time,lead1,lead2,lead3,lead4,lead5,lead6,lead7,lead8,lead9,lead10,lead11,lead12
0.0,0.22793582995256628,-0.019631205982793866,-0.05990399793959993,0.2340099606071176,-0.005902323524288721,-0.12275651286535388,0.26520664143772427,0.03620849221108501,0.027689221783460623,0.27135626404705,-0.020218199989234797,0.027339624073184493
0.005005005005005005,0.34509614585986953,0.028027290126210636,0.06461498603004785,0.355804462728669,-0.04674396021150969,0.1598960911268636,0.35185414710856755,0.07214816693913477,0.00886243039266503,0.3040427135245695,-0.027307177255987143,0.08937245242875252
0.01001001001001001,0.4000571660808736,-0.011554393447765016,0.13268635836241469,0.4157812300736161,0.016530167836661155,0.12960142678769548,0.43586643718233126,0.0691758962934338,0.08247605002813073,0.4485586655939935,0.08987539650830188,0.06537310589765255
0.015015015015015015,0.40289092022857526,0.10682756942472428,0.08923293272557467,0.3696802051883862,0.11442243642653173,0.14327169722691713,0.3602652596798079,0.15441802088031997,0.15123580267326195,0.41154562683865786,0.11666721734631869,0.12672321016188942
0.02002002002002002,0.47920340594737665,0.19727722380068324,0.1428848568673835,0.5720289415478133,0.24055094299367355,0.054349795937899265,0.5165914353636492,0.17436972342970825,0.12318412088192868,0.4352907228665797,0.13807398864641401,0.18140707816579585
0.025025025025025023,0.5913027769065217,0.22658696521202074,0.26865723477152137,0.46722157815600446,0.1789206079782397,0.1686909052928567,0.5143612595786984,0.22515327294810372,0.09057640973533797,0.5520910074856197,0.1621656466774551,0.2836339251594541
0.03003003003003003,0.5069024951529059,0.2143516573785412,0.17797053571071683,0.5017394356694166,0.2622886016644914,0.3179430256331993,0.6111834709313524,0.2993355863708733,0.2595325958518585,0.5190774229444631,0.20463752878476077,0.27935345223826197
0.035035035035035036,0.6379874113431132,0.25215180099984486,0.40660931946443946,0.5021150926177893,0.2512584818969173,0.4394968976036957,0.6485427803803459,0.3191977319116075,0.2831222890763901,0.4781190599068794,0.28440562026007865,0.3149764178837811
0.04004004004004004,0.5950436696509259,0.3313734462042569,0.31225133971227326,0.5181460954053047,0.23505620098230243,0.3053119565094094,0.6579186385593685,0.28659204761487506,0.3820123569646166,0.5869043326068287,0.2734023206967705,0.27562937938818777
0.04504504504504504,0.6780491512870248,0.3421799938543086,0.29484462633234715,0.5660811339252134,0.28019917091585206,0.4624696157046405,0.6395858407582996,0.4151976242167352,0.3388147106139865,0.6186067745304019,0.33925476961227286,0.3683768422494422
0.050050050050050046,0.7425987742606954,0.32951696563313293,0.3094261156507993,0.6679916285582805,0.37338093992214016,0.42848062270906734,0.5718011704899139,0.3757285688050745,0.4887076456589055,0.6467189037480705,0.41408484431930254,0.47681164799991277
0.055055055055055056,0.7772862213303846,0.48287779281296866,0.3945581458444088,0.7930855147270205,0.4359003791862881,0.5030319237492867,0.8002535302153174,0.39994461201078346,0.4269577708767409,0.7169554047198198,0.38363136598301123,0.370991291102503
0.06006006006006006,0.8099363543199573,0.4770597518879092,0.3506463739196259,0.7919756451308942,0.4505617358801452,0.4202544389284084,0.8031232403578299,0.47183828670512307,0.4827483728569462,0.6997360760667996,0.4948424137125448,0.45328917417768283
0.06506506506506507,0.7870265493101285,0.5191652746062164,0.4044288880606569,0.8367217326576116,0.4809202815699194,0.5286537351001254,0.6814307291030646,0.42705155537602385,0.5382000365598909,0.7274741724960209,0.5776693735076837,0.45800605147968737
0.07007007007007007,0.8598506139828135,0.5699492718676481,0.5225219391386795,0.7949465197551933,0.5704234992561475,0.5773423256457546,0.7809215474334301,0.6012451690440065,0.5411849580070242,0.7999108043398039,0.6029459763882659,0.4975655482668928
0.07507507507507508,0.9104293153933016,0.5841004274521522,0.6467911182562976,0.8848454230355038,0.6053766247291483,0.4806945779257732,0.9793430539802328,0.48892286387354267,0.529438525029393,0.8822456331788625,0.5008823663814422,0.520461302126249
0.08008008008008008,0.8893237906542268,0.5350654442442624,0.5849113371476767,0.8978012992054046,0.6569106324062777,0.6428476098770948,0.8969848744882427,0.616087777255015,0.6672084056827594,0.9609644838307089,0.6223358206145656,0.6044889739262602
0.08508508508508508,0.9776351088035162,0.5846972306811457,0.6193674492998561,0.9608067846429329,0.6581710154619295,0.6840489060350441,0.9902015160915102,0.7675149588812151,0.6716456675984278,1.0393726507454502,0.6217990531843327,0.6533594035577545
0.09009009009009009,1.0051661603608506,0.6676806242901944,0.75311931893075,1.042563112561827,0.6989020472373737,0.6479489937656274,0.8976454071002951,0.5833163434957027,0.6548616428473757,0.9243368660363029,0.6938673711750234,0.7127099601588149
0.09509509509509509,0.9850593110982981,0.6683012072927131,0.6704352349644789,0.9754834025078829,0.6735314530821264,0.6501695896030157,0.9804784490946895,0.7277280149700817,0.6966707591289216,1.0039573412768665,0.6125373944157004,0.6854445498390104
0.10010010010010009,1.1091816169783166,0.762103608483122,0.6753679194868787,0.9883204012790564,0.7173948055896855,0.6505806598453635,1.113082259719291,0.7633294673070933,0.7190989616834512,1.041659510951001,0.7071539913647473,0.7062355356055192
0.10510510510510511,1.0597300127869544,0.8341581515184439,0.6947200989071581,1.1277464085006377,0.7902753693743982,0.7750116792230092,1.076125940706948,0.8328996970320108,0.7104075545191587,0.9427286930204375,0.7345761562028008,0.7047439987122598
0.11011011011011011,1.0901720963784325,0.7555552186073327,0.8245079047484857,1.1789768645331045,0.8266522626623042,0.8410244221620999,1.0374096453375623,0.8942443216242512,0.8158051826052595,1.0966379938772564,0.883740271962302,0.6924919070413353
0.11511511511511512,1.0952090867415312,0.8574612624435572,0.7679280060765812,1.1005699299447897,0.7366020054263219,0.7900380007223645,1.0082474969917343,0.7993645612513327,0.710947698047522,1.1769398345047994,0.8642631128655636,0.8002092181781834
0.12012012012012012,1.2064261081141172,0.7653132215136927,0.82112407715497,1.1756183791772923,0.8578413645202824,0.9014494242481736,1.1101839568608705,0.8395470656789878,0.7363879724002527,1.1821443047574052,0.9111922111877004,0.8371331022488698
0.12512512512512514,1.14166544925005,0.8340111658347165,0.8229685607997397,1.1805029987023323,0.7930456458844126,0.9168514601529061,1.15942906654892,1.003946118221056,0.8460664929329041,1.087062185760506,0.7770441119783627,0.7905659108540033
0.13013013013013014,1.2161291674298307,0.9253090358930538,0.9319325534531455,1.1335024545228,0.882713846088532,0.9604894809012383,1.1227971420646976,0.8226262150325676,0.8005942877850423,1.149289537293729,0.9182534724447599,0.804999771246117
0.13513513513513514,1.1707462586161943,0.8766457235063592,0.9642958300981852,1.2440032386128472,0.9366170216499481,0.9247246769329596,1.2502509948625715,0.7950353085551958,0.8540259516004272,1.2464900027064076,0.9052264905305295,0.933082041171886
0.14014014014014015,1.2905174776554398,0.8539084367779459,0.9981363499931758,1.1681036682243475,0.8952265911250916,0.8942752564380971,1.1790911564053714,0.9274904894425862,0.9637185730625947,1.2591071072773437,0.9340254339190273,0.8850249611697439
0.14514514514514515,1.2107309822505872,0.971696682275577,0.9704774198443529,1.281090123494162,0.8270743405980413,0.9157516753541932,1.411148937872531,0.9906207289051651,0.9508680142950549,1.22797728607082,0.8831974426257763,0.8303751185263196
0.15015015015015015,1.3180484053676131,0.9570887977134016,0.963490388036845,1.146511717448375,0.9575056107562525,0.8781066025724145,1.229852585115325,0.9466809283850769,0.8989884505941037,1.2625395891245352,0.9081569153468171,0.9413473222876363
0.15515515515515516,1.1889575599041666,0.8690706762979147,0.9876947731317423,1.160292246897183,0.9363435861111564,0.9267772104625251,1.2093881818199503,1.0694866443184292,0.855212243946532,1.170533848334466,0.9530205517061628,0.8942090180765123
0.16016016016016016,1.2664942124319636,0.9373103765251024,0.9383626920463863,1.2518942054729219,0.9846193480158144,0.9510798115846084,1.3078677513457284,0.9522634725059347,1.0294468889216977,1.268749592999816,0.9742743513467906,0.8791344094940307
0.16516516516516516,1.2865354102591153,1.0271914743624615,0.9816589795175593,1.276964715739013,0.9194571693290409,0.955976141882166,1.2478585316270627,0.9233591056911146,0.9721551819027104,1.2634007431695475,0.9871966607723475,1.0348866657938467
0.17017017017017017,1.2723451575552753,0.9553213729410728,0.8822421836870106,1.374969379300184,0.9420656412044021,0.995588392975435,1.3031897226470925,0.954948489569987,0.9993449476375732,1.3175869402546787,1.0620100606702894,0.9713114151646024
0.17517517517517517,1.2850693537052238,1.0088129944843773,1.019776392628661,1.2251444387782489,1.0448931436067301,0.9958233813320725,1.2804418702870959,1.030641447012171,0.9884769612117891,1.320258816884694,0.9504257213558841,1.0728355034660653
0.18018018018018017,1.3338713899142318,1.0338518474955276,1.0116816543876928,1.364987594361334,1.0281700671554272,0.9694091335477079,1.3263002812569424,1.017376522903872,0.9039710697986965,1.2439989459737748,0.9691062152516524,0.9910197423860246
0.18518518518518517,1.2410405027897273,0.977290675993364,0.9971252664164979,1.4014728139638657,1.03043280398083,1.0084321709103499,1.2624306471318918,0.9228151341941593,1.0059963479455885,1.3302366835585135,0.9977522433096476,0.8678500716907291
0.19019019019019018,1.3060698144523095,0.9869718548118818,1.1214313573938501,1.2625011386820448,1.0350134508278295,1.040285874491434,1.2838910351036636,1.038341462099417,1.0175020069491498,1.451105158938403,0.9815410680782317,1.0239089465919724
0.19519519519519518,1.3227470881305385,1.0130776407135458,0.9862516486210224,1.3276519023357825,1.0499160128107894,1.0085222344464517,1.2430723323617099,1.0006022541388226,1.0451350744994359,1.3641896339882404,1.073056807452809,0.9486821484879746
0.20020020020020018,1.287583462994108,0.8728062909828949,0.9389865640480423,1.3983352839098009,1.067730294130196,0.9998791140801759,1.363030600472231,0.9803887053727894,0.9920124307571425,1.240145934056781,1.1226838861729582,0.9252473334926539
0.20520520520520522,1.2459310948485036,1.0057769920024675,1.0685124224015305,1.321562055940866,0.9850167048239623,0.9983900130071885,1.2717174050540891,0.9027669582907722,1.0330469859923777,1.2844638816960057,0.9522156081215125,0.9359776415843801
0.21021021021021022,1.2283172764017007,0.9270169933274063,0.9345565261312051,1.2493306311202772,0.8850132928532932,0.9747638487189464,1.2744822830881695,0.9615209145135225,1.0106739256980188,1.2475190168904207,0.9522471051914586,1.0180097345972274
0.21521521521521522,1.2879683025463975,0.8899406214438714,0.9962630262619202,1.2800107353089776,1.00372294817844,0.9985321005604825,1.2343814591306026,0.981828299642332,0.9732613633316292,1.3330187879141566,1.0086131766173305,1.012757420269737
0.22022022022022023,1.2871720894872976,0.9710059145882489,0.9024910145948739,1.1938075505641634,0.9407818346322938,1.0074259324426855,1.3254987062160113,1.0369268599683288,0.9176913619503916,1.3113253507181306,0.9208164541737501,0.9416735610635926
0.22522522522522523,1.2879411226678417,1.0013045419863231,0.855289359950446,1.277259903878953,0.8799584873354462,0.9492835606423989,1.3114371285756916,0.9732914644306591,0.9425479867331747,1.3248845082401322,0.9510180615483516,0.9271506168326048
0.23023023023023023,1.2891469450964868,0.8127520652735218,0.8972785772744571,1.3140891698387502,0.8872251023155889,0.9313064921596237,1.2618801630692729,0.9790328351141976,0.9872101811277144,1.2771189639638956,0.9040432779553571,0.946981299037174
0.23523523523523523,1.274101192169681,1.062658410931661,0.91316459828697,1.199606400589886,0.9365078996904593,0.9307825748813894,1.15552991167027,0.8214919185461527,0.9084569648563107,1.253247038395617,0.9785579059177241,0.9842080685945279
0.24024024024024024,1.317177704648105,0.8934688454931392,0.883158724285146,1.2277496682628515,0.8802175404304611,0.9767141273581261,1.1760037501745533,0.8136828348214517,0.9248215674425226,1.3057282530281638,0.9712729626972888,0.8853928046366113
0.24524524524524524,1.3299673970818975,0.9260408081233987,0.9934947361650394,1.1378119354611107,0.9027095488230661,0.8653672505597221,1.1779141125968993,0.9266821546146009,0.9137377874386481,1.17825567806869,0.9266498946986128,0.9909615519612013
0.2502502502502503,1.2493323548547521,0.9650462596009145,0.8761002082792777,1.2106174047200726,0.9338134918935562,0.8838059286210918,1.160506243580507,0.8491314148367889,0.9352234401871011,1.197765320924153,0.8155881580741784,0.9175444655526963
0.2552552552552553,1.1449840161886202,0.8428708555110367,0.8371001674145994,1.2581162605680496,0.8982698979856414,0.8209707843727766,1.1313052352119437,0.7978501103334681,0.8519272228918686,1.2064333926632216,0.8890697754649636,0.9380269245821771
0.2602602602602603,1.245655371710145,0.8253559144103361,0.8860555731970473,1.1690972389625605,0.7863558794907926,0.8166181309388107,1.142606190648548,0.824455288408298,0.8328913024746059,1.1498945688444786,0.8313478101566694,0.8648706143149831
0.2652652652652653,1.180495700591266,0.8551448147574535,0.8165984053788872,1.1879447418051188,0.8615714853413614,0.8311720635244786,1.1456541932974058,0.771914504929414,0.8495741660942429,1.119080599556036,0.828053111241551,0.8021708026369694
0.2702702702702703,1.0787789788454911,0.8276202808662695,0.7777570148106807,1.0346480782689538,0.8155845573962258,0.8245180323952569,1.0859207195487495,0.927692977711151,0.7585271858284286,1.071101807702367,0.8039028472600638,0.7394801661856476
0.2752752752752753,1.0703621165029769,0.7760843953446636,0.6868674361879503,1.109897214321704,0.8287384221143963,0.7094906224244515,1.1050496940752956,0.7564124262753125,0.8102449946310193,1.0964371571455636,0.8775961272437367,0.7940458487485537
0.2802802802802803,1.0366017827241452,0.7275626532607097,0.8088566716538936,0.9719321452239584,0.7770304600392045,0.7569359238868297,1.0039550916932325,0.6831424572739281,0.729770874621382,1.1188071224973142,0.8605765238025093,0.684612330533285
0.2852852852852853,1.0450230488306913,0.749087979036607,0.678412421365802,1.0335584428710785,0.7158650519051902,0.7073074951170137,1.053712471056363,0.727986212034493,0.7189779702150269,1.03271660570779,0.720015674736037,0.8501220989448559
0.2902902902902903,0.9869685513564886,0.7381308957584944,0.7264432984692402,0.9733642038527096,0.678449523457719,0.7260015178023429,0.9687046300879655,0.6901838547804219,0.6496859619012727,0.9167059108585616,0.655921071941096,0.7281167600850373
0.2952952952952953,0.9662449655066915,0.6968390206043235,0.6936458131658647,0.9331697335967222,0.6287124244032949,0.6681696318556292,0.9770761158349787,0.7082159882200015,0.6477706598571694,0.9933824938437448,0.6822796541531101,0.6014306471433553
0.3003003003003003,1.059957583793024,0.6811549555903639,0.678621780882218,0.8202808692559052,0.6899676146951316,0.6249199908821519,0.9637689425919921,0.6496627736771238,0.6591134466893878,0.9940755210309217,0.6664050520902689,0.656325411468432
0.3053053053053053,0.9078635937204639,0.5650832340424757,0.6131898389184363,0.9299507853215617,0.6630250031163248,0.5824114305859523,0.8999524738528052,0.5749336053498146,0.6311324162031183,0.9558485243594369,0.6662139631977702,0.5722499962753929
0.3103103103103103,0.9542568621064571,0.5892284593339333,0.5770642034447565,0.8634734302909229,0.5786107474792546,0.5952981307425426,0.9275891311300923,0.5703236241322706,0.6401113289205768,0.8348142296974864,0.5861468200640969,0.6030050643763168
0.3153153153153153,0.8439674225136206,0.5162095408652434,0.5133648692409016,0.9204114937792593,0.5757875287688241,0.5348351150203662,0.8262522142482676,0.5128565197918912,0.5344645242188547,0.8995829418996278,0.5077156728769351,0.5025433271808906
0.3203203203203203,0.7694473725760568,0.5267900257283539,0.4802654026696841,0.8138292824322013,0.5156968375886133,0.48646144237836975,0.8442256460591003,0.48108301809281984,0.5461422419751779,0.8067829121862126,0.5864950726559575,0.5295447122630863
0.3253253253253253,0.7375321085291188,0.4343607857982127,0.4578153663894726,0.8491220878510877,0.4169089591134203,0.42357414775422064,0.741138450114481,0.49324908556938457,0.4931865736676564,0.778444768789437,0.3684838332456746,0.3771516359107785
0.3303303303303303,0.7682663980735565,0.43097038822366895,0.47237193295769664,0.7440358882546351,0.48682115942944953,0.3973396258925831,0.696518990565654,0.44799686643146897,0.4233597287268129,0.7571486560677433,0.4942159459380918,0.35140272453888116
0.3353353353353353,0.7332469959772623,0.38948129774093093,0.40592526255928607,0.7851335677829626,0.39240572977530913,0.36098607232815355,0.7168671149094547,0.35281593756900725,0.3523348794550269,0.7054414086154308,0.37706680914607194,0.33435117588323066
0.34034034034034033,0.7292525583403149,0.35195637031667387,0.34060629424590283,0.736440862572771,0.37076467515273503,0.38290857367016157,0.7721857877534951,0.36693510228805293,0.301769621456263,0.6015166647719661,0.31685890540069694,0.3570764260711663
0.34534534534534533,0.5330099444952878,0.3767993906517737,0.37145476281391937,0.576980914494528,0.32708930037750333,0.23843339446213918,0.640737566369902,0.24598423089451255,0.2759965345168999,0.6324760950192687,0.2596458356338635,0.29167005888484765
0.35035035035035034,0.5916579719975498,0.2892992166983701,0.30809274780341556,0.5114765996525852,0.2896548175315482,0.24757712396157264,0.5845990486792461,0.3554038769325764,0.23745296271138633,0.5278346246440859,0.3633514194866102,0.2675036512863241
0.35535535535535534,0.5933872888830314,0.17188216742123502,0.21402301011047545,0.5488521635549537,0.2861941366278708,0.30640943813336513,0.47544347674875254,0.14542261249520563,0.1914929766020506,0.6334800145671795,0.22464211517924074,0.18985800817615225
0.36036036036036034,0.46081960748931905,0.16346841342192664,0.06391788456426417,0.5619496912061643,0.2049778506976807,0.1379628744106653,0.47805660811588574,0.12244237820051244,0.24348149989204018,0.49201804044526315,0.26421490058957076,0.18485344521658706
0.36536536536536535,0.48341392536637184,0.16666751412119626,0.16637916473315337,0.48437024009561147,0.18000518841226662,0.199721289806427,0.3879966018772808,0.1314018935730098,0.10368509215198307,0.43612250213187165,0.09210864197828438,0.09340300566860969
0.37037037037037035,0.3845082634356838,0.11964370174633795,0.13426697675175975,0.48198856124351164,0.2003639159166862,0.14405508655895274,0.3171105536989974,0.1595725319826684,0.11472747935911475,0.4104357636554398,0.13987769030995267,0.05683072470441997
0.37537537537537535,0.3696655423829541,0.04073041136030687,0.09735829090268462,0.38457249451963677,0.050244066146928675,0.05585511040102657,0.3590680789046835,-0.028534582150332277,0.060851674953870505,0.36777819554793567,0.019249510166174225,0.13850178560037849
0.38038038038038036,0.25295570190666283,0.02121409976624833,0.013278075033012718,0.3113869198488162,-0.01919094076077344,0.03062993025504644,0.2688749553941343,-0.05559571984627809,0.03701590219277734,0.37153213312627326,-0.008635361173180797,0.0771150930761888
0.38538538538538536,0.33385165680845585,-0.007591871448700997,-0.027982073065523742,0.36035962833310653,0.0040901751733538666,-0.03946589052322389,0.2835834442194172,0.024153376833482135,-0.03590313708262374,0.3380938941372848,0.012918753606040952,0.036292124143170804
0.39039039039039036,0.1559150806988691,-0.11510020671569979,0.03155598265237373,0.30280823507168936,-0.015599560857588804,-0.09181589998419556,0.22394307351523468,-0.00022753298210967388,-0.07195985745106115,0.20966267317247356,-0.016516203046523625,-0.04567396643133961
0.39539539539539537,0.2521289530943672,-0.12858261640064395,-0.1263606368359585,0.2236451155874052,-0.04699027984677917,-0.06360765945067287,0.2844512565360062,-0.09020649560739394,-0.050258876200674596,0.2917227681183469,-0.004774613348769316,-0.147469271538498
0.40040040040040037,0.20140047804135197,-0.1496463613732578,-0.22174066674971232,0.19271808937471901,-0.0829260051385779,-0.25214210935020165,0.14159520127296393,-0.059515317501660794,-0.22315105336267949,0.14432121247040217,-0.14690133142706388,-0.11022953017615632
0.40540540540540543,0.15304391257965022,-0.2609212277471958,-0.24665380750350524,0.12909487535559871,-0.14817106693927967,-0.0867064082583446,0.11986781655989806,-0.18585014191350707,-0.06009284314780913,0.06710729839599498,-0.110182934087345,-0.15137533598464037
0.41041041041041043,0.090112191564455,-0.18100256361598316,-0.14877442557468135,0.022826989538346845,-0.20266620474488725,-0.2397421622942748,0.02185721308282186,-0.1883501669935969,-0.17904080493547833,0.09435466201996888,-0.18813262193754665,-0.1907650271549162
0.41541541541541543,0.00028006240372804164,-0.31815416345249214,-0.22802454100758646,0.02433477192646667,-0.25629782253971395,-0.20056660598840478,0.08541008296398983,-0.2162339159161031,-0.27438432014320147,0.11831660724748502,-0.30966900186651336,-0.2653805375538229
0.42042042042042044,0.026330843309409976,-0.2659403882010956,-0.32074314732483833,0.02475811771612571,-0.29972259384268557,-0.27311620437310136,-0.03405874029216149,-0.22011694337529886,-0.3378618291772514,0.000599227436712528,-0.29719199177862204,-0.31844124967282095
0.42542542542542544,-0.09637030450592951,-0.29921903427091046,-0.31229120495722007,-0.031237295220384428,-0.2303675863807626,-0.23405904565046948,-0.032128702330503044,-0.44460048813686853,-0.327764183847111,0.0016523343162124123,-0.3900810030223132,-0.3829685176576399
0.43043043043043044,-0.004004113759321144,-0.34770988665113123,-0.39766861574253326,-0.07425347673919973,-0.34491062071391115,-0.3707468628767018,-0.04736109342249296,-0.3089521964987604,-0.4064978399645312,-0.0701005102764769,-0.38474975943667034,-0.42944803435206813
0.43543543543543545,-0.165555148427689,-0.3874137550953825,-0.29068115234433034,-0.1207806065933961,-0.40637960415180163,-0.39040461246881103,-0.051906788753177224,-0.4311349728769821,-0.3884827196373799,-0.09932412441453907,-0.3536131113705424,-0.3940521753654458
0.44044044044044045,-0.17623397223361514,-0.40982860215470457,-0.3620437989802344,-0.1534204157722328,-0.453453821420805,-0.4280554908732107,-0.17701495148800706,-0.45922457219801444,-0.43574151454976257,-0.10785647419089697,-0.44979127261160523,-0.47412244020497485
0.44544544544544545,-0.2267382351283935,-0.4513190160179664,-0.5651349092832257,-0.12947927676974838,-0.4822294104022147,-0.5199743525886477,-0.1907311055208456,-0.5010584155350587,-0.4847307337409381,-0.23815927503138962,-0.4837609579784492,-0.4322780851102759
0.45045045045045046,-0.17542253249418016,-0.5640674965126615,-0.4025588310504674,-0.13354091886240707,-0.5090057481715962,-0.48706673755016205,-0.2758773472554858,-0.37845226507042473,-0.5364123234883293,-0.25837450503755177,-0.4525967147308076,-0.46235404675301256
0.45545545545545546,-0.189012570119449,-0.5022857736564531,-0.5292752370776463,-0.18676790521338918,-0.5268869363878182,-0.5053056984974654,-0.23077409491320552,-0.5232548525292116,-0.5148251553889882,-0.4166943756009877,-0.5981493395904958,-0.5616008260530332
0.46046046046046046,-0.34157886857009057,-0.6155708488718231,-0.5775681526437921,-0.2587045232160844,-0.5834284386210264,-0.6083145243320393,-0.34486275176992137,-0.5555350215933611,-0.5432451175610592,-0.2539846111582447,-0.5501846010748147,-0.6765441615700163
0.46546546546546547,-0.414482379872329,-0.6945648787217943,-0.5873251772102446,-0.34076878801283045,-0.6823864510726797,-0.6368090785289313,-0.24733310371028247,-0.5560964337844367,-0.6909801915254582,-0.3763138914887513,-0.6453570942819118,-0.5732204956043621
0.47047047047047047,-0.24474588560493787,-0.607261080639765,-0.6362591732713467,-0.39112098875710793,-0.6239222693176719,-0.6431318144193712,-0.324976304224106,-0.70446208447041,-0.644337088134824,-0.25717394700674057,-0.6876413428199573,-0.6937927984402071
0.4754754754754755,-0.3691355151381764,-0.6584953886277646,-0.5720983167054526,-0.3600153416640192,-0.6198598130065532,-0.6421999542272012,-0.41506372283385984,-0.6538213704780986,-0.7175024505945486,-0.35356905589634036,-0.6325431401785033,-0.7010993594323257
0.4804804804804805,-0.3915306615248061,-0.6956448006246103,-0.6930348629092771,-0.45533769133385843,-0.6916991987116649,-0.7063004903484097,-0.42449716355468936,-0.6871197241397997,-0.7731037597662267,-0.3963867452162742,-0.6866372209480874,-0.7107352432532134
0.4854854854854855,-0.46364335901679626,-0.8108434340331687,-0.8003121784676264,-0.4001702628468593,-0.7887211646310209,-0.7531322132431659,-0.4078971637164192,-0.7020646338232598,-0.6578720262898791,-0.5073638119736226,-0.6758760038142371,-0.7064271058966975
0.4904904904904905,-0.4722535660397777,-0.7826168601666686,-0.8286940753357706,-0.48277814689526477,-0.6562238457406069,-0.6809999984558373,-0.516472770475136,-0.6930112118331319,-0.8186350432536509,-0.5415788949229766,-0.7257070137159221,-0.7499933537183814
0.4954954954954955,-0.4554930492465232,-0.7608987408196001,-0.7750348129212052,-0.4799782694107876,-0.8285426705699857,-0.8363429219287076,-0.4734980237194681,-0.8119662500939165,-0.7515061486364613,-0.5603379748840862,-0.8159561487915999,-0.902475212854689
0.5005005005005005,-0.4883979664518394,-0.7724864022583051,-0.7546664361328274,-0.5515915025855012,-0.8099713787341363,-0.8802790595866892,-0.4790191576727649,-0.7981638278698397,-0.770500938381068,-0.5450546973125561,-0.7930588625008609,-0.7550309779927712
0.5055055055055055,-0.5335886502631775,-0.8267625405686869,-0.8466732894340111,-0.5881396491246798,-0.9146971736489994,-0.89657864536888,-0.5379457739886532,-0.8617438765992578,-0.8379514698178911,-0.5769108100489838,-0.7977917448939509,-0.8877903283313192
0.5105105105105106,-0.592118498156494,-0.8354744863636973,-0.8636401016933166,-0.5324434687451474,-0.8181559144485071,-0.8611978739753132,-0.6032154086187809,-0.9016290944944239,-0.8656879283279793,-0.48535608215518017,-0.8233226030388893,-0.9434243680772028
0.5155155155155156,-0.5431415468702502,-0.7949846812953885,-0.8627966238425488,-0.5520926334611346,-0.8556973721134489,-0.8465902724853976,-0.5988571082731878,-0.9905572870568831,-0.9268830296245747,-0.5460370994647543,-0.8512918824749847,-0.9564807051002534
0.5205205205205206,-0.5891081946646147,-0.8813450244588986,-0.8597763403704849,-0.5616303757998425,-0.8900186312480195,-0.8969945263482375,-0.5834046443129323,-0.9087989850949502,-0.8839258907863563,-0.4844455506929262,-0.8902410246223795,-0.951663409398872
0.5255255255255256,-0.6045979048892187,-0.9105419105514886,-0.8965426671398348,-0.6466259097162964,-1.013692847097174,-0.9689854965818261,-0.5677693465203846,-0.8837516313167268,-0.8557038436359,-0.5766038118307137,-0.9969307048020725,-1.010896402077667
0.5305305305305306,-0.6765758594109063,-0.8374884449850362,-0.9191675967633668,-0.6949946220046662,-1.0216904820101773,-0.8869467775760344,-0.6844972141116491,-0.8709040954092313,-0.9391241977034392,-0.47238216388009474,-1.0269143216226544,-0.8729090953977559
0.5355355355355356,-0.6226765848914839,-1.0136490434089844,-0.9381021424753386,-0.6642848543719019,-0.9311767554105773,-0.9441256876871943,-0.6340465464071111,-0.9492055630483494,-0.8978579335095783,-0.651962550871735,-1.0194320440743136,-0.8638517956678494
0.5405405405405406,-0.740151536365455,-0.919403467578379,-0.9853525993093285,-0.5176789409982095,-0.9319694367758096,-0.8825254952503281,-0.7690429662156107,-0.9591833065862706,-0.8753806042772123,-0.603713746823252,-0.9550401640638364,-0.8400474103149487
0.5455455455455456,-0.612383867718102,-0.9505106933702651,-0.9814133101026691,-0.5664308683627758,-0.9255267604619548,-0.951628126760605,-0.7074524766011592,-1.0036711677997354,-0.9994970559911847,-0.6974432971476414,-0.9320930502706711,-1.0022674429705027
0.5505505505505506,-0.6783916044653818,-0.957262659617109,-1.0504217341153237,-0.670932011022739,-1.0328417153920324,-1.0119996176537218,-0.6440014852211041,-1.0063475862756104,-1.0679234403379567,-0.6739752153230111,-0.9971863074349743,-1.0781191150459433
0.5555555555555556,-0.7036811568229165,-0.9536566794295552,-0.8935203267550208,-0.6141061806840351,-0.9462316008015994,-0.9985204920248312,-0.73590529247169,-1.0048859746935053,-1.0057550658933934,-0.6777066196341605,-0.9676699307705064,-0.8975832802299775
0.5605605605605606,-0.709235016616953,-0.9856610632828176,-0.9915142891537303,-0.7200330506245504,-0.9966859308096503,-0.9965443330903834,-0.6091933368718492,-0.973317769540758,-0.9673282751609046,-0.7184138889665403,-1.107041358865688,-0.9610668732876562
0.5655655655655656,-0.7528664215283303,-1.0593301693700048,-0.9292242327433738,-0.658509252706551,-0.9760457916944092,-0.9506073742529992,-0.6013638298842582,-0.9725567757279732,-0.9594318839465223,-0.8037375076413991,-0.941296332349522,-1.0096531070863728
0.5705705705705706,-0.7070158334615558,-0.9183571715063221,-0.9907825923028732,-0.8338844963448242,-0.8833621996055538,-0.9906669834533258,-0.6352730436975287,-0.9426624239140264,-1.0050589181297016,-0.6688486986738112,-0.9133357395456785,-1.0584668305728813
0.5755755755755756,-0.6621373635557573,-0.9951996875703052,-0.9641050506110574,-0.699693925373374,-1.0308360256548519,-0.9903357683269004,-0.6930564296775208,-1.0824152449287763,-0.9653959241378869,-0.6912471141144638,-1.0304649255386973,-1.057785737972007
0.5805805805805806,-0.7139658725499454,-0.9807217204445637,-1.0198196179968104,-0.6966850037497948,-1.0226525808232885,-0.9827104811359983,-0.6244528246924455,-0.9943217988226772,-0.9618347528866358,-0.6802845815429069,-1.0029874309185447,-0.9681257866932358
0.5855855855855856,-0.6805877778888328,-1.085289392406253,-0.9957996140005826,-0.6748673073543954,-0.948055808541297,-0.9421506827892124,-0.7333310048615423,-1.0312930599624963,-1.0521840749019435,-0.7295843282002887,-0.9900249910041573,-0.994777546982711
0.5905905905905906,-0.6547244668504214,-0.9343234691851188,-0.9690943285498993,-0.6364703785193899,-0.971918799213687,-0.9125486870827528,-0.6331736186609411,-1.0377834524020217,-1.01007246962015,-0.6734901526405902,-0.9859660880664735,-1.0253410990388265
0.5955955955955956,-0.7620269340827684,-1.001545808606538,-0.9466219494049695,-0.7352146086324505,-0.9964978837669287,-0.8486185801566901,-0.6814773756611145,-0.9813581588936588,-0.9853401426459522,-0.7722437676880796,-0.9609446405519633,-1.0459721779015394
0.6006006006006006,-0.6890653791362533,-0.978441039318218,-0.8840996899766256,-0.6866808322260061,-0.961195478840418,-0.9363359073233899,-0.6844039217900355,-0.9876561599823634,-0.9475003378902958,-0.674649611318941,-0.943520541159682,-0.9752789612070882
0.6056056056056056,-0.7339736588469229,-0.9817056198609652,-0.8830659066548234,-0.672503807892859,-0.9382046208370896,-0.8852610040957383,-0.7353937648148484,-1.1055708061781813,-0.9925404961279939,-0.7335459067334057,-1.0100657573629577,-1.0046083531517722
0.6106106106106106,-0.6837338145702505,-0.9660451100861047,-0.9506917620541843,-0.627748658666522,-0.9706768900082945,-0.9813327653010474,-0.7614046697574571,-1.0030089968372615,-0.9292045505510873,-0.587673028331689,-0.8754440319628954,-1.0481980430957445
0.6156156156156156,-0.5838947442281337,-0.943291477100816,-0.9541566987474014,-0.7116213114054791,-0.9030398822064573,-0.8859192317458271,-0.5492059221751988,-0.998171354601939,-0.9930721715250792,-0.6331820962030814,-0.9633510305982244,-0.9197003003888291
0.6206206206206206,-0.6467817719307288,-1.036976233540269,-0.9327563816254445,-0.6441532605875809,-0.9538099364845668,-0.968159163704171,-0.6418926315239337,-0.8747190665029545,-0.9732213790576367,-0.574368202858407,-1.0071782381104404,-0.9864636886940027
0.6256256256256256,-0.6640590597195745,-0.9210514045115241,-1.0009044042284867,-0.6129148230907007,-0.966281614881877,-0.9720675452086093,-0.6535674416908693,-0.9022240598695993,-0.8303520856608355,-0.6807209854984034,-0.9929069801049732,-0.949024357937915
0.6306306306306306,-0.6807056788381264,-0.9490617179618489,-0.8316973063595342,-0.5840649068445498,-0.8984387755665003,-0.9398961204039838,-0.5788206845473338,-0.9483172647470945,-0.965263874516123,-0.632602558795655,-0.8972533324542356,-0.9153817526229601
0.6356356356356356,-0.6243582391015424,-0.9825562193517399,-0.9507276705572154,-0.6421806037668991,-0.9617993348339812,-0.9005738055983475,-0.6197966573501064,-0.9050368755241912,-0.8356301535639472,-0.6142861398685571,-0.9288403316838196,-0.861232590088199
0.6406406406406406,-0.5457708689397501,-0.8077496374972142,-0.8427071133378738,-0.5846713063788722,-0.8957981339608433,-0.8636675274864063,-0.6397385383253466,-0.817523804199543,-0.8554831799154878,-0.5501086188750708,-0.8108139712031831,-0.8257721568786138
0.6456456456456456,-0.568289877199994,-0.8456523109716692,-0.7950430012563827,-0.4635035542309046,-0.7902832620634473,-0.8452511567666778,-0.6280401539873783,-0.7970071568988095,-0.8633867572157194,-0.65679599325802,-0.8062077028954097,-0.8143998570692556
0.6506506506506506,-0.48424350120055004,-0.769913868051739,-0.8732524994995358,-0.5533909849504984,-0.9392329748080896,-0.7967180155048162,-0.542816856885153,-0.8956427631280611,-0.8132947486156038,-0.5695666453186037,-0.7884497397733117,-0.8725170303118653
0.6556556556556556,-0.5249840246479529,-0.778467321724968,-0.7849497819141396,-0.5059780322131872,-0.8538610356119457,-0.7940574603669867,-0.5188829249267035,-0.8638192470305783,-0.858975358596641,-0.5178763558005035,-0.8294134813358348,-0.8286163219057602
0.6606606606606606,-0.5573656825673453,-0.726991092141238,-0.8239801770869838,-0.5120496864474382,-0.6898266461832513,-0.7747090956440814,-0.4998125684618126,-0.8324220949361592,-0.6671380504170185,-0.5012861040571736,-0.8027407789458537,-0.8806974803193655
0.6656656656656657,-0.3825503235494924,-0.7038213367496212,-0.8033601996359419,-0.5062459468779567,-0.7300453500039424,-0.8686657032814473,-0.36861463453354804,-0.7583698608256852,-0.636057688732248,-0.38588819173477745,-0.7100889665668589,-0.8473531928191438
0.6706706706706707,-0.37488442466079863,-0.6819244234894307,-0.6525645372366575,-0.39384272934721054,-0.640248699923475,-0.6147680997274282,-0.4514963764821708,-0.7040922944969561,-0.6878962041128148,-0.4493321303848613,-0.771361383965014,-0.713278385121589
0.6756756756756757,-0.3592423700233601,-0.6261357175512088,-0.6749080071724238,-0.3654666217711208,-0.6455650925145365,-0.6917241631986146,-0.39616729684029245,-0.7008493411521315,-0.6809227391999702,-0.4671411679803294,-0.7331991691725855,-0.6298872431439947
0.6806806806806807,-0.3822979147003808,-0.7278582987170023,-0.6169313840847059,-0.3378230748868615,-0.6669545137299057,-0.6424924275001785,-0.2484001602443186,-0.6553794009858094,-0.6821694549615244,-0.3525042700650789,-0.5726381646717437,-0.6822335236593734
0.6856856856856857,-0.3166868906843032,-0.7432927314148027,-0.5690759374654275,-0.26921571146283774,-0.7409641225166076,-0.6308415874659483,-0.30962139443449815,-0.5590285004868425,-0.5545876508933645,-0.30470709443508154,-0.6000572377602292,-0.6720768715416517
0.6906906906906907,-0.33988481760606143,-0.6520279364240427,-0.517033322145628,-0.2582558701592439,-0.6396874613872275,-0.6017325774995128,-0.3467672732461209,-0.6269572641973195,-0.6868079143904527,-0.37454128885870974,-0.6374122806197274,-0.6267582973193832
0.6956956956956957,-0.20585233212470075,-0.6245796185529616,-0.47911287260426405,-0.3177888842917491,-0.623688852949782,-0.599572232256935,-0.266737760670571,-0.5701366084936293,-0.5930059590730293,-0.2805348410674053,-0.6270837623463555,-0.49849331458525437
0.7007007007007007,-0.23673802259845197,-0.5257637404344411,-0.5580237366752174,-0.24753796746550766,-0.5015184913197214,-0.5115739680873157,-0.2548314523349053,-0.5462431822316346,-0.4937842810209717,-0.3183008921404349,-0.5641815439019164,-0.6244804484920489
0.7057057057057057,-0.22359804182337462,-0.5174355184414348,-0.5457775919667371,-0.18719428193434207,-0.4758575915137178,-0.5210791996087163,-0.18499035879093675,-0.5165505039426117,-0.45267934919050296,-0.2004754034599998,-0.4359902641465462,-0.4816626289524232
0.7107107107107107,-0.1683142510860039,-0.4348667839292301,-0.42883392137603404,-0.078470046103441,-0.47028416464207035,-0.44252532541227474,-0.05895539750348634,-0.4727273116901928,-0.5095125055730851,-0.13739732968017307,-0.4258576808959842,-0.44816863029312004
0.7157157157157157,-0.12777695029630054,-0.4150602418879875,-0.4766602310083933,-0.028624634584278802,-0.45280829463159217,-0.38136403544768355,-0.137410424978004,-0.4916961487499011,-0.43447865972307986,-0.15944691072608408,-0.3953826909990361,-0.4250758457901304
0.7207207207207207,-0.09199792340568601,-0.310372105795038,-0.42283407105627485,-0.08017986743109864,-0.35130449565374783,-0.23330161468338528,-0.14036882609879522,-0.38679149540088453,-0.4407907838145692,-0.13796672124040002,-0.2969855838919926,-0.4295888115620107
0.7257257257257257,-0.008811144678289473,-0.42583567054497595,-0.32863545513983566,-0.0820444259978994,-0.37343351032436856,-0.2709332625014787,-0.06771211103416727,-0.3426076391846521,-0.3335973699528148,-0.14563249581152482,-0.37744013396730847,-0.2885867349535067
0.7307307307307307,-7.658589494711869e-05,-0.23376493320101782,-0.3809780192883945,-0.0160778612654476,-0.3038493740233902,-0.24546798939855968,-0.05200933406689012,-0.26554983356079154,-0.19109111140509752,0.0013725019339854618,-0.44327161637737433,-0.2820064776390961
0.7357357357357357,-0.05177857793317328,-0.24489890194576028,-0.29378580458617615,0.1088438218801595,-0.28730746471611346,-0.3631482293066515,-0.022012730248906535,-0.23993076876357808,-0.1880713645172427,0.060196794238267404,-0.22414886210223428,-0.19646897917197437
0.7407407407407407,0.02356227567392511,-0.1807571606082425,-0.25413026095432883,0.1348627714491205,-0.1931353370904016,-0.2563283635178947,0.048137979221728334,-0.11210411882481344,-0.28247566476518843,0.10390497098946189,-0.14449103375572658,-0.16803093240453965
0.7457457457457457,0.10961733498379368,-0.24761178868826178,-0.27253839026785354,0.02165948826336213,-0.16541655749264284,-0.24401480244094179,0.1848329704885855,-0.17278706760610793,-0.1957415848528164,0.10836413078600365,-0.15853257889669675,-0.15150222937764912
0.7507507507507507,0.13781471992060715,-0.15276221105021634,-0.18017373759645422,0.09263966202898821,-0.12533180278723516,-0.06451353101883484,0.2434168842992544,-0.16365221545766287,-0.2173337887709669,0.17178386058119915,-0.18997053825883672,-0.15880649534452546
0.7557557557557557,0.259729008692428,-0.1434178468033216,-0.09818093327234745,0.20241912603216825,-0.06982046554295868,-0.07781183573393305,0.24064865042413122,-0.10992667502571465,-0.04911210247137605,0.17426631459472985,-0.11947508180842151,-0.1212230451550935
0.7607607607607607,0.14389868831271388,-0.19416864484448243,-0.0565357545111838,0.20655341178135816,-0.03356095617147734,-0.12490627429620602,0.2462406255148296,-0.004559169103552946,-0.05871908135471289,0.2881131013819312,-0.05748532236938977,-0.09413348913341944
0.7657657657657657,0.2625587680081884,-0.061812838667504186,-0.03300066910745755,0.2605162432230166,0.04798918061521314,-0.015232853847143549,0.31731419865184435,-0.14211525903784575,0.0515228730977588,0.3216145053594624,0.0318445064054932,-0.10230500283693639
0.7707707707707707,0.3636720528999562,-0.031198320051838938,0.03028141373546726,0.36918525621384823,-0.13731337087722623,-0.0038414790165053163,0.26834613361660914,0.0011024905740724539,-0.005529422841164481,0.35342198938775665,-0.004889356658539089,0.07166085227253002
0.7757757757757757,0.3616437924558556,0.013872652796271256,0.026048866861412376,0.3555226429203014,0.03857438686838988,0.031866823039725975,0.3912719223484036,0.08086208533151498,0.03610892245867549,0.4121576211882716,-0.06466198911172966,0.004121646422460039
0.7807807807807807,0.30799792537209475,0.0665251173080639,0.1496973424526471,0.40234750034769207,0.09480582491322323,0.12057756049035889,0.2513726702054244,0.15725466421878004,0.07603643120437208,0.4426884656264607,0.13233236983196645,-0.007821236083503047
0.7857857857857857,0.3487925385502212,0.12622221272438275,0.06645575893634868,0.35324621247328025,0.0916772711169421,0.2067166537831366,0.37920460958127195,0.06989182326492607,0.11414544442056432,0.37756087448675657,0.14115448784272516,0.08422993069273843
0.7907907907907907,0.45827507530707207,0.18573165274104914,0.15308865556252577,0.5099593821556637,0.1194348353267602,0.11734850905938284,0.497589490870397,0.1599642647567205,0.13901990423377142,0.5546902959931529,0.1553487257212543,0.1983615885381169
0.7957957957957957,0.4870887148273487,0.2161181709801512,0.20474002418895737,0.4745190114442887,0.2409892097550326,0.19742263077550348,0.47404454486830816,0.253202480057112,0.17374723422197283,0.60783885488298,0.26096176638470125,0.20913310540842397
0.8008008008008007,0.6022527819632298,0.34364842374530863,0.2329498012852019,0.4925760828434102,0.2256712313922155,0.24100389551662993,0.6033997815005114,0.3317437968893886,0.3280644389960344,0.6374671091159188,0.31184621493268905,0.20334130591786787
0.8058058058058059,0.5635249277834998,0.31199458931139706,0.34276831049948353,0.5734257798197733,0.27136506335662747,0.2527368985141164,0.5991405854406785,0.3049110731564736,0.21625572620311456,0.6169818019410487,0.2983486093286346,0.39996196705870346
0.8108108108108109,0.5728492898106298,0.37641243486293596,0.34220816173843405,0.6727525949850037,0.31498398407432954,0.2656357709450274,0.623887914843356,0.32650944233895174,0.34974334442958704,0.636023879275339,0.2945513904478092,0.33617421698028027
0.8158158158158159,0.683251995427066,0.286094246970456,0.33164605774063793,0.638534070460161,0.4070789176329582,0.32886350920565327,0.6020934429061249,0.35497406946473564,0.43277546879118245,0.6340407878977526,0.32542910434803934,0.3584959136764155
0.8208208208208209,0.7639336827134526,0.3243489647603278,0.3811943078231632,0.7456228809757837,0.3823465367438845,0.5190568250082642,0.778088992339054,0.4248668747688805,0.34489768568300333,0.68002822256509,0.3816966256426229,0.3858443992798062
0.8258258258258259,0.6796303195970067,0.44497128198920805,0.5107267819154722,0.6979214196832295,0.5058605585879947,0.5487314270476474,0.7710160996768505,0.4330191050310612,0.45159446025208877,0.7130489944073738,0.4033354413270796,0.464270041886829
0.8308308308308309,0.7007607049913315,0.5298237707513047,0.6234224292083437,0.7939809561205007,0.4763512512471921,0.447324537525528,0.6988697533246162,0.4404567344953428,0.4491379409021673,0.8155635064951391,0.44792476621836713,0.5082233679253934
0.8358358358358359,0.9134009915651262,0.4292066216545783,0.4315122378121486,0.7818663921695092,0.5116442793230447,0.49149646192445884,0.8470336514915412,0.48066625458313544,0.5478438073153155,0.7934371594246543,0.5050430146513901,0.5221299163062756
0.8408408408408409,0.8515798722092135,0.6159538953378382,0.5157565319579105,0.8974191389227081,0.6497425613545316,0.5931237606130185,0.8992337939054085,0.6729610351388478,0.5617221312424645,0.7985554009380698,0.5307166272822553,0.6434028568315127
0.8458458458458459,0.8184810378658796,0.5772132674766485,0.5283135112526716,0.9764934080747063,0.6094091770724972,0.5545552783488228,0.8378384896820676,0.525693339948149,0.5062487459293668,0.9018212445485896,0.6132733872265068,0.6071546367484996
0.8508508508508509,0.9337522321382288,0.6561942149112008,0.5755429023387041,0.9985550145141882,0.6235939440459353,0.6261817499956788,1.0766135910535557,0.6003217296359279,0.6053728356482351,0.8798822094972834,0.6837054322659462,0.6248421140642746
0.8558558558558559,0.8945418670554972,0.6726540024811144,0.7034156380868661,1.0110053631306426,0.6818396442904354,0.66289864942111,0.9342316003199602,0.6137939236218146,0.6836517802308018,0.9953021225049378,0.6461288650783256,0.6683209090887237
0.8608608608608609,0.9473308272956852,0.7370260560382997,0.6939452309034336,0.9432852575823385,0.7262408772105222,0.6356071528514033,1.0215098977406116,0.7513996194635785,0.6530935430757041,0.9763962773734596,0.7849885508952039,0.7244286024772191
0.8658658658658659,1.134270023649611,0.7377500834793799,0.682260782822204,0.9820070654983986,0.71533588149024,0.7409321550073171,1.0111072760128863,0.731700708882592,0.6611765355998296,0.9190474854207478,0.6496454131195211,0.6580710567063295
0.8708708708708709,1.0614991830235814,0.8550931224322174,0.6930537814627865,0.9901930257802064,0.6791491369675684,0.7047864052547678,1.07719879179869,0.6652368277968822,0.7211909715311683,1.034442641366461,0.6844247725416035,0.6842495216078195
0.8758758758758759,1.1511850804061723,0.7696914030419875,0.7408496620059023,1.0457551831814271,0.8045295469139575,0.8519898524543434,1.046378339474728,0.812782636756597,0.6527818472052909,1.1211706025747399,0.7845325475107727,0.8136524361139792
0.8808808808808809,1.0923569256709098,0.7207828949064611,0.8141039437794723,1.038155872319249,0.7992890216565326,0.7827478809574289,1.0188679622945782,0.705516443609246,0.735742067574547,1.119540116679047,0.7987374119731444,0.8246749383402063
0.8858858858858859,1.1102486076807456,0.8489959556970614,0.8028105834266684,1.13769243710057,0.8235164207567929,0.8832866814105866,1.099209457632549,0.8146640822201583,0.7453847268703592,1.0860259226323448,0.7460725296983488,0.7878378900915315
0.8908908908908909,1.1358089381045722,0.8166923973546012,0.7264369641713238,1.0882875972950572,0.8100814640589199,0.7767495594384691,1.0587754167435781,0.8532379371216944,0.8976557899722928,1.0489207945066605,0.8260117815578386,0.7715160175550795
0.8958958958958959,1.0857071633997288,0.8486228709721801,0.8270280064523972,1.187064086005837,0.8630696747521389,0.8279042813136593,1.1782571471708287,0.880996280340654,0.9052721194689446,1.201372407527025,0.8490772323743354,0.821792463542809
0.9009009009009009,1.180877657347392,0.8844966430034259,0.8322482568477056,1.1709850364783718,0.9020389672375436,0.8911384338174602,1.1275110083708915,0.8599675098177761,0.8456895066028338,1.1547328023369037,0.766157108398122,0.9267569146481028
0.9059059059059059,1.2898894428090326,0.914854462960063,0.9108323465673253,1.232370517045639,0.8564131090143544,0.8487598242500829,1.1904069961928898,0.8826564252150153,0.9085160418462802,1.0626302289753733,0.8409176947321819,0.9635344262610644
0.9109109109109109,1.1834473143435498,0.9006120865776557,0.9775619953001058,1.2318615611640018,0.7856647567715233,0.9140287377148485,1.2305659988931377,0.8783919893033978,0.8781586598206432,1.174070619272367,0.8893446078294732,0.8581736699908412
0.9159159159159159,1.2388029194877606,0.8785449552211759,0.8850317160644335,1.1414345734123588,0.9252857955455419,0.941533954024271,1.2566256667245075,0.9517451653812417,0.9084868278676506,1.2000961130918466,0.9009342142065387,0.9342114536126109
0.9209209209209209,1.1973105699323772,0.972237420126408,0.9352212085961477,1.3376853754164648,0.9720860502118646,0.9659415362112005,1.2959485518479015,0.9428905382208196,1.0588924720693398,1.3055467568674195,0.8665402646413378,1.0057048635905648
0.9259259259259259,1.2356702931524435,0.9408316032293286,0.9650700151890476,1.229415129308671,0.9895293449982797,0.9310952544594286,1.1529323336158972,0.9622822869360567,0.987578191139683,1.2294784750295846,0.9959696209797487,0.997084512328757
0.9309309309309309,1.2717105960614092,0.9166781175218239,0.9220268088749428,1.2801724087272925,0.9433914743844941,1.0708587119951696,1.261451911362128,0.8694124642372099,0.8995458204572704,1.380913168895964,0.9716933359437651,0.9223717733947019
0.9359359359359359,1.289481015735074,0.9710517797030002,0.9092516306945561,1.323266440762053,0.8910136475216985,0.9415289776035167,1.3443002854518278,0.9852869967457721,0.929669613021371,1.319112977596821,1.020530101621055,0.9754224747145817
0.9409409409409409,1.3081184491240203,1.02020989947398,1.0281943670466567,1.2344288395171972,0.9514678931529542,1.001614612747278,1.3091088928304169,0.9392485975586811,0.9787192487140677,1.325396784784326,0.9894166602648662,0.9813325427844706
0.9459459459459459,1.294457455998064,0.9427229850906539,0.9604006898352974,1.3540870656289126,0.9981766233400099,0.9277758865730339,1.3275888108235232,1.0362618258159078,1.0602732460524473,1.3399572579043113,1.0058671634428686,1.0597347070455119
0.950950950950951,1.362358727168221,0.9901844231510545,0.9806981386603649,1.353071431412094,0.9990410423920927,0.987150676428796,1.195969607052328,0.9284239250149462,1.0002094338276173,1.2679813644790834,1.0434065129190346,0.954106495429337
0.955955955955956,1.3383615614042081,0.9453549376103916,0.9251174927169314,1.2877913137359782,0.9970808832000159,1.0003836190299413,1.355378517317341,0.9433647007931585,1.1148641424952348,1.2948306698854883,0.911807196200709,0.919404081088157
0.960960960960961,1.2400813203251573,0.9565801241371616,1.0353766893029062,1.2854868206049983,1.0206306227841124,1.0588889873759688,1.2950418512849422,1.002617368181815,0.9172140048522317,1.2799512924897771,0.97972388283184,1.0765607448561467
0.965965965965966,1.3119363051297788,1.0469722047469268,0.9526326397466385,1.2941286344310154,0.9433469435694826,1.0327340120534352,1.3019336582739076,0.9682795051228333,1.0015042720449412,1.3733682268431133,0.9398050265381834,1.0481290258514733
0.970970970970971,1.282200286617866,0.9928262875595693,1.0504140905942112,1.2423863123094752,1.1344163531463949,1.1290153147417556,1.3093876117175574,0.9569206620270108,1.0362855262848494,1.2196396971479124,1.0041707859977307,0.9243655501206653
0.975975975975976,1.2749201379715964,0.9938468151749388,0.9934488297112648,1.3860302071661101,0.9482798133033842,1.0744405583341772,1.2556947684930813,1.0259498468145354,0.9794162725484297,1.340358426361286,1.0363577493895786,0.993668377563673
0.980980980980981,1.3456210425554658,1.1361061222988444,1.0157039845384699,1.2465339420270996,0.9536372770207004,1.0078176828927097,1.3249339176360042,1.0476565357810257,1.019069168377921,1.3166673234878286,0.95459080221285,0.9228683478721699
0.985985985985986,1.2772277756968402,0.9628872856026406,0.904885519471615,1.3058001523820033,0.9906878327363197,1.0062505253002128,1.3224019264861542,1.1183584763877317,1.0435695037649142,1.2276950295748141,0.9653106888747512,0.990611028068722
0.990990990990991,1.2433652555806496,1.012124040411079,1.007153824200387,1.3223206626022113,0.8968081698032785,0.9006624053310772,1.2124800453899867,0.9993646205372912,0.982523005133155,1.2617546722287158,1.0368684814736022,0.9520374627532413
0.995995995995996,1.3371687603348446,1.0755451670012839,0.953304876323938,1.2623061638026338,0.938380210423923,1.044342127841653,1.2045977742618244,1.0843169688132421,0.9984051063832811,1.2943085015410207,0.9554676451582763,0.9398719110823442
1.001001001001001,1.1895239086943121,0.9391470520664131,1.0120574709921601,1.2652416884352105,0.9583722271024302,0.9185654523875907,1.2031694037256777,0.9349351825219424,0.9836835723269165,1.3141688705580417,0.9574640693139067,0.9954441102056679
1.006006006006006,1.1649064532884943,0.9841866291942343,1.020474567720721,1.275611227084343,0.9261633386372484,0.879055353237073,1.2084975892620806,0.9040184602052279,0.942899289439339,1.1596113322123138,0.9242027322987421,0.9469359142870795
1.011011011011011,1.2555528872675552,0.8931934285475487,0.9240816907918439,1.2762866011926732,0.8707266457092931,0.9128864498478616,1.1441845097119754,0.9711468869986574,0.9186993605108016,1.2116720526859186,0.9902784440453941,0.930900259194133
1.016016016016016,1.2595731516897501,0.8186368724649594,0.9051346983125408,1.2012130528332288,0.9404707956148788,0.9020695455763685,1.2218125871740466,1.020534018919012,0.9146949660390415,1.2440699590438895,0.8866085730537385,0.8877067163108773
1.021021021021021,1.1372214435815162,0.9414530477509276,0.8092077895458485,1.2578106915936538,0.9507333672068106,0.9114975513566346,1.2184894880214145,0.9590005554107516,0.9096515769165119,1.2223095601504275,0.9499256726824298,0.9330074608839962
1.026026026026026,1.170656234307294,0.8233753374423067,0.7927115633534707,1.110563494362037,0.8370865859250018,0.8497816149725357,1.1123199770765624,0.8962912019332298,0.8342007665809089,1.1667768054518934,0.9057557328196003,0.8531669211376218
1.031031031031031,1.2364960144632784,0.7856958705296703,0.8290187580069677,1.0285420021791465,0.8034848535526906,0.8937517476664892,1.0870298365278155,0.8795264020627256,0.8510421322932291,1.1230046870220947,0.8428162524668786,0.901885758934272
1.0360360360360361,1.1775275977204367,0.8929120716815239,0.8068376647421036,1.1347281163045964,0.9069785923159581,0.8282233971248991,1.0885975503077534,0.7906262342137695,0.869267072180484,1.1769499156969376,0.7886025487447096,0.8585179622486641
1.0410410410410411,1.1706882345353773,0.775744106872943,0.8126705716900935,1.1435399587948565,0.8214535093674873,0.811822564959067,1.1258799472792143,0.7972711293744514,0.8014535307279146,1.0727521372044195,0.7692465476071779,0.8117668104692382
1.0460460460460461,1.0451902898309278,0.8065542716462385,0.801287716976437,1.0117243311619215,0.7862682283886884,0.7884310216818826,1.0336517501782772,0.6490905441407545,0.8322280250628576,1.1314776642062443,0.7721688394425742,0.69309565062125
1.0510510510510511,1.0287134072809538,0.7396742498384771,0.7478081581141314,1.0079015470105668,0.6956536067491587,0.7156822681057414,1.0665108826475116,0.7304043497936821,0.7073526620367581,1.0346311116623055,0.7727357396670955,0.7927699375024488
1.0560560560560561,0.8866740196227215,0.727955130347809,0.7228655491956865,1.033497910516105,0.7049493833866993,0.6791571677276195,0.9855901369405298,0.6796852692342018,0.6850396894308249,0.9964841663487485,0.7150702156244854,0.6774341420465811
1.0610610610610611,0.9698195520061265,0.6077230736422979,0.6585726473465404,0.9790797088456954,0.8695805235820204,0.7792063051690512,1.0200040339887244,0.6409795873680707,0.7606301292766718,1.0795682128404962,0.71535390869931,0.7352040453380881
1.0660660660660661,0.9017720867446427,0.6903798918327195,0.69514792044578,0.9690733979103658,0.6375008474602097,0.614360578914796,0.9151256178622691,0.7522269118062453,0.6811952192083044,0.934780967561025,0.6455281213345637,0.7203467096533989
1.0710710710710711,0.8421842856170275,0.6279684931902346,0.6566830198011403,0.9522566625943176,0.5839778621604298,0.7065234598061907,0.9196344390128478,0.6509150869275573,0.5671733984826097,0.8721571001533802,0.5783494908312931,0.5931348478305409
1.0760760760760761,0.8190774621588739,0.57909392788959,0.6121274849149876,0.940224651267872,0.6066825527220492,0.6083841161014021,0.8846209726083767,0.5961815042226829,0.6158248733147664,0.8676995393356556,0.5781183349281074,0.5430054621159326
1.0810810810810811,0.8094530443194543,0.5684385359202933,0.5734381216078833,0.8186534246402878,0.5953363533363996,0.5773513745113228,0.8259067997700924,0.581716449652374,0.5885924156100063,0.9092611636165807,0.6405627315390157,0.49326063153129707
1.0860860860860861,0.7880813686676674,0.5391714523831286,0.6274003599392628,0.8750489239074575,0.4896423346702122,0.49479846074319667,0.7733464793033473,0.5554589056928099,0.6019548050618276,0.8545912617428956,0.5008499225138124,0.5155276478510417
1.0910910910910911,0.7740487700046143,0.5617995630338009,0.4620486036774514,0.7583070777038285,0.5071801093476692,0.5766006301423408,0.7697761438727638,0.5054121456438715,0.45714214254269225,0.8146770252951214,0.43904437126847135,0.505022602018566
1.0960960960960962,0.7286104843491611,0.45404699332334003,0.4706877599447269,0.7400111058885513,0.47284308879548326,0.5227171266380384,0.6354890631593073,0.4589129962946474,0.423997275461258,0.7090359064931048,0.4449128742190337,0.3979613061560492
1.1011011011011012,0.6418329803732018,0.3950754071334489,0.360694545371896,0.7453269536876401,0.44698093076577017,0.45273807161976753,0.6830665321958133,0.4157969684918857,0.3653720080851362,0.6815353023494143,0.43506557735469537,0.35842935064583165
1.1061061061061062,0.7886244544002291,0.37510352359351595,0.36285296498911684,0.7494759632040456,0.41762957004221873,0.36703902396913984,0.7348755650621508,0.3393784416550174,0.39655367393648505,0.7293051081175235,0.37293824773614953,0.514720643926708
1.1111111111111112,0.6965880829380046,0.3572938815139709,0.3537684097892503,0.596006505813409,0.3644216099941164,0.3126381238095745,0.6457998050784656,0.33497571791971203,0.3218785266649853,0.6236136765390408,0.4761164772439209,0.246737457084081
1.1161161161161162,0.6150552644641781,0.23512421730260571,0.3747208470379393,0.6026264930811902,0.3365271656378094,0.3953070598094287,0.5690534190394446,0.3342771676766694,0.22166341882073223,0.5451527540497025,0.3361707356035477,0.30807273782506195
1.1211211211211212,0.46284825331260887,0.24672960962667212,0.22025228064322888,0.6766570549795561,0.22919738231163536,0.25664600860994674,0.581791985614296,0.21510729214318164,0.2511053687406451,0.5966662277482553,0.3274601685926486,0.3005038096861886
1.1261261261261262,0.5405910885573374,0.2572408377096991,0.12012447475317722,0.5363525000751437,0.21558614819077632,0.32273561701682485,0.5428943096073212,0.15253804079101202,0.22908230286978648,0.4346509162021782,0.16745675055315712,0.22076207291358307
1.1311311311311312,0.5235234956432642,0.12134007658463786,0.21724077525332733,0.408145136439272,0.21393695047589795,0.2515623674606656,0.48357851238559857,0.19967659194059534,0.18655547702121053,0.47309427646488295,0.07392274022561554,0.1998826584732663
1.1361361361361362,0.4976613070185589,0.14516896935492693,0.16093625880616505,0.5169474126490443,0.14338325477269115,0.23996457077047073,0.5215548670816027,0.1572565282193244,0.1612477622030036,0.4365686063898911,0.17977665800815507,0.23268028639149801
1.1411411411411412,0.35383239398664174,0.130492064907741,0.07555193942792486,0.4126010001155783,0.08883127902104075,0.08848200957083621,0.42527181246762763,0.06884327494225675,0.1471366112499592,0.4501498660021866,0.0815909846240526,0.10910052326310009
1.1461461461461462,0.413546318623758,0.06401684080006816,-0.003795295602439519,0.2914292814018721,-0.06916102342259417,0.062433091620786696,0.4382592882222065,0.1666306827069235,0.11108201315545993,0.3660678383221666,0.06562323623373725,0.014533899251748805
1.1511511511511512,0.30966089277847536,-0.09043551871484001,0.05526261051561336,0.33250214781280457,0.026382904483299757,0.03277981319842217,0.29951605377576795,-0.03459704897704631,-0.022920843750229253,0.312673080852399,0.1072037765016608,0.015128153700920445
1.1561561561561562,0.24347533516943481,-0.02330209342289637,0.07682129473504201,0.30862202087352403,-0.021957086152932792,0.0012441465964933389,0.16314954449913444,-0.10033125785669926,-0.04830966498534628,0.24882735731359407,0.007898323937297301,0.016900493359429676
1.1611611611611612,0.17009128009024072,-0.010669618252696099,-0.07604119337887405,0.21762838844100058,-0.014772701741280751,-0.06529407737468179,0.2849733874205871,-0.06238835335147601,-0.04843109013591115,0.277585694234748,-0.03107255314157307,-0.05487972826638197
1.1661661661661662,0.32707900861200667,-0.09373739276861302,-0.07202369353562826,0.18344095211030237,-0.04941857610778862,-0.15325489304718037,0.13576616558138305,-0.05847685925126794,-0.11898848892434476,0.19891987438508726,-0.11094575889411816,-0.10639595986444192
1.1711711711711712,0.18672135402664677,-0.1650223983173093,-0.0924499935718765,0.12391837060315647,-0.17322053736247886,-0.09374893248525092,0.06096594657859279,-0.13134911424112763,-0.1558989537510564,0.1552317904709384,-0.2175872440119621,-0.14419856320722832
1.1761761761761762,0.06490952306290548,-0.08977926841061003,-0.15392620568366852,0.1694181773975439,-0.14815273684626307,-0.2299375551861372,0.059352610145942765,-0.17704542173537963,-0.19977855185744658,0.04593486892114261,-0.18661153223270824,-0.2079450039785263
1.1811811811811812,0.09623340738803395,-0.2074001559072106,-0.32051202585486843,0.02226102342544895,-0.18799287633454384,-0.18011187167052226,0.16827748956422584,-0.1534868311934992,-0.264411179859765,0.13429197243623325,-0.24008733742441954,-0.226983068864295
1.1861861861861862,0.04032526822011371,-0.2868426513958127,-0.18043324134250285,0.09981887910193193,-0.20292911064397628,-0.23797707969165013,-0.007383174384469678,-0.3280614499328496,-0.22360977276325805,0.018428469234112985,-0.3296580428804438,-0.2859255111306815
1.1911911911911912,0.02628649537300083,-0.23212743298014082,-0.2932009024968202,0.04557367764405242,-0.28426365464005543,-0.23226037784554188,0.006441133076762121,-0.35175976883749294,-0.3925854275689296,0.034340256667290806,-0.22994140566142518,-0.35256701573592053
1.1961961961961962,-0.09212204142986669,-0.3106682904867756,-0.29512948612297946,0.013609130759858902,-0.34048758115922895,-0.4070793327621657,0.048826233456893436,-0.4292513858636551,-0.30570412465998376,0.007900997335588092,-0.3003799567777337,-0.23133102093668478
1.2012012012012012,-0.15111825398736606,-0.41409278894833623,-0.42186324441846457,-0.07312533820995755,-0.37390144113335627,-0.3630873838466729,-0.17366216159094205,-0.34916802348714937,-0.3252214133913028,-0.10770666332995887,-0.33694599644497986,-0.3580536066517702
1.2062062062062062,-0.16313901149167812,-0.3764271767988107,-0.41181042221996444,-0.1223972302624754,-0.39064268713555567,-0.4534946943677423,-0.13654107360975623,-0.3905664760043673,-0.45440207538814886,-0.07237780250465728,-0.40168983574768885,-0.4569429984359329
1.2112112112112112,-0.23756276066992346,-0.4827075343459054,-0.3850723041603227,-0.13256221852066266,-0.5410299214214519,-0.3845145847982344,-0.18875108970554916,-0.4528705315626205,-0.4863059352293805,-0.19687667696798572,-0.42251535660280654,-0.48523163242780465
1.2162162162162162,-0.19722628892826718,-0.5118933587731705,-0.44955305527435757,-0.2254193968158568,-0.5619294977524224,-0.5776503230047594,-0.15250474860640395,-0.5883826058481945,-0.46764343182033424,-0.23152047122944383,-0.437443138958842,-0.5467531165203772
1.2212212212212212,-0.1660418977117632,-0.4517168698602263,-0.5043076604060047,-0.2093541814187012,-0.48469686812426754,-0.6589890543779988,-0.11869552487642683,-0.5605036959836659,-0.5457112631648104,-0.13376313798955958,-0.42265206283298346,-0.4955248802844232
1.2262262262262262,-0.24146868352404127,-0.4994857865343395,-0.5363666333313328,-0.26664408511095805,-0.5530219939956877,-0.5307003176589651,-0.26837684116886057,-0.4988686264576157,-0.5267706909425788,-0.1756214204902345,-0.4771819643029189,-0.584188151557367
1.2312312312312312,-0.3778929919713333,-0.5381104172694898,-0.5834257324849526,-0.27291654267906706,-0.699430987467332,-0.5780040402534207,-0.19715030960563082,-0.6640449080300302,-0.5389283606550473,-0.30840470843810297,-0.6073031862656909,-0.5603718185910521
1.2362362362362362,-0.3054791441563878,-0.6244643180767981,-0.6498795579470927,-0.37270386000026867,-0.582255385373602,-0.518810004983121,-0.30645846436364854,-0.5812209348998006,-0.653373349971941,-0.26576150259876985,-0.5471038466844521,-0.5706273655298681
1.2412412412412412,-0.30565780343933535,-0.5743218001518822,-0.7152039679908957,-0.44568056098971987,-0.6908906310972793,-0.7225738411837864,-0.36973780528900796,-0.6860672808091871,-0.6541319238484548,-0.35761806789218065,-0.6407622575530835,-0.576469883944129
1.2462462462462462,-0.40649049833756534,-0.6315139120820958,-0.7151524452042066,-0.33326975236116585,-0.7195175581699106,-0.7316933946545783,-0.3159998168407342,-0.6795288931883474,-0.7266736468645697,-0.4299624040052917,-0.6892923839450289,-0.683469972357433
1.2512512512512513,-0.46107507281708027,-0.745722000171132,-0.7344773077128153,-0.3971908212704275,-0.723665952420143,-0.7688918033318328,-0.46498459411111037,-0.7143136169220898,-0.6442931978655518,-0.46984209594763654,-0.6714521016254954,-0.78382083389509
1.2562562562562563,-0.3971395980774794,-0.7305658182132143,-0.7495446381715093,-0.3795631554773573,-0.7131218756869955,-0.785394358980911,-0.5057955009029839,-0.749212382560389,-0.7506015687913226,-0.45024065036859406,-0.6973223803459973,-0.7466142929523764
1.2612612612612613,-0.5285019469355642,-0.7224580633205936,-0.7699633414021098,-0.3978852669861174,-0.7445834760398786,-0.7553046755031917,-0.4201902692079081,-0.807633750353546,-0.7261180698473145,-0.47365929909075577,-0.7245698023590245,-0.7447539180896382
1.2662662662662663,-0.5227273397581579,-0.7935438919956865,-0.8208996450169909,-0.5866572518952426,-0.7213204155861065,-0.7944315385873761,-0.4748686350729054,-0.83217886812897,-0.8590105655238056,-0.5506842195718551,-0.7966545292984512,-0.776166148793223
1.2712712712712713,-0.6253808595596714,-0.9153470518755932,-0.8387931976387493,-0.5062588430002404,-0.8090655638646284,-0.7726225943052293,-0.5445816224331252,-0.7767721187500507,-0.8612557891984918,-0.5346354705965533,-0.8354561672752283,-0.8506215557672089
1.2762762762762763,-0.5513269156175498,-0.7963681237606856,-0.8338638368843024,-0.5634060712044224,-0.8713953060869192,-0.8787642451241022,-0.495214601071879,-0.9511218193731062,-0.8035979474333599,-0.6786375515673965,-0.7757220971303418,-0.8943263388100349
1.2812812812812813,-0.5131769739219074,-0.8165155800380622,-0.8780561170463748,-0.47635391626015483,-0.903916671219979,-0.9079383072491224,-0.5442781041114737,-0.9219079767437424,-0.9102812169692241,-0.519329908044344,-0.8490768278933462,-0.8146048501284269
1.2862862862862863,-0.637752866096292,-0.899994309720293,-0.9184985357763328,-0.6074329455110905,-0.8362948057539801,-0.7966395835775867,-0.5771040090986815,-0.9448588255442795,-0.8432710138471601,-0.6520534647877385,-0.8718429641558152,-0.8358062029730107
1.2912912912912913,-0.6806200095921267,-0.9406343622418567,-0.924131589164584,-0.6221771568698964,-0.8796527818035929,-0.9286970376498989,-0.6243944761316409,-0.9688811595876887,-0.9729919712819404,-0.6779274389398979,-0.9560280105623652,-0.8471880572136073
1.2962962962962963,-0.6953234711015531,-0.9547956479059287,-0.9769089344817754,-0.6844237108853573,-0.9495623153793573,-0.8845077468477975,-0.6375392333641753,-0.8878976743936018,-0.9818497627539896,-0.6669513424741076,-0.9241232209021951,-0.9167058926333342
1.3013013013013013,-0.6387825691809025,-0.9860968570297985,-0.9674905448757977,-0.5663170725728982,-0.927494054734298,-0.8451565249941466,-0.6804160456481192,-0.9950666054957322,-0.9769530033500596,-0.5765500048842644,-0.8874383837645735,-0.9434515012472555
1.3063063063063063,-0.6828270815702011,-1.01457092628425,-0.9387743186803449,-0.6292639772414043,-0.9584657964302465,-1.038951555458882,-0.6083912253374554,-0.8983947073866028,-0.9816405244436402,-0.6727548001248344,-0.9991728141868585,-0.955774745622507
1.3113113113113113,-0.7020474472130983,-0.9841055686003282,-0.9737336871205978,-0.7011063397841361,-0.911631126376526,-1.0064753825952608,-0.6642327923067574,-0.9712861636419061,-0.8976887633266506,-0.7520478875345832,-0.9696668079305188,-0.9574422029528123
1.3163163163163163,-0.6752705937000524,-1.0456560366422973,-0.9352459498044067,-0.6801465644063603,-0.9047789138034754,-1.0471958381514985,-0.7004259634281246,-0.9509823158716773,-0.9627370750388388,-0.6397348535280979,-0.9135170436852205,-1.0338024187903911
1.3213213213213213,-0.636202809542189,-0.9691280442431212,-1.1040970155777725,-0.6403093020981765,-0.954420902003844,-0.9727191942157241,-0.7254023540794203,-1.0182334307953016,-0.9638077067569648,-0.6673303681190305,-0.9480445013402229,-0.984736153716217
1.3263263263263263,-0.7490314825419194,-1.042533363100498,-0.9532946063996057,-0.6645863247305982,-1.0116549888638748,-0.9396186818736754,-0.5849635336247391,-1.0183280611268888,-1.0322942531590695,-0.6971306123176427,-0.9848206808778022,-0.9508019524577638
1.3313313313313313,-0.6510592574122034,-0.9482157984715128,-0.9542609993547375,-0.753879765894602,-0.8997599516788934,-0.9490483532010616,-0.6591046036584652,-0.9877214803972981,-0.991227395072756,-0.6966321709225762,-0.9185053865516078,-0.8596393454149861
1.3363363363363363,-0.7054205359177351,-1.0136243391779354,-0.9508176547541946,-0.6512805926455543,-1.0701375615006368,-0.9385982539315767,-0.7320708827080449,-1.0133430391963318,-0.9319243969731119,-0.6500491832896306,-0.9947813626630102,-0.9760324106163965
1.3413413413413413,-0.7067057616055514,-1.0396701863307345,-0.9830397258439575,-0.6347704231582002,-0.9837970118666652,-1.013043982702677,-0.7239095408515983,-0.9680108011712136,-1.0241087293160875,-0.5936114963436716,-1.0449329185692422,-1.0386705122215731
1.3463463463463463,-0.7035907005580437,-0.8933278430283512,-1.0312705376731075,-0.7407757067097017,-1.08512110008842,-0.9965189330499199,-0.6819610258274261,-0.9575401115230578,-1.0932078936835263,-0.6947605638537497,-0.9433902922428411,-1.0498747685195007
1.3513513513513513,-0.6348795538528275,-0.9514695483729306,-1.05018428662219,-0.6431834306321486,-1.068147345898721,-1.0451128321540093,-0.5608345300334787,-0.8913749263463944,-1.0352392016241108,-0.7295677436508599,-1.020670075519822,-0.9514607840372117
1.3563563563563563,-0.7523823175862212,-0.9764542249310934,-1.032594081981121,-0.6532878397670746,-1.0425105199598654,-1.0095902209196217,-0.6608506115473008,-1.0084705640264655,-0.9396164159510344,-0.6735714821222709,-0.9768301427128894,-1.0697513620072134
1.3613613613613613,-0.7343776212244646,-1.0507798732775926,-1.0095032037026526,-0.6611489027419727,-0.9664200868102177,-1.0268829946756777,-0.7075959459518604,-0.9844948611088088,-1.0719321312984278,-0.6792093050603001,-0.964592324820381,-1.0355075845368291
1.3663663663663663,-0.6637758262489338,-1.0298211125113317,-0.9971629607862784,-0.6355907688904116,-1.0212108867680298,-1.0406608851722068,-0.763217925268185,-1.0378151639002973,-0.97210878408318,-0.7107927621110808,-1.0264707046022474,-0.988161079867527
1.3713713713713713,-0.684441969231372,-0.9383541104998588,-1.0048816089875061,-0.6302028442302051,-1.0724382195441102,-0.9482005232005752,-0.661599815129257,-0.9843354438742162,-0.958128746868172,-0.6735878179728456,-1.0785475260792936,-0.9780197220909246
1.3763763763763763,-0.6439858565830364,-0.9931794138434265,-0.9815321458788597,-0.6185357244170979,-0.9527602559483754,-0.9738522850446717,-0.731262105221584,-0.9919765496435651,-0.9437615545846492,-0.6715294922316795,-0.9106826340438966,-0.9980308511945977
1.3813813813813813,-0.639440700043734,-0.9847459815895034,-0.8628628152721065,-0.5787813339864388,-1.0163407849500687,-0.8919279266148225,-0.6391112091131272,-0.9550129154028107,-0.9454400199026973,-0.6112871172648426,-0.9845316677617287,-0.826767375465852
1.3863863863863863,-0.6906540420789807,-0.947054184721634,-1.0174266907335199,-0.628652887108795,-1.0334178067852962,-0.991527945431124,-0.5801498512690755,-0.9159877517528818,-1.0914443681778596,-0.6477476486478919,-0.8973877579226337,-0.901720649947331
1.3913913913913913,-0.5817976523912456,-0.9689800721203371,-0.8865407488251653,-0.6595220394898254,-0.9594324137843465,-0.9066749977757881,-0.6496164815764003,-0.9633762171817084,-0.8812507295013239,-0.6699333616598498,-0.8755992323102662,-0.927964025028339
1.3963963963963963,-0.6032325363273664,-0.9686541179515535,-0.9441169045277116,-0.667669786051966,-0.8933817270741571,-0.8424600793787488,-0.6936598121188357,-0.9067714956221881,-0.9318756922314283,-0.6069767645233013,-0.9601125297157237,-0.9065126355863812
1.4014014014014013,-0.5781866677210084,-0.8217714274154315,-0.8459753256199994,-0.6343113503350806,-1.0372831494397035,-0.8778904825408986,-0.6573986668588953,-0.8935017585592362,-0.9125043201132311,-0.64548267758726,-0.9981339907000457,-0.9218740779593403
1.4064064064064064,-0.5398579040786271,-0.8455704845944683,-0.787332931961446,-0.5855384169249463,-0.8676229025331313,-0.7978726900156616,-0.5985757000062754,-0.9334124247976282,-0.9325689517552098,-0.6310950828303046,-0.8847304460337357,-0.8689315413102344
1.4114114114114114,-0.5144204283316773,-0.8904609805087685,-0.8806284158020994,-0.6297393430493865,-0.8742120736389258,-0.8620744436324741,-0.5387103351087953,-0.8954321066282531,-0.9021416047979312,-0.5391357564303549,-0.9047260251423748,-0.8896268492000192
1.4164164164164164,-0.5794632671610326,-0.7908006593479706,-0.931160848553607,-0.5679241754922272,-0.8459691622242678,-0.8851420535462309,-0.5543754188518842,-0.8468175830625682,-0.9271046712772262,-0.4966703160864231,-0.8379487992830547,-0.8165249824010432
1.4214214214214214,-0.5762383919743692,-0.8345916333976278,-0.7935572414632417,-0.5847237360198958,-0.8199532631475749,-0.7020975509941488,-0.5160367370153438,-0.8034758215165417,-0.9166625203009428,-0.6001361146250481,-0.7389602736971385,-0.7595331362931842
1.4264264264264264,-0.5011732263152321,-0.7909514681855417,-0.8061895908687337,-0.445639820104606,-0.8137577330760906,-0.7861364436224212,-0.4812493360572797,-0.7479034494886161,-0.7680135902793279,-0.5368408953945301,-0.7494511647375897,-0.7549470940304874
1.4314314314314314,-0.4767563066184169,-0.7798118044835933,-0.7898665502430557,-0.44339785896347544,-0.7978999284948716,-0.7933441162036461,-0.4457736463282259,-0.8218946140349123,-0.859900389208095,-0.33693049311186296,-0.7736036638812368,-0.73834417608204
1.4364364364364364,-0.48290860588006423,-0.7070424414532288,-0.7142722508722169,-0.4274389074121936,-0.7629716014700939,-0.7650305747146215,-0.5313321844183099,-0.6909931110501558,-0.7583526615520859,-0.4333219193707886,-0.7018650309232823,-0.7420463581365905
1.4414414414414414,-0.42574553143239446,-0.7446833532472171,-0.6989534971477376,-0.40742735160696114,-0.7049243706388789,-0.7617665444860049,-0.44652671403035116,-0.7061896573681976,-0.6850186866185963,-0.4154642211156171,-0.6962343033620255,-0.7784780380470852
1.4464464464464464,-0.41848994129983363,-0.6583076597015308,-0.6437209614800057,-0.3949336399587838,-0.6629093394871093,-0.6534104678387472,-0.29185098842342916,-0.6599761434269823,-0.7827164106721695,-0.3012144027766148,-0.7077753971697845,-0.7298545235330555
1.4514514514514514,-0.28771453558506466,-0.6158062691069031,-0.7193326682759982,-0.29192812564372006,-0.6117179409434925,-0.6787984396114339,-0.3608599052712927,-0.6546460151094936,-0.6809672953183319,-0.3733986194686918,-0.6048532883468699,-0.6894876005326812
1.4564564564564564,-0.40268018682139506,-0.5251763372733361,-0.5263460286292736,-0.33135285450152896,-0.6966051178695045,-0.6223369628605095,-0.2597747341176401,-0.6424660279784757,-0.6528333148683839,-0.3210289254504945,-0.5805216178659368,-0.5839673594908454
1.4614614614614614,-0.31487484117141523,-0.5732432831165094,-0.5067332784869589,-0.33561553505619024,-0.6350915008610907,-0.6064724104979958,-0.31032644285805483,-0.6155858350505492,-0.5822484558253435,-0.2687022844784009,-0.5114334286392805,-0.5910796314748696
1.4664664664664664,-0.27531621589393107,-0.5139135238774513,-0.5070291283514221,-0.23119965579211893,-0.46189669280288426,-0.5446146633244576,-0.20887269878277304,-0.5703505541395615,-0.5631829281118508,-0.22804904268663206,-0.530102032167857,-0.5689505859116228
1.4714714714714714,-0.10319411520647384,-0.5189183531558247,-0.5584338273561251,-0.1908674950184514,-0.4799195816596164,-0.49287536622175165,-0.15445246317353675,-0.5609149637017801,-0.537507743172404,-0.2936940785789948,-0.5157366159747002,-0.5509337718383722
1.4764764764764764,-0.12771662804002756,-0.40649406375908104,-0.535425999647245,-0.2224872053168468,-0.48155850094253855,-0.4467828004116044,-0.18525856612853692,-0.42236589530515595,-0.5448435285198496,-0.19863096583097314,-0.5271178964149913,-0.4405556093952295
1.4814814814814814,-0.18524242537606608,-0.5334297824332304,-0.3466882575983568,-0.25199759993377735,-0.49339546861757166,-0.3894670465599757,-0.21694113366783746,-0.4378217891807201,-0.43525807192557486,-0.09666936457836432,-0.3046093482686718,-0.41800440315340104
1.4864864864864864,-0.11671813645629714,-0.3883291356361157,-0.36225326594024654,-0.16089808862874347,-0.4424001606166856,-0.32211112504751177,-0.11019722060496782,-0.457665198858044,-0.4566426468681307,-0.10855234305564714,-0.4038665828746734,-0.45380094147479527
1.4914914914914914,-0.07882983715336199,-0.41591499592649217,-0.318531340778662,-0.12184048925139296,-0.32730662934679916,-0.44701801097856186,-0.011602314689032306,-0.35440563704087324,-0.31742545297015723,-0.17359284334817765,-0.35745561090625927,-0.39508542019086956
1.4964964964964964,-0.028459577845115783,-0.3721619095076909,-0.28593839511126207,-0.03957056400558458,-0.38908122950976987,-0.34309320829271645,-0.04237344547967,-0.2552672120633888,-0.30860128956725624,0.03785145664587462,-0.27852045451319596,-0.32510833981354814
1.5015015015015014,0.011236218944376921,-0.272431672617093,-0.38614352948872077,-0.08654514320704643,-0.3141816359416034,-0.20848977285436937,8.198059017062e-05,-0.3332951006688571,-0.33556634579634337,0.041010349597656676,-0.4168052432670808,-0.25369390338984044
1.5065065065065064,0.008018882796546951,-0.2657724884835046,-0.25773096321463157,0.0011384484988992694,-0.24426319168695904,-0.13704810551068547,0.12023766397871875,-0.18275233277336106,-0.297597343638462,-0.037332025537534785,-0.29118959435621594,-0.280540967084176
1.5115115115115114,0.06655067869255801,-0.10132418288852393,-0.2478492398335477,0.058825246646639726,-0.28501927926714715,-0.29243572186061767,0.15471471080655783,-0.10933404938316355,-0.17109381849488223,-0.006282650282538757,-0.2793155581168502,-0.17594766690979852
1.5165165165165164,0.12217955606738032,-0.1503525488473071,-0.222891570069234,0.1530725000936247,-0.20537606366141442,-0.1131134347071594,0.12986036317495658,-0.2647348124329653,-0.20773154577677744,0.06236746794908112,-0.1901860321331896,-0.16556357283322695
1.5215215215215214,0.11454871553552196,-0.19109592055766855,-0.15767746840073685,0.1739756589361594,-0.07778244391763778,-0.16056506870711745,0.05730249857207213,-0.13844366951584278,-0.13378059482064647,0.2292840496200945,-0.15785037078556519,-0.21147473824508928
1.5265265265265264,0.19088471770071913,-0.12183129380335515,-0.12663254501603233,0.22867416616187225,-0.18740154800955275,-0.11786251896085385,0.24674888290545122,-0.1539437981009261,-0.07435277692004846,0.2257901131481481,-0.08594317172186877,-0.030732638302932366
1.5315315315315314,0.19636625650399298,-0.09710343682430897,-0.08356682053430353,0.2143578374124043,-0.04225599454507832,-0.07863756775631435,0.24202291510416632,-0.0874363657857293,-0.05695639421357597,0.1541089914270209,-0.059952620414119376,-0.008258348410325557
1.5365365365365364,0.23757168300273188,-0.10187213006298815,-0.03540567770354434,0.26570303239296705,-0.027978808701163368,-0.03143942744149418,0.2570738466512548,-0.03044178744784946,0.03393967216180558,0.31454777109492005,-0.035154504596926456,-0.03859598043864627
1.5415415415415414,0.259232633565277,0.014204187132297163,-0.014697612760137035,0.39924911155563886,0.05728380724987816,0.034340777768810116,0.32717552996832755,-0.10405489140324778,0.010965505709311995,0.26109655298968765,0.008991557918336508,-0.013776155477064012
1.5465465465465464,0.32410481881698766,0.05817433819313047,0.0779383761228188,0.2580323972847552,0.1081637737398114,0.06333662399367143,0.37425518784750705,0.04538091965465775,-0.0028058283978035226,0.34877712527785765,0.09446892962410504,0.15078492349255967
1.5515515515515514,0.3602308002424389,0.05767678181276686,0.034286429082464,0.3374450537680277,0.15129394382108163,0.12822595190921712,0.41764680461821957,0.1743869991963849,0.1698845143898874,0.43474074242738847,0.13352693306594113,0.12210276181560772
1.5565565565565564,0.44798343354136105,0.05353285951183506,0.16500099380013428,0.46500792956945886,0.14020778534321976,0.17519735642575043,0.478757773558782,0.21514968608028012,0.13078793286390888,0.39500383107686443,0.18676209348821543,0.15173266549454084
1.5615615615615615,0.4951249988201982,0.19912450620290464,0.09532739172040214,0.44500287540298683,0.16948964929136004,0.22679072556720453,0.4749527968196896,0.25094157717672283,0.1762704313389927,0.536770411637098,0.1387857536900783,0.12996461817584573
1.5665665665665665,0.462811073018195,0.1197516874440131,0.2220344374651116,0.45399065659638094,0.18777409780406423,0.23015373616103887,0.5238243853750112,0.2498919726655658,0.278505472416279,0.46032448584419566,0.15949294904743133,0.21564174985475082
1.5715715715715715,0.4787081539267748,0.2651363255795006,0.2757779571381726,0.5827264084234528,0.2609530457465729,0.29385098065869536,0.6022587919934332,0.34361508151257497,0.2752189954072176,0.569006911018323,0.19998028943397073,0.3241523718589411
1.5765765765765765,0.6723391482869251,0.41079147858420095,0.34788444179515216,0.6413404772108114,0.2165263688767794,0.3070435433011059,0.6655983477855097,0.3569103617850201,0.38879622873582537,0.5350581096064388,0.2970569731958224,0.3585775344319094
1.5815815815815815,0.7311268045194882,0.3687040301894071,0.3218123821050668,0.5941412991798743,0.2840725675104536,0.3251912978947144,0.6359985924690597,0.37360485032672874,0.39741337357208195,0.7062604641626099,0.2550157922315422,0.3204742730776927
1.5865865865865865,0.6676436275731814,0.28893336435155736,0.3665286202039161,0.7347269382334125,0.36082464837794404,0.4347162046747583,0.6800382944558966,0.46455567573107914,0.4582180018301926,0.6473741282698027,0.3569403077522092,0.38675634220471605
1.5915915915915915,0.7630889185125157,0.41574800350525154,0.3821565968386243,0.7664344462390504,0.43562088663685616,0.31854253011793243,0.7311559050343003,0.3967099499764098,0.3866635456168912,0.8071075623071847,0.4124787349759889,0.42647078111047837
1.5965965965965965,0.7293613208180282,0.4868773655941087,0.42501963959834493,0.8100055511274327,0.5543015243901233,0.46828332771018244,0.7741334228600414,0.40654781970133413,0.46009541734695375,0.7665271647559151,0.4442694288320215,0.46901174499220544
1.6016016016016015,0.8082988395114149,0.5510098037015209,0.5225974474639887,0.7823353672607686,0.48781675906459576,0.48922793121403546,0.7942733565151762,0.48881094815811543,0.5023241975613785,0.8280924004413017,0.510789986135247,0.5224386511616108
1.6066066066066067,0.802498770121106,0.4794397234422902,0.6376418126795226,0.836939937352768,0.5321999039759271,0.5086967805128212,0.7505070288599582,0.5601325122421493,0.5567039244584088,0.818461606285307,0.6009964150992209,0.4894911550189305
1.6116116116116117,0.7893668804144306,0.515905404706905,0.5904909557511541,0.8634472464070413,0.529062168503462,0.5539839640436605,0.9117931815011848,0.5207572776092391,0.515071377280994,0.8159134243275243,0.5208218639322791,0.5773382896064999
1.6166166166166167,0.8561282851812446,0.6756945510931726,0.5164399494835434,0.8857209820510321,0.6117839231064355,0.5599426592140092,0.9267944963436686,0.5669670335630606,0.6700743528963142,0.9047502589713156,0.5925115140309254,0.6279051784550268
1.6216216216216217,0.8485866304668834,0.6001385908179914,0.5960736513630218,1.0226334510836204,0.5793584147849732,0.6380757533131931,0.9209699596868156,0.6455172343087215,0.6894693120301714,0.9498863867013021,0.5602553850025451,0.6286904853880037
1.6266266266266267,0.9973363235491662,0.6655153735121744,0.6046761487943129,1.005475059714861,0.6248432699730148,0.625418976582185,0.9590664568467175,0.712470794373511,0.6224430780510983,0.8908718680604744,0.7199283221321295,0.6694550292489682
1.6316316316316317,1.0524170787754221,0.7210823166359079,0.7303781500820754,1.0791395781089312,0.6782796934262483,0.8044687489690163,1.0585742481991112,0.6777146100423206,0.6200659834346496,0.9933744536737782,0.7013499345824046,0.6724400848651485
1.6366366366366367,0.9795818180439736,0.7056314157764093,0.7090865763107419,0.9784191463034257,0.7541364458518006,0.6955146349075507,1.0551994191958693,0.7929051187936108,0.7675843325372163,1.0029207527747288,0.6753766654900982,0.7062959461128803
1.6416416416416417,1.0582323643031455,0.7393735530343362,0.7900560568202775,1.1238544413144207,0.7282828382182581,0.730919355022631,1.153638888399096,0.6355945501079511,0.790069570745439,1.092396896917935,0.7888517529072905,0.8295956794430315
1.6466466466466467,1.114372200725305,0.7572624558492271,0.7597392316477816,1.101976544886423,0.8080266891066646,0.8064112610388466,1.0599895302160247,0.7954265012057856,0.8111387758437922,1.038941172964215,0.7761084611777296,0.7965626828332985
1.6516516516516517,1.0562278977167632,0.879035663137198,0.8460570804084171,1.0544246500933638,0.8300894355593593,0.8485607667163454,1.111141271790227,0.8455600585795392,0.766440912342464,1.0659166889666976,0.7893046532720208,0.7508703964956905
1.6566566566566567,1.2013018185337956,0.8368900287963502,0.9339436188366028,1.1132751401420005,0.8752529747419819,0.8677557793452545,1.059430769487199,0.876634756877303,0.9092607035811066,1.1221895425363895,0.827310138001985,0.8031762042638847
1.6616616616616617,1.1577938860548371,0.8537401192495949,0.7968108937202122,1.1940643342065782,0.8233999249666322,0.8676060874573581,1.2120587786083332,0.894584585731701,0.7843775893279433,1.1244395619820238,0.8402491414387797,0.7834570760347976
1.6666666666666667,1.2263145895205432,0.7822980956467179,0.8692267850183347,1.1692858511028799,0.8449741863137035,0.8850509039635165,1.1730666968269257,0.8068714639694335,0.8036639318092297,1.175170987369359,0.7702861023181788,0.8540142732798145
1.6716716716716717,1.198335833242663,0.9905608163817373,0.8670825971979857,1.156063774642594,0.8938937056895355,0.8520162425220698,1.265955437256461,0.8815228122828219,0.9046035174265536,1.199230359212283,0.9469824853409515,0.8976762515679008
1.6766766766766767,1.1652325112733832,0.896592533489472,0.8825299628011575,1.134143922513374,0.9567768656598634,0.9083817539458584,1.1763358561833666,0.9276270335216185,0.8406124778614688,1.120970642061974,0.9849696406978578,0.9504017685572309
1.6816816816816818,1.363865034311667,0.8677422065778527,0.9297454114465469,1.2312346180931761,0.8971458507760477,0.86402049545874,1.2768835903485842,0.9398347867191034,0.8896209218115316,1.2320735833120624,0.8124178939208438,0.8735466603255769
1.6866866866866868,1.275629632288655,0.9146670839540451,0.9504502980220183,1.2647164675974254,0.8939235927714108,0.9152662658091923,1.2557688116432197,0.951220942971639,0.9773138135869549,1.2570981501791396,0.9346493851618999,0.8992994067598454
1.6916916916916918,1.1717403921424479,0.9083658921804667,0.9094633539637844,1.2541215766954275,0.9289763709145179,0.9468431822313174,1.302400797733307,0.9765682780065268,0.9511824515665867,1.2003059031511154,0.9135427346092586,0.9504386975872389
1.6966966966966968,1.236108081520533,0.9545134537651245,0.9264236975901557,1.2775941971855345,0.9374054396820813,1.0009194328632312,1.2306593330636435,0.8875843876742316,0.9739674869336079,1.1919340412623813,1.0216494554519329,0.960924229138268
1.7017017017017018,1.1889550207735933,0.9638572082015915,0.949756413432029,1.2562647243834537,0.9890486277552447,1.0655792243740916,1.2678771993445408,0.9426356932476977,0.9689768948143672,1.3197539801297673,1.0193075214705356,1.0172092702395266
1.7067067067067068,1.3090719009469987,0.9851808279914093,0.9320828614342628,1.4076190934002322,0.9180657563785264,0.8457838075956368,1.32587655279002,0.9672151530176398,0.9651707592775559,1.3405257579288181,1.0087088440860268,1.0395322335007409
1.7117117117117118,1.2662871378059652,0.9985371696303015,0.8605788459340245,1.23118423840867,0.9693907148420399,0.8933479599820866,1.2868569683215563,0.9622673648963969,0.9779707860879163,1.3027793149319828,0.9447447266358598,1.0989745797276846
1.7167167167167168,1.3050476836299703,1.0004266839771594,1.1101368649628363,1.3399638099432085,1.050692309065745,0.9730126884153476,1.3422859771726188,1.0232935321983596,0.9068101033520164,1.3043847058362776,0.990898253341145,0.9519774664774163
1.7217217217217218,1.2156751674086332,0.9824967297738805,1.0728687302337316,1.2383631270945217,0.8745649165538825,1.0662302860790775,1.341139326534251,1.055877853707555,1.0328520791856775,1.2864958722174178,0.9789127005897726,1.0578024750040889
1.7267267267267268,1.272857583029758,1.0387847477868932,1.0032638342216118,1.3122806927960267,0.9737539464560552,1.0027424989863845,1.2904393161836498,1.0223131751702332,0.9785924239011756,1.2572455281848958,0.9580400724652931,1.0548850208035325
1.7317317317317318,1.3047337376572745,0.9801554200056382,0.9856043626996257,1.308535183201399,0.9760129908764483,0.9504810446754021,1.3658278678099596,0.8557234383291119,1.042732739720538,1.2516350163629957,1.0170556119654777,0.9557113413442894
1.7367367367367368,1.2461330868209306,0.9539887399631389,1.0610696754903248,1.3313532835246944,0.9493174179425029,1.014578022495688,1.3350826258590534,1.0502429387245027,1.0184003670219077,1.2311448081884384,0.9755596784133777,0.9953718872943907
1.7417417417417418,1.209812331470834,1.0087229888069287,0.9532603099561638,1.3349454913170642,0.9935156495505324,0.9439069548178662,1.2921755724259398,1.0391580439312182,0.9778288449582173,1.2425726857234105,1.0160855819908179,0.9411367518345772
1.7467467467467468,1.3333637302258232,1.0057748069537316,0.9348080889740448,1.315124823092791,1.0095589846655024,0.9812073761155033,1.284172527223736,1.0132280892455703,0.9936359025449066,1.2624516754827957,1.0319664040391168,0.9686022618767319
1.7517517517517518,1.291071133281233,0.9585789065002684,0.980052424938023,1.2684612577108898,0.968194619840016,1.0187600167346056,1.3002938482952549,1.1210805094099432,0.9652319237795217,1.3215111685177756,1.0101006988956978,1.058574780679816
1.7567567567567568,1.238464208457999,0.9489400723402572,0.9777516768523612,1.3198054561494756,1.023381504333259,0.9156237092754451,1.2672025465888197,0.9973147769716489,0.9788797575960018,1.2891472882794477,1.0059101784895312,1.0282855087804417
1.7617617617617618,1.1969503376585373,0.9556364598261128,0.9916747423241911,1.2126975743151074,0.9186327320539692,0.9046661380632718,1.3115641104039137,0.9807934221312132,1.0198117305898011,1.2831599332176198,0.8825277152350895,0.9530778664777125
1.7667667667667668,1.3161994973824935,0.8989886370485501,0.8470501420826747,1.2407504284312103,0.9633815188368349,0.9986008811670894,1.2411254196296282,0.9977854477834324,0.8788035094433071,1.2125097383759336,0.9511432637323705,0.8955836513314778
1.7717717717717718,1.2345347692807018,0.9222789465347192,0.9400679320275143,1.2638493212429578,0.9375068972754829,0.9679834990115245,1.3135638737555853,0.9158336290584077,0.859440904591492,1.327996697649098,0.9583149576512163,0.9000191572625524
1.7767767767767768,1.1803719765723049,0.8802740088098359,0.8896398516864713,1.3570385063542187,0.8495408181303653,0.9315311766635836,1.1839370390383954,0.9127054515570984,0.9312855296346549,1.2065155072748157,0.9676271929192028,0.8348989799159547
1.7817817817817818,1.2035942578390506,0.9436521346145066,0.8227755016229024,1.2047771397719809,0.8247940191410589,0.8470786572357394,1.2179599730978103,0.9635540207204754,0.9008073225196028,1.1689134157610654,0.9548024645214028,0.9777348593057816
1.7867867867867868,1.2570663437345806,0.8750292020243646,0.8706029616894598,1.1833738910876317,0.8874174089155378,0.9202539408849795,1.2718059272232867,0.9792216201906049,0.8979224159656157,1.1176806229125404,0.9283325428152405,1.009379518932576
1.7917917917917918,1.1259450878382613,0.8261611035321378,0.8450951627341214,1.1366374702908186,0.8800738068229105,0.8634771773320358,1.1671286695057685,0.9412853625185208,0.9507078402651464,1.1581976911329868,0.9176248320282943,0.8565562363402075
1.7967967967967968,1.097065432080555,0.8493060774623177,0.8806786927547601,1.120205406467214,0.8606250566216218,0.8527263679679739,1.2059057954894616,0.8652443347926636,0.8877459865095552,1.1526936785350677,0.9532714070960959,0.7631305856945546
1.8018018018018018,1.2152570815315136,0.8421535871922977,0.8311245307747884,1.070190814006862,0.8383760681196417,0.90395821926753,1.1550417680267362,0.7402126114926356,0.8454993751548131,1.1164255407844828,0.8757482711099173,0.8399024912240767
1.8068068068068068,1.0224953644463373,0.770314142269404,0.8058257803312251,1.0243509611630506,0.9027705273143085,0.894433374224026,1.0806156349964537,0.7149498292577152,0.802180245480215,1.0568241644080076,0.7779928925158259,0.7968344509816075
1.8118118118118118,1.0808267573085488,0.838542337834898,0.7876643090042718,1.1545747804712916,0.777725605418625,0.7634114538375274,1.168125247340967,0.7678088713454628,0.7535408338107286,1.0327333280938922,0.7462300610246444,0.7618263469081529
1.8168168168168168,1.0949411705382759,0.7852314036088754,0.7587734838219679,1.0232147279543047,0.7473680393958249,0.8578115259243788,0.9740172138463883,0.7051037436280463,0.7129880205955628,1.0884780563533056,0.7572065712292444,0.7547746277726696
1.8218218218218218,1.0515823397745359,0.8147210400226618,0.7026044418351519,1.011605056467443,0.7034256037212068,0.8120211536836686,1.0735383657460542,0.7572310845793473,0.7547089939001076,1.0901937561378963,0.6671529690194475,0.7005288650570054
1.8268268268268268,1.0000534951706963,0.6989524602887051,0.6864686535214449,1.0321618527555165,0.7290218491806945,0.6722319599033915,0.9164816989414812,0.7746495073773064,0.6882475696998619,0.9161383538679949,0.6797535493450443,0.6619622715186582
1.8318318318318318,0.9695759516239695,0.7230027380936628,0.620604713637267,0.9867131908857065,0.6456849640590768,0.6690000390460829,0.9232786027869098,0.609163264765924,0.6581123644789382,0.8840879122922013,0.6859590423591646,0.6598392436675077
1.8368368368368369,0.9095206505439458,0.606332882471466,0.676260918421756,0.9978459285190276,0.6477165730207178,0.6353949619407694,0.9118091655609053,0.6687609401204578,0.692039077180036,0.9043105733206426,0.6401587714358571,0.5771164159291203
1.8418418418418419,0.9707503277621747,0.6204696198914826,0.6866823187380506,0.8665902982475235,0.6025504691994762,0.6494479327895522,0.897366464041815,0.5624568643729343,0.5827099580691925,0.9435255287780128,0.6984400226901328,0.6229540186677353
1.8468468468468469,0.9359313788753341,0.5397512178532665,0.606859479090167,0.9252550735716234,0.4948675140879633,0.5416400079089266,0.9237100772809944,0.6096302906434906,0.6129228980418782,0.8399367992689515,0.6078033209695031,0.6037897558522892
1.8518518518518519,0.8399507909858284,0.5383060009048026,0.5385304434795907,0.8248428660435395,0.643911885449757,0.6290443904373705,0.7894519267685696,0.5560793351720901,0.5780378073018181,0.8574351466925784,0.5677687937719521,0.644132827335627
1.8568568568568569,0.8734401790176184,0.53306282471382,0.4983986181021163,0.7632912363291849,0.5167724102347195,0.47385280218435255,0.750923030130537,0.4867541366777343,0.5956559972638845,0.807180589037702,0.5362734209287476,0.4995631592588755
1.8618618618618619,0.8636880346600218,0.4517104887154923,0.4620879551236931,0.7689759835243396,0.4189915722999455,0.45136854454505293,0.7956267753969241,0.49003199749633863,0.431757414897829,0.7443866599368135,0.48383089281025554,0.43614749630877514
1.8668668668668669,0.644234753940097,0.46821004905207747,0.5036800798063021,0.7860285039242112,0.4754157431846406,0.40685089890889164,0.6309599393132301,0.3299628859548305,0.4093174650882358,0.7568079846903435,0.45948994473955335,0.41842695472372116
1.8718718718718719,0.7113541113459094,0.37587982294070393,0.3982963876276869,0.6716797218878658,0.39628029948785326,0.4917592231045399,0.6565761927214671,0.3535101803007086,0.33528835862595957,0.6188482462058582,0.35756385552026626,0.558386704958839
1.8768768768768769,0.56427039396531,0.37042822999886144,0.40302753014580917,0.7205300232673759,0.35849571170360733,0.39295395520408133,0.7380912932132039,0.43984124855628426,0.2938463283512521,0.7414226335493326,0.15059730598237359,0.3821420017510523
1.8818818818818819,0.6135991607762225,0.31727974194893915,0.36931506810232073,0.6495124290066633,0.2590198319404384,0.33678544589333775,0.6491529035788355,0.29087060894577155,0.42686200929698226,0.6104544134403138,0.3177802337685475,0.27294224093146024
1.8868868868868869,0.5973110611251439,0.3936963350457112,0.3618057156579565,0.6736687337535779,0.22348870803722537,0.25586638096111686,0.5953190655144466,0.3214833697943644,0.3053843348681936,0.631551074826647,0.35834915453169175,0.35091625579253777
1.8918918918918919,0.5679191571564611,0.20328298547736157,0.30144615064386215,0.5649521088410395,0.2573319129256011,0.24391695845029182,0.546371004071359,0.30771586435542364,0.23723502372135144,0.5740249625946467,0.28321519315202603,0.2129808268390897
1.896896896896897,0.5404895054141491,0.2639372967292027,0.14904550149416385,0.46628406054979255,0.25910759890774604,0.14641356357579421,0.47344779590335107,0.21668219701713406,0.22866970084764843,0.4683240693161286,0.23381316619819678,0.2796317918775338
1.901901901901902,0.4788910720238087,0.1528816177401176,0.1209852277946799,0.47581402028042113,0.20168372308466048,0.14203470589689599,0.4477160012777353,0.1037164898921354,0.23284404810037662,0.41418265264879267,0.16132989589433228,0.23131585345243316
1.906906906906907,0.43517311848167256,0.15082197122162036,0.18726353437887394,0.32503932352753984,0.1896755192531528,0.10293055442401665,0.41441658820701976,0.24377219581959153,0.09381985251263177,0.4242222795016993,0.13181354404307255,0.09770349869672923
1.911911911911912,0.36913504226694704,0.10758974142788608,0.22659708587086394,0.42853668195466177,0.06730548488707182,0.08666796482673117,0.3856596310532518,0.04464312602060344,0.15742273523818479,0.4385395504948921,0.10794664310332193,0.13807684918275429
1.916916916916917,0.3098097075766339,0.03172621896405331,0.031932809888611274,0.35705612640483936,0.006773673302680604,0.06520931919502343,0.4248584950976062,0.050050885971770716,0.06596946317812134,0.34108419479860314,0.0028994410010632216,0.08170429017570273
1.921921921921922,0.2538836929631586,0.06739826170957015,0.020447016148317752,0.27901537492701395,0.022909593394761556,0.02931631596433898,0.32300795135750976,0.006699971576787662,0.05199553704248668,0.26988460275000364,0.0910981853749801,0.0192289936654464
1.926926926926927,0.26299057001714427,0.05529744512889151,-0.03855248661798503,0.28908145382638795,-0.06307858380614229,-0.026807134009575333,0.30686742056753674,0.06991110396181417,-0.03902727068795016,0.30607562683447787,-0.05014681248010158,-0.11681071631556535
1.931931931931932,0.25083769246138365,-0.07273415457008754,-0.06693318345721115,0.13370633003685925,0.02611624520116476,-0.058687677682685194,0.2565542614573671,-0.08122871935678162,-0.07486658756848161,0.18075984078368984,-0.14270413929424242,-0.09491053082448903
1.936936936936937,0.11320836538793382,-0.08502157966786524,-0.11593416103202232,0.23496667674529778,-0.13242853969726587,-0.056047846598813844,0.1526065739074627,-0.05251201055014859,-0.1820831732777618,0.09309539914267345,-0.11878458426179725,0.006909957112901904
1.941941941941942,0.10857634325020896,-0.15391788420342908,-0.17105346108263955,0.10333341769322328,-0.16333482295081755,-0.16520266492026986,0.07858168362944286,-0.14429687604477665,-0.16714438988099647,0.16688184056010322,-0.11962737053332817,-0.18898486536176126
1.946946946946947,0.021888471339256727,-0.24221842489841297,-0.24803350738855978,0.11091760426271882,-0.18620858497659218,-0.07920155994426181,0.12110583606020663,-0.12558694366601858,-0.2166208432511863,0.2202080765815858,-0.1918464102205217,-0.2118679983448544
1.951951951951952,0.11689447386446736,-0.14030183895170176,-0.1545820982326873,0.09699082556480516,-0.2577831741277066,-0.25266663368524667,0.03618795234827043,-0.3048109302765346,-0.3192451980373441,0.051415006962669034,-0.32872418360550104,-0.23975184897594468
1.956956956956957,0.12785889594591762,-0.2883220085261327,-0.23429099203435616,-0.020257342826319774,-0.33019491645382937,-0.21725677078287892,0.06611703691303125,-0.2547011725620091,-0.3236357147901607,0.06445484829164638,-0.2783019336332145,-0.22941188355901887
1.961961961961962,-0.06392504264648498,-0.2636074785808854,-0.2992744540943115,0.006800845113003551,-0.41054078749532263,-0.2860187332111403,0.0076401957710976465,-0.25925663360356244,-0.3477580720707637,0.008598331830068261,-0.29293581186280937,-0.3038972336248763
1.966966966966967,-0.06287776083707704,-0.3976907891005246,-0.39347202557094096,-0.0026358004217318237,-0.33605175206292476,-0.4062371682920649,-0.009830734976306543,-0.31677574751793125,-0.274646112107912,-0.044053120553611005,-0.46936041093086583,-0.31357581834618303
1.971971971971972,-0.10226904623987812,-0.4365553722390214,-0.3656148486611581,-0.04543657230800934,-0.3897349644222326,-0.43619823955967796,-0.11803168802972888,-0.28428626781564487,-0.3117124567876945,-0.016270589111272174,-0.37047535439315327,-0.377304820095505
1.976976976976977,-0.12946029097493864,-0.4552310616373707,-0.4706548795143563,-0.1299614650813112,-0.4517749906647126,-0.441706663679967,-0.14411252342889896,-0.39164743659357526,-0.40015334687907456,-0.19706106742519564,-0.39195107881828606,-0.4183575009673929
1.981981981981982,-0.05971129901625527,-0.47413641678036583,-0.43682391533674914,-0.14257916156984382,-0.5323931709251641,-0.4749929300425785,-0.14655578640037542,-0.5561069320531845,-0.47128203581312317,-0.138858429422637,-0.42469467386749016,-0.4422416272673935
1.986986986986987,-0.15635700106114214,-0.5642307105304539,-0.44493206806250557,-0.16447487641485242,-0.47293523529257514,-0.4433479363710282,-0.1640995387539997,-0.5028153910615158,-0.5488484502075317,-0.19448465825713232,-0.4841932983503564,-0.5149247859915934
1.991991991991992,-0.17119709265240143,-0.5282171736595009,-0.5229706349999206,-0.26390094468038017,-0.5444984751536409,-0.4803760459868665,-0.2556308961977876,-0.6052060360229455,-0.5651708488570377,-0.20213916186401454,-0.5737495150186308,-0.5811027787239198
1.996996996996997,-0.3131200989247659,-0.5808282480068265,-0.6459266457904387,-0.30106867426547074,-0.551443462688207,-0.6318906502577297,-0.16930306043198007,-0.6718424906634253,-0.6016006698750223,-0.23691013222798693,-0.5636043566523692,-0.5355998592462695
2.002002002002002,-0.3645848946161575,-0.5964889789458041,-0.6279261373209274,-0.3562393883787011,-0.6085493098575154,-0.5942041787072783,-0.3101565161522361,-0.5212224987901488,-0.6409641326247557,-0.3591673746125971,-0.5324737364935297,-0.5757717542856154
2.007007007007007,-0.3341729585359525,-0.6064056825027296,-0.5824240713458692,-0.2897847025145201,-0.6601059501469628,-0.6061961195411176,-0.4064206044451144,-0.592407592639959,-0.6321513948240147,-0.4242912854304229,-0.6423794134350707,-0.6661666829463564
2.012012012012012,-0.35888951835265465,-0.7350151455616688,-0.6491815923431743,-0.39366058214526944,-0.6429497658942693,-0.6822780761878532,-0.3328056492997261,-0.7071208906186881,-0.6505433140880266,-0.4207421428177342,-0.56629847341665,-0.5855969397695103
2.017017017017017,-0.4154210674812135,-0.6936636355196916,-0.6387154798549928,-0.4084223363324744,-0.6941359927589127,-0.6364684805581862,-0.47581717120714834,-0.6996353953458978,-0.8689242649867615,-0.3442373565978443,-0.6849636553248416,-0.668359678920155
2.022022022022022,-0.41225304772378646,-0.7584014990036353,-0.6883983460176611,-0.3702771252531187,-0.6219139572942436,-0.7180527604344213,-0.4293799405565239,-0.714921262235143,-0.6785147418277202,-0.47768579789618754,-0.6647582140391635,-0.7904690959824827
2.027027027027027,-0.34522547078902843,-0.6912718727561652,-0.7306538290478851,-0.4982702900981855,-0.711758281626958,-0.8532239146220733,-0.3738940088755988,-0.6882126853800643,-0.7945672042193037,-0.4409314531711808,-0.7480556156943311,-0.7771792789865881
2.032032032032032,-0.47533969164815115,-0.7169768573577261,-0.773807099721765,-0.5642318321380786,-0.7941238052945377,-0.7753132248062358,-0.5096874735136858,-0.7969631494184087,-0.7470932638459316,-0.5008766351119784,-0.6734208856974007,-0.7649219377154154
2.037037037037037,-0.44273350267747574,-0.8505307582071505,-0.7436677344438068,-0.4669551961064402,-0.8682248512872055,-0.750229394083406,-0.48430434679654827,-0.791664755296859,-0.8110331342655481,-0.43847390989914464,-0.9065884970718348,-0.8400375168836686
2.042042042042042,-0.5713599739756827,-0.8960006978595365,-0.8386201593816933,-0.5692634054654461,-0.8182675438829179,-0.914391028637264,-0.6478991574325427,-0.8199400533481797,-0.7795468287189904,-0.5948689068444948,-0.8125364289966439,-0.8590913899950229
2.047047047047047,-0.5424898540807481,-0.8691082342818337,-0.8243698376875178,-0.6709737945841573,-0.8713314309934503,-0.8894666078967323,-0.5311936161706629,-0.8004098536794654,-0.8057971831898332,-0.5063262572047424,-0.8732061886833762,-0.8569489694152931
2.052052052052052,-0.6011972294716708,-0.8395615620531898,-0.8954413357173072,-0.5766378939473961,-0.8944467346963849,-0.8392019125933736,-0.5921842673397288,-0.8310515913744643,-0.9108027422122447,-0.5349956899873024,-0.8547172518738857,-0.9146245115327029
2.057057057057057,-0.7323582985752544,-0.8758270436364677,-0.8835096014007641,-0.6459387645735296,-0.8554580672644093,-0.9288317379911314,-0.558239468762515,-0.9057065501253972,-0.8065382189698096,-0.6018878382558779,-0.8853715615669503,-1.001314854210721
2.062062062062062,-0.6854587250747626,-1.0014190234515412,-0.8652692970928285,-0.6060422782916386,-0.916081976868684,-0.8820717478079163,-0.595761133755993,-0.8796222019099695,-0.8930962634230848,-0.4542669964195609,-0.921917604404052,-0.9287092346164081
2.067067067067067,-0.6194264542287131,-0.9637670995755354,-0.8352443636232594,-0.616614901798419,-0.9341986407500037,-0.9184627605425091,-0.597812589206921,-0.8233873529444322,-0.957636814225928,-0.6167333091149407,-0.849333553476373,-0.9266846621471033
2.0720720720720722,-0.5631491681434837,-0.9570960521405897,-0.9639388799110667,-0.682523687135483,-0.8948252756198429,-0.9187793823849563,-0.7162539989529995,-1.0110958389252527,-0.8988489758918852,-0.6745831625585884,-0.8704970238307178,-1.0102789972411694
2.0770770770770772,-0.6100030637030242,-0.8709357239728925,-1.0044192200385822,-0.646424988461802,-0.9553872032165182,-0.9957151153075877,-0.6715793241953647,-0.9399928575808526,-0.9062736272321772,-0.6832285321937341,-0.9561943045613612,-0.9544744351751498
2.0820820820820822,-0.6529437840053814,-0.9495994880458939,-0.9876068743863388,-0.6268981249402112,-1.0062426459070553,-1.001196092020571,-0.6563080420796754,-0.9370457776226906,-0.9672411185601587,-0.6643166768025797,-1.0138179396657412,-1.0313996626327548
2.0870870870870872,-0.6902278712130343,-1.0420957584594532,-0.9515996804060414,-0.6744453244831122,-0.914576661004015,-0.9313752994440568,-0.6844539992845787,-1.0035224359262929,-0.9963722665973312,-0.8014952026772347,-1.0936709696332767,-0.9998481624902954
2.0920920920920922,-0.6526899238082536,-1.0013968380485725,-1.0865104793637352,-0.6737761083845399,-0.9761485605943907,-1.0395549066713368,-0.7109185698834896,-0.9694875329886506,-1.0857441826927954,-0.6436542096746477,-1.0222969814911091,-0.9725522853705308
2.0970970970970972,-0.7199777200065505,-0.9012659022324353,-0.9483172676168262,-0.6906237762397126,-0.9548631749011895,-0.997314459749807,-0.6634742252903484,-0.9072807120962708,-0.8927522933607266,-0.6930776535652854,-1.051728038978934,-0.971053819570438
2.1021021021021022,-0.7218584386127579,-0.9643650869379259,-1.0545725899389071,-0.6695931799530572,-1.0157814645774783,-0.9531220265715641,-0.7619090383500893,-0.9646552533716292,-1.02112708570597,-0.727217894969797,-0.9530611698984701,-0.9557406951409612
2.1071071071071072,-0.7063587255979505,-1.0781771148251242,-1.065815982196891,-0.6009218369413152,-1.024887099912393,-1.0065798108863568,-0.7107959958518367,-0.8981431269452489,-1.000787644490324,-0.770127045319369,-1.0437872624648592,-0.993666770694837
2.1121121121121122,-0.7574423425453277,-1.0680465534902344,-1.021944930888523,-0.7095807866521768,-0.9749423506746168,-0.9285311092888745,-0.6997100664885212,-1.0248785470230761,-1.0279687554928656,-0.6952496576531495,-1.0071891141610845,-1.0442197106371658
2.1171171171171173,-0.7380071589370868,-1.0623420411197553,-1.020570912452314,-0.6752220443585112,-0.934469096420703,-1.0518304336797917,-0.6947012178031694,-1.06812613778091,-1.0600659696717383,-0.7217124931110886,-1.0336413801142537,-0.9556246551872192
2.1221221221221223,-0.6587462137294929,-0.9908294287581286,-1.054204935704887,-0.6538879353138654,-0.9804872747116412,-0.9153087968552562,-0.690765393971712,-0.9169027634592122,-0.9746660077107734,-0.6833979184053529,-0.9668331564505127,-1.033790987248382
2.1271271271271273,-0.7059159736311723,-1.0213047260232202,-1.007683492957253,-0.6487436500515432,-1.0453682777713604,-0.995151058823353,-0.6627197700084948,-1.0053577271442504,-1.0039893621567924,-0.6964152155624117,-1.0496565555381245,-0.9124283045199916
2.1321321321321323,-0.6684033374554008,-0.9720773777394032,-0.9274329217208296,-0.6376524572880217,-0.9933976116592536,-0.9864136742416897,-0.6564335876346642,-0.950577213012198,-0.9626818207880089,-0.7431974482189749,-0.9787457970000937,-1.0437084481081491
2.1371371371371373,-0.6650285629212404,-0.9678596226530036,-0.9244833478825333,-0.7417711749860241,-0.9546300190093265,-0.9343408138315732,-0.6797082366036153,-0.8816083322504413,-1.1089008237667144,-0.7353629522560627,-1.0071125414911657,-0.9534871566390335
2.1421421421421423,-0.6944778443701216,-1.0121546829485202,-0.9426472041287247,-0.7329061213261018,-0.961699210823982,-0.9292397071101872,-0.6763339873418388,-0.9795727242033052,-0.9724816761178293,-0.7028121415508816,-1.0337877936447903,-1.0748697486297174
2.1471471471471473,-0.645399843358215,-0.9493081060762164,-0.9284204736189972,-0.674889660792277,-1.0530672936004506,-0.9959615692875857,-0.7340872427601968,-0.7945378189026812,-1.0291732860859302,-0.6071171618319885,-0.9797038648989541,-0.93158081431503
2.1521521521521523,-0.66898186198255,-0.9695451552222173,-0.958400558688493,-0.6920084201405531,-1.0367861803465328,-0.967801642185397,-0.6938016215580088,-0.9094468427660858,-0.8604551368377557,-0.6616345881952238,-0.9521223376892566,-0.855646920986703
2.1571571571571573,-0.5897247978302657,-0.9449840835791062,-0.9223698995533243,-0.6987077432909414,-0.9817379894206122,-0.995131214452182,-0.6642673239718982,-0.9291567486908052,-0.9677547040653374,-0.6010333692647452,-0.8950084139643893,-0.9266861773560916
2.1621621621621623,-0.5516869715277571,-0.8517585421970268,-0.9083630811738159,-0.6810404073931619,-0.924354603007644,-0.8854768300151376,-0.6993281031512374,-0.9496612591482045,-0.9828931437042852,-0.564877479081413,-0.8858945267862782,-0.9037292837811072
2.1671671671671673,-0.7173631341922189,-0.940249104297084,-0.8803151594068036,-0.5552838842932456,-0.9700092952112552,-0.9265274090888518,-0.6405398041797344,-0.8870617576546076,-0.8606879610857601,-0.6172435659416469,-0.8741387106182844,-1.001705372854618
2.1721721721721723,-0.6425628699226206,-0.8932525454049354,-0.8234503310630316,-0.5929755827134949,-0.7780660886878812,-0.9182458582207668,-0.49943287336092224,-0.848696217738904,-0.8595795011256299,-0.6974082904049417,-0.8878802997755372,-0.9081715741440713
2.1771771771771773,-0.5654422328585088,-0.920922202810688,-0.8987133522229283,-0.5933174540354047,-0.9307138378917763,-0.8476538835817014,-0.5304551554534878,-0.8667684639619182,-0.8582270768868379,-0.6111907547516902,-0.8983368025856012,-0.8860546834876296
2.1821821821821823,-0.47752523348557735,-0.9335482910527979,-0.8496559324789662,-0.5724798886315059,-0.8663499168108315,-0.9193848249472008,-0.6030319880660326,-0.8465367281695666,-0.8106276109682798,-0.5774934831499086,-0.8275355846465576,-0.8911246813368356
2.1871871871871873,-0.486556667389656,-0.8063949807167088,-0.8942583707322098,-0.5369995172678013,-0.9061300206171861,-0.893143739500586,-0.5191919299904538,-0.9078963809120871,-0.8495201907738607,-0.5073973227307973,-0.9003322110895706,-0.8937096047438657
2.1921921921921923,-0.48965325058284404,-0.918897506495765,-0.7850977774734786,-0.5313793456780931,-0.8650010650774452,-0.8081934222744656,-0.4989686971356552,-0.8935091420843937,-0.8395175164052993,-0.5709808047379061,-0.7411981529748761,-0.684033952617218
2.1971971971971973,-0.49886323153067746,-0.8618638020812003,-0.7684478604529239,-0.5063615419678881,-0.6418310521689758,-0.8286669196418344,-0.5123988658845342,-0.815762321720901,-0.77008034524697,-0.4826855154327673,-0.8046029654232411,-0.7104114655894455
2.2022022022022023,-0.4972020176317,-0.8046577791581382,-0.8283101277054624,-0.4520128650411522,-0.7664925947065481,-0.7410937254243062,-0.36579282678798264,-0.70802001146466,-0.7061826804232296,-0.4039014282603837,-0.7236196802699979,-0.6925398480866002
2.2072072072072073,-0.44597421374180646,-0.7968125513342149,-0.7167622636398404,-0.49217185724902013,-0.636279699317837,-0.7377953730686395,-0.2987850627029979,-0.7754409548450628,-0.634617452977996,-0.5075493026569557,-0.7765588482701946,-0.6836073964326181
2.2122122122122123,-0.33338809490154486,-0.6951796759120141,-0.7106967437107213,-0.40674746129664147,-0.6935416232803417,-0.7942001220627954,-0.319397499020059,-0.5999673851701943,-0.7231833692814095,-0.4197129326730128,-0.6738511727545928,-0.6865839813317319
2.2172172172172173,-0.3835408206011117,-0.6998727760703719,-0.7086041076107633,-0.2885313350808323,-0.667760318233148,-0.7139300564341442,-0.3558797760683855,-0.6583306213618955,-0.6189968056691811,-0.4393404407171183,-0.6561035306795503,-0.6843384387986625
2.2222222222222223,-0.37546179894587184,-0.6002801022435329,-0.5905477808182557,-0.3412214953543776,-0.6155819910245327,-0.6498454521070867,-0.38200168641719345,-0.72154798645578,-0.5600269452905331,-0.3606726132773494,-0.6347919465633274,-0.5347496528835483
2.2272272272272273,-0.24958350429041593,-0.5843869968229182,-0.5154049350127836,-0.37314983547952857,-0.634954981612789,-0.6593317706275877,-0.3221679932142057,-0.5929579551515756,-0.5966930068820686,-0.2254110111910478,-0.6949049926644465,-0.5652656898259977
2.2322322322322323,-0.2510271409868103,-0.5644834220000832,-0.6058465696086326,-0.2605057661808495,-0.5165902459758237,-0.5836209482180699,-0.2541526472710454,-0.6362538670840722,-0.6698377722856641,-0.3177524384150175,-0.5923889943095038,-0.6028263871856508
2.2372372372372373,-0.24591256708568043,-0.5067427459195527,-0.5065164953119591,-0.17353972638119347,-0.5364409610003996,-0.5038808027945656,-0.19755297777714917,-0.5124271318227973,-0.57299990447458,-0.2395438603847167,-0.495382027025475,-0.5619029299931008
2.2422422422422423,-0.1738161269626019,-0.46813446419068777,-0.37700812787190136,-0.29892100259102666,-0.5161731205116599,-0.5736128583559489,-0.23878506952765427,-0.539925591418426,-0.48653864803948016,-0.15746605361541968,-0.5451307441814885,-0.5769627701644893
2.2472472472472473,-0.1285916460092333,-0.43488191624993844,-0.42235547370842874,-0.111944164931215,-0.5186043269845404,-0.5057080962507842,-0.18155463940609073,-0.518659414037892,-0.4966683666873626,-0.15577454607133467,-0.5030299850128449,-0.5293683223761482
2.2522522522522523,-0.14961251976525372,-0.4617064013357795,-0.4981465206689848,-0.11656709287656429,-0.3861908357938112,-0.4456398481004325,-0.11409561893716412,-0.41006718907881606,-0.3798094046637327,-0.14250181323122801,-0.5188181712571497,-0.4298630332132995
2.2572572572572573,-0.14587993614007924,-0.4602018319000863,-0.42526089937760814,-0.03140619208376026,-0.43154565968360653,-0.5259231477410202,-0.12434470295287343,-0.4099895514645612,-0.3341613813078865,-0.07191057153913427,-0.3552881531024606,-0.38225270003637124
2.2622622622622623,-0.11505520320469742,-0.3520341114726104,-0.3110179473786882,-0.09058496252377717,-0.3818104128228798,-0.3090194043686169,-0.08529588395625508,-0.438389389289782,-0.28958572398819993,-0.1171860786239719,-0.28913505971234205,-0.3377945002573532
2.2672672672672673,-0.009895286240263517,-0.31578683005562114,-0.33035425228065085,0.036624936118747946,-0.2918749579705123,-0.2364131355557343,-0.028173384763913574,-0.3026803466315848,-0.42623987749109726,-0.07433333544617765,-0.3576174928894897,-0.38696592473951824
2.2722722722722724,0.024830929025590164,-0.352757351159174,-0.2328239571777472,0.018956155504138164,-0.32344585442073737,-0.28426906948629155,0.039605970181489494,-0.2747357056323473,-0.2939339703334691,-0.0933043124047166,-0.3372579717402135,-0.24720672695796647
2.2772772772772774,0.036466919331736986,-0.25963123948414435,-0.277879671753746,0.06708615666128326,-0.18258726570356165,-0.19316659495132127,0.019445193642274733,-0.2305415086709802,-0.2964591437684048,0.054427245137530486,-0.20653597393478357,-0.18116904295414413
2.2822822822822824,0.07380714271559335,-0.12724578201842549,-0.11368076404900951,0.07826364708987461,-0.24032751081005646,-0.16983930347554682,0.07237115779998973,-0.30214583648660914,-0.22864584433747698,0.19086985533156808,-0.3054645722493353,-0.18214643724801485
2.2872872872872874,0.12460496696996926,-0.1654645200949999,-0.12043876641187874,0.059900553700418205,-0.19659526151085846,-0.16400888924021595,0.044245255786878476,-0.184145532588538,-0.2095023646361956,0.06218433550580148,-0.18163084826635612,-0.07509443581948916
2.2922922922922924,0.22525089759801928,-0.17916615207458692,-0.09693433149923729,0.18754036254362444,-0.12434246225622192,-0.13304623681277847,0.17581736101910517,-0.1849109356613022,-0.07790055547563557,0.10950719101265756,-0.06851921894347848,-0.020708634436437168
2.2972972972972974,0.1797063806246149,-0.03551225407273459,-0.07238255682380416,0.23962812413430504,-0.023478417941323403,-0.041302215692001654,0.2534922550149963,-0.09533967810942495,-0.0602329821001553,0.2609627092200514,-0.18630498997785933,-0.11150494815615529
2.3023023023023024,0.2573681360530337,-0.06051827442396158,0.010412156379072356,0.4032165894619546,-0.033975973945377304,-0.018296145290200887,0.20423174420918475,-0.07399036569115798,-0.024445359548752713,0.30506762548745725,-0.0039103134280144836,0.027485877031859486
2.3073073073073074,0.27602204210096043,0.00986268093859188,-0.0337089821340428,0.27797834340622934,0.05746075400510896,0.00814965178911355,0.2961955981329473,-0.030106763264172522,0.08504905258410801,0.294617428320829,-0.03195434537952153,-0.060497051227903664
2.3123123123123124,0.33344041005756075,0.08114024679495002,0.04573081445061328,0.3498374642240316,0.037637035378712116,0.026589483353891837,0.3451082351915305,-0.03696573858089121,0.039033268249594806,0.37620239887691787,0.08282489215261632,0.03769663898541842
2.3173173173173174,0.36170904178154667,0.10008733563618114,0.07338588972968423,0.396182358010486,0.014553200937705124,0.033404919922147155,0.23161260761197755,0.05661534312081941,0.1642114162262464,0.3062766039329391,0.1443995222066269,0.13350671305144826
2.3223223223223224,0.4612778577714141,0.16499248067742373,0.16910140041989796,0.38665811369890657,0.1930891706936968,0.20108390375171542,0.42331805458224725,0.01209154882681042,0.2097226423594361,0.4666025193574471,0.12152538385713155,0.18384496486302312
2.3273273273273274,0.42450915584092735,0.08645753590289655,0.16404299842204956,0.4596222400731654,0.16224930584484296,0.19813708117276999,0.45963562525061014,0.19227127428337254,0.27330350916116575,0.5671082359663621,0.20811165594549158,0.13282452821997878
2.3323323323323324,0.505148381800163,0.21716286728730555,0.22671801204132513,0.47916695389860253,0.23483738922929565,0.2207819226141635,0.4372354839412036,0.18557880547051356,0.21525781860042847,0.47744579480280414,0.16164461910158373,0.2820925246653041
2.3373373373373374,0.511354599180659,0.26512163717700765,0.23114945069651618,0.5765709842872013,0.21720754829636818,0.21636778359711262,0.5691000153573318,0.22159097355056545,0.23376078893287447,0.5805993749142114,0.2122812265974439,0.3213324502470506
2.3423423423423424,0.635891339724187,0.34010972974754483,0.28530630839372184,0.529787497160759,0.2528317879008773,0.22666599269982482,0.5905061573716452,0.28866858871888773,0.21927177038361223,0.6060112549847411,0.29714079303016594,0.41013024130524145
2.3473473473473474,0.6700525627825605,0.3788560974998194,0.3287561989287313,0.68833600450055,0.33067570531689344,0.2714211778241512,0.6554976153921342,0.26900888463025496,0.36566218470681855,0.6556395110163438,0.23107186859802115,0.3629738957178792
2.3523523523523524,0.6070215601253923,0.34661364097270875,0.3963355899765076,0.5969716798870022,0.3302859864307576,0.3339874107036767,0.570801053677833,0.37425833423750055,0.3225353135330412,0.6646379297225075,0.3492006083502389,0.2773682789628125
