time,lead1,lead2,lead3,lead4,lead5,lead6,lead7,lead8,lead9,lead10,lead11,lead12
0.0,0.015235853987721568,0.13438648789583987,0.3920245290035463,0.2951409134128481,0.3141898136821327,0.36591141187848375,0.567269848230439,0.9518737480585678,1.1099585054130776,0.9681558600801192,0.7051609967722431,0.4877204647435079
0.0033333333333333335,0.017080209097246814,0.20874157709791943,0.4402690783936705,0.49007619191395846,0.35528687582023993,0.2606174128177487,0.5576431082814199,0.9665818678011826,1.1761757106656001,1.0748032655544977,0.7354242459058684,0.5850165113915767
0.006666666666666667,0.17299264573493295,0.38060045266399806,0.5774229524672486,0.4335326505247793,0.4531057401107524,0.3885844594098793,0.6669460472039406,0.9964923838540509,1.1557436123178655,1.069289102560658,0.7513164970875837,0.589339934411411
0.01,0.2436996229391571,0.39980040814123047,0.46934487861050783,0.5962392262226871,0.486645719836868,0.4552432157683396,0.6475186473707802,1.058445033803472,1.1877254934428254,1.0978226512914724,0.7581750416416192,0.5456710129868371
0.013333333333333334,0.1529922303502575,0.4340271168980916,0.5932658412990713,0.5709594012272391,0.34568101074571767,0.5035271553843066,0.799479132278246,1.1419637168241472,1.2982395272380336,1.1065671104969617,0.773162551855904,0.6417669463400995
0.016666666666666666,0.23034545388399638,0.5215701078612344,0.6336504730903583,0.7261003897271463,0.5513949602498383,0.48032625578529153,0.902503919422437,1.1717797983740517,1.2742135683881888,1.2130439412160576,0.7751176725015314,0.505413946523939
0.02,0.3367717610741463,0.4329006830763031,0.5976464084245903,0.7127343109194592,0.49242742813957985,0.43880707688399323,0.8057152327099083,1.1612761740216393,1.2521775993875683,1.0989153433639693,0.7814652806710677,0.5164651469662709
0.023333333333333334,0.3391520498533111,0.5669206354020968,0.7777500069429879,0.6428153642003267,0.47876098632432457,0.4935510735730106,0.7540080527498552,1.2118665450618007,1.374833624729547,1.113788944428599,0.775109170165095,0.6460564227674429
0.02666666666666667,0.3686839445805914,0.689231295254186,0.7286982860218866,0.6542510671853877,0.5366159590561171,0.48804507835832484,0.6522293202646506,1.2148000233735423,1.2857984411299683,1.0529773155100401,0.6616755020563567,0.5605698490753533
0.03,0.3323483978984233,0.6066296514763448,0.7866619921107684,0.7270730389144221,0.5525810497353829,0.468503615787264,0.6775436682648269,1.1759084810519156,1.3554307259740013,1.1262890267122703,0.6637765311683501,0.48744584048658895
0.03333333333333333,0.41683635439581984,0.6059199302801633,0.8665896947948988,0.671655679188803,0.4272644129898481,0.5285888937252354,0.8134816043298279,1.0824868927800453,1.2709638183030425,1.0273919977487647,0.6152431214241872,0.4618427473752198
0.03666666666666667,0.4038820300876491,0.6262057969719032,0.7232591274552711,0.6575402095068019,0.5150585443594718,0.385568081450067,0.651330257338255,1.1021296492407142,1.248808585626426,0.9928043007420158,0.6791976930071626,0.3811421499734954
0.04,0.35678922403314745,0.6357987092971166,0.7078293314666728,0.7064094444176906,0.4841293225531441,0.42305979482056977,0.6467463359462734,1.0652344143773118,1.1832767701473887,0.9457980331536403,0.6596524398846498,0.3884323691303745
0.043333333333333335,0.3968881066832093,0.481586714498901,0.7208062445295121,0.5801714488431854,0.4125777918937229,0.3758657555662926,0.658601973003936,0.9602244225065747,1.0187240355715623,0.9282211423499751,0.4200765673992084,0.33631257112151436
0.04666666666666667,0.35154879196306676,0.48820699715749666,0.7505649412216676,0.5974327288715249,0.33177854458895223,0.3766934446545687,0.6611988943915655,0.8838123090399039,1.052816563468116,0.8167754867910142,0.5594836764430715,0.2805969741288848
0.05,0.27526538928816857,0.576077811325074,0.6616399420046167,0.6185487045085084,0.294134681040723,0.2859557693137008,0.5415681290058275,0.8255355520742828,1.0646871310120551,0.7247828301394107,0.4420346262161075,0.178676701115307
0.05333333333333334,0.3305396758645166,0.5270079590130674,0.651373087987657,0.593784838498786,0.3673616972596247,0.30144506003658605,0.5011913578611916,0.8999383622600309,1.0559914754119586,0.8232234982183265,0.4509062470971919,0.21323828322325947
0.056666666666666664,0.2627665116030442,0.6305771575849933,0.7341441991020485,0.5338167602446724,0.2200112701078765,0.22953074411207575,0.5020355854719634,0.8883188749626452,0.9224048012197683,0.6657516472346011,0.3962519086803185,0.14512385968217179
0.06,0.3583686658514855,0.5570214487679849,0.7046910896994925,0.5226107974888375,0.33581022172321484,0.2441639001657415,0.45242254593745557,0.7997494584345457,0.9920151745115415,0.7943074591979417,0.4231207825666893,0.1036237031929742
0.06333333333333334,0.32067571627978575,0.4894314799855848,0.5942276917523236,0.45240514421401484,0.2691996267447619,0.14009776143349395,0.44931691603525636,0.9056213944713646,0.9307396964208792,0.8195150451220806,0.352061813129402,0.2081356611049902
0.06666666666666667,0.327031196754009,0.5411902885261142,0.6517055254871419,0.49552108376851367,0.2751493011739446,0.08445256347603189,0.501546273644844,0.8644180522619934,1.0000944699095669,0.7332353388194248,0.2742745224426611,0.2558524461172451
0.07,0.318707032964716,0.48964796116044174,0.8094593428082719,0.5790938738720255,0.20383162980179897,0.24393184395417283,0.5011825345860492,0.9360872477570811,0.9976047288668316,0.815529660393747,0.3478472817187362,0.25720179066138527
0.07333333333333333,0.4324757432770418,0.640816395337236,0.7795756080437922,0.575734360676037,0.29676833643564393,0.2616283667508241,0.6162443549792042,0.9060290842664336,1.0534267878306096,0.7664738790657768,0.39819164834369053,0.21421608043056006
0.07666666666666666,0.3829562391727045,0.6699192138304223,0.7486403583880324,0.6089261344111109,0.35367211680548893,0.28359014316178366,0.5544957546110776,0.8584796045560044,1.0930320384564958,0.871076987813431,0.38773881630287166,0.1972525920763943
0.08,0.38799859278374976,0.6849167666357369,0.8061568960635743,0.681170014569489,0.2773711245819727,0.2562476150808629,0.6162614707916159,0.9624532926578419,1.0898181578954358,0.7959477944002613,0.46227235363457125,0.24085326181695527
0.08333333333333333,0.4087806874176542,0.78556895181999,0.842481559509162,0.5937700277515277,0.39092622763915974,0.3807578207026522,0.5325936466892176,1.002163862995996,1.138629417848933,0.7301070200879909,0.45932342614633553,0.3010946101101867
0.08666666666666667,0.4673657859236065,0.8146886667783226,0.9037563197872481,0.6637787121572694,0.39130542594884726,0.3064422622614227,0.6393027142447899,0.9697553286041113,1.1062450944018878,0.8736219111909271,0.4660439882312733,0.29637060084036504
0.09,0.4703296925473092,0.7663788158262265,0.8213556809553149,0.704940864867211,0.37333327756050416,0.37158812631972754,0.6015878808341939,0.9510676995379026,1.2905201873676821,0.9898462135984969,0.47247544659032825,0.4176536983514521
0.09333333333333334,0.4809565723050105,0.6850856004357937,0.8662401467265515,0.6770377164512812,0.46387304463794,0.39826652480169483,0.6787455006681808,1.0503301744096678,1.1098481154023179,0.9537996547244001,0.5339386818625563,0.27993944060616144
0.09666666666666666,0.4875562542028848,0.8366473355979773,0.9377086495110621,0.7972024032907837,0.3232037104720563,0.4687414463053863,0.7103713790689155,1.012523466173929,1.1604675204307169,0.9183092439510772,0.5848025786608725,0.39098001058744786
0.1,0.577132147731886,0.8452515377865847,0.9320862433572098,0.7813690268342726,0.4594707541839934,0.37738657915921514,0.6908398811078986,1.1304746492805628,1.2419641459035813,0.9711342603816535,0.4909522641505602,0.46276073305064824
0.10333333333333333,0.4533575408450039,0.8434606622103116,0.9768200617602794,0.7583952142624193,0.5291035523553937,0.367531909867134,0.8167265557936212,1.0605727563196075,1.2384165942172016,1.007171142514658,0.5571526863061426,0.3897464522997214
0.10666666666666667,0.45277428852304513,0.8877168678454778,0.8972240953488715,0.8402350857515177,0.5242053449488263,0.3295232139302817,0.772015117875491,1.1687993345791883,1.2232550355868117,0.9518320282653405,0.4965921430483668,0.42169681996364455
0.11,0.4450588792051393,0.7926659230557059,0.9877184900763463,0.682168449393716,0.4750274672635242,0.4846478872751655,0.7609581846574083,0.9740306822218869,1.2257915340928534,1.0792390121211983,0.5595407289926287,0.45808264683600314
0.11333333333333333,0.5280648471579995,0.9666698588656284,1.0376896421248496,0.7646186402103142,0.44433476695745366,0.4303134246157298,0.7402256290045842,1.0818540226706992,1.0771645642910022,0.9092745659355279,0.6390059272968555,0.49306115563505953
0.11666666666666667,0.5706692043694712,0.8379174966339938,1.0240560523878148,0.793789583342583,0.4333427299414435,0.43501045068808925,0.7898282107216706,1.1399796413657917,1.2476341227804348,0.9692688130769416,0.5047295191205083,0.33664160122855735
0.12,0.5318265753452045,0.9482905551466041,1.0276307450671442,0.7438416583489531,0.4586428565796231,0.5733777110200653,0.6304272469833588,1.017212851611948,1.1436851275745312,0.9394543294135801,0.5817513400579231,0.31415230429060115
0.12333333333333334,0.5255996639125998,0.8571982621669083,1.0417990119371414,0.823032097144718,0.5133829427484569,0.4419626778045274,0.773396878709985,1.047951143391931,1.2020319191183975,0.848179085576544,0.6707543612083365,0.31511378360995523
0.12666666666666668,0.5631222834345856,0.9315726013231823,1.035840510049001,0.7756739605214613,0.46237252191913847,0.37228409098234394,0.6606116683910368,1.0317601744046359,1.0250806904015384,0.844536473089934,0.5832057408941724,0.2655309678736585
0.13,0.6795590897519556,1.0956328004947866,1.1096194298966815,0.8928540889453913,0.5611936401246903,0.4429004947157053,0.6902010041218121,1.0160025485545947,1.1284230546576661,0.9008754999345064,0.5009557068278836,0.2504436369475128
0.13333333333333333,0.7315419420109014,1.052575193122372,1.2155194645826373,0.9420663529684149,0.6540090549981676,0.42244782091944766,0.7574781695312365,1.0629844158843011,1.0782954353246366,0.843480785158885,0.5231346054822779,0.2587037104927372
0.13666666666666666,0.7717779751814831,1.1558701848340893,1.1881111455419675,0.9358790799033523,0.5706303808143789,0.4721840692522837,0.8041195722230046,0.9883589976964313,1.1277442451254855,0.8414496506413567,0.40003771534587884,0.3552188834858873
0.14,0.7623166089023745,1.1743987158860019,1.1914436010227747,0.8632486540755151,0.5337033824639101,0.4936093797188021,0.6987627753544358,1.0508577736272788,1.1087520022085349,0.7326024267767096,0.3802659981488311,0.2667249048682071
0.14333333333333334,0.8565058336351898,1.2041218365650943,1.2513890785297292,0.9397169042692708,0.5598745652421467,0.5054566782462906,0.7442498927511236,1.0850927946663993,1.1049615470898533,0.8377094480504661,0.452190796324,0.2747530144246223
0.14666666666666667,0.895910525194886,1.3201518244340387,1.322044671902794,1.0448608899487994,0.6891106133440048,0.4836548737960461,0.7859291359521104,1.0494851964568592,1.0260882487641545,0.8092172044475181,0.46285340869059116,0.21744580198242033
0.15,0.9397193534731508,1.2762045397260393,1.3230546247886605,1.0405383144625289,0.6654289782055518,0.6469854034356869,0.7788534295699983,1.007563835404048,1.065632484956415,0.7796126265541433,0.488859429256693,0.2889353474712607
0.15333333333333332,1.0025490234815548,1.2265515006008754,1.3874790333497424,0.9199970619307766,0.7234972541552097,0.5900831090327002,0.8322192966898795,1.1011679003355264,1.0444321370460292,0.7853443516142931,0.394565087989744,0.34176529783306453
0.15666666666666668,0.9902426319930551,1.2928614884934093,1.4010191048111715,1.1228667268691896,0.6557851692482897,0.5638793598348466,0.9554109895052114,1.071565664268903,1.0572728099997517,0.7264889401797275,0.41783188866557625,0.19166514200032828
0.16,1.0219761170732828,1.3668721786969154,1.4201245221753849,1.0633397975343635,0.7173141711066435,0.6042011725558293,0.7903415547738224,0.9606019012685588,1.0540389910298062,0.6910367744128711,0.39641955364791026,0.30652538427502085
0.16333333333333333,0.9889133520226359,1.3538497451392064,1.4363717818729664,1.0006376652312914,0.651198308089484,0.5716592927934316,0.7094623958289876,0.9171534663673024,0.9764862110603441,0.6755097166032212,0.35652506178104565,0.2180329575676401
0.16666666666666666,0.9863824738361749,1.2392646305067563,1.3934882867277756,1.0659373764194926,0.5959834941210073,0.5343812956973517,0.6493409843103425,0.8949830991734447,0.8617095806138988,0.6244015045158151,0.328064766159953,0.1749783546042835
0.17,0.9798011025007318,1.2547137095412342,1.2654076327256574,0.9473048545640831,0.5770282193321628,0.5187684262560639,0.6575815944096409,0.9226229614270566,0.8800445592539131,0.709977369187768,0.2516643460183824,0.16326996262290844
0.17333333333333334,0.8432441945275714,1.226533269112971,1.226851685620855,0.9036498715288172,0.49409986379429705,0.44791163763149316,0.5794882800429875,0.8551114829896924,0.947965952141266,0.5940777828594455,0.265915303193304,0.12725608134524957
0.17666666666666667,0.8616659163765563,1.195521338484488,1.221714931616561,0.9068131244056798,0.6046676241104203,0.4260815427552827,0.5973008563920025,0.8216800070409015,0.8376042860257453,0.4431843860989544,0.21526048222447947,0.1614383275930772
0.18,0.811824063979028,1.0991312874477723,1.15244467826516,0.9251302609594535,0.44837564349273096,0.3785456377628923,0.5409315830773129,0.7036967465021855,0.5416147420377703,0.5339855236877042,0.1348189866271688,0.05334574659066693
0.18333333333333332,0.7598598188634813,1.0892493383101622,1.0662752362529462,0.8634534804608163,0.43278428985629336,0.2968783528993372,0.4390641633597537,0.6109961627265275,0.6279801101379271,0.35070989849115597,0.14118496327578256,0.012911092824754264
0.18666666666666668,0.7358681034734559,1.0382333058850979,1.0506637577616829,0.7481612360462238,0.3231306234843178,0.22776143284319056,0.507455077527461,0.642349122617809,0.6078065587442506,0.3159827160918299,0.11236087561613606,-0.07483401781375044
0.19,0.7859347134734155,1.0709456778925284,1.002457412146869,0.7054453546766866,0.2514003734072523,0.27007581871939973,0.322041049813587,0.512345497694684,0.49281695593980324,0.3058713099539584,0.05217015919508519,-0.04739893142340306
0.19333333333333333,0.6352042971335138,1.0363326098583838,0.9520674430499294,0.6805158774120343,0.2531801531947101,0.13143500495270055,0.310335514762463,0.4996491780318373,0.4262340276228314,0.11550482250839143,-0.07011288000942988,-0.16672240609731762
0.19666666666666666,0.7014620461542934,0.9594889724401682,0.9370621923915494,0.5449069321949801,0.2894479947864929,0.14548439156325335,0.31448473389318693,0.3716731055349704,0.3916174028910772,0.163501076593258,-0.04112451200108396,-0.13512686259530624
0.2,0.5516042022717266,0.9264710737280877,0.9877564640631575,0.6161206964868563,0.18769747739723303,0.12725567577765168,0.30335089443177743,0.389377152569181,0.39805103123246405,0.11771251295713708,-0.11028593509751031,-0.008950697713486555
0.20333333333333334,0.6101187698055404,0.9411012200533453,0.9239871667587244,0.5331881314777683,0.15991551556799463,0.06735396102577075,0.30947229059052295,0.447550362796289,0.28894207749390055,0.1380645948777612,-0.06823814811857844,-0.2809315757541846
0.20666666666666667,0.6341770772665889,0.8897488671608089,1.0317707448878994,0.581416142990997,0.2111271482471157,0.05922399205322596,0.264412005304161,0.3509638206249571,0.3921843535535394,0.13819956427454125,-0.11644998731699018,-0.13660887188044799
0.21,0.6616709614697891,0.8772586513277114,0.9189590234531563,0.5584985729429249,0.23759985964972313,0.09342217113135096,0.3027125946416283,0.4269608129694169,0.3261132514616752,0.1175353677991854,0.004526752436274609,-0.11770550873212042
0.21333333333333335,0.6800102327980274,0.8977759623084619,0.9048877580135649,0.6066898876179502,0.31206306411790696,0.10631764280308695,0.2324901199749263,0.2775421182747538,0.28677341420776925,0.12543793072343876,7.547145881121181e-05,-0.11737979615825744
0.21666666666666667,0.7002779018192243,0.9276502363651804,0.9334662593545002,0.6048351084781964,0.2709867859684725,0.08425513751407541,0.33372355377827384,0.3804822869652159,0.40091951043075735,0.20175904080180806,0.045470737230017474,-0.0843324669515136
0.22,0.6615507035275848,0.9182885132044367,0.9628296155417407,0.4660093531200027,0.3128024924522641,0.15500303416667877,0.3593521007892211,0.4184515703226234,0.2828888583955129,0.1848229255034724,0.07171313216467994,-0.0333496910212875
0.22333333333333333,0.6746073153575856,1.0021207930670948,0.9892856681599744,0.6505495291134781,0.3454757005876034,0.2330827746399377,0.41780785093199374,0.5344055619548083,0.349545626229441,0.19486174616970864,0.03872441392998502,-0.0125688763200563
0.22666666666666666,0.7580336882501244,1.0466922406147685,1.0876454870730443,0.6947229391048992,0.2800974477069196,0.3146483173549057,0.2860570459804345,0.4082201492076521,0.3649874054920242,0.22236502485113407,0.06323973273063138,0.04816086440965926
0.23,0.7202645113070535,0.9441012916575428,0.9548527653172069,0.7030751466683036,0.31507793612474166,0.3078327371206875,0.3483851199853536,0.5163418460532162,0.5136474945666284,0.32553028237341713,0.200405972292811,0.04616092767968445
0.23333333333333334,0.6770463726722115,1.0338483052460141,1.049039225172973,0.6894243165177767,0.33009705797986977,0.17422203040329026,0.45412913418159384,0.5463846608337158,0.379500490546264,0.25544159515619613,0.1280538056006387,0.19920091268033438
0.23666666666666666,0.6909683122797139,1.0259159152095079,1.0202134742275475,0.78497933670974,0.3330443615071091,0.3542808950034733,0.29306803908017287,0.4611943206069263,0.30598032741431347,0.22662536296086344,0.08384088569627093,0.10509984906472672
0.24,0.7042506070428484,1.05329995149204,0.929411698056475,0.7207617445334409,0.44839784550515926,0.3054114818146818,0.45536402290588385,0.4742223293556297,0.37610198961384517,0.15362086941693584,0.20810362342788033,0.15644171809140162
0.24333333333333335,0.7739125570051111,1.0301772296738165,1.0391905091741958,0.7234034236488428,0.42557546458597145,0.35989761467071374,0.4809681573687406,0.4870335417641655,0.41035445717098684,0.16462503001475684,0.16124378344519294,0.09460800687797165
0.24666666666666667,0.7520928597494321,0.948758782209474,1.0518869977236938,0.74457689583207,0.4113648898145776,0.33357999282379125,0.38867378904041044,0.38449477401176135,0.40015416718891417,0.19074810361091843,0.21577281037580212,0.16452786090183114
0.25,0.7736278937124179,0.9460061370125711,0.9296464645432507,0.6967395814142148,0.2687939736366568,0.3156101353385919,0.378546864890959,0.40670242940037404,0.4398066148851484,0.17760870632055398,0.129720920023744,0.13460915184815747
0.25333333333333335,0.7113665020491114,0.9966140412121615,0.9534466181300868,0.6166116520827221,0.48816784424490495,0.3061951974354167,0.323148817948728,0.45760987560540234,0.3541944560523415,0.11649931060148144,0.08550609637431038,0.09036693992320137
0.25666666666666665,0.735053885105044,1.0322416464383641,0.8477485076141884,0.5205221812025896,0.32498084155103163,0.29280213446606895,0.32330586583869386,0.37927958057327593,0.24553291367737523,0.11702169961682526,0.12521200409060368,-0.01744164742242224
0.26,0.7547067307422552,0.8566109500875312,0.851235214987712,0.5989187765539703,0.45539033874904145,0.3418691802897001,0.2946571831384813,0.3013853059327498,0.14009093431264896,0.022045722818442835,-0.07019919759826189,-0.044112094273941735
0.2633333333333333,0.7070094780582269,0.9729610287606784,0.9478843725395267,0.6418093605259687,0.26361956260463953,0.2540050759745726,0.25406123504044703,0.26946081016698464,0.21252520284105647,-0.046414008273787,-0.06719822346612449,0.03466287072847728
0.26666666666666666,0.7475690570975688,1.0059717426882269,0.8554141352948745,0.5687123218506369,0.28005514900088235,0.290523925582577,0.2207331674207443,0.24759781607895182,0.0595089403779658,-0.021425218570408758,-0.12733153938954647,-0.13149172225051692
0.27,0.6970820431969486,0.9323052346971528,0.8088798335252262,0.6112352905760919,0.1972218292500738,0.26640559085986937,0.21516444022376457,0.21346787198577913,-0.006828345063276509,-0.033410841894606275,-0.23621727535588705,-0.10339943677235416
0.2733333333333333,0.7201669484278637,0.9632937599570311,0.8636376346421151,0.5657670433705138,0.3146100556112514,0.23840216754753593,0.1881339398915493,0.10588213173792564,-0.04388439776788769,-0.20410751729996812,-0.12318275471814194,-0.22150098255997835
0.27666666666666667,0.729093077258046,0.8980584162382336,0.815605604149927,0.6119073282835485,0.2329221072173612,0.10394717774397937,0.2723842469649145,0.17241491209822285,-0.13123593688048568,-0.17950803396369244,-0.2308151893570223,-0.15803671779806064
0.28,0.6985853285566097,0.9250935910797329,0.8084906167326334,0.5231683517277492,0.22759689431682759,0.23957673839601792,0.1380364571399573,0.12667223549455198,-0.13366062245529903,-0.3254915841743733,-0.18885117661885426,-0.271506204757483
0.2833333333333333,0.7915766453120874,0.8467839369160306,0.8587260401059416,0.5518478013289112,0.20670803359966922,0.15278773410333982,0.15612560787825341,0.06271015028026644,-0.16025118819160303,-0.33814964151450605,-0.24078458242462436,-0.30833511583596296
0.2866666666666667,0.7494152646416745,0.8045978753264263,0.7512729688553329,0.5430092847052013,0.3078593312428639,0.2037771135871037,0.09240879140257993,-0.043275677827676974,-0.14728149320952408,-0.32417292567966094,-0.2513128562227016,-0.3132834663693054
0.29,0.7741235005010864,0.958413074807138,0.7479280276533596,0.5792240875300577,0.29637033154988013,0.11072922714976391,0.07407251551363794,-0.08116451093258843,-0.2364462909232753,-0.26531242852755466,-0.3219754499776607,-0.31805471990620593
0.29333333333333333,0.7914173971195313,0.8453349801074441,0.7794127301779057,0.4009202792541882,0.33990808206523426,0.08914153309762413,-0.0007197042638795864,-0.07581238779627046,-0.3128470073129722,-0.38647703790197785,-0.3521667432421264,-0.27910618893416683
0.2966666666666667,0.7754888942869441,0.8476224105412677,0.7920386814375429,0.4398013686539213,0.19892412418862712,0.232628356328137,-0.01576245850971572,-0.08735086649276437,-0.3625704769438167,-0.4132684417892068,-0.3227181070841219,-0.3024242471203657
0.3,0.7632069895453608,0.7684676404845745,0.7697295156194127,0.4749907519296024,0.2224191598934176,0.06667966952357769,-0.022982606490682074,-0.2124452769137563,-0.30648269932066874,-0.3962740171493217,-0.2943229283602067,-0.36616746911448433
0.30333333333333334,0.6924371178852589,0.7258606535697846,0.6307537273477266,0.4725393935598337,0.11902563458569877,0.14715511380519553,0.01657809218526806,-0.13652085391223645,-0.3505577440435009,-0.4236187146924034,-0.3569000800585002,-0.3186004855869761
0.30666666666666664,0.6345473443703628,0.7376145280623247,0.6590997119032541,0.3627633770278499,0.13238114998425646,0.06545166129863723,0.026327281308808043,-0.13821505236349213,-0.422416048752279,-0.4946905747097152,-0.4055469946347161,-0.38155091595757795
0.31,0.601918747193634,0.6519713440915902,0.5139930010703612,0.28505194393025673,0.08289152287266258,0.00284956537687598,-0.15645873995420317,-0.21922405796665725,-0.46206979929229375,-0.389037405003488,-0.44901841650781565,-0.30151959846082677
0.31333333333333335,0.4650818914017968,0.6430975034171477,0.5795125507282144,0.28102873884342633,0.08680649920422831,-0.018592275327037652,-0.13833871362733718,-0.3309619406619526,-0.4664721547452276,-0.537408629218209,-0.40016270614224203,-0.30417441024357894
0.31666666666666665,0.4160056974092228,0.5780992506515029,0.36234872897278825,0.22631086780022103,0.06573506523703868,-0.12481156002393433,-0.22594770834351904,-0.38867210968886273,-0.46600095496449806,-0.5565744583257222,-0.4617299536032623,-0.3609289955618133
0.32,0.358901196998701,0.5006214675434753,0.4143304262491036,0.1028819696885925,0.01420638876963412,-0.10529139828177658,-0.2189038415229874,-0.3870218393005359,-0.6253827652356789,-0.6217698366702781,-0.4628322495268701,-0.3621805468664657
0.3233333333333333,0.3122170970165353,0.4259900175878071,0.24443753839801471,0.07599519190884667,-0.12704188974027666,-0.20296340223348897,-0.1994423063559566,-0.4622589699991994,-0.6324169559274111,-0.6190389063396987,-0.49678166600026724,-0.3050257065732868
0.32666666666666666,0.322116034414884,0.42539853266101757,0.31029578177487044,0.06018815134321656,-0.08152007545204121,-0.20997806238874428,-0.3204743681030045,-0.4825767936681176,-0.6372624235607257,-0.6169271132539923,-0.5315636218890006,-0.4169134690131267
0.33,0.2023841441140924,0.23101180254892453,0.17701136778752669,0.04279766258514983,-0.17489047687876932,-0.1802750186615225,-0.34065312082990096,-0.520322611052845,-0.7682254725147587,-0.6296396763539498,-0.516416463473923,-0.4706779493194409
0.3333333333333333,0.1819060294276102,0.2271073056017973,0.04203466513502776,-0.05994476914733635,-0.22279838728977402,-0.24310992068257348,-0.2989563835541821,-0.5351469226118281,-0.7685570656205067,-0.7798612584300478,-0.5207685058618171,-0.40541405376145057
0.33666666666666667,0.2282098124433537,0.2412124013652314,0.0213830574141717,-0.1309949455851948,-0.2668465027934413,-0.35050234402607283,-0.3739260121315129,-0.6777263333952338,-0.8005684140774655,-0.7088774170291529,-0.4617506067873841,-0.4969451821496847
0.34,0.11819397535500113,0.21287699414736472,0.051597925211903546,-0.16167902431356884,-0.2741005113061978,-0.24453928907413625,-0.45042944816410146,-0.6322896262532218,-0.886483269471913,-0.750664713996348,-0.5265885329580087,-0.4506215715939805
0.3433333333333333,0.15633499418941244,0.054396971589092735,0.041052121515247314,-0.1460428640041488,-0.1629913276767154,-0.28779178561787855,-0.41000170486226795,-0.6740421894908085,-0.825435256749395,-0.7350124775591355,-0.48148200384301537,-0.4628713724061496
0.3466666666666667,0.06659518707376222,0.09618020314188994,-0.02864373995051771,-0.18400828327439228,-0.22823293694043206,-0.3045979190804804,-0.45483353800897636,-0.6635472976016092,-0.8358509015512823,-0.785148349435563,-0.5907727399793846,-0.4535945236338961
0.35,0.10619357037101919,0.17553386477223692,-0.026740231135480776,-0.1633246706437404,-0.21871861008129684,-0.2207385348006533,-0.3786613606018246,-0.6090469169924299,-0.8044385769676508,-0.7784263450730325,-0.6109447099171414,-0.40960999066321235
0.35333333333333333,0.07995338826694218,0.1368185737969358,0.013199324360821933,-0.21207335359155807,-0.2162446070362092,-0.23898619200189714,-0.35223744526345063,-0.589452826623397,-0.8786909165457898,-0.7036044966667959,-0.5060292813826511,-0.32458081874382655
0.3566666666666667,0.12726429359002323,0.13088270489233553,-0.00779612659492275,-0.07452852652418131,-0.050373570999635534,-0.25541292723322906,-0.41869047436816115,-0.548059287745627,-0.8001407909123314,-0.6784151302761268,-0.4317026233340516,-0.28202395962391835
0.36,0.20644212745671273,0.1234960911292498,-0.06504256545928203,-0.1728305844021964,-0.07322996689195624,-0.06758267663736847,-0.31025462095071404,-0.5728814424369513,-0.7091805513995428,-0.6201695634579221,-0.40572017083459605,-0.2558527292188506
0.36333333333333334,0.09927968296686948,0.12949862557336733,-0.025874164152545003,-0.1127110785120926,-0.13923987271723612,-0.12265034353752644,-0.2925259833436678,-0.5747053328504903,-0.6508497089164028,-0.65979740800012,-0.34558331819535765,-0.24953014992598088
0.36666666666666664,0.2272175078361306,0.17598644341655595,0.04024667126796317,-0.06296980785322648,-0.08313563685917717,-0.08932372909552352,-0.22868695032515085,-0.5584138979100195,-0.6686225841908819,-0.6478651845632689,-0.5000424138288041,-0.24514224381110006
0.37,0.23372575232389178,0.15817000213110954,0.09920313965624875,0.05105659438756405,-0.05050543891755434,-0.07318649096892361,-0.18783660707113226,-0.6131649186590193,-0.7733871310727698,-0.7423550471664578,-0.2817927845990078,-0.3201877032428193
0.37333333333333335,0.20321196500655964,0.1723207291773825,0.12339679188875391,-0.05626329343625481,-0.009086799822141977,0.03194166831583049,-0.18550266726638445,-0.44648724645755766,-0.680189952932233,-0.6831152074257842,-0.3053364053192402,-0.16032399634682498
0.37666666666666665,0.16517899081118148,0.17510561467004582,0.07847295154906346,-0.06266785976806989,-0.035979585010284205,-0.03564915358963046,-0.21282041934154527,-0.524867744092469,-0.72330148962632,-0.613705728829356,-0.3853275960721521,-0.27735195284930336
0.38,0.2384436946898877,0.12625597030240368,0.042571263908525156,-0.05977110992660205,0.02741711962809619,-0.07841847935921098,-0.14884468310191618,-0.4883249087678723,-0.6908782320684761,-0.6501061186844971,-0.26770929653212633,-0.2539047492642923
0.38333333333333336,0.19840840082241307,0.16780660787192453,0.04587304198270067,0.03883847257814242,0.07493704241196684,-0.03682316445096452,-0.24717494757222963,-0.4947075633272692,-0.7598276830392247,-0.5657551160993909,-0.30167887153756373,-0.17064139076706697
0.38666666666666666,0.21970747431820994,0.2603950134970474,-0.052847224202275826,-0.2053641573996098,-0.075845415061893,0.05190596202666806,-0.287630725498432,-0.6161033473709744,-0.8332417779421496,-0.6937564584812175,-0.30794733226954524,-0.16474244492013845
0.39,0.18643714072094,-0.007337277543200321,-0.06240955961502861,-0.14345359038516878,-0.08762124045330938,0.006577398201619698,-0.40877683081985694,-0.6346043963213168,-0.8006593265491556,-0.6848424102520115,-0.30388066732956703,-0.22595609136642292
0.3933333333333333,0.23808714496569455,0.05920443695994268,-0.13716518343739276,0.008074233910962236,-0.08364920582801437,-0.07610121716696214,-0.2879203963420145,-0.5537732883102968,-0.791361421016822,-0.722827886023935,-0.3678498435893857,-0.16083735808843663
0.39666666666666667,0.1155949824182433,-0.03726299265890548,-0.20393739842124242,-0.13903796141435235,-0.11511144129945562,-0.028970739214935565,-0.36708503641347545,-0.6655493474633813,-0.8634990809198365,-0.686022045108429,-0.5053989799659888,-0.2556900890078886
0.4,0.0444607826297821,-0.014685351442986654,-0.17289345279787,-0.2670028879259534,-0.03066350305467057,-0.09843668939806817,-0.3517917142076565,-0.7621299925105848,-0.912287233279427,-0.8275382748649748,-0.4859083469817116,-0.33715542974096246
0.4033333333333333,0.07269067960403042,-0.08591477381847608,-0.22909642235099487,-0.25802575325548677,-0.11930819515228033,-0.18912500073638513,-0.5177281186357301,-0.794175620421584,-0.97785123692937,-0.8272223000543416,-0.6087199495466373,-0.30342111432592433
0.4066666666666667,0.044115612566108624,-0.09375816104330179,-0.25188351196228015,-0.29608979959671794,-0.1605270227437267,-0.22372043030166544,-0.4985982710914318,-0.7876793289270613,-1.0239195746734446,-0.8920854144099382,-0.5439436765377687,-0.34204353594478154
0.41,0.07269305151478767,-0.11446351868304658,-0.3046073805146571,-0.2984698986454078,-0.25715242728346405,-0.23638607100195458,-0.4873532918852022,-0.8466075246418526,-1.0700884195125506,-0.9056374310812263,-0.5520401849468003,-0.43917883984957806
0.41333333333333333,0.02083877787553693,-0.20205973134619754,-0.36224264405899737,-0.2867588046484544,-0.2909558602842166,-0.3281612304801087,-0.6028562645589971,-1.0133133063720081,-1.157670178230577,-0.9520167112070993,-0.7243224564271211,-0.5427202516557647
0.4166666666666667,-0.02595562255365529,-0.19031492664802074,-0.3853494821664738,-0.39323661355631306,-0.37758361258996387,-0.31529573634778685,-0.5660424794167688,-0.8989427496445989,-1.180578231688687,-1.0330506647212852,-0.7291207488528968,-0.5633827762178274
0.42,0.008830790470866837,-0.39637597022192506,-0.450476343376549,-0.4693814714099771,-0.2895664128602843,-0.32375767938334093,-0.6434399857725487,-0.9661005687059211,-1.1307604918007292,-1.145043229166509,-0.7647101959735118,-0.6315385428578337
0.42333333333333334,-0.14278429684613914,-0.2295303343875325,-0.4596843045171164,-0.4288688302870378,-0.3232018990420824,-0.4418981677386393,-0.6401027155108475,-1.048594362697358,-1.2360193908198445,-1.0921345722472264,-0.7594462131771423,-0.5753513813544195
0.4266666666666667,-0.13395437762301368,-0.3188276405849079,-0.5462991373252457,-0.5257948117450555,-0.29860583221978454,-0.38057075085671066,-0.6257354372068316,-1.1201898277219324,-1.2583482514691853,-1.093406949802197,-0.7233971583316201,-0.6303771314237506
0.43,-0.16783974656715434,-0.3120682342945223,-0.5199717096148713,-0.5630806369210897,-0.38561546208525216,-0.39589165060038783,-0.6198579573969899,-1.0213534231963586,-1.265531461177986,-1.0821452942634437,-0.7651302718926133,-0.590125518959738
0.43333333333333335,-0.16282004117107732,-0.45648910608953935,-0.5335677669609639,-0.6190474879341995,-0.3925561036318271,-0.33622949570700356,-0.6710050339886029,-1.0586308321807498,-1.285728760576325,-1.1306376367493522,-0.7020916547460286,-0.5486713629246309
0.43666666666666665,-0.23749158676236493,-0.46896384772400446,-0.6303252241125297,-0.6293309341248915,-0.38688708409418393,-0.48534157349051904,-0.7219441553044421,-1.1600709823432318,-1.2961312979682111,-1.0287545687969197,-0.6674539232205642,-0.6426593484828392
0.44,-0.16670979915372186,-0.45548266062914033,-0.6265180781751196,-0.6174739599260735,-0.361495227942717,-0.4175929203735639,-0.7086455814207333,-1.101326394453253,-1.2603953023778056,-1.0735282457928617,-0.6476248456954155,-0.583970486865937
0.44333333333333336,-0.24445838643981332,-0.5030984080907275,-0.6957754580696038,-0.6555968298912339,-0.49213063265253965,-0.4290995924786198,-0.6585826486209277,-0.9351942003256859,-1.2910699948715496,-1.1066933824730023,-0.7383976576388278,-0.5208870082341248
0.44666666666666666,-0.3469474965611243,-0.5319206638298084,-0.7300220869961694,-0.6081401170256961,-0.396903005052756,-0.36548944540500283,-0.7474255049129753,-1.0929221951424937,-1.267896935755328,-1.0696470193650927,-0.5924711201555398,-0.47225229248211953
0.45,-0.3690089664927074,-0.5397831524926034,-0.8025851929548553,-0.7140208302012523,-0.452684191170339,-0.42664635265456596,-0.713148316290687,-1.134455807840114,-1.295965760540921,-0.9372793305417209,-0.5687312455943873,-0.46938792448815747
0.4533333333333333,-0.35119258730235414,-0.7335421175266572,-0.728656024529394,-0.8442672447468454,-0.5252560395148071,-0.34819327092979696,-0.7336439395744482,-1.153246999020808,-1.2485472577996382,-0.9892845281955367,-0.5467874666626678,-0.43560417860936734
0.45666666666666667,-0.3759831079997077,-0.6499461286146159,-0.7861727671316622,-0.7742490380767866,-0.5992994670033508,-0.42055743321677325,-0.7316533886496402,-1.0215675584745103,-1.2241894129088096,-0.9611799129292853,-0.6175097392693183,-0.43798927868435067
0.46,-0.36962994886217637,-0.7520041489108908,-0.8605307985661939,-0.7812793115750404,-0.5256528874154673,-0.49113543076237665,-0.7904724589879621,-1.0765914153535816,-1.2651772217956365,-1.0590858628730349,-0.6354304872072688,-0.45938113506220185
0.4633333333333333,-0.37381404246038347,-0.814868742876777,-0.835390825229447,-0.8226530937996738,-0.46980284127606575,-0.47565656700402686,-0.84647947525398,-1.05802774508323,-1.3572662856598927,-1.0367029366809386,-0.6380273014578587,-0.4014282757364692
0.4666666666666667,-0.5450907479068614,-0.9268949451042602,-0.9867658391747228,-0.7483597780539539,-0.47976695720378737,-0.5209278950981868,-0.7407387240221384,-1.1248539427226638,-1.229671149740454,-1.032593325219304,-0.6369503436253222,-0.376140963696602
0.47,-0.6557200609667302,-0.8711924389836406,-0.863769155612283,-0.8823852905307726,-0.5632693487961151,-0.47279647365723276,-0.728986799532914,-1.081492640205742,-1.2543442384343437,-0.9854335381893732,-0.5753717320761448,-0.37389655633020935
0.47333333333333333,-0.7455081918501852,-1.0525517327165328,-1.0577465899972511,-0.8287273238061363,-0.49504715919526276,-0.5902939899455327,-0.8732333274462908,-1.1901686026489222,-1.3086345017076677,-0.9980596157605194,-0.5274784036229422,-0.34661780361647826
0.4766666666666667,-0.6489151754994466,-0.9259361243461317,-1.056114409287782,-0.8870393369467952,-0.6005613976569841,-0.5667724393275129,-0.7662550426117468,-1.1384643579813891,-1.2150598376355697,-1.0058091184185651,-0.4969840515668774,-0.32474528018667914
0.48,-0.7161074254830921,-1.0494901881025633,-1.1017538277346561,-0.8927565179709321,-0.548141702743639,-0.4976400901554307,-0.7251874299517298,-1.125260716956502,-1.3133924081752186,-0.9876137798909947,-0.5763495222587831,-0.30348649012531137
0.48333333333333334,-0.698810481667032,-0.9783719952789043,-1.0662924958364233,-0.9277158009820146,-0.6073550526308186,-0.4463156641185221,-0.7371062850358179,-1.0569587354083767,-1.1751400511905912,-0.9924007578314437,-0.5401066897085426,-0.3584614847139069
0.4866666666666667,-0.7009823719616868,-0.9830604493207483,-1.0364244546748407,-0.8750742047349854,-0.5911521661465571,-0.5971790391865375,-0.7680554236886592,-1.0898010579938846,-1.2080405386055526,-0.9396998456305119,-0.5251982268755143,-0.39135034213410613
0.49,-0.660502093522287,-0.9055048039161713,-1.0682968719750872,-0.8882207753724557,-0.5722288014032982,-0.3906788398272275,-0.7679017993647477,-1.1101597566375443,-1.2903393519122255,-0.8477605950849627,-0.5291042976349204,-0.23096928140103484
0.49333333333333335,-0.5756067944979597,-0.9521540360052599,-0.9507166069880135,-0.8123017974730226,-0.6078685708905018,-0.43270556563075846,-0.6843580141500956,-1.0431383588996288,-1.1343408095248668,-0.9469963868575301,-0.43375194178823007,-0.25359529425139504
0.49666666666666665,-0.5909690879457095,-0.9515805364189032,-0.999080971924393,-0.7983484993664529,-0.4023169642791776,-0.48182067294009634,-0.639387001202404,-1.0932959751735618,-1.1257549383056187,-0.8181447315937618,-0.4222545188331153,-0.29585494951421293
0.5,-0.5736171668011728,-0.9126996551591523,-0.9659051608250112,-0.7966908884048721,-0.45812177634918194,-0.4973550062419092,-0.6079920825738598,-1.0861308148528768,-1.0929379878009842,-0.7282618134236889,-0.4010867637588179,-0.20749012716009224
0.5033333333333333,-0.5839443286881485,-0.7937050377210567,-0.9927756060054894,-0.6625214391724854,-0.4254846232696152,-0.38345909794604727,-0.5826811023120325,-0.8887129085756234,-1.061064331839272,-0.7677000948085045,-0.3575988525750336,-0.14067435273572715
0.5066666666666667,-0.5846486866668782,-0.8026610796714726,-0.8964486012486321,-0.6557757725840583,-0.4063448435701463,-0.2702575632632317,-0.5909736133895507,-0.9110870055736634,-0.9912139163680743,-0.7477590277911775,-0.31350614601046045,-0.08147282426580957
0.51,-0.49873605739637117,-0.8255288368118756,-0.8987778335431036,-0.6693608063045202,-0.3245228580392209,-0.23982678151863052,-0.4834993530413975,-0.8716366563835387,-0.9735638137536913,-0.6414576411522767,-0.286162130814903,-0.13225506838383716
0.5133333333333333,-0.45748467753766675,-0.8016407201443011,-0.9040279008228185,-0.6165548200463395,-0.20030318277525158,-0.17927659059834386,-0.45564336816341633,-0.7894686964840301,-1.0123982717602154,-0.7087775726438769,-0.3357892763755661,-0.07345239150980362
0.5166666666666667,-0.3552527011029234,-0.860209864295334,-0.9025192868001488,-0.6136585520424103,-0.1669271943088964,-0.22171559504681693,-0.45220495964880997,-0.7415838091994301,-0.8337395284315389,-0.6398217913415404,-0.23339532371783217,-0.17496063161347894
0.52,-0.4354677005427164,-0.7639778646338495,-0.7298336894228541,-0.648399892047983,-0.3479446165707055,-0.24305232593741538,-0.4494854791809295,-0.7743308752385087,-0.8961030952821059,-0.6782697496734811,-0.2579506654373582,-0.11195648022205937
0.5233333333333333,-0.40098821626968767,-0.8828462741345271,-0.8864039320520977,-0.6074450043281132,-0.2865779103190617,-0.21237618337391975,-0.37418291476808896,-0.7041016042741008,-0.9164477419032411,-0.7165346527973607,-0.2938400188356563,-0.13098591824836364
0.5266666666666666,-0.492706584481698,-0.7783235510792095,-0.9657110245545508,-0.6581495858156236,-0.3350203572727355,-0.20463915931696702,-0.5027023758873228,-0.7846042952572554,-0.941667545698766,-0.636602081270375,-0.2707865843217335,-0.10975291651854416
0.53,-0.5531150166117469,-0.8391986109042543,-0.9563060574661197,-0.6997611258884501,-0.257963491776585,-0.2190792293473558,-0.4301949981170466,-0.8129151309890358,-0.8608651966319297,-0.7067637407228343,-0.28413113066018897,-0.06709337141056784
0.5333333333333333,-0.5752649415685076,-0.7631524400079279,-0.9599029876314316,-0.7668572629335326,-0.32527753537672616,-0.30261630370011044,-0.5617734684905767,-0.8419724729078184,-0.9859247265200899,-0.6661419714648105,-0.2734261879395897,-0.16298563937773483
0.5366666666666666,-0.6015348358032959,-0.9795962251501941,-0.9713521511960739,-0.7426595165724601,-0.4098207828491253,-0.2568819685544437,-0.5064864137699593,-0.9499826944490303,-0.9414735711928556,-0.6373315538153594,-0.4115512155766075,-0.2556064402168332
0.54,-0.5001076390738073,-0.9748239519138603,-1.0154688897096502,-0.7388803097368819,-0.41655678114468997,-0.37570724175631665,-0.5408135899839788,-0.8730228138762436,-1.0077788427040266,-0.631191170851538,-0.32809277063635056,-0.3084397183608453
0.5433333333333333,-0.6896570024933166,-0.9255856971518591,-1.0546663084130492,-0.8454769178703461,-0.4875219252589253,-0.43211308151601513,-0.6587643227486938,-1.0790020318358227,-1.035952669099164,-0.7507849418302492,-0.4291420147833865,-0.20038846768937763
0.5466666666666666,-0.6474329407130387,-1.0002236882238833,-1.164448949687264,-0.7267909468758402,-0.4251411926802677,-0.4584383637844432,-0.6011219105241028,-1.0200589800009618,-1.0939204524660138,-0.734118078985337,-0.48977675199590415,-0.2926608407579239
0.55,-0.7721667183731226,-1.1354016363206003,-1.1551928017548656,-0.8469465965287486,-0.5170911112745633,-0.4165256105665357,-0.6966909747347898,-1.019167096453293,-1.094203856710486,-0.7902043033227952,-0.5210859782609258,-0.327307493879114
0.5533333333333333,-0.7135728683542975,-1.1251000120950254,-1.2505778795400415,-0.8588544808142784,-0.5439075739142616,-0.509998956549606,-0.7936933883631553,-1.082653463501082,-1.0802643291085807,-0.8474912679100728,-0.5673406484161269,-0.3915831150822484
0.5566666666666666,-0.7685638803705914,-1.165705754318664,-1.2656040414213892,-0.9101796286629428,-0.7365461369913808,-0.5636747705317504,-0.7902007325266085,-1.0800755175301526,-1.0776534450813717,-0.9339433112834028,-0.6186267578970404,-0.3770317899798989
0.56,-0.8174233569245432,-1.1744489097076811,-1.30093044005892,-0.8753566904544036,-0.6242182607716802,-0.49965866010279913,-0.727327495443856,-0.9700676249089921,-1.1272993831662248,-0.7555661622616305,-0.5018870538033867,-0.4456918434091951
0.5633333333333334,-0.8276489105799146,-1.2394410056364789,-1.3273268094546913,-1.0173455801875955,-0.5259190607062707,-0.44681692505444126,-0.740562680625853,-1.0010078266119478,-1.0803889097754842,-0.8776264502932788,-0.4299797710462655,-0.3719736240468011
0.5666666666666667,-0.8692057308714521,-1.218650933298339,-1.22040695642558,-1.108290391854877,-0.5647433995200604,-0.5426122445404196,-0.8327605101087698,-1.0743582005397325,-1.0084753104790765,-0.7333697947056718,-0.5921763444900601,-0.43400743285702975
0.57,-0.8208376678318834,-1.2984111529263356,-1.238623975066216,-0.9979150643912977,-0.7169366815754294,-0.4824525435285829,-0.7710785338970239,-1.0377828097235116,-1.1029855779613182,-0.7426961960449462,-0.5306921195382944,-0.36666398347393114
0.5733333333333334,-0.8696298062727649,-1.2119609406152416,-1.218623403344767,-0.9373885319926567,-0.627586393857948,-0.47653521348412486,-0.730555434657936,-1.044021689038134,-0.9782747534613477,-0.7763004562123504,-0.40829951192614633,-0.3449964160414845
0.5766666666666667,-0.9103264905032475,-1.1937173663724432,-1.2563146528992006,-0.943254663716116,-0.6546756614192323,-0.5375578074737695,-0.7367276768528012,-0.9041024808010646,-0.9764786780534763,-0.6625418693170613,-0.40345744585826937,-0.4323506444760951
0.58,-0.9148607691341644,-1.2238058036122739,-1.2082057309520007,-0.920045278313044,-0.4887902090131808,-0.48142169573687293,-0.5599591619054745,-0.90630232996913,-0.9274640777219924,-0.5169157223089793,-0.30948261356447143,-0.23810492858212484
0.5833333333333334,-0.8451482714778529,-1.2894052993448875,-1.3232482705659365,-0.8497892896619733,-0.5406434351729242,-0.520735505645278,-0.6305173571552811,-0.9439689313701863,-0.8047756341311424,-0.48926097383132716,-0.3034089682406028,-0.21407101028368758
0.5866666666666667,-0.7793689396680277,-1.1564617367143066,-1.1807360554414692,-0.8791498027259261,-0.5700718807275715,-0.44080043936182184,-0.6093674625189318,-0.7918343119335127,-0.7873623461296779,-0.533518263413434,-0.273963548633245,-0.12757497162453493
0.59,-0.8570352356428719,-1.1865560337789178,-1.2051588267723836,-0.8421802497585436,-0.5103635736990575,-0.4373434602253445,-0.5121697930174742,-0.7273652443428114,-0.7644727682071857,-0.48680693598570424,-0.20458208366575464,-0.06683766799596354
0.5933333333333334,-0.879820087471029,-1.2418337374682336,-1.1746226855919195,-0.9150732110853276,-0.6252481563058909,-0.4042578185760669,-0.5580358271784306,-0.6562758828416124,-0.5838586851388984,-0.39282105483973184,-0.26445858390935223,0.06757378452503417
0.5966666666666667,-0.8701030095028315,-1.2219038897228278,-1.180736830679373,-0.9111084120411909,-0.534749733603724,-0.40289283717932234,-0.4609080907988841,-0.6669129191674197,-0.554619188393954,-0.35740171291136336,-0.1598240249055153,0.034817372338657
0.6,-0.8303355701755339,-1.2861308652853518,-1.2441511852340605,-0.7658641787726906,-0.4670319761398587,-0.364360813212417,-0.5699287691229609,-0.6448939595045695,-0.6525900641538913,-0.245957800684681,-0.01876408537078489,0.06985735790500126
0.6033333333333334,-0.8953779400578487,-1.2653938537132505,-1.2651677469249274,-0.8330336505094664,-0.4171236304861107,-0.31097297014830017,-0.4880692786513531,-0.4941600648096755,-0.5900025399796027,-0.23160797902878455,0.023224458713906507,0.10411190268131539
0.6066666666666667,-0.9355794247506394,-1.2424960642588745,-1.2205469485840568,-0.860978749709915,-0.5483230435485688,-0.33334676377280603,-0.39473925026960643,-0.5640729703252704,-0.4515171155151345,-0.32142896768366064,0.057214378250937184,0.1417453794504645
0.61,-0.8647966883459999,-1.1526460758967745,-1.1492174835549243,-0.8515877241378779,-0.4622933016709313,-0.4115167251263856,-0.3524785002265385,-0.5021927663793625,-0.46415609546368425,-0.1869862941152964,0.026341374790168383,0.1329190198281526
0.6133333333333333,-0.8986305875078902,-1.2400283611095833,-1.131920400785671,-0.8412916105342683,-0.38356074295076037,-0.34641859863347113,-0.4542366148163054,-0.5406009524229561,-0.34630399976820436,-0.19576495054240875,-0.09593403047963915,0.13060987966441542
0.6166666666666667,-0.83683017199881,-1.1642749390772769,-1.2189542661443424,-0.8289461891565211,-0.49498247672539114,-0.3745035444150428,-0.44414696914247287,-0.4549726181238118,-0.36332790153376343,-0.16430455149661727,-0.0057746264195400465,0.1540553787846442
0.62,-0.8906785978870244,-1.2047231145048365,-1.1779152429947615,-0.8376142223907528,-0.3957649354852035,-0.2731937752936652,-0.3536461453923684,-0.5372036292550688,-0.35202898139663646,-0.13410217335703353,0.09934639680516344,-0.003649337318770818
0.6233333333333333,-0.9395208407740757,-1.1397044477582068,-1.136893996112952,-0.823034942843509,-0.3843886707594274,-0.24362953049110764,-0.39279815123571926,-0.4604686239822584,-0.38976354477925407,-0.06668525800022246,0.1209178887345454,0.22014759590066996
0.6266666666666667,-0.9175161506865195,-1.126247276544181,-1.0839258908175247,-0.7266750645650488,-0.2776940871408649,-0.2353688413903705,-0.3512882459044525,-0.4678809614674974,-0.2835910464505421,-0.056337342747122085,0.11537993153045387,0.1934964348132585
0.63,-0.7304322208291327,-1.0359546438651959,-1.0933760428077808,-0.7101047670012844,-0.34600640042013914,-0.2628916606657762,-0.26658080777493526,-0.4045395321870666,-0.33864268660113667,-0.11902989421741941,0.04477027256447465,0.12470052038892303
0.6333333333333333,-0.6849984645689122,-1.061261890709478,-1.0504448162575892,-0.5840542771395856,-0.3101373570663649,-0.18284473196100012,-0.3066962647537099,-0.27533132938338833,-0.173292435827125,-0.05809196700860655,0.0030710710618920833,0.04539047971254877
0.6366666666666667,-0.7344651769220334,-1.0641741999510255,-0.9708280513480994,-0.5804251558437482,-0.22294034289206008,-0.18760314919283716,-0.3441016610839255,-0.32926896777040077,-0.17843432511981477,-0.04856127647512999,0.08084361744371193,0.18151972303251304
0.64,-0.6972177041768074,-1.0038098422418187,-0.874019276958007,-0.535901601900141,-0.2947364091172384,-0.18849825264098616,-0.27561346287822064,-0.22171192353766864,-0.19978677165416758,-0.07906827240437538,0.10046108593681238,0.0939651313027817
0.6433333333333333,-0.5582114382596678,-0.9108916030204118,-0.8863119529905658,-0.5408386129374874,-0.2026352916865832,-0.062230086753108614,-0.17467510861881272,-0.14022222090301645,-0.07645724704777762,0.03192343061542948,0.19649498751284478,0.1651840531777629
0.6466666666666666,-0.6429767566761682,-0.8991304034948193,-0.7846481015765692,-0.4668259825276676,-0.18000658617898585,-0.028288130219149103,-0.23457013605929558,-0.17699108596453691,0.03667946486560675,0.16195775164534748,0.1486780583126686,0.0854513220556916
0.65,-0.5941586793291498,-0.7736264245921903,-0.6823455607480943,-0.40451975656879513,-0.13427829036012842,0.004349178648676039,-0.12590708625750302,-0.0882162498781982,-0.04712267375279507,0.014955822822765502,0.1564531104710198,0.2721055119103152
0.6533333333333333,-0.48655678299324495,-0.7819852833854365,-0.7635986124946716,-0.35518744194545704,-0.0613739039543035,-0.05326166454416645,-0.15546093060027982,-0.0780729490941678,0.02670486397206701,0.12719631056593142,0.1754628964507765,0.09860813549762215
0.6566666666666666,-0.51684882194229,-0.6132206237972244,-0.6804758322871178,-0.37231922636322823,-0.06043899121832296,0.04901694066422484,0.01468469488982349,-0.07142735167901121,0.007848566375942546,0.14903020740832829,0.20441727767138718,0.18150596965601468
0.66,-0.4858760868031329,-0.801821514816116,-0.6000226658908347,-0.299563182857272,-0.11890093999333579,-0.03018216206503092,0.05173590195107872,-0.019378795846408975,0.057650938192606,0.18410147021888817,0.22367881830833558,0.07549653113868082
0.6633333333333333,-0.49274722440216134,-0.6978584822702489,-0.663171720990548,-0.348745619876709,-0.07741848128610015,0.022632368973051868,-0.1069882391140019,0.047779113366171216,-0.005061766709821794,0.13312362135185443,0.158525752046138,0.1784029489086927
0.6666666666666666,-0.47675575271718323,-0.7673610296641713,-0.6715806803628417,-0.31466152967747435,-0.02184335413026263,-0.049041268570865826,-0.04715163543256092,-0.07117834033752021,0.07997352432470611,0.11493211191096382,0.13834573872086536,0.15287091938293423
0.67,-0.4413972835269242,-0.747396355461778,-0.5940770949789632,-0.39262196798068094,-0.15857209444132697,-0.05634385475109503,-0.12165666749834272,-0.08963959422667793,0.08505002480491061,0.11583332527398968,0.2504424029726756,0.2194706075926841
0.6733333333333333,-0.5328233040779421,-0.7346629561527108,-0.6840858108404074,-0.4797611337905621,-0.13748945713844307,-0.19471513149874953,-0.10925829147345628,-0.10110417967383521,0.16983396004416343,0.24436482451973596,0.08544652273578245,0.12514285867433447
0.6766666666666666,-0.5360584600905121,-0.8821542732261048,-0.6351783711608394,-0.40187413226729524,-0.1872983360013238,-0.12225133281898137,-0.02851531421329548,-0.01353544072227112,-0.017202349635871347,0.1175830330096082,0.2310756248165457,0.18350425584434105
0.68,-0.7045301763339525,-0.7808827320921167,-0.6932443584952875,-0.40793258800330146,-0.21646705117692305,-0.1387941365407209,-0.16946025342261734,-0.02227207491210465,0.04877411638944355,0.12830038638687805,0.033116121392577275,0.053386804458520155
0.6833333333333333,-0.6384707701528942,-0.7244644878543062,-0.7561410772445661,-0.4444477586471366,-0.3307006227532414,-0.20017936492694882,-0.18792442159391073,-0.12112826865549903,0.11737223377669896,0.2448815431550318,0.07866919333305314,0.0682309808718416
0.6866666666666666,-0.7098705829400485,-0.8665828198752656,-0.7366756339276863,-0.47855592065184316,-0.21198360675668754,-0.12568835070138287,-0.24571727684933886,-0.2141527120491593,0.033327194467554264,0.09144324369395286,0.1377315133934021,0.04876778096351618
0.69,-0.7556116445760124,-0.8501974124924677,-0.7611645375250656,-0.5384529878822627,-0.3495526816277864,-0.30039592928618797,-0.16121240479043492,-0.1492459614366839,0.033996676185964525,0.13824312124084054,0.07463817020864438,0.0701188813027987
0.6933333333333334,-0.758831253613836,-0.8241171564448843,-0.7353917253073331,-0.5754301737936415,-0.28056872029160174,-0.2919284805028837,-0.3943330287722759,-0.08912951390286829,0.004936157090040333,0.17389000191265924,0.0006167911220039818,0.053208453419812424
0.6966666666666667,-0.7436834004005971,-0.8870584759612105,-0.814172425067502,-0.512569348507133,-0.3749326260337312,-0.32136815031268173,-0.25685628641005237,-0.11191285715162777,0.012701916750570634,0.1794699703805036,0.08769970161003643,0.06807620033760464
0.7,-0.6841426069789208,-0.9017508434365664,-0.7750314688497177,-0.5137675919155621,-0.37690269043683966,-0.30636001548230263,-0.23020094249469386,-0.08138078494995125,-0.009241641911439682,0.07980038765331172,0.07909761165019577,0.05152262280644409
0.7033333333333334,-0.7898661351175986,-0.9703468163431761,-0.760125935624901,-0.547480847517092,-0.2759892506933973,-0.21775342970647144,-0.2431934272270039,-0.08752397859496953,0.08395486900148427,0.13881137642424513,0.08447384345716263,0.08726248848091393
0.7066666666666667,-0.7066371142496862,-0.7986997128362985,-0.6916921691604274,-0.43794213346320643,-0.2673952148171978,-0.1758121198375187,-0.138334469572246,0.029187432435175027,0.10993107069603841,0.22812011054575695,0.09383789480986446,0.0352383996896001
0.71,-0.7089409324155037,-0.8018397816637782,-0.7387890618171855,-0.502029067699415,-0.27736052415971096,-0.25518715109951784,-0.08270557321813371,0.045523195602848975,0.21918139869869827,0.3577265177990645,0.16267606385624508,0.13487355483321387
0.7133333333333334,-0.6710085800442014,-0.8048973404363009,-0.5895125015333882,-0.4434522338723227,-0.21212055493294313,-0.21819062562993696,-0.16603599011258607,0.11621208430159209,0.23630467663864052,0.2798986838861697,0.1830278734264077,0.23930859729394632
0.7166666666666667,-0.5694166009815669,-0.7004335504347345,-0.5638960548499531,-0.28261958634182094,-0.22055426874461626,-0.1951554488794368,0.06335613379579341,0.16007932808718725,0.3207224531083952,0.35652463880306856,0.38806806892260537,0.12473934021285925
0.72,-0.5544861453198863,-0.684838306131762,-0.5959909981328227,-0.2670858184181153,-0.15825370076763068,-0.022858763874431517,-0.053917489690635464,0.24796592409217907,0.3953716751517297,0.46961957766194423,0.3127605572746784,0.28715368990904405
0.7233333333333334,-0.4751341052280784,-0.629363622783232,-0.4108768811746924,-0.27263880749366787,-0.14071926128807327,0.018969870652697333,0.14219578242332132,0.3161300668275262,0.4905313159957337,0.5486639076043686,0.366105696179472,0.3520657052384928
0.7266666666666667,-0.5108196983742945,-0.5201882797622104,-0.30097555905464135,-0.1849121536019897,-0.01262442487752441,0.008274952952111097,0.1452230906152645,0.3174928164916546,0.5404961434574653,0.6196503053073672,0.41665440842667295,0.4456705075263211
0.73,-0.5008621911233021,-0.5668517393225116,-0.30599970337403026,-0.13834063314820405,-0.04515681684089225,-0.008231044200045515,0.16962303787140157,0.45003934784638755,0.5843110379869219,0.6076057222770532,0.5878139815257953,0.45951703337839833
0.7333333333333333,-0.44310291303617316,-0.4000666678194225,-0.23156666366498502,-0.23398186025943046,0.10692033533826092,0.039713988640424705,0.22651485397896043,0.5331134803686006,0.706430361756138,0.6816295114410369,0.46616946251631314,0.4726525010423722
0.7366666666666667,-0.3890252835587928,-0.4786136198681259,-0.24980381958661296,-0.09756074590947722,0.054572911264082966,0.1511196482995346,0.29103279656921105,0.6064318644821117,0.8127361771340903,0.7694669721628729,0.6072386809202005,0.5253885618111339
0.74,-0.3649857235621459,-0.4021795139374952,-0.29303628975437523,-0.015793549526699924,0.10293125198984676,0.2008056462086084,0.3414089407088133,0.6164806295183813,0.8142555204632169,0.8631035924552758,0.6090470781019828,0.49375788392873265
0.7433333333333333,-0.403686954129625,-0.2369613258515728,-0.26267267062020655,0.0024012577038138028,0.16506854460271328,0.09371290504489743,0.3154150935819088,0.5857666415062032,0.8164554716218029,0.81951040546771,0.5714329228422587,0.5272984116176326
0.7466666666666667,-0.3227575936311042,-0.24385539083103816,-0.12225425676378436,0.0610428026189877,0.14761530167894318,0.1978507519589038,0.37250658374963497,0.6232749425975801,0.8705774328290434,0.8518846615731206,0.613001527570822,0.48552403329009364
0.75,-0.29473532938512736,-0.26447934399360995,-0.1322297943071778,0.12948385626344958,0.145718042479906,0.3057242560978698,0.36152272375017375,0.6640260119423158,0.7952945712632191,0.8139812618372381,0.6714797739871251,0.6222294241954157
0.7533333333333333,-0.15892788950768746,-0.2863158545135359,-0.11785675645142793,0.07831504376652766,0.16939113997997074,0.2200007549245393,0.34939217874140654,0.7104816613656699,0.9043958708569256,0.9625740571526017,0.6055572871066606,0.557049332246775
0.7566666666666667,-0.1681445837516135,-0.23519426348002506,-0.04532429923392298,0.06130376559443933,0.22334533150503114,0.3080338955182575,0.37507276167405473,0.7049070513463982,0.8988752792041524,0.8746952074184965,0.647980724286634,0.46813360574539176
0.76,-0.27925377133470575,-0.17283495998180892,0.01923872582568797,0.14999505626122067,0.15220965221820493,0.2668306644225531,0.3615625432026384,0.6613308398841286,0.8755167593099382,0.9137356324426668,0.7027024508786702,0.5016376067383236
0.7633333333333333,-0.22215832892593051,-0.13977006227988878,-0.051749511449679764,0.13797391889642568,0.18602969906055694,0.18063191620671412,0.4001233800982116,0.6657584947898102,0.8855133741192847,0.8514865867736271,0.6031269659618216,0.51709195238383
0.7666666666666667,-0.24831736398171908,-0.10812365809293592,0.03341750398242196,0.16898034976144574,0.20125531877246425,0.22161355425592433,0.44522970683386454,0.6218923051301691,0.9029435878506235,0.8436087023266858,0.4994608937220663,0.4789518836615463
0.77,-0.16822543301589132,-0.06368601555763187,0.16922484944603267,0.18715816557309156,0.2545473932453252,0.233117774720696,0.43368638021539585,0.5766196660900974,0.9743648842159406,0.7546173134624828,0.5084207042793804,0.3543056024188061
0.7733333333333333,-0.08316591607491318,-0.028379413102450776,0.08062456202329313,0.34140028587140175,0.21941925807425147,0.19769488547409622,0.5327535344107693,0.73395774599149,0.9827631271252623,0.7146982464844716,0.5177717007295431,0.21830705747539758
0.7766666666666666,0.003383281711042768,-0.04302129059113624,0.22074360885897484,0.1470793501518884,0.33031091624429,0.20515607651074758,0.33255427014065436,0.8672164314991532,0.8880394925403499,0.8806935985182134,0.4995083192803952,0.3733377351832355
0.78,-0.050438048583262333,0.051031856958601046,0.19708483949772054,0.27095345522507397,0.24936723749505718,0.3395143037713355,0.47808295436087744,0.8544526343981653,0.9179427983960724,0.8215683511059955,0.5142327414115565,0.2928672048496293
0.7833333333333333,-0.004582926739610721,0.16987145476978777,0.29251800929203575,0.3217236614805158,0.26344956253812557,0.22724982284840406,0.4683767636483787,0.731444994746791,0.9314974902025565,0.8312019064439067,0.5163144777790686,0.35731672694379085
0.7866666666666666,-0.039818609614822184,0.100774919867447,0.3622549179973201,0.3132406142757739,0.28449270766601753,0.3422830616523239,0.5232159998899271,0.8051121938073845,1.0110950650443127,0.7647685443697183,0.5854457614070241,0.36780042689528847
0.79,0.09427344947515552,0.20075536841326613,0.3831936317435403,0.4249730163150238,0.24305406427692108,0.27775511053390384,0.532349461540116,0.7420504195311463,0.9935837291326424,0.7906284057044741,0.5003210126142645,0.3744376851180304
0.7933333333333333,0.07787471820498643,0.20461761346896398,0.4253107122751718,0.4440928773328878,0.2695623252196531,0.3070935895918123,0.5007481614292957,0.7664536159232849,1.0066091703123843,0.8985031014583466,0.4467234590350941,0.407767696025202
0.7966666666666666,0.12544930866101495,0.2794939099195546,0.34961182183859446,0.4189087804644055,0.302722275661935,0.3415286738838087,0.5271714433714992,0.786776101114067,1.043110753607226,0.9417461069330475,0.5667859053164942,0.38612002235995596
0.8,0.12040927023910376,0.2748014743956482,0.4828376332889455,0.41903125889299264,0.3882039083067027,0.28375252762881337,0.48681863437725087,0.8465985968273315,0.9982433546621341,0.8314917899515607,0.5766127137450129,0.416156561089039
0.8033333333333333,0.16290616248939707,0.37996052347219544,0.3966075008802741,0.43107199885206665,0.32557617870067984,0.3367842522740413,0.5553202703471547,0.8556981446517514,1.1044544103479594,0.9013027010090955,0.5278399574448762,0.4012931580388148
0.8066666666666666,0.07439012031200666,0.3349915988769744,0.45649953338979593,0.4283426198873499,0.2923483292672886,0.19498625544531722,0.4260515577418899,0.8796027681304265,1.0401324344810698,0.8789499416950131,0.5040881794444898,0.4074876353717668
0.81,0.07576123338753306,0.2401396541783289,0.4535758692782613,0.4199307699349306,0.36120055374860716,0.30269291281694455,0.5490510977722989,0.8974150689232602,0.9969150216155497,0.8612810216338918,0.5445693728498323,0.3313697160193609
0.8133333333333334,0.23607742647536684,0.329225840774234,0.45617064507547295,0.39919015792238555,0.35564454691764935,0.13597348415393046,0.4947545945545256,0.8402825307150543,1.0235034195321207,0.9539575994494398,0.49661766904584487,0.265225496102491
0.8166666666666667,0.041402002535740764,0.24261626271764097,0.4358851140467841,0.4020571470058478,0.3154694391741149,0.22336151051346775,0.453888847300501,0.848336809248642,1.0883820580757848,0.8294809236862997,0.3951346075118903,0.44723128394987666
0.82,0.02511626889189717,0.23620460217510036,0.36200355303416387,0.4060846935654275,0.18296656040684312,0.25107720392025545,0.44713968053574893,0.7791470204668112,0.9950425111795879,0.9026747344452865,0.5146405292992032,0.31740386574401536
0.8233333333333334,0.14658854566652657,0.2649757254229805,0.3223050289396457,0.28635628048869277,0.17427710929370682,0.21355067149264118,0.4314215546335835,0.7535599273428887,1.0525537972190662,0.8472903986723908,0.5185991429795893,0.36552005837654417
0.8266666666666667,0.17799880618291833,0.2120098373575248,0.42195931147928006,0.2776508319646074,0.26596236080515384,0.09420242425152567,0.48702822571657745,0.734353472821834,0.9636323203111953,0.815667059635482,0.5340017113887222,0.2663891428911836
0.83,-0.04216279524720587,0.27405898612132473,0.3815017169746405,0.23027833187851265,0.16865779418823917,0.08213271982778275,0.5708781819299321,0.8338364614248882,0.9493587197098903,0.8758695880157571,0.41543931311728416,0.3334051533362136
0.8333333333333334,-0.010543054627805509,0.19112854583627323,0.43097118624636827,0.3558284665277657,0.13167945862905567,0.09447836524663902,0.4634317081104701,0.7819712737625543,1.0180753937395415,0.8167136195470343,0.45701912967012603,0.15730429058795647
0.8366666666666667,0.025811442656527,0.20860587840567552,0.3816350280730435,0.3287712728981461,0.1782271595447895,0.13496020539113518,0.3752132537826054,0.7098056216658236,0.945111711481358,0.7980214461347185,0.45701931683472946,0.2578545089536081
0.84,0.10646325183667249,0.22674437307344888,0.3341366453228504,0.35531045860417093,0.19983712092587427,0.03036914566704456,0.4449609829757351,0.8128541883391642,1.0410704197578065,0.8793147022900111,0.4541768885297236,0.27794584107248915
0.8433333333333334,-0.007247028214973271,0.2619784202623289,0.483793129577835,0.2828649427089843,0.13847048187353056,0.1477305773517793,0.4666458533082609,0.7749669309875621,1.0367180321632445,0.8878578307880993,0.468026931666116,0.316942952951623
0.8466666666666667,0.06231722395275076,0.3862821174853438,0.45834460331752225,0.4781434717477959,0.20580670057325257,0.19036172465362686,0.41565967485497773,0.9505536425849848,1.0027541586894957,0.908217663821779,0.4838184785809233,0.3651088850148027
0.85,0.15533232706748717,0.41319109883116695,0.5446584452100537,0.402350949811202,0.27830469278613995,0.1961950911668042,0.43649536909776204,0.8767696643611205,1.0776710215342808,0.6836330057827438,0.5191413998771202,0.28097491151549375
0.8533333333333334,0.18788774956020296,0.5254463295614512,0.5536190233508819,0.4928953767426239,0.21895211669115472,0.2798788558485813,0.5412830115497679,0.9847043917325822,1.0949132247071685,0.9360109389425139,0.5781122981706803,0.3984849621248599
0.8566666666666667,0.20277153388316532,0.6172221548444914,0.73229971378697,0.5846257737925862,0.32838732002151627,0.31378248968220523,0.6351029153316692,1.0548761546615273,1.1854398903885466,0.9650025566488237,0.6390138789374705,0.46085838204551277
0.86,0.2737143766497195,0.5194884461039566,0.673580071683306,0.5532739709140254,0.3262434070329396,0.32781526389305643,0.5673983428363846,1.0050641798015536,1.3103356701563218,0.9953500515917267,0.5795046818025886,0.55323049539509
0.8633333333333333,0.2714156461525351,0.6424779267256324,0.7684917163562647,0.6366865921339498,0.38772173559749884,0.311067829775577,0.6655967236280161,1.1090027517401229,1.2451689876092966,1.0701533107887158,0.6481029977739355,0.5078411343588719
0.8666666666666667,0.3865324023780888,0.646322094128963,0.8567366848440514,0.7323638986729922,0.4617516368112396,0.46550857974991156,0.7816114682669263,1.1825940881246646,1.3353212597361448,1.092566284308697,0.6725673748729859,0.4838791495671381
0.87,0.4397621583948641,0.7283808263347091,0.858414430247251,0.9212398787921416,0.5623149288938538,0.45756362551094254,0.8015012401283808,1.2051610174595382,1.3493835667283114,1.1480744631051416,0.6974989351390676,0.47297290322116303
0.8733333333333333,0.5139098326305251,0.7919249513029778,0.9848397236493345,0.8418235735230654,0.5642649673717063,0.5158485806785426,0.9094717675650293,1.2543293419577055,1.3811753171253836,1.1278966698809076,0.669890852335955,0.6508510075133347
0.8766666666666667,0.5170520917358022,0.8193595764130235,1.0962951901339286,0.9472942741888226,0.581492659462489,0.5996551192559136,0.798300054923914,1.1972322448451551,1.393903141823155,1.233868158536337,0.7677286862428634,0.6103141624220924
0.88,0.6034947752332446,0.8601885890845229,1.0297048718817665,0.9582291751655638,0.6405498512264154,0.6676821241064111,1.006391241295067,1.308092048640185,1.3705158331886969,1.2047502619394022,0.7958307967436421,0.576226770713727
0.8833333333333333,0.6581070165975288,0.9376752810128306,1.1033256272879628,0.9376648982090799,0.5947108264596335,0.6056636296293053,0.820894626231512,1.261338336754823,1.4297006387961386,1.1882180556033617,0.75821128836011,0.4892387457891873
0.8866666666666667,0.6356786723596445,0.9080513671338873,0.9665327276468096,0.8816989398891675,0.6777876858357483,0.6357789907953748,0.7945203367807181,1.2969894286876789,1.3863931705925157,1.1694689749186267,0.7482938251166418,0.505480678461634
0.89,0.659723515946599,1.0277526264722423,1.1144277465049273,0.9874287370584991,0.7081953828349407,0.526881303609317,0.8811261687052925,1.3087108188305707,1.3324903650687945,1.1753965959125554,0.7417302138162367,0.554898552902075
0.8933333333333333,0.654091687871273,0.9505604266524692,1.1063168672857264,0.8555098639445591,0.635248897611202,0.5942515845257887,0.8066726054410802,1.2699899240906383,1.3956652573276707,1.1317200737824769,0.7539943324892391,0.5030372543605984
0.8966666666666666,0.6573090853551693,1.143325878637744,1.0814731850072068,1.0007893889547652,0.6106778398146685,0.5554461322049989,0.8338013484179093,1.2202839642131202,1.3092949912510052,1.0302967939251413,0.6174782308236324,0.34257742253293777
0.9,0.6252431805329703,0.9839460511683124,1.1735044443921394,0.9172998673066528,0.6170593525913035,0.5920019479715871,0.7995228062924787,1.1958796668101348,1.2467038326705278,1.0351947004327617,0.5295752875376499,0.42087186582218694
0.9033333333333333,0.680792666396008,1.0126791582784496,1.098525918656161,0.7594708464111124,0.47254958111983025,0.47339865811006804,0.7582696609540402,1.1560910815740602,1.2756760234442857,0.9410543019262176,0.5305107639712575,0.25751564902981633
0.9066666666666666,0.6646360738231163,0.9472010853820466,1.1013501233322114,0.8595459593774535,0.5763475507768064,0.4580895953156947,0.6903880927835472,1.1536588244380128,1.066684511155442,0.974337864591656,0.575880852182622,0.3503374539430432
0.91,0.7804841372615962,1.1015989889940143,1.0880403769514058,0.8952709414241423,0.6817740947581359,0.49459460519644155,0.7202153138451822,1.0358788269941026,1.1734945839427398,0.8813942595711306,0.3726197633023374,0.24233758850627526
0.9133333333333333,0.7630905004832698,1.0787264529769258,1.0099341098572938,0.839255816383163,0.5006759347538398,0.41177071292997286,0.6520903897371497,1.0077995664969301,1.0207428934822733,0.7472311938945455,0.4166429415470642,0.16289099489396378
0.9166666666666666,0.7145967781257241,1.0464133980418862,1.050692471226031,0.8785753397290925,0.4847943932909373,0.3399279134928867,0.6970363765412494,1.0129343457452968,1.0352993867304445,0.8527102458433784,0.4017995018167496,0.19648786214889555
0.92,0.6698739529572925,0.9751606721477445,1.1594648863965438,0.7953838645130265,0.5160295971376938,0.5067537657023491,0.6119458728155724,0.9141032401357582,0.9613617994716799,0.5955257291373051,0.19293595833425564,0.13368473006543194
0.9233333333333333,0.666122653562164,1.0654131982367945,1.0121373096249147,0.770665402491872,0.5532149380443845,0.31384810820560977,0.5572060900131514,0.8500007511597839,0.9171465569306501,0.7042724847162062,0.307210426668728,0.16012643275598387
0.9266666666666666,0.7948561536794636,1.0116166602545433,1.086772182655829,0.8327497458168649,0.5151847901108544,0.35746291259606217,0.5105168083281939,0.9251549287401751,1.0078524363543633,0.6166254067468212,0.3005468948488603,0.0847013235816372
0.93,0.760494934328476,1.152799377776915,1.1126324076296135,0.8394757340035075,0.3565585527744212,0.37437172610931374,0.579930346856649,0.8787604486922171,1.0194770876157664,0.7312097191680966,0.2483003171054554,0.08281246359445739
0.9333333333333333,0.7805531782658585,1.129988719553516,1.2261181358753517,0.8220222202550235,0.4916111518069416,0.3689920116978807,0.5217208746851916,0.8209598515882549,0.9046487896197668,0.6409383176414518,0.22716448251062016,0.06412488506139585
0.9366666666666666,0.6743793871594506,1.1007354237344211,1.181195850439448,0.9010265266856363,0.5910291867265959,0.34559861492794836,0.5159820586588455,0.9009615211520674,0.9246538141369587,0.583899716891019,0.2328278474262495,0.09987004963906033
0.94,0.8079233924341195,0.9761109359944836,1.1151274869180292,0.794864273168341,0.4911797609707068,0.3448925963540831,0.6083992746742037,0.9429312856447609,0.9044684840496268,0.6080148536274272,0.25214818946886974,0.18398464895624117
0.9433333333333334,0.7784874801927487,1.0455428187846012,1.2040004243128293,0.8473007815735136,0.3975300290560353,0.33981966368037864,0.4906335170201318,0.7847447502441955,0.9819049409639458,0.5841813645585893,0.26123589156396165,0.0884378056376049
0.9466666666666667,0.6886020096936062,1.1204304548351887,1.0926859647324754,0.8252909769102406,0.4613988929805735,0.29069979256136247,0.6455013108284207,0.9103995576273983,0.782119652283876,0.6023678602515745,0.2594056157909485,0.16072508343350633
0.95,0.7034441190962737,1.1327895545594278,1.1663066821870194,0.7301616575204235,0.3718488926468016,0.4459219187870279,0.5754310768972132,0.7227772932140689,0.8965766359312984,0.5969586852381134,0.27268800833527834,0.09766050945207874
0.9533333333333334,0.7185712362013633,1.1092275594347323,1.0298074410949036,0.7243645126977746,0.4827798439870173,0.31625009648119695,0.5547126014429975,0.8167744358202841,0.8281558034976964,0.568612667287093,0.3526606446060604,0.048982135400182814
0.9566666666666667,0.6832559738437647,0.9525438843008622,1.1301124935824631,0.770281274352456,0.3559093587503642,0.34326929372410514,0.49172384034235583,0.9127578985619585,0.7301101975468256,0.6090344760032712,0.23216912743108684,0.16971732865699726
0.96,0.6399625600908175,1.0239862422714932,1.0330949412903885,0.846429701478182,0.38834850542554694,0.28105139752474684,0.565980329810258,0.7854793482794099,0.8101070353350867,0.6010460423977821,0.20156679300270505,0.18087554252198795
0.9633333333333334,0.6241012169381932,1.036761111612074,0.9789456367536415,0.7539242695428955,0.3224617028211441,0.2638214823979856,0.5106962875963448,0.785626017756786,0.8982501661652937,0.5146832268389999,0.34212279600675183,0.1559387780210967
0.9666666666666667,0.5943305725502493,0.882519935867488,0.9984318113289593,0.6179691026970754,0.3201672857597248,0.24346620578325784,0.4597300708507943,0.7977540644079741,0.7492693072194329,0.46251922121529565,0.2622805851679647,0.08234851826511069
0.97,0.5972797587308873,0.9489001981333246,1.005962042350269,0.5315521306946618,0.40708759031528463,0.17594060026651934,0.4888314911070573,0.652901823510792,0.7976137630215867,0.5409861881044573,0.24093388261565882,0.16560834802513016
0.9733333333333334,0.6528980294351043,0.9530855651604685,0.9558283249781501,0.7118071135773062,0.32804468602315157,0.23669316017470718,0.38263182110468436,0.7235259392482575,0.7951736931370588,0.5324230203426573,0.24285566478766643,0.1556697830016312
0.9766666666666667,0.4490952449278267,0.9221627660867717,1.0038540595644947,0.6651094116771531,0.2912180619327833,0.22115282318012497,0.3774330539428118,0.707765199822256,0.7142721828477776,0.5244331575098948,0.24786433322699933,0.08988506810805111
0.98,0.5730759903670283,0.8510817460059366,0.9507088685997322,0.7294482597374355,0.2654686371357816,0.3033992849553435,0.4011974615020912,0.7868570953992373,0.7042501648290376,0.5004683811930525,0.20231511540858219,0.05989015815884316
0.9833333333333333,0.6109480347165989,0.9429479582706857,1.0231133720600172,0.6389882904249237,0.2404732010578186,0.1954414898182836,0.4789329758574736,0.6264358125258218,0.6002106208975814,0.5403315537232245,0.2480555176893562,0.11053884667397851
0.9866666666666667,0.6434959966101467,0.9671837258422629,1.0347659851496531,0.7192159614549317,0.2905506601474117,0.24405151083469323,0.47193687187189215,0.6691898235990623,0.6428815901125545,0.5046456220640858,0.17264964996105564,0.15452442629419044
0.99,0.6450340273831172,1.0082951911643365,1.03763646391306,0.7699739169585529,0.38483714564117005,0.2522536931407151,0.5411712757952035,0.6471845788343851,0.7214512117728953,0.5862259875485595,0.2076327498538807,0.14492064026752283
0.9933333333333333,0.617466217729474,1.0259584175670018,1.0526440542972595,0.7371645922266205,0.4601888350676892,0.3990759447600081,0.46434157721381797,0.6516856616644866,0.6806385809332841,0.6085756366945211,0.11760933274527974,0.08563918802298076
0.9966666666666667,0.7679877784031787,1.0746329079305958,1.1203374610318937,0.7741269789279797,0.41912906545424794,0.3171051768422649,0.5641822583722433,0.7727056986809995,0.7004007256078403,0.3698275991830823,0.2954387293778611,0.14490878810162328
1.0,0.8863675107082086,1.1392260870294741,1.1799596569103612,0.8343132114871565,0.5634779048216528,0.42409041104020967,0.5564126025002176,0.7319408644034341,0.6944333388764937,0.3535104921547714,0.2381176011022983,0.19253637248052358
1.0033333333333334,0.771170645497613,1.2068879851165168,1.2942570971405964,0.896984936345304,0.48625148796724177,0.479294438654805,0.5409202155157568,0.7163465522727257,0.8024838160020127,0.46829203166934275,0.2905181203889596,0.09996584888088689
1.0066666666666666,0.9356963494388217,1.2095511110477368,1.2732411716055148,0.9025062905119694,0.5442186798789879,0.45522418536012055,0.6302332569607692,0.7287294510692971,0.6736964353262521,0.49682613297843475,0.2890706905957436,0.17077542855850886
1.01,0.9150117163676773,1.2382446602354213,1.3040484288695053,0.9793733601253097,0.530488945293139,0.4199551725054475,0.6251499437528734,0.7316823282752921,0.7729041274589882,0.46637609884047804,0.2971532714709076,0.24039189570523714
1.0133333333333334,0.959472518172003,1.2890845838882279,1.4303451280874757,0.9269141768564964,0.6545241240658524,0.43921114437985564,0.6069410959607273,0.7340320233948394,0.6897865555167961,0.49756840976299627,0.2680172223496297,0.11044094069797038
1.0166666666666666,0.9315444390149212,1.2042777002739813,1.312374634751261,0.893083786759641,0.7208020621277488,0.5596379392515392,0.6411699456020196,0.6833215144002049,0.7496809354779983,0.4331039166582007,0.2792592566491127,0.226141269035116
1.02,0.9786600327419135,1.3290868948332148,1.3103457498553124,1.056854666170058,0.5280211026719065,0.45225928599152315,0.6227824980363494,0.7121584969330289,0.5757478161602742,0.386931708834656,0.19469654783514156,0.23567167492945462
1.0233333333333334,1.0607819148628836,1.2987838290824731,1.3092960880542859,0.91480879018002,0.5877163623153056,0.522385306001149,0.6006993867190193,0.6748108565020092,0.607789239465049,0.3596180177867987,0.15787979114422193,0.12137471422112675
1.0266666666666666,1.0148454924880286,1.2833346390825715,1.2003336530968607,0.892406828632041,0.6460843389352564,0.48499419554890905,0.5559201398535033,0.6117506223387484,0.52998937977603,0.33197419089789765,0.17572792438190984,0.08436597776691133
1.03,1.0527558197810165,1.301828866879258,1.194902794483391,0.8829800963558885,0.4780943850782872,0.4644558695865928,0.4693048391523805,0.6042083054030165,0.4980209351351464,0.3300949543871173,0.10235331848912896,0.11392047969072838
1.0333333333333334,0.9974224750508011,1.1200007015819267,1.1492433408969605,0.846227015036212,0.5376353388527428,0.4267955414352443,0.48756572876642074,0.5466106751963865,0.48514089684754735,0.20150727877115054,0.15557085566650725,0.006509340301311091
1.0366666666666666,0.9267902793940976,1.0761407010714257,1.157494053433777,0.7732780673340879,0.5224941666512883,0.3074370825937098,0.386219276350759,0.4382424739946692,0.3694470360992912,0.14314980095703445,0.04516044583909004,-0.1538362336225206
1.04,0.9543160329996409,1.141262682028023,1.062348325352477,0.7369554931692841,0.4130681038864465,0.2519120278891538,0.31350243716625087,0.3860014908086002,0.3338664642923787,0.11398366943767088,-0.07095006203102847,-0.09653772958550244
1.0433333333333332,0.8495434097584507,1.0778115477339403,1.0216978042427325,0.679007111114528,0.3825650932754756,0.2812536238434507,0.28890326975611086,0.4265810182980272,0.16015753493454565,0.002116333392211121,-0.11133821016239648,-0.12446501564956775
1.0466666666666666,0.8297427152518394,1.0373523900694623,1.0130268797690039,0.6333145363941113,0.38969429330275335,0.15972249812990547,0.2749827749441611,0.35112742810349623,0.07454791397353354,-0.004111011075849207,-0.15218437314845687,-0.16572390602289705
1.05,0.7363583448725526,0.9584771188345752,0.9479462392081534,0.45294294187652745,0.34873122755813935,0.0026808732056487206,0.1883587015098768,0.12246052704618896,0.042340128332128024,-0.17387761226393197,-0.21912805755826553,-0.2972696927090899
1.0533333333333332,0.7208764791067936,0.9712045813198811,0.8468625383340085,0.615667249649583,0.20295283014264562,0.12706357234494597,0.09898692169219742,0.06539815174671379,-0.02838127264848218,-0.24625341682718632,-0.2524699028360771,-0.3106284787895953
1.0566666666666666,0.6534988005127333,0.945800664399679,0.776908814025712,0.47104364776972923,0.14079479162399097,0.004341976758587801,0.05086665845890309,0.0018441291701380633,-0.09564474928614344,-0.2273603310288113,-0.3044105082218468,-0.28358954594356595
1.06,0.7135381670749206,0.8899007889412767,0.8286546109822769,0.47105753581616994,0.09037198591262866,0.049215076848705644,0.07372179949498284,0.06037212892425868,-0.18476053143916799,-0.26575915252612425,-0.4091827234298471,-0.3606617053164925
1.0633333333333332,0.5855835125952418,0.8245660242693549,0.7782393020527887,0.34383593566273063,0.162135307076645,0.07383536656880675,-0.1062521024580434,-0.0500588501279642,-0.1172471564928555,-0.3620751915697664,-0.46822717612972753,-0.4484227746392896
1.0666666666666667,0.6682121550797072,0.7090115389633946,0.6326622745458295,0.36668994651010983,0.029335500811051393,-0.008165858849987342,0.03416572969691953,-0.046188889634351596,-0.22552169702594263,-0.2739045482294207,-0.3895142777783591,-0.31338202554730865
1.07,0.6073342370201692,0.8336104001936444,0.6756592145667668,0.3400866354709762,0.07687104859476943,0.035306894192850935,-0.11033568604659443,0.02258273485972148,-0.15675578354103614,-0.2571020539976608,-0.34266099423893837,-0.3787527792321437
1.0733333333333333,0.6651362573610242,0.8397225864950557,0.6816232160986622,0.43539092032655113,0.09191976404770766,-0.00577808791320412,-0.09120869349775236,-0.08915344089343216,-0.23979606700267567,-0.38822641777791556,-0.37956577779510303,-0.29697289360647416
1.0766666666666667,0.6344021240704534,0.7956900432282533,0.6965678075163044,0.32406638087788936,0.06309013457649791,0.07182178852004235,-0.044448591557864556,-0.05860702338579113,-0.21376182056560605,-0.2788862532016123,-0.28302766339601826,-0.3972450671982029
1.08,0.6774326854402245,0.7042340504609123,0.6881550330305071,0.38436221964354217,0.10615726077537121,-0.051620102599564725,0.09511338639672702,-0.06904945651034795,-0.21942795613715926,-0.46377565636815726,-0.3253783919734644,-0.30407395747328025
1.0833333333333333,0.6105996285250103,0.7653147195518907,0.6412019169250306,0.30713343437055973,0.2250946436908729,0.011400277025549571,0.07751554574322235,-0.12354717881992258,-0.287193367230554,-0.27953517370002845,-0.2304631388705632,-0.24011421463305352
1.0866666666666667,0.4804087701889839,0.7557128906461031,0.6387804531521004,0.30895728639298486,0.09473379734182934,0.05538366583196946,0.03584567514230395,-0.04015657216264722,-0.22595481339468526,-0.3644168279772932,-0.21550652037641932,-0.2370351331802097
1.09,0.5374761645000732,0.768715346948572,0.5925620938914608,0.30894630692055497,0.08099009884215531,0.020274024047068646,0.02345006313365503,-0.13627318117013926,-0.14784641093908707,-0.26252695511376317,-0.1970453662317923,-0.26076637490388094
1.0933333333333333,0.46093095739030004,0.6219013066154448,0.5324249463870423,0.3721309743779321,0.152633208906512,0.09257692970440824,-0.08541223703366634,-0.030594944145798664,-0.23485276679150266,-0.35259042438147975,-0.28996103982339366,-0.29383276748184883
1.0966666666666667,0.46971704818900406,0.6264436996963381,0.5268055996896847,0.19708051739087473,0.1097296775252703,0.015043168769431119,0.01380145774645279,-0.13487168000581184,-0.20992639925101955,-0.3058819952854447,-0.21427786847235195,-0.07679682570977289
1.1,0.5456111893521985,0.6450421049425281,0.5120768255608288,0.20665018966709583,0.1624741509385937,0.1381940065520334,-0.027348437740602853,-0.1418929413190145,-0.23292066352581112,-0.34645044979390743,-0.1455011312221132,-0.12574233179359406
1.1033333333333333,0.4759391459542938,0.5794121568560308,0.4790756956846289,0.15388371230853526,0.08891450950334574,0.13568120724452604,-0.0504870177723902,-0.1894603855850875,-0.269978705832291,-0.3259498786477414,-0.1910954405699655,-0.07224756336221869
1.1066666666666667,0.3842285282528566,0.48985499429605317,0.3558569818304622,0.1747131860482969,0.056764883102499844,0.036060252433226754,-0.014953690376433095,-0.20232067591231606,-0.2985149356734049,-0.23862551778260285,-0.18148309106873484,-0.08380940901504783
1.11,0.3462953134796345,0.5374453143539668,0.40062620188210823,0.16665974427519886,-0.03197923196879234,0.04059428650752807,-0.061569989709472514,-0.20163705769396256,-0.3069131818250142,-0.3551942555802595,-0.288834236052256,-0.1066728878238139
1.1133333333333333,0.38064452434733204,0.5199300607471903,0.3961377117657291,0.10634601903813748,-0.03493302646877928,0.06343973534833108,-0.010927308822628885,-0.327987205748909,-0.32533206350864996,-0.26764924248858535,-0.13840614625112735,-0.1644162842697034
1.1166666666666667,0.30571905323835924,0.47426680328520654,0.35584645680969773,0.1331651567518163,-0.05476885324643778,-0.06343276468973844,-0.1673159710586736,-0.2448088917528606,-0.4617529243133669,-0.41815340219124747,-0.29211318360570376,-0.13986410334193916
1.12,0.3269815406921404,0.46528843348274174,0.33894829667381,0.0559832256586385,0.05018105899718905,-0.07524596582860373,-0.08139770403923276,-0.2845491047920465,-0.412473654288033,-0.3508533164848494,-0.3722420313203911,-0.11131424079864032
1.1233333333333333,0.3770319999805416,0.43192301045631887,0.3624803494744594,0.09742992680646918,-0.0386498895016289,0.050877522100393396,-0.14120204881074738,-0.24378762739652296,-0.4635077482560793,-0.5327968391595276,-0.31033025445264373,-0.19834986573799943
1.1266666666666667,0.4268867196801646,0.515445739842039,0.2764816367180061,0.20499265488728557,0.09494165428336328,0.003280266356496815,-0.12659400155908634,-0.2835414672684218,-0.501090500897777,-0.4902185535074353,-0.43434264399002176,-0.1264543158865804
1.13,0.41335424426142664,0.3987467423983047,0.24653457845487656,0.16657990465456549,0.040743427408983755,-0.016307448553089944,-0.09623355499951677,-0.35826674944532694,-0.4410062147411419,-0.5245359394712084,-0.3833200199626764,-0.3138005852707432
1.1333333333333333,0.2869944349932719,0.4211369398715801,0.31225210679797705,0.16121592303563953,0.037862681266088966,0.0045203751350606615,-0.16936766355303903,-0.36078236936623675,-0.5636024854813336,-0.43970011056503183,-0.21548756225599056,-0.33386006052159256
1.1366666666666667,0.43851191629585035,0.4606435049105005,0.37236776676094985,0.10989038422797567,0.02140594530110599,-0.10377197653729578,-0.1046909395695042,-0.3617895634344912,-0.6149131354677704,-0.5232168914940921,-0.3738239839388841,-0.2157784036722023
1.14,0.4495809533693802,0.5145042714463375,0.4239733121575302,0.0924725728923153,0.10941298967134866,0.018865224946860045,-0.12140048475754749,-0.28610364739751104,-0.5213988968428714,-0.6502973354177914,-0.4349499133249034,-0.31482681851665967
1.1433333333333333,0.4879329317172363,0.40476641680589565,0.38294639408313375,0.1206475307709288,0.052124794096627146,0.0032445459421540992,-0.1416471061919838,-0.4112777783978999,-0.6470803650150747,-0.6232272375978204,-0.369066287205774,-0.17797815499493186
1.1466666666666667,0.5654396671669693,0.41946963267002596,0.27124306456924846,0.18072957366860531,0.05447877020008839,0.09708457207394154,-0.13163863315181962,-0.4168720402367951,-0.6875787467131289,-0.6198134404139819,-0.4210814337321652,-0.2179747951868069
1.15,0.3926661296795048,0.38246169481090464,0.32824457512877625,0.22643921804929573,0.16990113751799218,0.10709099853663237,-0.11877665995198304,-0.4506596387233906,-0.5626750138308618,-0.5349896279600862,-0.33921462665645485,-0.2097784436980527
1.1533333333333333,0.4692524317630691,0.4773700922915179,0.3403433474898268,0.22124184867988395,0.12843852057988608,0.08642054574142194,-0.15753690020061717,-0.48593341337367163,-0.6203961138151938,-0.5564825575442472,-0.4349598772735169,-0.25019674932202324
1.1566666666666667,0.5215404652072632,0.4016670064372455,0.3149291972296532,0.19215852957784538,0.09114649104671325,0.07019311637036,-0.1335126566588601,-0.41977103340863475,-0.6296801999481263,-0.6307004162661192,-0.3881355425337512,-0.3480366234164429
1.16,0.39531910141082627,0.4096557537906185,0.3014208016080762,0.0986251332923267,0.11805226229683749,-0.04009981322422204,-0.17020572547134913,-0.4550439815173568,-0.7062661209461683,-0.6670875614711779,-0.47451680762913073,-0.3959228889934634
1.1633333333333333,0.5194883388194504,0.42234969195631333,0.18648377897484156,0.10153940495519066,0.059933239416059374,0.03963164597631463,-0.2175703378222606,-0.438517002922056,-0.7907148057508953,-0.6336019898732099,-0.3078230093503641,-0.2535415404649852
1.1666666666666667,0.42465890958747005,0.307030239507451,0.1832235341564221,0.039212601513765495,0.04271944721041357,0.007974261793636306,-0.14648634298978214,-0.495510290398786,-0.8248075557142125,-0.7616912725734309,-0.43869196399156873,-0.42347353491456535
1.17,0.39942624526756076,0.29093873105541224,0.13935292277663494,-0.008759325294697536,-0.06180003971361942,-0.0030273029557126296,-0.2518106678087306,-0.47956976118450534,-0.8294007403263439,-0.7238666677323526,-0.5025846167706295,-0.2942763560763426
1.1733333333333333,0.27136607451142813,0.19674346756557803,0.09028347615818486,0.04174691808950724,0.03086441433353057,-0.008016321718198327,-0.3446752629052593,-0.6607460888004786,-0.9349268856404185,-0.774541440935066,-0.546032888859776,-0.36937384605489226
1.1766666666666667,0.2775221560352852,0.1718542353646877,-0.06621835453100723,-0.21500263194975036,-0.1585323137998857,-0.2521550646775479,-0.3757950279246389,-0.731809365206681,-0.915166824202308,-0.8568043130011351,-0.5985560911941649,-0.4392638665055459
1.18,0.22376317404919618,0.08523687241281781,-0.12124014936754902,-0.20837359525466817,-0.11146324839664995,-0.24320324473835037,-0.49433702462932644,-0.8475106060994628,-1.0145608925118785,-0.8747443974377311,-0.6501472455920554,-0.4477018062694337
1.1833333333333333,0.11471267695950031,-0.05051718501575235,-0.317658311080081,-0.20606873264011585,-0.2586111841059953,-0.3172252709395711,-0.5245987834744846,-0.8109568102053195,-1.0425045845062553,-0.9405486043946056,-0.6924548239959751,-0.4807824653071953
1.1866666666666668,0.04935051498922799,-0.09972008662449466,-0.2897621646715799,-0.40754253588687284,-0.26621962933048443,-0.3252429029849118,-0.5757742290548006,-0.9001700359781125,-1.1012589370981243,-0.9689288649899395,-0.6075340858178399,-0.5462103835827493
1.19,-0.0100617805284427,-0.10995899469107373,-0.3563410129727559,-0.4290487416579369,-0.3222128983703889,-0.3818259977493917,-0.6738354661880563,-0.9283775198177077,-1.1414465451128442,-1.1034215388212798,-0.7527220939356187,-0.4924967893658974
1.1933333333333334,-0.12170627312809659,-0.206714981002291,-0.4455590933598451,-0.47872263492574885,-0.3466220110880692,-0.43543384312487926,-0.6363009175596576,-1.0650197241877706,-1.1798704877027808,-1.0415052207104833,-0.8583178314435898,-0.5155107532772177
1.1966666666666668,-0.13311260692144702,-0.35223648950562925,-0.4420978472714792,-0.5098949770692749,-0.48194114589617676,-0.40437183522863296,-0.7157300807119341,-1.0280353431217217,-1.2565423358924015,-1.04718830893525,-0.8282218417894313,-0.5904477012008611
1.2,-0.1718784357701007,-0.2963653112523283,-0.4992221911980222,-0.6148878207057862,-0.4117799123012268,-0.5323935155001318,-0.732334758691498,-1.0620324060752495,-1.2537757020675964,-1.0982070953505154,-0.7316091968714481,-0.6319074114617385
1.2033333333333334,-0.17463470410424095,-0.4205222287783849,-0.6452461887697574,-0.5310968609507465,-0.38806350788408317,-0.539919410969844,-0.7558185746227939,-1.0804816414383553,-1.263233080542519,-1.088661640481945,-0.7879387274791965,-0.5300488264036107
1.2066666666666668,-0.16474175644116104,-0.32347962340840475,-0.5474157593312774,-0.5429211299711477,-0.4974715315802389,-0.5387020683046947,-0.5810339772300961,-1.125236154355839,-1.3969657725467244,-1.1173767502702456,-0.7685281483658479,-0.6795490251463651
1.21,-0.2808681027658735,-0.3622560278540988,-0.621409752818946,-0.5566292949110252,-0.4770985436823597,-0.4950158750261981,-0.7532729843746182,-1.024472176453459,-1.2328018758840154,-1.0498136787613759,-0.6796124782565468,-0.5294823378554064
1.2133333333333334,-0.24104183461633624,-0.41123436074711,-0.559789339734875,-0.6232120412358464,-0.4908521034908465,-0.5192205807824093,-0.8056660024891298,-0.9648815877742507,-1.2376967365363596,-1.0642635357857437,-0.7442768920728451,-0.47933431651920116
1.2166666666666666,-0.16289352543291247,-0.4247782696050295,-0.6513050558449058,-0.566674254657131,-0.4612647835536487,-0.43418827293546425,-0.7571599195087448,-1.098869807913376,-1.1894094638913573,-1.0905864895481716,-0.6339843092209074,-0.5155280130167629
1.22,-0.2734906988089154,-0.4465813366095526,-0.5849319837755076,-0.6030459639853397,-0.33323218547560124,-0.40941627688758403,-0.6092457446625804,-0.9780823874192746,-1.2490353889750045,-0.9526682980431097,-0.6543447779318243,-0.3786268694668372
1.2233333333333334,-0.27577994231858444,-0.4042409150336958,-0.5979847447085248,-0.5597576368063473,-0.4417905844041797,-0.40766839812148664,-0.5480252644806325,-1.1260695879365807,-1.1647870886528757,-1.0332830334059862,-0.5452419203106519,-0.37980914400858534
1.2266666666666666,-0.22359722946242572,-0.45912883197035753,-0.5662335372930625,-0.4206300314292716,-0.4116526414076863,-0.2920664652183089,-0.6166514395953216,-0.9167038971325968,-1.1677297702613356,-0.8954099246862725,-0.5471099698619513,-0.3576100212806359
1.23,-0.19260324032746537,-0.4331788295283317,-0.5746211947227233,-0.5107249969258427,-0.25922813307342274,-0.30855704729149785,-0.4887251947785561,-1.0139042888010588,-1.0424312512592284,-0.8893792175493371,-0.4961948961357101,-0.237298229328757
1.2333333333333334,-0.23839390549613043,-0.4088357137971366,-0.5963409633704173,-0.5656611094289055,-0.2877394149829955,-0.22655193665839857,-0.4900932698218675,-0.9213184108472143,-1.1209847706468454,-0.8581292384902137,-0.40507508465942854,-0.3005737898987447
1.2366666666666666,-0.18018736115595502,-0.4917949345844771,-0.6672626977600934,-0.49267728005970896,-0.19734755779854257,-0.2692075481351919,-0.517066172181079,-0.9414582386711443,-1.0745496962119834,-0.799468648805461,-0.37797559275264947,-0.17134460350124814
1.24,-0.2149958880648249,-0.5097669945896585,-0.6756774403464824,-0.5698633632936065,-0.31619199724835134,-0.2469504947143439,-0.5079310137076354,-0.8744845122623064,-0.9863139978821821,-0.8239677313318466,-0.4016545018111944,-0.2915670537066016
1.2433333333333334,-0.23001315711383286,-0.5576021132148836,-0.6467277399095999,-0.5679712345849585,-0.2837037799745946,-0.2669475286047585,-0.4804605416881725,-0.8173075845084359,-1.037519161779881,-0.7520891158516197,-0.40442850549390763,-0.16575234706625835
1.2466666666666666,-0.2608813028218913,-0.5729713307027362,-0.637393447318521,-0.5704891891741797,-0.3250499444765135,-0.2387149911646122,-0.4472974256749632,-0.9551751011512466,-1.0535467706501063,-0.7728342953565955,-0.2978916760333114,-0.17550981007233113
1.25,-0.18976409087476737,-0.634902783362236,-0.6895746688032908,-0.5548059228070612,-0.2916473751550866,-0.20799827327984977,-0.479299702021116,-0.8901686785371472,-0.970273766923395,-0.8126845431490509,-0.35435278631203704,-0.21189450834307982
1.2533333333333334,-0.33375463065208494,-0.5313324176115631,-0.6515776680523243,-0.5024243439733905,-0.3979112605923279,-0.2739291539564358,-0.5461472709575295,-0.9133981851995429,-0.9829469358844356,-0.7280706425477822,-0.41716615741098445,-0.18103922803969735
1.2566666666666666,-0.4395263189786411,-0.5010053123720741,-0.7206186872168215,-0.5381815118059823,-0.287540407061842,-0.24025355289837777,-0.5378220300942016,-0.8283381829517142,-1.0136338154447584,-0.8033252619978792,-0.4502551785386154,-0.22687170996056927
1.26,-0.272357690022587,-0.5418762504371719,-0.7775668101911817,-0.5585420670005586,-0.3189174135200951,-0.32113012915036815,-0.44887640046295296,-0.9078660638265822,-1.0295877515836058,-0.8041608658109632,-0.3906098947883775,-0.19729339866028997
1.2633333333333334,-0.38518886484086223,-0.7132187468287118,-0.7636051157430792,-0.6557494432537393,-0.350623711120212,-0.2568648446569374,-0.5545971218540627,-1.0110212483331977,-1.106889590476706,-0.7885679520177586,-0.46250352592141863,-0.2517254732251132
1.2666666666666666,-0.36269600559070075,-0.6108939977329229,-0.7557191987865355,-0.6415369738080068,-0.37813875863359125,-0.33684056698486053,-0.5418274700965869,-0.9974369925687722,-1.128035829486905,-0.8127036180107657,-0.5029540588549227,-0.2871638853503699
1.27,-0.3044551087627252,-0.5875114866990356,-0.7646189765389889,-0.6115120677508703,-0.4116717296483512,-0.276012145845452,-0.5741739072179822,-0.9154122531755438,-1.1703571839462572,-0.8749244297076344,-0.5137149061924331,-0.32357699629426084
1.2733333333333334,-0.4484410186651908,-0.6894805732402873,-0.6974081389052861,-0.6640040839726717,-0.33594932517042386,-0.3234530395782144,-0.6003290512300733,-0.973483199716765,-1.1461684543345831,-0.9367435108760647,-0.5238701283433229,-0.3867072631887399
1.2766666666666666,-0.4268283291848238,-0.6668916230322766,-0.8323931032495058,-0.6511470445406058,-0.43349038885518765,-0.2554069722194397,-0.6180173134728858,-1.0671932983045593,-1.1932567244860486,-1.0063391270481439,-0.5603588744075274,-0.39835417881417434
1.28,-0.4391283833538175,-0.7761606644759566,-0.8083738095640935,-0.6177376969576739,-0.34970686761688163,-0.3915124535006269,-0.5848087414512945,-1.0427498681330378,-1.1962666104693545,-0.9328562490560851,-0.5089341246370347,-0.3854404592807968
1.2833333333333334,-0.3941706086684268,-0.6662123002917151,-0.7886016200122895,-0.6589013034839069,-0.2706700128640921,-0.4081469019901132,-0.5973281936790137,-1.0457028281453178,-1.1480384793162655,-0.8919436543632271,-0.5124600218485015,-0.4152552911885901
1.2866666666666666,-0.3303058700527869,-0.7381908587036661,-0.8172967839635336,-0.6323048178499965,-0.29919114637661953,-0.36495812143604106,-0.6219559918801827,-1.0626365068618755,-1.1185536123954951,-0.9281021506861491,-0.5502367475237735,-0.3541516341580754
1.29,-0.3281750244388313,-0.6839193292064529,-0.8500235820364289,-0.5681395987857376,-0.44921020975944237,-0.4037856934877576,-0.6712462292247735,-1.1213796660337623,-1.1549424196553293,-1.113757312266613,-0.5054015468726751,-0.40330584560129024
1.2933333333333332,-0.3486265723283377,-0.7858991289748395,-0.9155377556051866,-0.6640685291264198,-0.4041386131833292,-0.4060870286454472,-0.6195332113950585,-1.0694957756811028,-1.080762679620118,-0.891471136659791,-0.5680439399561783,-0.3836305165549074
1.2966666666666666,-0.44845911607400357,-0.7010316186873571,-0.882248562457239,-0.6090642959850522,-0.3637537955970871,-0.31156093439094157,-0.6465583637536995,-0.9668094048973505,-1.2012217344748872,-0.8808807197510935,-0.5266120332879926,-0.4645211926037629
1.3,-0.5169382876333869,-0.7046119868151597,-0.9355332969744008,-0.6584697923291875,-0.4010758119590142,-0.35290284817602474,-0.6662792887957145,-1.0580576546002032,-1.254378113690617,-0.9353111378517155,-0.5032286258973515,-0.338085639145439
1.3033333333333332,-0.430904085984582,-0.830389076529762,-1.0002983678617543,-0.7846041370334569,-0.48610451245976916,-0.3918121267020561,-0.5286500503651861,-1.0498703551055217,-1.1253504696755745,-0.865047975527236,-0.4957007455796221,-0.4053926218324975
1.3066666666666666,-0.4976968871783469,-0.8910027322538325,-0.9927516308469275,-0.7975586909225894,-0.4214034819748034,-0.40763680316295736,-0.7557051929772073,-1.0468809886047554,-1.2010065466280782,-0.8795152800221101,-0.49589170298798224,-0.42089212628009304
1.31,-0.49900926481938646,-0.991604588256428,-1.050504018860059,-0.8211800841309596,-0.4712409754662248,-0.4436601792591316,-0.6513138746019173,-0.9557432914221575,-1.180391519386795,-0.9442775953486973,-0.5076019758232974,-0.28099414384446286
1.3133333333333332,-0.5406267875946834,-0.952088442681597,-1.019045916674095,-0.8639925476731474,-0.40964797505122635,-0.3610208367731575,-0.766541983163416,-1.082040619629176,-1.2621927915059734,-0.8481144193841451,-0.44135794955582947,-0.32544654221357894
1.3166666666666667,-0.6264184228066539,-1.0262159867571476,-1.0713802365657399,-0.8705690528288001,-0.5557101058805938,-0.5129624107142652,-0.7435567261916977,-1.0457639687299982,-1.2276203900212366,-0.9787862106165415,-0.56851613649128,-0.31087684268975685
1.32,-0.654398965448724,-1.134158424992644,-1.200752313174354,-0.8811208364298482,-0.5234814418604575,-0.5760970899016848,-0.649357624998542,-1.1491019536810294,-1.2675001505721168,-0.9230793554304831,-0.5530986234488038,-0.33823034472272956
1.3233333333333333,-0.7388859333351153,-1.0919970914006631,-1.2211767482208717,-0.8935603648193408,-0.6830178137701157,-0.5030891651166177,-0.8526378445565268,-1.149919909493337,-1.2230568071273615,-0.9325831584160146,-0.5601892047701739,-0.3676834743124777
1.3266666666666667,-0.7780171240095758,-1.1911702714841332,-1.3496501229519768,-0.9816114115086395,-0.7054670059482544,-0.5834674843696226,-0.8644262684968482,-1.1511673992988696,-1.227462501092198,-0.9686073226503926,-0.5708506866052032,-0.3786299182241005
1.33,-0.8876865495174313,-1.2700126193121146,-1.3235824257513702,-1.0538909572106239,-0.6467289655423315,-0.49522153556678494,-0.847705815071897,-1.2004480638464123,-1.2052020206591423,-0.9110880376589792,-0.652105259867838,-0.32537873529231753
1.3333333333333333,-0.9009867365895431,-1.2828988731784,-1.3124742545024428,-1.162096947816125,-0.6496610053413835,-0.6406423476282813,-0.9007334387865731,-1.1751076522336368,-1.1434617353852492,-0.8543325542604666,-0.4797504697836113,-0.3039103758168108
1.3366666666666667,-0.9116934959503609,-1.2302703924720484,-1.3144882456104074,-1.07095189674391,-0.7633819148122007,-0.5802539026671685,-0.8170414312954815,-1.1153513065247127,-1.159587926050878,-0.8441591986393263,-0.5897565607870449,-0.3552281177759806
1.34,-0.8989640214633885,-1.270999529554613,-1.403353187123313,-1.078690751552872,-0.7154717774686405,-0.5665725625695814,-0.8810246275602978,-1.1851067176598815,-1.2536132246233789,-0.8490230015690136,-0.5128909170426905,-0.23337698992950812
1.3433333333333333,-0.966704947771695,-1.3132010767362503,-1.3152906834911822,-1.0648635504089823,-0.7759159745237995,-0.6342531525710614,-0.8042675598407244,-1.1203222758989144,-1.1116263298771756,-0.939947859818779,-0.5676382251506361,-0.3251740325821933
1.3466666666666667,-0.9168912467138586,-1.269838700854306,-1.432329970202991,-0.9514863412575364,-0.6952395121723364,-0.6223452615238437,-0.8757962132632857,-1.0500592116606582,-1.096376773653072,-0.8830704538878619,-0.43271457095990234,-0.35614602107268806
1.35,-0.9420768632324696,-1.3424485941810558,-1.397013534818253,-0.9672248715091536,-0.613719839669059,-0.5154647054953146,-0.8624964852850279,-1.0825004991248586,-1.0578086519501997,-0.7607658504209857,-0.46266250280663024,-0.3367701525564167
1.3533333333333333,-0.9119813181879368,-1.2574825337244422,-1.2682209861220257,-0.9536618192272494,-0.638245286608358,-0.48289024223765775,-0.7382566586026661,-0.9342111530124639,-0.9972430044929625,-0.7163835279635935,-0.43326236637279564,-0.29329923903927063
1.3566666666666667,-0.8354667807745045,-1.2195755554395624,-1.1822659381572214,-0.9979364886322487,-0.5834543556693886,-0.5350250696646947,-0.753655293558859,-0.9268324333179665,-0.923088874778588,-0.6796413205112362,-0.314792888727937,-0.18318986693151296
1.36,-0.9432851065049446,-1.2137943990639943,-1.1987242025398452,-0.9280828094888081,-0.5779924057418201,-0.469932126413961,-0.5438678456638734,-0.8763204662750758,-0.9013636006487639,-0.4961319744460652,-0.30457350389489896,-0.12493239911854773
1.3633333333333333,-0.8734459759349441,-1.1299351134513367,-1.1810253868924692,-0.8580808186408713,-0.5030563535979127,-0.48814337030658395,-0.6395723494336023,-0.9047357931724509,-0.8081084155577565,-0.5218026617259078,-0.2425886718198647,-0.029492361309115582
1.3666666666666667,-0.8484088413265745,-1.152665460302704,-1.244987483946004,-0.8439519022312896,-0.33317869268201133,-0.28085557517614596,-0.5597162093740853,-0.7606338903419856,-0.6734320914448695,-0.43729579154972703,-0.15145556080422728,-0.017206257375300283
1.37,-0.8594940611880024,-1.052888138193539,-1.195550915932646,-0.7353952452487786,-0.37171302076614104,-0.27707313373208015,-0.43593757324323956,-0.6649557715399058,-0.7054626728420249,-0.35651280427957616,-0.07051972396838031,0.06995934236534021
1.3733333333333333,-0.7498411924576123,-1.0202177700176995,-1.0521516416687782,-0.7033151520519338,-0.38576855969475926,-0.23175013058887334,-0.441055784416059,-0.5441322274454599,-0.6657349793274162,-0.35114383424064305,-0.10851511871409411,0.0670738334002528
1.3766666666666667,-0.6574387679278905,-1.1691974941520917,-1.047233928358316,-0.7434494657817624,-0.31941756091320683,-0.27596414292237686,-0.45095173204397554,-0.5590402810226396,-0.5695523422644466,-0.18074448184441602,-0.08275453205364733,0.09410902857566851
1.38,-0.6947052285232304,-0.9462764971999613,-1.0627872740117368,-0.6052398895884475,-0.3604361740040576,-0.22333730829905563,-0.24577213883494325,-0.49665339019856486,-0.5848401493794425,-0.3235355251501937,-0.0075503816046752084,0.0833122703896755
1.3833333333333333,-0.6628043025023942,-1.147769883012944,-0.9901584108250101,-0.6445910599253117,-0.31750080529734326,-0.17921129207918574,-0.38064589159891044,-0.589112618295489,-0.5866314629221532,-0.28360656685115126,0.031997667306438084,0.19141689752255317
1.3866666666666667,-0.6167057483227273,-1.0225661680339646,-0.981099017792849,-0.7291352375843635,-0.1941724041095198,-0.18553001012632345,-0.33315607036975103,-0.520834256681652,-0.5002550916596332,-0.2878576816838053,0.08112785167258528,0.0410271952842166
1.39,-0.6085723035106271,-0.9427668424443418,-0.9396886690147075,-0.6457572992344062,-0.2730906056105218,-0.15158104266232406,-0.33583711171976915,-0.4487378392568576,-0.40283546521582636,-0.15999050714518598,-0.05282245638190641,0.11976104963368481
1.3933333333333333,-0.6862310891346728,-1.0167694991320972,-0.9854666735267805,-0.6358650834995895,-0.18227366170017856,-0.14149942246114805,-0.29983697848813246,-0.5575854814999746,-0.47783552554804826,-0.20414271798628017,-0.03134357111823908,0.07371445212020786
1.3966666666666667,-0.625425360356381,-1.0841189929448414,-0.9399810738552513,-0.6125820243321037,-0.2977753197970038,-0.07628046637511936,-0.3283683658392182,-0.47470176799101843,-0.47420560859842975,-0.2844736308743146,0.020031954754598236,0.09279736455044585
1.4,-0.6997580098174182,-1.0767525008767158,-1.0120447775010433,-0.692083779938119,-0.3144024790570304,-0.21370431551261151,-0.41301948989797327,-0.5002515222618297,-0.6012696204720341,-0.3181485092403738,0.03171071161620406,0.018644335747845596
1.4033333333333333,-0.7569273146693061,-0.9816908675281912,-1.029421507786833,-0.6485883380264195,-0.30152143337199255,-0.1815844445737838,-0.4099798353717105,-0.5389981778729775,-0.4864821952246338,-0.22560612148765902,-0.14714881898142979,-0.016303567021752112
1.4066666666666667,-0.7536391020517206,-1.138355459243173,-0.9802040984925097,-0.6944124238551408,-0.4875882266765531,-0.3031298140770296,-0.4266463778922436,-0.5845229222727555,-0.516918672713183,-0.29635382703472196,-0.1647584767669749,-0.06624429128668687
1.41,-0.8040597432797115,-0.992230488253807,-1.0893474271925614,-0.7808103929086275,-0.3618458967688358,-0.36742103608962173,-0.39705382314584803,-0.6301428693184676,-0.5653302026506903,-0.2608107972909701,-0.1363767682695124,-0.01662281592078836
1.4133333333333333,-0.7773182227873704,-1.0542889671369151,-0.9030381565915587,-0.7934917373569268,-0.3891034142341687,-0.31959812943764865,-0.5080419988195108,-0.5003675311876076,-0.5289203394980528,-0.3464516739769892,-0.20702177768942312,-0.11444111025551812
1.4166666666666667,-0.7504349452378591,-1.1102266683518438,-1.0242176101673837,-0.6700179303132276,-0.32249007862304213,-0.39540707551696547,-0.35855739632540945,-0.5600539788836371,-0.5290850688967912,-0.3235517577801801,-0.23211738554013722,-0.03738277670634951
1.42,-0.689158203565107,-1.0752916671767316,-1.0190837579679983,-0.6653419611314888,-0.3539300066584271,-0.3230335251503233,-0.501288862698695,-0.5704968201834714,-0.5830913423473807,-0.3322676879605606,-0.19004354016471078,-0.13525152523104164
1.4233333333333333,-0.6381231582291429,-1.0896488353928957,-1.0034357632138062,-0.7039003101348269,-0.45961625591014327,-0.36575079929201554,-0.46152818798163847,-0.59715479948604,-0.4985183249005707,-0.36859298411144903,-0.12437762986706076,-0.15175223189462142
1.4266666666666667,-0.7872646046872147,-0.9862638645253428,-0.9246989315885615,-0.6368205788649349,-0.33760448653027764,-0.4226120663846135,-0.511130370071994,-0.5569922081284965,-0.4329051993614019,-0.3267549121031049,-0.2583790417109769,-0.15498662290204163
1.43,-0.693009221317299,-0.9831188369369633,-0.9662490797560849,-0.6480567534258489,-0.4065988695621785,-0.2323785388651166,-0.5051911512399035,-0.5271843003342858,-0.475179932874893,-0.35362778747406476,-0.10111335944193427,-0.1058349866636982
1.4333333333333333,-0.7610421729204029,-1.0965705818039078,-1.0731921563286186,-0.6549639816915925,-0.43068980763660886,-0.3376413191883824,-0.4674400202017189,-0.4872781088118756,-0.47269484974904113,-0.2383994038397451,-0.1810650686658714,-0.1423282300985542
1.4366666666666668,-0.6847659370928052,-1.0236379761442842,-0.9108596759966892,-0.7232450034371853,-0.3671250311129701,-0.3828700904047556,-0.4533349469787365,-0.4391313119449299,-0.39967841657998937,-0.18902934367454424,-0.10599609741072367,-0.0785331922130677
1.44,-0.7186532965649942,-1.042492901084042,-0.9883245849610196,-0.5811099512558926,-0.3794228574933054,-0.24628663560424374,-0.4056872900273484,-0.48177988390461984,-0.3070941411816578,-0.13852911917730099,-0.011096845476317035,-0.0541758338434594
1.4433333333333334,-0.8119602483639781,-0.9342783565478562,-0.9591511758718713,-0.6332816000700275,-0.286519543495959,-0.31899894167038567,-0.4144812558997223,-0.48247653350373937,-0.36928661853784733,-0.11431237714645733,-0.03993227159830211,-0.0048538576638591305
1.4466666666666668,-0.6871623138190898,-1.0700992707994472,-1.02511102596821,-0.6747994119053314,-0.34316415821118307,-0.221503729793689,-0.31278224798620974,-0.3723547518803113,-0.2377270251711745,-0.11388612962106834,-0.03656447169178354,0.03020642960489994
1.45,-0.7814369281897241,-0.9298176811272817,-0.9348417332963738,-0.687464239175315,-0.34958278562029255,-0.30871467582558265,-0.3709247322859038,-0.433208848399235,-0.26090301881790406,0.008739463110488552,0.047300388586887475,0.06530910585529884
1.4533333333333334,-0.7990103432469827,-1.0221809492373022,-0.9965409059329042,-0.642539210789598,-0.31727792208810607,-0.2977801834995983,-0.36315984009455005,-0.33368015982687405,-0.17764101168111207,0.0118855268962181,0.03324768728090085,0.07980585575439719
1.4566666666666668,-0.8490364069921639,-1.090926630295611,-0.9635723772476318,-0.7422170734149856,-0.3122668781222926,-0.2544398069834849,-0.32711316999541934,-0.31702940295200605,-0.1833754406857778,0.0698458896498666,0.09522034059233439,0.1798015961938519
1.46,-0.8517934768402002,-1.0792034595907076,-0.9877391924376278,-0.6276729787336787,-0.333433239890743,-0.24437732113463798,-0.24849308820680846,-0.2430728748308658,-0.15140812149397276,0.10313196647458758,0.0826785024323884,0.14480163830061174
1.4633333333333334,-0.8194393256478887,-1.0962100222773143,-0.8808306208445731,-0.7134542455401456,-0.30704283165294477,-0.23816477327204572,-0.2787152587772646,-0.14581768601179773,-0.016659981236641697,0.051874439673827946,0.1564990421816578,0.27239298902045006
1.4666666666666666,-0.8680937596450321,-1.1268751274615916,-0.8781905393390239,-0.6477122327489979,-0.35105032243967893,-0.2823410625625085,-0.28510554378328806,-0.3195129915111109,-0.1339007578205509,0.1034026102313874,0.06170813699297312,0.1596403372320166
1.47,-0.8539233345615268,-1.0596203570657838,-0.9699509797523479,-0.6883156956779326,-0.3729193215151484,-0.24979954343781946,-0.34029275321137875,-0.08460410164082682,-0.009450663891563703,0.14797894164996261,0.09718432178718014,0.2176866258065476
1.4733333333333334,-0.8560350114614963,-1.1193555986823691,-0.9570394827686213,-0.6652706945803084,-0.31386994684088504,-0.23286549154593605,-0.31065761483169096,-0.18327384918231654,0.08427823431107678,0.07770379359585264,0.09353875441441165,0.14473371473295332
1.4766666666666666,-0.8024436271979758,-1.1514978377803897,-0.9584223919134168,-0.6721129813378898,-0.3682065697207681,-0.24819447917939963,-0.2973332338860284,-0.12348773029489354,0.06642690562533615,0.10668316022305535,0.17825929536980828,0.2623535324903573
1.48,-0.8695850719267744,-1.0359449895757784,-0.8545371968207024,-0.6159536394550941,-0.34211917305838685,-0.24654850376608559,-0.14190700037363121,-0.17574527461762224,0.004156102125692937,0.12905185220846743,0.12387124715430395,0.16960866273214573
1.4833333333333334,-0.8995590385263454,-1.0711877007306705,-0.886541658353286,-0.4779960830383222,-0.22958920582031703,-0.28540755192050005,-0.14786035343448595,-0.013442864003305077,0.050099911210831474,0.22358789467179202,0.18816738255365112,0.24242547071345638
1.4866666666666666,-0.7352768675058061,-0.9726337811532729,-0.8418204896123599,-0.4588825969102978,-0.19828493137884984,-0.14941133407220336,-0.17777937781023853,-0.013418416535122876,0.12532370121487457,0.2517724535710999,0.19355686709276676,0.2242790165522601
1.49,-0.7588032916222087,-0.9253131532756182,-0.713757812213485,-0.45796051976175134,-0.23600145786683738,-0.13654415223115363,-0.11683155912312922,0.035002950008378705,0.22462667239940282,0.24057373744891816,0.35302760158169944,0.2813805503015431
1.4933333333333334,-0.6323875591033004,-0.8606686001730575,-0.7242974812457211,-0.41776073117045587,-0.20824692977360953,-0.11281086814717674,-0.07840020079306684,-0.0003070019284479031,0.28626229549001,0.3677063566159188,0.26324147321721575,0.27161101558673806
1.4966666666666666,-0.6092684969136833,-0.6488086256322948,-0.6287341453523522,-0.310270560948595,-0.05794684866311074,0.022420685909302032,-0.026087215403031157,0.1622793553269129,0.27281539793912785,0.40628337482071836,0.284984681736423,0.2711418938201818
1.5,-0.5722423014594064,-0.6747439180263131,-0.632544263052915,-0.22945465271711707,-0.03438988212773786,-0.060147684614991426,0.09846639414958225,0.2646338594211801,0.3557470763894815,0.5224794322204109,0.3998006641330771,0.3258964058613395
1.5033333333333334,-0.4851070100897151,-0.5936311952906772,-0.44469875958075783,-0.2609674979529327,-0.0021819556326163163,0.1458322442602896,0.11796263896576455,0.2738736758894904,0.42135954960923405,0.6159789584270664,0.5096961168430156,0.44559696747343647
1.5066666666666666,-0.34415253613051894,-0.6253743369661775,-0.31176636985284534,-0.1595545352180215,0.01958224949373007,0.11208784612649889,0.29052733432669164,0.4050371406498673,0.5128339889585116,0.5877418601270169,0.45554576923515033,0.4193792914030827
1.51,-0.2818053016741407,-0.5047526666414393,-0.3066535162284493,-0.18818211453639497,0.10061006152398336,0.1734093387492007,0.297994630872098,0.45861642433540467,0.6762349541434949,0.5752161320865484,0.49146439539272824,0.35568762146795274
1.5133333333333334,-0.3330660369144036,-0.40381815714905694,-0.2107429239338819,0.010260505637884797,0.12380187624456666,0.17469789763588256,0.34269152964639893,0.4184632207274208,0.5786154999717714,0.6810795275133026,0.5841589278484783,0.49383032848022707
1.5166666666666666,-0.2879661380900534,-0.41705722958928165,-0.2762005045762301,0.0993839777310608,0.12328373066522522,0.13883540833980829,0.34350018533872023,0.569973648543016,0.6161230950921683,0.6797839824327299,0.5822795174402259,0.40663472794665745
1.52,-0.21118402507706294,-0.28147821083771085,-0.18221997267960283,0.031834247029675265,0.1841258892406891,0.2325576705151882,0.31125587205349975,0.5220879355726508,0.638176247019511,0.6885152119214117,0.5696659049069469,0.49250373855620244
1.5233333333333334,-0.28623228210146184,-0.3582829766978364,-0.21187565463040606,-0.05755331496534456,0.20114568762255022,0.2626692456914653,0.37387406551658625,0.541181389254798,0.7459673016763517,0.6685730052901988,0.5198608268974585,0.47833867674788183
1.5266666666666666,-0.21586305957951052,-0.2936776385337942,-0.15709645917741663,0.08937697807267538,0.16849970409065315,0.2753109171820827,0.32736102271922884,0.5518127734791186,0.7209577366758722,0.6894377172041085,0.5627971121655616,0.4678812427144187
1.53,-0.2310476909780735,-0.29889925595301575,-0.09750174024563103,0.014206829476268189,0.2219022556493,0.21715833070239,0.4171298855951684,0.5485157919315928,0.6771859357631034,0.6952174696423045,0.4539495912673651,0.507598440791517
1.5333333333333334,-0.21849336985645976,-0.2591667907548855,-0.1293599894036498,0.01844570663152513,0.22211340875095556,0.09443767057416652,0.33805254187370015,0.40310953335755384,0.6942728151058374,0.7274731551934823,0.46492688783623976,0.3439392449991433
1.5366666666666666,-0.2856152909520933,-0.30283412571342805,-0.2094170295708463,0.06883276839902419,0.18062841171206345,0.09741002110017288,0.30654518599496605,0.5082055030029968,0.6565644686650489,0.6894936390868877,0.5356734989268557,0.38054420601261285
1.54,-0.33639668080195767,-0.29124115232663167,-0.21262203076580655,0.03211058754377697,0.0886252159352956,0.24330909720487198,0.27109684706909,0.4277876200737212,0.6902813591463698,0.72766883735825,0.49325493166326806,0.373930058717229
1.5433333333333332,-0.3745774902984085,-0.29757191773243147,-0.22539378173681002,-0.024698143188403163,0.10890219850510072,0.05065700230945538,0.3213964583575967,0.5540436814329762,0.787256973671044,0.64088576781892,0.4126609747720035,0.23848470422484783
1.5466666666666666,-0.3397795548958966,-0.32953772007891546,-0.14028740038211174,-0.05157133833908838,0.044579237828833405,0.14217169327156176,0.13330496125933522,0.5296817014643402,0.6590176703583203,0.6001685658324031,0.25817735147042997,0.1944226881656491
1.55,-0.3169972435987801,-0.2726469795557574,-0.06715270959702055,-0.028491073226396324,-0.04829374028781344,-0.006951094087904237,0.27099241750876485,0.47408777918697587,0.6087320284879333,0.5390363162501404,0.26192065201715636,0.1823445745874993
1.5533333333333332,-0.3146411167689257,-0.28452588982163146,-0.10294975337366423,-0.06597055008063633,0.025185970775677698,0.005072243386890907,0.14952531152174633,0.40640135060995786,0.567818992727494,0.4838239538797474,0.2622399514343252,0.18423576717777773
1.5566666666666666,-0.2038821650676822,-0.29479522360865373,-0.26059387683774315,-0.10530633972468068,-0.016319761794757113,0.027044095241191883,0.07568163753319838,0.36228556257127553,0.5292344287378822,0.49643110447448974,0.2696683772118659,0.07705538552389089
1.56,-0.24066017601010872,-0.29964028678016985,-0.08277140523619664,-0.06362410254930131,0.09860095394272628,-0.05542201308601714,0.10409631640423408,0.3829349546206303,0.6373836109333965,0.4884112596435122,0.20735022625912541,0.1644700261480504
1.5633333333333332,-0.3338718279588089,-0.21988627495188476,-0.08822976391221049,-0.01973636475490703,0.04241055550614958,0.06366284181056564,0.06397214985015094,0.5254370146025225,0.6485824333950602,0.40380871337507523,0.2595294064032855,0.06636513341441411
1.5666666666666667,-0.25339549852819665,-0.2474664578820765,-0.1871634574146457,-0.028248827387395918,0.013547562024204901,-0.00521756380966412,0.19296920276669924,0.41548337493287396,0.6148333082045202,0.4998868519782932,0.3726308448190859,0.21203291951585432
1.57,-0.2723555444900873,-0.2222871929603927,-0.09443183630545449,-0.06640252155667058,0.005912110652124193,0.02870333400500345,0.13038663822090965,0.3627006481695994,0.7312694631636263,0.6582749183257205,0.32657996814802653,0.19377319165133036
1.5733333333333333,-0.2449100962248944,-0.16957363809432024,0.010347928187782157,0.08233572446625492,0.022879108206589983,0.013422251369447904,0.21974222513201142,0.5697220722787155,0.7118129256278192,0.6325817808938093,0.3483775691669058,0.293389575461524
1.5766666666666667,-0.19896441418667055,-0.05584276731465887,0.02067732098624237,-0.07197297219613356,-0.010033196707540153,0.08575769536467122,0.30237482036837554,0.6366317440150091,0.7956220452173369,0.6377146854700708,0.3243307038707991,0.2679912661421534
1.58,-0.15500223412548883,-0.17300614554870367,-0.03351511638211992,0.07658092584304241,-0.018835849476515842,0.16085565840825297,0.24987652457623521,0.6916491231572331,0.821752696771302,0.723161734998435,0.33576833151279734,0.2611343806742766
1.5833333333333333,-0.1820056562351537,-0.033571516239722064,0.10101230713340631,0.1020855870389327,0.05324102232215418,0.10568178418814422,0.3093770477447873,0.7092903855676737,0.8498863355527757,0.6542922219503231,0.40119847430120426,0.28084120052592837
