time,lead1,lead2,lead3,lead4,lead5,lead6,lead7,lead8,lead9,lead10,lead11,lead12
0.0,0.0748536101450487,0.0884941462578976,0.059027376621278965,0.036815989845227055,0.04077053134095515,-0.018560953210936756,0.06794312274767576,-0.07698931537433856,-0.04595424912779417,0.08575335003316213,0.019885312032377388,0.027818060513978074
0.005005005005005005,0.06208572702509273,0.05296570876381214,0.0004933091474487658,0.0015301049895321585,0.03274024764706672,-0.02354730278065362,-0.05180539202943829,-0.018462352944927794,-0.02032293454085381,-0.0012685357490958525,0.03094084319371979,-0.05312479116945901
0.01001001001001001,0.07335070678998336,0.0014209379427283717,0.03258689388846043,0.02720668811408537,0.06696031502212638,0.13270038879651036,0.0894693441298462,0.03470280696381791,0.08214916411418852,0.10756183406864395,-0.10030387032677314,-0.004195668984280476
0.015015015015015015,0.034349122370575004,0.0861327180298885,0.047215010675437104,0.05353370759053587,-0.016329003499958375,0.10999569594589874,0.10351652879982248,0.12350048439895699,0.050229214023371056,0.03423592258424511,0.07248407681924918,0.0777840840814587
0.02002002002002002,0.1555016632351962,0.09201528308462024,0.06027641318833178,0.12192467109400874,0.06119552025422467,0.12343161512653122,0.07094432443088938,0.09702450274624137,0.014537555229723761,-0.009094284578587714,0.09115303731618073,0.042963025688461595
0.025025025025025023,0.11412741485711407,0.03867042223536951,0.0743756090325397,0.0775722969284885,0.085165147925769,0.06111819389924626,0.16886081218491938,0.12635636596353356,0.06749025518710919,0.119569842093992,0.04580203890651764,0.12174914858745173
0.03003003003003003,0.145438234279043,0.13418254642689456,0.10835166691318676,0.14538293431218233,0.17219862622736204,0.07556383955767831,0.12214684193701772,0.1065356341905218,0.07979881620658161,0.17300207874556378,0.24222787565063952,0.15607857963829302
0.035035035035035036,0.22028375360894584,0.18231760025715116,0.14247643272784755,0.05435536404158019,0.1317999879513956,0.19273495754469938,0.07613748735589598,0.16710417440769126,0.12659249081288362,0.15030002830683456,0.13405551652319472,0.16889803521622881
0.04004004004004004,0.16692505743364425,0.15263778658785082,0.15739294022214487,0.1583180898345307,0.1365999846065878,0.060839632842026786,0.17486308306539064,0.07304957299868858,0.2003415335896932,0.06645904188908494,0.1928929677994552,0.12707884402865627
0.04504504504504504,0.16162905826724763,0.2017735876835469,0.1022749982741494,0.17589133641376142,0.19426994043125065,0.17681041555305538,0.21297503120245348,0.18235153713250143,0.2182812751421675,0.254777354107647,0.21089441967441958,0.2276545692208043
0.050050050050050046,0.30026370686529985,0.17986507494813947,0.18575404968854892,0.13405478673795093,0.2430453562154192,0.26998218213286507,0.21613557522778548,0.18604499164597227,0.20353515059310376,0.17954237116842967,0.22650685579966817,0.2296861463465904
0.055055055055055056,0.19941738828419922,0.18375506206599965,0.16964334091624472,0.2428366633987596,0.1752153409880938,0.2610381682823672,0.1923711604460339,0.32128234079563867,0.16606279880125438,0.20038411153455965,0.23160455371913233,0.10067253935224675
0.06006006006006006,0.22796779899386102,0.22063232049858095,0.3004548233574041,0.16682826041568144,0.18260821474012834,0.15795878244413084,0.20492412821701425,0.3131964548614927,0.26971608227641397,0.23202958294247575,0.26865004270142523,0.258073892584616
0.06506506506506507,0.2733835894731595,0.14821314585871137,0.21587842966938975,0.3038417824987095,0.3239122078522625,0.2691255154647435,0.2603722274263093,0.22934885257480747,0.28732202656532363,0.2827914820942198,0.2502304151538227,0.19452433296646876
0.07007007007007007,0.2692797348426214,0.20978455641340793,0.2822682363493857,0.32012024046350274,0.3084426975929164,0.26417556009648246,0.2006548985951025,0.26680366317370274,0.32825262011233786,0.2511581498495234,0.3193717917920849,0.21265395391241915
0.07507507507507508,0.288779434769142,0.27627104948933034,0.3632497691712922,0.25206803502542413,0.2472326176399519,0.25766649605283826,0.24988396023897427,0.3342075388978246,0.2512786169839084,0.31933323279402465,0.2883219265472236,0.26367371722835065
0.08008008008008008,0.27035611107174407,0.25130546687740907,0.35948246692431907,0.2558823625083686,0.3690760144464859,0.26125848494866066,0.3008561285828878,0.29575050974968153,0.38799062599288664,0.33990645108204803,0.32610532791916214,0.2542991590574327
0.08508508508508508,0.4078449078123185,0.3387286527172396,0.41058264314674675,0.26633078803304666,0.3868211823304369,0.3361170066113715,0.33524474263981985,0.27684514750613537,0.384099972103783,0.26797262531023297,0.2995332860537016,0.32435960374712247
0.09009009009009009,0.479818076754275,0.30824325302025707,0.32537785290860677,0.27826635371723685,0.3734790156160538,0.31246354335335275,0.3017277076257188,0.28412874084460116,0.425462814177495,0.2643744712856667,0.3495443378815302,0.3393171748381385
0.09509509509509509,0.3158173250790853,0.3174841707211989,0.388361646340378,0.4123284693838612,0.3611363534717513,0.24218153471427317,0.2837653349727014,0.4342217797348531,0.3179656566405654,0.30654315672137217,0.38558245160193305,0.3219222149003582
0.10010010010010009,0.42810788459356425,0.2576090499611132,0.4670190551024669,0.4491028129527551,0.38845611875603897,0.36027877556026605,0.3096497368187502,0.31715435838110495,0.4026094420309899,0.3242924332564393,0.4377409537205924,0.3126477692701255
0.10510510510510511,0.39422270448110686,0.38060766222269177,0.41705599819330536,0.2727864734047797,0.29622285425734407,0.40972580294948063,0.4178013729729065,0.3720258028951833,0.4147314496518053,0.4281671903152077,0.3403327013270806,0.41478839021231706
0.11011011011011011,0.4694073366906851,0.3292944934387147,0.3889162783498629,0.47271936640120354,0.40171402816260376,0.3357475691004158,0.3881918121886499,0.3741891589567753,0.3784814135175808,0.3543133437492072,0.5327674088498412,0.4527790087716037
0.11511511511511512,0.44721173876062115,0.33054967491551446,0.4064334449849006,0.33846829202706225,0.3844364224308805,0.4092702603491811,0.3723035060101873,0.3844084272610268,0.4056744343130431,0.38036529591999607,0.4261350936554288,0.3658333145921961
0.12012012012012012,0.4121343938947669,0.4667232784086991,0.39015339071988203,0.3748403484639668,0.4462086133807543,0.422740116622913,0.4637103161964149,0.3793244070211456,0.354445725856185,0.4805446297061998,0.4561541289676177,0.420303984945778
0.12512512512512514,0.4541213160363604,0.4706419836405373,0.3872757752946631,0.4525451588685546,0.38617967599490405,0.54354158286356,0.4169808641914402,0.4862414262578626,0.4496740933560079,0.44557462421520544,0.3998041843983331,0.3999583134629984
0.13013013013013014,0.4059487239024503,0.3526138563697546,0.5631402118245779,0.39725135198898354,0.41386405193011383,0.4474243865070126,0.4594048632721488,0.46276409008803204,0.46558722304693495,0.5014330574624235,0.4319353653334069,0.39261045439992587
0.13513513513513514,0.4970811480230008,0.481610580741133,0.47056548353732663,0.5193189005148798,0.42115300957781143,0.40623901471092916,0.4348611486335196,0.5047347748953852,0.44790730624631975,0.48082539060571305,0.42195444431349405,0.46710276677678503
0.14014014014014015,0.48954815778343436,0.4345097949963316,0.47073298703886884,0.5032225436330299,0.5299658944173801,0.4648193041209823,0.48690077797472525,0.47783270794668564,0.4339518136808272,0.3862467665490186,0.45862265741674696,0.3750165763451238
0.14514514514514515,0.433926650505739,0.40637115049373423,0.39201962524501244,0.4542594935180979,0.4491534435336419,0.5643061733894366,0.4184964428354039,0.4470397362050542,0.5035246247206393,0.4266533857746207,0.46134678746839614,0.4689884319371121
0.15015015015015015,0.4915817262605483,0.4717931851602259,0.5600917340828542,0.44560204414153404,0.5112429702050868,0.5408615816972988,0.41639245859131024,0.43558318918406935,0.47157896959324125,0.39319382662489744,0.443424941487235,0.5534399945984024
0.15515515515515516,0.492561543441966,0.43549795898552823,0.4325800176085699,0.5329451239753671,0.5041608407968609,0.4854017856832466,0.3772495369638685,0.4383462860239935,0.49678907654177445,0.5650257036023923,0.4831791459338706,0.4289886504405896
0.16016016016016016,0.46217048487905765,0.4898498050741197,0.48428762162189276,0.5216288497786836,0.49445558534850437,0.5123747155582392,0.44500295732145856,0.5104986937834856,0.5094147839974125,0.5086045505737073,0.5264537181329786,0.47279497484826344
0.16516516516516516,0.5599833011352167,0.475730713379751,0.48655705083232165,0.4903735287861004,0.46301835684804826,0.5501460641308014,0.45921983924887183,0.4429765508790375,0.48178823878552873,0.5957102503744048,0.4840324764284491,0.5111979582853843
0.17017017017017017,0.5294973066513505,0.5778328934922676,0.4580216050346054,0.4143924888564192,0.4893570559583354,0.44575251055035187,0.4438208218207228,0.49228844314314024,0.4702655252877294,0.48889046101306033,0.537339009865886,0.3975642509862063
0.17517517517517517,0.5913202235195225,0.4793775851597229,0.46606592835886484,0.5045606869120142,0.45379519733231166,0.453492304891558,0.5181433555393063,0.5879586501135012,0.42723725645251526,0.4964568760972775,0.5063958718529458,0.44080122388054654
0.18018018018018017,0.4767031056861,0.4185549084647476,0.48484593914116897,0.619347399527951,0.603628913124572,0.4670887571897119,0.6252537963746848,0.5476152904758194,0.4855878939933425,0.42715307692585736,0.5429910827923521,0.4193604485275427
0.18518518518518517,0.48016726076917493,0.5285705476655146,0.5315405370528401,0.3966827606618883,0.5535209506798757,0.5813216492146301,0.4755166307211663,0.6094932497548612,0.4506004545472784,0.5122816231193275,0.47205930872737323,0.5354230045291118
0.19019019019019018,0.5386438086253114,0.471904747796727,0.5383664253422128,0.447395097685459,0.48055287067341274,0.5148519584080548,0.5026632108798246,0.4835813242554623,0.41919363368523394,0.4385626390408121,0.4328342153701151,0.5489607452838465
0.19519519519519518,0.504924942220178,0.5231894272370459,0.5354844497490031,0.4183404806719339,0.4992185125229498,0.3687486496829231,0.48414737722262347,0.5341482197045624,0.4420973241434945,0.5982198601500667,0.41530002202115285,0.5006250708771793
0.20020020020020018,0.46719674055374455,0.42789346482944,0.5004737212198394,0.41838996364943226,0.5013857370619472,0.5415820307095657,0.49886657495435294,0.46938166477814713,0.4270096957705519,0.5263878609776776,0.5115157725072499,0.5024653121909177
0.20520520520520522,0.5121138312886937,0.4389518678758265,0.4941160702275897,0.4893435870234099,0.40968447907623984,0.5032142600811512,0.43031275843053207,0.47188580830696436,0.4106477585913619,0.4169342153673889,0.36403512706341346,0.6025415402531609
0.21021021021021022,0.43239446938995313,0.3781240936954435,0.6121911138054175,0.5151302461699175,0.4260170891330045,0.51516949852479,0.5791183378435858,0.4185045834787717,0.544621580076635,0.4547246739845251,0.5068652826452184,0.4277417445934437
0.21521521521521522,0.4475109754335269,0.488956638866403,0.4462214331607001,0.49448357147054545,0.5666883888261656,0.44296023590514577,0.4883577431055258,0.3651240496252547,0.5095333741583354,0.4330507739162378,0.49661815060295933,0.4580387174809838
0.22022022022022023,0.5399201706711825,0.463490521122924,0.48325624459879163,0.5488325113997601,0.48750703212815666,0.5500426872249661,0.5130827667614998,0.5366910890823045,0.4480215557699098,0.5587072338855271,0.45697341930925867,0.5307774882779605
0.22522522522522523,0.4162437365918675,0.4397916516956077,0.44529824225980763,0.437951839327083,0.5074870731320347,0.49857306650813654,0.5109578947876398,0.43183059378401184,0.5189024107526158,0.43866802310906217,0.4506203503312846,0.5255868339626447
0.23023023023023023,0.4601750013908684,0.3599159133021742,0.5277483274255448,0.39641907419870864,0.4521380342373604,0.486728904355767,0.4791390623188897,0.45104721831730205,0.48718025569323586,0.510121778551689,0.5509145354243515,0.5574113377163065
0.23523523523523523,0.42422536616105905,0.505011188009031,0.5999075874222536,0.49942803352324994,0.4860047282744312,0.4634318417113937,0.46308265700075035,0.5228677773597473,0.5311067820943022,0.46951671926142674,0.40505507916406414,0.5224517774977573
0.24024024024024024,0.4606633714579178,0.4477386162332363,0.4132617376856053,0.5178990304419897,0.41921882108509184,0.4297911238745598,0.4487347125256643,0.4396125629338742,0.5173132937524394,0.4447926311767884,0.5035433666039015,0.409106963802015
0.24524524524524524,0.3677206079811924,0.4098316604783602,0.4533457526334498,0.48436833296164583,0.48137699415110746,0.40704093624766846,0.45076192178140717,0.38154503315952987,0.4616518925999247,0.49200697583644515,0.5131545232599559,0.4231249498157779
0.2502502502502503,0.4457902613232689,0.42921915678627715,0.37052332354973494,0.4227623215200972,0.4090597804014394,0.4374303338221493,0.47157368455419696,0.4961511014732401,0.5531246788296136,0.4954711143369369,0.41599533740017985,0.48087451610464405
0.2552552552552553,0.442078520608373,0.470365638834626,0.5239776711067835,0.39022999358050314,0.39561382647398413,0.5064363224240765,0.47311420440017427,0.505765469925909,0.4866093477505709,0.46451415216137487,0.3599762690195642,0.3810182031112993
0.2602602602602603,0.3986051775696005,0.5115361512068669,0.37327791660121523,0.474095313980413,0.37641243740600916,0.4492612542083971,0.44510696357252544,0.44474372196458967,0.475773241950772,0.4653384600045439,0.47393939607436136,0.36101547948784607
0.2652652652652653,0.44713595226092556,0.42617074806867683,0.42511859455537676,0.32301008542812093,0.39458140056917085,0.5293857826086541,0.3744744047121426,0.4481004402238515,0.47086174745984677,0.44251775133732413,0.34828699093906634,0.4052789944201609
0.2702702702702703,0.39313727346130745,0.36606814832565027,0.432135884851644,0.36386982982864274,0.3884005281242501,0.5014474778504118,0.35454443016542403,0.4694786645101356,0.4585153364528056,0.4141145636364565,0.3192701588800753,0.3933488910151968
0.2752752752752753,0.471938519060171,0.36019369717870253,0.475081804084571,0.4067004692275568,0.4175143903295581,0.4051017579367481,0.48681968472678555,0.4020769035200735,0.431330887981613,0.4211107631777596,0.3543086014819236,0.5277145369782678
0.2802802802802803,0.34374248480269354,0.393432065649224,0.29057449915823197,0.33377114705975053,0.4054154675518552,0.3759111713315534,0.46915840166141776,0.3895988426207384,0.4122159499683109,0.37742149648044526,0.42273468554976484,0.37642829259936916
0.2852852852852853,0.4331270965758664,0.3518187228487534,0.388807831483989,0.3434242107538591,0.38148129551899024,0.33787969697924874,0.37796321301131486,0.3908112689990066,0.3539247350838271,0.43215465411090953,0.33672455968885767,0.33778266469965
0.2902902902902903,0.3573786974700792,0.3738748806681623,0.3759242794650971,0.37458552704250087,0.3273716018536646,0.39610187347274456,0.3212823796149652,0.3484152499563737,0.34642320741618476,0.3034761535519702,0.25374350455905725,0.3223068316588937
0.2952952952952953,0.37511856850304354,0.34952220378712345,0.310723885993138,0.27452758880078726,0.35714976124001213,0.2874267251988741,0.24903401074644893,0.26018776088515805,0.2969053379160147,0.3955141192233526,0.2398716298901614,0.31355324081037556
0.3003003003003003,0.25018367202100183,0.30204057642809184,0.2688174773840494,0.3614769301833649,0.32920773421414695,0.36015733426622776,0.3493894289964327,0.3742149783780554,0.34233442886337345,0.30148437283768315,0.3647548424922462,0.4027361685033193
0.3053053053053053,0.3592223358710535,0.2723853404226095,0.2851234343866772,0.26212554369084784,0.32547571885500726,0.20589491432382212,0.2870491183764422,0.3926516065040281,0.3602917318636782,0.38498906349670936,0.32415611511487596,0.298555819707112
0.3103103103103103,0.27601146783724173,0.2698560589239685,0.34403282760953013,0.22329979588667462,0.3221884350099613,0.29641777834829924,0.20226067057111494,0.32714606058099743,0.22122872542554795,0.1896676108398248,0.2822970969831011,0.2856521341863603
0.3153153153153153,0.21276890309142876,0.36766105225323,0.27801624372322764,0.20157749041148615,0.3195339059035094,0.23233833358121853,0.2236925563786698,0.2382966863259592,0.30315165885408324,0.2536458601206677,0.27298289709123114,0.22604197954989572
0.3203203203203203,0.2536687033661079,0.2580358468432353,0.3154411920487876,0.18023137306486253,0.1550851662599954,0.17732318396468705,0.2822547069783043,0.28562094129473947,0.2607612369734935,0.25822147903012876,0.2991130719945596,0.24655533417075498
0.3253253253253253,0.30688657616874593,0.2921006519531263,0.2233818225082415,0.27552124052954213,0.1947897944834112,0.2913456532193831,0.24556502671247435,0.25049282550586505,0.1701975137377788,0.17820481182180803,0.22624150932325568,0.1886587520762116
0.3303303303303303,0.26057950140365804,0.1601849078719777,0.2355616288137182,0.2198268193067658,0.2918850202933968,0.2789237285334442,0.23486675666770512,0.25840160265428086,0.2095740696881676,0.20877574424013576,0.24659871618292187,0.23973518769518473
0.3353353353353353,0.3091542669636095,0.23687022318464818,0.21500282216404107,0.24291024768562985,0.20067955700003542,0.19828084647148583,0.19640762915721854,0.23879591166283365,0.2524937044238863,0.1331889296351542,0.2122562624128352,0.20212523232108365
0.34034034034034033,0.197077134066744,0.15990664780043293,0.15453855172711628,0.23116455645073863,0.1345069469531341,0.25953020658512627,0.1946684723312832,0.19327966185450435,0.1540984342957961,0.08216238907496341,0.18655104248902246,0.18775476176710698
0.34534534534534533,0.16228411817126323,0.19497478139256053,0.2305515659073144,0.16583392953380358,0.1367838805475614,0.23855025461469262,0.11643352987414107,0.16555181473172303,0.10200700657739259,0.15704131054218137,0.20842639885889708,0.053101328223683436
0.35035035035035034,0.1857529372131127,0.09056560999101221,0.1151683797204648,0.1520365568355226,0.19791707972758218,0.16626938856112483,0.037900506799429745,0.21122203988745328,0.21871208346020282,0.20516045298589736,0.13143582485986943,0.1346944108597151
0.35535535535535534,0.0916549986352868,0.09411320931174401,0.19280964163577036,0.0831549938639644,0.041762869997774246,0.16132863669303601,0.12732299857370472,0.14082819618661097,0.1402055867902851,0.14249616279198038,0.11616482122312294,0.18327307507166407
0.36036036036036034,0.18000999388832467,0.054395099113273324,0.15965312260003678,0.13406431825220702,0.14101733271530945,0.08351897411641956,0.1310400699155979,0.15861700953487892,0.06038360195181794,0.14242623944057647,0.02258717694078967,0.0474919399706002
0.36536536536536535,0.03433866158751279,0.02329136166586289,0.051151815879831065,0.08387235970315343,0.05960383563820036,0.10815581849489231,0.09498609106155652,0.0020709585337322783,0.013160563469387931,-0.0016466291174718345,0.022160207317989573,0.06613806912984985
0.37037037037037035,-0.052057515760216666,0.08218837390671552,0.04361943360026985,0.12266120381757628,-0.04736877822478085,0.05013422895803729,-0.03684378362156898,0.012859875490369092,0.07706827471565553,-0.007335436472300089,-0.012007676870226303,0.13155265104342412
0.37537537537537535,0.03841592154438811,0.046857824692530525,0.07599872495325716,0.06882993377942051,-0.023305308188932526,0.04531760287653708,0.05923344206619853,0.06818217505554457,0.0757557169878653,0.06491251525521952,-0.008930038266355154,0.009540638659603105
0.38038038038038036,-0.02251283820169108,0.031131830802370836,0.13064096212294568,0.07954769962119496,0.050346519100448316,0.03590659500881109,0.03088051635018655,-0.04366311449805314,-0.07343453670469569,0.012202413794414835,-0.08971507844746496,0.057956265914945015
0.38538538538538536,0.003447881504203366,0.001004723021621959,-0.011800825938629095,-0.024226199970535513,-0.004119621493724795,0.07842273649142666,-0.05485544602922167,-0.0990587263159238,0.03744308594415801,-0.07192242195340302,0.02427749786730143,0.06884653936157066
0.39039039039039036,0.06505044752686395,-0.020483886030194978,-0.04219588439007607,-0.10318090057610033,0.00049098673095219,0.023921289688750413,-0.03608898365905114,-0.07815723188218812,-0.06051684405976317,-0.06307845253602322,-0.05924318931895195,-0.06528301260831679
0.39539539539539537,-0.11172828718409666,-0.07660115541653739,-0.08931617001079334,-0.00957081448604314,-0.08603100451690426,0.001065769359927221,-0.022661426538157642,-0.0012974533558065965,-0.019645745644212582,-0.0009283960175767644,-0.07264569625110137,-0.04580165025553894
0.40040040040040037,-0.004803440360285197,-0.007016971507946751,-0.04683458313160346,-0.06938497037591318,-0.12231935764485721,-0.141343230173911,-0.14242897608277216,0.04083494559007031,-0.018187490922824123,-0.04774312522060431,-0.03502805715845527,-0.14780314241499903
0.40540540540540543,-0.09428151594400622,-0.09569370507077762,-0.0860646385066779,-0.12442315342024836,-0.10738536277881579,-0.16482512015767864,-0.05567706977141738,-0.03615841076982524,-0.09030538526023288,-0.053278756855244386,-0.11664266665121412,-0.07560243679414216
0.41041041041041043,-0.15480068831175137,-0.05610124451269058,-0.07713212040863425,-0.00014652957240068876,-0.03204594987068421,-0.08143220422174377,-0.1823451176706069,-0.06864846023892625,-0.19389107417419696,-0.11677339034053284,-0.08591592866953793,-0.06748153566371198
0.41541541541541543,-0.05330182413114978,-0.10697994402760866,-0.144967626145803,-0.1834907858150231,-0.13493000789872298,-0.12076246342090906,-0.2013327036163527,-0.1707290915501857,-0.05600944626797194,-0.15195456785082928,-0.07586901062014102,-0.16588825378681907
0.42042042042042044,-0.06358878271777094,-0.06663644110746081,-0.13925619248721174,-0.15570449405057807,-0.1663564559697909,-0.15272765982508926,-0.12879682484664226,-0.09949338383229886,-0.10155584904509944,-0.2289163979083484,-0.12206734093775304,-0.13360028529216705
0.42542542542542544,-0.13272649885427226,-0.08660849063149118,-0.1696306740217202,-0.12831256455534568,-0.16044081881946307,-0.2709818678318928,-0.16762985995023755,-0.22325035237227756,-0.1438517032470923,-0.0842234311148449,-0.1476488784284288,-0.11060972074697242
0.43043043043043044,-0.27826566709494827,-0.11738500602600647,-0.08865237441999561,-0.15354717055645023,-0.18828741068240734,-0.2510784043800157,-0.20921960041037543,-0.09931607844669445,-0.17671655652046453,-0.1918832895147461,-0.12703125960900197,-0.10475878950244877
0.43543543543543545,-0.17066972136690767,-0.1971942130627909,-0.18245400875450524,-0.24602109442054385,-0.24346887119197458,-0.18435345845187837,-0.2198665319268951,-0.24796555884214003,-0.17244326230388532,-0.18561160148947445,-0.255213614808653,-0.11962347018556849
0.44044044044044045,-0.2740764375565264,-0.27541724321050604,-0.2005785228116445,-0.17278649580891892,-0.23833066863959063,-0.2479941492086692,-0.18754010707191604,-0.2312767884286153,-0.23425656432096154,-0.20519609324977306,-0.18740959664730802,-0.1383920192825477
0.44544544544544545,-0.20807985359344294,-0.2100448446016617,-0.2385417241753329,-0.26823095687593246,-0.21177293637445732,-0.3108991614427516,-0.2422101095176637,-0.1732901947291212,-0.16088755928542672,-0.1951330635925984,-0.19515619267460776,-0.25906027838611717
0.45045045045045046,-0.22274457944701237,-0.29854455841458977,-0.20982820190912665,-0.24435540021080437,-0.2561705410692435,-0.2794371713496755,-0.26881315446902354,-0.23067472732095018,-0.2898810295799083,-0.2177535292394057,-0.22369875518556792,-0.13273655913201637
0.45545545545545546,-0.3393820273290323,-0.3108299933410358,-0.26179898576800714,-0.26109944024312093,-0.2854446762814816,-0.20603968664889355,-0.2695736401857588,-0.3073906214394045,-0.2746118478835775,-0.28052215239334083,-0.3632826533412448,-0.28428054675008874
0.46046046046046046,-0.2387803383976203,-0.23299141712078003,-0.2807119666684964,-0.2494917800102879,-0.24202027497211143,-0.24262691143218357,-0.29705056572847105,-0.29261320013916814,-0.3223245935526222,-0.26365397180993205,-0.26142925791857297,-0.2415535364491503
0.46546546546546547,-0.3173068132580069,-0.32707754266766026,-0.2098511181668049,-0.33637105201535483,-0.27879176153625207,-0.3435898597744398,-0.24304493751914813,-0.3526270349773589,-0.4075011376751954,-0.28984701101642485,-0.387205490696991,-0.2567223546743647
0.47047047047047047,-0.31499799782384047,-0.36122554000070245,-0.35369792515819654,-0.34554163600352805,-0.37177699685996846,-0.3482943661229746,-0.36692856067189816,-0.3775133316731336,-0.2886465189002661,-0.3567396376259797,-0.29731052088047233,-0.4038350950019012
0.4754754754754755,-0.2807100932328629,-0.3570814845331942,-0.3754290176392045,-0.3179819681174712,-0.27628819606477495,-0.3992719121194478,-0.4165391081222849,-0.35767541104903344,-0.25685424140472046,-0.31316421462862065,-0.3419916588109349,-0.3724845421085486
0.4804804804804805,-0.3683981150641813,-0.37607172606518335,-0.29471608918386416,-0.3901434010691538,-0.2885650575497896,-0.2741266358808426,-0.41182638123754156,-0.37862004337957716,-0.3536135330646357,-0.3153387170170236,-0.3240649125581448,-0.2732366320423389
0.4854854854854855,-0.30929001692189223,-0.3510225803783578,-0.42482927827391953,-0.3861075904551558,-0.443275642061437,-0.40780586130380436,-0.3963657949388339,-0.43436005249674936,-0.3598523614671853,-0.35062538427913237,-0.42059246810361933,-0.4339726827539476
0.4904904904904905,-0.3803834139576919,-0.3690954583768026,-0.35974689859015235,-0.3568085760494613,-0.3572352126226901,-0.4054530503757268,-0.3489067305679515,-0.45510805416740485,-0.35024815541019216,-0.3845419806378336,-0.3363209770762739,-0.3860549121350808
0.4954954954954955,-0.3863765145773862,-0.3106514278615571,-0.40570748660502426,-0.42208789217603115,-0.3395461284657112,-0.44921967877316016,-0.36878312693548304,-0.33378195110679176,-0.3835701925746555,-0.44900629434077904,-0.2686289892817241,-0.3487552460821086
0.5005005005005005,-0.4012127973085622,-0.3865488925081711,-0.40076478680140143,-0.4102545224475981,-0.3313164426426763,-0.37879562595077115,-0.4332453500355338,-0.37609745702651426,-0.4218828647662284,-0.36314504697349964,-0.44108964711288934,-0.37619176938166443
0.5055055055055055,-0.4560323294060629,-0.43308494152997584,-0.4019531242873319,-0.48630328208543755,-0.34512604567948374,-0.4765620040235944,-0.4222940229601603,-0.5620485184046007,-0.46354044827355145,-0.4068137890575324,-0.38417148917393873,-0.46332511419241124
0.5105105105105106,-0.5018110419686244,-0.5070885310125284,-0.3231285366650784,-0.3842142258220472,-0.4398726502714351,-0.3671722110349498,-0.5060340423651272,-0.45286650681128,-0.49644388668290135,-0.4468145106527432,-0.4602677341224768,-0.3799418902611066
0.5155155155155156,-0.42442642713964357,-0.36649339228393013,-0.3719968973006046,-0.39872119120574256,-0.4736389136195884,-0.39241303048520093,-0.4910382226410729,-0.4699534112881384,-0.5218256328161578,-0.4218202786521599,-0.393158408506901,-0.4288491076229167
0.5205205205205206,-0.42385428998050206,-0.477963877463529,-0.4237392115232191,-0.41914397645287893,-0.4630454914344426,-0.55134248441383,-0.4620087172675565,-0.4338908681907541,-0.5443861476882358,-0.4825554231026459,-0.4739257503609135,-0.35892085070030827
0.5255255255255256,-0.511042573763582,-0.5197141525299896,-0.43810813014776384,-0.5023873073402465,-0.4857814646625338,-0.4623209461576389,-0.39252302684152485,-0.36651765583617035,-0.5269065106947649,-0.5018005000064716,-0.4787129058287479,-0.47706990502291724
0.5305305305305306,-0.3633259027586896,-0.4730059204894063,-0.4615750300581526,-0.4511729355429288,-0.4237097234699026,-0.42799010778679364,-0.4110485266657747,-0.4403573249353219,-0.4496952227292403,-0.47771377307822527,-0.4923205228936679,-0.5475537441318509
0.5355355355355356,-0.4603647930839176,-0.4098948924452648,-0.43958883994722003,-0.47056920815084974,-0.4323174001561707,-0.5517625263921353,-0.49867273516147803,-0.5318723161880485,-0.46631037348102156,-0.41931303878753295,-0.40075657379710133,-0.4383586752937433
0.5405405405405406,-0.5013130363469658,-0.5226721535537682,-0.4201736871786312,-0.449984125746527,-0.551526774154367,-0.4704802460158135,-0.4724820598644231,-0.41622582013901466,-0.47782164395912463,-0.4433523584284766,-0.4784539742130636,-0.4651211710810744
0.5455455455455456,-0.4728570107215407,-0.4133848557101408,-0.5626132344776672,-0.45004333888305376,-0.5234395504722017,-0.5341982005000825,-0.4403597058281242,-0.4399709781449544,-0.5520445993068978,-0.45007075302249117,-0.5501074437262992,-0.5447554298182534
0.5505505505505506,-0.5631422525191516,-0.44977315282896047,-0.5179922128070146,-0.5235233879464726,-0.4401041104037986,-0.4664038360656872,-0.5444411474744159,-0.5233459494297424,-0.5119821140283715,-0.4366311932093667,-0.45118650177056,-0.4784101834066052
0.5555555555555556,-0.4148560070721138,-0.5128785435425419,-0.4840610690051886,-0.504807714316374,-0.4758340238136413,-0.4437295968963802,-0.5041235387180153,-0.5048728127124193,-0.5542202583844646,-0.500956891215201,-0.5053348664082473,-0.5430986187967959
0.5605605605605606,-0.5512565099928641,-0.44405505102099774,-0.42915359240209494,-0.46163992059196474,-0.4897976715585488,-0.4548676784400245,-0.5090120266992091,-0.48750131964883814,-0.5151579464879223,-0.5100451997642992,-0.561920548807573,-0.5168515880041227
0.5655655655655656,-0.5390168633416071,-0.42770906891390104,-0.5291290532888635,-0.41184287529702646,-0.5386414035465816,-0.4799039417005785,-0.4796863216060925,-0.5050707653423654,-0.45798323481183534,-0.49881720258854795,-0.5127417373997747,-0.4813493647569228
0.5705705705705706,-0.45744498560006785,-0.5345774756947426,-0.5388552830017832,-0.5747231699919908,-0.47797122594419833,-0.5162533989831686,-0.4914459965915482,-0.5657191895926958,-0.4817621704297718,-0.5398159210994282,-0.5148318255794991,-0.43376138586529017
0.5755755755755756,-0.37491583330962863,-0.5725404741583331,-0.5677277011197365,-0.4478683552088665,-0.6318142967957097,-0.37890460488361455,-0.527508744483373,-0.5092392522178879,-0.5548820845741098,-0.4614221204877889,-0.5608005386029857,-0.6209717042362884
0.5805805805805806,-0.4704906942751581,-0.42839825234708984,-0.41414693444017686,-0.5133809232705553,-0.4784159882021568,-0.5761979478634056,-0.5252318892885074,-0.5316540983755066,-0.4211013572931287,-0.5250777694390497,-0.5472860908877692,-0.5374013018056234
0.5855855855855856,-0.46866878902397124,-0.5163053299361529,-0.3828314376889809,-0.5846673489365721,-0.40655496603732144,-0.4976940446530425,-0.5094077508865045,-0.47913097675311245,-0.5616012956190237,-0.39131312358902043,-0.5468023881538496,-0.5469397473632577
0.5905905905905906,-0.5572461542391216,-0.41821330925624406,-0.4672411360295087,-0.4644722524315461,-0.487473411273086,-0.4574237347099598,-0.5294044764173977,-0.4897332752705932,-0.41949559629934463,-0.5489407741895691,-0.46804152490177175,-0.47611045321120554
0.5955955955955956,-0.5555719517373803,-0.4410268407188975,-0.531684346877206,-0.5767222645322997,-0.4804679539499603,-0.49154904390863186,-0.4626244046370435,-0.43092912433360275,-0.5986503026282792,-0.4743934981041021,-0.542403084911766,-0.48944342645002764
0.6006006006006006,-0.4862811050805432,-0.4643200092294464,-0.43303168329752834,-0.5226403739760188,-0.4965876150157022,-0.4939268436469016,-0.5240658327138845,-0.4404390875975049,-0.526538280078498,-0.5351235397984254,-0.48013238289253657,-0.533080822355456
0.6056056056056056,-0.49830252670288655,-0.41881888611942203,-0.4771711102300312,-0.4432028918753174,-0.39402896922544395,-0.5227110735879343,-0.4142926870614635,-0.5689226880341071,-0.41005784334298123,-0.5112049878068015,-0.43977323624771325,-0.5274260335686695
0.6106106106106106,-0.41132698291187464,-0.586652651539199,-0.4317189085537537,-0.5898944728120287,-0.4495579543359687,-0.5290180079527429,-0.4807535193442373,-0.5218408730996787,-0.4842773136315433,-0.5957006575177562,-0.542234090594795,-0.4701746324015276
0.6156156156156156,-0.43565862956237,-0.5233395927286151,-0.5122142886396464,-0.4782220643420171,-0.4856129890634846,-0.5213424308680604,-0.5582880798992254,-0.5576712079869088,-0.5139987821907751,-0.4135652467256567,-0.5313756454696051,-0.4396934439086736
0.6206206206206206,-0.4709418481626077,-0.4478934824523743,-0.4752717765121512,-0.548547466503386,-0.521585519849318,-0.5632293670692309,-0.46933203785348226,-0.5652759664867517,-0.4723890985562615,-0.5661999297053814,-0.3585008756046355,-0.3796457021077493
0.6256256256256256,-0.45757485710484247,-0.5047672349571594,-0.44262464458359924,-0.43845873113951217,-0.391290159062327,-0.47888535463646104,-0.5177952338806096,-0.5004924490447873,-0.4944314857043266,-0.3983647982088104,-0.49195636289302436,-0.4358588680552485
0.6306306306306306,-0.44478161249920467,-0.4614825700519129,-0.4566154868284962,-0.40097963560754635,-0.4645133309707361,-0.4874619846959433,-0.4910038626462464,-0.43860767636961523,-0.46157873181021875,-0.44464135367081653,-0.4039194821372434,-0.41460298956846003
0.6356356356356356,-0.5358502656731821,-0.4784035373890298,-0.4597518237501448,-0.5095266870491548,-0.4665151523612799,-0.40620097004893074,-0.43904360244575646,-0.4406340435845359,-0.44963589578980506,-0.5221891809842951,-0.43642725404730137,-0.41308715562529336
0.6406406406406406,-0.5613993010170469,-0.4699412211833206,-0.3877367037936461,-0.45290017744364497,-0.49739845600343524,-0.363038762858645,-0.36887590048497143,-0.5196847820700051,-0.429697890301983,-0.4244112590060836,-0.3548239794885923,-0.4477262760200971
0.6456456456456456,-0.4767178865644753,-0.4006343619801848,-0.4624415583706026,-0.443077681549933,-0.40841945788677314,-0.4167703998759571,-0.45652622993134434,-0.4419550854922617,-0.4356609076029442,-0.33716162411114015,-0.40269313002725154,-0.3775451861491801
0.6506506506506506,-0.43029836834479274,-0.4346278148027085,-0.4129542454302077,-0.404578270062597,-0.3502010096150457,-0.45146003041457916,-0.408016879204326,-0.49797423914877165,-0.46194619721509217,-0.3880855898406883,-0.4404821282111946,-0.36573704714398503
0.6556556556556556,-0.3946655971005551,-0.38224808691364187,-0.38138309505872925,-0.3607346797887137,-0.49255495852973585,-0.472142503005058,-0.4092628575830687,-0.43050035540957937,-0.35035175501423566,-0.34917028255185,-0.4605103734360837,-0.4211449709516633
0.6606606606606606,-0.30125228923154085,-0.415984464572707,-0.5216930854231348,-0.47574878630126555,-0.40493708101040216,-0.3211001838609381,-0.417629346143538,-0.43774666665196577,-0.3963553087497128,-0.40161420331698017,-0.3509444044317178,-0.40114630323165895
0.6656656656656657,-0.40445495223355366,-0.3667276587990217,-0.36929799914411593,-0.3102838167953348,-0.3917911296595239,-0.418104570677151,-0.32256739177953253,-0.4444810420733008,-0.39780635317614566,-0.4551248013768975,-0.39590045716747974,-0.34077560855660943
0.6706706706706707,-0.332174701858784,-0.3445620976948468,-0.33038440738537916,-0.3488256025513465,-0.34530035816184834,-0.3507560346451116,-0.3890277199512195,-0.39959754119903657,-0.327424213005671,-0.3653548106926234,-0.3715669008762858,-0.2824728641415283
0.6756756756756757,-0.3239876204625173,-0.23562715383046348,-0.37254540535930425,-0.3575738662673236,-0.3871187521307604,-0.3585159745435942,-0.44192109589920875,-0.4194566123911513,-0.25905046951702837,-0.417293228155142,-0.3880196156703285,-0.3480229051172783
0.6806806806806807,-0.34534607216783036,-0.28194189879393605,-0.3800343338266499,-0.40213311344564845,-0.271594456402764,-0.35751868054018265,-0.34418236619090625,-0.38303880238874755,-0.31397722444080917,-0.27566211406774055,-0.32143776859433887,-0.33861461081626987
0.6856856856856857,-0.3958650082971592,-0.34326223653676846,-0.3276185046396876,-0.29284184703179816,-0.34632717595836415,-0.3453833231023461,-0.24235782983413023,-0.3026594118355344,-0.31499326253135074,-0.28688470622945417,-0.31917028942356307,-0.33346049718254817
0.6906906906906907,-0.3592406773163786,-0.25796693518795477,-0.3101562060970416,-0.29044858163517423,-0.35179529355180367,-0.28291610391901245,-0.2552599312174489,-0.28762533485210984,-0.36297687388180383,-0.28682691127696525,-0.3561075915765346,-0.2450562294184586
0.6956956956956957,-0.294130978360799,-0.2638435189992881,-0.25600230216962017,-0.28515801870865826,-0.2997661996692819,-0.3089400939666021,-0.27871703798502034,-0.30231968956808425,-0.2624878101577678,-0.24973109391837225,-0.3230229574201351,-0.2823231122224289
0.7007007007007007,-0.27247334457655253,-0.19864541822746723,-0.3538250114513297,-0.23765205899401765,-0.30268404878937083,-0.3429205381828986,-0.3244641859529025,-0.24178968940987042,-0.2616386730891195,-0.2939276034796371,-0.25266754552040327,-0.1969224426221302
0.7057057057057057,-0.20729665222118582,-0.18317038802920654,-0.26792465828066386,-0.1449993017111998,-0.22459053350686986,-0.31695205647473923,-0.19633177610097963,-0.2861695955525614,-0.2595084089061518,-0.29587522854718684,-0.2222416031090555,-0.2872515231338203
0.7107107107107107,-0.1208604705906557,-0.3587117817046299,-0.2611538310410937,-0.2978063264338337,-0.2521079658470683,-0.2565374393705207,-0.22519053321971216,-0.2809687724498674,-0.34801300306334393,-0.22503384089102504,-0.2262540848692783,-0.17864312936905918
0.7157157157157157,-0.12294514340881581,-0.18692716686499153,-0.21035119548516668,-0.20812065372721011,-0.12767462412317515,-0.2157495630531842,-0.2536259684815837,-0.173848618278518,-0.24964294861508513,-0.25131477970988364,-0.16985095284982935,-0.1516219553727221
0.7207207207207207,-0.23254104195409575,-0.1392605955506068,-0.1299005347165672,-0.20803894942459406,-0.15320489398659365,-0.17888739235256756,-0.14400748640873134,-0.12987843696811366,-0.1314908788087036,-0.14730709917020596,-0.19431428567526896,-0.2117277881466946
0.7257257257257257,-0.15785213422937638,-0.24565641955057474,-0.1812526158945801,-0.18120452279016327,-0.2330755099550853,-0.188388185520184,-0.16534136453468268,-0.13953447106911415,-0.12677773044393215,-0.15243169627781594,-0.13871366051455625,-0.07347947782655821
0.7307307307307307,-0.1766334364818857,-0.105630467405654,-0.12680354224579232,-0.16804956600977608,-0.08706266733210584,-0.1554570309148427,-0.17392973954474847,-0.08998567859182191,-0.23222013080095766,-0.1739023808043368,-0.1478168849414824,-0.1451842511344219
0.7357357357357357,-0.15625243956765966,-0.15414035231403983,-0.2117600251939047,-0.037553206431020655,-0.10713321886322782,-0.0703486153842081,-0.15138121537938282,-0.13682223067962496,-0.18042081124862716,-0.1258524030159709,-0.08333496087008689,-0.09226396169819506
0.7407407407407407,-0.16146037551983805,-0.18297206126003374,-0.07702355068767627,-0.08515601041583074,-0.0353209011066537,-0.11110950717823419,-0.07677613037452638,-0.04111047070741036,-0.18244690048566523,-0.12732112949691016,-0.1268111404474596,-0.09478276271121733
0.7457457457457457,-0.09875898984609235,-0.16427838752139817,-0.12778470034639608,-0.03475867826920985,-0.042201766377194014,-0.08575226561977765,-0.07078465650770785,-0.06774414091641151,-0.05751796168939676,-0.09055073529760432,-0.09152677210197649,-0.11743814717102541
0.7507507507507507,-0.01646306672231057,-0.11509283808066673,-0.10365250178672408,-0.05905780333242526,-0.11888273067395422,-0.14946701896614617,-0.07421919566704742,-0.03334466502593525,-0.039514533096249436,-0.10299434643775035,-0.048041449899491856,-0.09983675060313114
0.7557557557557557,-0.02313590234653721,-0.06707540524408435,-0.06766406359201801,0.004642269262554767,-0.06404789232430927,-0.1346326676110163,-0.09188852149432221,-0.008235332979230042,-0.10212437940070986,-0.018221273778437422,-0.021685916168606295,0.02278851861855189
0.7607607607607607,-0.03506286077469585,-0.12964727221819228,-0.015685865534865548,0.051705865341397934,-0.01332150922034225,-0.017277255494678474,0.05805266324813952,0.005242206755331248,-0.12711746810402033,0.022679555600254843,-0.09671303382842714,-0.003133720685415453
0.7657657657657657,-0.07413825686920944,0.01849872147120367,-0.05357070076142848,0.021300438710035847,-0.02758752929800027,-0.03478519929233985,-0.0014921595804929157,-0.0052735700407185015,-0.002866667332217819,0.010412864832624722,0.008001768944014434,0.013115542577116083
0.7707707707707707,0.12353037580776582,-0.02544355457864611,-0.059046468831221395,-0.030441172360011995,-0.005517811925995526,-0.042868942001883355,-0.048190969271023155,0.0187121148796955,0.018288550658950534,0.09459374990351235,-0.029946242889070225,0.030364240614115173
0.7757757757757757,0.010682069419505835,0.022478528127696944,0.04506281645551631,0.050169256794783776,0.08213286313884992,0.04394803285964263,0.053539039942867545,0.028327720055181107,-0.005308217296739439,0.015450538894650256,-0.02842036452930753,0.042864465964643717
0.7807807807807807,0.028692205669790114,0.1181599811393507,0.08843915059757242,0.09633171113915391,0.03429004516864821,0.030000646127090337,0.0018061075688383804,0.15019315193627103,0.07160440208366294,0.07976837138922543,-0.05382877097340055,0.07645051627671334
0.7857857857857857,-0.013213497179519793,4.751655427547019e-05,0.0010614755329986236,0.14847750742551827,0.07487710639915018,0.04231723595750972,0.016600544482511977,0.03434069308291015,0.09308615373102419,0.06469787517138993,0.09470464827521524,0.04564639412186683
0.7907907907907907,0.14200797044718166,0.10806611243241797,0.1156921564614097,0.09862848269619442,0.10626297353613677,0.1844092762012149,0.06252042979744843,0.10203655458046842,0.1583868644808623,0.053040885323849846,0.05681801723774792,0.06328366408747552
0.7957957957957957,0.16731195437034135,0.1324699827272992,0.11639084690678586,0.10452443606889544,0.1685471938331153,0.06430442011432781,0.1532739470894583,0.1150789679404308,0.05893361329478447,0.08114937880668699,0.16859922925994564,0.10714498728105147
0.8008008008008007,0.19100627287870564,0.15630221986101447,0.146333235214006,0.11887489196439754,0.06619273714514262,0.058257737909920934,0.03617621748235572,0.19295134486471133,0.18515754271961546,0.14750056277711235,0.20957245894157583,0.11625967000641951
0.8058058058058059,0.13076392041836551,0.12774376911174087,0.13072499365957935,0.16118485695292323,0.2085837603097891,0.13202067235837492,0.2694004966469401,0.28874397991526457,0.15924793587847402,0.2118208393697803,0.17114540688913474,0.10620663581511214
0.8108108108108109,0.1634814575822007,0.0850775585749031,0.2034815760551123,0.12574302803548687,0.10298655053623049,0.16192427089832928,0.16573313120494487,0.0897365624056476,0.106597479559314,0.12394372341847264,0.1541576419376132,0.1880478470123017
0.8158158158158159,0.14979666829942856,0.23397035695251112,0.2751161409857326,0.17700165040399524,0.2123276189218502,0.2142518147862565,0.24901362285458037,0.0996784088578156,0.18865889814097056,0.18056209724818117,0.14294627674594002,0.12790710431719823
0.8208208208208209,0.11200038798269626,0.182193467103308,0.17433778175971326,0.14495104008345372,0.20487843688377436,0.18598050325043539,0.23330318083350396,0.18568131219677145,0.13407306579275396,0.24480611196718588,0.16756434002342507,0.273990140216934
0.8258258258258259,0.2646507360896561,0.20534122763809334,0.19300415904607449,0.26711270712756907,0.2318244117782126,0.09875669277325598,0.18999872089086717,0.18886257867692652,0.24312834724656976,0.2506999221806647,0.24639668124060501,0.24711889077648158
0.8308308308308309,0.25554469523595574,0.25563043526543944,0.21623160381539516,0.1992961390066722,0.1667962754121236,0.16815927483524123,0.2596346045108999,0.30094866968344725,0.23984534592331969,0.1826473086870707,0.2775614900687256,0.28705965354843743
0.8358358358358359,0.2942376951131575,0.2179094364737372,0.27825760620197365,0.33092265896307704,0.28523843265896026,0.27541593087135996,0.230791011742127,0.12790380559170975,0.3129121920549898,0.30017690914466244,0.2504802673579729,0.29120983333428485
0.8408408408408409,0.2976273814872192,0.28676910206073136,0.3044355873791439,0.27515266777746655,0.36354224530897405,0.10793941250421368,0.274104563805909,0.23584802327066712,0.27944878242427107,0.3130834609530436,0.21421328275020188,0.26209478742303083
0.8458458458458459,0.2539539890876692,0.37579973893597873,0.2543972136751435,0.2236656511285356,0.16758891957477637,0.3797779962513885,0.2522448579138268,0.3724865624403337,0.24670580118285773,0.19083357366178114,0.29132837428458064,0.23710149765685534
0.8508508508508509,0.36327678642827393,0.2935006022884825,0.34407676670603576,0.3273031867989756,0.31257684547731507,0.41305789124693015,0.45175251602426425,0.3196074394552476,0.3222111506560744,0.25596011460707235,0.3138368305870409,0.39028915035480904
0.8558558558558559,0.37025007688033745,0.2682818749534362,0.37718388678592524,0.2683634294845755,0.2781133424403402,0.32412914876520893,0.4193155528855641,0.35355289385733757,0.2936971260164864,0.36073671396969753,0.2862388118231347,0.3481501139611165
0.8608608608608609,0.39658798515260646,0.39065008794441747,0.29992787240346763,0.3151015046537675,0.4557326609965513,0.3100056335630453,0.3513014310201203,0.22312641527697008,0.4960767716207862,0.35760428163154495,0.24841568648738188,0.2817211830910561
0.8658658658658659,0.38090349144452795,0.3479612754561875,0.349479428819075,0.3756102286136116,0.3686056623443831,0.3262333094381777,0.3205625495658644,0.4061724339985882,0.3868942592857163,0.333152891294972,0.331198645464137,0.41706911326004226
0.8708708708708709,0.41149674488259697,0.38252905877189364,0.41631916611038033,0.3571849664642294,0.3546232217052308,0.43349734742467505,0.3857156752166258,0.4136900202742968,0.31549231507264675,0.36040403299431545,0.38694205810923354,0.3733077663993925
0.8758758758758759,0.3262351319176785,0.3720856828015614,0.3088512929885658,0.46618556963905505,0.3677615309954829,0.513047775000279,0.2922720889214633,0.3658565479556933,0.3720772822514179,0.4256753877149663,0.46207927390856496,0.2588562588074151
0.8808808808808809,0.4941175013299372,0.4366592482820839,0.41055902308456893,0.39726537189747924,0.46939997047842585,0.4040427385804451,0.477006943014521,0.3629843186804542,0.3374326402530763,0.3654239614111276,0.41609389799954066,0.3885590530319658
0.8858858858858859,0.3621427759218765,0.4126660855802249,0.4944475975588479,0.4208846289497413,0.37003143418521417,0.4405328605362703,0.3888842629539224,0.4168515258218845,0.3287821091990575,0.2747953694141815,0.4149912625718438,0.4103106449248152
0.8908908908908909,0.4857697511741689,0.4241866571743867,0.3552721344964358,0.40527369309372824,0.497327079866092,0.3528811227628762,0.45990531403949453,0.4579060973113204,0.4318708187846474,0.3985301163093549,0.4274813312337444,0.4257419196260282
0.8958958958958959,0.4274177474492879,0.418187224333848,0.36734704822970393,0.3882386415780122,0.37955776384934414,0.35159307877221946,0.3724290822201075,0.3540015450496153,0.450013842390277,0.36501000914268084,0.35258370978255715,0.3848323834184746
0.9009009009009009,0.4376575131962339,0.42391278374775193,0.5037374289860611,0.5413329065685277,0.49238891151653,0.37474613790909533,0.40671626919310816,0.3908313550298676,0.43978152585213826,0.3807376387476367,0.4596779328502052,0.5055039123928531
0.9059059059059059,0.5181938911686801,0.4353783060536319,0.5000516322789932,0.4248098977356651,0.4519754795153445,0.35415939614172864,0.4352749706598809,0.4580880410977124,0.5271906745484813,0.4833118243120197,0.49400450805356255,0.45342708031043316
0.9109109109109109,0.4149266577154348,0.480252186366441,0.4108763828378407,0.47351422684521555,0.46193486679389983,0.4400540643265574,0.44493866681742616,0.4535340613803381,0.40671149814389773,0.44553719074401976,0.4476698308529899,0.47628961915671375
0.9159159159159159,0.4104360586372967,0.5353374374494246,0.4112309519443509,0.45319414737396585,0.5475236735223874,0.4480554055148519,0.43144421429925045,0.41896360038111885,0.4209605894436864,0.4395066927140453,0.4338713979956061,0.47614267072765804
0.9209209209209209,0.5184879991762373,0.3875596713861734,0.5186241987006545,0.3973528219807406,0.45504150132640014,0.5115362532411137,0.504756968336151,0.4609652861525915,0.5190298553520504,0.5256849120882713,0.4107053162897235,0.40275555810784225
0.9259259259259259,0.4638688413405703,0.6237794069431417,0.47453831013593006,0.47166476165549936,0.4946230867904675,0.5423108644455311,0.4058852252702263,0.5098128230613712,0.5070355046988965,0.48253081545532855,0.5567972339731019,0.4297878925142073
0.9309309309309309,0.50374963989619,0.4478897481756405,0.4557568895447466,0.4693302239623859,0.46100818856491854,0.46716523668110965,0.5030628316655491,0.5129658896703295,0.41227597009453243,0.5084402955648248,0.5669943709360036,0.4258723612627775
0.9359359359359359,0.47158815516588076,0.5669928318789359,0.39901479330660217,0.41327463379557206,0.45997104120548993,0.48922583294172667,0.4372663628116673,0.4329406992667407,0.5517202101979206,0.5155735610897882,0.415093265049051,0.42402576312108653
0.9409409409409409,0.5520347677657675,0.47677642488576016,0.4053224613348706,0.4231205330535844,0.46235383960355725,0.5495083939886849,0.5338387975870783,0.45947971532158366,0.5294592930947365,0.4421766005995655,0.4399556239996464,0.47059054926095445
0.9459459459459459,0.4533961631594937,0.4578505746531544,0.5276959639260934,0.48727927103453234,0.5622197932903474,0.46596831386213544,0.4952492946363123,0.45258776432199,0.4766532104497994,0.5782038405772224,0.48022733131883466,0.49674524220168564
0.950950950950951,0.5891890313764352,0.5353574699902482,0.5238473618633989,0.5332319272706895,0.4798994062575346,0.4706591256717053,0.5445059079417461,0.4572454006133301,0.5125457886672544,0.5571053869413205,0.5265240323178204,0.46295484269798226
0.955955955955956,0.5528141569495625,0.472266214654254,0.48100794583537276,0.47359504765853944,0.5002620851084151,0.5008474527502704,0.500801936020416,0.48549161938473334,0.482896248616565,0.5742402867923366,0.3981341967295553,0.633130523003592
0.960960960960961,0.4943726207035676,0.4195290315670306,0.4382938198161332,0.5040392034155828,0.4826430479941889,0.5009682194764451,0.496145124802845,0.5459047775346408,0.6009078515403254,0.5147795910267592,0.5410212123535763,0.5171314521193613
0.965965965965966,0.5675758584295574,0.5525749306869581,0.507465034219995,0.5453588293497795,0.5400783649254911,0.48404354072908884,0.4593429498370355,0.49373257587230623,0.4897483173960582,0.5671016545703934,0.5371923478553701,0.4330384368375378
0.970970970970971,0.45645414977776655,0.464646688916852,0.5469734540464727,0.48373807626129317,0.47824116663823496,0.5118803665800998,0.535202915284131,0.5189524321563921,0.49040157360990483,0.5062867914176497,0.4995940370363138,0.5149254924513549
0.975975975975976,0.45170613903164225,0.5289402055398682,0.4706564769964685,0.4737785698976269,0.38238415314848634,0.5617500787125582,0.4250380339889094,0.4651886638738133,0.5040341190199688,0.5368294369489288,0.4962292321402388,0.5284083996781328
0.980980980980981,0.5459263269376852,0.5666918230748663,0.5049833445712456,0.5261115203926028,0.4120747360820287,0.459631599292157,0.5248299519641508,0.5550468379226052,0.44440200389923945,0.6227689538073388,0.5293406295205187,0.5589182912078895
0.985985985985986,0.490010396712249,0.49587402885213644,0.4918729972957265,0.426376207898875,0.5727498986887297,0.4736580591207888,0.5005676760328622,0.4073511907962363,0.42731694629253636,0.5679772960716298,0.42216424891130633,0.5305875073001661
0.990990990990991,0.4838601726707671,0.4734685163134531,0.48758151792625704,0.4817708047250614,0.5692431423743712,0.4909237252356111,0.42461162170507016,0.4964371080025195,0.4828092888437509,0.538742660434075,0.4786132904570508,0.4412160369558097
0.995995995995996,0.5439372970276178,0.471673476963573,0.3535946636738634,0.4941911638023744,0.4813677028233152,0.4013011607188816,0.5138387265626608,0.45211197805678927,0.5119506621953079,0.552134122073704,0.44146572221586894,0.4687051481553845
1.001001001001001,0.4259115534717954,0.5011824466587551,0.44477031280640567,0.5433829374526944,0.5050467336838359,0.43657692807784726,0.5300302576688455,0.4910005573772741,0.5093085599420247,0.3997027601043377,0.45500098814916057,0.40875682971815264
1.006006006006006,0.5531344366932185,0.4655161205514202,0.4207820992239224,0.48094333258795785,0.45835057583419814,0.4318623498330853,0.4480999902359806,0.4827689964958552,0.3821034237004844,0.39292939701529583,0.5037563303268653,0.45743611478882823
1.011011011011011,0.42645977772945826,0.37813444027614773,0.40463107897843764,0.5393802905328489,0.5500172725861932,0.36959856490827997,0.47270650738915504,0.534121375589197,0.45921287630072233,0.4718694121039714,0.539961892392657,0.4444879073408221
1.016016016016016,0.3950425031359236,0.44348983087594657,0.38786639384732996,0.4309729864128934,0.4355044257569145,0.4409832090161817,0.37503462719255726,0.4885907862790312,0.4291510730686607,0.4059665973639783,0.429723147892097,0.46238996511808206
1.021021021021021,0.3398458807378627,0.3774777490391664,0.4216036694447288,0.44443706355427565,0.40576874473338165,0.4499969435979183,0.3794527512873245,0.4570584601312389,0.44891352945637586,0.4239119090209964,0.4330238366345146,0.47652291098882393
1.026026026026026,0.46042491309838957,0.49152031230448945,0.4622253872130097,0.48801576071878877,0.46095282542800575,0.39107977395669913,0.538024858249589,0.46717065344636355,0.4352404170201645,0.39207391587396667,0.3747656385225252,0.47629761660605474
1.031031031031031,0.40225338183733145,0.4679278841299966,0.38900332506586155,0.40996713842084304,0.44682267008001053,0.45546094514632923,0.3585422563442472,0.4442958843412035,0.43639570310943304,0.3958358399629478,0.36970106344678405,0.4731879814610796
1.0360360360360361,0.38188071628374803,0.42580480651990826,0.35816586240585957,0.4752438650609606,0.44923326331240987,0.5291861716417284,0.41987672326368164,0.4205322586445812,0.3871604014309892,0.4175081328045333,0.4053183898817995,0.4338570753486168
1.0410410410410411,0.33294283023204774,0.3619865400951776,0.3037318195780166,0.3517938579678071,0.41288755060628657,0.44251823405366286,0.37782378359979213,0.44617394682491607,0.4483586943229196,0.44006714293208116,0.46394897278151676,0.3481716673428444
1.0460460460460461,0.3296142666070166,0.3679605310464587,0.35681751970690084,0.3712217079720951,0.4008558003279301,0.5192944641911543,0.4272199432436615,0.4149938506452332,0.33515127418197116,0.3420736093464208,0.3486569315723669,0.5126632118236781
1.0510510510510511,0.41857837072349097,0.3398054512939674,0.3827091475545775,0.43737107390748275,0.30510555702855,0.37782074538737387,0.33889156665309245,0.25465829791276945,0.3110797634752125,0.39219511806174356,0.35290787518512223,0.33877186606293885
1.0560560560560561,0.4011750001565154,0.30724461747866927,0.38124172513412413,0.36872161009232163,0.39341564697656917,0.36654982094411764,0.43980473749009014,0.4057997787621863,0.40670243837308284,0.3356074175117542,0.33052934851410465,0.32034847705098807
1.0610610610610611,0.40606608609765593,0.37947805693877695,0.2746256480907386,0.3274801973160173,0.3320300203225043,0.3640370845039728,0.3336837732989041,0.4142347232728677,0.3131442977606362,0.3630139472659496,0.432221042231012,0.3951627958660215
1.0660660660660661,0.3397498833502826,0.2513547633446976,0.3788037756934065,0.35940833267706407,0.24418201074956603,0.3350307246541203,0.3035318001699335,0.3594340381586616,0.3747957274189244,0.3776414837951101,0.44642437056098216,0.2725795730773128
1.0710710710710711,0.21619994015583088,0.29396586438059724,0.3136010019549422,0.25947649026667097,0.27823163730505246,0.34213138946372207,0.3711319031102995,0.26497616185841816,0.27708400099509983,0.30052007615624166,0.2979771289968295,0.29031731537711797
1.0760760760760761,0.3193156338372338,0.3531331432640433,0.24337504359439538,0.22819397504524788,0.3605007653086587,0.2246795439679713,0.28885832454148874,0.2995298546473358,0.26204531434004164,0.18598133357467916,0.30585131569197754,0.395847257153484
1.0810810810810811,0.3068766313983799,0.3269922865258527,0.28323343180027977,0.2516345449833958,0.3089917243347187,0.38851855906197397,0.291643061255069,0.24220539260123494,0.2657216775697254,0.2355304920134108,0.265420195105021,0.30914753837222336
1.0860860860860861,0.22308460242590827,0.2833091733770096,0.3667832038865829,0.2761292230141402,0.28745553797485873,0.28259314226813737,0.29974190508903226,0.19413847866902917,0.3141718067901282,0.19918972949100175,0.23737770753773066,0.220226583840163
1.0910910910910911,0.30833332904322686,0.2950138337854568,0.22129694944815323,0.265765384339174,0.19728033128403313,0.2115102519774131,0.125954598153554,0.2674134305284651,0.34045754206497986,0.27456621117834756,0.31353547515844005,0.2597953936404269
1.0960960960960962,0.25773799019063165,0.24469623836361137,0.21842029392859527,0.18740653719233072,0.1885692136432585,0.21917825501363494,0.17845432374559586,0.22925631573953262,0.23992643593077798,0.1702227732391676,0.1722004167384436,0.22495827128549717
1.1011011011011012,0.09705958904852033,0.19828993918687,0.22886958027839643,0.2033531413700105,0.12649531486137092,0.3033629472729744,0.17371914833793506,0.23430166570140176,0.2255571391830823,0.23505687916025458,0.2486782290931892,0.2299380142538973
1.1061061061061062,0.208629994785483,0.20424506886333293,0.05066165302281331,0.1776918120209103,0.16385710780712912,0.16405156513664093,0.22892141345928257,0.21439522675812775,0.15885116270389982,0.06162483192661697,0.2746820642356882,0.17918630864642512
1.1111111111111112,0.18608656722565392,0.12767565442156642,0.1750521026322384,0.2054714181039893,0.1626080536123748,0.20105849202219184,0.24823308290055168,0.30317121462012014,0.17808213942854254,0.17608586901793508,0.21268371909183867,0.10479598845177808
1.1161161161161162,0.17115416631493555,0.0683221121244457,0.17596157826495193,0.1634586583520875,0.14174807108379212,0.10699586373538339,0.061802070770666614,0.14198133003594043,0.148301997552717,0.024390191671633477,0.11476202839752844,0.10607121662793259
1.1211211211211212,0.11011897622137398,0.1395579202623112,0.06404236490641498,0.11938286821328978,0.07251673405380701,0.11092664063036352,0.16274965995930515,0.06945939381881405,0.15418102139935536,0.0971835209612201,0.22770306950097796,0.0981897700835812
1.1261261261261262,0.0997947316413435,0.14969059470318552,0.1587184127106916,0.05247430967921518,0.026172915251350154,0.11591385908885386,0.08624194177222762,0.1495219981614337,0.10892527828807974,0.046329108271989786,0.15785660058964632,0.11161193863684536
1.1311311311311312,-0.041615513096847065,0.08823339371275342,0.07096722830846007,0.1202933751835698,0.15663984376722073,0.16209069454057645,0.07086251766745356,0.056355137704062724,-0.01855549243991389,0.08083336420381508,0.1377632325079949,0.08491708428966273
1.1361361361361362,0.05441921502108461,0.051196245721761235,0.05849759690290948,0.08016796936490644,0.07326325590953488,-0.014965796331345968,0.08971116148537595,0.049473857954058106,0.10124162673510517,0.02911555573093831,0.07709052051234332,0.08712489298214234
1.1411411411411412,0.11685523483427253,0.015619922977599753,0.08624746247168755,0.05283102815239924,0.15930290084602744,0.06758588802244805,0.04638850072995151,0.07577367917306724,0.0526496163856474,-0.053669776256624044,-0.0002332664178196775,0.04537341232029452
1.1461461461461462,-0.03933107480401145,0.08391559343601751,-0.01348971892569839,0.07235530893800461,0.00865206908577119,-0.034667590745193586,0.06426243912488219,0.03715806911548168,0.11199159796691781,0.06108167814514708,0.10043015870286778,0.08324977283697321
1.1511511511511512,-0.04450129288165875,-0.0009227385672585173,0.005419593471737512,-0.007522967859762345,0.061841952500186786,-0.0016691541209937315,-0.047060287537846926,0.042657950270628846,-0.038511848966417336,0.08240365539681782,-0.026551942240325435,-0.0029190442134481385
1.1561561561561562,0.06906140801758423,-0.01571727201060335,-0.004836521792458765,0.06094428966101322,0.013485042000604144,-0.008225988842928626,-0.0894827922793707,-0.04706359232822656,0.02552041370010564,-0.07039169917197591,-0.03847332202805233,-0.012082127498109023
1.1611611611611612,0.011186872436910817,-0.057754835583364514,0.043844284727238836,0.004771958997847239,0.07000713046848477,0.01547332724963751,-0.06756352439683612,-0.1602730380731138,-0.01597085742860099,0.08571931504251655,-0.029083631681143137,0.026673357397918682
1.1661661661661662,-0.021929658351585102,0.023264995994954976,-0.12314267639508981,-0.026047095093594708,-0.11598217017408215,-0.0355865767143731,-0.024417037511179213,-0.06835452201225338,0.011842919654214024,-0.02483525784436376,-0.10349831287757082,-0.08540312870771569
1.1711711711711712,-0.14675035250240848,0.05294520311783607,-0.05303177064898655,-0.09366025306239761,-0.08354704102382471,-0.11823491676276512,-0.05029473692581482,0.011554779308189489,-0.053906047162521856,-0.03788773194592236,0.01743947458986561,-0.05796083548286824
1.1761761761761762,-0.10773051927769538,0.03391855851295193,-0.05234689901508148,-0.05243149336697477,-0.14299728133345455,-0.16742050009965564,-0.05256581090818034,-0.051901838402314174,-0.19050192278150946,-0.08624497515132444,-0.03329515426922473,-0.08821481917744431
1.1811811811811812,-0.09697568089381138,-0.1656750269272255,-0.08021597642006062,-0.15325637015301571,-0.12540064529244951,-0.11213346058744149,-0.1303862420002716,-0.13983819651084306,-0.14794283753578313,-0.02769006970567499,-0.07684800237344229,-0.176973544382743
1.1861861861861862,-0.19501462018297358,-0.09638559717665189,-0.052178892268385096,0.00432497318327868,-0.010716512143953597,-0.21286420929087335,-0.2598368426143244,0.007137628591184442,-0.12385737894748977,-0.15224969852998055,-0.12665971566870776,-0.08482495772473742
1.1911911911911912,-0.20034891965727536,-0.0506227256358015,-0.15709997059083497,-0.1942968012097971,-0.13878570496864784,-0.2055749670974708,-0.17858346716283738,-0.13470816442376948,-0.14585602998394295,-0.07975071975362649,-0.10849729353376203,-0.2196933347345245
1.1961961961961962,-0.16802542362737238,-0.1503239839756642,-0.19133231657146776,-0.20483101545719262,-0.1940239254401473,-0.07160233909962456,-0.17904316179872767,-0.23950109215750187,-0.15140235786205536,-0.11924427571235131,-0.19781464418936656,-0.18801984095941565
1.2012012012012012,-0.232836553180227,-0.21098449360196764,-0.21314910688738214,-0.1645525224263665,-0.18956344754761942,-0.06667954504647451,-0.16437286797367928,-0.20730567102854897,-0.11949626136676454,-0.25498088088547854,-0.09850022130719212,-0.23328296106415092
1.2062062062062062,-0.1731985753654147,-0.28222153505637493,-0.14319774764398702,-0.16650100960353162,-0.16776119231758574,-0.22209011729706316,-0.16505218314181558,-0.27036610865359745,-0.2200257298915369,-0.30117435345101407,-0.21408629047507563,-0.20008493338957223
1.2112112112112112,-0.22486442869360773,-0.16134835820060106,-0.23673256026725373,-0.2639662756552791,-0.25221539797769127,-0.2676568670489776,-0.2179842791566715,-0.21040539436095915,-0.16735745369794608,-0.21985884763188784,-0.25346668945136597,-0.24270446633042544
1.2162162162162162,-0.360872550959166,-0.2825908898204308,-0.16974256684650696,-0.18094162541055625,-0.15416709208754265,-0.23500835641914022,-0.22596870431789082,-0.3075469541727246,-0.2040755761408492,-0.20600903531443948,-0.18928766085501242,-0.24997908165568014
1.2212212212212212,-0.3117842676013345,-0.31287581552042537,-0.2471014294207035,-0.2441909103841549,-0.3223010276708923,-0.23547493484050883,-0.24251816009065819,-0.22823806908016744,-0.2755467857892444,-0.2571521981210922,-0.26019563240161797,-0.3376044899851003
1.2262262262262262,-0.33753120606992204,-0.22814914530761363,-0.2538873005318667,-0.2861200339694457,-0.2701437820497584,-0.4119663490965676,-0.29205584346745106,-0.2825858040667158,-0.30717483267971346,-0.32078114692071263,-0.3135446110026823,-0.26589084226855847
1.2312312312312312,-0.271332946174094,-0.24816988807963136,-0.309006381658559,-0.2572633513386092,-0.29148577816175775,-0.2500080553304082,-0.28987272596932134,-0.2716617307128769,-0.36597469831324453,-0.31426419867827804,-0.2935760285935348,-0.2604697587476927
1.2362362362362362,-0.3144514426628714,-0.300099459679824,-0.28992624716285176,-0.35889057678219755,-0.29502329611424405,-0.25152235184417476,-0.2604075665589444,-0.22590324367245695,-0.2631754724838531,-0.30186408410883614,-0.242164714057787,-0.2969074804446394
1.2412412412412412,-0.3242816604722867,-0.37842833266541576,-0.2591274379707259,-0.38074698644139426,-0.2953772671225535,-0.38167939622824554,-0.2732264161300901,-0.36317852576704546,-0.29335565846419437,-0.32681730462449116,-0.3599865180342822,-0.3323449652346529
1.2462462462462462,-0.36886014748753365,-0.4126972825749071,-0.3794516323683294,-0.40446660710812504,-0.37318479578874714,-0.3008335932320872,-0.3927477075655566,-0.40852785995747415,-0.36412262812169494,-0.40715884863170393,-0.3075404822885519,-0.35639477419676646
1.2512512512512513,-0.32866791903608505,-0.3580878403632214,-0.42225607223042744,-0.39526742118040525,-0.344888687877836,-0.31831508046767276,-0.40465906997921164,-0.3122650845909276,-0.40288215834554797,-0.4120159481629369,-0.4475234373927377,-0.31553574504432036
1.2562562562562563,-0.3564966916749187,-0.34009591694496355,-0.42633231210949984,-0.38176295914981045,-0.4212784868219763,-0.40441721313643547,-0.31953170091711625,-0.3132531323127668,-0.44418307513017474,-0.39190773142808494,-0.3794830269414321,-0.353688427230585
1.2612612612612613,-0.35228440505898384,-0.31634176770491873,-0.37881321246786825,-0.2914065806559336,-0.3278071783091526,-0.38197013906785526,-0.4231638951304331,-0.3477257158650985,-0.3367811133689389,-0.3692687845960868,-0.3639217884728441,-0.31460218016206754
1.2662662662662663,-0.41731592800865447,-0.4178304564484873,-0.3848564161074809,-0.4731560551764759,-0.4023008192464768,-0.32817567501800515,-0.3715143393536418,-0.3484839895767998,-0.2949177198297635,-0.5036927382872033,-0.4700388218127645,-0.33218110635062825
1.2712712712712713,-0.37794205408109216,-0.3555484784298598,-0.40610745223686434,-0.4699539972875735,-0.4296804409319898,-0.4848013158367023,-0.46700249345319855,-0.4359047905807576,-0.43820616523854516,-0.35632784868262024,-0.3956728783293119,-0.45720000456876864
1.2762762762762763,-0.4306269437577309,-0.3405875081849918,-0.4347848746294839,-0.37701324070846987,-0.4209214022878825,-0.44681683704259245,-0.3220742906997428,-0.4502385948774056,-0.43108059562217627,-0.48142448461188647,-0.4054662986297699,-0.4603169505125592
1.2812812812812813,-0.5305107568513776,-0.43793395234596705,-0.390128966298166,-0.48799746557568413,-0.361230232592865,-0.36741515245885803,-0.41968662785021943,-0.40807172227358646,-0.4731476247529831,-0.4663795527740321,-0.44175691291245095,-0.41213707037725344
1.2862862862862863,-0.4362028816664249,-0.41958634622767016,-0.4255754297675594,-0.42672768991248333,-0.4131472393134716,-0.43627830310682314,-0.4922142919060078,-0.49027004242110217,-0.4496825605681874,-0.39501194489341357,-0.41321061402780335,-0.3366468824766558
1.2912912912912913,-0.35449677559191,-0.4437023977192194,-0.5142301064129086,-0.47562472323978666,-0.4846684290278837,-0.4060143774769617,-0.4403644193243626,-0.4902578463371384,-0.4517537890248761,-0.4229345471994558,-0.369073686656381,-0.5344607747059811
1.2962962962962963,-0.4435571960749305,-0.4476460155128895,-0.5160917242641591,-0.47971739296537513,-0.4274454516468757,-0.47690770563963514,-0.5150471130646258,-0.5009403842209297,-0.3999087169097827,-0.44956257605705946,-0.4724270352654023,-0.5125193460429992
1.3013013013013013,-0.4342195229476768,-0.4314329835422061,-0.4176889195689246,-0.4411237888369439,-0.5147524332426827,-0.5167982117790344,-0.5216123693051796,-0.5487372110509028,-0.549560366697835,-0.4890423204197885,-0.4677978359723924,-0.4616430739024698
1.3063063063063063,-0.525700101319807,-0.4877338691314821,-0.48890655435826436,-0.43300658202616615,-0.48930831717930007,-0.49989363442826107,-0.5199729490258254,-0.4735020373798464,-0.5686797015808556,-0.4665764287859622,-0.444822369190379,-0.3895790382039335
1.3113113113113113,-0.44180795091232133,-0.4825566418767223,-0.413717835847607,-0.36965192797524843,-0.5447705496277894,-0.43228173786907453,-0.4547462166833507,-0.4557494989362428,-0.4082909766390928,-0.5064853048649449,-0.47764608780904705,-0.4601998411363655
1.3163163163163163,-0.41684730137275694,-0.4107112302600684,-0.5049948269265893,-0.38549285635680614,-0.4522270348211919,-0.5129160340856607,-0.5596581892591772,-0.4667216236497479,-0.46963146673195494,-0.4314240718565671,-0.4635052969103904,-0.5114235216373381
1.3213213213213213,-0.5211130156908275,-0.43313687991967437,-0.40006335662116366,-0.4875306969949192,-0.5296313361011569,-0.4941211773704035,-0.45112008334609094,-0.5500516583732585,-0.4275898516104287,-0.4269907405723108,-0.4547198224166864,-0.5456769214948406
1.3263263263263263,-0.5348963598406126,-0.5028720101254767,-0.48712391603186267,-0.5650362361027511,-0.4624722970569801,-0.48559182233595943,-0.48639390058161946,-0.5680492943171327,-0.5261917634184973,-0.4549842545677595,-0.43132628886979113,-0.49870012565052485
1.3313313313313313,-0.4839617811068196,-0.5294866659586499,-0.5208020724862032,-0.494546527078596,-0.4585402925727896,-0.6141488337257685,-0.5551198215357266,-0.43448389142801735,-0.45407683208474775,-0.5458868199323569,-0.5026902892374394,-0.5035523124345386
1.3363363363363363,-0.5406919326101643,-0.5346173073297573,-0.5435148005364351,-0.5337000979081209,-0.4959306930027546,-0.555891775546083,-0.4390433340224786,-0.5452014468808677,-0.4837873306822697,-0.4984318796973203,-0.4929177402520445,-0.4477115339312697
1.3413413413413413,-0.49170034740939866,-0.5310593112345552,-0.484936575927264,-0.48206930148363,-0.4542289974529192,-0.4935901544759013,-0.49888850643709315,-0.4546548255903702,-0.5041250456965625,-0.5904411621194985,-0.5423049360424324,-0.3750127523149985
1.3463463463463463,-0.5737966435035343,-0.5332317080350055,-0.47531971050990274,-0.5224572519816816,-0.5533547085749304,-0.5998856999039119,-0.5566723854838326,-0.5476562491751326,-0.5505648764136555,-0.553278216903459,-0.47370076085122154,-0.5010231820288854
1.3513513513513513,-0.5035259950659606,-0.529818341211191,-0.4665912234838701,-0.5169051224081286,-0.5113914934823336,-0.4452081960835888,-0.4710733890298834,-0.5998779284742225,-0.5301830739686441,-0.42006903762621023,-0.5052812400016485,-0.5696699495098407
1.3563563563563563,-0.5463398179370476,-0.4801289077656595,-0.46841980670268524,-0.48550420537098854,-0.5175540157591366,-0.44052210063651714,-0.481194531189295,-0.5934337826712381,-0.4828234536147074,-0.498008978078669,-0.4566737472570198,-0.4895947706726303
1.3613613613613613,-0.40842882545131776,-0.535792172080991,-0.6122142431705468,-0.5751860945294203,-0.5129243343918349,-0.5046865289708155,-0.4995212839695195,-0.46551376937133776,-0.4217273184614147,-0.4741375637838171,-0.4616239402510524,-0.5391975346056819
1.3663663663663663,-0.4982058067785239,-0.5400448097844808,-0.6147994682738812,-0.46464453077897744,-0.525370192142794,-0.512308429329164,-0.4628175185793172,-0.5691426084513346,-0.47751745155071496,-0.5190786413520898,-0.4484704190523966,-0.5676826701879414
1.3713713713713713,-0.4837750298370417,-0.49581399598606424,-0.5137420420524609,-0.5278232717831893,-0.4891779115433581,-0.48599063671977627,-0.49315905083056916,-0.5251206622459356,-0.6051826378403403,-0.5052728134790268,-0.5516690679223907,-0.47986257402365523
1.3763763763763763,-0.5073431377048362,-0.5258129815302104,-0.5555259254170404,-0.4850038303594274,-0.4531706819060554,-0.49498562001383833,-0.5026178527610113,-0.44982267879802657,-0.5364417310989797,-0.5513986034242153,-0.3017129261373852,-0.47582449397015836
1.3813813813813813,-0.4821980226005638,-0.4995218749299918,-0.43026789468093485,-0.557838710758684,-0.49811253714560083,-0.5065805581353142,-0.46096149533393427,-0.48970403626777637,-0.5144966676419711,-0.4892507215161747,-0.4138718382766663,-0.4522740776344109
1.3863863863863863,-0.4875356602315658,-0.5115455787228699,-0.45306782905980336,-0.39100947930685565,-0.4493175615864581,-0.39002806681696495,-0.4653305510710473,-0.5483955005023126,-0.4652425752983485,-0.509305894173166,-0.3607516330592372,-0.5515217471075112
1.3913913913913913,-0.4797721776874856,-0.40414764851723434,-0.5335053336415894,-0.37389063379498566,-0.4886992682517547,-0.47833321798584044,-0.5091698894961536,-0.48128432610217786,-0.4789492396571693,-0.5399186004352976,-0.40877357390098584,-0.5330189797128125
1.3963963963963963,-0.5208559450079665,-0.46854529749374535,-0.4734206432483288,-0.37803606845498033,-0.4095510289180141,-0.49992614133392976,-0.4898564436868776,-0.49877364199169877,-0.404602246276482,-0.46831697158038027,-0.41428398895127266,-0.47853638612209154
1.4014014014014013,-0.511612730334756,-0.5946166296341173,-0.4240145799646451,-0.5066265586914593,-0.4745662488204357,-0.4342240272181092,-0.47259414147422746,-0.44862213792574246,-0.43763772253788075,-0.4421925639556102,-0.4666538700392919,-0.458737164584657
1.4064064064064064,-0.4440592089305954,-0.5002827898754161,-0.5040309696240912,-0.41321878858293265,-0.41895680785271405,-0.41791803373873043,-0.4414988550047443,-0.49854936869855543,-0.4058980731062185,-0.4939414322898627,-0.4664037284732528,-0.43541010787982326
1.4114114114114114,-0.44700391314076726,-0.4811927913612569,-0.38156021245951377,-0.46490708795378943,-0.42704458802215506,-0.39335939317539254,-0.4270480726772372,-0.44472437725359165,-0.4311967103835405,-0.5343159178578168,-0.42841743926214765,-0.4910038391809999
1.4164164164164164,-0.339802257200505,-0.44288420775496085,-0.42241804892338325,-0.40604290194884407,-0.4023329574547067,-0.39068936509760044,-0.46871865765877274,-0.3671873533231119,-0.38401008801768444,-0.45754365940297775,-0.438272242671485,-0.44654742898948274
1.4214214214214214,-0.3558591489359927,-0.3690541109700006,-0.4499646851172921,-0.3564150651435791,-0.44026959761809775,-0.45379717990797364,-0.43985956018432903,-0.4351564564076504,-0.38676377403764334,-0.39558184227212534,-0.3399758699102874,-0.4394728052208557
1.4264264264264264,-0.41567712025341097,-0.4974560695201894,-0.48575879663230553,-0.43913996218082396,-0.37019968054122343,-0.3970533488139099,-0.2866961907343252,-0.3609520993825874,-0.41785255416689726,-0.37476760647609925,-0.4031232008526036,-0.40014124254923633
1.4314314314314314,-0.31879304189984364,-0.36286576036861096,-0.3454916396622174,-0.41820450348076504,-0.3281401131463879,-0.4230849976151003,-0.38999933521381497,-0.3478740314589031,-0.4278664058597689,-0.4061169008437747,-0.3387314773613998,-0.37445458892969036
1.4364364364364364,-0.45900004081624285,-0.4451647064762691,-0.41608744037288065,-0.4597799868885192,-0.34377500755491097,-0.38865952839530654,-0.3121874701561268,-0.2718707664404451,-0.4816662361982449,-0.35839747104095193,-0.41076094942005487,-0.3675227674593129
1.4414414414414414,-0.40387486562090974,-0.3782842868668435,-0.3070838169218587,-0.2620770431736243,-0.39231198011298163,-0.43320785769025627,-0.3547761226940187,-0.3876581858524587,-0.35637875940201247,-0.29101197445187815,-0.43755941449986646,-0.36290847969472434
1.4464464464464464,-0.33459936761371245,-0.34220213748234757,-0.3553400609360925,-0.32283704603433894,-0.3020016077112338,-0.2554792745809721,-0.3863587562723435,-0.2924044362695803,-0.34313800781501713,-0.33748762103632324,-0.3293814833972847,-0.42960034077902554
1.4514514514514514,-0.37241435103619475,-0.3197232820697593,-0.3463964766315753,-0.3459238436828315,-0.2899006719840785,-0.3324362223663743,-0.3926324672791407,-0.35511808094453895,-0.3691020071124299,-0.2820501390546904,-0.29069354077801235,-0.2823056376113625
1.4564564564564564,-0.24881765473337852,-0.256929410603526,-0.36017719321488423,-0.3152023671213501,-0.29424772219819817,-0.30102202393669913,-0.336384378127987,-0.3611625516574253,-0.27006624290477876,-0.2382240278801485,-0.29168728881893513,-0.2736191367742565
1.4614614614614614,-0.3558688168723546,-0.3087009907783301,-0.2005757334312,-0.21498836748162814,-0.3838010187467674,-0.270644996131942,-0.35213388266355816,-0.278966766075183,-0.24080603921016633,-0.27859280261573116,-0.24001012741332273,-0.28803944445650226
1.4664664664664664,-0.3080887937646801,-0.2639539946264498,-0.2982716354723488,-0.2586151501492714,-0.29596402970203695,-0.274338834290642,-0.2677780597390111,-0.3185085854984883,-0.31926903131256823,-0.2402666392816486,-0.2768240393145993,-0.3160740529302766
1.4714714714714714,-0.22044061564294823,-0.288273784883216,-0.2405169561879128,-0.31506803132012634,-0.36203437406030603,-0.24780509751878688,-0.325715670570831,-0.25272761966425333,-0.348899337338061,-0.29211966608357004,-0.24124052740680269,-0.2691867163234326
1.4764764764764764,-0.2262961942859841,-0.29898323565398405,-0.12475503735406838,-0.16757991349584012,-0.2642523941548348,-0.15612686077053523,-0.20179857393604544,-0.2647742058285244,-0.21775699019037287,-0.23399425784133804,-0.21044860766277587,-0.2907452227136851
1.4814814814814814,-0.16450217982720225,-0.16635950343498368,-0.2057330284733625,-0.30420469766118174,-0.28893551177572824,-0.2909765353403443,-0.19777582610693306,-0.19986672361990412,-0.2421392159514043,-0.17765363512579901,-0.29133921276199376,-0.3508553116722471
1.4864864864864864,-0.16044718192392826,-0.1551493747848339,-0.15721793640222093,-0.3028130990871501,-0.25187174274189505,-0.17631359166822202,-0.2552920649543473,-0.21748948802429674,-0.17300783283704463,-0.17654327204406184,-0.2619698664856076,-0.19173437285833583
1.4914914914914914,-0.288975578965177,-0.20695384522857374,-0.1589379446614791,-0.08791199013269343,-0.16043506356774165,-0.21508993678573193,-0.20109795641053652,-0.11276717832796754,-0.26549144053111273,-0.12338234590307721,-0.23662993384548436,-0.11333680750801697
1.4964964964964964,-0.17837204682434876,-0.1204383262729376,-0.14111789459812363,-0.1570673070669023,-0.18310300099652055,-0.1211050970956598,-0.19454948172077796,-0.12397663592955643,-0.12730335656412786,-0.19896658585001914,-0.1404054162404233,-0.1762562729892182
1.5015015015015014,-0.19082671114391675,-0.21789747865160125,-0.06875696733696673,-0.15214597119964943,-0.22291863806939455,-0.10801916822417934,-0.15033165387745373,-0.1893282199942815,-0.23695391398554838,-0.10788020218592612,-0.20267852500071096,-0.12214630095973907
1.5065065065065064,-0.16352020664724515,-0.06726704598077521,-0.16707314965411227,-0.25956491332850323,-0.14758675577677696,-0.06648380687910109,-0.11117698447563683,-0.10605754666866875,-0.13858358855792022,-0.13576117329743756,-0.09623559755990352,-0.08326587312100911
1.5115115115115114,-0.04379103163320461,-0.10694920414944749,-0.0882190220723085,-0.09392139097470108,-0.07458320412166031,-0.13722705786744643,-0.13311492783651954,-0.034974986205298444,-0.1241978860452133,-0.15044120798771138,-0.10819134239515926,-0.14695646078664448
1.5165165165165164,-0.12340541898631882,-0.16321448178686043,-0.12118176186826468,-0.13899885151062033,-0.11124128906638601,-0.12881389462411985,-0.10181812997577111,-0.07149777635693538,-0.07129000133567928,-0.087543224790405,-0.05897277153793389,-0.16104870378753972
1.5215215215215214,-0.10668715534605488,0.08221093879956197,-0.10826382747627629,-0.08210095026135672,-0.1435315492451026,-0.11095182089609368,-0.1792586602168833,-0.12453454199011474,-0.12678686907415007,-0.07471409865089755,-0.0024163219955411486,-0.0888980121901664
1.5265265265265264,-0.025054618238514858,-0.03501998191455932,0.04013352255732745,-0.04935547693412781,0.028957874812618967,-0.059125896095483,-0.10261052564480119,-0.046757275188791005,-0.048090758009442465,0.07172374161425694,-0.028913207152627466,-0.028656392536508656
1.5315315315315314,-0.054647734884784,-0.09805280621919248,-0.07506267883101905,-0.0841910064343547,0.01324889826932129,0.03182436215141171,-0.08255139804717979,-0.0481355476274314,-0.07067420895624353,-0.06973829935077677,-0.04200947733548942,0.08920446999572752
1.5365365365365364,-0.07344564873982698,-0.058185309375770475,0.09316148505683589,-0.003373745630728134,0.06969962645840516,0.06608501167768112,-0.06622218327986222,-0.015642907843032492,-0.043060350873281014,0.018816133436619076,-0.07583873741637917,-0.07013407552300205
1.5415415415415414,0.030766467832258823,0.05826731323267732,0.0905031689150393,0.0005158714539636108,-0.01098427531036987,0.024875223264754796,0.03318444232462288,0.009493213739026535,0.04893483728857162,0.0226587595820052,0.07551083140970809,-0.019567160250469263
1.5465465465465464,0.06777527911374251,0.02664775123003909,0.06551850131306089,0.009887007667065746,0.13492124384891271,0.07525572328644953,0.038003505749447296,0.054815542016714375,0.055172143742523945,0.04142450471647087,0.038782396194505436,0.003932575704355075
1.5515515515515514,0.05514270013433267,0.0589012120892211,0.050990275684658325,0.009449677170592835,0.05477991849177884,-0.008415164336472956,0.09312735914918452,0.026036052121667926,0.0031318556695278596,0.04954678711421016,-3.234229066216565e-05,0.2430579617187993
1.5565565565565564,0.18440924592421892,0.03276756752964641,0.021621754264091193,0.1321085098168241,0.15298556902926774,-0.03428044720774377,-0.05331051328136638,0.06743727480559628,0.009708851896199355,0.046271453567089005,0.06495973629736485,0.06036953124479799
1.5615615615615615,0.16486601100901224,0.048049323705769684,0.05296792531490299,0.09055376059763594,0.08918522235144412,0.08785321883407693,0.11421953726773917,0.162903258490685,0.08212247975033084,0.13381738301758458,0.0411665555585113,0.09772394332466453
1.5665665665665665,0.04658495666250541,0.21102184594295886,0.14106960434229052,0.1153281177680399,0.15723058057330436,0.1093767298483272,0.11576920359480553,0.10449743764178708,0.12102542962237461,0.1317220594681612,0.17152534497503738,0.12014378249153243
1.5715715715715715,0.1300365101155322,0.12509228427805968,0.04675868995452839,0.1446764308254416,0.09208099406858189,0.13860446274303162,0.12902622985793474,0.19395972064218883,0.20759586799010932,0.1543018577360903,0.06563561884010366,0.1408717240758456
1.5765765765765765,0.069515341000784,0.1417646924533115,0.22746306912875008,0.15607084696740045,0.14489573453942015,0.19162601332055468,0.22752903663979704,0.12744837894253824,0.2108540995254123,0.16824837993496738,0.19303166742280495,0.1729910373216607
1.5815815815815815,0.18246614846948772,0.19133768662339581,0.14585660232148756,0.17238300404193643,0.1869943738703188,0.15273112957412416,0.2441312150385786,0.2479244587538901,0.09552139442249694,0.14676879494038647,0.26606367778852813,0.1662559971652111
1.5865865865865865,0.1826873552907571,0.06334693361635327,0.11354057664477966,0.25051742993147924,0.23360883239340297,0.12395721564515122,0.1957921578014878,0.16329927292567162,0.2466802345506512,0.22865904811681248,0.18107770560938283,0.17253444811316931
1.5915915915915915,0.28413376312828187,0.23044339676903963,0.14311445930055008,0.15986814879979333,0.23403425464514213,0.18528553328083458,0.2410962740232433,0.16112829201056714,0.22883789521509634,0.11513492087918024,0.2507743544533053,0.3368542824822176
1.5965965965965965,0.2991867942427912,0.2116751463905327,0.16313138589065992,0.2845084929517527,0.1536793518878462,0.17780409837984545,0.291833778062036,0.22134189022957018,0.2957832483547882,0.2714276624017361,0.17710428679012125,0.1602253088117298
1.6016016016016015,0.14820291456974347,0.2622681889139485,0.267591280693675,0.2590526464099483,0.1814888455745155,0.20139272824556176,0.2440244850762322,0.1348461895087893,0.24997928475407957,0.14321672013295977,0.3052133329623508,0.32000722469474085
1.6066066066066067,0.2727595774891841,0.29243786807483074,0.24635932851817777,0.2550585831903712,0.27331523167630495,0.34486825426036943,0.31101739795314465,0.2660527181289224,0.2883693993311126,0.22099487635695017,0.2980344855022145,0.2691771168675595
1.6116116116116117,0.2739457977998725,0.27636229988800676,0.2880055114821841,0.18623447990757216,0.254839257787506,0.288955124651494,0.3057162145936879,0.2515930187755487,0.2334323924680945,0.3001346021768816,0.3402484600351997,0.37021526878348887
1.6166166166166167,0.28571878968020076,0.3002628471848279,0.2609737489659765,0.3011001169867668,0.2970901304911664,0.3865301219353053,0.3079379705708489,0.1742177843548504,0.29031225461230087,0.2803574796200994,0.2773052398827428,0.31639218127143853
1.6216216216216217,0.3157300817941052,0.42208473607256813,0.32866067176319036,0.24037434299620233,0.31682559067306504,0.2589587527952345,0.41218210885605383,0.3015485069054047,0.32548907923063575,0.23753498962118094,0.24867896810104456,0.35904055844967564
1.6266266266266267,0.41423282667296996,0.449928788527201,0.41234812797104786,0.287435605234399,0.35341676069802264,0.42980923586471353,0.44285643427027926,0.3348593536744277,0.30602157789567375,0.3671302719051066,0.3360933751413072,0.33511766969096235
1.6316316316316317,0.35501145063143014,0.36117015787502493,0.3531006660273503,0.38091108302894805,0.41608385415962446,0.3750285876617634,0.3147307453821412,0.2789531778384297,0.36430010030537063,0.2796525067162453,0.2637159427419616,0.41999749773882517
1.6366366366366367,0.40745124145327166,0.40993675916413963,0.33492337681583073,0.28398271205529046,0.3491426586394176,0.4177078659910502,0.37634338872271167,0.39555755763427636,0.3353660139982046,0.42800155253501326,0.3977231608176165,0.3028668656454892
1.6416416416416417,0.28878169267623255,0.39345790948808235,0.42017519666632414,0.3184981684756049,0.4508405800600636,0.4165879639917203,0.34001127155941546,0.46491892585539374,0.3788068522789616,0.3954459525100167,0.36510635770662014,0.37723247756816664
1.6466466466466467,0.3520257117916212,0.39167294322803964,0.4056759680214703,0.314980292294923,0.4541449427590061,0.3824372198846661,0.39414840625133934,0.43664434249760975,0.4241734251046747,0.3385388889428856,0.37205558139890915,0.3433436107858238
1.6516516516516517,0.4346644781528483,0.455892799306444,0.36399438978506665,0.449224615158688,0.4279519781717325,0.42004148873373276,0.4532940431089237,0.36488508462245706,0.4738613555989468,0.4722356288305153,0.46085746716958814,0.3358055591656845
1.6566566566566567,0.46507983645258694,0.3056637249219156,0.3679193195443246,0.40809780094640336,0.43215695441300217,0.44447878770765276,0.3863423654654691,0.36524574750765004,0.3741906820196229,0.4177952591344183,0.37228847185681735,0.5158101059341824
1.6616616616616617,0.3610392846974108,0.42533619012311424,0.4287255053359085,0.39061191007847107,0.4424162281441916,0.41430751152767675,0.3622489933580267,0.39374370260592406,0.3965992915394578,0.5018026223827374,0.3871053892542569,0.40711286024696647
1.6666666666666667,0.45756508444484256,0.38026619354872243,0.5020324966198103,0.4355757859091759,0.5399877362874654,0.38170845289616234,0.3881907928957921,0.4082376103703248,0.468215126322345,0.41768046012661453,0.44001780947663205,0.4303207882680203
1.6716716716716717,0.4808236651116476,0.37094436920656404,0.4689176543363835,0.34776176769273814,0.43757454121172845,0.42524891318625596,0.421419595692459,0.4080254112822784,0.4367033900146151,0.5090033643502784,0.4143812228277083,0.4240509782341991
1.6766766766766767,0.3588553968654596,0.5338550770481397,0.3906382987408713,0.5316093927471479,0.3624396634990545,0.41536116331193496,0.4634875851997076,0.5148537390061483,0.5849360595410218,0.4648966295698938,0.42660906789650255,0.4187748273230588
1.6816816816816818,0.4578052433937796,0.42544892851061344,0.39541258952314584,0.5291457973783199,0.509029784828049,0.4506887397615409,0.49488628521054234,0.4905018217500104,0.3829250103184417,0.3516763755614882,0.46529815054589313,0.46493361711074616
1.6866866866866868,0.45153301115857375,0.4401097682823462,0.3990801468497328,0.5396155711696239,0.5616332842509519,0.4891387301598447,0.4754737534342621,0.42068680636197064,0.4437161980868384,0.38363549477616204,0.476571566724056,0.5563107814115029
1.6916916916916918,0.4173805463814553,0.4053200269511583,0.5070810464461522,0.47464704855003864,0.49060329391039115,0.4487931424753812,0.37423032281627916,0.4541306012982167,0.4225957108608439,0.5503981600797632,0.5481255427071753,0.49034686346842055
1.6966966966966968,0.4076992843903039,0.4632278880268532,0.4527990921489779,0.5053718433583219,0.48260332003329537,0.5703678182141496,0.398218625084939,0.49100970648343045,0.4815901106127717,0.6097155332826194,0.4533606619508225,0.4318423468506006
1.7017017017017018,0.4902899021938672,0.5031410190303419,0.4556271981821836,0.4870730485373116,0.5719588852322416,0.4837947346195003,0.5576522935087246,0.5392637120071304,0.5591010328464388,0.4677840519110747,0.4667065638094385,0.4060200956505449
1.7067067067067068,0.512787509066399,0.5053213728395601,0.4529187361034231,0.47764854574643817,0.5107977832474361,0.5211288539856229,0.4747890956953377,0.46039839796578036,0.39586721138650344,0.4150988173469435,0.47817953142889863,0.5153488186433741
1.7117117117117118,0.46669854392065235,0.5081666735886413,0.4315495849474145,0.5259978499730249,0.5266351709965614,0.501815188455674,0.5197932287748337,0.43681672751168477,0.4742207384145886,0.46500945587197184,0.4429674262058608,0.4279512832746432
1.7167167167167168,0.5178139079036148,0.5567156742903587,0.4513286884595831,0.512241737577309,0.5080902195315524,0.5524849565092605,0.451018695692375,0.5342264283319479,0.5402734111511752,0.4645343979772696,0.4456573635552562,0.505952064696049
1.7217217217217218,0.5773081486824378,0.5389314898242329,0.4849280457490503,0.494108132221053,0.4725748792903269,0.41762684370743036,0.42878647747216625,0.6146170968126871,0.5273735990277076,0.559694388384733,0.4326137086622686,0.5364920319748743
1.7267267267267268,0.5232762136830224,0.48764924533060766,0.4657024809269766,0.4979263523137671,0.5108133763790121,0.4383402188548594,0.4351281280557002,0.5148432029806742,0.4670929017875044,0.5031944212012232,0.5166034504082381,0.516045314229091
1.7317317317317318,0.5517097264521182,0.44729723630515056,0.4766890805802122,0.5498948401572582,0.443239377526849,0.4867491992078809,0.5520322823981136,0.5025243487706635,0.4679343728137154,0.5156153672922803,0.5076727759984239,0.5333386914265911
1.7367367367367368,0.5373749230688931,0.5108849257141604,0.5881177813976407,0.5282275248001289,0.38956193533607153,0.4822444230218394,0.5306634943970888,0.5311472480506831,0.5320933762127718,0.6332050212231489,0.4761477503317127,0.512474516884046
1.7417417417417418,0.4679712081009589,0.3990430181007971,0.5832160754987872,0.529887702536502,0.5154816166158951,0.5209223752474529,0.4222555651059404,0.4402694684210923,0.5008743271082251,0.47300096824810844,0.46398813268573064,0.5030089573653992
1.7467467467467468,0.5058456972822007,0.6133713717380154,0.4389863815864291,0.5319940313220869,0.5233838520960525,0.5065098121017607,0.6174798377861767,0.48400719385554863,0.44082007476934215,0.5700452099531874,0.4310232971259497,0.5728296790557714
1.7517517517517518,0.5372237077389164,0.4280324993946394,0.5304703374182238,0.28523219121417986,0.5148293575578677,0.45335089342704243,0.6071720540583934,0.5005802057822941,0.4945504286443483,0.46766993246209004,0.5375556854742976,0.4592831762704876
1.7567567567567568,0.4687034456136824,0.5493859978814848,0.5419187660634328,0.4171294324251254,0.4458567411815635,0.5614203196009288,0.4638145025745374,0.46840908324393826,0.4977320752884618,0.491446025334549,0.4166728265016464,0.5163155714726397
1.7617617617617618,0.469412372629785,0.4875573060508398,0.4903195994060265,0.4666256415435244,0.4874622956029312,0.5319878543996066,0.47355571819956366,0.5139300460561778,0.4417247882818036,0.4943168099834131,0.49295781363315017,0.3723609865750992
1.7667667667667668,0.4807324183366945,0.3688725689512521,0.6240648952990293,0.4910866578166905,0.5098966265662257,0.4628310191749263,0.44718562052553174,0.5223109339290356,0.4899732854584501,0.40229066753967635,0.4085400300396945,0.5074520176252619
1.7717717717717718,0.5260282306219001,0.4597691841401535,0.49090862891745046,0.4456376977443332,0.37047007327142006,0.4833345669043535,0.49577767891151786,0.4145673712520969,0.57939215701007,0.5194593393542445,0.584340611707996,0.4727813258134158
1.7767767767767768,0.4547636598750431,0.49551164457768904,0.5069473339473948,0.402952562792808,0.4252270581491221,0.48357291158090365,0.43528522121471425,0.4225317909175494,0.5086423282429294,0.35806991985071407,0.4347942376741536,0.4399316806052055
1.7817817817817818,0.40988867118548816,0.5423627961859989,0.3780101132193066,0.4161735783911932,0.5373128321954792,0.4769360812820624,0.4358199990365329,0.4946355560005114,0.45382259695086996,0.5229870806788127,0.3786904769983723,0.4061892489267588
1.7867867867867868,0.5296460155043056,0.4320581620927376,0.36686603701165954,0.4837052792077426,0.4652970298654443,0.5024618456844371,0.37153323605294825,0.44703224916991885,0.4883463693945426,0.40052538846196095,0.3902501951648769,0.45068008242950797
1.7917917917917918,0.47840032371754715,0.4503125053685995,0.4781811781076878,0.33873585551471586,0.3846983449077692,0.3434682512847025,0.3794286827269613,0.3992935698166328,0.3743642507388353,0.45015432664547655,0.4511080617127278,0.38500157921787975
1.7967967967967968,0.38704796646507456,0.5327286901118732,0.40329093465601634,0.42091030645882965,0.4090553954671855,0.4329037981297793,0.49762051640083244,0.38073455599330724,0.4025704102253037,0.46904317065885504,0.36472918889201117,0.38660187836721505
1.8018018018018018,0.3619522839054455,0.46663696131426324,0.4477687642441777,0.4624881445087017,0.38040791364399995,0.4889091764094116,0.42518451378257943,0.4219308920088759,0.44125405760199216,0.4082690389159219,0.47102067702608713,0.4061394972181968
1.8068068068068068,0.38040138082641983,0.433717239643092,0.3914735782352358,0.394230819937733,0.443509642930053,0.4700570422908532,0.5322260209412057,0.3419048551239188,0.40193016922204866,0.42548524271333193,0.4301926864164045,0.4184885963420286
1.8118118118118118,0.46073397273459854,0.36258232352057873,0.3108761531494545,0.41912195643082945,0.3629448742576721,0.32844173756507955,0.37539453568792513,0.41121751009527724,0.35413113086821146,0.4915362673428171,0.3467892457398859,0.489487049561972
1.8168168168168168,0.36158793106747167,0.3566915876467166,0.39914711304419365,0.37878677626701257,0.33774406140252733,0.4113978346357489,0.3692204964711583,0.4081700062164447,0.3291591321656378,0.3846622172037596,0.35668265128416127,0.44261763602007226
1.8218218218218218,0.3530097125186095,0.41428568692642337,0.3857815690041542,0.3863845345689444,0.33458588297726777,0.3218775593117091,0.42166598616197687,0.3843606631433683,0.4120949111141997,0.36851305613329577,0.3056651083042345,0.31121636248291784
1.8268268268268268,0.334511611099069,0.29903605442854586,0.3120118827649088,0.34611552221563113,0.38095110076661765,0.3769158079476686,0.39324932562985776,0.3381532160537246,0.30346236521378156,0.30978272467117995,0.3415322969706969,0.3587382781533036
1.8318318318318318,0.345074269654096,0.43567672305638605,0.33276987603105435,0.2958009898167488,0.3237919835096366,0.37325500171102816,0.2414393691761882,0.3644625300376491,0.2729191450608648,0.3633949310424855,0.31974458965460417,0.28117016725008287
1.8368368368368369,0.3263642872604966,0.3687182850715354,0.30834962603972516,0.29352350286581846,0.2795029190604136,0.32349536467556295,0.33527639713887236,0.32122982759864016,0.30415879336112606,0.3476493815167064,0.31416199452597826,0.29528266897862904
1.8418418418418419,0.3307382198983606,0.27998357041397104,0.34039648249848253,0.33053448610253233,0.2719697929573416,0.22530608482589098,0.2544950246959364,0.30040580600587025,0.26914633940627053,0.2923393321749989,0.29539623142344595,0.36920856886936354
1.8468468468468469,0.31908095817298837,0.25100150813560734,0.2701841460251857,0.23490519819966277,0.31369224118779077,0.39432430931664914,0.334126211430443,0.22485897255345585,0.3232377157096633,0.25095298158622903,0.230219482105504,0.3097811560836341
1.8518518518518519,0.3179312200527616,0.35553835638462483,0.3601790911310906,0.24710711737953533,0.29869251961598847,0.3108404274374621,0.3825525245727076,0.29272357518755243,0.3016249813895804,0.24859477797786037,0.30585106813752944,0.2597943213806706
1.8568568568568569,0.21562679637197124,0.3097256175896441,0.2615451523097063,0.29918694151989517,0.29352845053569115,0.28740690527411056,0.23234240248325244,0.26669465541996723,0.2867792298800203,0.2958236704728863,0.2649130599966085,0.3085716495390781
1.8618618618618619,0.26376892932975016,0.2133101108378054,0.2167671244072209,0.21977114813655163,0.232013227060127,0.29366972785519824,0.17777683175420406,0.18754356568934993,0.24261263006578132,0.28060930436492687,0.24197292087277852,0.17335442540085685
1.8668668668668669,0.2057512515967757,0.2148552743200222,0.32816698067789796,0.28253362073181637,0.2770727451260287,0.33832546373127115,0.21574579753123418,0.18217512849597736,0.19024484872348923,0.2190589327819424,0.22385490489644314,0.15477492319111663
1.8718718718718719,0.18938456040824417,0.2291614525211551,0.20971261217968698,0.23757764207484872,0.2073468904425465,0.14674594004766134,0.2693386155660377,0.1721641270976623,0.12110668529590243,0.13396526151363994,0.22398004683880607,0.2247587202339691
1.8768768768768769,0.2663696969830901,0.19234423611115672,0.2208868764431408,0.11638036524890677,0.16088248993868554,0.26463862990997433,0.1722074229185329,0.15625945153316947,0.21243669578003782,0.20421328274221964,0.16834877396345102,0.24865453777266142
1.8818818818818819,0.21955051359225072,0.1500006625874165,0.19112103292713287,0.16491794811460142,0.17129478401356474,0.1248382590339385,0.17223883188024394,0.12911194335493847,0.15015778149280562,0.19099554508379404,0.15493206848987737,0.12747553908682285
1.8868868868868869,0.1181511954507782,0.06899235100879522,0.25364696343176635,0.11030589251901132,0.08618524262081254,0.16120220112142694,0.17355785172554053,0.09339057376318899,0.1249123710707983,0.15216877028762166,0.10091224355168418,0.115886035863353
1.8918918918918919,0.1245537032089195,0.18280785836403188,0.05532071282636915,0.1531044673002312,0.18616459445532718,0.17730908166863915,0.10273335118325505,0.06403770954905179,0.09531317796468264,0.1628302828247878,0.11051123190657955,0.09558726542725549
1.896896896896897,0.13465822274384626,0.05377194975547857,0.07961860627188878,0.12024399663617888,0.10044361451311272,0.07048419591947337,0.05154006099607096,0.09453719187561575,0.08129997631812809,0.02432413417812418,0.14919579262279575,0.05677902701047994
1.901901901901902,0.1866462200245022,0.02360379313571563,0.042131437599536414,0.031289602960331765,0.07572436743475579,0.08341467569976926,0.1579996604945865,0.10458369708968347,0.08508973049228422,0.023387543140125727,0.1387909736938689,0.15555060221102385
1.906906906906907,0.1132802401940475,0.07282262956593258,0.03770085264157649,0.051409157410966924,0.1205219597918185,0.1373746716705096,0.06115652212338161,0.19380435544499733,0.05728492195901602,0.07543844890636502,0.09256716816465373,0.03855121871945591
1.911911911911912,-0.024171390146367655,0.062159955246710426,0.07554838173788585,-0.02695675592209837,0.1063687240347003,-0.053444839548684966,0.062060570005604665,0.10427315331388626,0.06793146161465613,0.018892434203269137,0.07619134607063496,0.018338334656300113
1.916916916916917,0.02022267853872103,0.06033177961515282,0.078572790397898,0.029166346703165206,0.09693970227564402,0.07112229730982197,0.018777258505614375,-0.03498142442755915,0.03777987939416404,0.007008199258118641,-0.021636928064716773,0.07099393474364368
1.921921921921922,0.1118618630425009,0.044356660347963706,-0.028195394689131306,0.13822989350390386,0.028188245569884016,0.0038162614894792835,0.05127543032656881,0.041789101615929324,-0.02723741724981426,-0.021952097800234157,-0.031456893180327565,0.0604698229241428
1.926926926926927,-0.06593044356978568,0.03538998912767737,-0.042303579851980924,0.02387389270581275,0.009925250403463703,0.0016764428887459347,-0.005442318532802767,-0.025847552590431616,-0.01978465354683895,0.02160452622084255,-0.06175598527488791,0.05449857841484189
1.931931931931932,-0.13500881258259034,-0.06268543349084818,0.08351280359308375,-0.09178065638910825,-0.08425643525761788,-0.048482822466298,-0.041228922371604075,-0.05472448337854605,-0.0367709391274785,0.0017163203331736904,-0.035241391606112865,-0.10502452011626007
1.936936936936937,-0.0845498134608102,-0.028347704850926064,-0.01997262570671242,-0.14672328563456485,0.00889026955887088,-0.04250051887343598,-0.030579943148138146,-0.017086602476471743,-0.0955592752252592,0.03654408443386826,-0.03190899496249888,-0.021890577711917047
1.941941941941942,-0.00860512865370179,-0.14252232484318716,-0.13018857259679698,-0.1683796216627944,-0.017107291313020162,-0.024214205550886908,-0.031065787432294746,-0.03507130534744301,-0.19432619808020685,-0.0208978738042023,0.014714498711495036,-0.17205441081874173
1.946946946946947,-0.09712625671148073,-0.04453418368586211,-0.12252987988668501,-0.14835152025393256,-0.08054332246678834,-0.08083009980265606,-0.10325879661466375,-0.15726571229107983,-0.11887280521511963,-0.04108804300936338,-0.09712807721193703,-0.06521908104698418
1.951951951951952,-0.08661749831009237,-0.12063093025807892,-0.08056198486672658,-0.0994299215736558,-0.20877748770886306,-0.058984759347049026,-0.04078543549952579,-0.08295669294942543,-0.19944794943554445,-0.19849217907187905,-0.0822632531650288,-0.04896299027908041
1.956956956956957,-0.13062545628885935,-0.1314457967366026,-0.15239165282415132,-0.06422764168724852,-0.16036553146839594,-0.162998042865362,-0.08303753998434517,-0.06658258449678868,-0.08949612942457641,-0.0598481465449863,-0.014777770672150997,-0.12110671809595017
1.961961961961962,-0.09986458947751997,-0.17672698683587423,-0.24471871188994748,-0.058973039355831605,-0.21334946290503146,-0.11695871849409063,-0.17412342363854819,-0.13018441576296474,-0.3099930620067973,-0.09156416646230037,-0.22251325986981474,-0.12182449701480644
1.966966966966967,-0.15428873969075335,-0.14739766793756204,-0.20186953095044113,-0.20569605055603324,-0.09118031146455778,-0.17951774641098267,-0.30824472089299326,-0.10524007970588596,-0.1317248644916003,-0.16188461107949664,-0.1857785187751921,-0.17930724507457516
1.971971971971972,-0.22279987576581603,-0.14040306984713694,-0.2199587679059592,-0.1867648562998338,-0.19614166198108707,-0.16768861181173697,-0.2256359452101523,-0.13727947637736643,-0.11764949772616767,-0.12859066482020037,-0.19204464234223967,-0.09927787413135378
1.976976976976977,-0.19384018482245,-0.2393681066044874,-0.2348114849940534,-0.19516086982122563,-0.2868160058674526,-0.13786066614920137,-0.2477269545996711,-0.20255383746208716,-0.10258531332449078,-0.23084330097530997,-0.2180906143047204,-0.2793116471069707
1.981981981981982,-0.22209057121441286,-0.1758609914515521,-0.25075582885594633,-0.19545486509938423,-0.35026794122762267,-0.32322232657793815,-0.2559603901285116,-0.3021288960839042,-0.24361926058082786,-0.14037351032154033,-0.2429199278457834,-0.2660244329173186
1.986986986986987,-0.3273123847060437,-0.23164285506058244,-0.17486081964373748,-0.23867197771287363,-0.2505945340130743,-0.2557030180345536,-0.1633461477842436,-0.2647756325061624,-0.20283788699265087,-0.20700792050712363,-0.266520231504047,-0.20730389402216415
1.991991991991992,-0.3008714812023363,-0.35774054228108804,-0.23696226311178123,-0.22098554838144013,-0.26807708591138496,-0.3267533199553841,-0.2772271615837135,-0.22723521869506236,-0.20223149408710264,-0.2768494596134015,-0.16110587044585056,-0.24471293295710528
1.996996996996997,-0.33680570446958275,-0.22824299092235886,-0.27628011201584196,-0.3376491072394265,-0.2427251377949143,-0.34438204409576795,-0.19722627796173406,-0.3380987035776171,-0.2648737652903791,-0.33061274672532454,-0.27915816299630264,-0.3479774520418989
2.002002002002002,-0.320662540979711,-0.3024526237418164,-0.2515319017613845,-0.30251090895254557,-0.25905109300126306,-0.3439670772602995,-0.3121173468797301,-0.3055138294055816,-0.27033064264217255,-0.2333223363455762,-0.32755583216064554,-0.33856073318045027
2.007007007007007,-0.396561655604808,-0.44027875248292103,-0.33541357379614944,-0.2938459951708431,-0.3671510550517407,-0.2928368816134272,-0.3421174027289072,-0.34961962384586653,-0.3019138098489537,-0.32338378702943127,-0.3248727811481772,-0.3049026612046054
2.012012012012012,-0.28376900720320464,-0.38089940481796203,-0.3236840842546199,-0.36289463984878917,-0.289813923898203,-0.39620203341482124,-0.3031685248320178,-0.330915991138996,-0.2288032414698687,-0.34267887785205214,-0.3508011661863299,-0.28280185937778646
2.017017017017017,-0.3920696049214323,-0.33041827281241676,-0.30553406555983914,-0.2199639726256984,-0.3127039073796684,-0.3945399942037192,-0.3344379877769796,-0.3436855264902137,-0.3067476323001727,-0.4305960145491162,-0.33582690224718265,-0.29311821351752976
2.022022022022022,-0.2822439405241281,-0.35867697235087653,-0.3190391747454123,-0.3385552482301834,-0.3588458035612297,-0.3765421403250804,-0.3838187992244802,-0.3241603487665785,-0.3593884729875659,-0.24924386058363449,-0.35369717018651103,-0.32724437574362897
2.027027027027027,-0.41775678613405015,-0.4009177206317256,-0.37974798794347897,-0.403282161761309,-0.3429220241549134,-0.33574068766796883,-0.289704047524326,-0.29963661514520207,-0.43988168178261067,-0.5108851699362038,-0.3246418664524877,-0.4351505469229475
2.032032032032032,-0.33657851421406415,-0.3707558350922517,-0.4082100415365779,-0.31405874664239286,-0.36121996648117694,-0.4248611169060922,-0.44387136723017306,-0.4075732536331345,-0.37392985811891305,-0.38433311887488136,-0.3864969903716375,-0.4128117473403873
2.037037037037037,-0.4165648425908646,-0.45228667573761594,-0.379295995436951,-0.32679519441018157,-0.3814736044095207,-0.36396112875157494,-0.406791898905101,-0.4059435534751092,-0.4406483730794947,-0.41693796925367227,-0.4342086830400236,-0.417245070689711
2.042042042042042,-0.33072040772311373,-0.43942427530535694,-0.461923933924511,-0.47847371915960424,-0.444311844631403,-0.4365593384802139,-0.39308697023468914,-0.3022824949243105,-0.3926619301970936,-0.38344968895670334,-0.39590459840375647,-0.357330825975503
2.047047047047047,-0.39403712154992143,-0.43951833864730333,-0.4946015845323748,-0.3608477473562341,-0.38714721055687634,-0.3842712761670118,-0.37116671300663007,-0.399384089482836,-0.3965745680882174,-0.4591679909895299,-0.45676438079168435,-0.4437760174924437
2.052052052052052,-0.4253454139211336,-0.4995591587010889,-0.33906254246570383,-0.3887834444296471,-0.4509329322754701,-0.37673686240621573,-0.5416154608279994,-0.33428231438442435,-0.45069873565034324,-0.4327574956552739,-0.4076102463341656,-0.3986215867605327
2.057057057057057,-0.4342106072564068,-0.4846720470489932,-0.49455725681788887,-0.46118837058361134,-0.4967981791333299,-0.533867928951998,-0.41696585354903526,-0.44034624717640614,-0.5163586852904282,-0.4424035637643813,-0.4329082297737639,-0.420804018802699
2.062062062062062,-0.4673270238326573,-0.3954223897141365,-0.41755857126836676,-0.4766265463127443,-0.3944038743174079,-0.45476337229271885,-0.4249215611988703,-0.40383454934874696,-0.4031886205788196,-0.49891337643005396,-0.48778823276422045,-0.48480125313598577
2.067067067067067,-0.4403854013753768,-0.5165265025469826,-0.46957128000644793,-0.3365670237373737,-0.5321848293445832,-0.48819192473999856,-0.44017358279845115,-0.496962257337645,-0.5026523750548497,-0.3909144526203333,-0.43648797345086127,-0.3146524632042804
2.0720720720720722,-0.49079007508772293,-0.49008545539811765,-0.4949395608273852,-0.4848897832755243,-0.48368412292496116,-0.46340461415904033,-0.5286587402515416,-0.45724700293174014,-0.5244631146821314,-0.5123050803012613,-0.4497607994828886,-0.45536483215855533
2.0770770770770772,-0.4894787800612163,-0.4492301662281667,-0.49828433180081194,-0.4061667151030188,-0.4627418044177439,-0.47087865835597525,-0.42076808830437373,-0.45298537218406204,-0.47886612661667527,-0.42353043949052616,-0.440331960513535,-0.5164350949368897
2.0820820820820822,-0.48017702528133455,-0.4810242916195306,-0.49393402289164534,-0.4682474059646896,-0.4594415867503326,-0.4049397508297036,-0.5010795454564839,-0.5231383303547428,-0.45075306908590934,-0.5084729554653968,-0.5160767075296645,-0.568080593720843
2.0870870870870872,-0.444049984667088,-0.5180955359197487,-0.528860881293962,-0.5127777298373173,-0.5097352542181105,-0.43801654917351024,-0.4448256945183111,-0.5133534842014134,-0.42521272126613896,-0.3917310277263916,-0.4841914799158685,-0.4844567353749214
2.0920920920920922,-0.5162513024271406,-0.48439945855892896,-0.5569615253673685,-0.5106861965299299,-0.4925482589526444,-0.5063652153096326,-0.4910511655856515,-0.4401601890079858,-0.4672720504905393,-0.5348551956312917,-0.45535563308051,-0.42734378338206597
2.0970970970970972,-0.5250180124165981,-0.5083332403983235,-0.46164918487660817,-0.5717733937580511,-0.5519608524336564,-0.42849344532346273,-0.4853910101787289,-0.5928383567058794,-0.5410512903036986,-0.6001928688035768,-0.4316335722164014,-0.5556460428921969
2.1021021021021022,-0.5072325686695275,-0.4960308280418244,-0.33128338936403695,-0.3627640369391132,-0.45721840859904184,-0.4004450710938557,-0.40686426606606363,-0.5428685295930731,-0.5063331905868812,-0.5825273491291691,-0.4243228547452579,-0.4396297784735256
2.1071071071071072,-0.46265428777743006,-0.5492717277997641,-0.4855286383474562,-0.5466649626761182,-0.5514925163944198,-0.48519356312812556,-0.5575051794298567,-0.49541258246111153,-0.5346787953241591,-0.48937326149386806,-0.5889211618382157,-0.49163701392462966
2.1121121121121122,-0.49764539148958825,-0.48334088352652366,-0.6271881958538869,-0.4717654601285216,-0.5081762070288531,-0.41661613264871117,-0.5196489289245321,-0.5421087059347682,-0.48730819736940717,-0.46285631929031107,-0.5121749732233793,-0.5145673508964882
2.1171171171171173,-0.45778765217227085,-0.5637088661955373,-0.40959694104089983,-0.5411242352509128,-0.6170593155466679,-0.45627129535344846,-0.521681378344163,-0.5590299875374742,-0.5294713478990819,-0.5367720918845271,-0.4526050756704387,-0.4191803453948102
2.1221221221221223,-0.4351934067784155,-0.5039225177579533,-0.5888352404791084,-0.5454106155512928,-0.43596555710138496,-0.4700098154606736,-0.4711819514342739,-0.4757842163566013,-0.5750350579799338,-0.516028374200884,-0.5194864759700877,-0.46961868903544085
2.1271271271271273,-0.4534868859664486,-0.48768960243089143,-0.5887792602481456,-0.41346735832591824,-0.523548216152561,-0.5634164499271224,-0.5527627139249602,-0.4342029466650081,-0.5992434503129386,-0.503013554512614,-0.5495793523316376,-0.46556201338137404
2.1321321321321323,-0.4477967272556316,-0.3871133429379599,-0.5237351764049154,-0.5774581109248186,-0.5189288849446028,-0.44680886266123143,-0.4839338335515148,-0.4823258570522084,-0.42673325283000213,-0.5010778791522593,-0.48144307133838604,-0.45635305419077693
2.1371371371371373,-0.48911311006797303,-0.4825661188344384,-0.5359721620281334,-0.47323872646830606,-0.5097500356190539,-0.4952212937271731,-0.4377026862035585,-0.4273882573453818,-0.57336704608953,-0.339946337994899,-0.49292022772683,-0.4651190089743627
2.1421421421421423,-0.5368421374080103,-0.5248517432278174,-0.48944827492583054,-0.5791954667191684,-0.3963218102920755,-0.44276412191240905,-0.5113937588247248,-0.5575155330283874,-0.5358702043383795,-0.5311190674463916,-0.48632122651993837,-0.4517699126806174
2.1471471471471473,-0.48410083119204395,-0.39612143985669895,-0.46327484869183516,-0.543402122849399,-0.5337763212240574,-0.4858000984015797,-0.5989696416555637,-0.5034784626962986,-0.5014207091825731,-0.5369184010993036,-0.6191298400256491,-0.5018564753593654
2.1521521521521523,-0.5083347456956941,-0.36784266254825265,-0.434574449629578,-0.4455507424104644,-0.4855898319724118,-0.43546242357085396,-0.4560943381939101,-0.4586999819979632,-0.46180297050184294,-0.4097844935072204,-0.5160142644362247,-0.46565227014899063
2.1571571571571573,-0.4290614253131333,-0.33973085350714227,-0.4533270704949334,-0.45322707377067595,-0.44956272096578187,-0.5356529839796373,-0.5316127965258668,-0.49909678577626504,-0.45964742563531935,-0.4794533817291214,-0.4632865728095964,-0.4894555382456709
2.1621621621621623,-0.4915802727483903,-0.48261398403110406,-0.39881872656792716,-0.36475570336502916,-0.4817575158657573,-0.4280336216949094,-0.3651376004627304,-0.41837415711322073,-0.449070741293061,-0.4150636509127383,-0.5433405553104629,-0.45024385569720177
2.1671671671671673,-0.5754833740786987,-0.42127686421270594,-0.4090645024060585,-0.5422171609186747,-0.3724082892127293,-0.39967610465471803,-0.45693906696573233,-0.48686000868291407,-0.5737617017059242,-0.4697805963930948,-0.5496767855460353,-0.3888046256414295
2.1721721721721723,-0.5102687985222645,-0.4166992735100709,-0.45842626359242605,-0.41487611626527193,-0.4259235261496381,-0.5028887075970027,-0.37696731082425095,-0.4809290012159897,-0.3799231246872679,-0.48830133081247484,-0.45859897422271545,-0.4338081417295265
2.1771771771771773,-0.3127081087586998,-0.3588898623221637,-0.42068587081835146,-0.4422813123347292,-0.4051507185670537,-0.43844323994568973,-0.44204927368359004,-0.4020264502020458,-0.414063538719932,-0.38979373563909536,-0.3903903264004,-0.397274928867125
2.1821821821821823,-0.3633278705934127,-0.42723925341275104,-0.327177951403203,-0.4201464563212184,-0.40437881555867466,-0.3498753890273668,-0.4505229116131153,-0.4649143631392922,-0.4257487266128061,-0.517068008170556,-0.4013873449348392,-0.36147179790896977
2.1871871871871873,-0.38513215407508067,-0.3716324056381998,-0.34551211655755015,-0.41371828046132486,-0.44013026781857806,-0.42945977693146703,-0.337405362971241,-0.4805764392537136,-0.31291527081621334,-0.5090755247213351,-0.532942444189872,-0.40052994287210275
2.1921921921921923,-0.43636593566210613,-0.35406187503347314,-0.3672108093170348,-0.34472077034007387,-0.45174293478992733,-0.4326368571499885,-0.3643296800274542,-0.40748873842889916,-0.406008153646746,-0.3991565905874069,-0.42935874236570004,-0.520247753046528
2.1971971971971973,-0.4075072107361987,-0.3085061902790882,-0.4759468449161609,-0.3864206393392584,-0.3070875200567491,-0.3914230303380534,-0.40263004187400103,-0.4513051903553041,-0.2969193131809413,-0.2910917939295123,-0.41724286370566166,-0.325875203595354
2.2022022022022023,-0.39951815742110497,-0.4155393692496546,-0.42101640772636595,-0.3723050461079663,-0.3767146270492828,-0.3226231174827566,-0.40789881945397705,-0.3649537045775515,-0.36242142437339525,-0.4587222019445635,-0.35094335473218535,-0.4180899160567667
2.2072072072072073,-0.4145173190322605,-0.38850691913087204,-0.38946279566136305,-0.3410300846720495,-0.37907013767050235,-0.3934126282724731,-0.4444051633827837,-0.3098330415400729,-0.4187356653107406,-0.36579625472862004,-0.3978522273826802,-0.3556850339776227
2.2122122122122123,-0.3550763377457025,-0.3588904904004873,-0.2998790129384201,-0.2838802258359631,-0.3292805805441378,-0.3615508252983091,-0.31107977013731253,-0.2778273199446709,-0.3097589819799562,-0.3609789766699801,-0.28123356436045804,-0.3282218841278233
2.2172172172172173,-0.35431322303186147,-0.35528986849453975,-0.4396421398494791,-0.3215230239461945,-0.2827902676044017,-0.31357045346555107,-0.35472012810701675,-0.37074632691532095,-0.30864489405661216,-0.3383933329304665,-0.2990058575244565,-0.3980199093174352
2.2222222222222223,-0.2518713557444131,-0.38623142915799,-0.2702582798036032,-0.3055416304682123,-0.23836604471732753,-0.30243890224725667,-0.37683868655351244,-0.27277446732917954,-0.41717076672813413,-0.28415004791106657,-0.4002135713502023,-0.3398244521432163
2.2272272272272273,-0.3155014815766392,-0.38442958137845507,-0.3309889485854174,-0.23637704422074135,-0.2744127515443059,-0.2593868518025503,-0.2559003446888777,-0.34520988228399174,-0.27714081431037635,-0.377839109651011,-0.24828204106107216,-0.3127673572019285
2.2322322322322323,-0.326932337500496,-0.3044066874681924,-0.3028333439321075,-0.3326450672281175,-0.32735602411173625,-0.29365716490376054,-0.29200242108751495,-0.2163203530288485,-0.32399546651333055,-0.2512188875430611,-0.3199571326513243,-0.2119910029668988
2.2372372372372373,-0.29434628436706517,-0.21426034873435873,-0.28063356986494475,-0.2987290199038222,-0.3026142671651655,-0.3154896240410909,-0.29508749492224307,-0.14292520418552487,-0.2815406932309867,-0.36705148333543947,-0.3191234528763368,-0.2941217778724036
2.2422422422422423,-0.24786049716524558,-0.2696329075329606,-0.20097804229010396,-0.2869481428925303,-0.2486943975292441,-0.20012630713840918,-0.28069016548963494,-0.2936615612467868,-0.18114161878785257,-0.27123257131395384,-0.2532192929617774,-0.2516681458357066
2.2472472472472473,-0.26452839440708187,-0.18869516076044943,-0.3035888666798645,-0.35261483996471665,-0.1918919218152884,-0.2758139941510082,-0.34803979816183345,-0.18566722351256484,-0.2362862844414789,-0.2237795706294635,-0.3092518509488584,-0.21751578018017068
2.2522522522522523,-0.29593669514867915,-0.2171203306551285,-0.23450217940360815,-0.18820161549866907,-0.22937115925073728,-0.1753209514733028,-0.19462624347902618,-0.19543458411105816,-0.20570223874364457,-0.21298348236013837,-0.19059830043970638,-0.1873819420190665
2.2572572572572573,-0.23389364848780106,-0.2415931455206382,-0.2087719673949316,-0.25623507249568755,-0.16602730764625867,-0.23989787804157398,-0.20030568097958742,-0.22030740234983412,-0.3074831479723974,-0.17090639717962747,-0.1226483110176761,-0.18061242651908171
2.2622622622622623,-0.18765852732499627,-0.2412776783467226,-0.16224258878701714,-0.22336274678539572,-0.1675354022339011,-0.2308566770556973,-0.2269684291400851,-0.236835732307868,-0.2933185540171856,-0.12101357059725196,-0.16005721864555492,-0.10023060265967382
2.2672672672672673,-0.23179571684480071,-0.06897921731587983,-0.13211812419122831,-0.15542630027583823,-0.19660739326642432,-0.13947321587569372,-0.14338184188362862,-0.22150185879602102,-0.1692402026647574,-0.131066815837609,-0.09692213789586862,-0.20556027225052026
2.2722722722722724,-0.18284099157415606,-0.1263742464641073,-0.2124831421956384,-0.12466653524969684,-0.08137826398690814,-0.14314940942514973,-0.06118292481669198,-0.07377142787368773,-0.22933680370362125,-0.13674846080349426,-0.15327868940758416,-0.15805827816687476
2.2772772772772774,-0.10232247742197047,-0.04769212158148321,-0.08537162100851509,-0.14172854752496147,-0.17820141672712225,-0.14223015153768043,-0.13590941224343286,-0.07261500443720104,-0.11362286106137641,-0.08658426033799074,-0.19511675309085652,-0.04151595609069658
2.2822822822822824,-0.17167860972977378,-0.1796239803902,-0.15826924872632087,-0.07628958150390674,-0.04577365335618995,-0.0660002747775378,-0.029354804057570197,-0.12816312600068874,-0.00667499523522902,-0.08945640062009082,-0.04279783924598023,-0.1990543590522203
2.2872872872872874,-0.07649455261367949,-0.09211410071881336,-0.086998806757216,-0.17329983919127173,-0.06267273075798732,-0.06291726389521346,-0.10190930845852192,-0.03302597814594345,-0.05861947545136237,-0.12434538321856412,-0.04104269042751462,-0.11257654564468259
2.2922922922922924,0.0038317053282214825,-0.058699086571684815,-0.13297768603029655,-0.11808625946074858,-0.12273479355066225,-0.05530167922357436,-0.1224273522916049,-0.06364364937336635,-0.07572866943229571,-0.03687325818259701,-0.10853702686641015,-0.0732417365239219
2.2972972972972974,-0.02922594802146581,0.03842605907008187,0.02426748415391404,-0.042468487942281474,-0.009166729919196231,-0.1053081231271597,-0.07923206910632732,-0.0820082902860676,-0.030194031269112753,-0.06634977056044947,-0.045012543799799555,-0.03759101621909675
2.3023023023023024,0.01553036498827175,-0.03371697868303819,-0.015089935991232227,-0.02950418133425375,0.06238142375858792,-0.014988813326200407,-0.06214767029400367,-0.048406700503216854,-0.0015135957683870827,-0.01482651998676586,-0.0392817392778277,0.07426244686660716
2.3073073073073074,-0.04364883773684377,-0.060289880281411204,-0.054840288610943345,-0.04564442401788003,0.00894997227904456,0.05360614499768073,-0.0036632610811363686,-0.004740901109710386,0.06582884116688895,0.07100833542161257,-0.03447767793641701,-0.009453261563070157
2.3123123123123124,0.027333233921939377,-0.004252838273297803,0.017966389242990502,0.01507794927336162,-0.03761888686120754,0.015382994044780754,-0.011482117566488276,0.011598918680464726,0.0013300349605252504,-0.003416962829574082,0.010133073045891786,0.03995198639538436
