time,lead1,lead2,lead3,lead4,lead5,lead6,lead7,lead8,lead9,lead10,lead11,lead12
0.0,-0.022893873167997843,0.06907946965774367,-0.002290973631175908,0.007709877389911106,0.017450957213755586,-0.00631231922367605,0.021712809427230945,-0.03410959637823819,0.04568157628563114,0.002039414936194757,-0.020949883044042564,-0.04880196755358864
0.005005005005005005,0.18224539569758924,0.0430379078397858,0.0748366073699262,0.12339161063821395,0.07669701383989876,0.09525946627863921,-0.004448995733706662,0.14213780328117998,0.11510562791259607,0.1441174105940881,0.013776568907948955,0.15226145925531853
0.01001001001001001,0.15119995619187873,0.14928797040206176,0.033868144576145676,0.11416145886622436,0.11480107684894697,0.12384235027373187,0.10967667791272873,0.14581856287645178,0.03202192309797247,0.12356877792247271,0.10353643555925479,0.2191933871483699
0.015015015015015015,0.2675552318128242,0.2495078139318831,0.22767723543805413,0.2542905618378199,0.24420306286863452,0.26801798610609684,0.22640133068631246,0.14682136123483175,0.21062778644089797,0.19455335542238977,0.2382025585241056,0.2380012752532957
0.02002002002002002,0.2638593912503784,0.31874680597626676,0.2910178497279071,0.2784002002883592,0.2741288982822096,0.33641082340911177,0.354488805878432,0.2886231299225386,0.23356126883770265,0.22723738517888142,0.17256216217870507,0.17465107313908979
0.025025025025025023,0.3888963510436282,0.3683984347455167,0.37537331134453206,0.3106080463250274,0.382400742901563,0.45374119344095887,0.35092464449610106,0.3247401069042077,0.34873620542935085,0.4179467676029602,0.3151573520916876,0.4360450509473649
0.03003003003003003,0.5409053974892294,0.4728849468202518,0.4734892937150281,0.49085354816659915,0.518899948033601,0.44218215544648676,0.35442487854285615,0.48164495656766915,0.42340501255631535,0.4658223774494625,0.4008770182956802,0.3777874173047472
0.035035035035035036,0.6272400318707415,0.40337472059739526,0.6017433001217873,0.5653802877062614,0.47848308889068836,0.5323729059375973,0.562774910739057,0.4396661736030732,0.37787113243649983,0.5480480759420457,0.504716786006241,0.5645948076826853
0.04004004004004004,0.6795881897609163,0.6548424977861802,0.5511978623159395,0.5606131622868626,0.6193723294237142,0.5637730182362846,0.6501708807671247,0.5390850123723345,0.5648400420540438,0.5911139976410977,0.5583124173430902,0.6497859911605511
0.04504504504504504,0.6346534126974425,0.6438306525529819,0.6720149151577758,0.6817955630412519,0.6682732540035821,0.6107153698573623,0.6379732611458366,0.6450228739860329,0.6309635340121268,0.6237707839816168,0.6161408073914191,0.6699641288538376
0.050050050050050046,0.6960980197740924,0.6177355662366606,0.626052827245249,0.7285542601685536,0.7269090667704975,0.7550556583317116,0.723116917087761,0.7077214553334019,0.7653624981656758,0.730591011016736,0.6709942597219801,0.6981531934477838
0.055055055055055056,0.7799136805045462,0.8651547761778707,0.7012512452283085,0.7365856062057927,0.7677512530338451,0.8516267163514243,0.8323027641717675,0.855427204708987,0.7302982996917443,0.7967425111160256,0.7397020204615105,0.7907518549316995
0.06006006006006006,0.8454610816485946,0.8429595002700958,0.7494806003890139,0.7687159062681278,0.7577120543203504,0.8050562238981775,0.8281009203127339,0.8264825795826226,0.8045374786178408,0.7639177231924839,0.8093336697853096,0.8023461101267086
0.06506506506506507,0.9561203004697542,0.8984790986567104,0.9426112477158771,0.8252749527954175,1.005466526978848,0.9695833088073826,0.8410824260451597,0.9394676437926119,0.9183275338939502,0.8804315493471419,0.9198375138153029,0.8929805547539169
0.07007007007007007,0.903347658794494,0.9730551331104059,1.0227111807979945,1.0232948220632918,0.9406979081725205,0.973542750840752,0.9755854194661949,0.9414918693770673,1.0518013846350664,1.0555147522837822,1.08138819619726,0.9783002185754697
0.07507507507507508,1.0665628353447005,1.046509196095743,1.0023996219969393,0.9785470241328016,1.0107412803406701,1.067195088323363,1.062765738162148,1.0829975535194754,1.1239387247132848,0.9706034320795173,1.0266083804501438,1.016211420728674
0.08008008008008008,0.9819712177245882,1.064999105587684,1.0555729196981902,1.151126519104855,1.0883560596442887,1.0990042715712476,1.0768779805577153,1.0937386840445151,1.1855953313820997,1.0945438611793534,1.0705711838856098,1.0874613267782443
0.08508508508508508,1.1593360928544036,1.1486568728950572,1.2323752660180418,1.2304702300848072,1.126333414684594,1.168705115766064,1.1069130697231555,1.1651821438703416,1.1325762673888562,1.1196980570806219,1.121083231440411,1.177364096145816
0.09009009009009009,1.1634765510025928,1.2265875611648343,1.1422503479039765,1.2332394919118133,1.1820386991059786,1.1169655096069562,1.1904297126892016,1.1160674205295456,1.1679413380925001,1.2171887288789807,1.2010685278034798,1.2077393823648284
0.09509509509509509,1.3163809453170978,1.2860654968408367,1.2491065797187753,1.2745658563143967,1.2980307779151286,1.3075400092256342,1.2936965460637708,1.3271531344401994,1.2171387285002429,1.322461976315877,1.2281379901583716,1.1859952004552552
0.10010010010010009,1.2677664148994208,1.2993706803253944,1.2941097729499718,1.2915385162567297,1.3178576072684103,1.3322711783453893,1.3075240525242977,1.308018347109476,1.2361216093867404,1.3456768823932226,1.3375649163715073,1.284588096974838
0.10510510510510511,1.3981555793841791,1.3707418805989342,1.2918916716483417,1.3191100878268005,1.3289474076298773,1.288096360381462,1.3341648483299084,1.3373192437905832,1.4192370207496046,1.3819619501613316,1.361250514677516,1.261678603017354
0.11011011011011011,1.4156659066080337,1.4269286433446828,1.3889829406916254,1.3711953519380544,1.3843377356694992,1.477521626487984,1.4219548504192538,1.3723131461982951,1.3922522903610561,1.3864678393406016,1.4078295370857297,1.4252585740447463
0.11511511511511512,1.514203578159589,1.449672580323242,1.46466375763491,1.466178264471745,1.417194049541015,1.4633321277855718,1.4650734844895201,1.4718259344470768,1.4526689781129383,1.5682173567679834,1.4447777879034482,1.4186849134649875
0.12012012012012012,1.5486544223784326,1.5458901253185071,1.5114092718605312,1.4578111721610807,1.4473303273969378,1.5509706002133712,1.477709539489016,1.5328544704518605,1.4047049536083525,1.528491108388454,1.5386992814860934,1.476558667040384
0.12512512512512514,1.5949838583097917,1.524314243306657,1.5552856558931987,1.5376337963401598,1.5871758367799655,1.5515270943088866,1.5588534136734764,1.515609281624836,1.5504552878348083,1.4882291084191521,1.5569771320168562,1.5173495572508378
0.13013013013013014,1.5758455381635381,1.6026730120234474,1.609791642684631,1.513956376838822,1.571184388222341,1.5797540066049096,1.5020855806815607,1.5562742426884946,1.6358589865636708,1.531415316011377,1.6914607518980536,1.6199570470032347
0.13513513513513514,1.635842683190289,1.592468629581416,1.642852413127528,1.5704931063230259,1.553135170581017,1.606819365489344,1.6665412415663798,1.586437703434922,1.6623500055083236,1.587001140768211,1.6331361856316937,1.5877938146368453
0.14014014014014015,1.5696739826181085,1.6466504274127658,1.6221278968642938,1.5614822456997595,1.6817243498396726,1.5784507981360645,1.599404040256712,1.7089686349035256,1.6053992847150849,1.723112769395729,1.6540868339550283,1.6157254525436835
0.14514514514514515,1.756151254961267,1.641220297218554,1.7132878693031293,1.6012346011008525,1.5962737941900627,1.650742785828549,1.7129257049683946,1.6102899344262198,1.6997057562749773,1.6519327145681726,1.601847362070953,1.7470034986025493
0.15015015015015015,1.7933628358383833,1.6785209830065975,1.6967107183248744,1.690890495579464,1.6632359121699636,1.7291330108388692,1.677169280023573,1.7005982131330724,1.7193678203121434,1.7019638216975888,1.746610680320562,1.6946973396318545
0.15515515515515516,1.7772085680269163,1.5813592496280935,1.8332523645803636,1.675717467586247,1.6902678995646803,1.6750546545357985,1.7486435075118734,1.6976172001445582,1.7162112632187565,1.6264562709518569,1.665319454292423,1.7926543979586391
0.16016016016016016,1.8005290486409657,1.7823540124647055,1.7218368763053358,1.6690050568045427,1.7074949307046898,1.7055344654659172,1.7240258701001832,1.719682524150003,1.7859991199406366,1.7321497720523227,1.7615127919772084,1.7017546544002864
0.16516516516516516,1.7674213952823483,1.8115516428134175,1.785593253711428,1.7633223673493528,1.7078856897904788,1.7504596904861998,1.7651248682593836,1.680504102967084,1.6386518280590439,1.7328329522327413,1.6937362997191934,1.8103656665001637
0.17017017017017017,1.7638485801362394,1.717000512215584,1.760856717263468,1.7630553088433494,1.7752913046936838,1.6245638968766862,1.6905498175532774,1.9432083287502189,1.8100014472510908,1.7260067748685817,1.8046030938979274,1.8708131119464264
0.17517517517517517,1.7790207466674703,1.7489728525508024,1.7655334281856003,1.7685103383717586,1.8213500079308271,1.7567021369392333,1.8178942711339352,1.6798000976202239,1.8161480990787429,1.8551738036765988,1.8551718822653653,1.746320919284784
0.18018018018018017,1.7678500233433578,1.8010113460112973,1.8617458296976779,1.7581716300817656,1.8052003914500538,1.834751209245298,1.7146876171981278,1.7796411292581387,1.8284199746981864,1.828996421393012,1.8660195242383768,1.8625636953912617
0.18518518518518517,1.6754959672859278,1.88605699640523,1.8176305035660458,1.8005489731678321,1.761964817302255,1.829036782353931,1.7954701896545324,1.8429178816298617,1.8106462594509933,1.830931276141314,1.8062562633033623,1.9019344134181813
0.19019019019019018,1.865759709711514,1.7442446683843018,1.8307242027796005,1.7838677797655171,1.7277380715574477,1.7366421582937943,1.7265931709500384,1.7221406925831622,1.7594631591278649,1.6906894888570938,1.7487145574483822,1.8260893153399727
0.19519519519519518,1.7624146857298806,1.8368083607883272,1.7442936339339732,1.7983488478957856,1.7758091400754261,1.7488355274009293,1.6815765081005796,1.8097542404911555,1.8792640735497113,1.7522650875822754,1.8027643843797923,1.854000975348951
0.20020020020020018,1.7044711905887797,1.8242603150129988,1.8137095679524278,1.871151017625459,1.7994719115886846,1.7908961428876593,1.7238963893258685,1.7016712841349868,1.8696940660141543,1.7814011783770265,1.8099346394330533,1.7543835676270116
0.20520520520520522,1.7794695872712123,1.6925418049504433,1.7638008863861048,1.789826370534134,1.7914900152141193,1.7415573014203378,1.7898876095258647,1.8760115178366763,1.8132011489976676,1.8083546868962619,1.7447922867701413,1.8320355709813714
0.21021021021021022,1.7569008560423034,1.7470826263765555,1.7255952163592445,1.773138242310538,1.805959302398444,1.726836435901813,1.6840130625076577,1.833801831155622,1.8736798100786065,1.8010716327366578,1.8170067364764009,1.7400193175510408
0.21521521521521522,1.8109783921612859,1.8352979231804072,1.7814321970516822,1.8177348342470465,1.7743428916252657,1.8189441473402863,1.7168607567351397,1.7328990500269528,1.740322055912108,1.8221225659335867,1.7764339420654685,1.7281502838501415
0.22022022022022023,1.7496967520372553,1.7578286919438348,1.6342245971102607,1.8623720184673513,1.6529561245573636,1.7644688102999373,1.7661228350248739,1.7462722290640975,1.7350744818636845,1.8006993200389723,1.687382499068799,1.7168859468967688
0.22522522522522523,1.694249091806543,1.7883693269868233,1.7899150467858729,1.7505011046718697,1.6486283373747976,1.6937798939975761,1.6804602598484175,1.8124197639423343,1.6784671106229017,1.7554709539806124,1.77785957273312,1.6876816945475555
0.23023023023023023,1.761838340107605,1.7101467107044754,1.6461830829660125,1.767429178267994,1.8108535249921904,1.7571484191470046,1.6823363023072997,1.7295078980632945,1.6944738634388,1.741993706289362,1.7429319620801709,1.783799596591661
0.23523523523523523,1.7110404232913223,1.658952795782025,1.6529801182543513,1.6153890675012752,1.6901329654036954,1.7256163190547662,1.7046488555737984,1.6374357178906054,1.7576521554719227,1.7212444300928982,1.6836119906040152,1.6425193781746645
0.24024024024024024,1.6126968825395642,1.5606535869260463,1.6967077642119965,1.7514361099766407,1.7228832429464682,1.5975602687612522,1.611410705183237,1.6999414679054226,1.6394149038099362,1.66554851135264,1.6783900686519089,1.6276737020463667
0.24524524524524524,1.5972024993115586,1.570260079425859,1.6231779899483942,1.651249999444678,1.6002440181082924,1.6390998104655579,1.6050502844231795,1.5987849174042015,1.6349699661901902,1.7026074533202467,1.6378333639716813,1.6545674899959082
0.2502502502502503,1.6561444815577562,1.4693930637918093,1.5951392418125108,1.7246833725796384,1.557441229871458,1.5515249670473708,1.5823426238509515,1.6109976007793128,1.5616008901786058,1.6093531671005077,1.6269168562779581,1.517071341502585
0.2552552552552553,1.6232380189857074,1.6681730689053624,1.5172355241374131,1.5607235476227397,1.5323924798956252,1.6180877017186537,1.5894938516205528,1.521210130464762,1.6483026588076726,1.564344654806296,1.5174127211432915,1.4755375937009223
0.2602602602602603,1.5844747438834526,1.4872614665402677,1.5874521629141762,1.5241367496793858,1.6011868506709541,1.5805797442754301,1.5089717996868401,1.58187791527494,1.607061948429743,1.562590077085399,1.5049165091870036,1.50661408562139
0.2652652652652653,1.4395174415820022,1.476618246224387,1.4729536835362014,1.4758146953204871,1.5052154152633126,1.4706532935876055,1.496342199180785,1.497881810799673,1.4983267651141514,1.4408831449117814,1.5036733393949133,1.539571336083294
0.2702702702702703,1.4281411000110307,1.4262910603262946,1.4614106143432566,1.421785114202288,1.4308244638755585,1.4465273815090955,1.495444787849984,1.425461996538407,1.4489401687557484,1.4505713904018878,1.425054167299289,1.4219537613304816
0.2752752752752753,1.4343054791416403,1.4281746522296601,1.4633191944923933,1.378294961725118,1.5400847940488012,1.4958236579437985,1.455359414286345,1.4166499728259678,1.3906208921647978,1.3916225620516083,1.4686552352352542,1.4067221695776524
0.2802802802802803,1.3404457682631192,1.4096150873665085,1.4129105481993338,1.3563094089546002,1.33816943364485,1.300324400832163,1.3226109767547385,1.3877906043406145,1.2939919065509777,1.4458238794047158,1.2675437849494053,1.3472997920479133
0.2852852852852853,1.327821002813766,1.2364354009867369,1.2284178782957844,1.1811284385039502,1.2115922606741867,1.3189865715138094,1.2331537221738988,1.3478108311886814,1.3218064919748609,1.167915659601011,1.2822447619475281,1.2509511172434657
0.2902902902902903,1.2547979097291864,1.3352825377136557,1.249743072239926,1.1847840121513202,1.2437213904433446,1.323314817744084,1.2568074460724603,1.2769512206079547,1.2288449737206384,1.2337799069097835,1.2333646359671282,1.3128280020430922
0.2952952952952953,1.1907257828389797,1.139687746998762,1.2019747127047784,1.2104219620067516,1.185315530473296,1.1984895989938267,1.2286348966981835,1.2538535041352978,1.224742795313044,1.1078432302205978,1.2387761544519562,1.1869442586996735
0.3003003003003003,1.1242762615859618,1.1385720468386094,1.1517466968140966,1.2672251995868287,1.181656301852303,1.212931594001187,1.1326985427810883,1.136432231406122,1.16474245411989,1.1751926787076177,1.1564613989049148,1.0875361604598304
0.3053053053053053,1.1100744995214273,1.0974632921720102,1.126143274221278,1.145391621879757,1.0158424941609403,1.0790082324996229,1.1184581154303401,1.095396391254683,1.0521822413821014,1.0151770650224163,1.0622527482825053,1.0322078557514407
0.3103103103103103,0.9587076920445378,1.0091580302708762,1.0867722662124153,1.0371331833833082,1.0693460908749597,1.0420745705269279,0.9920382390513907,0.996685872144708,1.0053361230156794,0.9936992188876994,1.051813858776147,1.0818483546748026
0.3153153153153153,0.9746143644970355,0.9058744131182755,0.9325694155812361,0.9333112314730848,0.9510475617249745,0.9371030441941695,0.9357024492171268,0.9386375141436332,0.9887891073577117,0.8743174503625182,0.914047295147419,0.9348238375363948
0.3203203203203203,0.8702911083190724,0.907680797687529,0.911727947113651,0.9191034323444871,0.9793446631402793,0.9454019645543631,0.8357960030507132,0.8747713189453502,0.9070852061220305,0.8406757431053801,0.8987543000729787,0.873796772357678
0.3253253253253253,0.7943894323218499,0.7995294241313792,0.8854586096363604,0.7862576490120293,0.8325432353053611,0.8911487254707676,0.9061622284845402,0.8530850351422481,0.8501596285476187,0.750332318865625,0.7854894434552033,0.9788821374207111
0.3303303303303303,0.6957422518824448,0.6662707101965925,0.8066047773565554,0.8132717385149223,0.7581355906266276,0.7410781206842888,0.704392565659623,0.771782953398433,0.7547783637740553,0.797793971597497,0.7305750539428536,0.840619497745449
0.3353353353353353,0.7334861915397035,0.7210431646683672,0.7016993929841036,0.7585259722575426,0.719484832077826,0.6572942399235701,0.6599864780686315,0.6630221638849565,0.7421735183055372,0.7903265761284751,0.7459910142617686,0.6699378432506873
0.34034034034034033,0.6119412945508045,0.626461175927871,0.5966436165209303,0.6094010618840349,0.6747309132412777,0.5853285304061961,0.6265097716177314,0.7460221215402477,0.7131159712264457,0.6454319849806635,0.7172776844556756,0.6595271359788509
0.34534534534534533,0.6043987148499641,0.5500787691660884,0.5674297922559355,0.5079704616542112,0.535300295082148,0.5229209452046355,0.48344785092121706,0.6544349163750562,0.5642549885312383,0.5191760308182769,0.6090315807728811,0.5028980071877492
0.35035035035035034,0.5222350495615606,0.5859749328825864,0.4764425520387486,0.532552906953591,0.5726811195828552,0.480736744297908,0.5049022363786212,0.5072754774048402,0.4600011824797204,0.5001764071870839,0.5500058707164678,0.470167122988583
0.35535535535535534,0.4608328019748859,0.36385583370613483,0.42161353023864173,0.49033011112916053,0.36520268562013825,0.3769762168226509,0.40603390570093834,0.4475605815749458,0.43367122889111126,0.41651599040724285,0.3625653825633152,0.5259873209365327
0.36036036036036034,0.42881981437195216,0.3906005388666581,0.341705842172897,0.38318627621340023,0.33634621781150986,0.37256030271445995,0.3440778583537383,0.3837171611829708,0.37302174389852055,0.3467767964909248,0.41533178247146857,0.42430304459368656
0.36536536536536535,0.2931762972044425,0.2676305910753898,0.25895721031931307,0.31092855451374235,0.3761487412657426,0.246156149413847,0.24798973519102874,0.29100885464445647,0.2802055885069916,0.30109348804912117,0.31672902686538407,0.27939247646254417
0.37037037037037035,0.26801347727987046,0.1869957212055987,0.29562548194845883,0.256742643488293,0.1519405669582309,0.2149523378194996,0.29714339836647413,0.2850519557124671,0.2478946347657732,0.24698996387417765,0.21526389689306236,0.17113346712211816
0.37537537537537535,0.13059486225154163,0.1570319994301728,0.16939113063165043,0.10668752741359465,0.12427076883564513,0.08136725905961484,0.1481653113845799,0.16892135111078366,0.1947104541570111,0.14439904541209614,0.10700095407687925,0.2566988929239179
0.38038038038038036,0.07927814401531413,0.13675102244388854,0.07092130832070408,0.0568207495421227,0.07670779796194321,0.06836648796137698,0.055231774307611343,0.05146658908056273,0.08614486852909278,0.11555568393378265,0.10704862908477555,0.07958076855639948
0.38538538538538536,-0.03680796861765501,-0.04360765913919628,-0.005698130062780487,0.026556540735380607,-0.004101348914160701,-0.13109814726772037,0.022554754821811566,0.06373001131146333,0.0777775913969315,0.11214001469989993,-0.009916242984915509,-0.11136122473066248
0.39039039039039036,-0.018390326877161495,-0.07114725543018444,-0.10875760085315689,-0.08248502782710201,-0.11015016124651465,-0.05251013962239585,0.014441827394194154,-0.1543316842088277,0.011156957752674335,-0.06933974318078891,-0.07284378910403183,-0.02844081808111814
0.39539539539539537,-0.09585280009554636,-0.2082680802592119,-0.14090105172127512,-0.11410503952834047,-0.14381156112159912,-0.12836110657445654,-0.1547809882665946,-0.2133302870816886,-0.1320237229103228,-0.11979973526705523,-0.18342584568776582,-0.13921459425616028
0.40040040040040037,-0.19002322214649858,-0.21992373980650554,-0.26435852445211944,-0.19086486098718725,-0.24345307318048687,-0.07309378716789436,-0.20454761255012072,-0.25861645740037725,-0.2286397034239527,-0.30094544137560914,-0.178247649118834,-0.19713062270172288
0.40540540540540543,-0.3091704823533236,-0.2642539142885159,-0.30951226356730804,-0.2884391074454418,-0.31087714439246583,-0.35998825559330816,-0.32136704282910555,-0.2680390128571139,-0.2595245464274828,-0.37247226721232435,-0.3099209353721265,-0.27599365176431495
0.41041041041041043,-0.3874097951063906,-0.3357314487554849,-0.33269436030126986,-0.4287688791346872,-0.45195907901805304,-0.3682481744615284,-0.36429746770566296,-0.3741884537563587,-0.3017083608568715,-0.3213412002197947,-0.43570881964851854,-0.42238989860211507
0.41541541541541543,-0.4472148454992919,-0.35528345863795746,-0.49269289178092085,-0.41206352046326644,-0.45063652226273093,-0.43783735039871485,-0.37450008657609324,-0.4424538343915066,-0.40822185341929573,-0.4640707698354569,-0.43142250267774634,-0.416795188320203
0.42042042042042044,-0.5788642726870068,-0.5244956135687285,-0.5055070384913695,-0.41782357928641656,-0.5005549903319829,-0.548511522835483,-0.5958107328811556,-0.551583013095443,-0.5106644437915722,-0.5069154959565386,-0.5190716266867309,-0.6431694437680983
0.42542542542542544,-0.565469385911922,-0.6336528688611861,-0.6142269191826147,-0.5005041031685119,-0.5632597511891952,-0.6157410072937956,-0.5601039841622405,-0.6143393044220634,-0.534048932141311,-0.6603768537316372,-0.6582353172867886,-0.5468149162999498
0.43043043043043044,-0.6620073275519966,-0.6298530941045788,-0.6359820315394316,-0.6494389499279201,-0.6518781295857674,-0.576223925596894,-0.6955643341009444,-0.5981132991551098,-0.650169416056619,-0.5761425198182792,-0.6973844571913584,-0.7838325321687685
0.43543543543543545,-0.649806248186147,-0.6474147407810155,-0.7331722755230433,-0.7689928074754833,-0.7344602782346548,-0.8398024521371732,-0.7006672242568401,-0.6881897892278834,-0.7692060269484626,-0.6307343019726083,-0.609284741341831,-0.7020610288976064
0.44044044044044045,-0.8357695518393865,-0.806955183944263,-0.8224884326405135,-0.8096826426163927,-0.8943193496637475,-0.7919806007171339,-0.8224884811768203,-0.8123791828359846,-0.7622709193203598,-0.76816361543261,-0.7283583844113413,-0.7656577230884065
0.44544544544544545,-0.7607658272647957,-0.826283271631674,-0.7885842889501817,-0.9555469456139051,-0.865410968939808,-0.8431886994571244,-0.9079165090559529,-0.8746062400889755,-0.8745865156972452,-0.870930516032084,-0.7745473026488581,-0.8756337305602454
0.45045045045045046,-0.9559061538883626,-0.8669889291173316,-0.9442059292005598,-0.8774983775444061,-0.936253550660716,-0.8645371144020235,-0.9731538993461835,-1.050874980280204,-0.8385284081341062,-0.9126586842208533,-1.0502451995504574,-0.9079856374551283
0.45545545545545546,-0.9936596884780058,-1.0446938536932204,-1.0023774139728996,-0.9875307483897632,-0.9624697922988993,-0.9803318925054357,-1.0104915018334981,-1.0323401873517417,-0.9352718672967446,-1.071521929284687,-1.0142154009446855,-0.9708827571165379
0.46046046046046046,-1.0727367499846694,-1.0673001965794668,-1.0890326978057143,-1.0231561095604567,-1.0691939248923634,-1.0312137615151047,-1.0560136197006937,-1.0158223335973127,-1.131474040476694,-0.9981020957175135,-1.1000830771565164,-1.0729671565757122
0.46546546546546547,-1.069731890823223,-1.0516447858734772,-1.0942164818895777,-1.0485291435750241,-1.1195830078928615,-1.16732698551198,-1.033496744753037,-1.07382651661991,-1.1099857473494925,-1.1537106626647198,-1.0664463729899267,-1.1513616824675739
0.47047047047047047,-1.167110747466616,-1.15862025780255,-1.1234896384286346,-1.0633605807301116,-1.098231774654021,-1.2329595414404957,-1.1318869823211528,-1.1872033809440037,-1.1913919362902188,-1.1019791138513688,-1.15658291756185,-1.1809010747342419
0.4754754754754755,-1.1679475247145636,-1.2369772557491523,-1.2572778891910887,-1.2451344998501293,-1.2435898705019717,-1.2501148812395895,-1.306731244259345,-1.236818532781702,-1.1963290251670047,-1.1743074206201494,-1.1443772405973736,-1.1357156043492802
0.4804804804804805,-1.3031557585630578,-1.299306411020877,-1.2465006511395373,-1.3042540384139973,-1.3457412453921285,-1.1968789270241704,-1.27831293783702,-1.2190398436951693,-1.1870117246864014,-1.2187840983646334,-1.2146845684114207,-1.3260016772520362
0.4854854854854855,-1.303176931662762,-1.2585674060811587,-1.3890735754740522,-1.3460762517754519,-1.3777134506051754,-1.3523308700613474,-1.361532584087961,-1.3469331297495821,-1.3102038078829814,-1.3759939952636162,-1.3686867690095246,-1.3861502796266587
0.4904904904904905,-1.3161684949615238,-1.3135709600481016,-1.4159661109965043,-1.3799050014425698,-1.3512921187950502,-1.3597821174527027,-1.3537043075058839,-1.3844268632021253,-1.40481970246505,-1.3962442679298437,-1.3461561328530067,-1.3378259323476822
0.4954954954954955,-1.4415622931141703,-1.4293388083703447,-1.4683238365622922,-1.41297574579555,-1.4666744081724108,-1.4472075397440474,-1.4838642274593534,-1.3988744788035465,-1.3630706501549925,-1.4042625182086124,-1.4521392755154843,-1.4312799693320006
0.5005005005005005,-1.4358118957026715,-1.480762134616406,-1.4861519330285209,-1.360796710635899,-1.483347066560748,-1.3971795968074623,-1.5264197605747503,-1.530692505156873,-1.4413944173904452,-1.4252732785780808,-1.4758760515780267,-1.4793448059328287
0.5055055055055055,-1.5186123162324459,-1.6120675949557741,-1.5106198296189108,-1.4891972142676493,-1.4020862756548607,-1.4635265767666452,-1.4950969254872941,-1.5168809263540146,-1.5405323204837336,-1.5071819475804427,-1.5761831459983895,-1.5205486692439891
0.5105105105105106,-1.5215311319247407,-1.6533300494613448,-1.5576357047946459,-1.5427782914163701,-1.5447615178252343,-1.5276955992356378,-1.5608339500314117,-1.4445288602253203,-1.5284942664082652,-1.5188762236234403,-1.5677753530717806,-1.5870035172262105
0.5155155155155156,-1.4656508264002543,-1.724269899647674,-1.5460209362338544,-1.5806683702344935,-1.5497488665408494,-1.5800884472071375,-1.5739010348047515,-1.5252725740123214,-1.505336819524918,-1.600875315853843,-1.572865452020696,-1.5889658213023905
0.5205205205205206,-1.5697591606705394,-1.5389818852640909,-1.5832220033456532,-1.5688438062334609,-1.5782017685363243,-1.5978036708548546,-1.620996544877602,-1.6750191254713716,-1.6859357688591525,-1.5717518527331782,-1.6894413964470418,-1.6479746133776016
0.5255255255255256,-1.6686319431029555,-1.6187141265190816,-1.6254662440637069,-1.622273838226377,-1.6838664374899235,-1.6517577113349777,-1.588968857462035,-1.5956744364167943,-1.630315582141397,-1.6061979083517197,-1.5722825065984658,-1.7659653104642707
0.5305305305305306,-1.6427180905352952,-1.6225729733194225,-1.6878368487321618,-1.6449649587738984,-1.659501902969199,-1.6297180898989148,-1.7510251816588762,-1.5921758023467334,-1.7075458751981243,-1.7060676203404996,-1.7039303234561014,-1.6663582432249922
0.5355355355355356,-1.769757661969646,-1.6817408955441164,-1.7344701690439779,-1.6987967990717983,-1.650346839576853,-1.7358397765111937,-1.6715856328112222,-1.7788741027924946,-1.7074667838215996,-1.7021503407912224,-1.6557769444085162,-1.6551398963452086
0.5405405405405406,-1.6558642376563766,-1.6463456545040493,-1.6260867618251889,-1.8388985306349965,-1.7155377984433215,-1.7087693970510909,-1.6983874809283421,-1.6970023301784791,-1.7701155906414543,-1.803493129682801,-1.7480260131128156,-1.6904945334688093
0.5455455455455456,-1.870541221359629,-1.71134824695907,-1.7467083364710203,-1.7396781490367195,-1.8025933315374802,-1.6985882783847697,-1.7070518522663252,-1.7880719309623316,-1.7762809814885403,-1.7218663827955016,-1.7056717615976833,-1.680029075029757
0.5505505505505506,-1.7755795365355005,-1.8129245819972695,-1.7472529068265803,-1.7379161102564553,-1.8456839696651317,-1.7790372525305478,-1.7553771125200188,-1.7842941703077733,-1.7430280122931963,-1.8100321813751006,-1.7782037485721252,-1.7441475501593307
0.5555555555555556,-1.7726391540801452,-1.8240221165904522,-1.6806027281934237,-1.8153136805183736,-1.746790659379472,-1.8792901873343373,-1.7548021209971165,-1.8179404612425272,-1.8603003728746499,-1.7757717645371882,-1.753262047740202,-1.806303563110412
0.5605605605605606,-1.787401372032297,-1.7349594605453658,-1.832514507860012,-1.7703557629942415,-1.8133176372055926,-1.7689282184905768,-1.767743116606027,-1.7135201329142244,-1.809392875864038,-1.8564052483725924,-1.7195390269610122,-1.8976472777624531
0.5655655655655656,-1.8489362250719241,-1.767777931587029,-1.6955892762023135,-1.845900795783885,-1.8101850022448513,-1.7544555006758584,-1.7480131137394495,-1.7297704879315536,-1.7303580603393018,-1.8223396702423311,-1.7863068735669074,-1.7376908123016213
0.5705705705705706,-1.8963989326242134,-1.7031148531773932,-1.8529357680868728,-1.7772248349141313,-1.738341333035727,-1.7611781816415581,-1.8533685549449126,-1.8361753467942117,-1.801604916131375,-1.800195169498021,-1.799977364617285,-1.7895341287522368
0.5755755755755756,-1.7596129394663091,-1.8357740269336718,-1.8185483245866025,-1.8092811016452133,-1.728746643586307,-1.944566667003753,-1.7635914488369058,-1.7968258389679967,-1.7902306179545788,-1.8400385543505178,-1.8629033139880475,-1.852165198895212
0.5805805805805806,-1.7799515706486086,-1.8246907319268142,-1.8309976283147318,-1.836587305046118,-1.78951191332702,-1.8050160492151333,-1.774826853872168,-1.807694227880314,-1.7430671047755117,-1.8777710728380388,-1.8654560737016703,-1.7787961137859378
0.5855855855855856,-1.8180700769213698,-1.8205959951777384,-1.764372488108916,-1.8363381196323778,-1.6617625731966397,-1.753351565556084,-1.8543949404363003,-1.8089159971154156,-1.77945227177125,-1.7784005665015452,-1.8271364268235901,-1.7868902491118606
0.5905905905905906,-1.7925665788787057,-1.8067795273020582,-1.741383758495016,-1.8390756311941623,-1.8864863966030774,-1.689289838427608,-1.7478519846454181,-1.7614463207249285,-1.824550073345624,-1.8164515691408787,-1.8139879758828727,-1.7365808107473828
0.5955955955955956,-1.7391598646212705,-1.7495488016411351,-1.7227197866798294,-1.7690456014014793,-1.834416319486091,-1.8173017978009627,-1.8776856808418323,-1.8346749701689218,-1.7562045293951318,-1.7487848151947412,-1.8173269569923094,-1.76898219225086
0.6006006006006006,-1.7613096170032587,-1.7937586688200298,-1.8054251767260014,-1.7887971130295768,-1.8138443171148253,-1.786477914459785,-1.7492958866203852,-1.7706910515616923,-1.7223376354992161,-1.7752406931448832,-1.8061809142658243,-1.7717370164878175
0.6056056056056056,-1.786921993647209,-1.7707494100155605,-1.7702423031527608,-1.8262216903568025,-1.7532760285766436,-1.664404681881423,-1.7653985847845717,-1.6803141915454638,-1.71996016884518,-1.8085595396691265,-1.786000997399009,-1.8184774626568214
0.6106106106106106,-1.7355255768341424,-1.734269596717331,-1.7653954491726416,-1.702658972628023,-1.6932404290008087,-1.7586698324990953,-1.6928505494945538,-1.7811118512891053,-1.6244771339238377,-1.7928194194654306,-1.7017594674932208,-1.7331610740836452
0.6156156156156156,-1.6999753491695342,-1.762551202137358,-1.7039389165696457,-1.7176000219227905,-1.747840635821325,-1.6604656557272297,-1.6514524977831209,-1.6814235858345643,-1.755780646842681,-1.7006923921302752,-1.7092288601141103,-1.6505282615727814
0.6206206206206206,-1.708514190540749,-1.673681846009454,-1.7539843238492892,-1.6981292939362722,-1.6660137284195526,-1.6764875060992865,-1.6919705041484239,-1.6333091020880384,-1.7372967366712815,-1.7133848098541666,-1.7151534380177451,-1.6917426290121602
0.6256256256256256,-1.6594827852463725,-1.652921863036933,-1.6419875611537638,-1.5778429112914378,-1.5479738090187358,-1.685047278109591,-1.680821766230891,-1.6985280430449028,-1.705147140903822,-1.7173720322506945,-1.7079326648738495,-1.5765195330006065
0.6306306306306306,-1.5969901398030852,-1.5319625659811182,-1.6203214366903542,-1.6499571629941463,-1.65561861950527,-1.6292508919137987,-1.6450776426655676,-1.583340282381882,-1.708884090290589,-1.736868427010207,-1.682154077619142,-1.5595196093407535
0.6356356356356356,-1.6123891160864887,-1.599590479387415,-1.47643306604275,-1.580429475419279,-1.565509849665468,-1.6326680715738886,-1.6328791512448326,-1.6050436464170703,-1.5773661171661533,-1.5682253534947603,-1.6865381675011202,-1.6421076784265392
0.6406406406406406,-1.5298799910814174,-1.5931310391751499,-1.6606394109155909,-1.5174700438146962,-1.571253296342279,-1.4547375786951462,-1.390784801190299,-1.5928272119973914,-1.5676685177937044,-1.6431828612375272,-1.5787736551819274,-1.5675951350605393
0.6456456456456456,-1.467735321117997,-1.555132109600747,-1.4962928862111582,-1.5055485633470584,-1.5019971872114413,-1.5678164330190472,-1.609721869879784,-1.5351531951781132,-1.5332537907722312,-1.499031365346124,-1.510883789049225,-1.3925655313796603
0.6506506506506506,-1.417533974494598,-1.4732196696558262,-1.3936104813984125,-1.5318044569406957,-1.518866479149914,-1.592735581672768,-1.4095001676994356,-1.4518776657006707,-1.4729137300165172,-1.4649354383974422,-1.4760361128934687,-1.4199833107187816
0.6556556556556556,-1.4725494898805171,-1.4732555594435355,-1.446739213416387,-1.3528920973864138,-1.4862439778917507,-1.4390503432302042,-1.436008625502623,-1.464089898715454,-1.3658265827820502,-1.4766569688705582,-1.4522392472281593,-1.3895217310169277
0.6606606606606606,-1.32618920861058,-1.4182489181286038,-1.3963123124085512,-1.3659831865208731,-1.3957056071720704,-1.3718946884940275,-1.317762395476941,-1.3109414961368957,-1.31724968882956,-1.442894145130025,-1.40921773391111,-1.4635530633046325
0.6656656656656657,-1.3250896945534527,-1.361491408605662,-1.326680700385092,-1.3376749787778794,-1.4655314269173034,-1.3875766373325213,-1.3468201443784518,-1.3380717073148636,-1.3092919858143703,-1.376123306360897,-1.4956461139451331,-1.2989105298016328
0.6706706706706707,-1.3697219685700324,-1.209302313285303,-1.3409162627301623,-1.3059881368360098,-1.4173993639066715,-1.2803336261093414,-1.2593349504958586,-1.2669164611195134,-1.2960222375009744,-1.1926090387203656,-1.3442768245068362,-1.23535741174744
0.6756756756756757,-1.24531250287264,-1.2351348001749314,-1.2725422062996006,-1.1985441869649556,-1.2666864902434842,-1.2775230015371373,-1.3124893218849611,-1.2693370282284198,-1.3007038922860228,-1.1371830428162837,-1.2793414952194249,-1.3146272650759654
0.6806806806806807,-1.1804600200999378,-1.1754746017233184,-1.2744954238097213,-1.1990568387807097,-1.2409510783285262,-1.1536646654835294,-1.1225983065293292,-1.246822667318616,-1.109475154236237,-1.2100665605589005,-1.0949561715420106,-1.231494990629249
0.6856856856856857,-1.215328938567921,-1.1299696153713559,-1.101862432471328,-1.166206328416007,-1.2177455307346665,-1.03896442731816,-1.1560139518945198,-1.1891758048822143,-1.132717314534071,-1.1571156597229806,-1.1455260515966954,-1.192895701538554
0.6906906906906907,-1.0761519177531564,-1.0059241704967716,-1.08995093092134,-1.0594980000342855,-1.0794432316628821,-1.0413270238841736,-1.054575024429759,-0.9869661293883983,-0.9980236439933059,-1.0416522010450462,-1.0606576139509094,-1.1133716896916948
0.6956956956956957,-1.0396073334533067,-0.99356865250057,-0.987955833185487,-0.9304309381850582,-0.9862280898544464,-1.0657989427318342,-0.990104376972092,-0.9598164169128597,-1.0873407203730938,-1.0366062538444252,-1.1224072700224557,-1.05567161450148
0.7007007007007007,-0.9985980398872335,-0.922174549608283,-0.9997538697035813,-1.0399560597492334,-0.8861943366825299,-1.0787313468615312,-0.9804512635497558,-0.9988956408818989,-0.8439208372043067,-0.9770381835313632,-0.9020946994542629,-0.9101197662509598
0.7057057057057057,-0.8492127478562663,-0.9513951521018679,-0.9033974973848948,-0.8677618888143301,-0.8238941822396545,-0.8505355466977279,-0.918522105707923,-0.9041534489376547,-0.9095772397678508,-0.9079221583261136,-0.9309246266619569,-0.9295860483515718
0.7107107107107107,-0.7370106760456321,-0.7850524440725944,-0.8128790965709634,-0.8685255349313408,-0.7763242866036335,-0.8314450351164474,-0.7852041568238747,-0.9362095155580272,-0.803569488206554,-0.7887923267777956,-0.8332737824574503,-0.7775310515974554
0.7157157157157157,-0.6917251381983918,-0.840436947247138,-0.7647658318132111,-0.6681019113020212,-0.7437041326991051,-0.7825923001293719,-0.8404795593786908,-0.7351814983578556,-0.7143012783476922,-0.7704189270215341,-0.8035931489239859,-0.6762188714931836
0.7207207207207207,-0.6481437676388947,-0.7382577580746726,-0.6987422387147438,-0.6252382377223252,-0.641048303876526,-0.6749996255189482,-0.7360032547591973,-0.777027712295637,-0.6408119900359929,-0.6488706664882579,-0.6297992453892441,-0.6886115925255496
0.7257257257257257,-0.667421581590177,-0.6684518011818352,-0.6484623661342184,-0.62817797116819,-0.6551180526906426,-0.6000715446655884,-0.5573331898919094,-0.6453220494202182,-0.6435871276394125,-0.6178073698308053,-0.6164853999537077,-0.654586579565037
0.7307307307307307,-0.6274127082558452,-0.6563905173050895,-0.553663308096142,-0.5695398017083293,-0.4659767372221221,-0.5103034191714926,-0.5305270341599782,-0.60989161101368,-0.5140257064596168,-0.510465559875138,-0.6210322228833258,-0.4943835248763395
0.7357357357357357,-0.46857893437786824,-0.5690677275670348,-0.41485006644011024,-0.52043951240435,-0.5621769429490431,-0.47463051306908816,-0.47350641391110426,-0.4610779186890135,-0.5102443770076728,-0.5703314154699013,-0.5363797891906643,-0.4438820571166472
0.7407407407407407,-0.4548252941299259,-0.361808152074437,-0.46941905214246965,-0.4394371211633038,-0.48755934989836147,-0.35656715574203357,-0.39306844394247165,-0.34841448250758583,-0.45066226576709834,-0.3454441186488614,-0.35482403822525843,-0.39322614694970587
0.7457457457457457,-0.33241838792434186,-0.34414591740854306,-0.3134495118726208,-0.3312926689552066,-0.3642712492624233,-0.31135635158761654,-0.2612754855842471,-0.3604038594501893,-0.3709248275163811,-0.44311709366032404,-0.4034016554403352,-0.35257607003250185
0.7507507507507507,-0.2797959946878812,-0.22378989406720218,-0.2148111033127558,-0.31285730812749724,-0.3313394212301227,-0.2770827050779624,-0.2868059332100719,-0.3243708799157819,-0.2759343689086591,-0.27416579486368775,-0.25638612290019724,-0.28615164184046776
0.7557557557557557,-0.18083218339998697,-0.15528869384084007,-0.2072001989723869,-0.27772727430302746,-0.2062088762161781,-0.2147379760528457,-0.20573186070979124,-0.1778510636453957,-0.18357142795516698,-0.18724884698486985,-0.21400912581822137,-0.06955926170188129
0.7607607607607607,-0.10799140551166161,-0.1469049433679311,-0.056054279697146145,-0.1027049409329108,-0.12113622474994964,-0.12512766079762289,-0.05719372404983103,-0.05190734650249096,-0.0500807248407239,-0.1840685531142978,-0.044079767921591045,-0.13060508989743883
0.7657657657657657,-0.0531422296492262,-0.10903068973765301,-0.07465222578195255,0.014677317122687432,0.05518199743403642,-0.04809269790976103,-0.01694495787835304,-0.01587157017263186,0.04319658270383695,-0.07587348818838499,-0.06814981987715263,-0.036830651209947475
0.7707707707707707,-0.013580374606657248,0.015819867774581657,-0.019424985273772195,-0.05155573693293082,0.14206882813392765,-0.00859640808229771,0.08591359830637708,0.042434050597867534,0.03152721350138561,0.07463230471919749,-0.03726008726254554,0.013766405166784184
0.7757757757757757,0.0898320366319311,0.07519026542145271,0.05491334055018998,-0.0054480342493372635,0.0861285232442474,0.09600874447891199,0.07526235420420674,0.07233950495969507,0.10742722413853342,0.11080063236645141,0.08699792837680018,0.17146024379176084
0.7807807807807807,0.1307847033286169,0.19283256893249773,0.08996177745454095,0.11918890357837521,0.16684100501547314,0.26992065505715535,0.15118723554980082,0.1873660353887724,0.11867425579594174,0.25501512904969587,0.23504277100783122,0.014084777985413383
0.7857857857857857,0.11935607180401264,0.1976204829398902,0.23777993549589083,0.318740297035932,0.2295715145692605,0.2209779963202303,0.23394813256275826,0.2864377934063534,0.24733143561130735,0.24965625762056187,0.17766512744670027,0.23298826209603224
0.7907907907907907,0.32070415409898767,0.3465488848212743,0.3175366608832625,0.37962971457766137,0.31088351890163757,0.23618127632649522,0.2877821090186524,0.34799742648857096,0.298179746884968,0.36382720703797566,0.27722499649081406,0.3812238407769479
0.7957957957957957,0.44897292466050687,0.4407301381772824,0.38041368705571926,0.4109398869440249,0.457024867666177,0.42080947816924397,0.33435780376896646,0.3877261229544586,0.3424863822062327,0.362629385929957,0.37212167842353555,0.3504307402918294
0.8008008008008007,0.4602977290790472,0.48347944113710756,0.4328045034793925,0.4023026869967454,0.39320994000286036,0.4856523567705123,0.3782802123062397,0.45640986730871586,0.5393094718071653,0.3854980662447502,0.42940748576625026,0.5158750184432406
0.8058058058058059,0.594125944620894,0.5737992661451562,0.5307106609503685,0.49860340008001813,0.5586094888150359,0.4948151897291051,0.48801985755480937,0.5136734458058925,0.5802478233377132,0.5567624264121595,0.5380843449965409,0.6070493792757969
0.8108108108108109,0.6252399594648897,0.6144284595523687,0.6087804258028106,0.6101111296164722,0.6365108714031387,0.5991974800999681,0.5817409574027163,0.57240618802444,0.5357100124390242,0.5763277866094303,0.5039392446087857,0.5385051856022887
0.8158158158158159,0.6533053660106302,0.6291202160455023,0.6570588825434511,0.6482738695156647,0.7234088614364592,0.6541034263326518,0.7481892489491468,0.6651575460608549,0.6635472348664767,0.6641103183699661,0.715315574256535,0.6259098420724857
0.8208208208208209,0.7622353571233017,0.6798065205241234,0.7597398578992232,0.7185223318929574,0.6988246939673294,0.6868254575298797,0.7388213292226157,0.6684530351732287,0.7369360528097901,0.7238793463696808,0.7287456266765331,0.7319230934853048
0.8258258258258259,0.8341285400380912,0.7805600488144449,0.8096235416403292,0.7292350946181889,0.8041057028749458,0.734530779120101,0.8188088442031917,0.7410928663592552,0.7184748750816254,0.7970610210336163,0.7886794664489218,0.7307502484944545
0.8308308308308309,0.8562694030799352,0.8967646202926038,0.8017714269649926,0.7905614292340819,0.8800344186269362,0.9005148548699744,0.8596274510232803,0.926721800881882,0.8898085286101244,0.9674997546342543,0.8380770228052575,0.8360903625007332
0.8358358358358359,0.9243490569434348,1.045470211721285,0.9251334235532007,0.9635001792639458,0.9163457639223231,0.9338947011345137,0.9317189633010917,0.9502146558697331,0.884577270804257,0.9246485754878924,0.833156134475648,0.9613814203445787
0.8408408408408409,1.0377940637272511,1.0227437109542936,0.9341605861473099,0.9274297989757324,0.8913011683758841,0.9683401112578943,0.9394326275241738,0.9264419266161642,0.9926541720064761,1.0260703405946592,0.9735067572192717,1.0296759856130662
0.8458458458458459,1.0473850934379203,1.1033204409513784,1.0227199293194436,1.012000384478,1.0038375617709905,1.0649513034019107,1.0829112082605987,1.050515387165278,0.9641246558152406,1.0175715351830612,1.038045798480033,1.0871569588481007
0.8508508508508509,1.088663044401466,1.1181901826817817,1.0869293614547622,1.1547458671815511,1.1225279287990753,1.031683793395539,1.1011167067391365,1.1562321960567243,1.1144182767963766,1.0693227605396562,1.0960351126681176,0.9754946041455389
0.8558558558558559,1.1172631191060745,1.2072564488828614,1.235057426708934,1.1642431866286893,1.131765690708454,1.1103570596797072,1.146379616980185,1.0975147224461772,1.2505173963868075,1.1137481934284743,1.2176743809467123,1.1522918336329337
0.8608608608608609,1.135962026870719,1.24652467568703,1.248183613080347,1.174218079875141,1.2628202000633186,1.204037427890677,1.238227448311023,1.2030056681817414,1.2071626300041836,1.2989326250682278,1.3081407502358418,1.235875007977283
0.8658658658658659,1.2024007229510563,1.231547917671501,1.3057571049589725,1.2943839901949488,1.269249932650187,1.321653675720326,1.2798024754358348,1.2435984599611414,1.2739395302491001,1.250323803691379,1.2992182619767267,1.2935835722211677
0.8708708708708709,1.3679955544383884,1.3606872086520807,1.2880608624305199,1.2255164329722088,1.3388355575109743,1.3310694319364298,1.2935307884832046,1.290441408077302,1.4012414834250873,1.4162260139456568,1.3264432124489496,1.3274234566136374
0.8758758758758759,1.4300370848163517,1.460851101400446,1.4079850514657717,1.3882519485239007,1.3738737472249585,1.3531157855051916,1.4579323573884426,1.393804497688591,1.3453166281263784,1.325493923824876,1.4440929921964671,1.2587830734235002
0.8808808808808809,1.4090389015517812,1.3610683608640686,1.3915171611164767,1.492243973220561,1.4115167904460915,1.3991526918563633,1.4558872981818793,1.4278187496612944,1.4688728454486106,1.3840628812338998,1.3007214411677153,1.4084492297189581
0.8858858858858859,1.4552662965855105,1.4365058834812812,1.4411649041123002,1.491270107576773,1.4913583199942513,1.4434822036794248,1.5206040075479328,1.5222191953066546,1.5337591456111346,1.3496817198817461,1.4826805959322233,1.4510813640578024
0.8908908908908909,1.5323629257916902,1.5242049187496916,1.5402787709991734,1.4968213430794004,1.52394624861111,1.5977509363045412,1.5999536252468165,1.4943636518773524,1.529354701341738,1.5191430110593782,1.4399363609877307,1.5520431305539804
0.8958958958958959,1.5246659572067058,1.5491153648580225,1.5099498639414275,1.577377396820026,1.627124090912784,1.6270933060235706,1.585682380188912,1.4547814675578812,1.5552136012503885,1.5493339085469255,1.56405120557135,1.4538814110499632
0.9009009009009009,1.634914284140928,1.59905904881778,1.6787188098369765,1.7187820294321536,1.63315401274216,1.5101834789377508,1.5725390180880259,1.5371991270894272,1.5192446424027823,1.644178595111152,1.5338300078895024,1.656069514638302
0.9059059059059059,1.6317126257908492,1.6621194561796975,1.6839450719547422,1.6996608983248958,1.6359852709956484,1.5213858961760054,1.6346809085955538,1.5817920560145,1.5894866512438033,1.665680809044753,1.6124137866410941,1.6407698158334465
0.9109109109109109,1.6708839991819384,1.6081633462577993,1.599359119624088,1.6492393745529326,1.7254312016168725,1.6356294472491895,1.6231167616346758,1.7349202611357117,1.668645575273594,1.7044881167171297,1.6485865207020614,1.6837333104580885
0.9159159159159159,1.6090545537578596,1.6943312199430332,1.6249340997601396,1.7188881254900699,1.5645246814736604,1.6224141874476967,1.6618891356518275,1.700384248470171,1.6656437714295453,1.639687243363306,1.7069453642205046,1.6942386589320841
0.9209209209209209,1.7233546108793025,1.791681136899286,1.7317345747485786,1.689573862985097,1.7168783102576646,1.8063671213174781,1.765626735390841,1.6881039914481446,1.6365134798375416,1.7209362198532323,1.6983209432597677,1.6528990770661927
0.9259259259259259,1.7993856195921563,1.715495399805376,1.72963573548711,1.6938688383522278,1.6857161468590478,1.7171741761416623,1.703978739659061,1.8132974887228739,1.8339315896947321,1.737803135188759,1.6923540239803374,1.7809047084259633
0.9309309309309309,1.7760236075044633,1.6943108384900945,1.7441118349716058,1.7270184758933473,1.7220949484392756,1.76805922649611,1.826022685769793,1.7217435096032925,1.7253271400214374,1.7773579518167963,1.7791366006392626,1.79550844166085
0.9359359359359359,1.7951126551852603,1.8587077732436483,1.7028473742073544,1.754283991571364,1.8179808145196104,1.667655224273375,1.765051476846648,1.7307602122913188,1.7662169375085695,1.7098112663802896,1.725659751096113,1.807577081002109
0.9409409409409409,1.730617594074685,1.8537798746072958,1.8384608081321376,1.6163857034747406,1.7520711780957383,1.8116879556976548,1.8447895062643287,1.7201548055178595,1.793788939616777,1.7930820341460798,1.7307556645864697,1.7501682265952376
0.9459459459459459,1.7785837884457802,1.7953634604533597,1.7825003825372732,1.6835679202390932,1.7883550046695555,1.7304525416729988,1.7900975910215506,1.8323409110660345,1.813628048447874,1.7901828758876706,1.8407916484326283,1.8068756525505332
0.950950950950951,1.7675674984685807,1.8115744179153377,1.6710033315992514,1.735308369418266,1.8420242901033161,1.8021790387702405,1.8550988167137197,1.838720958640969,1.7938982798396317,1.796390347664142,1.807982843991206,1.795818422644864
0.955955955955956,1.7320601781499267,1.793662770617515,1.7680346687070831,1.8132546903040034,1.7113859436301708,1.7739818174254798,1.8023200650334936,1.8192886951737457,1.7950696399954589,1.8283503826857224,1.7628163026246477,1.8541990903023087
0.960960960960961,1.741257661224354,1.8353538327965546,1.7494203122052456,1.8069092525845505,1.807068390054474,1.8115745760022484,1.7851268061062977,1.775123939581551,1.794967832642416,1.8009962509716682,1.8581388076338015,1.8553658015466736
0.965965965965966,1.8476933587797024,1.7622474727143977,1.6789756604950365,1.766975820454742,1.7438629052557437,1.841427025783206,1.8117085699809525,1.8325561384593108,1.8385822659886515,1.772167408101608,1.7517233208114469,1.7456806021886462
0.970970970970971,1.7810957797669722,1.9018156976325882,1.807710492190517,1.7362489944144996,1.859272677118454,1.8442474632593786,1.842410365541535,1.7683628588301012,1.8400302962200312,1.7234275148306883,1.7630304980834255,1.870847300638602
0.975975975975976,1.7246886866147932,1.8331062450294067,1.8565533155233043,1.801781606865883,1.726921637002797,1.7961961841221579,1.8232738420664505,1.7964655808728203,1.8295873809928165,1.7261201828732415,1.8558770424136195,1.7366374417185382
0.980980980980981,1.8358644746772805,1.792640651510961,1.8390806195494855,1.8128854269187962,1.7780445637281281,1.7928762434492753,1.818062920964464,1.85272004290381,1.7584673816172838,1.7062086210681546,1.8113255824419803,1.872240509310694
0.985985985985986,1.7268882634732545,1.764532684163072,1.7490931774082963,1.810760173113333,1.806796976498125,1.800548004192686,1.851958490448474,1.7731729418586786,1.8875866708933546,1.7087194931921081,1.768638438986022,1.7566388772565706
0.990990990990991,1.786641187133661,1.7345631296968567,1.679422123324124,1.7465596234406637,1.6966522636623915,1.785118235743872,1.761046345887477,1.8497734745293823,1.662708018499666,1.7726482374354853,1.8044530488699992,1.7753790737967297
0.995995995995996,1.7924351874749958,1.7797253160090427,1.767736356261384,1.8033441504032064,1.7123279478791933,1.6623891201388457,1.7154474441835919,1.7924170850577537,1.7729676480481977,1.728348829614868,1.786391933089797,1.7492893351234833
1.001001001001001,1.7992968178449218,1.6296155834106167,1.6336125920283515,1.6918376263216313,1.786059692323195,1.7068939176041242,1.5605534882275562,1.705030480071455,1.6568960749171056,1.6837550747225107,1.7644959577422572,1.7737894168899293
1.006006006006006,1.7018932322541547,1.6676151729622681,1.5943626353247449,1.7238113109081112,1.6401269216808319,1.6685563957021148,1.631820966199387,1.75829591942507,1.632021882027664,1.6287900356477634,1.6803171118045959,1.58884797242305
1.011011011011011,1.715974261678593,1.612033514500532,1.7245914754530447,1.6270023798894881,1.675092905882768,1.6260400089148521,1.6326763601504055,1.6180707762307038,1.5812571769588057,1.717713791289741,1.7243681272708176,1.637073447158821
1.016016016016016,1.6037660323151937,1.5829839517079207,1.7658900745254742,1.746716949794806,1.6619731870787133,1.6115583559697488,1.5443478697830715,1.7076327285706976,1.5515640410425549,1.6374689515263394,1.6925450617700104,1.5921846807854594
1.021021021021021,1.5778040447919603,1.5132076254634383,1.5130885687106026,1.4747580960908249,1.6543096416341254,1.5997941713694692,1.6005871154367375,1.630247085395395,1.550859413674976,1.648641832866525,1.689902587109407,1.6142727912328316
1.026026026026026,1.4726236113815663,1.5537274754773653,1.4712702859707458,1.5371355745181527,1.5371192453569003,1.534343548388067,1.5710750167595346,1.5858168558930714,1.693413790497809,1.5478412760868892,1.6057126943793363,1.5586530073639273
1.031031031031031,1.4850024734272145,1.5491097091432107,1.4129703517808045,1.6022430928621183,1.5990679298649588,1.5210985035256874,1.5529510454913906,1.5863719524566187,1.4707416900159185,1.525629549763508,1.497433516274751,1.572779208881631
1.0360360360360361,1.4411168948249777,1.462739474697525,1.470626762857471,1.4380731225296275,1.4512942017335455,1.4695523757279128,1.5731960194850132,1.502083956851596,1.4406168901371883,1.5374364229579414,1.48664749174095,1.460174895779104
1.0410410410410411,1.4455649579989704,1.5356451526868313,1.4577925672712677,1.516629531788825,1.4070699139530363,1.4013559201401047,1.4638736013309777,1.4428517478783416,1.387220277831962,1.3425146748334655,1.4280250925224687,1.3576213479179784
1.0460460460460461,1.483210398718826,1.392642357440743,1.4575180280278253,1.3751385811041092,1.410063361228764,1.3300310020111095,1.2969772160324953,1.3412017630368456,1.3359997838343356,1.4187891576408678,1.4259207243428285,1.4173470410311984
1.0510510510510511,1.2606386954318924,1.2863662502231876,1.3209062201738468,1.2657042332684139,1.3076560689105332,1.2060922164014498,1.3388172212101477,1.3888734041966946,1.2307554181869937,1.3563804387178993,1.379843049641898,1.3910107046868996
1.0560560560560561,1.3379604093969961,1.1771110772265174,1.2532991869420325,1.2897891770560475,1.2886980435605904,1.2941056960942219,1.1931026934280817,1.2911426182234507,1.3737202988011346,1.2697963288888108,1.2520216761565233,1.2614370971535172
1.0610610610610611,1.26729772769162,1.2164989562484825,1.1726481148264927,1.20599671065306,1.2515999396143171,1.202722387837056,1.2054167234915925,1.1543894882387962,1.223353908668732,1.273116758340844,1.1628028763164477,1.2965523331043778
1.0660660660660661,1.2051607687919916,1.1475692763492613,1.0763995883606439,1.1899869422173943,1.1224374971089217,1.1527956540043993,1.1732552789183799,1.165972634236152,1.192596307736686,1.2102965564310297,1.2499152840436418,1.2126066398501671
1.0710710710710711,1.1726267180984102,1.0519337995933344,1.1538370402087623,1.1010226209291303,1.112351101800444,1.1152214661768902,1.1491429147635182,1.1335544938756954,1.1103317773830326,1.07639563397859,1.1097081413710932,1.0485586891385512
1.0760760760760761,1.0056834464924629,1.053592280382407,1.1002246429558173,0.9539367934302849,1.0268304677608597,1.1226669183301003,1.0627484998374581,1.026610776787566,1.0277674273144777,1.0886388057610428,1.0242536123051955,1.112597172473936
1.0810810810810811,1.0984638693407165,0.9520146316819006,0.9542721427404376,1.0392106193851849,1.0984709684183733,1.0526817707775655,1.1301936118610507,1.005081246312539,0.9766086607093346,0.9899978608110885,1.0263446897845345,0.9868157961796935
1.0860860860860861,0.9338888156879711,0.9214906871534123,0.8753726927993332,0.8890361140972197,1.024073117461345,0.9467779268759936,1.0320254136403137,0.9348441274653015,0.8216986710832382,0.9306380956055189,0.9652461830818545,0.9152842158662586
1.0910910910910911,0.9104778317794137,0.8536974527684534,0.8775728063422159,1.0270728804464924,0.8171557939511147,0.8253930395819382,0.881510035007241,0.8437344167592897,0.9564962898335166,0.8817065020564978,0.8803874066031653,0.8725396737042522
1.0960960960960962,0.820149589262934,0.7607636542871996,0.870703795043855,0.7771972317225484,0.8157557346649499,0.7318395471304292,0.8117733262621069,0.8178765509947403,0.8335644500027098,0.8230193048094667,0.8379198646355868,0.7863036444621486
1.1011011011011012,0.8111117283213763,0.7826356664754303,0.7411985284358111,0.7946980703297216,0.7461084173140924,0.7367381587023233,0.8247065748999574,0.7174982071759978,0.7842510321233759,0.7496237802667478,0.7687484793679012,0.6831306475829126
1.1061061061061062,0.7558828505996925,0.7395993037754253,0.6649939107866086,0.5231721762263476,0.678154418272426,0.6717851282973887,0.710437096345333,0.6708632576169115,0.7476215520803199,0.7002031381880912,0.6903805741169706,0.6649803197335222
1.1111111111111112,0.588348654673981,0.5763208986713703,0.651055915787082,0.5564568462551653,0.6211864496105188,0.5765646904868124,0.6662638112246494,0.5395281363634871,0.6427792198413766,0.5984191608947813,0.696923979842454,0.5560487690837028
1.1161161161161162,0.6193438932938982,0.587908521002154,0.6046656373516796,0.5746387657896119,0.48545726182035487,0.5876142454611315,0.5804461114810504,0.5373815650709339,0.5264286256077116,0.5029581233482574,0.5505278507831769,0.5224903175371632
1.1211211211211212,0.5351913011631784,0.46781805635820223,0.5073272859573574,0.5227164422131462,0.5104286618433277,0.43909579398725845,0.4102232999159479,0.3950513525202072,0.48829012095043905,0.4742687253549523,0.45167768069888337,0.5011720076637554
1.1261261261261262,0.4338135441288358,0.37382947497954516,0.36968370898810166,0.4202804762118937,0.36887217976645,0.43683685035816894,0.42487087841600585,0.3627547310178111,0.33357763041034094,0.3899262057344699,0.2701470858341749,0.3389058261293886
1.1311311311311312,0.35002028676697783,0.3136249547261305,0.38423357036689676,0.3362498477239414,0.28738020505264045,0.3092279870407049,0.2850879333139817,0.31005128412384764,0.44675278875407637,0.22880346056502787,0.37134766784358375,0.34419718086574114
1.1361361361361362,0.2695487205821196,0.30408203856874527,0.25180978978379365,0.23866385165707238,0.30488420843539077,0.37772532898605393,0.30033027543021557,0.3221779969714657,0.3687894867199277,0.23612512183724824,0.23548280260031612,0.2945086129272742
1.1411411411411412,0.2732724576833879,0.23788107098097078,0.17637148149820284,0.21003765084651044,0.20234809488126038,0.13577081281614514,0.13009287361000385,0.08417616842361139,0.1936596014620976,0.15094959580810519,0.17781543077009831,0.23726071310487928
1.1461461461461462,0.25710802902149804,0.03626798346137736,0.19019093264376108,0.074261773471205,0.04940410896524701,0.025902112614094835,0.18776060223361685,0.10315656376726515,0.02265757732549037,0.08361723912756638,0.05742769703257192,0.11794494831453747
1.1511511511511512,-0.016754679093783108,0.059402614788671,0.05426322089365319,0.051822088066925544,0.017387444149509775,0.02644700855972714,0.010202984931942514,0.021010399228809616,0.07873411233566052,0.028260258886708675,0.048090047765577286,0.05109408330865578
1.1561561561561562,-0.07253606088845356,-0.08265680873731293,-0.18062422329941133,-0.04705286834479596,-0.058839556594721384,0.11820653456332178,-0.0625145075548364,-0.038757617888226764,-0.057062386351432334,-0.009939599497780633,-0.010582222698494011,-0.018202536312318492
1.1611611611611612,-0.11745936507795438,-0.10297362136482134,-0.10227785220640562,-0.12341092077492198,-0.13154550421151215,-0.06086179998996624,-0.03878612189466599,-0.10454245294351017,-0.144698130303588,-0.15948247837915844,-0.11080099558904156,-0.1054944841967507
1.1661661661661662,-0.22130344948779523,-0.06362313614154122,-0.14992272773816534,-0.2286418072319157,-0.20622049382105379,-0.16976365256345027,-0.17121549970919475,-0.1111651413453179,-0.11833414527341392,-0.19316045700524515,-0.168038084424925,-0.06829971113335856
1.1711711711711712,-0.22074474597590613,-0.24457382714949158,-0.3200869193382573,-0.33511391966447635,-0.3207441098389017,-0.23588809830832946,-0.12615457307281247,-0.22213478699572986,-0.2416777528857578,-0.2809527257015102,-0.23861208780993814,-0.20774688981350548
1.1761761761761762,-0.40500082847789265,-0.31475837106337035,-0.348596199434536,-0.31896081731236253,-0.3560641763711501,-0.33458786700935306,-0.24496753368913673,-0.34951194119147416,-0.2930520991004304,-0.360042278352415,-0.3236142517805332,-0.3779258365616522
1.1811811811811812,-0.3534151715889194,-0.40441043915355923,-0.4187569221030561,-0.4037944519077197,-0.4135495833530669,-0.441268950566975,-0.41273634636879086,-0.366096505953168,-0.42455020525171183,-0.4231968748864852,-0.4337934291454443,-0.42604764459160505
1.1861861861861862,-0.6243631665191327,-0.49434782529517124,-0.446952650877997,-0.40781863294046156,-0.3893252017488855,-0.4353525533549924,-0.41802371275623296,-0.4141164588626659,-0.3493107359176086,-0.4722275345675618,-0.5774672413142231,-0.46569132623932585
1.1911911911911912,-0.5867146853559222,-0.6343295357992871,-0.5079904971039543,-0.6080615059167094,-0.6164416675117513,-0.5716784007711768,-0.5183203135484187,-0.5341677116155709,-0.6023814988539198,-0.6375964177275595,-0.5377136774466648,-0.5925358267944569
1.1961961961961962,-0.5739036182994919,-0.5680904364030147,-0.655197015994574,-0.5834488319276171,-0.6265726362766632,-0.634183527958297,-0.661191355323006,-0.5215592620474735,-0.572926492751533,-0.6022980738465279,-0.6640708469884932,-0.6000804209591062
1.2012012012012012,-0.7239064332747592,-0.6676860408324502,-0.6871203356299687,-0.7629810561443138,-0.7094726100517919,-0.6614245611905695,-0.7135079403626671,-0.6455246151896499,-0.7222062899610947,-0.7173890127119235,-0.6635566129949381,-0.714954696949424
1.2062062062062062,-0.7294863825033595,-0.7873605782353739,-0.7707979055185736,-0.7743593012501145,-0.7129586794721359,-0.7204429329134184,-0.8035798921044917,-0.7397023632143359,-0.6535095270642584,-0.7776496520935444,-0.7075189660853255,-0.7446647824082497
1.2112112112112112,-0.8179497046428613,-0.7654553911097868,-0.7539420199862225,-0.817938279877349,-0.8453345319474475,-0.8499747859433856,-0.7925113598347,-0.7626623591705407,-0.7322191081442553,-0.9195688406040831,-0.7937296178924764,-0.8397405527824536
1.2162162162162162,-0.8341817201130405,-0.752507667110104,-0.9026167536243139,-0.8711096932633411,-0.9702931397505283,-0.8602426207093865,-0.8419938849441675,-0.8761752554177782,-0.9041117017186597,-0.8046963017595291,-0.8902880460039622,-0.9066330714462112
1.2212212212212212,-0.9773832550318385,-0.9150341183454705,-0.9783031515924184,-0.9654461203564874,-0.969719575748966,-1.0105225911799036,-1.0151362520699743,-1.025448180921429,-1.0105010504438496,-1.0220609423022091,-0.9758048858155485,-0.925777978846703
1.2262262262262262,-0.9775308594866218,-0.9214695511009849,-0.8919817163842544,-1.011213170976731,-1.0396668426951987,-1.0257289161139824,-1.0164580637221767,-1.076105449683305,-0.9655796191207633,-0.9512526680075669,-0.8610258009922559,-0.9322108142089792
1.2312312312312312,-1.0271912166562498,-1.030481039600932,-1.111989050715601,-1.0215665861570777,-1.2457334315626911,-1.0870093609921134,-1.0899518805705564,-1.040969842825128,-1.1075339523878944,-1.0225143772104683,-1.0684208618381523,-1.0158538144770641
1.2362362362362362,-1.15777390098219,-1.1597490317035404,-1.0982861411047575,-1.200798346567924,-1.1392929366609883,-1.1753260433934538,-1.1304284346206663,-1.1157260655572236,-1.0641078864156381,-1.0700044870169234,-1.1482801592768683,-1.1396812326011128
1.2412412412412412,-1.267117291222395,-1.1682860122561132,-1.196444028064824,-1.2017518882932392,-1.2158531070830887,-1.1182445010704085,-1.1774930163894155,-1.1031342796530714,-1.0612184152371935,-1.2152672848268062,-1.1105242515808413,-1.2032163834814407
1.2462462462462462,-1.269065371862826,-1.2145786551716895,-1.2691560466937137,-1.1626619823163762,-1.2255980835758704,-1.2595858709243244,-1.191276853033267,-1.232060130102242,-1.266095133576691,-1.1800878983697485,-1.1990090056770346,-1.2194035526878788
1.2512512512512513,-1.2387004269525559,-1.244373140476831,-1.3372378281404518,-1.1983254731477768,-1.3168087660349304,-1.2987943454836177,-1.2662637567638657,-1.2613772278565576,-1.2848128617347545,-1.2777970504329235,-1.283908580540805,-1.2136821298602976
1.2562562562562563,-1.3919841691859518,-1.4343355033774803,-1.4243189785397825,-1.395980497179678,-1.287454192054853,-1.3796074275921204,-1.3837481806938994,-1.3051491608719528,-1.3385726509719276,-1.2996211833735272,-1.3341534635843917,-1.3607532060813192
1.2612612612612613,-1.479385851786455,-1.4059013884799447,-1.3392788293298186,-1.3176112408671459,-1.3686039519832283,-1.3822723470405112,-1.330603515798349,-1.4370605296035865,-1.4266369741024945,-1.3739826794061587,-1.3512584521496593,-1.3529372092859906
1.2662662662662663,-1.4825475910606856,-1.4524394050944631,-1.3819841023116766,-1.437192388591613,-1.516076727199336,-1.4081266332849223,-1.364078321984349,-1.493964934278688,-1.4015328258949802,-1.3479414308796238,-1.4166198988411793,-1.4643937870593693
1.2712712712712713,-1.4779983057078896,-1.4819208766160685,-1.416250436615278,-1.4076240284600148,-1.57328173755572,-1.4672588406077256,-1.460663155814663,-1.4141866720071192,-1.441846583432839,-1.556838582302736,-1.5278239151201194,-1.4891052947081396
1.2762762762762763,-1.4206151718413116,-1.521978315999967,-1.605106269464664,-1.4862796728698808,-1.4814026934555615,-1.5186692689396992,-1.5237580589740722,-1.4398368178211918,-1.546046038413285,-1.5540682366480285,-1.5471077589225817,-1.44117208426473
1.2812812812812813,-1.5716211165524192,-1.5964573177791568,-1.4881887282193391,-1.5328391487332833,-1.5373841979882186,-1.4076439043439737,-1.5607382178724327,-1.530379285932618,-1.6158930573633845,-1.5594487416723584,-1.6414004600499266,-1.4512606402243324
1.2862862862862863,-1.4470165294321151,-1.566616273310002,-1.6430119812951254,-1.612883818997093,-1.6309963127888403,-1.493446528094823,-1.4991904886012646,-1.5611899918113845,-1.5704799059124601,-1.5537964378268283,-1.5385404152650675,-1.5953432397721075
1.2912912912912913,-1.6079232942254924,-1.612995310614991,-1.5976244777252406,-1.6574420193032136,-1.6821843562172458,-1.6100117788403432,-1.5691917791134786,-1.5455220807388879,-1.544309199311658,-1.6104576482235702,-1.6517307732714475,-1.622680451541358
1.2962962962962963,-1.7046123935426067,-1.6080353619962664,-1.5772527032688046,-1.599465486392193,-1.6594533683543156,-1.5316738494643665,-1.6678712882412179,-1.6441958409374653,-1.6081421163196037,-1.7177513728581741,-1.6744039600877005,-1.6396759289148022
1.3013013013013013,-1.749965144951285,-1.7320657363316845,-1.7646642627186184,-1.7699410167873504,-1.6723185279840214,-1.8088257340994058,-1.6702740854265057,-1.7154552442226345,-1.7701602245439922,-1.6995451011330833,-1.7164094378898263,-1.7130305383273445
1.3063063063063063,-1.642585779517851,-1.6801363347497098,-1.7220145505114246,-1.6665349024216551,-1.6940923356199957,-1.7038819363607451,-1.7424002467825783,-1.6555090728557167,-1.6150802016887877,-1.73979948239034,-1.7094048994607451,-1.7282032103743281
1.3113113113113113,-1.7108059041041006,-1.7856155749000817,-1.6916137524980417,-1.768181327662473,-1.7054709884426422,-1.6845635771010163,-1.7502570800248154,-1.7126189774467415,-1.7138961741165695,-1.7351600028176155,-1.6755396212891307,-1.6999762608457527
1.3163163163163163,-1.7807950369381085,-1.798039962882121,-1.7758230039209506,-1.7214659746728571,-1.6967164956066743,-1.681058684023123,-1.74259712920986,-1.7613489427664049,-1.7440852905719135,-1.7961442145138862,-1.7316807888471042,-1.7613333772734496
1.3213213213213213,-1.7717579504738947,-1.7815716941010031,-1.6665045995668704,-1.7045874901384408,-1.7914503352688862,-1.7922612780017961,-1.8219545003875104,-1.6913786564656006,-1.802021575502537,-1.735223875914873,-1.698806353896211,-1.7182800349400877
1.3263263263263263,-1.8376726929576144,-1.794852864717467,-1.7102013361861306,-1.6988043213270845,-1.762259796045223,-1.7769463400457435,-1.660686606543627,-1.790953880077809,-1.7515696292287084,-1.7079218110641015,-1.8043378230375848,-1.737165873917121
1.3313313313313313,-1.8360532386894248,-1.802973761270659,-1.9041000036833209,-1.7303946314563978,-1.7682223866131495,-1.8098818746831358,-1.7535053758104577,-1.7747214111961729,-1.7320957635474608,-1.8188494215693514,-1.7554946020764381,-1.697713217606783
1.3363363363363363,-1.8605002017314203,-1.6734646479054653,-1.8004931357413052,-1.9263929300792095,-1.828573144493121,-1.819706098102553,-1.843120062253542,-1.8537759555084168,-1.7569681148440908,-1.808726837693597,-1.8534031220539444,-1.7927446803431908
1.3413413413413413,-1.831164916769967,-1.7728044124175444,-1.7792683114700645,-1.8028504949545527,-1.8181211011705045,-1.8025831132503933,-1.7936965789315238,-1.7861062879189844,-1.7283109756538608,-1.782342204934669,-1.7276728775013173,-1.7538956999665003
1.3463463463463463,-1.8289975990962724,-1.8259363980239824,-1.7585066576182733,-1.796279348479881,-1.7901019929244926,-1.897865064052024,-1.7507121343689926,-1.7899869941201392,-1.7831184226318997,-1.8847861487920012,-1.8727456324122065,-1.8258555885195125
1.3513513513513513,-1.8045602340916038,-1.7589842397178033,-1.822234371095003,-1.7804234890972532,-1.8170933331989456,-1.793977534562119,-1.865348850870695,-1.712603338922324,-1.8041824058251805,-1.7945228469680974,-1.735964744432925,-1.8868068020094098
1.3563563563563563,-1.6868349358029187,-1.7942675341633374,-1.8065622541728585,-1.8576616461638342,-1.8215095751519685,-1.810829812076831,-1.7492655273644315,-1.7770837112582045,-1.739197650203321,-1.8095571066253313,-1.8114278770255254,-1.789602297321545
1.3613613613613613,-1.6705793710225807,-1.7947271914537084,-1.800256251562909,-1.8027723110055667,-1.8084691043754502,-1.878940680379865,-1.7665757303516825,-1.8565641620828663,-1.7229366148017995,-1.7575783581214655,-1.6934468799749682,-1.756686838395223
1.3663663663663663,-1.7137764075409527,-1.7627867015061571,-1.7979400789629583,-1.7758713323636548,-1.7569402952063424,-1.8676097019804871,-1.8573548278027352,-1.7302137748717168,-1.8357541456488657,-1.8498639639285392,-1.6827219797485178,-1.8519039930692371
1.3713713713713713,-1.851210065615744,-1.8119703267516893,-1.8044312899767427,-1.663728397915666,-1.8025831311477283,-1.77946231235957,-1.6842320012783296,-1.7407535433589332,-1.7324561779847916,-1.8086315907047668,-1.7680300143336234,-1.834809496713022
1.3763763763763763,-1.8352630081285455,-1.7843799394884508,-1.6826221418336382,-1.7832094507232648,-1.7425064015517957,-1.6708777942199897,-1.7631084613536068,-1.7806022456707276,-1.8754930732611366,-1.7418400185187741,-1.7531691514762227,-1.7080630059035031
1.3813813813813813,-1.7330577159677414,-1.6521801529202351,-1.7021784639378033,-1.7467224103949033,-1.7312996666913738,-1.6699661261305545,-1.7399953612033132,-1.695408650745086,-1.8110996905454164,-1.7434013929432521,-1.7379262718075206,-1.681962920542649
1.3863863863863863,-1.6888091675067027,-1.6662663820776802,-1.7375455124283605,-1.7063966416664624,-1.6827533995343618,-1.7643135126637706,-1.6866497976118768,-1.7767830661947082,-1.7139192651337605,-1.6193294713023614,-1.7285724319775873,-1.654830001663349
1.3913913913913913,-1.6557245569758987,-1.65652567655569,-1.6879025376932764,-1.7758931340907973,-1.6582792773742263,-1.6430920990026334,-1.6934368074452972,-1.6530372868301082,-1.695204925917186,-1.7256778893313454,-1.658093576759128,-1.744613215424894
1.3963963963963963,-1.6597152594357825,-1.6485984085422432,-1.6842067980250164,-1.641142411563593,-1.607265235405657,-1.598623974711312,-1.6041511115894518,-1.7885357420992665,-1.6572236948608847,-1.6244701862770325,-1.6119581214850085,-1.604971129135891
1.4014014014014013,-1.6214058424096642,-1.6385186313656348,-1.618164833810081,-1.5951132397237728,-1.6686175946658623,-1.629554535810406,-1.5943734679976402,-1.5660653723253826,-1.5391015152087388,-1.5368033849636913,-1.6353501957431957,-1.5438968452118298
1.4064064064064064,-1.5993323191225262,-1.5869418427413564,-1.6812484265759344,-1.4665857563709848,-1.5476943649540835,-1.5648679008024429,-1.558123273581617,-1.6032491054969213,-1.5105724859256335,-1.5405257731970288,-1.5917288293729328,-1.55101931902745
1.4114114114114114,-1.534250981987392,-1.480171703825854,-1.6539775085196389,-1.604215600014478,-1.5550724443844688,-1.6558322806544816,-1.5073680437704444,-1.4904512376878916,-1.5099954119442323,-1.5072383606567115,-1.550244461612367,-1.519993968237884
1.4164164164164164,-1.548082327506462,-1.5346581633967618,-1.513681020022813,-1.4747986322140387,-1.535050504522512,-1.5482261417293575,-1.508006406827605,-1.5696193593298835,-1.5656448782828853,-1.5393632570143918,-1.4437258403974482,-1.5700607171380836
1.4214214214214214,-1.4463382574813097,-1.440908049635264,-1.5092752718815272,-1.439553675462356,-1.4064808309883639,-1.4946665840115791,-1.4970977483018537,-1.4851169522037768,-1.4467841905602659,-1.3855549826049385,-1.5175344638080774,-1.5140900949185
1.4264264264264264,-1.3842950687662494,-1.3203281689121393,-1.5150753108566042,-1.4583988586201995,-1.4188697470887985,-1.4299461559407636,-1.4456583326860744,-1.4480266456052746,-1.399699192258108,-1.5410279087734595,-1.5430708024844133,-1.4795330354204475
1.4314314314314314,-1.3568635947267493,-1.3433828445558438,-1.4449966173338809,-1.314659023629763,-1.3574005772898843,-1.4273232043771031,-1.4080499411902276,-1.3767130645626833,-1.3787711115010124,-1.394646764431401,-1.3044132386293772,-1.405145450322203
1.4364364364364364,-1.3058532454793625,-1.3078385642745645,-1.3542750201674094,-1.3378514537385704,-1.331212804106551,-1.3952462876552616,-1.3614958871317326,-1.2664570138342623,-1.2795325206137238,-1.3998727786992806,-1.3715255496941592,-1.3165253016771115
1.4414414414414414,-1.236666578869466,-1.2700973371538269,-1.3051172122031456,-1.2702551323488376,-1.2323324539674299,-1.3146353245780535,-1.285712549928997,-1.3206738580781592,-1.2572754489974292,-1.2503193744504821,-1.3065826721917833,-1.2975254570010426
1.4464464464464464,-1.182644954375474,-1.3031439014967787,-1.2219673976478742,-1.1029852159539162,-1.1907727128327377,-1.3026848314393793,-1.2884230330704105,-1.3661250699723335,-1.2374391501983593,-1.2271645187902553,-1.2432757838362605,-1.2698413102617918
1.4514514514514514,-1.2690583268273086,-1.1957797166064377,-1.0533405825609115,-1.1891081912302073,-1.1794882817986196,-1.18430036623882,-1.149382608797504,-1.0806719406144616,-1.1878613625172691,-1.192984599082055,-1.2006554710834427,-1.2125717792116513
1.4564564564564564,-1.0639870406297822,-1.1645907465091552,-1.0534067963062992,-1.0617998105023214,-1.170100251553729,-1.2068530016794772,-1.216291156847939,-1.1088177979961475,-1.2000725282134947,-1.0795199670215347,-1.1590455019643209,-1.1162437245076238
1.4614614614614614,-1.0033753439482287,-1.0726105736321503,-1.0333362082026167,-1.0867931425774469,-1.0463588406949669,-1.0956397059359526,-1.0053786721524707,-1.0847253660822496,-0.9910075854438505,-1.0210914304104637,-0.9007716609788554,-1.124016421920251
1.4664664664664664,-0.9868678306495463,-0.9898659978117735,-1.0779644602323468,-1.0226338678554103,-1.036506930264691,-0.9787024361658639,-0.9837196117890736,-1.01265368432269,-1.0275680092296973,-0.9749395481841925,-0.9314125477213968,-1.039817642444214
1.4714714714714714,-1.026478743852264,-0.9431015534425599,-1.0221771850265235,-0.8941546779858175,-0.9714175049299227,-0.9641908325150516,-0.9789215108609582,-0.9427716737068671,-0.9839862004237135,-0.9699226627889779,-0.900600577041235,-0.9117117986070524
1.4764764764764764,-0.7821459307541292,-0.7658644825560071,-0.8107295067139871,-0.9317491883451245,-0.8961544255487415,-0.8527844245646887,-0.8859879563880592,-0.9487618789611401,-0.8018849644521134,-0.8816283765676213,-0.7861575302295835,-0.8412942991497192
1.4814814814814814,-0.742723833847277,-0.7731560078004546,-0.7926896311756149,-0.806519224354483,-0.8364991648749007,-0.7967726424208003,-0.7211124368664581,-0.7939603169192696,-0.822320834153224,-0.8607971361139193,-0.8616622839140874,-0.7968199514422507
1.4864864864864864,-0.7582079255053845,-0.7706444527339843,-0.7631428225326092,-0.6556620304290379,-0.7949251701603527,-0.6720055318952876,-0.6310585493620012,-0.7682766071510243,-0.6707863925595983,-0.7657446553003331,-0.7133297834138274,-0.7695243007313601
1.4914914914914914,-0.7095051223983767,-0.7656514785245464,-0.694622993439793,-0.7102110639653169,-0.6872504271188914,-0.6924456309857272,-0.6869939049532529,-0.6717635781976874,-0.7226054635160518,-0.7066737785091823,-0.6046758006552956,-0.635000607974945
1.4964964964964964,-0.6721190670825833,-0.6127847948235681,-0.6045708454107878,-0.6576224887032944,-0.5781119623391824,-0.5566320775892446,-0.6866624284277685,-0.5957012184944019,-0.6631266019262452,-0.5615835179183403,-0.6005793799324166,-0.6168582282229934
1.5015015015015014,-0.5028187781971549,-0.5777183069506788,-0.5682897049134679,-0.5584843448554854,-0.5095665811364539,-0.5302328385272024,-0.6561879825375925,-0.5333979540780992,-0.4608569759154803,-0.5327667415784838,-0.37476244296167194,-0.5804035722476699
1.5065065065065064,-0.472847778418375,-0.5304893391417865,-0.5021168152408979,-0.49328275130882665,-0.4730533674620987,-0.45865837154451783,-0.5034166566130572,-0.4483388015872465,-0.4300434344972883,-0.4283468668378343,-0.4452225107906115,-0.43112156977547206
1.5115115115115114,-0.3180506839932758,-0.3966092859519454,-0.32057675545649494,-0.441875429720219,-0.34453949021108005,-0.3520229555553209,-0.392409152751291,-0.4683714474735479,-0.430963955792953,-0.4072395423585478,-0.4232730354747565,-0.44491365150484363
1.5165165165165164,-0.43011131599617325,-0.43791308153827446,-0.33461210372920347,-0.3669476224971373,-0.36299733821509633,-0.3645552215536516,-0.35048970215670494,-0.32201698049274435,-0.352879548506744,-0.27894495205098174,-0.287186379015453,-0.3445125838496009
1.5215215215215214,-0.2666650764091237,-0.2547496256261487,-0.2424458540277166,-0.21297032017294884,-0.24665980656601208,-0.24266688387406782,-0.19891188012007083,-0.24988631470536327,-0.2827617058251678,-0.25845057367064017,-0.25522502029666033,-0.2535991083374834
1.5265265265265264,-0.14514149569248308,-0.07895398823722596,-0.09933730052951949,-0.16238729141919,-0.17583572010615098,-0.19531717733564447,-0.1108078391579191,-0.22005245065850568,-0.11931779324473266,-0.1520716110047261,-0.09235029049886333,-0.15172466046125566
1.5315315315315314,-0.10460943551257332,-0.05657093962868149,-0.03577598452734686,-0.058488023572461315,-0.019308978107690944,-0.12035751316187107,0.016405579635639433,-0.08506501731662758,-0.11265598930524649,-0.16340118086914618,-0.059013446420177,-0.11522160210447513
1.5365365365365364,-0.032485517509659445,-0.034474181480386,0.03297706603875877,0.006648765482570863,-0.02246699221585222,-0.0047703473765675665,-0.01313972223976503,-0.025388833707209898,0.09540715617311808,0.024572002978664336,-0.03296119925976775,-0.003064176451786329
1.5415415415415414,-0.050040181445448355,0.02787062578372208,-0.011105775229914024,-0.008568674503630642,0.11219451143304918,0.05597009696400655,0.09208929572400805,0.1765290891331953,0.015040335557868635,0.11862418887112341,-0.012157035751782425,-0.012241698998221827
1.5465465465465464,0.19335089547810957,0.11791424177786251,0.1028438404624753,0.07782171594549889,0.0632274565277359,0.1607610876408212,0.1274534954046065,0.13061322623596439,0.0818789956708609,0.023597816606296423,0.14441369925660164,0.15573451269370558
1.5515515515515514,0.22425583163984125,0.20887392204314578,0.23412566136666652,0.22763628052511778,0.23210319119618683,0.11801115208947148,0.15074508939803338,0.15497959904883643,0.19147439926666163,0.17591586543411172,0.22304690889291873,0.21744759492989035
1.5565565565565564,0.32479826323600436,0.26547686710937707,0.35372305919924807,0.26795890262620814,0.2508738451531335,0.2512266364473013,0.28032391979728455,0.2542986933074656,0.29148723502757157,0.32443586209563513,0.2711478092483505,0.3117778626735732
1.5615615615615615,0.22353345969343175,0.29113196667487135,0.3639917581138266,0.2693653439497847,0.38851109939123746,0.43022487572295354,0.37490929412544133,0.2604608539954136,0.33640438118122845,0.36630721374385244,0.36413187417262377,0.3787256512266469
1.5665665665665665,0.5372287709661999,0.32490312952512784,0.4367120278925536,0.44997738179691027,0.4227173936027502,0.4092856023446645,0.3567670296015316,0.4200441483540029,0.4052880318533887,0.3986693136047005,0.4061685653028457,0.39286982428450345
1.5715715715715715,0.501912201776038,0.4267500951057468,0.5647931966957558,0.5052222166664874,0.4653365307517185,0.4364465097800825,0.49371543705240567,0.5077427410153047,0.4985898383997177,0.4556848535729331,0.539026334998966,0.4546258028504819
1.5765765765765765,0.6524224395716214,0.5388719456058222,0.4504967500367686,0.5188791892068996,0.5991646554250599,0.5057956946963851,0.5943508312230834,0.5637785078018656,0.4985128546916402,0.5343070812905402,0.5116966896992665,0.4685665707268301
1.5815815815815815,0.5857577103527875,0.6675776505423532,0.6978882001758933,0.6594499716969725,0.5849946791260326,0.6543993641418719,0.6213453484901006,0.5726018872271368,0.713555270382072,0.6268122762651591,0.5870095709980823,0.5897892703589029
1.5865865865865865,0.6434288833202183,0.7353942237928776,0.592488698075758,0.6824351314638455,0.6841605174475273,0.7363301976561218,0.5978741465601902,0.7112522060611326,0.6856551696174176,0.6947445465909131,0.7849990261178993,0.7038895977081272
1.5915915915915915,0.8142590876848378,0.7727795075971399,0.7996492826110498,0.8289092532523055,0.7711622734910075,0.761447465737387,0.6758764653446818,0.8032696795364146,0.7199103765053723,0.7182018806282428,0.7802673427809595,0.7884287674486233
1.5965965965965965,0.8415527629727415,0.8210262730856341,0.7640072547436139,0.7643008179014101,0.7274375038539234,0.8111309776373726,0.7270303292818658,0.7981128378092327,0.802221746113269,0.829650925329256,0.8383747125071607,0.8712614082824661
1.6016016016016015,0.8433957256268851,0.8958767119080726,0.9415404623787135,0.8621441256209247,0.9421892876662116,0.8791842821918352,0.7956421198592397,0.8167547555549297,0.9008218373389962,0.9278170121519984,0.8120198100517764,0.8474503772491904
1.6066066066066067,1.008926490227512,1.008042252862119,0.8716223733990843,0.9203779755497381,0.9467054393614039,0.8897688645282497,0.8974915093564606,0.9482880347891891,0.9736293871543491,0.85633474226159,0.9478840602309895,0.9125470077246612
1.6116116116116117,1.012934583724661,0.9976247815501234,1.0334185039828883,1.051341372486407,0.9586405539496556,1.0591126551960355,0.9726765000812335,1.0872160617229343,1.0603744701887832,1.049065199615195,1.0560720748108308,1.0800527087855925
1.6166166166166167,1.074896332698521,1.0489728757747003,1.00116540278092,0.9440720744899401,1.0187818192537437,1.0201513740718122,1.0339943394191746,1.117551926764168,1.0598509347492011,1.135772311819073,1.082083221078882,1.0301495638013551
1.6216216216216217,1.0150738066134886,1.0792743384174002,1.1345283050592403,1.1021528479373661,1.1363106197729362,1.0799667519230076,1.1645051124093597,1.0778848436728314,1.2188226364173524,1.12160719312678,1.0793834582124815,1.2473429729560666
1.6266266266266267,1.1507432967193505,1.2413550797750321,1.119153440770613,1.1824008088151612,1.2268994308778338,1.2834129208140497,1.1588733765079764,1.1944382869221817,1.2551418043407396,1.1364451373078557,1.2151461303731965,1.1874745068328505
1.6316316316316317,1.2305575945009732,1.172642153128587,1.27618090070637,1.230758971426904,1.2790367815981,1.2128990438028198,1.2137411714215913,1.23493721069942,1.2804854371424894,1.265296078348671,1.1991914955175342,1.2304373344471748
1.6366366366366367,1.2758584207394617,1.2435293832738052,1.2373284830024167,1.3179261676558267,1.180763849581583,1.2483139832393781,1.3453230466896855,1.2538148829309381,1.2561865776256798,1.2309945835292666,1.3254630887208028,1.2558189736892302
1.6416416416416417,1.4106310404084124,1.3573591248630321,1.4002760002741461,1.3559709547430043,1.331601389426865,1.4203914306454035,1.368110243710247,1.314723892535369,1.3163321097315792,1.331376715211205,1.3972979714922675,1.3581999253712391
1.6466466466466467,1.451613359937427,1.4331993678723527,1.336274176520105,1.411321363512195,1.310377102315738,1.3222787580624629,1.4820724084810741,1.4489701473515064,1.4194572991810923,1.2931691456078898,1.3670255940066207,1.4421798205980911
1.6516516516516517,1.4226079337790578,1.4149273407164182,1.3612275428595413,1.448104918818953,1.5142658581485686,1.376844797047111,1.4251635192314676,1.4213462675043107,1.4109933216661452,1.459004074089775,1.4837160099444326,1.4232031138606698
1.6566566566566567,1.425938981900684,1.3978730400733457,1.5186925350311378,1.4420242627597277,1.492053186500721,1.3492815448783664,1.4539583908800153,1.4456874009751264,1.4853713895498737,1.4200532116864766,1.4678450744228362,1.3689588496475091
1.6616616616616617,1.5208056038589555,1.5409435092165251,1.6194869929361122,1.5406022393314494,1.426437120714738,1.5435432337479584,1.4646496029343956,1.5379432466487264,1.5167406817657607,1.488913595488597,1.529039841921388,1.6168860369818718
1.6666666666666667,1.5867489528564374,1.6208477198091051,1.6224130672253203,1.5455665657479667,1.5522804505953842,1.6494143244308868,1.6848044476725317,1.5638708616613586,1.5957180682290075,1.5859699589939469,1.5479022574890466,1.5088631897265015
1.6716716716716717,1.645071806488186,1.6009620821331967,1.5445575568603,1.6000369269704389,1.5533709631234638,1.6562675152610438,1.569488923168175,1.5919770274602125,1.6001336781923694,1.6201121123398177,1.6500115428643742,1.584376704532565
1.6766766766766767,1.5635249745010422,1.697835119943557,1.6631000703679248,1.6410558653676035,1.6651106192983547,1.663518398658744,1.6755809102245018,1.6948418770466558,1.5466717933854768,1.59804856111829,1.6229120112708908,1.6295156254905143
1.6816816816816818,1.6670379113733151,1.7013318086271192,1.5743408852758687,1.6977621148416344,1.5943134039645197,1.6544815471438468,1.6938082977155806,1.6384535930481423,1.601502529346166,1.5501478633992996,1.7472927734902377,1.6683193204452063
1.6866866866866868,1.671322071834719,1.618408327137169,1.7244723415224008,1.6839725709488071,1.7284585873900156,1.5795288486847499,1.6656194232006754,1.7502382999134714,1.6426851886877658,1.6922472495960392,1.683097762276748,1.6510274054269736
1.6916916916916918,1.6354485815003583,1.6886623687043827,1.7801920947925147,1.7138479707960665,1.802916100244448,1.5324835151662228,1.712707924522322,1.6530564137229944,1.6877600404167246,1.6751509166225917,1.6840626319067318,1.7284609892062703
1.6966966966966968,1.7418795665519833,1.680204749805713,1.7072712709192028,1.7672862026382101,1.6789481436451548,1.6736600633534853,1.7994468238389674,1.6880663884585272,1.6793280789990015,1.7646063232908764,1.6589125003564102,1.8068815663849587
1.7017017017017018,1.7689716355562914,1.6465668047187803,1.6672833734073655,1.7948003582497556,1.7938563312757208,1.6484460520457869,1.774992187441838,1.755907220727025,1.768519789537654,1.829750547644068,1.6566583755038502,1.7977916341173075
1.7067067067067068,1.7248492810445886,1.774148080074166,1.7742341201645584,1.7924889919792197,1.8317430305892697,1.7471936732986768,1.7780923725519784,1.829973886554833,1.755059030330259,1.8031191974249705,1.7756696675370869,1.7194840638954763
1.7117117117117118,1.7416649202698549,1.7567055066347566,1.7999414006529904,1.7625056992763022,1.7722266270118925,1.7780500796261869,1.700747220756134,1.7737193020433977,1.7854683944835579,1.7069621870433658,1.7654540253396542,1.795007669661368
1.7167167167167168,1.7679400684656423,1.810068254515826,1.860394160164238,1.7595143772953967,1.8051485419609203,1.7872283969191842,1.7520355378807904,1.8892755290738905,1.7180226168757806,1.8450319097656904,1.78605957218538,1.7527744547746282
1.7217217217217218,1.7466755965124021,1.7678971831636576,1.7916972197231238,1.7528718585603043,1.7801901924693564,1.7827607179157183,1.7437678314447866,1.8648984499444992,1.7961324948879538,1.812491814538429,1.750718073220414,1.8175929886180546
1.7267267267267268,1.7267680462770407,1.8166723970663716,1.750220974234032,1.8427139977614366,1.7516485308097003,1.780062258491567,1.794534519345426,1.8698716154525519,1.8298937169035168,1.7863985033665892,1.867229077413234,1.7484924850912873
1.7317317317317318,1.7152918511559718,1.789794044153508,1.8108056481255053,1.8200993107781942,1.7814171082041874,1.817816311105272,1.8153566486751262,1.7572181621727594,1.7670979421282889,1.8624585106215938,1.7721784031645198,1.7902889228512653
1.7367367367367368,1.762387737114462,1.7181557398749079,1.7821493934650914,1.825716787336528,1.8218689303571125,1.7632811799688604,1.725399475251801,1.7640630725014963,1.8124680935131032,1.7451415263436985,1.6926803777931523,1.629799745481825
1.7417417417417418,1.7696223106579727,1.8512092015369535,1.7477041359619108,1.7647009099306392,1.7713133283872204,1.7518610034353952,1.8510500046944756,1.8070317227203367,1.821982640136588,1.9294076950494392,1.7692349701968668,1.8357133885724886
1.7467467467467468,1.8039577375160447,1.8414823335829997,1.7688242229279592,1.8026753811699798,1.7731533105221182,1.7854162158830635,1.833459755521796,1.832979101180059,1.8603936144925393,1.7681149729475907,1.747417295321434,1.708853679112714
1.7517517517517518,1.7413868628058187,1.766806814813477,1.704180034240731,1.7957192945783442,1.6643354524529084,1.7047069660914034,1.7525204790005189,1.7183513676745552,1.824596884752229,1.6870611734739644,1.7520395172361634,1.7759479247263115
1.7567567567567568,1.70241579581185,1.7932275167021805,1.6810888687706984,1.7579588531463053,1.7795046040147813,1.7515681241577055,1.7022858285279057,1.6776582224416234,1.769513125281387,1.8005189502313188,1.7098642830417992,1.753144163868008
1.7617617617617618,1.769549967937137,1.7221667553617104,1.6922487269497688,1.676281685245726,1.7614101974711103,1.8024476069676236,1.7073075257786494,1.8021925382406279,1.8344503046609695,1.7446774858850476,1.7704474764961073,1.773407175443684
1.7667667667667668,1.6123183062085324,1.6870890737770794,1.7598119922417554,1.7792058396101873,1.7985538524783362,1.6910712156480643,1.6600906827154884,1.7778209246007577,1.7854016548646345,1.7353004423152767,1.7278064220879117,1.7346691573237758
1.7717717717717718,1.7276779065327672,1.7219588714888898,1.7196192410202606,1.6689212438829806,1.6510030550754087,1.6665896077102853,1.6059105442432104,1.6911186131326883,1.694000996761374,1.7148118376402088,1.6337627795799936,1.6567030995956
1.7767767767767768,1.6539678325705882,1.5665156596722265,1.6121287152793475,1.5677000956386065,1.7211674184347243,1.5956423011288554,1.6638894558147108,1.7333501212245148,1.6135161819821544,1.796712174718732,1.6653137739989299,1.6884610416583485
1.7817817817817818,1.6256252634839174,1.5750891269680596,1.69931824790035,1.5968023071345074,1.6427464967992098,1.6824914654926173,1.589501476635727,1.5756131946971728,1.6864455338385622,1.7016084396269622,1.578898012447856,1.6195731218167517
1.7867867867867868,1.5482602961841578,1.6591142214017074,1.6042570066234945,1.5356025553588375,1.644575619803124,1.6025286625177315,1.6381454485700555,1.6199172043506798,1.6730048312596297,1.6280136239182468,1.5711325195968622,1.5601534916637636
1.7917917917917918,1.564294238720232,1.6974594320544285,1.6089964808986583,1.604226205570712,1.6323220370693472,1.6496887886075244,1.6033118077806556,1.6304496624212055,1.602851056960394,1.5342048331089497,1.5665158694522654,1.6086521738368822
1.7967967967967968,1.5112275140188767,1.5366048846244968,1.5587553519412016,1.6395278165696903,1.509347703612564,1.6101698022634547,1.5719336417064047,1.5489829787505418,1.5756086669611957,1.520776714480222,1.6324167994078322,1.4884447301295503
1.8018018018018018,1.5958949089870016,1.5024367045358422,1.4346710147926158,1.5364462280605213,1.544830029105279,1.5203135943994701,1.4452814470653383,1.5512906351192068,1.5064686040237385,1.4965516515240154,1.6497250051687498,1.4312555083675234
1.8068068068068068,1.3586389318814707,1.4295726577199828,1.5225621991994225,1.4913057411548294,1.570947400131853,1.483320994250575,1.5578516958675146,1.5222985744689497,1.414850435893216,1.4654606865786277,1.4091108223860314,1.480753775996313
1.8118118118118118,1.441685650738821,1.2866691602878917,1.4116127202437228,1.2799934448059322,1.3769739451240632,1.3597087681537872,1.3258407067332338,1.486669665558699,1.4031763467564655,1.5008727676023292,1.3708590455289704,1.4051145987761418
1.8168168168168168,1.3616122163698712,1.4175164451287292,1.3981445644841222,1.3895973716835068,1.3272038248602394,1.327349773725842,1.3650418043159156,1.3545061999195558,1.350160283954132,1.4048685193366084,1.2879722231122004,1.4348813233233122
1.8218218218218218,1.3728295254826657,1.2107092688415952,1.289482684370986,1.2852437520211089,1.3519790752569316,1.3179307421792743,1.2464626982230285,1.3317681023142165,1.3442165714319059,1.2679313191212942,1.2978233681013687,1.2927997055958316
1.8268268268268268,1.3429400457133922,1.3773595006886759,1.2550285435323338,1.209866215506959,1.2334323300549415,1.2751375961732268,1.2846145951022607,1.3502404980200078,1.316577265147164,1.1852383488642495,1.3193092337885681,1.3315836404898729
1.8318318318318318,1.2962374603641242,1.2720313318432763,1.1257748018252034,1.2654117467542716,1.2041905603002427,1.273827519024307,1.1877070773934957,1.2210363193087486,1.248214046589836,1.221949703255953,1.3281533326520958,1.1816087403634925
1.8368368368368369,1.224252833443547,1.1642369861788187,1.228311706462684,1.1697967021346802,1.171992878182526,1.2122913869297596,1.183273746738784,1.1910503792763871,1.1792736953224356,1.1761870835871997,1.117141770188878,1.1122061854904388
1.8418418418418419,1.0622540340967768,1.0869128842420537,1.0487674001352356,1.01322491517678,1.0310186008759143,1.11572836928143,1.1440008828693091,0.9746620038435122,1.094496886386711,1.0477805951586678,1.1310540740928996,1.160440763727291
1.8468468468468469,1.030552255871553,0.948171342847766,1.1107852798326279,0.9968151783770811,0.9686668052078862,1.1077308552086862,1.0672745058875965,1.0967937288750829,1.0687877071370884,1.0265165059109636,1.0268304518683973,0.9540988806641708
1.8518518518518519,0.9747509970920301,1.0263889618645483,1.0264320924846968,0.9175630710043889,0.9302310716569357,0.968514986154008,1.0063556913272629,1.0432192096390458,0.9951473483395866,1.0253016596277864,0.978745288180535,0.9969298433108955
1.8568568568568569,0.8871246290778039,0.932598175490901,0.9654374654259518,0.8964754746763405,0.9073887328741161,0.9219688269449723,0.9498694392275124,0.9403456742017156,0.9344689765306156,0.9339842836676202,0.8614306745727044,0.947488030653604
1.8618618618618619,0.8841888197654818,0.9077671883606083,0.8472474576317652,0.8036987613731209,0.8698603224656956,0.8791501028288782,0.9191316451119252,0.7806853551150789,0.8832349837242474,0.9210117981304498,0.8858893345372689,0.8831306723485843
1.8668668668668669,0.7365947640960868,0.7750949611672187,0.7887060482653772,0.7343206839192177,0.8398171405677162,0.7681564069805437,0.7167789063659105,0.7448962191323556,0.8358282078182523,0.7836848925113565,0.7796012425273533,0.9140354660561079
1.8718718718718719,0.7896698031268317,0.775720450460578,0.7883352632493906,0.6240621738346444,0.8123873866219573,0.7355973289759644,0.7571499679009557,0.7044655890570419,0.6862578763347331,0.7935918333877716,0.7411242137897238,0.7211448135719958
1.8768768768768769,0.6501633625607027,0.6506756659400197,0.6214193768601574,0.6783269216167744,0.7648196966809929,0.7336455991335044,0.7380173981529476,0.6448196534896717,0.6213302605256195,0.6393882007648486,0.790759612140872,0.5833065487145961
1.8818818818818819,0.6451916396381344,0.5991554427802488,0.5493741094528667,0.5678291076382653,0.6074734453488341,0.6053965230051468,0.4609639213193817,0.6065261302719992,0.682677714103109,0.7345009200029274,0.5935833130302713,0.6220735379874892
1.8868868868868869,0.6711272931104167,0.46370844636071795,0.5052737359138285,0.5826603125500085,0.5778700980133107,0.47544175335508976,0.48390527780774495,0.5005395040471086,0.5232177699906168,0.5033675551748006,0.43551923523212904,0.483387483846331
1.8918918918918919,0.5921085162245396,0.4322176229264929,0.36233710159182736,0.48232171963234144,0.3372059133302677,0.589807219340829,0.4717648591683636,0.5539458235678653,0.38807287892640613,0.41369802497644714,0.46606216985474674,0.43569825072570806
1.896896896896897,0.3930471246850073,0.326358302464283,0.34605335239757223,0.35091454980282805,0.46089202597887424,0.3180939724887772,0.4097716463950559,0.38509480233609183,0.3904648445326877,0.3438983061567764,0.4161476872735412,0.4120641227841674
1.901901901901902,0.3577444910064892,0.2796135600841996,0.4075831662216782,0.30078331544735537,0.24047395569563162,0.37807871355413863,0.2505822784879972,0.2918812397962526,0.327337124692803,0.3139404262017974,0.30182160899386923,0.23040762405271462
1.906906906906907,0.19678597014694524,0.2543226078182151,0.23700939972987434,0.26428923892224965,0.21436154175538144,0.26854053378126974,0.2121746091431872,0.2953709524974662,0.2593994490226055,0.31401493219206505,0.2240679541873082,0.20460725703173294
1.911911911911912,0.22083250682821703,0.08330508939779595,0.07222749889503707,0.046173527055992994,0.14012843481628198,0.2066190219593575,0.16385411897322189,0.21445400020939195,0.18309999475625294,0.145768968451325,0.12392636909807725,0.20512101694631496
1.916916916916917,0.08333281402174743,0.034357575865548454,0.0821611562593937,0.06630453572989312,0.10094264963365589,0.033228537464743316,0.11533673591677526,0.0750366772568742,0.09755082556404437,0.06208607439316209,0.11629911445452862,0.09745957332067767
1.921921921921922,0.09591362543898554,0.019358062835726338,0.03547333607722558,-0.011001505988663837,0.07370779844135625,-0.030344203193747834,0.02387673991379884,0.0995780971060721,-0.019581788517987937,0.04361885261242343,-0.01907072272593976,-0.04254254345464445
1.926926926926927,-0.10330643279139406,-0.08557999958724542,-0.08249963910292706,-0.13329086154821748,-0.05390563692775706,-0.11796114766867562,0.07926549654322282,-0.054589435359653014,0.0007849391115925877,-0.09347248041094483,-0.17017505823448686,0.04148752267554957
1.931931931931932,-0.11618526825451538,-0.14176201419943701,-0.22912036799316302,-0.10263286458465451,-0.12099589098875953,-0.1901233118292411,-0.1802804474589682,-0.13385445784577993,-0.09312664533905099,-0.07072532070565621,-0.14577517011401434,-0.11982346924719284
1.936936936936937,-0.2108044882136277,-0.29063111943930253,-0.19029685414570077,-0.19757293310798063,-0.20421990667131956,-0.21963992064961896,-0.2318206546988787,-0.19962999229837222,-0.22954734209907324,-0.178028913254517,-0.2963329694284153,-0.15538604365442313
1.941941941941942,-0.30967919054772086,-0.2552316127693934,-0.24990465362183434,-0.3223722494253318,-0.20302533026679986,-0.28261648637785397,-0.2515168054709228,-0.23019365929286437,-0.20033603616123982,-0.19700884404267643,-0.31789488381100683,-0.2512532482622563
1.946946946946947,-0.3283698227730237,-0.40401959834559625,-0.241206290230257,-0.3400520816177935,-0.3043768190947623,-0.45030741469057656,-0.3596667446959659,-0.20856147154813076,-0.4099163958081485,-0.35024405887751914,-0.398824057062791,-0.3137553344087193
1.951951951951952,-0.34506417339961853,-0.37424586195836684,-0.39225085291914286,-0.42169982136440004,-0.4553140329471934,-0.5070299707878038,-0.47879287110043733,-0.45291240139940897,-0.3729595730748891,-0.3933322743442911,-0.351206915836505,-0.3819500586351461
1.956956956956957,-0.5406918133723086,-0.4704338031141849,-0.498946917890436,-0.5846265801116424,-0.4480201667197685,-0.4005761575822998,-0.4908826149988022,-0.5471432742871387,-0.5446386125903179,-0.4746221837633252,-0.48222162744094116,-0.5830989003252075
1.961961961961962,-0.4706095853351066,-0.5847484630427817,-0.5090698538980074,-0.6169073790715978,-0.5364516698737104,-0.6400977939051242,-0.5682983114608424,-0.5764831099034359,-0.5646796706690596,-0.5347804794696364,-0.6329619714253228,-0.5245982872943077
1.966966966966967,-0.6168654870884123,-0.6749754706375141,-0.7357146982786783,-0.6374001156772274,-0.6167947319605114,-0.5751087641456377,-0.5709398968195345,-0.5983669726451298,-0.6385000593088296,-0.6110389297743398,-0.6417999031759697,-0.6599188453903302
1.971971971971972,-0.6655813249458186,-0.6713582510463202,-0.6986871493094119,-0.7058010077500979,-0.6720015715266522,-0.6808630599483975,-0.6947166937954371,-0.7955629686253772,-0.6367880029838282,-0.7468724067334673,-0.5912901701543096,-0.6682887924900874
1.976976976976977,-0.7601357494115594,-0.7270105644090787,-0.8373952714506917,-0.7859505155372616,-0.8479578793977206,-0.865425608762158,-0.7738036068338225,-0.7162046206473262,-0.7669929378846446,-0.8044333275103642,-0.8072279030585237,-0.7458377451925755
1.981981981981982,-0.7981393873279781,-0.9245050121345856,-0.8200295577882879,-0.7731104400004472,-0.832025687079984,-0.8745429847386352,-0.8422893734612301,-0.8045141252469925,-0.7981154593381543,-0.8759659385267256,-0.8536086981231144,-0.8368435203340746
1.986986986986987,-0.86217570532077,-0.933587346424928,-0.8634363826363273,-0.8670815162385331,-0.8827019318416869,-0.9768973880324947,-0.8322855595473725,-0.92614161355577,-0.8582871747357216,-0.8901584586164966,-0.8728670343555888,-0.8467959973926534
1.991991991991992,-0.9407624110147371,-0.9558999272103458,-0.9320135106932848,-0.9336603507942236,-0.8743658795208027,-0.9533853208398451,-0.9542375319310352,-0.9812032941350443,-0.9552574569071183,-0.9571708668153467,-0.8637115683220713,-0.8677768968292259
1.996996996996997,-0.995831691257133,-0.9910802724058702,-1.0112074432437768,-1.030993363774649,-1.0906035535958285,-0.9804666961112836,-1.0247922821750888,-1.002837679072663,-1.0986301131045313,-1.074424022667684,-1.0375628082340111,-0.96307828398092
2.002002002002002,-1.0514862870329198,-1.1386034105920495,-1.0808884254719973,-1.1426243496892405,-1.0741138343715648,-1.0638058071064316,-1.0615137608577592,-1.1094442910568958,-1.1093199853718307,-1.093346317928489,-0.9990618898326059,-1.0997718887731784
2.007007007007007,-1.0765095742987985,-1.167373315755317,-1.094834977022056,-1.2034183480428304,-1.1081113242105753,-1.1517375340490228,-1.1261587838519025,-1.2733755656993184,-1.1774258491457532,-1.0678099657611035,-1.0961843337618067,-1.1376288138201627
2.012012012012012,-1.2555447604553938,-1.2353744920334528,-1.2017905259600028,-1.1926986536091104,-1.1892984121955676,-1.243738088485319,-1.1445729747791875,-1.2556220950665886,-1.1930184763437188,-1.2395890960963885,-1.2069905094600177,-1.166140278035631
2.017017017017017,-1.2814132077113198,-1.1849775641610258,-1.2726645423184093,-1.3331716740946429,-1.1827775010190043,-1.2823428239434362,-1.2581183148044268,-1.2764973122715169,-1.318244523755086,-1.3328552192953724,-1.3030948314307267,-1.2994488818491239
2.022022022022022,-1.3788955971469772,-1.351065430677378,-1.2913467409197068,-1.2565418278805551,-1.1604634571249306,-1.3439681557991343,-1.3112883413062495,-1.3044315807018598,-1.2676836483866631,-1.271572536624586,-1.296927851217084,-1.303759617499325
2.027027027027027,-1.2997628034050859,-1.3976983842870732,-1.338463131817172,-1.4141802188951187,-1.4159496086904144,-1.4114682459762748,-1.4249780236595664,-1.3623943357564474,-1.3690136996515279,-1.3694808308253292,-1.3252086981179778,-1.3542018843225898
2.032032032032032,-1.4465009685100008,-1.3503443467894485,-1.4591344845770697,-1.3582778320166082,-1.3697897042504956,-1.421985593637368,-1.3752728101536744,-1.4357967902258104,-1.3890206731206227,-1.380253063377656,-1.3981434893008213,-1.37256397430369
2.037037037037037,-1.417314590438896,-1.3987197020015407,-1.417185191768339,-1.3866485176991175,-1.4830975128373234,-1.421146560680691,-1.3969652997665232,-1.425296924627602,-1.372931776534705,-1.3460316097742757,-1.5134494522107644,-1.4129096872442761
2.042042042042042,-1.4313053761758638,-1.5406277211447263,-1.4509792458345943,-1.4725201181846914,-1.525625476335412,-1.5883958382606849,-1.5025644934962359,-1.4430835855359005,-1.4781516446484377,-1.50037875760137,-1.477690126178401,-1.4359460843262006
2.047047047047047,-1.4586922893558611,-1.581699902330973,-1.545342653743577,-1.4961506718320652,-1.5511492426671636,-1.5770960641338707,-1.5057243172332027,-1.5342023275759493,-1.421811368516448,-1.5638137008848045,-1.464194531188404,-1.5864623114557581
2.052052052052052,-1.5641364635089259,-1.523216856749297,-1.5171086141632093,-1.5399102621862713,-1.5047818597126013,-1.4516094809212174,-1.6152489897304787,-1.5457291483708897,-1.4660921192866452,-1.5597837143671065,-1.5616588543918215,-1.549060350277292
2.057057057057057,-1.5965799813335468,-1.6424249528186654,-1.6546067642265117,-1.6876788494275186,-1.515467139109328,-1.6699298911647107,-1.5550140280529103,-1.6291587520680402,-1.6369686718317122,-1.6041949307032202,-1.5847557140796056,-1.620530952369092
2.062062062062062,-1.6508507440532079,-1.5855667398307327,-1.6526369805537533,-1.6922251718321841,-1.6303859824741707,-1.6491553037702475,-1.6898103214144775,-1.6908749097790192,-1.6719366589501907,-1.694987404996014,-1.7033091890802596,-1.5853113811427757
2.067067067067067,-1.665987079613806,-1.5440882505873588,-1.7070227261346487,-1.6049717959841552,-1.6972355283407996,-1.5765520539583917,-1.6885038432249189,-1.6041201790950976,-1.7397761922423405,-1.6766900513000143,-1.7241247080757205,-1.7154347374417418
2.0720720720720722,-1.702725824510686,-1.688771908304934,-1.7141091078224613,-1.624872623525185,-1.7116478606429903,-1.7129725873753059,-1.7685348721324605,-1.741464309654873,-1.6378716226050596,-1.6899430318362045,-1.7324594317959665,-1.6422904264228557
2.0770770770770772,-1.8090075633249332,-1.7933697985993704,-1.6587577143123822,-1.7034061060468086,-1.7930630849165654,-1.6895105971771376,-1.638218100439617,-1.6505927992549632,-1.782701781385801,-1.6864989971331794,-1.764635337543988,-1.7359426590626006
2.0820820820820822,-1.7583743073120661,-1.7278548745304625,-1.671449406803456,-1.7167140222897264,-1.7607977193771964,-1.8233149530843544,-1.7712240335794005,-1.614327425603697,-1.7863399990188364,-1.7996462177138597,-1.6552395578781023,-1.753881871852227
2.0870870870870872,-1.7179075536560064,-1.7894803169126596,-1.8300608146298563,-1.7136260037415705,-1.7888265009210653,-1.8308202528885282,-1.8235614409885366,-1.77813693579723,-1.7301036997848123,-1.7327262139160213,-1.6779938258079343,-1.6965761523776228
2.0920920920920922,-1.833846876461103,-1.7949245885220004,-1.6771374057532935,-1.729042612077438,-1.7140881070899645,-1.7363367685963211,-1.8433789901985855,-1.7507793874957263,-1.784622430344579,-1.8116852218284087,-1.776294705807717,-1.803246716226864
2.0970970970970972,-1.799402535927482,-1.7465378902186597,-1.7515592988533146,-1.8519202367291998,-1.7207326217568844,-1.792349065677751,-1.8318784858906905,-1.8511842739072817,-1.7197809468920098,-1.8171003021050114,-1.694510245682025,-1.7853185512940577
2.1021021021021022,-1.8435658190194668,-1.8089609152663912,-1.839906430903034,-1.9094144606575818,-1.723264087523817,-1.8183014617851507,-1.7220386692333096,-1.7899966483194394,-1.7768096576890835,-1.8420355266406134,-1.8240821484821668,-1.8499159684321795
2.1071071071071072,-1.682421340269292,-1.786371830038943,-1.7158255236279694,-1.8861451179396467,-1.780736604839492,-1.7882391269717526,-1.7865576770696685,-1.74763254397017,-1.8051479247359328,-1.8038973665634257,-1.8152877150218816,-1.8386447825211218
2.1121121121121122,-1.8265460262805928,-1.8251956547556853,-1.7876610263937647,-1.7734998709144991,-1.7668941137956662,-1.7774716220164863,-1.7239773072718796,-1.8345587070778955,-1.8614172504847175,-1.8618884959754998,-1.8263942772609765,-1.7436568414766689
2.1171171171171173,-1.73145438937888,-1.7693729297131815,-1.7931397437006336,-1.7753048401624478,-1.782091485705428,-1.7086378550774457,-1.8147408223195405,-1.7902281557976951,-1.8220045237353595,-1.7392997453747978,-1.7865501482214576,-1.7713379060320402
2.1221221221221223,-1.831218472952334,-1.8061161380837933,-1.7757483138226509,-1.876032843103722,-1.8090781438705692,-1.8451908380646511,-1.8076612558556204,-1.8109214088534993,-1.8296260259711163,-1.738808871069627,-1.7678688039429338,-1.7978291667575605
2.1271271271271273,-1.8510181416344376,-1.7442264313366098,-1.7937186294576548,-1.7813492395907202,-1.8043286941843526,-1.8136090936746678,-1.8194383380294605,-1.8321945942021254,-1.8366593716553457,-1.8721063379043208,-1.7836473334423983,-1.8336326691068847
2.1321321321321323,-1.8262501758132648,-1.6918318000176564,-1.7764733971721767,-1.8859989490510582,-1.652194454864141,-1.7888888701672971,-1.7154606153215985,-1.7579925507978773,-1.8291190134287985,-1.7809084524557588,-1.762473044182822,-1.6875682223598545
2.1371371371371373,-1.7989575691769875,-1.7295929874950262,-1.7565318634614389,-1.7589657529379887,-1.7216155049695137,-1.8674834541844403,-1.7857805109481086,-1.8097233145956342,-1.7550174094071938,-1.7912681974720746,-1.818969166004893,-1.692233052880358
2.1421421421421423,-1.801460428526877,-1.7164272582992397,-1.8238816111191831,-1.8207805854539256,-1.6966494299365404,-1.758505918244366,-1.7141915070359426,-1.839529220409828,-1.7186803792767957,-1.7765545830115308,-1.754394865096083,-1.751103210530049
2.1471471471471473,-1.8988408949870381,-1.7539466981291376,-1.7334625859915136,-1.6613826338700912,-1.701418973543574,-1.6562809158509304,-1.686287165863077,-1.68288780925922,-1.7715948625965532,-1.756843524979615,-1.683198856125986,-1.663668830950076
2.1521521521521523,-1.6913744009841065,-1.6555780318537494,-1.7795186882189742,-1.8220827150643564,-1.663733992926533,-1.7993703711196019,-1.6739569026757635,-1.7522938525744567,-1.7943091694075162,-1.771836783041893,-1.713799090947888,-1.6919885559505148
2.1571571571571573,-1.6419250281360263,-1.6410897393503532,-1.6310010001377018,-1.632295130670628,-1.7073501378544904,-1.7183206009952379,-1.6719403884665713,-1.72134973046301,-1.8161263362228626,-1.7383652922637105,-1.6133526992346705,-1.717216352900023
2.1621621621621623,-1.7157099142590566,-1.713950547704324,-1.6910292924471622,-1.7000119360648136,-1.6683732306282748,-1.68817514900066,-1.7010477211352568,-1.6502996776745817,-1.7233388457846295,-1.6604895104130475,-1.7122794598883884,-1.6725349113432435
2.1671671671671673,-1.5449506944189624,-1.6991625463434537,-1.6550046130449634,-1.6230087810832456,-1.629735290126464,-1.6767326953573265,-1.6452064585607797,-1.6411374284970603,-1.6676430485145652,-1.640134831390384,-1.7054156886942629,-1.6686557545330307
2.1721721721721723,-1.6922870365379181,-1.5323548177887742,-1.5370031374294095,-1.5708081037979136,-1.7371569574062802,-1.617321527866037,-1.6608432264225832,-1.5574360880690454,-1.6001610756757765,-1.6585675750646856,-1.6827770238736346,-1.5578394238044748
2.1771771771771773,-1.6344586297226966,-1.552081692313755,-1.620774265870003,-1.6431025237290697,-1.571782490089544,-1.5971843304130058,-1.6393226027161856,-1.5503483100238171,-1.5893281483387502,-1.5384484990074687,-1.5659820792279664,-1.6340582488428215
2.1821821821821823,-1.60368085803766,-1.5773730925545237,-1.5764158283985041,-1.5608203798680422,-1.5480802991320952,-1.568873121823201,-1.6103980134472256,-1.655206593614387,-1.7082745667249273,-1.5357820238528905,-1.490903790700985,-1.4897704379355055
2.1871871871871873,-1.489995445782159,-1.4436501531924064,-1.4743703943035764,-1.4973776664346081,-1.5604645917687916,-1.5108328072382498,-1.565631124018982,-1.5171632405469477,-1.440733140977928,-1.5025897236669268,-1.492066050330549,-1.6100181105780544
2.1921921921921923,-1.4351636059056914,-1.405617433627504,-1.3884195266033414,-1.4139802591591468,-1.4797483408237662,-1.4759824634668162,-1.4474622494105673,-1.465478638963585,-1.4117964277193886,-1.4134462191266723,-1.51370259414492,-1.5309584484456442
2.1971971971971973,-1.327067523303954,-1.4180845707406662,-1.4160574933116663,-1.3753869210714762,-1.4229310934983932,-1.4234989100910322,-1.3664771007768863,-1.3720093952405779,-1.4620976852163063,-1.389616449900996,-1.3978645171389412,-1.4331943921720105
2.2022022022022023,-1.407131701665059,-1.3234714316814582,-1.3786197412410715,-1.272449749682754,-1.2920954679473817,-1.4051242242958275,-1.501406244644166,-1.389555400144847,-1.3967940481146106,-1.332875317948583,-1.4208539538298621,-1.2631500463359124
2.2072072072072073,-1.3241531883677977,-1.299905490211191,-1.4184141970441408,-1.3937424376184546,-1.3621391256317141,-1.34800461960381,-1.3653122351952995,-1.3703536773986962,-1.2785498287604598,-1.3844707932317653,-1.3263808509962296,-1.311933194101629
2.2122122122122123,-1.3076423584457857,-1.2762857008761408,-1.2742887593544816,-1.2397091526492376,-1.290326215141402,-1.203014430114986,-1.222649671771148,-1.31965615718856,-1.258629727257785,-1.2078651078106515,-1.1977400880500375,-1.2526780711304522
2.2172172172172173,-1.2389404242394428,-1.2741269475341481,-1.2399175137102723,-1.253932547161825,-1.2468655631153238,-1.1811459197941743,-1.1812057581055733,-1.1745945507282156,-1.2341555039417098,-1.30714720292305,-1.2302174590269672,-1.2030151104732365
2.2222222222222223,-1.1225223517543998,-1.1229325814576172,-1.109812659772535,-1.1473574985325647,-1.1504869062021623,-1.091011709485171,-1.1613996520773007,-1.1701224117944062,-1.2158377001752962,-1.1011093255321611,-1.1155659145837078,-1.1884321866184373
2.2272272272272273,-1.027933070519912,-1.0835974686369427,-1.0474739628581062,-1.1187829314851916,-1.0984324452263994,-1.0971515079149377,-1.0835921672085023,-1.1321562944508474,-1.1585214481860848,-1.2263871844520415,-1.0008673649522672,-1.0132277679582555
2.2322322322322323,-1.0634390747115618,-1.0476534516973244,-1.0448360963669576,-1.033041543363207,-0.9856262496418084,-1.1082745302047188,-1.0152289756541792,-1.0478589940529142,-1.032118537489161,-1.0366077674544474,-0.9668987854080898,-1.0362605276599646
2.2372372372372373,-1.0098282289775478,-0.9915423087763777,-0.9865427131713765,-0.9865701848212725,-1.064789593365101,-0.9068440833668436,-1.0204036764127582,-0.9799774342014128,-0.9064590568286733,-0.9880307347012333,-0.9358062545710505,-0.9800284705955188
2.2422422422422423,-0.86641870106604,-0.89052592554846,-0.9395095621718924,-0.8948438309604101,-0.8977869578799846,-0.9741148398498253,-0.8898502364161337,-0.9403001069309788,-0.8224990497222999,-1.037482358818406,-0.8865336085995723,-0.760831710774792
2.2472472472472473,-0.8730428542502029,-0.8091882048236226,-0.8424514422514329,-0.9000445682796354,-0.8756925785172008,-0.8694763178828917,-0.9242705037687697,-0.840784756518828,-0.8276122159028045,-0.8743716779609266,-0.838291896066923,-0.8494289037719706
2.2522522522522523,-0.7977174001664581,-0.8644432058033382,-0.7370390114657174,-0.7705190751787635,-0.8011483787232371,-0.7349778531846908,-0.780675118042471,-0.8346513052495494,-0.7294977846817411,-0.8100885081151405,-0.7670117292007528,-0.7648893860279148
2.2572572572572573,-0.8644616097293054,-0.6896315777540832,-0.7404710017052252,-0.7215105615577058,-0.744457815856779,-0.6735790064453582,-0.7785069710253036,-0.7451336190185823,-0.6521548652904908,-0.7646013682801096,-0.7497377026134396,-0.7497805516033846
2.2622622622622623,-0.5875046954688989,-0.6418572846100986,-0.5357838154087919,-0.6952459743460889,-0.7214800435767154,-0.6358116800708778,-0.6837948598863494,-0.683578288131719,-0.7133493241591535,-0.6467113558707805,-0.7376988076354762,-0.6431184267004727
2.2672672672672673,-0.5544320912270388,-0.6234162896692191,-0.5871392048462719,-0.5583313597835656,-0.5744694827956625,-0.6406280216142777,-0.5926600433331016,-0.6528941536596226,-0.6370648794365394,-0.5533908437124001,-0.5665073769504909,-0.6254494346603846
2.2722722722722724,-0.4771955774775015,-0.45776783925922476,-0.493711933037962,-0.5122801480446783,-0.4550982069309191,-0.5266649286324243,-0.5611948102528224,-0.4147007683203947,-0.5174064345147017,-0.48830869508153246,-0.46365247470358445,-0.5215975056873505
2.2772772772772774,-0.3902336139350522,-0.48565716342486975,-0.4834450009332799,-0.4598165777187155,-0.4740391083025958,-0.5088230566382186,-0.4692229456192006,-0.33940115346478333,-0.5042281006410276,-0.41487340733004846,-0.4951963484559272,-0.4220594299628204
2.2822822822822824,-0.35837982684033703,-0.41375835723780663,-0.392646412349688,-0.39213583060963153,-0.37712036816371564,-0.2819388903942725,-0.3507226461033598,-0.37786772535214935,-0.35649914704380165,-0.3879357123542634,-0.3422530940653741,-0.33539408458081693
2.2872872872872874,-0.3295381796381129,-0.2856454314173522,-0.2518089677132983,-0.28790215619812526,-0.29238764856791216,-0.2748363732528323,-0.3313174195739068,-0.32320982000159965,-0.35600022160462874,-0.37531823348364124,-0.3389104768881855,-0.4071593901954751
2.2922922922922924,-0.24828448630497318,-0.2585935704107446,-0.3508279004049488,-0.19524611052867408,-0.1510657074234732,-0.2992611972307573,-0.1787678789263526,-0.18636457543399768,-0.2707062236690905,-0.20900067467508543,-0.25114676308176115,-0.2863385005299703
2.2972972972972974,-0.10079401804143703,-0.06154826453781695,-0.12669877806147584,-0.13607449565951235,-0.28616297950846514,-0.1899535170142128,-0.2073572425850349,-0.1712058562685967,-0.0070091640486556195,-0.14903248255472054,-0.20511923677554095,-0.08858817534925097
2.3023023023023024,-0.12829489375437125,-0.09045628243515379,-0.07011033435325549,-0.1409379251898127,-0.04215065945705145,-0.10393874982499354,-0.10576098055223845,-0.12458663709887037,-0.010741975414287758,-0.010006841421807314,-0.11286188084283674,-0.016553118349724893
2.3073073073073074,-0.03209920543001884,-0.020218055543744253,0.004605944114840256,-0.007341838290792926,-0.050417884321237644,0.012433227103275789,0.0596372582455201,0.010603624452310126,0.03976020189773222,-0.03488508598384382,-0.033948618100945946,-0.005262456795111007
2.3123123123123124,0.02157805610287851,0.11473837923240485,0.09864876588322469,-0.01264618737266382,-0.03853676155138054,-0.010227371579648911,0.027394739129502278,0.0637423017741316,0.06766181763911133,0.14137854911697287,0.18481517305817247,0.07324537382415966
2.3173173173173174,0.16491743800176542,0.1304527067527441,0.09501745223625915,0.23327010121316724,0.05216021277471061,0.26858123156058816,0.26609974089576216,0.11227850286188956,0.12015486430455324,0.1246415827937469,0.20574450940846706,0.2888112908108268
2.3223223223223224,0.21987109591952897,0.2204914412810564,0.17633739897908965,0.2101885610288333,0.23270685942932173,0.16769100352337143,0.28550694052507364,0.17973091044313766,0.218862840656641,0.2210872316422044,0.1753681517869475,0.23173416422369558
2.3273273273273274,0.2899086575205738,0.26966136163186777,0.2807533458216913,0.3221614957833128,0.2978137266071776,0.28564222650811866,0.2798006931704712,0.317162389319545,0.3254052385803714,0.3189600252785173,0.327940786893329,0.24378781204938868
2.3323323323323324,0.44618720226933967,0.3807090597819042,0.3521698144108283,0.3943506270933827,0.4090033471866199,0.37938496758946466,0.359228562346625,0.3798589875644267,0.2600299215266867,0.4225956860704657,0.38646157092530925,0.252122270801302
2.3373373373373374,0.5117198862493448,0.43189453224927216,0.390761608986936,0.40469097991261715,0.42955062024581026,0.3323962165245047,0.412100905980043,0.42767493932019024,0.4652467460613594,0.38608981923352137,0.33421496724852673,0.41684745852659466
2.3423423423423424,0.5273433086280518,0.5199073627964274,0.5349994624053214,0.5257025059868179,0.48733575197568213,0.497507433289495,0.461405799946629,0.5035509603407337,0.5163979487668522,0.45180173043366306,0.4615035333011102,0.5308841521706773
2.3473473473473474,0.5744605134316709,0.6242603658816425,0.6703310690811392,0.5261287727713941,0.48452622825703556,0.5715565716372444,0.5681363437215042,0.6475830883281302,0.6281626801498117,0.5217457846930073,0.5844230437431226,0.5558993927512963
2.3523523523523524,0.7049194306518205,0.6258135400454117,0.6540320206224998,0.5876604037440348,0.6589639652570732,0.6160116289657865,0.6162700937725126,0.6357419269924832,0.6043957411077622,0.6650468144825505,0.6804819840717323,0.7134663866840968
2.3573573573573574,0.7477065992970943,0.7077141018762793,0.705759780404986,0.757542279632458,0.7758250231081228,0.7533826344942297,0.7437145942164869,0.7520717944658468,0.7834153912916769,0.6964755840820014,0.6780721601366042,0.6126373434981114
2.3623623623623624,0.7445275701961571,0.7900935245528843,0.8405926861037795,0.8599034321636716,0.7562815555434016,0.782838206488093,0.7823511961566231,0.6828915221599033,0.7171250951119984,0.8030090665569893,0.8379513617696569,0.7462123219552055
2.3673673673673674,0.8376498688485288,0.8163961210485475,0.8594124720849775,0.8302828246070264,0.8538046383056397,0.9100918292984284,0.8068040656945568,0.9093610167856037,0.8725636063118006,0.9142404671671607,0.815692796499972,0.8367184845669733
2.3723723723723724,0.9190571656186113,0.8850271678404704,0.9700763797479128,0.9230917480910847,0.8422352112119078,0.9363305419361321,0.9489927041936584,0.9037318972093094,0.9108149588481818,0.9436194404519743,0.9454936906440148,0.8795926188374364
