time,lead1,lead2,lead3,lead4,lead5,lead6,lead7,lead8,lead9,lead10,lead11,lead12
0.0,0.07505644721298672,-0.017764837649408838,-0.11065364381170842,0.06919037605184054,-0.06199624387269749,-0.006297235694358829,-0.05036810179235447,-0.07176701512023595,-0.006974271381298113,0.07992376091245683,0.054896854419782405,-0.033110007980489485
0.005005005005005005,0.19514367915835243,0.15300132568608898,0.1701815090508112,0.23083331342137844,0.2283388430918903,0.24269840961153635,0.2595484325577151,0.15810737720200557,0.14948706071816875,0.19463659782005546,0.17776574890817748,0.18633260751377775
0.01001001001001001,0.327422958566937,0.24393669872098375,0.3042596787557145,0.2768947855263023,0.25109510183452743,0.2626868769350523,0.3167864519474046,0.23072341632169652,0.3228887129925997,0.3379303254147724,0.3791478985479017,0.29626098926814315
0.015015015015015015,0.31358392283698905,0.3168167701295263,0.3454428583619874,0.3329821525445042,0.36385395219019473,0.23766641837324548,0.31524833433649235,0.3851966501075525,0.37879114451701296,0.37107987174173945,0.3891410407031757,0.4144004193889491
0.02002002002002002,0.43400150120468933,0.37091637459240456,0.4715647628045835,0.30042358230818694,0.46551627560480785,0.4636788554440293,0.35765331853968085,0.45383585206417426,0.30976111332271006,0.47380895397301936,0.3636524393990745,0.3774175149329484
0.025025025025025023,0.5229112141620725,0.36967568650641097,0.4763370357136856,0.5416794521957293,0.50823601008618,0.4827237649133766,0.5519053127081246,0.5450536630127646,0.4270660655958784,0.45417403962990055,0.4756950723614022,0.41101965309138877
0.03003003003003003,0.5156883248778501,0.5880608707278662,0.46620751784351333,0.5232191462778004,0.49874608977584617,0.43145377514134897,0.4068246881884734,0.4178569510488007,0.4838027720410014,0.48396934189303575,0.48447059926417857,0.5460127843224127
0.035035035035035036,0.5493649029902029,0.5725296459565745,0.5035906921671053,0.5183002124214707,0.6060506985625645,0.5443534601975014,0.48269958322621265,0.5931407884055608,0.5456816225391725,0.5111516672497931,0.5632470073342335,0.5857902316565475
0.04004004004004004,0.542067842792166,0.5544148302370219,0.6633535537811798,0.6197378342126278,0.5995043394747721,0.5772280474296557,0.5835410736952324,0.5012373244156442,0.622331642449342,0.49934818945981857,0.5256022068103559,0.5014872111933819
0.04504504504504504,0.5173414619999297,0.6446523064921328,0.5097228685485148,0.6024596148873099,0.6168393625925341,0.6044996976152447,0.5679621777870042,0.6201538527940292,0.5740357958170725,0.567644352666725,0.5707289728623893,0.58941754603635
0.050050050050050046,0.7025986576796927,0.7251048558972535,0.6443836388782707,0.6695032485587806,0.6935534246860995,0.6111361267246236,0.5663851705856389,0.6422955984578137,0.6196122256139118,0.7697580667887927,0.7145003614173883,0.619095320414431
0.055055055055055056,0.7266970277871081,0.5878882189704367,0.7161764491859688,0.6741266383965253,0.6209812005459676,0.6916964837623736,0.6936913683473662,0.6905377702328351,0.6713319836495464,0.6600070709443328,0.6543987632741881,0.5920120757797653
0.06006006006006006,0.6811119022600154,0.67783752958519,0.7203550342385958,0.7184564128092029,0.7128894456581467,0.7443006625966834,0.730749401683946,0.7480889149845698,0.7644285720741326,0.722491687450473,0.678870441578529,0.7530880223908643
0.06506506506506507,0.7669631702085472,0.7255889443429989,0.6515455842209636,0.6340930399409133,0.7028988503718657,0.7749168090168521,0.5926886130166782,0.6669093565123816,0.6816755178697869,0.7664083891356619,0.6386139803508961,0.7065557120777174
0.07007007007007007,0.7712870017837647,0.7165649775791417,0.8489966393898547,0.7664418152069504,0.7732117097218436,0.7029309901499553,0.7091122612182492,0.7946939524381395,0.739484665218046,0.6496860066037116,0.73886512405406,0.7066230541298757
0.07507507507507508,0.7298132911899107,0.7451199385408633,0.7313739991103473,0.793798075486584,0.7045368257679898,0.775658219689682,0.6526212759492205,0.786228433484571,0.6788138347288809,0.6658396224452836,0.7462275634548673,0.7307708689461636
0.08008008008008008,0.7437483608128971,0.8550469370782103,0.7618659099102012,0.7642345890538055,0.8043557966453603,0.8769348418286178,0.7484554173437938,0.777143134398247,0.7505119960936997,0.8189524607020707,0.7451105610841224,0.8816993940986204
0.08508508508508508,0.7951501310341094,0.8233721274773038,0.877132957528926,0.7884747948862467,0.8368851607298029,0.7738326539694986,0.8369073587385552,0.8242976679832869,0.919559761309265,0.777270016469117,0.8349461036621985,0.7524505261302258
0.09009009009009009,0.8439313555696561,0.7806244019260299,0.8141019744589931,0.841119494375656,0.7572636293954842,0.7176531549182323,0.7652469890659528,0.8465641757191855,0.7792852001930275,0.8129377369158786,0.8810618389606422,0.9132739588788298
0.09509509509509509,0.8038288812064263,0.8098905631850369,0.9420251703910303,0.8843760803405956,0.8012594050044206,0.7860937683986549,0.8205740817012307,0.7684543428919928,0.7823526202965939,0.831636140992742,0.8584437177614053,0.7388422349386775
0.10010010010010009,0.9087985231774173,0.9682381302655101,0.8854385383157474,0.7143603217322345,0.931878513463026,0.9165605063605424,0.7989213669652576,0.9054336435499267,0.9327292946021206,0.8697774297674589,0.7948865571902415,0.8573424379182637
0.10510510510510511,0.9336503556290263,0.8152518151340469,0.9360309765879629,0.9367746123142143,0.7815370090876266,0.8089769393241351,0.8619991977124194,0.8932656742846432,0.8157921468778566,0.7865421913388908,0.9013834224498876,0.9030867598724795
0.11011011011011011,0.9868275452469667,0.8727994710147045,0.8810471083537497,0.981830188488469,0.8850913753375758,0.9309324392509605,0.8920716465502239,0.951624330347514,0.9249251447649903,0.9434834954922376,0.8486079918998708,1.0238213228265147
0.11511511511511512,0.9094075357786058,0.840795177885778,0.8723063157386131,0.8711547326172232,0.9169606347322428,0.9113856199934287,0.8970677264576685,0.9500192585499072,0.896303850804995,0.8911874880081977,0.9729754838688857,0.875731260490096
0.12012012012012012,0.8981849228829313,0.9169296546237142,0.8529695113354809,0.9867601903890012,0.9078023078134384,0.8600627606918136,0.9163457124634936,0.8861335946143152,0.8725660564675892,1.0103283020205729,0.9076058808306859,0.8957409658829848
0.12512512512512514,0.8519827401992721,0.9299368197431677,0.9471877639616242,0.9152985470263859,0.9259027577739094,0.945977409274402,0.8499094975948438,0.9575634588979178,0.8874454486018534,0.9692370158808449,0.8950709766100982,0.94231613036684
0.13013013013013014,1.0285909051736122,0.9902454361102319,0.9299724078602334,0.92164546326452,0.9242056288004602,0.9305641431597743,0.9162453962901954,0.9668699328337192,0.8768951345345078,0.8921245616580624,0.8898033055317093,1.0163912923097227
0.13513513513513514,0.8684739858596323,0.9064922587568686,0.9779878691354786,0.9862563361314929,0.879110875400794,0.9555698299178527,0.9163475534940269,0.9785176344020795,0.9881095347407752,1.030695173749774,0.9527888874601063,0.9409774838843875
0.14014014014014015,0.9669552241344952,0.9849967692500899,0.8855983882625329,0.9378850667530518,1.0064017473966658,1.065973729424162,1.0190236286868117,0.8991166946860617,0.9809437320595525,1.0023005424475224,0.9359392275756222,0.9853040995645923
0.14514514514514515,0.939090769324334,0.9422595252119528,0.9251557321711014,0.9050339149086781,0.9293551572950076,0.9531269800149476,0.9923932919032884,0.9452943085978968,0.8636618285820202,1.0304932182527597,1.0193813434241665,1.0392124230025601
0.15015015015015015,1.0355817006414436,0.9935767762617197,0.9584720203818694,0.9757036532818191,0.9223480096070644,0.9564040192698381,0.9467697310403365,0.9577008359635599,0.866803236658299,1.0383707236400157,0.9552987315779963,0.8651910641774858
0.15515515515515516,0.9161324911374695,0.9759589139061611,0.9170386857625602,1.0046555690124628,0.8798010939123972,1.0186845903299204,1.0366676453662673,0.9781564421157938,1.03596239627411,1.0022641920927104,0.8900390590718928,1.0803939946143857
0.16016016016016016,1.0199223781191933,0.9407188920535625,1.0049032946632872,0.9640717645148584,0.992476804015573,0.9882646298389651,0.941459747190567,1.1070191419193212,0.9769635935517104,1.0509117571036444,0.9850913301349513,1.0098026698157019
0.16516516516516516,1.0008318545633812,1.0166034949218148,1.0745714728639735,0.9705349520700823,0.9705077716494871,1.0322202491040873,1.0248948290130457,0.9405104374280973,1.0067963340867583,1.0061601173628998,1.0540664074712864,1.0215738732596533
0.17017017017017017,0.9895007978579483,0.985370951377272,0.9494430611292147,0.9450764321164898,0.9479256851930553,1.082750641890381,1.015570733497356,1.004582174689964,1.052652261755697,0.9963631164416993,0.917475376301696,0.9586756274971603
0.17517517517517517,1.0305719523419141,0.9530479279659474,0.9919998048364448,1.0322921011460915,1.0060639018534019,1.0264560449918323,0.9120849411061157,1.0188869484014687,0.9905696431557323,0.988794167785435,0.9804710406389517,0.9387364559803423
0.18018018018018017,0.9525049044378899,0.9731679147614986,1.0242722579054049,1.0258314575093834,0.9586334943278236,1.0607936882899958,1.0763398499466188,1.037294830830437,0.9840204118870494,1.0077244117848265,0.9766363336009994,0.9257222267193987
0.18518518518518517,0.955267720648946,0.8983573620208382,1.1094431238491524,0.9810590501159951,1.0112089898284424,0.9352532120583578,0.9412627700354348,0.9714024380304753,0.9870605846318989,0.9253254567969761,1.0269069050708244,1.0289595014848094
0.19019019019019018,1.0350724051675926,1.125897005331138,0.9671929944057731,1.0102219142102158,1.002861465004033,1.0161091969635816,0.9675456660466821,0.9543885229558822,0.941599825504831,0.9670155967488843,1.0486880479044403,1.0836833463275561
0.19519519519519518,1.028781908672746,0.9402867491021448,0.9700790966518134,1.0121818649888317,1.001790474778399,0.9792652872473855,1.0447869855845355,1.0357472488494646,0.9879272075291353,0.9792187471770007,0.9957101868043708,0.901863141449589
0.20020020020020018,1.0331020839062814,0.9959752495136587,1.011362936069499,0.9450904436924534,0.9889645822547393,0.8817493668195642,1.0868628193099377,0.9722266208045482,0.9719895527356965,1.0339117744180797,0.9389814795022116,1.0652995793181268
0.20520520520520522,1.0048283170695655,0.9514981496066851,1.0233909191749835,1.0177932376137206,0.9479095723799458,1.0193194362112599,1.011938454590947,1.0014286655016635,1.0002917954108257,0.9525587498810089,0.990641778172548,1.0757880532956106
0.21021021021021022,0.9401378572326604,1.0261321579664378,1.0141097228444051,1.0044226071725861,0.9924075089708159,0.9635622129847847,1.0729403899539065,1.0045303982012284,0.9638761606015476,0.9781336895770747,0.9265232774769663,0.9509809042810247
0.21521521521521522,1.0443584512518411,0.9758265243935107,1.0039997170684825,1.0037229740779492,0.9530922194197926,0.954166047901037,1.0247567627805658,0.9599287616798902,1.0341639195218457,1.0560375017322081,0.9856260758285943,1.0385819283806927
0.22022022022022023,1.0564523282782619,1.034014525835543,1.004501624215446,1.047238807202446,1.028371461359194,0.9491768182589699,1.0190854974217562,0.9322041817220894,1.058668550562701,1.0025469058362702,0.9195365295798908,0.9434786412200747
0.22522522522522523,0.8976979930651252,1.028802452295452,0.9303202972302621,0.9176421016325531,0.9690426969477243,0.9615997080739537,1.0072468964075716,0.9089571106494223,1.0055330762717103,0.9065779489574404,0.9793288366905438,0.9854841071730996
0.23023023023023023,1.0798153743650356,1.0263885627578138,1.0384724351749666,1.0105538873950926,0.9758052608442761,0.860763492585817,0.9374743844802309,1.0012842602202074,0.9414388002365179,0.9398524787734841,0.9743340266386015,0.8958214999046401
0.23523523523523523,0.997544480475354,0.9086887226420379,0.9915070132182983,0.9297569082028251,1.032952003912411,0.9171687472982898,0.9739339996119972,0.9314500317907661,1.0232516210896156,0.9814943537839014,1.0222733147283556,0.9405642444784554
0.24024024024024024,1.0128271535956357,0.8968270663585115,0.9910340753752319,1.0544388164900333,0.9203288149520231,0.9315214116988909,0.9489602668157721,0.9743314303833822,1.0105132912935513,1.0104954940322488,0.9643331541927272,1.0090675502140944
0.24524524524524524,0.8868465120090873,0.8946607768859656,0.881377663931667,0.9593934093804051,0.9086672533425886,0.9467547833569587,0.9704486585743368,0.9614967115706214,0.8982959035550043,0.9197439520556392,0.9952976647931755,0.9660322450879641
0.2502502502502503,0.9888867754409032,0.9704380341947838,1.026116700624337,0.9354657710398917,0.969785929730915,0.9409857837684296,0.8490987423604783,0.9189317236226193,0.8678568317706508,1.0018711146487191,0.9632676875725991,0.9257428143982405
0.2552552552552553,0.8995602894434267,0.9663526502086422,0.9784953076070058,0.9521483368495463,0.9340169878242303,0.9257529578163887,0.9215095064129407,0.9918638394260222,0.9213887067038657,0.9161426481567571,0.9448742913564864,1.024195461141101
0.2602602602602603,0.9789999107127731,0.9187011395482473,0.9800301655405365,0.9190426394415427,0.890252667886031,0.9271267938225757,0.9629909342248474,0.9533448347091974,0.9612413887075824,0.8751460382516191,0.9232013695174327,0.9739294799171931
0.2652652652652653,0.9811303147352202,0.880613698379044,0.8925227784514308,0.859673036521586,0.8964125682644929,0.8779094344965883,0.9073203533113152,0.8769944748085415,0.8087356021510324,0.9162096330499361,0.8500213904739522,0.9224786596581783
0.2702702702702703,0.9289728242336082,0.8934046243300738,0.8810661551363105,0.8966744374713448,0.8933060107178716,0.8931854875249077,0.902855474638736,0.9585395912243186,0.8492159111174106,0.85846101583575,0.8712213272923113,0.8470759642163692
0.2752752752752753,0.8284702488862781,0.8861308681568758,0.9021633409872548,0.9660019067274862,0.8379233823514043,0.9209752204376838,0.8330715825861694,0.8316694101112727,0.8696377657779932,0.8535436064917251,0.8088800768639243,0.8857741888904136
0.2802802802802803,0.877418134844026,0.8775069335960564,0.8465757517169303,0.8314129275759543,0.8311455153717093,0.8771556859632406,0.8789930970537269,0.8150442669127268,0.8506535269781278,0.9226881917176162,0.9112026181691602,0.89975918588308
0.2852852852852853,0.8969671364112278,0.7528478169527819,0.8697074595355769,0.8115943918505433,0.7698226476897346,0.8432679309887168,0.8863777773791469,0.8617847365502807,0.8561992807961636,0.8492523004839267,0.880560930718917,0.9236817872191492
0.2902902902902903,0.8747837290192256,0.8727448124634097,0.8753962163779014,0.8757558970902384,0.8149041697285937,0.8997140067263045,0.8513643601756253,0.8380418475591151,0.8709127492022992,0.7926206336465893,0.904504766376035,0.7528876089167333
0.2952952952952953,0.7684145691487473,0.8298098037718411,0.8420312848054398,0.8978357953301437,0.793061739159777,0.830392304600925,0.8278080252127119,0.7740535263367556,0.8631619598736541,0.8613857032300328,0.7695179778649446,0.8435888279394324
0.3003003003003003,0.783443714750445,0.7209928547180577,0.8309253414590693,0.8095475292063937,0.8113232713594041,0.623177177400978,0.8375738289104825,0.8308554977859258,0.7557810993816286,0.7712509793391199,0.806653708832867,0.8077654007995658
0.3053053053053053,0.8395021442172561,0.6920407215761508,0.8132192234044164,0.7669464905033029,0.758062450725103,0.8025049655650611,0.8207898945177762,0.7345992181180622,0.8331318616182477,0.6810597038265083,0.7687802183784427,0.8428993131791154
0.3103103103103103,0.7102910677254881,0.71480669236871,0.6837286179694797,0.7107321738826499,0.7282238108477841,0.6668573659321283,0.6571659183937759,0.7197772660436501,0.7602591868215066,0.7182611484796746,0.7413176080561386,0.7673320886895606
0.3153153153153153,0.7632254505796594,0.7880369809954956,0.7053186019040415,0.8294959593947154,0.7844856767862416,0.7844136167377258,0.8036156604509234,0.8040706679105729,0.7507743584016227,0.6883865470677841,0.821131658320458,0.686394435309911
0.3203203203203203,0.7031088894693664,0.7351693129400402,0.7209575801047922,0.6702963180857687,0.6507674839300799,0.7373093527942823,0.7150095768238888,0.703792960268626,0.7575063506544896,0.7224462836759288,0.7049564755238651,0.5794714425030032
0.3253253253253253,0.6607766904614982,0.6422885407095502,0.6572099722862788,0.8192762383745852,0.7303131589249405,0.6475555711940227,0.7599355370789126,0.6844587012328712,0.7010554697413813,0.6681389046926826,0.7354370015638785,0.6728633919939461
0.3303303303303303,0.6731142540889626,0.6161460754581083,0.6888562290172731,0.6597711095829634,0.6974299395618401,0.7006856946835595,0.6398829883379606,0.640269927088115,0.621277012797635,0.6333851170665273,0.6336441838513046,0.6610545731332503
0.3353353353353353,0.6019469351684942,0.6731066312790082,0.6643721604681854,0.6042405251002423,0.6586732130720806,0.6487847750792697,0.5964466402872715,0.6840515742115989,0.5599825451844859,0.6395750395514418,0.6451380579098012,0.6344191176376345
0.34034034034034033,0.6017122394978105,0.5759125124416551,0.5893709452627799,0.6198246275482291,0.5950234233960572,0.5237517703946808,0.6120857905092426,0.5749141754920158,0.5815432275101753,0.7015284813439417,0.5834144739029091,0.5728130700175068
0.34534534534534533,0.5404470376455347,0.49597007984309527,0.6330270953639467,0.6951567433972606,0.4822412923785909,0.5161389355876154,0.601459900552232,0.47363034342662275,0.48239665385115255,0.5768446247969014,0.5543107270066243,0.5286392864134669
0.35035035035035034,0.4785189579106434,0.4424017035996524,0.5568753366661829,0.4516700343228494,0.4696100959926297,0.4651586846417333,0.5348720843338206,0.5727865892319324,0.5239386693591099,0.4982158566017901,0.5065254087213785,0.4734494873149149
0.35535535535535534,0.5946597298930933,0.4158751120280589,0.43113296785936306,0.42914066671579393,0.5182006626517954,0.4990695965101054,0.4743520952327286,0.5387918282907747,0.5228638182145495,0.5305426099125368,0.4590892730264928,0.5402263063127195
0.36036036036036034,0.4292376820344687,0.44884161953822993,0.4300345228185017,0.4863235275218453,0.44454092086193614,0.40880330074835913,0.45108864418232375,0.49864604746039326,0.40334351332436036,0.3820624049083541,0.44731338721448255,0.4277267139321692
0.36536536536536535,0.3220957305328308,0.4201248053955999,0.37634642552150854,0.41428903552282015,0.3448123379582254,0.36077463076885613,0.34945508300754125,0.403925520274345,0.3691708533816896,0.4092931324706831,0.38172715007468505,0.3123628880183803
0.37037037037037035,0.33474732715164335,0.3013196111872606,0.31818103765129147,0.3721738812628366,0.3030253246180784,0.3937410066266892,0.37787688881539255,0.39388950879744467,0.31776656114898727,0.3473633133193965,0.38576111524186746,0.33727827823773326
0.37537537537537535,0.24984262591067308,0.3350813313890977,0.357101452717024,0.31146731732965294,0.2424145554620546,0.30677383719965884,0.22762245302363698,0.29942479657333215,0.332839374667515,0.28354590846742345,0.24371909717485335,0.25225091951067163
0.38038038038038036,0.26537926309091864,0.1114245842049244,0.20399538890202773,0.19237627420359021,0.19281243147707355,0.18790573811641875,0.1621248805485937,0.17578345220020983,0.2137113771639389,0.2044827355467758,0.17946746625347323,0.22478206646947327
0.38538538538538536,-0.07807140226731848,-0.10195419829020884,-0.2064679575190601,-0.029036705848918626,-0.028584244759475255,-0.12070964756163642,0.03027772487799958,-0.0036269715365284116,-0.12055280415212641,-0.04162783429525921,-0.16822151591323978,-0.04113024164067288
0.39039039039039036,-0.19492703747730034,-0.23314762340340836,-0.2650867424163255,-0.2580898511840256,-0.22037740112518156,-0.27533498729689976,-0.13906665523602224,-0.17841297791886424,-0.25408404494568315,-0.21877667792585723,-0.202313781504879,-0.1346939625921066
0.39539539539539537,-0.2328502095706491,-0.33354379750685736,-0.3379951820132046,-0.2812736331679503,-0.3298353023273043,-0.30680649149694444,-0.19616550509592146,-0.22214872063337457,-0.18880911635435887,-0.25048201800821945,-0.3337127842520358,-0.23517026774378896
0.40040040040040037,-0.33146626257517675,-0.4113729974130581,-0.32885361124211104,-0.37425573419067076,-0.37960093730169786,-0.3932925308252966,-0.4189729852342437,-0.2810035551193602,-0.3935736611446003,-0.31064086961542625,-0.33280558336274074,-0.3109679351226061
0.40540540540540543,-0.4718141350181697,-0.35243410306180567,-0.3861860824294216,-0.38254079933658497,-0.41013759028454067,-0.47389720318510975,-0.4172594228821608,-0.4517332058935595,-0.5227838607270983,-0.4110597703280446,-0.327232031824028,-0.44047703498302326
0.41041041041041043,-0.45380241296525775,-0.5443690027519617,-0.49917842187838074,-0.45800127776799965,-0.41548318975777715,-0.42374778246254036,-0.43538027903094006,-0.4400913482999283,-0.44758854137832726,-0.46737850908080003,-0.4213047798577389,-0.3931859167889446
0.41541541541541543,-0.5430680784129448,-0.5691949168673002,-0.5151498927581626,-0.48443856320743806,-0.5616347779717455,-0.4035234429820225,-0.4708115286520542,-0.5119226768110678,-0.5198521139057616,-0.4660728214937715,-0.5498553856498524,-0.4896476320750254
0.42042042042042044,-0.5240171269848459,-0.5922070359324106,-0.5355600199821191,-0.4674664868230384,-0.5269724552083761,-0.5315392215983067,-0.5552824672416311,-0.5669949630975685,-0.5419989343798859,-0.48435290036726625,-0.5406272051869595,-0.552538927082206
0.42542542542542544,-0.5120094401582138,-0.5806877035335019,-0.5022630734204303,-0.5195405193790903,-0.5793392868190008,-0.5249912056195675,-0.6303668815545064,-0.5882860700296874,-0.5542919013061919,-0.5951468425824834,-0.6242973448226448,-0.5719216502391581
0.43043043043043044,-0.5893351218431999,-0.6725622069185042,-0.7129366497580708,-0.5705968315530607,-0.5756635291588369,-0.6274800341944502,-0.6275201522961927,-0.6460232628978201,-0.5608431668822952,-0.6574702370870038,-0.5936122062066015,-0.6587120530469224
0.43543543543543545,-0.5287509962639932,-0.6382970910501253,-0.5597045083274828,-0.6079972471966173,-0.6380688261943712,-0.636072607537817,-0.6419669765722001,-0.6010312122700165,-0.6539301224079883,-0.6972925554655223,-0.6711011177766295,-0.6445879510687975
0.44044044044044045,-0.6472054042021685,-0.5696302854109472,-0.6338408416486235,-0.6523548524959576,-0.6333053438339391,-0.6717439570605916,-0.6857112489886398,-0.6670332474933596,-0.6273893387559146,-0.6388293226069448,-0.6294434094529882,-0.611284410059523
0.44544544544544545,-0.674158151229095,-0.6208739773733236,-0.7246290330413065,-0.7341015351764201,-0.7370651019850053,-0.6209413866768214,-0.7291329067567974,-0.5995944267856935,-0.7180836337054555,-0.7712553494054697,-0.6936611843460966,-0.688376028642757
0.45045045045045046,-0.6912312806797034,-0.6263841949440804,-0.6226883111492032,-0.701811537023797,-0.6579521091128094,-0.7326009010420028,-0.6171805048776355,-0.7104435555261847,-0.7048837349344452,-0.7467464628101386,-0.6892661196576478,-0.7622465452987127
0.45545545545545546,-0.7888664820045104,-0.7151590049814931,-0.6991325678494646,-0.7887583294761756,-0.7005206709744859,-0.70364797361033,-0.77919066321645,-0.7305237624278714,-0.7371283313372955,-0.7108423065866554,-0.69911838826731,-0.7936039504352681
0.46046046046046046,-0.7870130596190678,-0.783767371257229,-0.7085019375398746,-0.6926996110332567,-0.7099248023417081,-0.8198310620810533,-0.7495739142330679,-0.7592024332819927,-0.7646304892369807,-0.7788533017926224,-0.797988616437178,-0.6869288342776831
0.46546546546546547,-0.7167187822928238,-0.7480976299659658,-0.7703899353224997,-0.8237481156325207,-0.7854023607846011,-0.7985061912285316,-0.8520352448356047,-0.7092111522466333,-0.804252639241505,-0.8359522623171518,-0.7585299411561973,-0.7676259009300798
0.47047047047047047,-0.7705101446563225,-0.85256068328304,-0.7147086742117161,-0.7970305021985186,-0.7060451774538522,-0.8689118949734043,-0.9030122717733,-0.8210005659344273,-0.8347458313555476,-0.846535051536238,-0.8398944607424824,-0.801960904816751
0.4754754754754755,-0.8186115196700149,-0.8341561617296679,-0.789561226471922,-0.8691255180833728,-0.8368154287978562,-0.87576958790785,-0.7854775166732838,-0.8534736501406858,-0.7469638876536029,-0.9281345353121326,-0.8431953800659565,-0.8568969660355784
0.4804804804804805,-0.926070259896917,-0.8850675983904588,-0.718429418054482,-0.8558024057435432,-0.7878756256760471,-0.8919303736477269,-0.8847408484283523,-0.8103822578153395,-0.7849683883223475,-0.8642238564174455,-0.8988227528747326,-0.8355420309229151
0.4854854854854855,-0.8709591375754778,-0.8042919553812389,-0.8223480608713863,-0.8257709170503882,-0.784197252090883,-0.7868719304987485,-0.8778767089970182,-0.9066655604597952,-0.8950368368947925,-0.7826715135463952,-0.8073351161945583,-0.8146045964354367
0.4904904904904905,-0.8714987168692603,-0.874691224941505,-0.8892715512727773,-0.8369837840016642,-0.8342573228375859,-0.9523150621709537,-0.8914920299272446,-0.8366672497843644,-0.9720036541884667,-0.8723846446122219,-0.941069090681854,-0.9296340341568373
0.4954954954954955,-0.9590647549060465,-0.9034131400973282,-0.9328412144433471,-0.8904879132277389,-0.9413264263487534,-0.7903903193415628,-0.897986173510507,-0.9250464241706482,-0.8690710391818822,-0.9158915506931672,-0.8840385522441131,-0.9239149569049295
0.5005005005005005,-0.893534755696526,-0.9575444774932198,-0.9266187352717525,-0.8963206511883833,-0.9242036533005957,-0.977800362589882,-0.8845597417892818,-0.9088909160838394,-0.9934164391641127,-0.8916077599279982,-0.9935333874211517,-0.8754014551879019
0.5055055055055055,-0.9000836301494123,-0.8173181110272936,-0.8086482868884057,-0.8939343504927935,-0.8746653608946835,-0.7790978877257184,-0.9173224446311339,-0.9618185907893647,-0.9603658470061116,-0.9816678952223074,-0.9051513686277465,-0.8166696793749523
0.5105105105105106,-0.8838119305320651,-0.8604922929937137,-1.030033704885642,-0.9522173141949793,-0.9098767483262776,-0.8341603232391162,-0.9014592702905053,-0.9777771286202859,-0.9264039477899066,-0.8647133155249528,-0.9088467857776206,-0.8985753923344346
0.5155155155155156,-0.9497249204759971,-0.995443380945183,-0.8976277007274205,-1.0339963565147667,-0.9217013158893671,-0.8529405607194538,-0.9494406114575838,-0.963942141583566,-0.9543298059700754,-0.8958860526189718,-0.879792677946028,-1.0202617779084666
0.5205205205205206,-1.00439099902485,-0.93708207476068,-1.0165611129937537,-0.9051292893177021,-0.9186174777751209,-0.9197950344986315,-0.9707017126351563,-0.9581701440632814,-0.8930842743699923,-0.9684123828555541,-0.938499289578081,-0.9205359560058076
0.5255255255255256,-0.8232145548364402,-0.9848087329988668,-1.0352996761246074,-0.8937958189146884,-0.9064673430122936,-0.870020056752022,-1.0025281592658848,-0.9435978527118603,-0.9275593483178562,-0.8569670409525112,-0.9177574266769549,-0.9210792294726193
0.5305305305305306,-0.9739728721716162,-0.8789264134747445,-1.0363375660448473,-0.9014527281140079,-0.8666516383947753,-0.9191754646854093,-1.0129334088833855,-0.9499611084329281,-0.9023532863106869,-1.0187766382033254,-0.9652387500374296,-1.0113427671538147
0.5355355355355356,-1.0052939958158522,-0.9756357874783752,-0.9399121944639509,-0.9833725790542026,-0.9426022474333196,-0.9804135845357173,-1.0319274393241726,-0.974340597954476,-1.0048298215320999,-0.9123179433638073,-0.8903678503773358,-0.9317651253467807
0.5405405405405406,-0.968438840814212,-0.892095359984266,-1.0486085567387813,-1.0197266588486402,-0.8724764877351232,-0.9361094054455015,-0.9192105393665857,-0.95913265219567,-0.9426262839550309,-0.9270453756285243,-0.9971508291613214,-0.9375402295134386
0.5455455455455456,-0.9756060481085663,-1.0193425594088839,-1.031644070114121,-0.9763737046677045,-0.9652606097604092,-1.0089507357152618,-1.0157214343150567,-1.042036162883841,-1.0459211448942691,-0.9683756195514439,-0.9434117434188302,-0.9788056104020086
0.5505505505505506,-0.9726906915628303,-0.9753356659130857,-0.9495619515889913,-0.8656972655937711,-0.9581435618899922,-0.8978042330644934,-0.9132674781413233,-0.9124012049673259,-1.096765354436764,-0.9529999386711656,-1.0219866632495795,-1.0042087563735267
0.5555555555555556,-0.8942570477837504,-0.9464975758028737,-0.9824335516314325,-0.9419478615744622,-1.0485579098910898,-1.0072829001728933,-0.9921589164182325,-1.0149344824965587,-0.9638476938827095,-0.9292235787220317,-0.9537259861824597,-1.041618796293173
0.5605605605605606,-0.9958318508844922,-0.9770458599794216,-1.0033897012314208,-1.1210937705286452,-0.9901527628354443,-0.9896787550388472,-1.0109546030837921,-0.9719062571270104,-0.9813900370157304,-0.9616325284287,-0.9515579471434155,-1.0281850180774665
0.5655655655655656,-1.058368423775385,-1.0673827014384478,-1.02671625657198,-1.0787548616911673,-0.9574627786062131,-0.8986155387802242,-0.9772490747342901,-0.9538501913947867,-0.907813847551477,-0.9872544712165349,-1.0750705892571064,-0.9621178092120051
0.5705705705705706,-0.9840376900381121,-0.9899906893334897,-0.975868105001407,-1.06436056390412,-1.0236380943513326,-1.0009478971770205,-0.9772344450951848,-1.0087361118684095,-0.995919784202313,-0.9458815143648676,-0.9369644028239336,-1.0810806038992204
0.5755755755755756,-0.9780594844155456,-1.0126494265294468,-0.996375585135572,-1.0792381066450043,-0.9868738075212952,-1.0202699487918094,-1.0706751218297903,-1.037584529410531,-0.9760864760891067,-1.0119495388028137,-1.0344954335096466,-1.0563702046077852
0.5805805805805806,-0.9706366725601624,-1.0083360881507684,-1.003801716260956,-0.9744431295133891,-0.9314220631555534,-0.861598306807967,-0.9847814406710432,-0.9596353530158892,-1.0102404779448124,-1.0384965987302677,-0.9325426764494504,-1.0625048748475059
0.5855855855855856,-0.9711402978457462,-1.006367988129805,-1.0183990934871698,-1.1162463456224903,-1.0110600690288785,-0.9333658222578092,-0.9646434958300472,-0.9834181354164354,-0.9673792254498195,-0.9670509650133144,-0.9437870034499569,-0.9359037348369216
0.5905905905905906,-1.065713514508107,-0.9428756294376981,-0.9506587702083248,-0.9868302830376434,-1.0119174824387456,-1.0196661768387456,-1.0283082591409858,-0.9613097564061267,-1.0730974818968388,-0.940542691240134,-0.9975653660626076,-0.9513205784300182
0.5955955955955956,-1.1203992715303197,-0.9284649247946041,-1.0756246615982024,-1.0347024593711134,-0.9462669348716255,-0.9906420470116264,-1.0296310834909064,-0.9890559621243833,-0.9303785167510396,-0.9452731442640109,-1.0551636907271096,-0.9474540189762924
0.6006006006006006,-0.9844946091958551,-0.9820800191207376,-0.9757431384340548,-0.9352404755856152,-0.9700833517378635,-0.9641629772210236,-0.9449255078748411,-0.9255548340441705,-0.9306017785576863,-1.0419120731810891,-0.9740185558645855,-0.9831185256856964
0.6056056056056056,-1.019670045542317,-1.0147707381495397,-1.0117862703664198,-0.9881726767235829,-0.9904483507818489,-1.001560100602076,-1.0229748350750072,-0.984993586394654,-0.8981128680573387,-0.9862523677797944,-0.9750143964013074,-1.0013325783354612
0.6106106106106106,-1.0672923836634787,-1.0270789713284088,-1.0377038457416274,-0.929764407315501,-1.0333169882460729,-0.9488270714930005,-0.9424764254515212,-0.996623972891914,-1.0182736830634598,-0.9614219823624451,-0.9186805106082474,-1.035634816661132
0.6156156156156156,-0.9852367280574148,-1.0150116987577604,-1.0663609704210653,-0.9576633662863627,-0.9997459869031731,-1.0023185294906398,-0.9151775549806541,-0.9685070514545513,-0.9744494747523254,-0.9416739970451469,-0.9161444211399647,-1.0210905908640133
0.6206206206206206,-0.9624806630095711,-1.0090579910358373,-0.9325913774501627,-0.9945655700947196,-0.9672979663642445,-1.036135451718168,-0.9637787900460478,-1.0460198347663212,-0.9783418004297844,-0.8880558919061747,-0.9761154238795869,-1.0134655153946763
0.6256256256256256,-0.9363659175356609,-0.9882030991436154,-0.938698702161486,-0.9326917258585707,-0.8127633416926058,-1.043427118452741,-0.8805434644049671,-0.9129150372250768,-1.05152668565975,-0.9810125748824385,-0.9375734370807924,-1.0209287226525123
0.6306306306306306,-0.9455867555754341,-1.0320580682118723,-0.9889834591321742,-0.9928712353575296,-0.8727037143062829,-0.9665032644087534,-1.018033662189447,-0.9420078830658988,-0.9681956720601944,-1.0638168943047845,-0.8732147784890114,-0.929603969611352
0.6356356356356356,-0.9399699148054029,-0.9535109102266635,-0.8685828607410706,-0.8833761909150533,-0.9120062413497088,-0.9531045955862487,-0.8643723699485614,-0.855016867889367,-0.9662029528677842,-0.9444685267317168,-0.936267620957384,-0.8805470848875765
0.6406406406406406,-0.9234785548656753,-0.9460682073936769,-0.9194731748182929,-0.8956555071404448,-0.9450178392561367,-0.9758738159087124,-0.8725987483016168,-0.895515765759257,-0.9480112140035784,-1.027252845288176,-1.0039593210300555,-0.8913180384427084
0.6456456456456456,-0.9657073035109104,-0.8374868678710321,-0.8878912108367485,-0.9283589473017575,-0.9250405635027965,-0.972987910873364,-1.007526614720562,-0.8735749382874113,-0.906593549664498,-0.9510724921756861,-0.9315832216675326,-0.8952160032405867
0.6506506506506506,-0.8475165514096521,-0.8831356612658761,-0.8525513568805534,-0.9653610283692131,-0.8930701203150682,-0.8344837040451357,-0.883734291687813,-0.9087154504835363,-0.9147605452380385,-0.9003989209958776,-0.9074218646847696,-0.8676377756659971
0.6556556556556556,-0.9066577735043061,-0.8419054602361583,-0.9381857661250252,-0.9412419473655556,-0.8489365920300141,-0.9440928402684684,-0.8106676480865853,-0.8544526964040133,-0.8243415367041772,-0.8098970069709079,-0.8161591974390863,-0.913730034797235
0.6606606606606606,-0.8818387429476794,-0.9227479533871636,-0.8668189701830483,-0.8247184964791674,-0.9385070157453507,-0.827361605096903,-0.8936338096310569,-0.8498953202209605,-0.9144175596974989,-0.8273946069963136,-0.9529379112170404,-0.8416091666565336
0.6656656656656657,-0.816414329700373,-0.8512620882526895,-0.9009860334781779,-0.8572325182673888,-0.8875746484325017,-0.9878281770055359,-0.9346799081904105,-0.8804144965690205,-0.8959106878024832,-0.856047029198081,-0.8890708460258027,-0.9082535359763871
0.6706706706706707,-0.8066280262819117,-0.8234370494670958,-0.9015932270985644,-0.7834753689283875,-0.8436358083354258,-0.8479471568060034,-0.8499506520505937,-0.8518832520034602,-0.8541772914200305,-0.8256672702377839,-0.9082204814260152,-0.7868981259479163
0.6756756756756757,-0.7884657072120479,-0.8151403315785004,-0.8400777753628058,-0.8301519975995802,-0.8329099624167717,-0.8672765100922923,-0.8556634038699715,-0.8422314058384363,-0.7544132513519421,-0.8764121270389351,-0.7800240716611619,-0.8464692274703289
0.6806806806806807,-0.8011372593100387,-0.8381901225786851,-0.7637218016569667,-0.718823871159265,-0.8120001665723721,-0.7802544531528114,-0.7585803548099542,-0.8823393581286233,-0.8470676156522999,-0.9146083933713345,-0.8795039580279523,-0.7878616105817511
0.6856856856856857,-0.7878906483498918,-0.8498650661496958,-0.7492407720696973,-0.8100342330625108,-0.8604262957337117,-0.8065522901988419,-0.8398776695408366,-0.792934454570031,-0.7595391560123455,-0.7596224793124128,-0.8031453611257265,-0.8290601456932558
0.6906906906906907,-0.7678480444354562,-0.741006721583059,-0.8001196627956512,-0.7553108004285404,-0.6949482734735537,-0.7120683662978523,-0.7604694034222338,-0.7576025583451435,-0.8234669277350752,-0.8349517555026774,-0.8241414815099113,-0.821046833221937
0.6956956956956957,-0.7028073345153673,-0.7418552981323914,-0.745147718868225,-0.7493207412416318,-0.7508026348129473,-0.777351848857214,-0.8097697184897271,-0.818246113073405,-0.7787852895848328,-0.7731679818690881,-0.803074747533341,-0.79279802012011
0.7007007007007007,-0.7004173927833776,-0.8137419222020366,-0.6167707536153958,-0.6058486573454417,-0.7213657996611686,-0.6479619200614194,-0.6966146793752617,-0.6117558051546972,-0.8432905743235524,-0.7399887733892822,-0.7610898317614112,-0.7121071239402601
0.7057057057057057,-0.6508455828888454,-0.6900120941514404,-0.6857549148550145,-0.7479377097217061,-0.7094827273620055,-0.7659915809130027,-0.7131862957978437,-0.6738965335626343,-0.6908156581353911,-0.6776209095042004,-0.6471689856549644,-0.7433445312438682
0.7107107107107107,-0.5663521737561662,-0.7260166740582938,-0.6411786428538001,-0.6233792877089024,-0.6470059397800279,-0.5824056833098644,-0.6531599407303074,-0.764664617028378,-0.6174722103070086,-0.7084601033528708,-0.7180070536190005,-0.5843316249166353
0.7157157157157157,-0.6862867183581352,-0.6761821323409597,-0.6913815796072099,-0.5747540781277265,-0.5968955838744376,-0.6324401316962918,-0.7347593613972707,-0.5934836303338062,-0.6361513013833311,-0.6104627472636954,-0.6546510355078979,-0.6239472152949946
0.7207207207207207,-0.6224153889059623,-0.6450505300633492,-0.6404408050248755,-0.6524235913804375,-0.6908819041359242,-0.6078844574595804,-0.6340733942271519,-0.5513920960658214,-0.5565746004086389,-0.6559570186415812,-0.5617451488080542,-0.6936599772867365
0.7257257257257257,-0.6152482473998003,-0.5820764852072646,-0.581237342853781,-0.6162616209297683,-0.519867247566596,-0.5880043845768821,-0.5890466664617056,-0.5882543641677439,-0.5885267230381717,-0.5880935793675615,-0.5800972044401258,-0.5811109294840703
0.7307307307307307,-0.5435836359836509,-0.6191471481941414,-0.5180303043657052,-0.5161483546145238,-0.553332547089272,-0.49720634574154643,-0.4745630630324569,-0.48240931980046964,-0.5609771161117453,-0.4482835596296838,-0.508545949566382,-0.5231779616473188
0.7357357357357357,-0.5459678132075437,-0.5113705024990481,-0.5376789384132772,-0.5139509175273278,-0.52592631866545,-0.47737586915266633,-0.45761461622478217,-0.45144878711611613,-0.5591456027152722,-0.5315273837258264,-0.4389914600697525,-0.535711083124526
0.7407407407407407,-0.44606335670928826,-0.5136973817510647,-0.41500545969320596,-0.49338711973724964,-0.48977348672561527,-0.49536626947773993,-0.4984748713226461,-0.5140182795289893,-0.4514328920511885,-0.4515253244819768,-0.4472333866528907,-0.47140102353978486
0.7457457457457457,-0.34751949226616663,-0.4842303199163611,-0.37776179072176813,-0.4574295763884553,-0.4368107249895175,-0.43367812931417943,-0.4855313034584124,-0.43947375989379817,-0.5672836765916783,-0.439628143677574,-0.44026041552889167,-0.4481208515223654
0.7507507507507507,-0.36423142074583614,-0.3780061626655061,-0.39089510228393837,-0.370743636842183,-0.396110012470017,-0.3860208265477905,-0.37101731782301556,-0.4529705327477093,-0.41677293147425226,-0.3736776219606066,-0.43896885839561317,-0.39043033819951695
0.7557557557557557,-0.3104399244751442,-0.41285423723135384,-0.3045550412385653,-0.36274729089208757,-0.2900397409282652,-0.3638088621092145,-0.3551577097395688,-0.3117282906748306,-0.33237609453538813,-0.2885810247168018,-0.29822890153135445,-0.3229528597048026
0.7607607607607607,-0.30787755075926015,-0.2804186126290846,-0.22150175331291497,-0.17725667031689535,-0.33405610080856163,-0.29171432756970705,-0.21419958585374976,-0.28855654364816896,-0.36265656863609563,-0.3545755983037052,-0.24583503851972915,-0.4402267024622632
0.7657657657657657,-0.13541406586993626,-0.15181477591046919,-0.11589190953004685,-0.2873794677331726,-0.11701019402424753,-0.16270133563933228,-0.18514224254499193,-0.13744392434979893,-0.2130790831452987,-0.13563886226546407,-0.13458613796967453,-0.19604470698707058
0.7707707707707707,0.09589093125315758,0.13444440647728423,0.14004009086697192,0.06614941185215668,0.11691136233094941,0.04508904795541502,0.1493165580590915,0.14944909260511677,0.09903223311342577,0.026958769873673835,0.08096724608987911,0.0459112113394623
0.7757757757757757,0.20415869418033944,0.1545164129388849,0.3105629479598923,0.22168436307713238,0.16120752709058944,0.23583263359005144,0.17917322036510655,0.26546307933786295,0.2157160930688433,0.3986005930109701,0.21288519853553664,0.23283116810680804
0.7807807807807807,0.2857602622904571,0.355924516133045,0.3834823025319871,0.30505001132416865,0.31816092077245905,0.3241281613031669,0.31799611889064433,0.29977454346505267,0.2899746559296094,0.24717652051923494,0.33822459112908076,0.23498367937418446
0.7857857857857857,0.3469432231069822,0.33627529289525315,0.2509904861322122,0.35725140311006687,0.35874379506703036,0.3478659947419155,0.2417103950547146,0.3102015539900573,0.433294464180246,0.2768970434702444,0.3517745892296252,0.4289064559908374
0.7907907907907907,0.40772782122629314,0.3942484255817499,0.46851719539016345,0.40617720165698895,0.488125179805907,0.36142231122528323,0.5622100214002,0.322799666053923,0.41285122289688236,0.3415629519399964,0.5095244202249857,0.43416930003073306
0.7957957957957957,0.5553098246185987,0.45947789041242637,0.4248089793913815,0.46148813260879784,0.4582394986358014,0.3350378832210068,0.42257590598008943,0.4743071092684127,0.5291882895614795,0.5080916768175746,0.41830130080487393,0.5815330481021825
0.8008008008008007,0.49846199895022625,0.45803288292989724,0.4761885020512615,0.5348566985153544,0.49312631525510525,0.4899187473360465,0.4897995623220805,0.5198472356703131,0.6315255442023007,0.5018166175640442,0.4563470407597185,0.5732595285871683
0.8058058058058059,0.5565611924458852,0.5472825762571896,0.5526737778484547,0.5459161554629095,0.5308835533747062,0.5054484006193992,0.5231482331143482,0.5340700601379773,0.5391849592564592,0.48070790060323176,0.4929327853749417,0.5388463367572202
0.8108108108108109,0.5722719921558798,0.6761377056407019,0.4913529708389518,0.6045216813103239,0.5334889753021625,0.5674212379371152,0.5317296994146825,0.5368104136419044,0.55966298462081,0.6485832611864462,0.5778297262081051,0.5535711828523726
0.8158158158158159,0.5866922699508647,0.6717914226560835,0.6390677043923498,0.6344050273226506,0.6796761994379903,0.6353132094197341,0.6758199307165833,0.5723354185416456,0.7146523979507662,0.5898956499298728,0.5860398410032709,0.5483990589405958
0.8208208208208209,0.600580892955914,0.6075715711513301,0.6179293115135595,0.5329249223250184,0.6440377395894383,0.6852125563832302,0.7365020927820762,0.7052830383359762,0.775303160203715,0.6611675446213546,0.7005896830826415,0.6375931765631768
0.8258258258258259,0.636870221902534,0.6112866855957382,0.7088598140874726,0.6623800527223688,0.6589637461215822,0.6032805028983952,0.7621609500247934,0.6602071774407288,0.7137247430098167,0.6197806791106728,0.6939205988664251,0.5825098429183305
0.8308308308308309,0.6392495368260911,0.7061454370776596,0.7424936948474812,0.6645778967447782,0.679728400497101,0.7386276473471549,0.6554659128994001,0.7738779473286654,0.7378890181806317,0.5889771223203069,0.7875372925455699,0.6931704941255223
0.8358358358358359,0.7538944511139893,0.7146595409193417,0.6519016046384088,0.6201264615569395,0.7192253207584203,0.780836043790558,0.6410132225552031,0.6387915663690132,0.7324837433367942,0.7044417096988623,0.7190608769561082,0.7666695835411065
0.8408408408408409,0.7355077534518996,0.7574111300898212,0.8244578142706801,0.8385053712446147,0.7864661216765482,0.605088914456704,0.6992656849684454,0.7843180350002124,0.7410061316102601,0.7965600411576761,0.656633103940248,0.7414020360696982
0.8458458458458459,0.7401601481692274,0.7265981642260375,0.6941869104237741,0.7433442987993395,0.829904901267004,0.7237990378473078,0.7778594652630186,0.6959590984978008,0.809124535631854,0.7178198437548573,0.6276787023870092,0.7943052040322981
0.8508508508508509,0.7632045288918773,0.818697785477322,0.8472639151715999,0.8539618173763314,0.8257598782461825,0.8019915239394013,0.802060002213902,0.7613277699841309,0.8725004836278034,0.8041391607772973,0.7121653729520706,0.7761742492134294
0.8558558558558559,0.7622517816294145,0.8128139144509804,0.7188141555168495,0.7662902078199179,0.7586651479674397,0.771721508277599,0.7915396330107759,0.7503637444394184,0.8046357825721766,0.7733587587412666,0.8073715104271479,0.8215494111148602
0.8608608608608609,0.8283573603737164,0.8852246075468961,0.849185361940843,0.8889204730538885,0.8040147258173025,0.8406532078610485,0.8253880600491287,0.8386618519600966,0.8961237691989737,0.8508662471203603,0.8696983482744444,0.7764121774900676
0.8658658658658659,0.847822140789618,0.7749790532533448,0.8351231154828965,0.9214783448309218,0.7900378860258642,0.7973245808353463,0.9295364813356819,0.9025224410266504,0.7324498532894456,0.8429152734685678,0.7932209417647201,0.8897866059285244
0.8708708708708709,0.9044669232889684,0.88001396819777,0.7594205998295984,0.8399121128648975,0.9264544325996772,0.8420915168648515,0.8463388584999969,0.8198851349118771,0.8941732907517597,0.8696566372329723,0.9107920952089147,0.8944033205615125
0.8758758758758759,0.8722979539583161,0.8995684914334441,0.8901822056115984,0.941495302380411,0.8753234668660931,0.8986799042127925,0.8555792695902444,0.7701754794886194,0.871423827680479,0.8892918156012595,0.7797824049817949,0.9763597200166524
0.8808808808808809,0.8538483940929047,0.8850129999027153,0.8486620389440587,0.8648972892622758,0.8525609604227254,0.9175615187642103,0.8400134296642616,0.8296718380590787,0.9739615673140158,0.9143024533491587,0.8998591286518067,0.8272628900219436
0.8858858858858859,0.8410835613157011,0.9885256168263413,0.9279047782498522,0.8421125378215644,0.8977741629301645,0.923398629308808,0.8973666429315011,0.8292678612169995,0.8801855712942502,0.8428246977504711,0.9587440797547843,0.8567908805919593
0.8908908908908909,0.8987924726619921,0.9980841960489348,0.8626789015615899,0.7969875375898011,0.9171744205710978,0.9366628850933244,0.907279868105823,0.9382944203350073,0.9384593348558441,0.8702063407162164,0.9536790429209776,0.9432023284504247
0.8958958958958959,1.031527574186046,0.8912866237165746,0.8367749606830384,0.901153998037874,0.8624391581376719,1.0090254571258066,0.93061407731803,0.9950530852985034,0.9173900602513368,0.9257134207564122,0.8133927545805056,0.9263090037562193
0.9009009009009009,0.9064047002722514,0.956647705033401,0.9378600832411405,1.0234392339535614,0.8669208607789587,0.9304863191557888,0.9345923593994305,1.0418560648224107,0.984005972191235,0.9917450235071388,1.002816586029663,0.9197073302595419
0.9059059059059059,0.855843988809115,0.9142457594731129,0.8806735181165938,0.9683133792412612,0.922038755050725,0.9500716510926355,0.8826788201304191,0.9005893268365752,0.8645568988674481,0.9017554510191681,0.884847812109922,0.926134818533882
0.9109109109109109,0.9241728124068825,1.001405997313621,0.9882517964636572,0.9035353337131135,1.0212250826934266,0.8983932269376596,0.9752182941502844,0.9897775176866482,0.9566576521284792,0.9119393292332625,1.0080609371801086,0.9471777189998979
0.9159159159159159,0.9583291236781492,0.9172202123859384,0.9184822267358187,1.0762043012434923,1.0085114069443288,0.9401694257327938,1.027735478504136,0.95909022617957,0.9807905136838505,0.9701582289774062,1.059350531529399,0.9537418614080628
0.9209209209209209,1.073729920137573,0.909087517182818,0.9852182517951563,1.080148571680366,0.9601138071488976,1.0028569524737552,0.9573490435246024,0.9994992842346785,0.9971025790754341,0.9849860653423393,0.9688580556187735,0.976977226878328
0.9259259259259259,0.9712451044880174,1.0055806026580358,1.0101617398753875,0.9519568658658155,0.9644202792257387,0.9273778054275361,1.0180300358001717,1.0087382006206589,1.0072067215215474,1.061965799273036,0.9829227712907207,1.0450602324243654
0.9309309309309309,0.9779829460564604,0.9905633198925125,1.0674453455169788,0.9253698976834935,1.0255192391246373,0.9784357765597017,1.00154404937381,1.037308922956892,0.9887937883918656,0.9388802397028382,1.012219051772427,1.0304247451282589
0.9359359359359359,0.9178306131394308,1.087240359434006,1.006007022223422,1.0171972301850338,0.9676045343481061,1.031284697124747,1.00055028364692,0.9845886520389897,0.99201882533759,1.0293970154000995,0.9815054994978065,0.9693155404908409
0.9409409409409409,0.9883979205957713,0.9598007330457998,0.9971352876368276,0.958331396832941,1.0996647585531425,1.0942610253745575,1.0047992729134534,0.9316209919384923,0.973457227068911,1.0342942624955282,1.0110886617830233,0.994822056299743
0.9459459459459459,0.9105196791491165,0.9026743555727582,1.0497250859840614,0.9094279531330187,0.996735083663004,0.9085807414241349,1.0273101272244705,1.013591098307698,1.0592257362645365,0.9861090752309006,1.0219693693998813,0.897613480629621
0.950950950950951,0.9544060465910709,0.9790606338630579,1.021650407652319,1.044412729191535,1.0063044697373482,0.9677163056191427,0.8760758294123812,0.9436698523851256,1.0013737822967645,1.0993471241126838,0.9874781122406617,1.080832006487381
0.955955955955956,1.0067007674513901,1.0439604904465936,0.9624279587654763,0.9689192662487699,0.9456541474010783,0.9999794105091251,1.07589180265298,0.962356511491904,0.9846611132114607,1.004536772734476,1.0566047690772027,0.9695270715600909
0.960960960960961,0.9886986136605569,0.9953491621103797,0.9636538785385739,1.0129059757271721,0.9412225786604971,1.0081753202326105,1.068279625825334,0.9397636744326094,1.0558084281390157,0.9277349596532953,1.0045083212922303,0.99180165084893
0.965965965965966,1.025739028237514,1.036488097926038,0.9162477237624584,0.991146198454075,1.0121072064638599,0.9570065630996357,1.0182462889987078,1.038171151851921,1.141364530845455,0.982561930381226,0.9101115017808816,1.057661694897127
0.970970970970971,0.9635134491019512,0.9396542887838877,0.9461225138385947,1.0283999775211254,0.9645952202652361,0.9436366823727058,0.9939537248221074,0.9790155693790722,0.9891574712562383,0.9802401698749955,0.9242561186727938,1.0633968284019537
0.975975975975976,0.98066521125796,0.9637719164258252,0.9952802312832074,0.9832866622284376,0.9184957501516773,0.95585922426455,0.9969356646765458,1.1089689133792042,1.0127208027664376,0.9992594414923947,1.0428781888510834,1.0037634741847883
0.980980980980981,1.0178178605134378,1.0180484908391116,0.9811623078997288,0.9636731885972086,0.9854590505593027,1.023186906240137,1.0835324716478816,0.9282485838417865,0.8770890569575465,0.9805996897489778,0.9670461328098532,1.016775287314636
0.985985985985986,1.002603689885995,0.9851528647211633,0.9586008435507254,0.9615570984260626,1.039743452964995,1.0234832109022816,0.9939158062964308,0.9811910545303165,0.9929640432144262,0.9592675394196694,0.8588297970798967,1.0033453173154627
0.990990990990991,0.963552697724824,0.9587507378708199,0.9232393599623643,1.0258170673927496,0.9135683715788205,0.984109081511481,0.9164680655510946,1.024208715378505,1.028685395352412,0.9096916429118074,1.0276713341588932,0.981963453099909
0.995995995995996,0.9454717557455924,0.9075939757546599,0.9898184823632943,0.9201041802378573,1.0159760298034672,1.0144518564647542,1.0318599890191826,0.9358097547294865,0.9487196182052711,0.9872788861680689,0.9914568745447307,0.9867406802565122
1.001001001001001,1.048817098734673,0.9541019394268933,1.0843290664629128,1.035728454647474,1.0302946962351505,1.000275794695582,1.0834422668461223,0.9370280125409335,0.9651765735772123,0.8216380013575654,1.023525905880069,0.8834314339108826
1.006006006006006,0.9760334947581857,1.039445296057584,1.0093689348995973,0.9301301693768231,0.9189510946797538,0.9306233933935782,0.9856794058600197,1.1300760390368894,0.9542569799267024,1.0227292664312668,0.9698262589530642,0.9664801120518969
1.011011011011011,0.8980619993549622,0.8806168098825957,0.9228060790167368,0.902572973618463,0.8829589256295062,0.9910427163998063,0.9283958737464858,0.8707754568236565,1.0241856347526916,0.8460483963701027,0.9399114988524035,0.9643912916745829
1.016016016016016,0.9909502480794415,0.9251692800822399,0.9497450043986128,0.9656860245927519,0.9133042312559916,0.916154730748641,0.9890503195525278,0.9362354073302033,0.9492755292997836,1.0060099230041715,0.9644634696054465,0.8956215342727207
1.021021021021021,0.9406033486605441,0.9740551333298261,0.9063285302989708,0.9310034966035041,0.9441473355139234,0.9058082057720704,0.9245314545091331,0.9610592048928385,1.0353530726559872,0.921096460173768,0.9474201951963104,0.9886884029737818
1.026026026026026,1.006563441072073,0.8629216760631714,0.9396147716853941,0.9102057836029878,0.8603715732493964,0.9833576326812498,0.8088189586370256,0.936008791183617,0.9423736910623483,0.9665463117895795,0.8486140520199233,0.9610645690170887
1.031031031031031,0.9569785756172218,0.9583240883953592,0.9076223780904328,0.8947410651455617,0.9771365811471163,0.8807737066197958,0.8699583522497827,1.0127110663203633,0.8622935498305091,0.9252949304077773,0.9191196531137161,0.9141405834912085
1.0360360360360361,0.9115198318643457,0.861439599588639,0.863394483836857,0.9245928470495254,0.9923996858297985,0.9194162329020293,0.8624972479778936,0.9324186541029993,0.9615096658734803,0.8601416939268627,0.9209233382609742,0.8837954945772729
1.0410410410410411,0.8826852155780328,0.9269764060088808,0.8911855067359279,0.9459861237782083,0.8596375295884442,0.9181479293473865,0.9437566001481497,0.9692995913926388,0.9054521932537797,0.8854632780980568,0.9246894888749291,0.9016155191628009
1.0460460460460461,0.8666779536636113,0.8820565994494665,0.7969659485758516,0.8598717335679603,0.8703194053034937,0.9622224753826416,0.9255663620396272,0.7487931137825781,0.8102501313154706,0.8773854894110359,0.9161456354975438,0.8370236143291002
1.0510510510510511,0.9176307322977121,0.8465008923138488,0.877988916897544,0.8725349592580062,0.8672473815242254,0.9506057187108654,0.83361017392586,0.9489755389915854,0.8678093291258892,0.852343449305041,0.8611297572572445,0.8492829440807348
1.0560560560560561,0.7900791378278728,0.8702151099093399,0.8067587655911442,0.8586446817448626,0.8370926433468096,0.8126925517948765,0.9056923518714998,0.784161495044493,0.8029763881065917,0.685562360833537,0.854704362784793,0.8050881436348927
1.0610610610610611,0.8037625664207019,0.9263147381925998,0.8215501031690394,0.8722672279850221,0.8273583030507001,0.8547699414825101,0.8563037960321266,0.8206976050835313,0.7702471729663087,0.8575981883524967,0.7691462640268111,0.7830520882442724
1.0660660660660661,0.7926826438590742,0.8044955937409074,0.8257617547307038,0.8175250745978222,0.7855854756081831,0.7400500464812158,0.8445605363621361,0.7474174730254105,0.7761867559693415,0.8385818182729086,0.8024977315045055,0.8379640186302072
1.0710710710710711,0.7993668447185146,0.8562772601129629,0.8278339045715888,0.8260491413095005,0.833578237500865,0.7537210419994316,0.8664901190596636,0.7130752676480885,0.8473765278234464,0.8353515916715523,0.7504622869984177,0.724946089983576
1.0760760760760761,0.7630157187011697,0.7742128584797343,0.7702988230416458,0.8500691499428961,0.6978590489276011,0.7360299493175017,0.6947768448035835,0.7253040634342466,0.7763810046023489,0.7823591828192731,0.8294932186847381,0.7877466967170378
1.0810810810810811,0.7510725666645457,0.8304909371167252,0.7532203052529434,0.6215966910976852,0.7922390125471921,0.8547755722988601,0.668541315422216,0.8379093701159196,0.8288971829976759,0.7411083013946086,0.7912023589158824,0.6935255562939113
1.0860860860860861,0.6883711172908193,0.6509646376784612,0.7529471961960905,0.706206528208249,0.7299427931968971,0.6596894418579853,0.7436228119675675,0.790616595284775,0.6935515046332199,0.7443634467315422,0.7436544021867274,0.6831228021255623
1.0910910910910911,0.6573839620012099,0.6271767739546052,0.7050777344126967,0.709581709423051,0.6972333518638226,0.709811082904651,0.7641994204436349,0.6687552810714942,0.736574062177671,0.7461740884175927,0.6235332100098788,0.6600631165744483
1.0960960960960962,0.6886458765702316,0.6705135912209327,0.6655499282242637,0.7497303986102506,0.6351219811446401,0.7079734617993523,0.5965390809834294,0.6470154897729958,0.7497853471165741,0.69512803191608,0.6917003115631318,0.7153527677760143
1.1011011011011012,0.5829898144527698,0.6347386004374107,0.6824768655865932,0.6431313652101719,0.6638038724413593,0.6455736513423961,0.7654168956290304,0.6862252166341476,0.7006081952325452,0.7212432987951699,0.6521981378109482,0.6790666520650477
1.1061061061061062,0.6095021984480277,0.6517435419844607,0.6623708608634328,0.5678061956561495,0.6862904551440351,0.5929682719833717,0.684061024834333,0.5938844450430458,0.5791861853516096,0.5350989087800448,0.5980923600058221,0.6181038631531729
1.1111111111111112,0.5936655796511823,0.5567238668224797,0.5689708457381029,0.589468445296829,0.582876231780789,0.5572756806972389,0.5477270512186455,0.5129280047945588,0.48936432959166787,0.5472299478068996,0.5952739869034587,0.5813540008899717
1.1161161161161162,0.49059647969013914,0.5708491363561873,0.6091189424324329,0.5793263516373733,0.607766361459753,0.5149163711179325,0.6072442039856333,0.5962224013980097,0.4775109111498984,0.5129556308764878,0.5299765921508606,0.6726278384724664
1.1211211211211212,0.5476964497919876,0.48463084732171074,0.46721024979290654,0.5570329560378697,0.5513049905932297,0.4964445617518081,0.5400728133606609,0.5087051508071962,0.5571128081561086,0.4433339791078952,0.45756860854554365,0.4285313985368277
1.1261261261261262,0.4133385615147674,0.47423185538368084,0.39338090573050405,0.5510922680573298,0.5500587305952043,0.46384685147864546,0.5674778398836483,0.5008240241536376,0.4730496166748508,0.5581855974422334,0.4459805492233182,0.42030086155938784
1.1311311311311312,0.4156097837718253,0.45373422487370435,0.42792887833016224,0.3517476280635581,0.4233116549454028,0.4385185397949737,0.36428385747975545,0.4063321404681291,0.4523159141924616,0.4790255487096935,0.4186518923689134,0.4369754994736881
1.1361361361361362,0.3644150236804535,0.3160045556691396,0.38132091243549954,0.3766933229730026,0.44356660440553464,0.4112144222275777,0.39663926615478684,0.3766794520728684,0.41979795831914746,0.39642087935263803,0.30402506876676527,0.3732201965843022
1.1411411411411412,0.3370917369660882,0.2807944953327438,0.38135392790200656,0.25944588912565136,0.3278119148365376,0.2897145325832476,0.2323345460268177,0.26895285063089164,0.29804069208260425,0.21274770133749193,0.36535032419925,0.29925367655344004
1.1461461461461462,0.24992478508831478,0.16207674206080508,0.17907031412886437,0.25170122765361047,0.22177059829007406,0.21839182747099342,0.229845767347358,0.18272763365534903,0.21722977119660414,0.23984160155479314,0.21601673657164833,0.3357455366553428
1.1511511511511512,0.08511765908774752,0.1198273747123576,0.14698305144155344,0.17702637590884207,0.2606447969263229,0.07883774818659627,0.1571844535160474,0.13620458539264216,0.2044810379455807,0.13987703033203305,0.12647422598174485,0.16724165992382495
1.1561561561561562,-0.1471226150864265,-0.11788527684001306,-0.11870500860360485,-0.10798966844399327,-0.1638481300165909,-0.16860859247787813,-0.11507118007807884,-0.21182800332772733,-0.11924058674156163,-0.10348052293010505,-0.15925935696347782,-0.19819609244300454
1.1611611611611612,-0.27770142988313823,-0.2089421910016709,-0.22907359030474028,-0.28623539559555666,-0.23625629738635434,-0.21516114200020184,-0.21353984350324745,-0.2955538768429579,-0.27785138898906786,-0.2458379306998731,-0.31103135025029893,-0.30659178751349614
1.1661661661661662,-0.2767120546095711,-0.2851372022545311,-0.2972247202816625,-0.32053319285975007,-0.3515536373975706,-0.3172081009423469,-0.2887354410263102,-0.31894078467201714,-0.3636358665137723,-0.3664057994247778,-0.2053550653673265,-0.32576624422664296
1.1711711711711712,-0.43619960156185345,-0.28784368718940007,-0.3588184378539966,-0.3471988009277359,-0.3738149896466369,-0.3074868909211764,-0.4011408416020388,-0.38311999296669513,-0.37942357076879085,-0.4194342542847979,-0.3907920123178579,-0.35358105461590483
1.1761761761761762,-0.4581228635802047,-0.4322203307210683,-0.49489111783021184,-0.5072967376338509,-0.3606980085524272,-0.3995612450663915,-0.4766266857232224,-0.3546049080657534,-0.4665577276694013,-0.4307363282417481,-0.4227393554687279,-0.3970971599760637
1.1811811811811812,-0.4601712867739964,-0.48938618516428084,-0.46058366799751216,-0.5530177408991963,-0.4228238624656256,-0.5408455504074121,-0.49456579927198036,-0.5389265289354461,-0.5036710602222569,-0.43353648293735303,-0.47953361492835506,-0.4430698583436175
1.1861861861861862,-0.5493437449595154,-0.5051380066459985,-0.46416097176188137,-0.6159748536429239,-0.564741446328217,-0.44265775899720927,-0.4790255665789953,-0.48849430960774365,-0.5825912589908464,-0.46326233823260055,-0.5256163338302571,-0.46789286030887767
1.1911911911911912,-0.516560190497677,-0.568008054321406,-0.6220719961330053,-0.5771829709482026,-0.5930446917741303,-0.6167440144521468,-0.5645918732796132,-0.5714702044428331,-0.47276999768282374,-0.5176246404760773,-0.5699020014462188,-0.6379414675592361
1.1961961961961962,-0.49259796971433556,-0.5803972300675431,-0.6071862603541277,-0.6542653273065195,-0.5984203273040289,-0.5449437015022995,-0.5721173741750989,-0.545642715629598,-0.6027942784164323,-0.5793077149550706,-0.6712781160377475,-0.6837336483235602
1.2012012012012012,-0.6463446318071799,-0.5798532663397821,-0.5793268656994557,-0.6218521398214825,-0.6098389983896564,-0.5613787562817776,-0.5930974880382178,-0.5664452587937752,-0.6382943205703883,-0.5728461908752934,-0.6227903569624433,-0.5999932531733084
1.2062062062062062,-0.6480649032375156,-0.6168407805974954,-0.6001573115607154,-0.603960563646633,-0.5875762996441091,-0.7749165802873897,-0.709045210368098,-0.5950098081184083,-0.6857638739467465,-0.6121081589347482,-0.6030688339938873,-0.6247157971619522
1.2112112112112112,-0.6856062768568129,-0.6435904824335992,-0.7129711976045863,-0.6285914839313514,-0.7322152901089043,-0.6678938535299078,-0.6584989526812638,-0.7002144028100934,-0.7290299340880304,-0.7314029563257298,-0.6565520405098132,-0.6598629483521119
1.2162162162162162,-0.600479251140534,-0.7264020313658442,-0.6608154835635621,-0.6819908074980592,-0.8142596996317847,-0.71722942265766,-0.6438141033487447,-0.6755981605800518,-0.7175846470839545,-0.7422579186377456,-0.8137254016651717,-0.6398013008076756
1.2212212212212212,-0.7474596843179658,-0.7110812466271679,-0.7126795073079307,-0.774586086310076,-0.6855143605371532,-0.7117712595858224,-0.7816444304694452,-0.6900985680042379,-0.706016785428256,-0.7470722627420652,-0.7722311507929653,-0.7202007126659034
1.2262262262262262,-0.7308559510502005,-0.8420936577014986,-0.7206366653034173,-0.7376484059692151,-0.7910367156301635,-0.6823574003914845,-0.828034763544461,-0.7059391593730249,-0.7830255118871771,-0.7010530533178915,-0.6830628056052325,-0.7207759287494102
1.2312312312312312,-0.8255865905966376,-0.8706907096979152,-0.7181623363773647,-0.7628260641230018,-0.7924513959491954,-0.6774875073182528,-0.8482608402341146,-0.7091078218755499,-0.7704316870968706,-0.6905878040255798,-0.7784415729335004,-0.7642972056346516
1.2362362362362362,-0.821141721872604,-0.7704040997962559,-0.7611922874572964,-0.7988920474161997,-0.8636804208698647,-0.7683335934875141,-0.8180839055936014,-0.8002881692812743,-0.8377125829865537,-0.6986278084449902,-0.852099518791849,-0.8066119093634156
1.2412412412412412,-0.862445542592035,-0.8159050354886433,-0.8310233564656757,-0.7793473522760692,-0.7991416065283118,-0.8885148875520512,-0.7842162650624891,-0.7892652526926021,-0.7301297542576259,-0.8950400598673339,-0.7697073747166274,-0.8725090598673495
1.2462462462462462,-0.8408615890213881,-0.7461064489846971,-0.8447833594516984,-0.8335256277459675,-0.9241657268504437,-0.8981555291732023,-0.7726774693936035,-0.81656641815531,-0.7446641514839196,-0.8406524995746844,-0.777581901695441,-0.881513352192507
1.2512512512512513,-0.796301395802469,-0.8462533407234799,-0.8424341853840112,-0.9041764834185739,-0.9034575745672102,-0.8345012449310595,-0.8916719517203269,-0.8542260638458692,-0.8020748648496371,-0.8624553353830801,-0.8539053008293064,-0.8229879201436162
1.2562562562562563,-0.9991557591145439,-0.8353082940798061,-0.8031818359521793,-0.8801448091403634,-0.7892598795136955,-0.8485652316753473,-0.86964345411076,-0.9045746707600606,-0.8080662188006287,-0.908553868448274,-0.8170229434941435,-0.7759405672326414
1.2612612612612613,-0.8553050304458064,-0.8688042159138681,-0.9724264125936455,-0.9181611472719007,-0.8106471426955921,-0.937249567442409,-0.8532620753812596,-0.7876403032984765,-0.9155986555449773,-0.8477505618212221,-1.0094115690313605,-0.8038500728296938
1.2662662662662663,-0.927899629706289,-0.8939647136091314,-0.9681219140063467,-0.8115232010765207,-0.9418856806759127,-0.9172545165569702,-0.9435491193385132,-0.9258417411780756,-0.9316450291819919,-0.8183526386617619,-1.0215579430680184,-0.9723476090374106
1.2712712712712713,-0.9105213660052979,-0.8803887018548523,-0.874185430925553,-0.8832713449978745,-0.9604926663354934,-0.8386546151712614,-0.9369255109323537,-1.0148912377463866,-0.9075085643278745,-0.8382909289906493,-1.004194591978394,-0.92695168261085
1.2762762762762763,-0.9812887668577334,-0.9296231097589238,-0.9438326021026398,-0.9078079507131058,-0.9348419836490752,-0.9344976874449031,-0.941810642020414,-0.8976814086241552,-0.8687207795772838,-0.9706405514914995,-0.939126525977902,-0.9522189990930352
1.2812812812812813,-0.9292058726964986,-0.9200276992066561,-0.8554079501687986,-0.858463851447194,-1.0305176437593477,-0.9201193137153674,-0.9546992064540851,-0.9239772165565685,-0.9941095807849328,-0.9786548184932189,-1.0594483766190772,-0.9946296898796078
1.2862862862862863,-0.8598640996456786,-0.9108915670147615,-0.8820189950387306,-0.9477157873090676,-0.9535609055516772,-0.8944420801115034,-0.8855969730501885,-0.9183666582063601,-0.9308393769632914,-0.9068784776193742,-0.9520177498715914,-0.9815192444346249
1.2912912912912913,-0.9404465081018629,-1.0004017631082291,-0.9184344841490295,-0.9126747756391801,-0.9712423194794849,-0.9177171898194433,-0.915014301938166,-1.0300454370872991,-1.0025635235996246,-0.9635093825055417,-0.8839421454546244,-1.0048719511228643
1.2962962962962963,-1.0268540119575515,-0.927352612796695,-1.0523132150523573,-0.9021222082504421,-0.9947891449375142,-0.9568106339411191,-0.8809510281430749,-0.970899748175417,-0.9329727509482927,-0.9313807547461607,-1.0446795747266915,-0.9619273544274194
1.3013013013013013,-0.9393540793910181,-0.990942211751174,-0.9236922824593796,-0.9570274443606571,-0.9900941212361306,-1.0177148711710233,-0.9890315266132226,-1.0301337798836618,-0.9251072324844994,-0.8674671871218553,-0.9779447565254591,-0.9908173463764046
1.3063063063063063,-0.8938325148404187,-0.9637198022949113,-1.0357603097964803,-0.9665854181818737,-0.9759180443517624,-0.8933997327002914,-0.9363351986833045,-1.0221630874264795,-0.9550800411866023,-1.0045792261404007,-0.9707046242281818,-0.9713376699428135
1.3113113113113113,-0.9843971568536327,-0.9466951258399862,-0.964471275678401,-0.9072909814062304,-0.9266616650817754,-0.9820791415279513,-0.8194187128241491,-0.9921291958649419,-0.9968222284569322,-1.0077392090538204,-0.9901578151713324,-0.9501183008304761
1.3163163163163163,-1.0187767958283276,-1.0117652494089981,-1.0065761650353064,-0.9691424942061835,-1.069997572871759,-0.9769502991999833,-0.944146273055812,-0.8432526597130385,-0.9916530752719185,-1.014819344299637,-1.0267381661170862,-0.9361397811391086
1.3213213213213213,-0.9750063060406488,-0.9645057210852516,-1.072497852356031,-1.0910998118074975,-0.9818009014983685,-0.99465819040735,-0.9810419194116471,-1.058977882994515,-1.0277684389641182,-0.9466098272227119,-1.0038740936928452,-0.9639892304997877
1.3263263263263263,-0.9205921648282778,-1.1014356204141895,-0.9522032062457599,-0.91592789602028,-0.9619755249115421,-1.0343116520703803,-0.9648283151712858,-0.9005011485851752,-1.0318177633586851,-1.0026204052173222,-0.9815553667592801,-1.0221938869775458
1.3313313313313313,-0.9282072820567181,-0.9622133986816469,-0.9747711997147676,-1.0173538865688843,-0.980750556800741,-1.0203547756815792,-1.0179492688744147,-0.9064404010367632,-1.0315727731706126,-0.9666289744373517,-0.9660551370682158,-1.0634627072516603
1.3363363363363363,-1.0264885422631511,-1.077322583477737,-0.959783610597004,-0.9495859542252054,-1.017560318100048,-0.9470342184557875,-1.0230103366392926,-1.0118291158497725,-1.0073498332971274,-1.0211206858456165,-1.0053823069376289,-1.001895724108553
1.3413413413413413,-0.9298532908822276,-1.0785023390645883,-0.932591923287679,-1.0499793498568315,-0.9894622237890921,-0.9379501090670559,-1.0426961944515607,-0.9947080274688966,-0.9841605706229793,-0.9859466024783579,-0.9946384949703543,-0.9417448268313757
1.3463463463463463,-0.9464635320213728,-0.9412146371838139,-1.016870958834973,-1.028858821987996,-0.961509961375628,-1.1033044661593432,-1.0250730054611674,-1.0552788226336873,-0.9487179097804969,-1.0445851086579452,-1.093301109796415,-1.018206904248853
1.3513513513513513,-0.8892904339206135,-0.9521494086126372,-1.0370075589049297,-0.9118444838558858,-1.016728061362399,-1.0371324598084901,-0.9765665735311931,-1.0066184004806291,-1.015252232205752,-0.967956492908168,-0.8831407761938462,-1.007667421626354
1.3563563563563563,-0.9696170971740905,-0.9827809722541416,-1.0632650044296432,-0.9798394200410032,-0.9362390547446674,-0.9958896795144805,-0.9484244007475319,-0.9875684119949291,-1.0711935186362973,-0.9643648904774009,-1.0708463556086765,-0.9881513792144327
1.3613613613613613,-0.8702893240800265,-0.9676099974712918,-0.964894956692435,-1.0571702659328817,-1.0123721961948418,-0.9904380775528433,-0.9468327426829766,-0.9666884622363481,-1.0109592826547056,-1.0580524689108362,-0.9497217488513113,-1.0096256409384212
1.3663663663663663,-0.9975916824603658,-0.9708324711756778,-1.0557053871455884,-1.0182877514948823,-0.9798172280363392,-0.9765281830098195,-1.043082905509001,-0.940774356095538,-1.0472043481849018,-1.0930792207910296,-0.84919433754714,-0.9796786200222019
1.3713713713713713,-0.9992524182420434,-0.9824377966454751,-0.8237126105906822,-0.9619390846346456,-0.9804723716241698,-0.9912154447581898,-1.0514679461058227,-1.0879508063051397,-1.0328130559211885,-1.0526814345199007,-1.028067815636455,-0.9807845762036913
1.3763763763763763,-0.8974642817557712,-0.9803669268668838,-1.1402304802867216,-0.9389176508949963,-0.9610454517679531,-1.0433491880603745,-1.01202077406329,-1.0274241010968077,-1.0004415158826756,-1.0021944796244862,-0.9878590893439304,-1.056416037801348
1.3813813813813813,-0.9837350746269864,-0.9246649772524776,-0.9222658341852923,-1.0509324008852066,-0.9760026552795293,-0.9781611023075469,-0.9909198702735289,-0.9478136179258125,-0.9886440097753016,-1.0124170021681798,-1.0363649058214432,-1.0292450745177508
1.3863863863863863,-0.9491874667706847,-0.902995281186919,-0.9674615588064215,-1.0183224181452082,-0.9243663806685698,-1.0235564585331367,-0.9939499066282168,-0.9692604481287004,-0.988662100556144,-0.9890992547927561,-0.9637834842051486,-0.9339789239363042
1.3913913913913913,-0.9530686889793689,-0.9392751654886522,-0.9712661631402896,-0.9766046298674091,-0.9887543741170323,-0.9216013438523526,-0.9528426043072522,-0.9400831910996426,-0.9887366248177183,-0.9266507329202693,-0.9712657708548765,-0.9679090259617533
1.3963963963963963,-0.9430194078080553,-0.9839793596122494,-0.966236102615181,-0.9772306416298809,-0.9878933413486876,-0.9742842283666268,-0.9467287725058935,-0.9963810595994894,-1.0153324310003689,-0.9335893211020081,-0.9415063239964891,-0.8729031397833498
1.4014014014014013,-0.8608073180314485,-0.9981776986484194,-1.0162210126387645,-1.0089722407167396,-0.9135283982689558,-1.009449978247813,-0.9010221568450967,-0.9296425619304272,-0.9393225674158234,-0.8674144172314426,-0.9238485877877266,-0.9966763408836021
1.4064064064064064,-0.9767379017507817,-0.860281992444258,-0.8850366274531907,-0.8821380128919589,-0.9559314131682011,-0.8520971550786911,-0.9902598538266718,-0.9058139980257386,-0.8651806820007544,-0.8715028586008758,-1.0238549111186215,-0.9582558236616268
1.4114114114114114,-0.9829027388907638,-0.9309752386357423,-0.977115233218165,-0.8713742756143094,-0.9332556613771711,-0.9420367021481346,-0.8998661858258445,-0.9310633340800754,-1.0182818850402091,-0.9089841190223454,-0.9440140597326793,-0.9616075123250283
1.4164164164164164,-0.9182038266565014,-0.9763345542297615,-0.8136589363260421,-0.9112954949500168,-0.902241344656041,-0.9225935245864197,-0.9559012750842826,-0.9157266624051332,-0.9576528564722798,-0.8223523547374627,-0.9619117519504671,-0.9325305436366779
1.4214214214214214,-0.8051472587920319,-0.916271963822112,-0.8833972323348325,-0.8326487528196596,-0.8261995966265361,-0.8939857757801289,-0.8601323946235457,-0.9568561899119117,-0.8348699567266747,-0.8749402671355677,-0.8617542928131485,-0.9310150001079174
1.4264264264264264,-0.9878974365071933,-0.9311966126982538,-0.912175872302014,-0.8772253127321895,-0.8636865500978369,-0.8325372632644605,-0.9050907051955697,-0.8918624639041862,-0.7919457056114925,-0.9305991533079732,-0.958310136386636,-0.9438534194813857
1.4314314314314314,-0.9106960875153075,-0.9246463191024665,-0.8609184821822575,-0.887957174741823,-0.9330332977113877,-0.8642883757824819,-0.8671636454242825,-0.8033269461688838,-0.8928794397423576,-0.8566344821679577,-0.8955518690295253,-0.8536929254908743
1.4364364364364364,-0.9336437460201753,-0.8619548446773657,-1.0052148246699981,-0.8678808232451057,-0.9202913131121955,-0.8246914877536067,-0.8471918595085192,-0.8541680535258076,-0.8566690930850746,-0.9384999616461669,-0.8401047292547156,-0.7692263881397186
1.4414414414414414,-0.9359787748719451,-0.8608206971061265,-0.8326143048879526,-0.8183252024795471,-0.880734596033273,-0.826151878401081,-0.8285919094947484,-0.8267262617854544,-0.8486468326180946,-0.8822219834180967,-0.7994022308198911,-0.8099845776986782
1.4464464464464464,-0.8615595691377017,-0.8750974174488776,-0.872756225749622,-0.8031803538743946,-0.8889505211129735,-0.8654560351094738,-0.7950900309501268,-0.8669097836172015,-0.8308711728660034,-0.8859265539300453,-0.8455055232529066,-0.8080801577174824
1.4514514514514514,-0.8342962517703516,-0.8654377652701027,-0.7814233143689696,-0.8789855532223471,-0.9114088385040766,-0.840540621021861,-0.7494107910422334,-0.8787668279289654,-0.8089975128085697,-0.7570580620888087,-0.7483955093295844,-0.8305262827378832
1.4564564564564564,-0.8478930256080235,-0.7576868136340175,-0.7462116544504338,-0.8383027368155889,-0.8336877925875122,-0.80621528764715,-0.8078567904556267,-0.703550381580815,-0.8270780542743356,-0.7212668504458947,-0.8716538602750658,-0.8978681253343658
1.4614614614614614,-0.6845769903585648,-0.8237273066314078,-0.8231434705397719,-0.7107410927675656,-0.7887669124040089,-0.685063066962329,-0.8357936160939192,-0.7623712759050639,-0.7899406297157543,-0.6916078004081101,-0.8724858663201229,-0.7548535182887289
1.4664664664664664,-0.7348468329434368,-0.7488587839403943,-0.6678406710246095,-0.7746687925762543,-0.6861831883171512,-0.7448911289563152,-0.7569019898910805,-0.7874141819012812,-0.71795281750771,-0.6231694301100834,-0.7428267854708347,-0.7301105148614931
1.4714714714714714,-0.7260707547384361,-0.7516697044486647,-0.7262133488767294,-0.7369383011627497,-0.8133973652149333,-0.7073969323455394,-0.6642637496721896,-0.7724994203720514,-0.6999603346893715,-0.7321282682241822,-0.6652166157324059,-0.7292973435822724
1.4764764764764764,-0.7402441541684361,-0.7158951729446797,-0.7541685244988765,-0.7292166695213671,-0.6822061582398965,-0.7167018688364039,-0.6309821793570776,-0.6908265149297435,-0.7023534222807919,-0.7153277004369434,-0.7109449420913609,-0.690245948624308
1.4814814814814814,-0.7512870233152558,-0.628160380561556,-0.54069927030181,-0.7046379023347273,-0.6751217785823443,-0.6299038973666042,-0.5936877616450318,-0.6019515580910607,-0.5358318187745775,-0.7545481293420063,-0.6950546995781275,-0.7301401175698583
1.4864864864864864,-0.7236852823909493,-0.6157107155192416,-0.6511755443436109,-0.5943758366862034,-0.5674610487831857,-0.7323085699082397,-0.6157272358284492,-0.6609871156786892,-0.7017545407112196,-0.6049428551788292,-0.62125337627537,-0.6167666261670642
1.4914914914914914,-0.5953615669256381,-0.6023815533368395,-0.535731242960712,-0.6592253659086128,-0.57239114932281,-0.5921519559571864,-0.7028868726289296,-0.6237944099365292,-0.5961879016528527,-0.6062214276583422,-0.5813604025129485,-0.5599577414089096
1.4964964964964964,-0.5931322113733158,-0.6101035317932516,-0.5766403172017337,-0.5992077655709827,-0.6110932970490874,-0.5551107603004298,-0.5294758585608047,-0.4836446746725926,-0.6263955413996789,-0.5536172387767778,-0.6386833856739573,-0.5337912433639765
1.5015015015015014,-0.5528889181988169,-0.481096108692052,-0.4553747317881872,-0.5933039568855879,-0.5297521408538297,-0.5198580784625552,-0.49156792180566716,-0.5715242889908456,-0.6132516110777891,-0.46644521924643656,-0.5510010422437757,-0.5693371881952553
1.5065065065065064,-0.4491958913750894,-0.47309302370236556,-0.4648136483370826,-0.5198436121390508,-0.4855499771602958,-0.6127146066761273,-0.527212430855431,-0.5806611536260327,-0.4269708311755422,-0.5279273016454494,-0.5333390392760508,-0.4867061017463514
1.5115115115115114,-0.42255110329597134,-0.3800437064958609,-0.3683318683001708,-0.4813380023924061,-0.4491956718342692,-0.5952206914767171,-0.45395191308093774,-0.4428037882766365,-0.4686271686101884,-0.4189310325485997,-0.45517296407943064,-0.4879675780097916
1.5165165165165164,-0.37587832974272684,-0.49006414648595964,-0.44489832293554327,-0.41668149928843057,-0.39960989462475616,-0.41173621650250203,-0.47591082098405035,-0.43240573923447023,-0.4507162582297377,-0.489813650563077,-0.43062484128935835,-0.4082218260284156
1.5215215215215214,-0.2986003614020216,-0.41383885214538774,-0.40043008892900733,-0.36353366446250757,-0.2656070532259706,-0.3050824151732707,-0.3336868995153232,-0.41432054915424005,-0.27506382849078426,-0.33101247475597284,-0.3728972826066152,-0.39424061456349996
1.5265265265265264,-0.3338553954611625,-0.325613995261343,-0.2879519215014216,-0.36959156660927445,-0.29031575372885615,-0.25065930565627653,-0.3143487082964653,-0.3580817119258199,-0.23781239714969793,-0.31659163387976225,-0.39232739090155955,-0.33563158537835847
1.5315315315315314,-0.3537424788793191,-0.2935834222144357,-0.24193105550199,-0.2975374604874068,-0.24990566784533905,-0.23549333733103534,-0.285490985975174,-0.24564313473654958,-0.1716554311625269,-0.24676088163145574,-0.21562310462989348,-0.2778222712802515
1.5365365365365364,-0.16698247599880744,-0.1333772459239921,-0.11719714239911559,-0.23647992440187493,-0.21220304231444126,-0.10628158698279888,-0.08869001127812592,-0.1436737921704105,-0.07223314874180917,-0.12138730783670272,-0.13785269382035134,-0.11784441732991374
1.5415415415415414,0.129740889910127,0.2120884142460986,0.0927631333056517,0.20883445479326412,0.20669206060693268,0.04861868248643009,0.2198558882986489,0.14221504113163427,0.13235146563748112,0.11614125800593786,0.12185516274049135,0.0857775530351874
1.5465465465465464,0.21419989326331468,0.19024395307425462,0.18701246658630186,0.24717758672093038,0.2711499216560511,0.2439184416839328,0.21172861645933228,0.30916439225956627,0.2276636344648523,0.30796421247208106,0.31151093272697467,0.2569772907964242
1.5515515515515514,0.2346100103121056,0.2574808399350995,0.3169579966740216,0.31062000299314746,0.25978193049353365,0.3138534481019546,0.3075188167912858,0.327472334708199,0.31279289587863124,0.31949804897640277,0.3324164645928279,0.26751279262100436
1.5565565565565564,0.4420431572626364,0.3749549656500819,0.30884096819184614,0.44617848557242723,0.28389970747021953,0.3614438488480589,0.3282792896143496,0.3546625952175608,0.3959962681968873,0.44963641345594146,0.3730320297122346,0.36863994700372665
1.5615615615615615,0.36675299930551025,0.5226595205443189,0.4396714600827373,0.4086918776625688,0.37856634007793344,0.5039203783377882,0.37848500084407244,0.41199314420454236,0.4332591766685425,0.4122186560259364,0.4692903817757921,0.37192576958613527
1.5665665665665665,0.5927849946609318,0.5395229640215282,0.5134805081648525,0.3931669267517782,0.4438506080386474,0.47212452403708444,0.4361648283361855,0.40547056983412205,0.45944764645097885,0.3792564473634976,0.4331038300504074,0.5807947902871179
1.5715715715715715,0.5006244666410745,0.5060639644853732,0.5229193813513469,0.5664929471306445,0.49204180492868177,0.5526245001518384,0.551761961982943,0.4894426224341199,0.4781050886133297,0.4912468852736745,0.5366673792269384,0.5538289485224792
1.5765765765765765,0.47033191768096355,0.5122420153740839,0.5171131521340937,0.5374093591426197,0.5647661973392255,0.6213905536041835,0.5020202190817847,0.6281690631853626,0.6131135323839837,0.6078013320431239,0.4734091444052585,0.5576745221210591
1.5815815815815815,0.646921961642999,0.5661008257320125,0.6292325039349508,0.5542822257676064,0.5546029848666663,0.6168229461360546,0.5321530315168119,0.6473862427293602,0.56937728180841,0.6176705728344999,0.6110613739205225,0.5719071826073262
1.5865865865865865,0.6607674431498859,0.7000327480399284,0.6583444318095916,0.5109775415824576,0.6731735114060564,0.5557964933845431,0.6300920079521122,0.46885310251846646,0.7030121041261345,0.692931814538443,0.6312396071945444,0.6505676982475302
1.5915915915915915,0.6452691115347131,0.6867819651669455,0.5992871978855598,0.6266167186888592,0.7179619467253031,0.6161229025737024,0.6892199758415418,0.614259569526435,0.6860333890337806,0.637551172114065,0.6616748800425587,0.6464240545474982
1.5965965965965965,0.6340032163755952,0.6291855606296922,0.697080550431254,0.7353422413352865,0.6373573741389961,0.6816444989596847,0.7524846089786735,0.62471602293943,0.6690177417545967,0.687451771502265,0.6914709416437579,0.5783621628006886
1.6016016016016015,0.7322139817508498,0.6744433006627175,0.7127559113131285,0.6993706417844481,0.789399317610014,0.737019701392431,0.7024702791950286,0.5563822164642402,0.6861512925642994,0.7088152004332738,0.7330708847350322,0.6795506502142145
1.6066066066066067,0.6892531203446882,0.7730603684506008,0.7688238081239449,0.6958978982989847,0.6863843637284303,0.6809771841536036,0.7866715263582923,0.6851066032831475,0.6642188138873851,0.693358476088377,0.6865754817814633,0.6356634755642259
1.6116116116116117,0.7385127155041636,0.7657415918604176,0.8062190844023647,0.6656682306403864,0.7838213575693549,0.7369637187578384,0.7635061080569246,0.7266529279060502,0.7545230747205228,0.691102707129601,0.7302531878377005,0.6961835166195462
1.6166166166166167,0.6900079136477054,0.7390526149219454,0.7630396787461987,0.7041691582199886,0.789349840039075,0.8133692546130102,0.8317099747189891,0.7224976601069447,0.6954394604433354,0.7645274052197103,0.827390439775848,0.7781709287609873
1.6216216216216217,0.8091022485529813,0.7921528687645101,0.7875667285178763,0.7970378879748249,0.8202016477029725,0.7862125935406554,0.770995662605499,0.8028206967743957,0.7689919106526556,0.7305221199847831,0.8076404516483161,0.8736749008157622
1.6266266266266267,0.7970570875213905,0.776346062077978,0.7215158621983365,0.843219210156028,0.7403530978657409,0.8857054737186767,0.7991220894284283,0.7807719304581802,0.8768962993045362,0.8897961485598749,0.8208148732759853,0.7880799285089668
1.6316316316316317,0.7291653329473555,0.8166180568138096,0.8583901427836518,0.8733215121742592,0.8511654906265496,0.8008787504230177,0.8481821629905971,0.8567111836036883,0.7708123013893119,0.8311804573825728,0.816950978450078,0.7910139447686909
1.6366366366366367,0.8016223840621419,0.8509582228272323,0.7826907951542302,0.8095850601830908,0.8277947086681006,0.8618412961917264,0.8927909385224043,0.9223391524739832,0.8900822147895895,0.8891700033713701,0.8021184663658044,0.8127857488759483
1.6416416416416417,0.9297046175172299,0.8147220972179027,0.858656350082502,0.9001317376864766,0.9316061080453016,0.8153344582753478,0.829227237820459,0.802685623843916,0.8714582632017459,0.8607181999308288,0.837833849846595,0.8405194112705214
1.6466466466466467,0.9245963570790621,0.9056015232031448,0.8243409839696493,0.9813859478768446,0.779513652026112,0.8392463387554221,0.9467530193701719,0.9288569060186039,0.906196336942403,0.8872357663864353,0.9251252946508658,0.8859226352020425
1.6516516516516517,0.844060367643549,0.8804790164003723,0.8918728491837319,0.8864301839217261,0.8712905815995812,0.9306436960012389,0.9011404683774922,1.0038249599669562,0.8949030633309093,0.9240947673999415,0.9292567208996639,0.7968868538245537
1.6566566566566567,0.8819755472872591,0.8614717978216521,0.8525494758968432,0.9208056614324567,0.9203140392624417,0.83740270619864,0.907389677891731,0.8960546268759652,0.9288506945983803,0.9337273524747024,0.940821146907124,0.8666087323537011
1.6616616616616617,0.9714475718569171,0.8542706778127398,0.8722503068365625,1.0397469949014155,0.8993158304152704,0.9058774096742287,0.9641347787825214,0.892726924608184,0.8249081070703637,0.9469099994571336,0.9506466012755386,0.9291312662890729
1.6666666666666667,1.0154987197700291,0.8664451662553,1.012197583668593,0.9955193203876875,0.8893820053744406,0.9152833896483215,0.9879352069968254,0.9796231517454722,0.9222938888474385,0.9569545269907735,0.944087131848571,0.9517898071470996
1.6716716716716717,0.8808259614191928,0.8491477215541333,0.8576055103584818,0.924934419055432,0.9041331496159553,0.9260887083599407,0.8671905137123491,0.8454333956862147,0.9677700182781896,0.877849817598505,0.9457327079990582,0.984047035045294
1.6766766766766767,0.9328964192343342,0.9330776864431519,1.0017028911631742,1.0477260897554432,1.0821498027908996,0.9625183405331179,1.0687754691811637,0.9076862098787015,0.9623421286361513,1.0163850656218163,1.0351821874906768,0.937128315421629
1.6816816816816818,1.067656817328503,1.0030847841808719,0.9740631079328926,0.9020650092429615,0.9460377666587753,1.0334102910620047,1.0172184928065038,0.9594515732875628,1.072366165757878,0.9692505202037737,0.9537699547412685,0.9727047107268082
1.6866866866866868,0.9257999552794621,0.9221042465510826,1.0122161723127434,1.072256215051576,0.8733685679555864,0.9723093561238972,0.9882001318141298,0.9185736045755046,0.8903121794918647,0.932724986449722,1.024806098297583,0.8695177407852721
1.6916916916916918,0.938846834988241,1.0678636767533844,1.0056400011846174,1.004674523980452,0.9890221195812262,1.0289761134295263,0.9408063175305925,0.90056482610698,1.0355720941320368,0.9684954522682735,0.9035177406013256,0.9452856871956904
1.6966966966966968,1.0441908184400956,1.0894559602676621,1.0041408100133045,0.9691736096211622,1.059026858837449,0.9504267265711925,1.0068789260818276,1.0089803302067333,0.9350157897841915,0.9838118144446342,0.9626348569657913,0.9844719623548717
1.7017017017017018,1.0303957151516618,1.0467438520732206,1.033414608958289,1.065557423769333,0.9880195052066475,0.8696103926180223,0.9718210657171843,0.9854854343869264,1.0128295014246267,1.0168411687622905,0.9398156337154195,0.9866748596773195
1.7067067067067068,1.0047850443570376,0.9221743601188076,0.9611488962678381,1.0604818562104974,1.0252794772168192,0.9060630889808516,1.037799111393003,1.0263077112280725,0.9177575455386952,0.9718170617928271,1.0498664467768808,1.0013824069591124
1.7117117117117118,0.9382007437990094,1.0016337573086713,0.93920196446383,0.9481080716686917,0.949959055916002,1.0810185002808776,1.0523130614039495,1.0191026072176663,1.0300846995052204,1.0281909245947356,0.9890641839452912,0.9738509039435016
1.7167167167167168,1.056336295871564,1.0472094043041107,1.0191419136099218,0.9445256927592436,0.9566955436715725,1.0313809534007015,1.0049790691670197,1.0405175074517157,1.0796661201628885,0.9672210553844887,1.0069129550639027,1.0014929914644655
1.7217217217217218,1.0570014109350203,0.9694420511599467,0.9137424692388191,0.9293856892864689,1.0102386087697588,0.9687084793830778,0.9146427323087454,0.9367331256104249,1.0200140735589192,0.9840927533278849,0.8965069778642243,0.9802537947937585
1.7267267267267268,1.0248559848680134,0.9753812245970482,1.0149419463356075,0.8964417647720447,0.9260269107488688,1.0356968182956503,0.9478748075797779,1.0055759819105743,0.9189563718057874,0.9900423977350563,0.9845461344784058,0.9674556337851957
1.7317317317317318,1.0153812468518155,0.9837157929021866,1.047806863900978,1.0268289529569674,1.0054219099201829,1.0214399001274064,0.9996396116945288,0.9658419030314472,1.0207710943581982,0.9652353900854391,1.0781324431158663,1.0944503790684463
1.7367367367367368,0.9725779957016931,0.9589616034431263,0.9868490120672148,0.9875184913560902,0.8928316798913679,0.9914900615503666,0.9769712436405148,0.9875291426122432,1.034399169604183,1.0640109082393983,1.0550319014032714,1.0048124381701482
1.7417417417417418,1.0153576205264692,1.0628817414625706,0.9966413643941083,0.9942833699661603,1.013820435581266,0.923088608887998,1.0200623708069059,0.9581693976258856,1.0309381715001378,0.9382312824582049,0.9944298967078061,1.105973656900339
1.7467467467467468,1.009677078103135,0.9900295025258173,1.0572272609605973,1.0529634217665644,0.9855674132679906,0.9327031232808989,1.0255388561295677,1.0036250815407712,0.9795207223070974,0.9345524279552064,0.9937705617775658,0.9400804824640141
1.7517517517517518,0.9761349324075453,1.0173953304380248,0.9576005431315451,1.0623222026638297,0.9166777962749231,1.0516681485004764,0.9925295094411098,1.0358376351702012,0.9673870287677206,0.9541953518497748,0.9897461857362426,1.0371759820664928
1.7567567567567568,1.018066555370615,0.9867709209190559,0.9699743933413308,0.9666086107246927,0.9101208329200825,1.064272958007066,1.0501610739759932,1.0724903306323952,0.9816049037850023,1.028926238494641,0.994598327883631,1.025409411307147
1.7617617617617618,0.9182150125473107,0.9993653027409238,0.9498895572503816,1.0261701683914177,1.010564584641509,0.9569407895021772,0.8552349960057255,0.9747626267279422,1.0128423124754342,1.0025801719805039,0.9600759559669728,1.0116615905386148
1.7667667667667668,0.9356788950498256,1.014210960687939,1.0310861335270631,0.996512552807227,1.012625778551609,0.9771265348010632,0.9690820371281748,0.9736585476200449,0.9016745770936838,1.0027839037622428,0.9540023657771128,0.9434356631433838
1.7717717717717718,0.9839557941223276,0.9276583079348604,0.9351257172507963,1.0427144383904734,1.0078179342321747,0.9619371925029171,0.974397508591011,0.9881246212826602,0.983204802003628,1.0097636652624016,0.9664126055504346,0.9973829577122761
1.7767767767767768,0.9028805884531622,0.9112434282159184,0.9594071958894991,0.9084286667701081,0.9105281486974115,0.9268052129099458,0.7964887091068615,0.9783942900357472,0.9585347736260251,1.050182876061432,1.0178276832567608,0.9307895741523277
1.7817817817817818,1.0012485183448527,0.9544938296470805,1.0086975862698129,1.0353134863184528,0.9804867173391922,0.9201668004180591,0.9279837382010407,1.0159471036197818,0.9475549438861771,0.9320053424530315,1.0157958742108961,1.0164740324280994
1.7867867867867868,0.9683281811651655,0.9726956487369028,0.8812890835095016,0.9380498972250544,0.8594211705813718,1.0579334110889869,0.9747213271753787,0.9025757889490558,0.9589276096203527,0.9885528837069366,1.0012134366573522,0.9301817818705488
1.7917917917917918,0.9092825853400553,0.9067323313268328,0.8210992809712576,0.9649108309548512,0.9103025179391055,0.9432211658597641,0.867338977706642,0.8481079809942418,0.95015751393015,0.8635723626247267,0.9332676350508419,0.95222603393489
1.7967967967967968,0.8686173450873532,0.9829580247988088,0.9861787161243245,0.9372078965738058,1.0410682740612947,0.9104112345509762,0.9291328283663663,0.8670473109130109,0.8619180415630301,0.9737134980224725,0.9119410420893128,0.954673647426551
1.8018018018018018,0.8763200012244123,0.9862781542060004,0.8953939225415487,0.873208509229589,0.9124001541306258,0.9373332600001126,0.9354238926126522,0.9611938767171957,0.925808708778186,0.8551536344916156,0.8641740278474412,0.8937638740864553
1.8068068068068068,0.8666458384120693,0.910876736100329,0.9189697332599792,0.8353168376859841,0.8371537993775424,0.8573104231139996,0.8976845227047566,0.8774666283637599,0.9809512273264308,0.8031477906381538,0.9412624651426976,0.9207385526597375
1.8118118118118118,0.8790955492940137,0.993722779426436,0.8667754330230701,0.9355049585439292,0.9049304856349631,0.9263918376519853,0.9122453297640646,0.8853812939407699,0.908246485134012,0.8535051221473472,0.8808958284529121,0.9021125285617909
1.8168168168168168,0.93208557216341,0.8796243398638578,0.9361579462392444,0.8952004445571247,0.8553427890613817,0.9005565295039061,0.8007362069059387,0.8620286179287924,0.8850164859256123,0.9529431045926823,0.8756087999354338,0.8174034108926804
1.8218218218218218,0.8709253562046034,0.9125926062783885,0.9370115230493863,0.9072580744417595,0.854210335855752,0.9065679914993148,0.9005782383992149,0.8585060462651529,0.8363605167587658,0.8653342209150114,0.9415578578662301,0.8985564200846322
1.8268268268268268,0.8476282783864689,0.8053485297840026,0.8186448965006841,0.8342121826723526,0.8400300486566091,0.8590112341601436,0.8277742115021459,0.8558595853963055,0.9111431414829699,0.904207370831813,0.8208548087982198,0.8188218832091178
1.8318318318318318,0.8885475619708582,0.8564767308482902,0.7988866024189923,0.867471567690207,0.8899924651175559,0.8905886659164426,0.8926855965647911,0.876954655936612,0.8810746997382508,0.8428574484852169,0.834990684428691,0.8423211841705046
1.8368368368368369,0.8300628448171391,0.8098521987804429,0.8120214301907578,0.8049615895873462,0.8123314152065143,0.7535245715815656,0.8681134262043463,0.7103305598709034,0.8078850207155073,0.8467064890061602,0.78063351116228,0.7730631786158043
1.8418418418418419,0.8003759522060911,0.8096340409021505,0.819919120198325,0.7457603399602881,0.829158979490579,0.8423156857887907,0.7948961726866327,0.7534131422275407,0.7907347155597679,0.7396288690234932,0.7408025543503983,0.816989632851319
1.8468468468468469,0.7217344105693604,0.7716521252180489,0.754764743782235,0.898884139516029,0.7730704860132968,0.7558745639348081,0.8325472541718792,0.7208750550804761,0.7986866865562644,0.7443560837792993,0.7591609518429165,0.7465126808092198
1.8518518518518519,0.8306045671299218,0.7214238498460931,0.7728213165011455,0.7138658490480008,0.7297622114638355,0.8055492580911167,0.7764589567905444,0.7767758080648047,0.8199449644721754,0.809048192730585,0.7039649575704389,0.6381258785313488
1.8568568568568569,0.6203424744660943,0.7466957697537939,0.7119865039970754,0.7580706356230283,0.573443096805508,0.7508382357675732,0.6813274076497677,0.7200365852154187,0.7689242651768186,0.6983255810165411,0.7363133802754025,0.7042883206598598
1.8618618618618619,0.6917432177499021,0.6921670050344323,0.7407485084212779,0.7447747950637468,0.681057447974975,0.7046097355704732,0.5536994346021393,0.688396723242405,0.6689971213124236,0.6772817164699296,0.78393017935546,0.7100267000498982
1.8668668668668669,0.7058982226219315,0.6332947867276375,0.6245409315850051,0.6195168761293236,0.5847212411590195,0.7302642719672172,0.6569401323475116,0.646832644390457,0.6249771466366589,0.7085017447549729,0.6147889589920057,0.7305409639312287
1.8718718718718719,0.6726171659868695,0.615744988879491,0.6511928234265375,0.6265232201849137,0.6727390115113099,0.674395115929195,0.6212824760014614,0.6773411208545851,0.7136215208758737,0.7014363998517505,0.658825818011732,0.6146560981554775
1.8768768768768769,0.633001020863829,0.6676293298963908,0.6031877581234809,0.4714766061782939,0.6567653360350489,0.6044056455502057,0.5814669684242196,0.516783093022021,0.6786864114753954,0.6786137050493612,0.5316574232111586,0.592761265153522
1.8818818818818819,0.5731982589018062,0.6086604418305237,0.5271369408853346,0.5583275485645098,0.6026231718271822,0.5539570950276648,0.5392977086600973,0.5222760149077393,0.5486503395887937,0.5611398842315004,0.6223996865368555,0.5773685895402405
1.8868868868868869,0.5458730773642877,0.4496353068492676,0.4951707899824071,0.5326273782584489,0.5493555979707624,0.4999582264852688,0.5829236698265059,0.44303823254974384,0.5371799365148616,0.5473386717051648,0.6255727817598259,0.5422513731919036
1.8918918918918919,0.43317213074709277,0.5638635512208268,0.5183134036319237,0.4450917578326631,0.4859213365630848,0.5364250524431975,0.44252577085949374,0.47499749223404775,0.4464915270635146,0.5456448191328391,0.5569538264446136,0.5239540733736336
1.896896896896897,0.41566753738879914,0.5326784359607326,0.4034267850076809,0.41506393552969295,0.4655417569385128,0.48733731235047534,0.4657510745332489,0.4989409593911335,0.42341545331778707,0.4601324275665581,0.46469257506738,0.4536179825891622
1.901901901901902,0.4981914241248466,0.42140280404168967,0.3319218260924586,0.40262068508838317,0.4161137578585293,0.38878303950974924,0.38413746167140006,0.40004197871211705,0.4338949329301711,0.42833115318611503,0.4840102024434368,0.4101444646381083
1.906906906906907,0.3875867487325325,0.3874671583706446,0.37294020859829236,0.4175360080723634,0.3548117375590659,0.41860374245362475,0.3754550925904528,0.333507456775855,0.29854278315308025,0.338475936836857,0.28231202811814105,0.40471391517287236
1.911911911911912,0.3105832262846087,0.33025390329034776,0.3268505426121775,0.321693049900345,0.20249219107952315,0.304588709562544,0.35762841317072475,0.33190146723041325,0.357461825830721,0.3000697959573932,0.23635064473896664,0.28565039267683023
1.916916916916917,0.21007259342987433,0.1634569209630677,0.17062365173434763,0.28788125981332696,0.1876904431890563,0.27262221943095166,0.20495454710135963,0.17344294196326795,0.23292939583075764,0.23357784432873524,0.20206131178731962,0.2557627773062346
1.921921921921922,0.07657163834033869,0.050715047333249566,0.04444521487836703,0.14361729410621116,0.1427694862940566,0.09128554289472485,0.10331357139073012,0.10975890151726024,0.03222476466667773,0.07484376742427148,0.16269482788058823,0.06305266210156546
1.926926926926927,-0.29428386100428644,-0.16155276577509267,-0.21248758263931566,-0.07624141729884865,-0.14937355461683138,-0.20053875791596898,-0.16343623452659317,-0.17154602684596976,-0.17960281059607194,-0.27367573983197807,-0.16764763438482794,-0.2218646846872009
1.931931931931932,-0.2687766073321454,-0.2379917517305209,-0.2558692118101866,-0.2618537987824265,-0.2584965691548564,-0.30533533659988826,-0.25268109365882596,-0.2683587908011541,-0.3914343392477068,-0.22806378028785682,-0.2953975614266981,-0.28522035275927315
1.936936936936937,-0.3406643997249096,-0.3023838731050661,-0.34089825300315896,-0.31568542521642834,-0.3976311848938153,-0.19656846924171645,-0.3418784387307498,-0.43658601925834756,-0.43898721486705233,-0.34839152553830444,-0.23363618042484147,-0.27370289142944054
1.941941941941942,-0.4378106959224075,-0.42594602062632597,-0.35144361207191505,-0.3118241438520239,-0.3633677204727988,-0.38743246363354034,-0.39497089393567436,-0.3058218319738824,-0.4384774882469028,-0.3435637617209091,-0.3987686253440541,-0.42264478206412376
1.946946946946947,-0.4754285668431446,-0.44053326793644504,-0.5001105167162886,-0.4466565265032156,-0.5127550915130774,-0.4328585221135075,-0.5486294820271905,-0.45854935869224206,-0.4503718007353725,-0.36657572175530984,-0.4685616238876298,-0.40322739808489905
1.951951951951952,-0.5532402612387414,-0.46759803198742933,-0.46709862701949495,-0.4455329426792738,-0.43164257890406765,-0.47059549903999337,-0.43143835468540825,-0.5334227535495311,-0.44397332755570607,-0.40630165884110947,-0.47770262692958315,-0.5617150452751918
1.956956956956957,-0.5438404966145144,-0.5083194632539026,-0.4460985285768933,-0.617605848469135,-0.49413971856312483,-0.5305333275366609,-0.49479666811390216,-0.5525645169317093,-0.49814183363679,-0.5029369920113963,-0.5079270606645285,-0.5080248780433946
1.961961961961962,-0.6723899054928213,-0.525339774445573,-0.5524572696960093,-0.5595899752871889,-0.5206840798203242,-0.6141357860811847,-0.5985744853362144,-0.5100453036071557,-0.5710369260033195,-0.5952267632651976,-0.5457326121328469,-0.5736200162302054
1.966966966966967,-0.5564915882023354,-0.5270806790014673,-0.6495846928341034,-0.5963448672738081,-0.5630925340522004,-0.6157736312079118,-0.5596445320197195,-0.6036006161202444,-0.5719138350638298,-0.5878100429405362,-0.6890666449359484,-0.5607391589599909
1.971971971971972,-0.6489369689509218,-0.5440180876128099,-0.6513998329755292,-0.6560841564990622,-0.6077885114417663,-0.6215061165957532,-0.6379590234321478,-0.6105189775153078,-0.6133964903829112,-0.6238550605593476,-0.5823520493597026,-0.6470478327040781
1.976976976976977,-0.6769848979411556,-0.6178215321374899,-0.6056853012259144,-0.6469455730620575,-0.6451175708878945,-0.6894873117698371,-0.7161028348843959,-0.6821725928040587,-0.654125296547062,-0.6459203287935404,-0.6736446983684039,-0.6095769459929301
1.981981981981982,-0.5252101620792379,-0.6804195390884299,-0.7092543928662284,-0.6843564329479638,-0.6437109846206243,-0.6920262964386755,-0.5678915063517737,-0.7222098456628396,-0.6995856664881168,-0.6635874836700156,-0.7143999800702014,-0.6079669730366158
1.986986986986987,-0.7365263590550528,-0.7243336964851179,-0.6742453010640075,-0.6995859745845585,-0.7261497690791355,-0.7593966706724357,-0.5969010697521623,-0.7039721802811141,-0.7271145236105266,-0.6783756581756276,-0.7696308176852886,-0.7617707288698097
1.991991991991992,-0.687615480436501,-0.80156634420832,-0.7215777058701025,-0.7698213698355694,-0.6355366006061107,-0.752724563198395,-0.8006609560289144,-0.8203552511172987,-0.794270439236778,-0.7950997042830223,-0.7646728749215912,-0.6994364240125691
1.996996996996997,-0.7673772969786764,-0.7311517941438543,-0.7888266002357733,-0.7836084430596887,-0.7885285154007572,-0.7716469845014187,-0.7745114197212888,-0.6609234256050462,-0.690608408861176,-0.6798529545410721,-0.7913707218777821,-0.6908126109140823
2.002002002002002,-0.79958417571263,-0.7491031882434821,-0.7558591450609035,-0.7476249826159154,-0.7865614565700625,-0.7382786119944763,-0.7672354561074965,-0.6981626224337881,-0.798345185138117,-0.7819848678111146,-0.8144716229814714,-0.738421549431474
2.007007007007007,-0.8044861879531792,-0.7851949746047632,-0.8472588471432743,-0.7873125428657383,-0.746573209906733,-0.8565554093697013,-0.7944295845760716,-0.7662473426199268,-0.8130551691588337,-0.8622267804253181,-0.7992285895122342,-0.7661300891698556
2.012012012012012,-0.8399333096833821,-0.818841330473563,-0.8626145787528101,-0.8045549086806447,-0.8136307468781878,-0.7603737429569026,-0.8333309997590277,-0.898126614751631,-0.8676754540939028,-0.8496474647835568,-0.7903635139220693,-0.882056295500922
2.017017017017017,-0.8371788591181281,-0.8187036313787198,-0.8174859400913433,-0.8465574279854831,-0.9426826937243913,-0.8347316234561967,-0.8912769310464179,-0.9008651935448788,-0.8792603053461866,-0.8525246828195259,-0.8534111388175418,-0.6932069370122905
2.022022022022022,-0.8324083098948806,-0.8539298565027151,-0.8107193953529537,-0.843278893981297,-0.8595022659217224,-0.8963742289531097,-0.8416779141998616,-0.8392850553104876,-0.8970369960680573,-0.87508850811824,-0.8489864552572974,-0.8994464870673798
2.027027027027027,-0.9167561309434766,-0.8886630499044994,-0.8459213254984769,-0.8122760387126895,-0.8213012919898853,-0.9204706050920047,-0.8744355704576312,-0.8821479221602916,-0.8033648631262761,-0.882770338939304,-0.851307299218113,-0.8788794599041848
2.032032032032032,-0.878486311767248,-0.9268658963044384,-0.8333407948757663,-0.9749922995565313,-0.8499022463582036,-0.9197386376853607,-0.8783164697426588,-0.794289377921947,-0.9167249831782541,-0.8750649703525832,-0.8589584645742265,-0.9874367827325854
2.037037037037037,-0.9051448444243884,-0.9118796099761844,-0.8873728986376034,-0.8609467918308422,-0.8987734253975878,-0.9299323377116249,-0.9544099523247652,-1.0793439641702112,-0.9017669982411702,-0.9201011608937864,-0.9299511777955745,-0.9201258528256
2.042042042042042,-0.9431228791300934,-0.854301697771314,-0.8818342055013971,-0.9637896701229265,-1.0171624485870228,-0.8960940704321231,-0.900270545312778,-0.8922864800128262,-0.833486528959445,-0.958606430995047,-0.899232295647902,-0.9326709721606341
2.047047047047047,-0.9280013900928885,-0.9286124378895303,-0.9012856047912241,-0.9036300113956082,-0.8985217743443328,-0.9041567944765199,-0.9445935597429368,-0.9551269028934753,-0.9603105418113899,-0.9322233008650901,-1.0151174411664912,-1.0055265672521907
2.052052052052052,-1.0307359815117947,-0.8515235358614138,-0.9653790844903267,-0.9549380338778402,-1.0146776488700247,-0.9465319072549887,-0.939102494999945,-0.9564006663241182,-0.8719542496649538,-0.9286981307941771,-0.9111124601077678,-0.8991823760288101
2.057057057057057,-0.9164031764745799,-0.9922710394361691,-0.9976009927360943,-0.9330917217881491,-0.8852220261885151,-0.8955218484976734,-0.9830899243193963,-0.9073067189005124,-0.9791634367891207,-0.9385337833907208,-0.8944289928161386,-0.9386077225998006
2.062062062062062,-0.9389025464376635,-1.0498052086132688,-0.9006959320102897,-0.9675392795309805,-0.9351451299344968,-0.8612599196171341,-0.9571517503951211,-1.0082813092609604,-0.9670986788321939,-0.9580100271251604,-0.9792214376868551,-0.9714360397968316
2.067067067067067,-0.8962545383962568,-1.0109920095650484,-1.0051868448570018,-0.9917444844897978,-0.948106363946254,-0.994059090930298,-0.9479704345219679,-1.0730870370272125,-0.9674917617835312,-1.0009921929556789,-0.9636192446477972,-0.9902520756007496
2.0720720720720722,-1.0099057624195997,-0.9788083668066774,-0.8999779204678544,-0.9550540279740982,-0.9400035397830324,-0.9563939917658456,-0.9719643483200228,-0.9932713822804333,-1.025182811490766,-0.9501125009216771,-1.0410710276219453,-0.8702435864595583
2.0770770770770772,-0.9708899839483475,-1.0161062813009456,-0.9820505897023193,-0.9258346970719861,-1.0283956756935484,-1.0912223002490946,-0.9419532618274636,-0.9496589680742794,-0.9957496672863605,-0.9535492847443632,-0.9665770640562792,-0.9460465494132522
2.0820820820820822,-0.9799559518261937,-1.0262686954663416,-1.0439831174477627,-0.9993940718375098,-0.9159400573235601,-0.9706054162190582,-1.0197142228396106,-0.9433979527802074,-1.0329982900073236,-0.9325135938067123,-0.8341197925240436,-0.9855455462392901
2.0870870870870872,-0.9271620931744466,-1.0318237557535062,-0.9752193768962896,-0.9554002616678056,-1.0705515581760228,-1.0142488332766957,-0.9387765637752048,-0.9583810479825711,-0.9297881364189493,-0.9801502735547868,-0.9662186767531908,-0.9496015574011856
2.0920920920920922,-1.0262428715720222,-1.0035228030935357,-1.0750016300916634,-1.0267625310120243,-0.9578038467344586,-0.9805736795952996,-0.9998356539719364,-1.016357194277875,-0.9891532997466609,-0.9208847731642122,-0.9975734829784417,-0.9346828707735093
2.0970970970970972,-0.9784465308062509,-0.9877423946225352,-0.8526976597561519,-1.0004933034959953,-1.0482865599536682,-0.9545427313916555,-0.9638660317800812,-0.9616537342665155,-0.9427434780744731,-0.9470730713270452,-0.9725175598952919,-1.0021339207041553
2.1021021021021022,-0.9162956582719154,-0.9913348545441234,-1.0395325794802697,-1.0114022933918438,-1.0041753381430207,-1.0440221094849966,-0.9512225217297446,-1.0187167162049067,-1.0060653966687265,-0.9850400018516563,-1.0006823482531064,-0.9982557652644307
2.1071071071071072,-1.0116585533901494,-0.9878721547676936,-0.9793410542315356,-1.1028052705731293,-1.0301269234738553,-1.0058439187789583,-0.987677994947644,-1.017392190333008,-0.9969865742673842,-0.9401349614167944,-1.0106956658096784,-1.0181038909781341
2.1121121121121122,-1.0236540200950714,-1.0041847686761698,-1.0062198361852526,-0.8544666175551939,-0.9420318627294815,-0.9524609818816625,-0.991210628588363,-0.979216987594286,-1.0325897971603195,-0.9531647244481067,-1.0735833311061582,-1.006828579090709
2.1171171171171173,-0.9283565073995319,-1.013683675470921,-0.9859833260992504,-1.0656144511653936,-1.0574536793266784,-0.9339310710123077,-1.018079182468917,-1.0512637575562143,-1.0369610410403964,-0.9775526717183171,-1.0171978089298443,-0.9890899384802817
2.1221221221221223,-0.9853826183354601,-1.006285198621102,-0.982023094156227,-0.9868646694600303,-1.1198009813629897,-0.941497247239666,-1.0323582636846882,-0.9882609314987909,-1.0694683077488107,-1.045091685479447,-0.9686971262513692,-0.9901272968219195
2.1271271271271273,-0.9316879070253872,-1.089531558627578,-1.090837118613007,-1.0175107044202423,-0.9575944990506997,-1.0293526796011965,-1.0616842012424355,-1.0155394670572333,-0.9603377183367915,-0.8805444591388201,-1.0366855336841827,-1.014053929068094
2.1321321321321323,-0.9925479920710765,-1.0483054141412047,-1.002782504529021,-0.9882587392864461,-1.0772943690393046,-1.018802489131443,-0.913883102587761,-1.0096100868981335,-1.0724502854314184,-0.9264830090212018,-1.0479548034011015,-0.9656960807461457
2.1371371371371373,-0.9795118510909433,-0.9644143707603128,-0.9731718977655561,-1.0189539437989035,-0.954636184305022,-1.0029980983882612,-0.9556063851454721,-1.0792189327007686,-0.9793519776471589,-1.0218976651805602,-1.0649753301666929,-1.031993136743761
2.1421421421421423,-0.954255480501005,-0.9534801241161769,-0.994426278110777,-1.007159649962697,-1.0523460561618863,-0.9502064948059389,-0.954595877852324,-0.9839553669886199,-0.9371110230379963,-1.0350486995957384,-0.9478390497276469,-1.0301627948162129
2.1471471471471473,-0.996005090412288,-0.9450721280499496,-0.9751376280092369,-0.9404715905957624,-0.987638428431936,-0.9322787652448498,-1.0410452877668974,-0.913050485449342,-0.9002795289896925,-1.0215773385717013,-1.0161249424050642,-1.0262439888080326
2.1521521521521523,-0.931567195126503,-0.945527945046378,-0.9284371982663947,-0.9879972412428611,-0.9757117675410955,-1.079266222468551,-0.9423271969242575,-0.9322091084872631,-1.0260927021209278,-0.991656333501901,-0.9295201265606537,-0.971112005004012
2.1571571571571573,-0.9578974424637512,-0.9353266914544562,-1.022103546687299,-1.0355703271772894,-1.091464072177898,-0.9939995977989426,-0.8765384737692665,-0.9516706911500005,-0.8925423488422878,-0.8857038692463388,-0.8470669376847537,-1.0057280179195993
2.1621621621621623,-0.9057167112222622,-0.9562669366012188,-1.0275352195090073,-0.9623160566182675,-0.994696834190837,-0.9394349528942416,-1.0098530413667692,-0.9225896886146103,-0.9907966600770132,-0.9478826848399193,-0.9400042935223415,-0.8986280790623653
2.1671671671671673,-0.8527749893953349,-1.0136715622918275,-0.9567462631792722,-1.0038294813860487,-1.0137084098260125,-1.0706401159018133,-0.9364505367997086,-0.8949257625022055,-0.9149560870590276,-0.9817416918356197,-0.9670488264923198,-1.0450678231542698
2.1721721721721723,-0.8812410373280335,-0.9741298006034029,-0.9019251427508086,-0.9816480149755197,-0.9439774457418386,-0.902192735234528,-0.9836484038340658,-0.9309019333909189,-0.9918700030371059,-0.9261174053141996,-0.9463889928430372,-1.0033040732154157
2.1771771771771773,-0.8935672874449625,-0.9289806212650413,-1.0316807438234177,-0.9012080622701706,-0.9730903185134965,-0.9839410247799373,-0.8173593485115307,-0.9488527355285404,-0.9727560049067537,-0.9723667957778681,-0.9084266349475291,-0.9928819259974393
2.1821821821821823,-0.9626175699909951,-0.8365190484907462,-1.001822277120551,-0.9025665957974958,-0.9535145466687347,-0.9152875518376908,-0.8648899260288008,-0.9017462632990716,-1.05441372747691,-0.8947522906481838,-0.8832939558463754,-0.932142906389057
2.1871871871871873,-0.8983259139621951,-0.9647531419813713,-0.9774863710241016,-0.8826537443505913,-0.915083707009358,-0.9123686127780913,-0.8989104592569495,-0.8882831018210998,-0.876885888994545,-0.9638741921458361,-0.8923659598827242,-0.9358852085043508
2.1921921921921923,-0.8586165521913851,-0.8588975581692385,-0.9298839863259554,-0.9226394452700871,-0.8580722878115811,-0.9470614100816754,-0.8754803146877399,-0.9383020308817451,-0.9032872027616213,-0.8521832281532474,-0.8796016828097819,-0.953438103842733
2.1971971971971973,-0.8336637275598477,-0.8953799110650467,-0.8755027939013489,-0.9022217521886889,-0.8121627103716835,-0.8530990165597977,-0.8445008732321546,-0.8867313090614993,-0.8488774270607977,-0.8569210533243801,-0.8710053044043308,-0.901900338398053
2.2022022022022023,-0.8924104197713861,-0.804263863642184,-0.9382779510650034,-0.8728295219101054,-0.8984083830804087,-0.8291492482916853,-0.8359558535749921,-0.8742246453538115,-0.8084875423390478,-0.8120971534724203,-0.8497723716831848,-0.8553074815507771
2.2072072072072073,-0.8558798341995805,-0.8698269957809117,-0.88615758889692,-0.8151704855427007,-0.9258037351866624,-0.9275216368620055,-0.8423240653347125,-0.9842519437896735,-0.8517979834639203,-0.8564739714058432,-0.8621328066145255,-0.8045352972866883
2.2122122122122123,-0.8355966321617365,-0.7999974621946516,-0.8602729307856033,-0.7427226005608802,-0.8641480223224124,-0.8067486860700126,-0.8235087247369589,-0.8594741284379234,-0.8067594322895709,-0.847483567951777,-0.753273031748556,-0.7710927146715919
2.2172172172172173,-0.7509032785259233,-0.8158363965731226,-0.8643517410666379,-0.7694048236464828,-0.9062189765992106,-0.8365338934848134,-0.7880074478164445,-0.7973331283211387,-0.7765563351742428,-0.8666848681691174,-0.8433831863162993,-0.7846566225225762
2.2222222222222223,-0.7658084348784084,-0.8605681210191417,-0.807620666839995,-0.733386727229529,-0.7990861372069679,-0.8405335660722725,-0.7551427300835744,-0.8035176296931423,-0.8096735305894895,-0.8305116236670745,-0.7891266354652663,-0.8755887422260992
2.2272272272272273,-0.8238486785875619,-0.7028008738149105,-0.7282214778830169,-0.8082716196921523,-0.7702945638958114,-0.7711774600092958,-0.832487674519356,-0.7684180493476975,-0.7214808642690975,-0.7523325888929531,-0.8055716886556543,-0.8727188107214989
2.2322322322322323,-0.8827551944805853,-0.8138832117915011,-0.7950641628920685,-0.7446871925493911,-0.7714285014557922,-0.7698374404460996,-0.7828732435731044,-0.8349906734332477,-0.6696694091964928,-0.8141913754997309,-0.6843679247198073,-0.7118646162537106
2.2372372372372373,-0.7411249159725298,-0.6639132942106744,-0.7376291177098775,-0.7699385905744107,-0.771266523342669,-0.7057424756866094,-0.7890639760840674,-0.7632547140184014,-0.724323781569724,-0.7114790336497381,-0.6707952153022808,-0.7044556988572722
2.2422422422422423,-0.6698991455162913,-0.7308625040795349,-0.7051130092313489,-0.7631584861194772,-0.6755258084520311,-0.7397265783124879,-0.6528877617038069,-0.6609347270402063,-0.6321348657745277,-0.7031373054089716,-0.7326604939680993,-0.702404932919535
2.2472472472472473,-0.6249389596787094,-0.6052161537501892,-0.5993291428681767,-0.6987671373413349,-0.6464384647778739,-0.6850784621260985,-0.643598990869455,-0.6671697943154002,-0.6133539815748466,-0.6081726388488057,-0.692703310598155,-0.7214040716191245
2.2522522522522523,-0.6690091078453463,-0.6258604395404814,-0.6234425849055693,-0.5478864655556562,-0.6722602537530978,-0.7713843530411291,-0.6946170929279434,-0.6804521755386239,-0.612167267641162,-0.7265582015262315,-0.6607883600742006,-0.6638556559601444
2.2572572572572573,-0.6534834822607622,-0.6159048701723667,-0.6147178450758891,-0.6018188700868872,-0.6862561114799048,-0.6338789887869026,-0.5947020426634169,-0.6121685236000228,-0.6066925388951082,-0.6735478760821323,-0.6241052010111672,-0.5916070016693725
2.2622622622622623,-0.5107619224453981,-0.6214952162380992,-0.6624048666370627,-0.6004394930012052,-0.5944481072827204,-0.5995959078425588,-0.5086553876065059,-0.6223340422635454,-0.6431814846818739,-0.6125653255539768,-0.6114891052174817,-0.6475495048014094
2.2672672672672673,-0.5471251319063286,-0.4960539606469483,-0.583528520076292,-0.5735580986188428,-0.4985160683245332,-0.56920589824077,-0.5858373004868626,-0.519915165166376,-0.5170356024292597,-0.5737264887888968,-0.6265523527192672,-0.5551664045489393
2.2722722722722724,-0.46382285175917126,-0.6477735650579199,-0.6086655472019403,-0.42426160700474413,-0.4959740155389658,-0.562013371502731,-0.49099191534702014,-0.4768494107157017,-0.4753832111393955,-0.44867621276982733,-0.6283715502497453,-0.5748585717742625
2.2772772772772774,-0.5662023187339766,-0.5211178356059334,-0.43328205727275737,-0.5295552511610191,-0.5090317804549517,-0.546531206093368,-0.4921277443285378,-0.45966469826440626,-0.4514527392528174,-0.5636153361041181,-0.4451088623131229,-0.4831933429740562
2.2822822822822824,-0.455618109802553,-0.406554451331359,-0.4839191808545747,-0.4024505530784336,-0.3585200083477156,-0.3957945280317956,-0.436779981025111,-0.4778804153790469,-0.43532665306108975,-0.49999237231884774,-0.5735664136748935,-0.44737929966971635
2.2872872872872874,-0.48826753871402534,-0.35109406070651517,-0.39454654030651054,-0.3261189277840524,-0.40225347311016285,-0.4117232381153779,-0.3949953573314384,-0.37301786258942854,-0.4518770205140449,-0.40979442545644906,-0.4348213767912793,-0.4310776822669279
2.2922922922922924,-0.3427042570834627,-0.30802718258853884,-0.3714458708489531,-0.3159007907150657,-0.27907800109364117,-0.3192623099822013,-0.4021561193434636,-0.3676767602911244,-0.37714768345744265,-0.3996183595358819,-0.3605545873230875,-0.3217383964329709
2.2972972972972974,-0.29762408495253456,-0.26333926605767405,-0.24897292544123753,-0.2838883367357291,-0.29740217414033276,-0.345741516799585,-0.26128249583042457,-0.32704557485510105,-0.336593498526065,-0.2129923276163641,-0.2938891875759313,-0.2721924373370113
2.3023023023023024,-0.18921996975252664,-0.18849090876992108,-0.3027429669687496,-0.23893910378400074,-0.2032434028932551,-0.19848142679270553,-0.17702406549200778,-0.23089786050346117,-0.2161815610094032,-0.31494965789333784,-0.15121296166744605,-0.16928149435626152
2.3073073073073074,-0.02168409497475323,-0.08519511924945575,-0.02085851165445867,-0.06940285388871346,-0.05566235624592121,0.0218016596045299,-0.08196002146740454,-0.01668211993633638,-0.04171162834087237,-0.0715944399524749,-0.05841470245437054,-0.07107226043402239
2.3123123123123124,0.1404711076234998,0.22474612332891106,0.2798415207730133,0.18483968232639533,0.13725517306822688,0.21173726394827608,0.24967617195592168,0.13968617557455854,0.11902933914127321,0.1804327688653369,0.15091274067959493,0.17332935096738986
2.3173173173173174,0.269932090886218,0.32507941484143504,0.34296085523597986,0.23186415373112607,0.2749112301706039,0.21705446829200134,0.25237645328862585,0.2739122844418815,0.33552108804298236,0.2630590188254921,0.3353351751223137,0.27808921989266144
2.3223223223223224,0.3186902092558186,0.252212180230177,0.3020928058347999,0.3180476184823349,0.34861907199001274,0.35547492909856265,0.29422381583224727,0.3104977006426342,0.3076701521292078,0.3455730097443588,0.4324499523158268,0.4262260781186593
2.3273273273273274,0.38340699082005525,0.38619038411144474,0.4448846882557379,0.4329469954181722,0.3910582096589622,0.3872581198072871,0.5360483987756091,0.36902385036192303,0.4722384371062861,0.40253353888755744,0.42513375339583076,0.3735842385661278
2.3323323323323324,0.4217132318483322,0.4193654619456272,0.4991397181459014,0.37659759901143847,0.42423891201739977,0.42333557663407695,0.38362412299101945,0.3928567541991565,0.3990624631957651,0.4865161279737714,0.458126968147043,0.4942336301405658
2.3373373373373374,0.44591976392834265,0.48354152302640024,0.47787007952733196,0.4377447907329993,0.482592758980379,0.4381625932119426,0.48602165202520164,0.5138831303646333,0.48154675429538785,0.5194363015245608,0.4744662373181863,0.4960881639534896
2.3423423423423424,0.5945246480204778,0.5624416326071613,0.4830938178891175,0.49534843947586704,0.5501161051634483,0.5366428457966138,0.5061386523335234,0.5181327735863308,0.568915801351929,0.5198142691477792,0.5809960958660584,0.5619200475077631
2.3473473473473474,0.479224298153979,0.6372457167115986,0.4803508199879405,0.43027509109525053,0.5031810483677271,0.543070374057223,0.5909784129593952,0.5862727781160758,0.5451612296377434,0.6160935996609765,0.7292289171387978,0.44548672930807953
2.3523523523523524,0.6565480905940185,0.6400180829764083,0.5209827957606493,0.6483893384306508,0.5957565383892962,0.4951315602060949,0.6269584387845704,0.6574774676124137,0.4771503460521964,0.6397491584278227,0.5405169733393971,0.6461779112810008
2.3573573573573574,0.5731352199578409,0.619875532112132,0.6297452360909208,0.60429146811545,0.7419061384428118,0.5410745084328474,0.610942705394316,0.6668316748155665,0.7111759981531064,0.6921120511121105,0.6069018492896304,0.6609459219277635
2.3623623623623624,0.6554501931622269,0.6163201601892728,0.6982420962562316,0.6291565896650035,0.6204968788213466,0.540271046703532,0.5880742521590753,0.6698200274780349,0.5774114161196434,0.5817821357277801,0.683993242758512,0.7554657378551626
2.3673673673673674,0.7595648326664803,0.762554806990696,0.7088027969865991,0.7413759678075397,0.6706365697131357,0.6956977638716221,0.671588382438816,0.6161846314429105,0.7059076735976316,0.6323889176193956,0.7815692647692001,0.6304380927537708
