time,lead1,lead2,lead3,lead4,lead5,lead6,lead7,lead8,lead9,lead10,lead11,lead12
0.0,0.010078862673675295,0.017608990883988183,0.04797546534196816,0.09561674730478308,0.05008113016058309,-0.0020369692132863808,0.06323508898665071,-0.036427953642141374,0.12874396969255006,0.0001771340126276553,-0.00875878558616669,-0.041091813946420086
0.005005005005005005,0.03574409675182717,0.07753740756764048,-0.09051990903869908,0.07736804258817409,-0.01553315167499944,0.10194180683611709,0.06740547730115087,0.15439672650268188,0.09072112636821217,0.11212763387352803,-0.04246259571506083,0.08669439710470156
0.01001001001001001,0.03701979130258447,0.0177670517932957,0.12913108618916366,0.12209932063606026,0.12392238201363796,0.1467549433885028,0.16280702628428084,0.09028585134968226,0.08487331007592742,0.12067261528189535,0.16041713410291278,0.031114099330287262
0.015015015015015015,0.0936151802566956,0.09838848976179135,0.18016060188814387,0.09561978755120841,0.08288034304612196,0.2344438263900816,0.0739452511573831,0.15528554091093763,0.1434812042460188,0.11546862321445525,0.1447057517988296,0.02738398090125574
0.02002002002002002,0.17396551725237175,0.08586680835457094,0.060510242531295624,0.22051118817826817,0.18628249353445128,0.16696468511894685,0.06422522944653986,0.1311945903849046,0.12104821762790571,0.2100107155522863,0.10352286386887505,0.18130534839486137
0.025025025025025023,0.09925399213271408,0.14921391799134698,0.22836537158945566,0.15042236675349022,0.14285073379415805,0.18434954853401506,0.09449204065856073,0.26378539588651423,0.2055051027564269,0.2518379653746521,0.1441068067915938,0.182969628234911
0.03003003003003003,0.27503386529408697,0.2877440079058372,0.2588767171947945,0.26340236377125287,0.2325819203546863,0.18939939006779777,0.25017672871560787,0.28945851855164606,0.2897575908061828,0.21177796678278824,0.23794419638606143,0.05532276391665503
0.035035035035035036,0.21487231006961416,0.2856971276011285,0.30959901299130876,0.2006853248988871,0.28537400148532127,0.31373002818977025,0.28669720752051675,0.3301927183165819,0.26655570622057734,0.2686147585832245,0.27545621757182753,0.3221173727954898
0.04004004004004004,0.3990828551377643,0.28066921966922254,0.295091814694421,0.3140138946708647,0.4234434769441905,0.35848115411547427,0.37264119478819696,0.3840985420759351,0.3175726404453871,0.30402581233892995,0.26180592184278495,0.2919589509183849
0.04504504504504504,0.4160594222788933,0.4119480912002843,0.3432621515868294,0.36625438163883534,0.2879095662110851,0.33182357098085735,0.40975013523600035,0.32681636353321913,0.3152940457738819,0.3633059304070756,0.33615529364993074,0.3920512306657993
0.050050050050050046,0.39968614264936103,0.40426787876449577,0.35173897012212996,0.3916116590203261,0.40143337600090495,0.4043151475823653,0.35629381954555595,0.43191287814174545,0.4556445371912004,0.4473102419735754,0.4153645200302456,0.42890822571803916
0.055055055055055056,0.4323429144822057,0.4240304548123364,0.5190088372582093,0.42814322863365456,0.39018147448421353,0.41954693657771913,0.3831693932137545,0.4392672116680708,0.4719644504933875,0.44719273591613695,0.46288100492991513,0.43500402774477254
0.06006006006006006,0.49300917655884163,0.35675390745209545,0.41436053579510673,0.48082763635477344,0.4818256992831722,0.6353844024011139,0.47610508445799726,0.5526759543775225,0.4781058800082157,0.5310324485090864,0.5398806359128767,0.39650068084742496
0.06506506506506507,0.44010411747368017,0.470699108884632,0.5205060237526616,0.5653713659505979,0.41477750820565923,0.47766515165429335,0.5234388797155645,0.4679201788152203,0.4000304393678318,0.5858220190230857,0.6206411818879977,0.5577184692976362
0.07007007007007007,0.5627758075848779,0.5395722495080978,0.5747891029076921,0.513807634471431,0.5774785586662219,0.5722357626408535,0.6180853578393217,0.5155167420586142,0.4631173669580418,0.5155515043751868,0.5199830236400239,0.51689338053227
0.07507507507507508,0.6821728895655383,0.6504780843474991,0.5482516875870371,0.5679165799672455,0.5367823532383762,0.5154314764666971,0.5648645969247712,0.57259035150672,0.5536260551407036,0.4984729880859404,0.5760304704193872,0.6126049780109536
0.08008008008008008,0.6140731361710258,0.5710807442542888,0.5679034610090661,0.5967422732933815,0.6443889195682984,0.6559317558548639,0.5389263471041639,0.5693771140301511,0.681642170341741,0.5483912200938841,0.6242562034989786,0.5840371040174519
0.08508508508508508,0.6065872380854974,0.6031800557375053,0.7297174425986801,0.6088067278212971,0.5839048875853118,0.6234273054176731,0.5689312963807569,0.7208722872716142,0.5756819723326414,0.6110661415525763,0.6008614149710073,0.7085820797205514
0.09009009009009009,0.7461969719308282,0.7010935345337233,0.653800040064081,0.6599072053248308,0.6689354107427916,0.5908602959933464,0.6063364755567291,0.6782391466078325,0.7280611967344358,0.6177240676488085,0.705320037634325,0.7098403862452591
0.09509509509509509,0.6661549109018589,0.7412102826511255,0.6078652159742522,0.7224924581648731,0.6795808804135319,0.6946457026890762,0.6915592193991211,0.6883408914344769,0.6284239149437799,0.7063362194348983,0.6291153994743784,0.729013509832599
0.10010010010010009,0.8246236001473576,0.7354556968886263,0.7281514789289594,0.6950815933586831,0.6475636821285007,0.7192484790546305,0.7329157396127386,0.6854200014858278,0.7107619990946275,0.7353618395487652,0.7343578454052844,0.672614024929587
0.10510510510510511,0.706518764400281,0.7167778534232434,0.7808171215944849,0.8102113403009074,0.6100198047612981,0.7603869248170381,0.7640857126011183,0.7711124274669134,0.7268446612799667,0.7765887088570665,0.7541104257702538,0.729817828443685
0.11011011011011011,0.8049771648027777,0.8613112833547459,0.773873418964641,0.8273561687148514,0.7189787759617395,0.8499649712421767,0.7893819287344639,0.8578000801384467,0.7770524632070459,0.7930375868383571,0.6996586810220531,0.7811871910193482
0.11511511511511512,0.8415653994878411,0.8890232594895909,0.7330441232195453,0.8460720404457404,0.7699131672651365,0.8223534543148497,0.7253397170911628,0.7880261879376647,0.8217464898891342,0.8226766014512951,0.7638036740623171,0.7575772870619492
0.12012012012012012,0.763362364523436,0.776265612707468,0.8355688508173704,0.7811113396099773,0.722006983288267,0.7292427999269883,0.7685739007059962,0.8175817147867859,0.7595828305293763,0.7057679307059553,0.7955487792028604,0.8287719862800842
0.12512512512512514,0.843264743828417,0.8421328627663881,0.9142609665615722,0.8027470622661346,0.8148058399645044,0.8785363860098908,0.9002143750645185,0.8705149315292638,0.9189922220565421,0.9007258306695536,0.9530659497456845,0.963632582869622
0.13013013013013014,0.8211681932682748,0.9493025572148375,0.9597950719860968,0.8541094932204646,0.8564042339113018,0.9590013387215638,0.8917058030461213,0.912089784047319,0.8440716549766449,0.8709620017477518,0.7031871868897794,0.8729007700873848
0.13513513513513514,0.9319427835823879,0.9277359397205932,0.9691425223979021,1.0035396545475415,0.9363802556210801,0.8717392825666165,0.8941661925577624,0.9523798862499102,0.9237676147341701,0.8474705627596305,0.8881526408938141,0.8063977528369977
0.14014014014014015,0.9661084439841445,0.9912381643134991,0.8655428191020827,0.8992501759704692,0.8881056886903572,0.8428271049035261,0.9220756810045091,0.9412680377990245,0.8412058574196805,0.9734572009406971,1.0089706730998045,0.9839782495409843
0.14514514514514515,0.9104259172425699,1.0103874540768467,1.0152938680410761,0.9881547263624855,0.9151053580034314,0.9483309889197824,0.9658503845199471,0.9263823377639073,0.8283984447106343,0.9179811236946257,0.9588889790352554,0.9295313986893767
0.15015015015015015,0.8788129942127553,0.9789525766819838,0.952883080101866,0.9387574870923315,0.9500123353549205,0.8670655891380872,1.0152244521156817,0.9364216858777662,0.9429263426169422,0.8557058836089191,0.9337168445973666,0.8046537846148528
0.15515515515515516,0.8669657744094589,0.9694928652276392,0.9238386509374823,0.8851014601094592,0.9753278615179233,0.9924584673857898,0.998903236489028,0.9860098574533491,0.8345161054155077,0.9808946569854375,0.9635693071529473,0.9472103258264074
0.16016016016016016,0.9716948661784809,0.9066793257279239,0.8927119951709032,0.983707777584976,0.9808572256142446,0.8930774910136694,0.9121689199550601,0.9286458194387482,0.9861467431841939,0.9208423542684917,1.0239275189905501,0.9686699748391808
0.16516516516516516,0.9509639044722734,1.078387773923846,1.0374352024162357,0.8348160107781195,0.9585762889089907,1.0701988844644823,1.038332921149567,1.0079973089279244,0.9632174181256591,1.035417441379697,0.9149673235598524,1.023652171836987
0.17017017017017017,0.9806250095453629,1.0543865958154048,1.0341913822802444,0.9664985575288645,1.1063625226640181,0.946167169495915,1.0354767895076136,1.0114977540871166,0.9929313746807378,1.0333627277386113,0.9601371576156356,0.9920721603916602
0.17517517517517517,0.9916404683620619,0.9929824823241135,0.9103240456719413,1.0608520577340115,1.022240419991049,1.077282058426474,0.9788859587166613,1.018586156680323,0.9960584280406592,1.00833980888854,1.050810044069773,1.0017348896090053
0.18018018018018017,1.0716741828896412,1.0379745447532893,0.9877453142426037,0.9404152944472417,1.004255131191241,1.0129474256120206,0.9228303518170439,1.03124238125863,0.9416817091352164,1.0567211523462394,1.0199459426942064,0.9858317114840137
0.18518518518518517,1.0430975408206826,0.9429147323233557,1.0258172630067655,0.9692111157323837,0.993957946172455,0.9595882839601391,0.9219571113070044,1.0118622157431407,1.032662477855226,0.9731175694859902,0.9405655895149803,1.0267548584481916
0.19019019019019018,1.0649716357820627,0.9562982666129812,1.0168422626640563,0.9871320250626714,1.0316508830351445,1.0086895939102514,1.0525039327245311,1.092158270333642,1.049231150746716,0.952851970906733,0.982366562758548,0.885138991763594
0.19519519519519518,0.9744124945732493,1.0185786755461044,0.9680121981000065,1.0727389376904468,1.0232969742616012,1.0029647035941947,0.9882600507708909,0.9428247017286274,1.0317925168744988,0.909439076913827,0.9628990034816802,1.0168462288156943
0.20020020020020018,0.9540484850081394,0.9956959360633052,0.9311878830717879,1.0159831048687047,1.0964284601466048,1.0626787765410286,0.9835402827574639,1.0036270346834582,0.9997321449760659,0.9319764714384984,0.9728610507906632,1.0022882729626748
0.20520520520520522,1.0034609700814416,1.0577057029774481,1.0724483995325595,1.0746733387383451,1.0560458265730301,0.9794428642001698,0.9687830951221644,0.9852052089407105,0.9970827605291256,0.9086517901939628,0.9763450298366393,1.0587019762609313
0.21021021021021022,0.9903641683460821,1.07381717860248,0.9722467410412238,1.0146146925167199,1.0290228798533283,0.9658017172099665,0.8882344367451243,0.9155160345362062,1.0052445415324298,0.9688266498524482,1.0183264573056001,0.9990613575693559
0.21521521521521522,1.0025402858679149,0.9095955852091681,0.8422458517874092,0.9064739721420543,0.9852106306332697,0.9508908943217186,0.96864901956324,1.0078953246680835,0.9480481420508861,1.0241911488122823,0.9989993469496533,1.0442486372266784
0.22022022022022023,0.9821841933940818,0.9675931143899144,1.034518282393243,0.9030863929349222,0.998653557563999,0.9077626732082399,1.1255490186901829,0.9676455398440019,1.0818623874601434,0.9817790154091016,0.9796952699584559,0.9119077121087713
0.22522522522522523,0.9867378073810305,1.0352797402848228,1.0644370681588715,0.9625655219938251,0.9194922107197072,0.9511574313613255,1.0309118100584314,0.9509127065822494,0.9612900141521254,0.9500893092201523,0.9631223845405225,0.9687261153019662
0.23023023023023023,0.9211563094815347,1.0189868338321855,1.0260745971378362,0.9484246073202942,0.9108805669363939,0.8703371277384824,0.9080198991332576,0.9269713345340564,0.9099966567482443,0.9729307575516646,0.9466573536362746,0.9845212830674829
0.23523523523523523,0.9917658802858009,0.9249631775641896,0.8942900965058589,0.8268455517432991,0.9900440353563345,0.9762384539809545,0.926132521142505,1.0194546191417124,0.8974151842335949,0.9018487533785581,0.9279339806663714,0.8779218163713217
0.24024024024024024,0.877694774486027,0.8794455942928137,0.9190865240887278,1.0027061664206411,0.8494828118222086,0.9505429031963393,0.9608470665625046,0.9790135847532834,0.8118878104494712,0.9784187557405132,0.8675689429629646,0.9765270478139234
0.24524524524524524,0.8676386932339225,0.853555783972788,0.8822437903790795,0.9059901263521244,0.8706643971872642,0.8959503232230815,0.8566300850722848,0.960254873682916,0.9568880174532319,0.7735935046617962,0.9661166048759658,0.9280034908361184
0.2502502502502503,0.91951761638422,0.9451103476356727,0.8831582310976598,0.9239528661747582,1.0041856325364178,0.854280021431729,0.8863863018827707,0.8950359000467575,0.8887493865983709,0.8400277543050851,0.9310767074231786,0.9461623373907938
0.2552552552552553,0.9360313471903972,0.7756064804377104,0.9240704267046032,0.824729418808883,0.8310247686919372,0.7520239447766772,0.8587154695868154,0.9506909717721539,0.9081061873001314,0.8041894819891546,0.9678867066482532,0.948003184536933
0.2602602602602603,0.8939554432398276,0.8229381951333017,0.9028996059263201,0.9557600690385868,0.8134223709104557,0.8494136879666346,0.8461196053451722,0.8626687359136604,0.9663104987671205,0.8519346565244974,0.8496232839502625,0.9133581021798751
0.2652652652652653,0.8315216178616803,0.8441793818242097,0.8593602434416581,0.849822268936697,0.7173959872412548,0.8165864132006946,0.7988195890348913,0.8726646039288936,0.8095658232414231,0.836441103502861,0.8758624521265135,0.8708503069055742
0.2702702702702703,0.8910673765557504,0.7807946586872606,0.7420919480149065,0.8261237267669345,0.8551792225441163,0.8527886798437752,0.8700828983898397,0.7804949164381032,0.7620342316918871,0.8487139159353296,0.8270824206175239,0.805289895552028
0.2752752752752753,0.8239916000977882,0.8219626953924444,0.6906979579823995,0.7905234807738013,0.7664631760751537,0.7109940277149486,0.7286253138715989,0.8203815464168267,0.6556313009255749,0.767967307081596,0.827205932098009,0.7845349741110154
0.2802802802802803,0.7931844686162178,0.8531372266883672,0.7533182921084753,0.846119586900919,0.7900152735717101,0.7603465040910964,0.7619102228495918,0.7755129855134846,0.7353763962655427,0.7579403484818344,0.7484166446686729,0.7335419678784262
0.2852852852852853,0.7253512536175463,0.7763431262728434,0.6991054801238548,0.8014506356725569,0.7246548893628042,0.7303497445870132,0.7617229265817227,0.7553533425046068,0.6864746463673387,0.6849610028962726,0.6937028336429744,0.6729858713424939
0.2902902902902903,0.6441358530084363,0.6209134334240688,0.700521134710027,0.7265184132776482,0.7377283393666613,0.7117742045138715,0.7439428315085854,0.7328813920156482,0.7627652409633925,0.6126858059405116,0.6654838405453825,0.6709731474373497
0.2952952952952953,0.7282453746803323,0.6579170768532143,0.6291523076625414,0.7190626528006838,0.69962267903822,0.5435904832703489,0.6249386991663679,0.7508507240063758,0.6664117617012516,0.6903416318591458,0.7211039493151329,0.6547904377764071
0.3003003003003003,0.620577049636334,0.6746369436529162,0.69345069276196,0.6594495029867233,0.556193866343631,0.6661101610173228,0.709077212883843,0.7030112833976329,0.593272851060429,0.6665204718194364,0.6397677043523828,0.6828771695093715
0.3053053053053053,0.6399321610829031,0.5924948556303017,0.6479478887252833,0.5443646315857829,0.6057274168731517,0.6869103028449434,0.574076411864835,0.6164135622445341,0.5940344290240953,0.6379531709574084,0.6292095166203531,0.6194784179850723
0.3103103103103103,0.5756439045840381,0.5766043692401374,0.5279288302255453,0.5127069631646172,0.5453866176816724,0.5691773412377896,0.5150554062660249,0.6434296934859403,0.5982741713838047,0.5318662818112663,0.5572993008888261,0.599351444226681
0.3153153153153153,0.6121400581353178,0.5172069080953265,0.5368622456296397,0.5223094422973156,0.5776982992709895,0.554306400103403,0.5376156094980353,0.45575767013738516,0.468437040915811,0.44964835967748196,0.5067419700631314,0.553128465982858
0.3203203203203203,0.47149574150582785,0.41181126127635137,0.4840168045824246,0.5045435037653452,0.4783396686263562,0.5486206893428409,0.4727012530599038,0.47132158720958583,0.4791615569496734,0.49511214332096803,0.5355566815222915,0.47615177191723007
0.3253253253253253,0.44276075736791665,0.4841994307264637,0.4670856892843846,0.4057468904293323,0.5533357338707731,0.48619975904944707,0.37012338191708144,0.45439643978070815,0.4114821030534091,0.5046520027656919,0.5313890317171149,0.39758414408315235
0.3303303303303303,0.4627296863842491,0.5246740602173801,0.4585370389463079,0.45456854369031074,0.417625350274981,0.34255869703202957,0.35787826833644193,0.4018916948050565,0.48405248177568244,0.4489683408442497,0.46026469712374285,0.3709351529068688
0.3353353353353353,0.37786135036825197,0.3689277085917103,0.3727486255568505,0.39357200262780173,0.37379067066463406,0.3999711675929521,0.43631575598636685,0.4209463353435199,0.3834378020293315,0.507787688334351,0.42397267746481304,0.3558536631483724
0.34034034034034033,0.34592552375526053,0.277151801787948,0.3822739148659223,0.33898232129425804,0.38215866521838165,0.3553524257028385,0.32405292869907754,0.33492568106376913,0.28632557897137245,0.36507581072172707,0.27584530946116986,0.4642706913131642
0.34534534534534533,0.2950160053423807,0.36291001061245615,0.33362360059981194,0.4027861810286456,0.2471619800865903,0.2907882897004328,0.36973911533940523,0.2734312081131646,0.3517122252313384,0.241247244098228,0.3059378287382567,0.3105074311188588
0.35035035035035034,0.2786701355272866,0.337656370248976,0.19612068053130982,0.20688242337706766,0.255602264145361,0.2076026267772916,0.23721004208825114,0.21686629927653642,0.2721219281862958,0.2564626432552225,0.19032129892397903,0.28861947010737665
0.35535535535535534,0.19745457400411903,0.21750025301306153,0.2144783396399791,0.1966950904443029,0.28254537402893365,0.19464134900873006,0.18771433586994254,0.29822118780388035,0.21904240619075735,0.20495044351830105,0.3568006082524394,0.25207808162516643
0.36036036036036034,0.2425506652350986,0.16069951490313011,0.26699551032317637,0.17182414606529312,0.22159332071190146,0.11757333486964894,0.3034561323330539,0.14697241689343504,0.13147192349590542,0.18934547766747187,0.2301554619652698,0.2143467911953136
0.36536536536536535,0.24354203048237053,0.15503450009450495,0.19659388799433358,0.2136507579405381,0.2955582308284986,0.1470864460869775,0.16252815904803355,0.16772708422997917,0.19500322303004763,0.19131016258289227,0.1315333775720165,0.17059311783128528
0.37037037037037035,0.05682669804550382,0.02890050564924851,-0.031845942087793955,0.03256625081897156,0.16091182018067085,0.10276484322326462,0.08471750605600378,0.08930520997678094,0.08253766391307515,0.033920958219693986,0.08848821331742435,0.09835967232673487
0.37537537537537535,0.09721821877375905,-0.02063136624387292,0.06486234946543695,0.1112345079123844,0.08215251480029594,0.09754786872946064,0.0763647245116971,0.10242133139689763,0.1030079316748067,-0.013148868743671036,0.010578560613222793,0.1904685353476133
0.38038038038038036,0.08984962606857362,0.07306038228356261,0.16248969167792843,0.12461850723343913,0.07407541609570989,0.06279448583563747,0.025918153281589015,0.004115205540059921,-0.0018031646776225374,0.010737528049500608,0.040972702639674376,-0.0017529322586397403
0.38538538538538536,0.04593809628900226,0.031265378053484776,-0.013597251226407803,-0.013523360441275247,-0.051055959556902286,-0.04594698507877059,-0.02895962285193731,-0.04402054406587012,0.008605182320755939,-0.08674283517233194,0.019265348215291103,-0.055966351934468694
0.39039039039039036,-0.1466883960593619,0.009139724113590396,-0.14691532850593828,-0.09229007659250202,-0.08998464904876882,-0.03494377261328586,-0.12852460403356913,-0.03749454401910042,0.06406628154111624,-0.02828409094262744,-0.018925609698249003,-0.04611500760183993
0.39539539539539537,-0.040414763666539476,-0.15765174290514095,-0.08180816841580917,-0.16681356311491924,-0.03788206687016487,-0.04643298155609835,-0.05608393210221703,0.028928640794081875,-0.1283358143763411,-0.11111570404968688,-0.06832780727889166,-0.12412445659927922
0.40040040040040037,-0.12983543591342173,-0.04058862219303222,-0.13878905176665224,-0.14154478817455024,-0.20717250793156045,-0.15510214410395518,-0.15327854163604954,-0.16087799963553887,-0.14756973997135941,-0.09956820787704256,-0.08465863245194512,-0.1453365212647282
0.40540540540540543,-0.3495674644368918,-0.15590534917423327,-0.18195745640560387,-0.15782551726238678,-0.19574482352525924,-0.20157645971885232,-0.16871596489606921,-0.20181197662123396,-0.16457573829336644,-0.11046037825434513,-0.13532949327017363,-0.2266077886491909
0.41041041041041043,-0.23001789986021307,-0.24428838491170013,-0.19322485517989388,-0.2825765930546837,-0.2095878885753226,-0.2759284266954284,-0.2089584255315176,-0.2352742905764877,-0.23940662977424662,-0.18049035353684428,-0.19608177903233412,-0.23308856177218867
0.41541541541541543,-0.24628654197437444,-0.25083418504189353,-0.1482806838899876,-0.2603758321146272,-0.24641055748048982,-0.24548523018906215,-0.25560489121062524,-0.19752294593056954,-0.2163004459763861,-0.2249486721458255,-0.21116973822288765,-0.1744309338784633
0.42042042042042044,-0.19369113056167056,-0.25004516069592586,-0.3373808148301786,-0.3559054199313597,-0.16462654078604355,-0.3132599245468512,-0.22742608135663095,-0.3603870380607834,-0.3971822457131482,-0.27432782627309554,-0.3462472806488537,-0.3308017799487372
0.42542542542542544,-0.37194537155045815,-0.3673504658982911,-0.2692751517046321,-0.325529013268997,-0.3312921865017594,-0.3579929219380185,-0.33334912935594974,-0.38978259502832413,-0.35437581489737374,-0.34227655749459585,-0.32987741376941065,-0.4045233523442108
0.43043043043043044,-0.40086045114791546,-0.29015940069386487,-0.3645297374838652,-0.38219419631589563,-0.33158921237195715,-0.36809992836743644,-0.40724621486078977,-0.44418486652643097,-0.49098007235493246,-0.31657398323008307,-0.3024514829242033,-0.5118196268392912
0.43543543543543545,-0.480177358961554,-0.36264197421392236,-0.3864666711158675,-0.3859165280285147,-0.3473792436399458,-0.3746533532484491,-0.41324750529936016,-0.45614248863860263,-0.39704969427351566,-0.3933141818482328,-0.4045960525484675,-0.5337578754399539
0.44044044044044045,-0.4052549861177365,-0.46043320328971005,-0.4206020231879707,-0.45788479884158306,-0.5845616150975815,-0.5078615663560809,-0.49501629316608226,-0.43137638754493146,-0.4961580496198265,-0.46251212712857853,-0.3999204787790007,-0.3678703122156846
0.44544544544544545,-0.47439730516486556,-0.49232620076150085,-0.4136538047490635,-0.5119339605310294,-0.42738051024519136,-0.5197500551544028,-0.41137814058234295,-0.45103826051620427,-0.5259924586760116,-0.4802040561170184,-0.5682647034490125,-0.47584426348282627
0.45045045045045046,-0.5347969114687403,-0.5574718231004043,-0.47882278921476523,-0.5163675749101915,-0.6094403977704003,-0.5063242537111866,-0.4533107004537708,-0.5795565654768761,-0.42609181677500557,-0.5534143458622643,-0.5339574879789509,-0.4372523962153486
0.45545545545545546,-0.5922672428256907,-0.5565647637411426,-0.6037904475263494,-0.48288034640886107,-0.6308457016849844,-0.5791583369360233,-0.5525864666765072,-0.5710748722100689,-0.5550883539870272,-0.5804473719051038,-0.5525791176316212,-0.5364006110268981
0.46046046046046046,-0.7002470564100797,-0.6280875461529235,-0.5060913398627186,-0.5462615010155765,-0.5955047109163539,-0.5771375639587526,-0.7205396894050532,-0.5571312646538008,-0.6988274380252715,-0.5323835366846441,-0.6079701855842035,-0.5452072485655816
0.46546546546546547,-0.6539614875522438,-0.5864161197695977,-0.6515598272840516,-0.6096075252920968,-0.5916767256247191,-0.6744840175896705,-0.6194042431276094,-0.6073773879834504,-0.6899309071438077,-0.6355772460681806,-0.5435389900170489,-0.5570227485814929
0.47047047047047047,-0.7664538006045054,-0.6112575235227014,-0.6338210953490895,-0.6217729530112499,-0.6324634514706586,-0.683281978719108,-0.6432138374190595,-0.6192213789453127,-0.6663595119987634,-0.6247297552280946,-0.6301074475521647,-0.5591909420861247
0.4754754754754755,-0.6358125837730361,-0.7281635337390059,-0.7449188014836609,-0.6866655196082846,-0.6731069692960607,-0.6121222658823616,-0.6910723896736114,-0.6742800053312437,-0.7252590913005739,-0.708232058723671,-0.7394193506572704,-0.6639684030487714
0.4804804804804805,-0.6196110907671276,-0.7467376952269432,-0.7599066239101779,-0.7026820965831011,-0.6866254049249584,-0.6905040890117102,-0.7599850878617055,-0.8075995220672496,-0.7443874479805922,-0.7862819074785831,-0.6017145082086983,-0.6118983191568271
0.4854854854854855,-0.7344126705963456,-0.8350224754911433,-0.8414992448669424,-0.7957776985673456,-0.7232306989388766,-0.7515313206945348,-0.7138195318606692,-0.796246547692079,-0.6489205607623636,-0.7452284559521679,-0.7255218810490563,-0.8027039858529672
0.4904904904904905,-0.7830573867751591,-0.6822038051647278,-0.7069095439188701,-0.80225685897975,-0.7453225622337382,-0.7369647420817412,-0.7028902827360967,-0.7397977831416931,-0.7350252304229874,-0.7675375476845698,-0.7055123350242749,-0.6993387703447135
0.4954954954954955,-0.733584111886547,-0.7285302201838223,-0.7387049882668221,-0.7628251542454022,-0.7782196157543882,-0.7535081518822377,-0.6269345045166244,-0.7346461422786087,-0.7506828460920834,-0.8007951890564576,-0.8080224399784699,-0.7820096319418729
0.5005005005005005,-0.829603563024425,-0.7826943612535989,-0.7066451952726225,-0.7422517979002619,-0.8152224301786531,-0.7807183688634842,-0.8593737818447175,-0.8608093546943126,-0.7692451504830788,-0.7462950715447186,-0.87005258787656,-0.8722027505187138
0.5055055055055055,-0.89949662228462,-0.8826961901731782,-0.781246096990856,-0.7958882756144152,-0.8372924994298196,-0.758796177163702,-0.8203796194679572,-0.8974236582029359,-0.8653961206522507,-0.7840383341889203,-0.8934715276278643,-0.8064687282856792
0.5105105105105106,-0.9287093069066303,-0.8892109897024483,-0.8603675793352218,-0.8881019849990621,-0.8230392297074822,-0.82985369938262,-0.9240847860074278,-0.86583732176535,-0.8530827266951395,-0.8731527075493556,-0.854145812786992,-0.89994505807064
0.5155155155155156,-0.8069707141557797,-0.9150766350716378,-0.8420789134634294,-0.9426483359436671,-0.9464491627440066,-0.8448190344723102,-0.8443290412554053,-0.9350192499525928,-0.8194662023927208,-0.8566397905716016,-0.9014261921458093,-0.9018158799474173
0.5205205205205206,-0.8237439958565062,-0.8985565061539464,-0.9157125496367075,-0.8304381487797462,-0.8888272090719623,-0.8861525666980146,-0.8574195013253536,-0.8377961599542558,-0.9285555299676902,-0.8464545531841947,-0.8792006463671408,-0.9089312823967611
0.5255255255255256,-0.9352403719970359,-0.9493263868436992,-0.8417122074126172,-0.9315043242035953,-0.840174123004117,-0.8941115761315567,-0.8741189683660608,-0.969174587843745,-0.9146407841704182,-0.9713687797401989,-0.874788725183423,-0.9378110154996443
0.5305305305305306,-0.9202612831657447,-0.8475518819441015,-0.9232589062838295,-0.990209256015377,-0.8531902809779361,-0.9716340086549837,-0.9272679631136712,-0.9563410818024595,-0.9462403990306344,-0.9558880355597486,-0.9642990686520597,-0.8775334935841917
0.5355355355355356,-0.8492229504828589,-0.9150100702742028,-0.9419879165224476,-0.9252622346829535,-1.0065378925093225,-0.8918767042719241,-0.9719254876453081,-0.962375392874199,-0.9219784030358745,-0.9643267381332513,-1.0122071540227315,-0.9974594493013306
0.5405405405405406,-1.0274391206657436,-0.9358325594153174,-0.9739706977696396,-0.9035994067315081,-0.9898592698934952,-0.9138398109722111,-0.9278204368669387,-0.9288840054534144,-1.0128186317188967,-0.9750448776902194,-1.0582957714426002,-0.9361490793905407
0.5455455455455456,-1.0244084595552765,-0.9868844955427034,-1.0279199035525233,-0.9286426889795443,-0.9296488129998334,-0.8933230296036099,-0.9777389526454794,-1.0355814792130884,-1.018546164954906,-0.9528939622122511,-1.0201694872520035,-0.914893519146776
0.5505505505505506,-0.959824285108648,-0.8766978822892376,-0.9327356271779172,-0.9012890909855565,-0.9609342685368409,-0.9395636546758945,-0.9410956280473224,-0.9814988435423845,-1.0478415253920697,-0.9699221526414965,-0.9555987101893184,-1.0032430520889295
0.5555555555555556,-1.076119999649639,-0.997850566238002,-1.0169149962009472,-1.0483368136648334,-0.9352879755218717,-0.975020848429158,-0.9428695172900399,-0.9742541783033959,-0.9445263573674453,-1.011699573570526,-1.0205752806612254,-0.984240958135189
0.5605605605605606,-1.0049673555659815,-1.0379318999821285,-0.8970977434622682,-1.0504716706297699,-1.006897422541392,-0.8886115388825057,-1.0172182254135156,-0.9621417195394911,-1.0763905989927678,-1.0254824563070544,-0.9942802934473182,-1.0317349940581988
0.5655655655655656,-0.9859646102822881,-1.0037279855904735,-0.9983861052001737,-1.0350780331063663,-0.9722105931113774,-0.9844824177582463,-1.0294082870335237,-1.0647808162848493,-0.9408470251376889,-0.9050515211578348,-0.9675131519432365,-1.0604861685344986
0.5705705705705706,-0.9846689370241561,-0.9624209021529136,-1.0706121546979916,-1.0380220225113606,-0.941305757000416,-0.9471895230727387,-1.0063952258207585,-0.9835810459546167,-1.0144563701684466,-0.9737078329818822,-0.9440054626116505,-1.023388795731221
0.5755755755755756,-0.9832955980006881,-1.0225493429971013,-0.9101102669176544,-0.9948177532091799,-0.9758197214034712,-1.074391565335665,-0.9988394199840713,-0.9679662298884045,-0.9714323710285917,-1.065883041144639,-1.043465397228462,-1.057270051999982
0.5805805805805806,-1.0027764194652498,-1.0608750503203723,-0.9821794911514894,-0.9058515547217669,-0.9783153723601444,-1.0502505779817108,-0.9433100191440121,-0.9874312474959301,-0.979731473247959,-0.9750917325252796,-0.9226225269534654,-0.994724908671842
0.5855855855855856,-0.9514904435389085,-0.9699227312742019,-0.9698777332200649,-1.0208259178860757,-1.0547575129795665,-1.0035704146598627,-0.9398879450662095,-0.9947601750414268,-0.95689367635509,-0.8935419847611312,-1.1435184451199423,-1.067170077536019
0.5905905905905906,-0.9171257665342729,-1.004507502098372,-1.0141250254217105,-1.0673434978718777,-0.9582536995651533,-0.9680308951548204,-1.0187064517458695,-1.0445141713352406,-0.9762534192734023,-0.9815280649110996,-0.9156439327530017,-0.9920653553539808
0.5955955955955956,-0.9730017691984267,-0.9924898651185816,-0.9379263881604301,-1.0581195121570073,-0.9534896652264552,-1.0561831137187674,-0.9989818217708277,-1.0722452677822574,-0.9621294462377085,-0.9308302762551565,-1.0210108759480874,-0.9961402218766973
0.6006006006006006,-1.027668565554528,-0.9160983388206846,-0.8741853877779701,-0.9731214698555843,-1.0725762191789232,-0.9047508952137255,-1.0370644626883996,-1.0360061628038937,-0.9962436460678725,-0.9383291441219996,-0.9486283150396725,-1.0485013852433411
0.6056056056056056,-0.8707051458168855,-0.8988229009420421,-0.9875459559627241,-0.9969659911870576,-0.9959506476715299,-1.0666197603520438,-0.9697631042498167,-0.9444607296668848,-1.046191809373693,-1.0266179183095285,-0.9615680003574855,-1.0158156417767843
0.6106106106106106,-0.9128910427276395,-0.9540540151571213,-0.9593817130885137,-0.9469702721508406,-0.857528639714239,-0.9404593163318538,-0.9572319707385514,-0.9180523939010579,-0.8511993815422783,-1.0114822410576663,-0.9912612114282566,-1.0067586697982167
0.6156156156156156,-0.8562545088889241,-0.9639107122250574,-1.0823651119603002,-0.9857620786245668,-0.9309673965848921,-0.9279815336220756,-0.900522818113271,-0.9776958606116889,-0.9658542962514529,-1.0223954608183443,-0.9809001006128806,-0.8739520837355961
0.6206206206206206,-0.9113526546812047,-0.8866319504763628,-0.8874223727360919,-0.9567140580551827,-0.8811586228026416,-0.9259597825216093,-1.0038907331376974,-0.9108944633860603,-0.9088252152642617,-0.913735465746246,-0.977970700766286,-1.018449412322704
0.6256256256256256,-1.0015611909820468,-0.8640804264938456,-0.8907595993453764,-0.8476950963830053,-0.8736867770847325,-0.892997818037463,-0.8381117473565232,-0.9248317635469709,-0.9274472791481002,-0.8603418327844637,-0.9293721347680992,-0.8853815474917548
0.6306306306306306,-0.8615692174068716,-0.9526282435469703,-0.9699893347981307,-1.0118155233088524,-0.9007335070482974,-0.8085006158332165,-0.913022539898964,-0.8513836955745347,-0.9862676953783791,-0.9246908167973072,-0.9810895729947386,-0.9197206596236231
0.6356356356356356,-0.8262535071071185,-0.8372851179286606,-0.9250494602715376,-0.8794888832524852,-0.8835731990504226,-0.8793674583079759,-0.8982510523040894,-0.8692590424492291,-0.8359601112834092,-0.8731655514347646,-0.9352787090481122,-0.8695443188130396
0.6406406406406406,-0.8435203051732818,-0.9007150362852411,-0.8382631090745774,-0.8578017324024193,-0.8413504836756543,-0.8612630294532492,-0.8575193652791753,-0.9564274032337474,-0.7551424339975384,-0.7792438270046071,-0.9163171659421244,-0.8119776737948237
0.6456456456456456,-0.8139482599856518,-0.8205553949201385,-0.7927433750528654,-0.8411250969299571,-0.8971427272992591,-0.8018176512736204,-0.7837757319107126,-0.8873117052246696,-0.823966985180676,-0.8146887725989762,-0.8936048179591274,-0.8646496104328171
0.6506506506506506,-0.8572399777323876,-0.8699781745475357,-0.7638954907914584,-0.8322666463121705,-0.8679311877189166,-0.8139437095414519,-0.8760991353473233,-0.7792519111019257,-0.8703049218230476,-0.8048039212842575,-0.925326742823044,-0.8338654567052877
0.6556556556556556,-0.7684235296694082,-0.9116362791364747,-0.8032674873300797,-0.8109904666666314,-0.8190894373360532,-0.8008192385818369,-0.7754555040926335,-0.8639759156865385,-0.806228619342074,-0.8015542391167663,-0.7837546123355945,-0.755290689440781
0.6606606606606606,-0.823963109366183,-0.798976039918302,-0.6717781953109185,-0.8021430936817523,-0.7423392381236158,-0.7761187415985271,-0.6991666126616846,-0.7293915941227352,-0.7225973711244584,-0.8025072469413977,-0.6858091017245886,-0.7262244801307873
0.6656656656656657,-0.7834861449738438,-0.7648662586187162,-0.8357380037352181,-0.7285986089434764,-0.7328710540179938,-0.7597241594647197,-0.6918424264369792,-0.7502210000238669,-0.7608139904474647,-0.7016486391484115,-0.6742105925224754,-0.7847553610993258
0.6706706706706707,-0.7677518296271388,-0.673190609551614,-0.7763980025395288,-0.6176529420377985,-0.7142329817768539,-0.6485228808024022,-0.6929970621338611,-0.7766889253894315,-0.7053086301114238,-0.711241054339962,-0.7517332808055648,-0.7321530394769658
0.6756756756756757,-0.6748614156537458,-0.769508137438395,-0.6842359297239144,-0.6481738977781994,-0.7096017368064158,-0.6902608732865769,-0.7016620516453355,-0.7275465409762311,-0.6904314276381092,-0.7423314454071214,-0.7543743742708384,-0.6428132407358323
0.6806806806806807,-0.6354437060596091,-0.6694265917576996,-0.6146496593613533,-0.5992574258205478,-0.6548319446335962,-0.6938197982519668,-0.6219140252762041,-0.7239810766295396,-0.6588604544410864,-0.6790259806070391,-0.5516280064577627,-0.656223660475625
0.6856856856856857,-0.5901998895649389,-0.5823016419796128,-0.6386388264773191,-0.6081338228404772,-0.634516119687772,-0.7005658899951249,-0.660979422295035,-0.5727037414455753,-0.6568115623077388,-0.7329579677200283,-0.6747755608528215,-0.635578395374228
0.6906906906906907,-0.5531261042043659,-0.6113223284633224,-0.5379168316791301,-0.5928663261679856,-0.6736017353673577,-0.5320271411032406,-0.5936050858329038,-0.5901938873945842,-0.588377611251002,-0.5741141814997026,-0.5966925815156863,-0.5486954380514958
0.6956956956956957,-0.5521900194648273,-0.5508897101656856,-0.6318503563200945,-0.4879619731540575,-0.6036752274440212,-0.5937909539086452,-0.5818348446707545,-0.48436825836858566,-0.5336746730634506,-0.6528054324877048,-0.5675079716756788,-0.4630770191040903
0.7007007007007007,-0.4898996465258775,-0.48745084621233403,-0.5906872768069824,-0.5730147724641959,-0.4960029619548238,-0.540713472155851,-0.5561987632163685,-0.5135896645957237,-0.5098169611043915,-0.49697389242458107,-0.5647636362913148,-0.5778797873808762
0.7057057057057057,-0.4664696893514688,-0.4887987234407749,-0.5545044830857516,-0.47505800803934994,-0.4849917149434921,-0.4709594132834212,-0.6128849125294863,-0.4759189888853248,-0.44271788344861895,-0.577780137924291,-0.3914839226133896,-0.46100601761963683
0.7107107107107107,-0.4720016695263954,-0.35869027406368187,-0.44284481956006067,-0.36874390599296825,-0.49174623391866806,-0.4093984177666923,-0.49882189801263044,-0.48226632208432973,-0.4602687192524154,-0.4885895212786174,-0.4408090928743708,-0.328482833616911
0.7157157157157157,-0.4426372960607277,-0.3686453045927215,-0.3897093735139372,-0.40404806998978665,-0.49380966723469866,-0.4493683889912784,-0.4497998761911888,-0.3843890654080112,-0.41424679563732303,-0.45554935918361494,-0.4771043284923786,-0.42751762226370393
0.7207207207207207,-0.28304294006527414,-0.31363287227404946,-0.4089364475739337,-0.36676550060051655,-0.3948666829493629,-0.5059316401193639,-0.3230039674396858,-0.4015733728907344,-0.38604940691470824,-0.3708729108105764,-0.3808962438121281,-0.41859901638836294
0.7257257257257257,-0.3206524117509568,-0.31801104847205175,-0.32467501046870434,-0.30433846851237023,-0.4196376789087775,-0.3017982919721696,-0.3006848834333795,-0.344010336309564,-0.37352641367101114,-0.3797023739702172,-0.32875246870629055,-0.2956634937382946
0.7307307307307307,-0.3256334689600761,-0.4196047872263323,-0.3048083089160873,-0.3393338155568801,-0.22367746698407473,-0.2750121417869226,-0.2837052926218175,-0.34663199344564954,-0.28018753674709745,-0.2738660332274112,-0.37292561808502034,-0.251247663614792
0.7357357357357357,-0.24601134558529822,-0.20560515897512951,-0.29779457353496047,-0.2445239325288518,-0.27311023325065614,-0.27589492249506953,-0.22485242748308037,-0.28556541613285935,-0.22595375708273685,-0.29734405377986406,-0.19582661803856208,-0.17766159210807364
0.7407407407407407,-0.20768192298500834,-0.281602480680771,-0.23625344033771595,-0.2734882567264272,-0.22227154272282565,-0.22863501191179364,-0.20700668949319878,-0.22713300715096021,-0.2130787558067016,-0.15751300799463247,-0.21901568656412196,-0.14080614186996226
0.7457457457457457,-0.12241642221095475,-0.24905531985479082,-0.21802747689915353,-0.12307481536732902,-0.04500040563985552,-0.205085301597272,-0.17943108669006613,-0.1964568845112369,-0.18194689451614476,-0.21141264233225232,-0.274444176301907,-0.15088278629526514
0.7507507507507507,-0.1911724574541557,-0.11103624414119216,-0.15524194901221927,-0.1575602981125671,-0.15902211854840184,-0.19020702237325632,-0.2017923209215206,-0.2576872749439934,-0.21517228465755844,-0.12796018319760064,-0.07593742521702436,-0.11493638701198428
0.7557557557557557,-0.04685262202784754,0.007618609076756655,-0.07670284875266925,-0.1570454833352247,-0.0848079348706205,-0.11488144902628175,-0.1152989774408311,-0.11753360054163928,-0.07834121722113421,-0.10175485965841806,-0.14240775718480164,-0.0834516429468893
0.7607607607607607,0.019370753379432115,-0.007471097169883874,-0.04681326221079869,-0.06637457167423105,-0.18522828641195122,-0.09046567866095222,-0.06317743386387355,-0.09632986719922058,-0.107422537394995,-0.12622024696323167,-0.025631905228659643,-0.2270488922922363
0.7657657657657657,-0.043291212140327634,0.01681658372310502,-0.1305102427188127,-0.04543768710919327,-0.020163360129385452,0.015409457216686708,-0.08845953659678371,0.022185965171983842,-0.0144861418572162,-0.03406052062977912,0.04188565350353338,-0.016717905198258685
0.7707707707707707,0.02469558459250662,0.06161258010149466,0.02228141475525222,0.06557726740672187,0.034404203672445906,0.08022985449725287,0.10949784178786484,-0.05416745700637317,0.08316037195488674,0.018271715095702044,0.021187398581454117,-0.0043443095451292
0.7757757757757757,0.09251390585534777,0.03909242354464875,-0.09724659453296791,0.030036669567959792,0.09692424653969027,0.06061967562193033,0.01589776617560467,0.05820862628791979,0.0930535292656954,0.13255724521302792,0.0978365331528887,0.07745983725289876
0.7807807807807807,0.1232186987360168,0.1582225419576362,0.062292381120478725,0.13474307782507788,0.12975579776740262,0.04801932410294557,0.0728838039054121,0.1350459949920594,0.07691777518562243,0.032863917504861846,0.10262168053591325,0.06357369961638032
0.7857857857857857,0.12498731029401365,0.18146033951598262,0.07431643853790396,0.16088191429876283,0.13580815594161652,0.20883540762265657,0.15844885461011773,0.12658323966044516,0.11646136653790282,0.13835760605712144,0.15260236833102037,0.19631990057164636
0.7907907907907907,0.19632667439175483,0.10117173299098937,0.1773192641272304,0.1446360959632257,0.233003052019689,0.11386647250897619,0.22189423477747616,0.1516894454015048,0.09722936201561731,0.11333218869860306,0.21392273588572247,0.10351817702178139
0.7957957957957957,0.1759240316364868,0.2644545351965424,0.23025822402945167,0.2424809171334831,0.20791306600094794,0.27048563591313424,0.1684696524320069,0.2526886640874444,0.1881191410884708,0.2341515126538463,0.284805753415688,0.25057605746612743
0.8008008008008007,0.18809751399966723,0.3018885625130651,0.18920856455148233,0.16667198732885977,0.31685689968704217,0.3259987229315679,0.1754341773671051,0.29369336674767466,0.1696724108659328,0.22151026442598382,0.2693324750765284,0.3112488417508995
0.8058058058058059,0.2801086092668741,0.2536429691010382,0.24881289447561877,0.23972734587583575,0.24509549991254242,0.30339190147740414,0.37302389453931745,0.36302879474704547,0.22823614158699485,0.2970075563110608,0.3040764006249005,0.21590730546439985
0.8108108108108109,0.34491871150470427,0.39974480294461184,0.40274770668220317,0.2723419570969925,0.3274547209755304,0.3389701879620375,0.4041918372365029,0.2545921218711392,0.3875038892210087,0.2470550542396518,0.20846922519310956,0.3237470466708197
0.8158158158158159,0.42414137087466014,0.43957711459226384,0.37678999766674176,0.3180306284331066,0.33628954052900434,0.3213487308765286,0.3302749986068767,0.31265412702817547,0.34598543619764655,0.34177460752955946,0.33312749455670365,0.2995861333737947
0.8208208208208209,0.4654427686359169,0.44368965169274643,0.4450659741669134,0.4627175643698486,0.3705374070533871,0.3372595250841873,0.3921207498125724,0.41941530512901404,0.45172913783259444,0.412974099452784,0.4933393035402524,0.4512545938488583
0.8258258258258259,0.47652191710637914,0.48453970303978167,0.4100519993768094,0.49237967593689996,0.40442105227270436,0.4792362143217779,0.41078340683339604,0.3525514859174598,0.4852955867266337,0.3688524546045556,0.40172638826595786,0.3949151852401776
0.8308308308308309,0.47312574062908486,0.5529439723448207,0.4447050642095219,0.49837964883985847,0.5349442274417049,0.5845878051388449,0.37865858992880425,0.5061928222936489,0.47527775447604453,0.4683630879143077,0.528278982689214,0.5289852975317502
0.8358358358358359,0.5007490205110666,0.5421445778113193,0.4663344320035235,0.4856470426378083,0.49306108127996273,0.5499217948718184,0.487842710718037,0.5739006887528193,0.5128040748649855,0.5362720817096313,0.5610381168570742,0.5563307953085411
0.8408408408408409,0.5027054901885046,0.5262102594750874,0.552439145442779,0.5289108964901796,0.5322008734751649,0.6141139119402134,0.4766695472343233,0.5790600390013895,0.5704073927765448,0.48687767456275743,0.527230260377019,0.5187146255733455
0.8458458458458459,0.7041832979461574,0.526362413037199,0.5833143907427584,0.5767176360250484,0.552310341677901,0.5252842326870562,0.6280317917277195,0.48744738394990006,0.617640479780492,0.5611876041669228,0.6216995568249252,0.6400209840209149
0.8508508508508509,0.5443830751013623,0.5324209315253648,0.6619076148328743,0.5579179776508824,0.6002740430726278,0.6212257134667568,0.605059993736536,0.5560917789298985,0.6399816940817747,0.5679916860208495,0.5931238690575118,0.5652068551517374
0.8558558558558559,0.6998516598173966,0.7098131235697627,0.6586368155327741,0.673730139104937,0.6006459133053115,0.7304448908955532,0.6506479751756021,0.6075308135093205,0.7189898938294681,0.5591443804140424,0.6566709398761197,0.6948009431989284
0.8608608608608609,0.6433706887200389,0.6606544092450917,0.6867409821980732,0.7218624481525331,0.6532824877967398,0.6347428211016579,0.6947675511819995,0.7177580071554658,0.6613495946434478,0.6140194644714644,0.6642181914978635,0.6582695848463271
0.8658658658658659,0.6915830405757197,0.7970053587573336,0.7548779369182321,0.8402193933717265,0.6411210253598225,0.7198445145159181,0.69576970775216,0.7428360318724527,0.7625706617199427,0.8275570958526217,0.6989995038701287,0.7186273417422628
0.8708708708708709,0.8060386547446273,0.7186194542475347,0.796718275080398,0.7794260109436745,0.7962775288632752,0.7267699017619128,0.7169287777073114,0.7891715479079919,0.6983129401537146,0.7741874996022835,0.6787022228186749,0.8535167011999558
0.8758758758758759,0.7476606138492158,0.6741013500917672,0.7663335153612642,0.743933652378578,0.7645192823600361,0.802912136875557,0.8258533612070604,0.6933609582346238,0.8265847620305754,0.7632864392390627,0.7648920102570217,0.7775530228660785
0.8808808808808809,0.7034811373161243,0.7824528043557218,0.7463504882000583,0.767247818246205,0.7320034671852598,0.8309142015844987,0.7365572773869997,0.8356683457182702,0.8319268813138034,0.6975216983654547,0.8175064582071445,0.663166685059528
0.8858858858858859,0.7759505933726342,0.859701761347044,0.732078464585924,0.7408859729408079,0.742096434751347,0.8307105665983632,0.7606425213030602,0.7574297004444315,0.7351437025533173,0.8994834511385263,0.8546513272734741,0.8034422167326767
0.8908908908908909,0.9001322746917759,0.789376220898088,0.9309714544970951,0.8198344867669114,0.8225716789645948,0.8888442844659861,0.8208271283053442,0.8181092837374161,0.8207561957484002,0.8264524209219553,0.9045091432114002,0.783616198534741
0.8958958958958959,0.7804850209243834,0.8782223213117807,0.9160287534690915,0.8192117634151339,0.9228606840464554,0.8203433538871622,0.8644968457239748,0.8923919904678793,0.8747755444593386,0.9407905666005888,0.859918681069488,0.9632872251894061
0.9009009009009009,0.924031900130769,0.9139238759631327,0.8986077665766866,0.9545698719060318,0.8570256229798904,0.8707686068191562,0.8497073405487573,0.9493475493690327,0.9637819842457584,0.9407194885215944,0.8390443480861507,0.8857385324615581
0.9059059059059059,0.8568915743865083,0.9288744530261404,0.8675843003279087,0.9527084234360289,0.8394099101393941,0.9279987991734875,0.956591049777957,0.9012647645694297,0.8775077232927608,0.8253502574130513,0.915032738989665,1.0065218937307292
0.9109109109109109,0.9838021491731445,0.9973104703775034,0.939115233242651,0.9521347802418177,0.9626855642409583,0.9744809134305853,0.9373256570924903,0.9318866802521603,0.9523224551392324,0.8815653367511525,0.917836177858931,0.8546029609348592
0.9159159159159159,0.9127793916630017,0.9818837222476058,0.9000313700735024,0.9294634189815699,0.9185034312988553,0.9231761340888485,0.9712394287484655,0.9499228252783825,0.9830008123846037,0.9185511476425277,0.8922502502971102,0.9042611253453996
0.9209209209209209,0.9830773592109349,0.946386496188043,0.8909453147747222,0.9022080032306646,0.99915532504627,0.928351452976941,0.9619068009500668,0.8633922943492107,0.9480846148092233,0.9261994509074069,0.9901358799136103,0.9716419680511513
0.9259259259259259,0.9336146963713845,0.8811641119139156,1.0482612518836287,0.9388811896959024,1.0064105423930023,0.9686047429874416,0.9486475651862375,1.05664628604425,0.8902246533348972,0.9588043271081134,0.8742597052571423,0.9861995387536923
0.9309309309309309,0.9527134921396715,1.0263176949630646,0.9548883595258171,0.9333499525917633,1.0302955583228728,0.9717350883727335,0.9882573031807552,0.9326428915979178,1.0209260608005468,1.0482136692032404,0.9451457495831735,0.9481153446995858
0.9359359359359359,0.8776373836962209,0.8935447317888866,0.9440423643570758,0.9598473658258075,0.9776207869355391,0.9535309407596065,0.9285646001260542,0.9536715643631365,0.984731954560523,0.980117403898862,0.9536956352246416,0.9278969388628189
0.9409409409409409,0.898596936793466,0.9614668689653089,1.0182000207497204,1.0046158260574214,0.955774728304682,0.9500064746222879,0.9817423310432902,0.951625629327065,0.888344653556641,0.9941340541302534,1.0457232002043808,1.0757943222795632
0.9459459459459459,0.9411213473479643,1.0634809675908157,1.0374711573536801,0.942232773224579,1.0819289670515984,0.9849313220093842,0.9556212753909235,1.0165773387532209,1.1364165075310528,1.0017930234876102,1.024561771564528,0.9602682632032653
0.950950950950951,0.9239248460922092,1.0583197687394712,0.9970865293960427,1.068310710356665,1.0254120587891158,0.9458840604279241,1.0248103509515525,1.003243813401866,0.9998154469678543,0.9653431925017515,1.0127028240405958,1.0283344631865332
0.955955955955956,0.9160202681852883,0.9896534283426327,1.0425752411118823,0.9781488833543167,0.9866695444748798,1.0257680792669266,1.005343087460159,0.9514125397473636,0.9837182354855976,0.9576607751066296,0.9976143189933349,0.9221472596842507
0.960960960960961,1.0233379426579914,1.083423312139416,0.975973505531897,1.0063081328164403,1.055632253440945,0.9966973114806075,0.9872992261295228,0.9625093634882984,1.03567260428222,1.0715615824837936,1.0772396222127045,0.9924383662299835
0.965965965965966,1.0515082474069304,0.9377188894139318,1.036060284712736,0.9817251797648601,0.9725910229371052,1.073542604360934,1.03591079644855,0.9951304023490993,1.035996111544792,0.9484812321891871,1.0358030930667732,1.0428603831743448
0.970970970970971,1.0503137446833775,0.9875780800210436,1.0113104138543283,1.006591520791689,1.032071864246352,0.9080521072544309,0.9980823304209278,0.9715328484347127,0.9942826655915423,1.0009719900025278,0.9711905106976644,1.0106416965060077
0.975975975975976,0.9487861981362992,1.0279038533966527,1.0133219583914228,0.9683473589197065,0.920763146648209,1.0860805638743931,0.9480806653187627,0.9680812307644624,0.9713973130843887,0.8986234616892477,0.969676894658359,1.004432395873137
0.980980980980981,1.0241086932383585,0.9554991167196208,1.0420162573293916,0.957696696575296,0.9517127762469314,0.9894616906511717,0.9654490258669272,0.9224795282545425,1.07561308216304,0.9858588072739133,0.9571632114163677,0.9528931561296324
0.985985985985986,0.9861849678044805,0.949370796459804,0.9391878130761004,1.0334425474231004,0.9780977324095382,1.0168903210924654,0.9728884044417735,0.9905367336824207,0.9963808544923659,1.0012508428490525,1.0577557592206632,1.0215003516510393
0.990990990990991,1.0016171122281798,0.9343756386855783,0.9846783058624092,1.0637567560861392,0.9172007623911275,0.992692217102854,0.9799436448337779,0.9039114421152076,1.0381087266868665,0.9906910567507962,1.0778765057952024,0.9661908423890729
0.995995995995996,0.929353046850124,0.9334740210249841,0.8901667013889183,1.034176082634198,0.9520028584536573,0.9220601389486857,0.9457494168901472,1.0484804577986535,0.9448142053603066,0.9194096764798745,1.0107333485653238,0.9345496741682869
1.001001001001001,1.0091800679986553,0.9674098420882433,0.9111208035615683,0.9559485206529461,0.9259473953288037,1.134920154569491,1.0101586067222144,0.9229456015448706,0.9534700722365541,1.0204621337694337,0.8787510147056555,0.9535603605411787
1.006006006006006,0.9705379693713374,0.9864856104751804,0.9134687757263528,0.9364147512505421,0.9883567205524134,1.0137287072144374,0.8992297611117307,0.8043566713832513,1.0144287472847888,0.9762345948248896,1.0268185171866124,0.8556060121018659
1.011011011011011,0.9432613679777019,0.9778916552994947,0.9348081063891572,0.8355622052425603,0.798119906205667,0.9109284646847817,0.9375905868734911,0.8943141089906919,0.8883219658909988,0.9829942170900415,0.9309809148181081,0.9436055854743742
1.016016016016016,0.9296495940907854,0.8246212302718298,0.9189208467608273,0.9605908334605305,0.890861343485919,0.9982668111181077,0.8948926066465123,1.0012028000435595,0.8402792504792425,0.9042150609549985,0.8933906142863969,0.8742651704313863
1.021021021021021,0.795962925529353,0.8363823157513449,0.909735160838464,0.8507111172962566,0.8246985900803693,0.9188668481749891,0.9464707252901071,0.8514520629800084,0.8241438686494649,0.9419546151801346,0.9221910751854462,0.9599883995046089
1.026026026026026,0.8542110673242569,0.8386347168711907,0.8666266776108038,0.8471810697084025,0.7896356763372541,0.8803808554109553,0.8889486983799572,0.8207538249363071,0.8882536326899263,0.8434478760276611,0.8887941698482025,0.864959164017994
1.031031031031031,0.836562741103888,0.8604170363328402,0.8668411120581893,0.7873278572364785,0.8240255332032804,0.8155367633364723,0.8923492823099305,0.8995812438592516,0.8498923804406127,0.8157474225947344,0.7699397651255113,0.8210608405577461
1.0360360360360361,0.7956989472487471,0.7935806195225342,0.8807107417302926,0.7747846757001802,0.7768976342919924,0.751492725742687,0.8021924285023497,0.8578567481616779,0.8610545983818645,0.8890566686583278,0.7714941044625325,0.7795375291927182
1.0410410410410411,0.786002155070286,0.782979443148725,0.8577041803793275,0.7895749149518624,0.7805535634983324,0.8251665248548938,0.8031393177267937,0.722235382352443,0.7272983258196251,0.7467223622911898,0.7493342316945698,0.7312471751922909
1.0460460460460461,0.7357304795672835,0.7491134701978707,0.7172316417395137,0.8172853389254436,0.796579761898877,0.723784636373324,0.7519763964029351,0.8089819579831317,0.7075112449677325,0.7860219009906904,0.6812194796986778,0.7617059864717012
1.0510510510510511,0.7576057563245754,0.7405476032165814,0.8166066303019914,0.7887982771205672,0.7990788547890891,0.861937455174644,0.7402240345887799,0.6857943118441323,0.645435289817855,0.7820271568412216,0.7729410702149614,0.710760043779578
1.0560560560560561,0.711125503814718,0.71791917821324,0.6853929820812381,0.6436960693286182,0.7536273672694624,0.7280342365409307,0.7059815757139383,0.734059469609839,0.7379191409714163,0.7586881408801615,0.7860307262941828,0.6136695741154906
1.0610610610610611,0.7200661808822011,0.7082014116749111,0.6786824728418089,0.6942318219482078,0.7137074693456894,0.7118403048718723,0.6510364267579579,0.6731880736870027,0.7063560566558147,0.7051640130138611,0.6668777350500278,0.6727542425106398
1.0660660660660661,0.6212323280598884,0.6418202647425346,0.6810098626439574,0.7417623272907554,0.6201880050567602,0.7106960515139307,0.641251019407708,0.6829727862135062,0.7070696748432647,0.6316433091563449,0.565467241310212,0.6696740541706854
1.0710710710710711,0.558939157708545,0.5795720396200985,0.6225358191457703,0.5551848180254642,0.5753164087653418,0.5893087975682083,0.6702754973625957,0.5388822363142224,0.6069512567550351,0.693720742247964,0.517826836428283,0.6324829036385406
1.0760760760760761,0.6065274117168223,0.6163729067389514,0.5682710868678755,0.45453745075014296,0.5268779762099237,0.5039469334629331,0.6067877709604054,0.5819018315400808,0.6062597348464448,0.6327546938075821,0.5657339713255763,0.5955269661263394
1.0810810810810811,0.638276150881364,0.575621926577898,0.5655803246571809,0.47337161765677516,0.5125485860381973,0.7074559500589306,0.5848195887986721,0.6138207146844533,0.5864733542320182,0.6433649630742144,0.5943034986656492,0.5669121311662868
1.0860860860860861,0.5755294040535505,0.5299514371172842,0.5671368032696721,0.5651559429012165,0.4640910044476818,0.546226060184535,0.6265794971037937,0.4559267169196653,0.5525902033652298,0.5194341880270263,0.4755106068971227,0.6181744205988531
1.0910910910910911,0.467670308834288,0.5213609018804077,0.5587328081142303,0.43552701552680984,0.4861552165287777,0.5291640265450305,0.4669137010199681,0.4993361702236041,0.4529464451180011,0.43504434530548125,0.3952772041397662,0.5110154076175002
1.0960960960960962,0.4526903982719212,0.45208012036770745,0.49040602258779026,0.48605040422587364,0.4614392889322722,0.448571561744819,0.4141311319555866,0.516704587318021,0.4339591247729838,0.49129106537459616,0.41654120028278574,0.4278847002532592
1.1011011011011012,0.5693697201565933,0.5010102957089975,0.4000254408506311,0.47196480400992835,0.4110382359217825,0.32485565108663517,0.42370135607018933,0.4206571519591484,0.3538550862770768,0.4658249894163194,0.4107954025522645,0.44454567401789286
1.1061061061061062,0.37637974241703853,0.3961186154502071,0.3504635501085708,0.3860496888036406,0.3213730764254978,0.37137286720533463,0.49403812247159185,0.5290140150081574,0.3641451135599995,0.3856912601778583,0.37566904671524837,0.4807324551918585
1.1111111111111112,0.3359910249095029,0.2774394473279208,0.30131782850239486,0.27891309205802617,0.3020522456138124,0.3704253331003808,0.2694661135806396,0.29872475989546804,0.26286179826138234,0.4708399354570619,0.31966624887307205,0.3514201276522324
1.1161161161161162,0.2003055492978475,0.31702169153102466,0.323201784167784,0.34098236301610313,0.231059580350844,0.34583432744771386,0.3588947937777816,0.4117206164662748,0.2740182292630288,0.3641036669217904,0.36188517159027467,0.26590681539424643
1.1211211211211212,0.2748159884412139,0.2112451041782354,0.2849793083424878,0.2344841070979793,0.27605089763786206,0.2195546020992739,0.3216606809411907,0.2673372184524684,0.18582852227161345,0.29116245115521233,0.21672792160346277,0.3370384981357405
1.1261261261261262,0.22293584662665628,0.2993489546268702,0.23280130530299323,0.224323605063231,0.23414583755958707,0.23851260972687036,0.16494546085286926,0.22356749730478556,0.21589603749187408,0.26347383011989434,0.20928022185277376,0.2161111561855245
1.1311311311311312,0.13868544522079038,0.18474010994936022,0.20516003962719087,0.11541100344825687,0.17584049316189582,0.19194767244307676,0.20572866434080778,0.08767671140035961,0.28843009470206293,0.1815088982682025,0.18112842450283081,0.17038836526633586
1.1361361361361362,0.11150606796209382,0.1320559383893757,0.10417422172933344,0.15863489422834112,0.09400204489753111,0.10285078154271537,0.048412310519421714,0.07509956821072677,0.08901560787504736,0.10893792178170576,0.13299294520192745,0.2180732308233146
1.1411411411411412,0.15103940708322264,0.08644906855456336,0.09604138387090662,0.13569742652739078,0.082214772462933,0.09286986050979489,0.17450022681285318,0.08512320071911683,0.1733716135222132,0.014922447265932434,0.19777492014618514,0.09857993224919762
1.1461461461461462,0.10931513232094936,0.07607063763227932,-0.03078839254053002,0.036101029315740815,0.0244490668418249,0.027324038138203423,0.023373566558069242,0.1359815829172562,0.1061432121786936,0.0986956068885381,0.0731112135832495,0.07801012997856817
1.1511511511511512,0.0018671521276207963,-0.012883898099567932,-0.029243422636296628,0.05296967370089433,0.05886964708859688,0.06478181283013659,0.06051929636203686,0.008567906172543802,0.013107114668172755,-0.023413633789938434,0.06662805755655835,0.008157576985815228
1.1561561561561562,-0.09310962351855263,-0.03139659830736194,-0.029261119172630853,0.00669946784922457,-0.05396044173434775,-0.0032227249419625216,0.01265057448895638,-0.004556136426942475,0.015620842152397875,0.013923994415054222,-0.027602495899078774,-0.0994279606132098
1.1611611611611612,-0.09961963653992843,-0.04346296614981482,-0.08852849996279412,-0.06680480143231679,-0.1274351430996977,-0.06891749393018991,-0.06731200238296128,-0.04939707890575564,-0.07156157452747547,0.006283174577375546,-0.06908879364877843,-0.007318434607191816
1.1661661661661662,-0.08574286623789527,-0.09824936523765282,-0.07420589497899512,-0.12681652408125807,-0.04845495932399671,-0.13367431001673716,-0.0319569558263791,-0.005190042282292237,-0.059433874937462654,-0.10429168869925179,-0.1336115693483208,-0.1297391683902211
1.1711711711711712,-0.18357621099479474,-0.1934066387682044,-0.10654304311765164,-0.08767232146798667,-0.1334556887612064,-0.05962059246308678,-0.09972359994669919,-0.16858320462734774,-0.11383053532234498,-0.15465404205578442,-0.11938881479387929,-0.10783804040227399
1.1761761761761762,-0.15301124132647723,-0.2678282996904683,-0.11509156649905816,-0.09624804647883398,-0.1545032428393329,-0.10002501338281088,-0.22875274698265843,-0.08921353814284125,-0.17650667508843662,-0.20276830433766657,-0.1749562271711962,-0.1025224770939964
1.1811811811811812,-0.17929575460355146,-0.1597400911971525,-0.20973063732989927,-0.17454415541280124,-0.2950157157774695,-0.23692627412544054,-0.26706530837448955,-0.2537789663002269,-0.22734659019690454,-0.13692503779759416,-0.23719150484837798,-0.19203916410883382
1.1861861861861862,-0.27571365730795966,-0.24351883411562744,-0.2930718106375901,-0.24778723220187995,-0.2962083170117648,-0.24723609065087893,-0.2937426507545976,-0.3512477454706467,-0.2066824861760496,-0.25826340853873253,-0.23313405645484667,-0.2324413779186102
1.1911911911911912,-0.30626967240937725,-0.29421469712813997,-0.23899409102374236,-0.4266928233630416,-0.2944046915584129,-0.2956766997189788,-0.3254378232784809,-0.349183604789453,-0.295066719277748,-0.27477200308633287,-0.3239152774630721,-0.2964705835108646
1.1961961961961962,-0.42023736058473254,-0.311114373369422,-0.29240410954264845,-0.3329852873772616,-0.32788098919900677,-0.30116208474629846,-0.3246294167977186,-0.2720199586984797,-0.37148868346056774,-0.3727198063132957,-0.36504519992482476,-0.275056925952696
1.2012012012012012,-0.30486235607831735,-0.33675631820306917,-0.45908277995765856,-0.3379465233030939,-0.4418791718101829,-0.3841129179357367,-0.38375200125946385,-0.3791694494464505,-0.37261516020243113,-0.36941282891795496,-0.2936036859749144,-0.3424140913884271
1.2062062062062062,-0.4692317946397974,-0.425200248213594,-0.3276138470742504,-0.5282362745912468,-0.4699312745518731,-0.3652038314809836,-0.4384106835671693,-0.417319261127593,-0.334529513000313,-0.42401827548645543,-0.5039152382784685,-0.3334503236440994
1.2112112112112112,-0.5175749552600811,-0.4684489889983916,-0.5244389698672574,-0.4261524980554562,-0.4477179507407516,-0.44260422026451857,-0.4446502947791705,-0.39847709507759443,-0.46174172461930973,-0.3995758801386475,-0.41808310928316017,-0.4056150971250133
1.2162162162162162,-0.4866583953091746,-0.5529964784992141,-0.40841716468514105,-0.47480843539393547,-0.5245609078056155,-0.4933436340446618,-0.50590775086507,-0.512438420962781,-0.5153069049135846,-0.4401180769155606,-0.518674135632635,-0.5101092935802732
1.2212212212212212,-0.5578318842693861,-0.5362937618266809,-0.4643901533755862,-0.5172211302223433,-0.4706344698536838,-0.5096580852415471,-0.6690363952737237,-0.5496914127044911,-0.528519717249053,-0.5687801613041512,-0.5319514703731894,-0.46400657210006924
1.2262262262262262,-0.541607541065429,-0.46578077030857395,-0.6350191625959527,-0.4891421392386768,-0.5692617162008166,-0.5485994040278153,-0.5212749994327086,-0.5845205488956634,-0.5111101693920046,-0.5957409324622367,-0.5250435129342561,-0.5987018970738232
1.2312312312312312,-0.4927024221723665,-0.6187356918024229,-0.5621103629392321,-0.6082967831132429,-0.5820359253742248,-0.6303480475908578,-0.5620105311131401,-0.594861393106542,-0.7128965582142482,-0.5120920679503831,-0.5825441620036316,-0.47882968001149173
1.2362362362362362,-0.6432608541673615,-0.5440318862631209,-0.6243105052315182,-0.5928738913814106,-0.5956204145277257,-0.6224096909145506,-0.6690771469613003,-0.5946232373871497,-0.6862090889217374,-0.5874506095225424,-0.5845790948995111,-0.53393700591946
1.2412412412412412,-0.6499668506050463,-0.7148100328924145,-0.6730086109008302,-0.6506347565506149,-0.6809494128749529,-0.6309238575260913,-0.6661479648855015,-0.7037621274886287,-0.6058500117190027,-0.7211553950372133,-0.670949085269692,-0.6349048212546753
1.2462462462462462,-0.6492481867397921,-0.6882793853352112,-0.6707588810456813,-0.6345138266190676,-0.6948596340548588,-0.7600698188199109,-0.7124847383270326,-0.7206665907950716,-0.6525020218485181,-0.6635388191840373,-0.7199614302803299,-0.6763233351499144
1.2512512512512513,-0.7002499762853701,-0.7116517199125317,-0.6819731987932881,-0.7169429991901621,-0.7665451779428999,-0.7384193513338103,-0.8353736916482617,-0.7779629955950418,-0.7212053197640784,-0.7685075399424189,-0.7241918757863819,-0.6915681098522559
1.2562562562562563,-0.7575569100302129,-0.7974888092817113,-0.7845959788269828,-0.7891655959673028,-0.8831199866076683,-0.7707770538449202,-0.7724160690895452,-0.7104296570981831,-0.7590333825730037,-0.7037131238723646,-0.7878564617763468,-0.7709168704735384
1.2612612612612613,-0.7768074650408187,-0.7996335796572763,-0.8032604393798248,-0.7688567688612097,-0.8470965493284831,-0.8205585157214694,-0.8219254385725541,-0.8309513675243673,-0.755988803892213,-0.7424249553503559,-0.807538794120565,-0.8767617969369218
1.2662662662662663,-0.8172700042585824,-0.868586296087394,-0.7792990441179577,-0.7958126791004954,-0.7801504019501974,-0.7550568438180483,-0.8153279914201326,-0.7707714732990324,-0.7289615083366461,-0.8264384782575936,-0.7602884376117679,-0.7577942408930196
1.2712712712712713,-0.7882191622802528,-0.9178918554210415,-0.8776447597788442,-0.8117122404331869,-0.813542690735336,-0.7557457883973732,-0.8194009284422514,-0.80253740433964,-0.7852383045925037,-0.7964888247621243,-0.9173011540537628,-0.8490977008418628
1.2762762762762763,-0.8252389615672883,-0.8383207771418418,-0.9189598988156298,-0.820764389764835,-0.9222746830394737,-0.8593017665987821,-0.9088495966977762,-0.9233063398646499,-0.8830361840290942,-0.9220501726165578,-0.8237287255550237,-0.764250138260973
1.2812812812812813,-0.8759527598394773,-0.8619793751766596,-0.8965758339663803,-0.8705952289917714,-0.9000308055350755,-0.8722306525069236,-0.8819618447663277,-0.9095026682602562,-0.8294238261684914,-0.8384232052637112,-0.8469458054394526,-0.8740447182345067
1.2862862862862863,-0.911215587228217,-0.8491203065987663,-0.9254547631074137,-0.8327841593235459,-0.9953061522910901,-0.972161863480079,-0.9179582920871415,-0.9320167686365862,-0.8795763047167887,-0.8271285663384227,-0.8794777463570771,-0.8535441962765633
1.2912912912912913,-0.8884119606479247,-0.89151553180954,-0.8679943622105619,-0.7752280684053621,-0.8810444219569646,-0.9247706090787432,-0.9702793329172501,-0.9569729112836789,-0.876895087362208,-1.0096168346151058,-0.9258847234522717,-0.839952792731875
1.2962962962962963,-0.8535027368971843,-0.8767885306501847,-0.9219195668946516,-1.0138137881282947,-0.9381412308543869,-0.93027740255251,-0.9413699601950674,-0.8605729970007823,-0.954373484606157,-0.8683544618600425,-0.8856548364931254,-0.8383749882588882
1.3013013013013013,-0.9607766061062079,-0.9589431671331025,-0.8862595616602305,-0.9293545914286294,-0.8632815097806047,-0.988349904824331,-0.921057887091399,-0.9414592894958493,-1.0111077229371945,-0.9000825689861677,-1.0668707292042,-0.9652584456603177
1.3063063063063063,-0.9012220993427906,-0.9342749958746503,-0.9480385713229029,-0.9812555428818631,-0.9624731467201542,-0.9469034900131217,-1.0373682386662193,-0.9550493080540718,-0.9727470535538706,-0.9599533753533551,-0.9180747402786846,-0.9418087019546485
1.3113113113113113,-0.9509664198142603,-0.9785373411713842,-0.940710714250941,-0.9526206620932809,-1.0508148601704876,-0.9302305967274164,-0.9157441770026371,-0.943398532221336,-0.9298282217297125,-1.0072373799177878,-1.0126409630048618,-0.9867196550092324
1.3163163163163163,-0.9043005776927483,-0.830298957806764,-0.9564928013060778,-0.9599454841215502,-0.9493792402934376,-0.9913261727387147,-0.9858834230735444,-0.8968134259494673,-0.9686579457259513,-0.9866372438390392,-1.0287505125486027,-0.9443937169822759
1.3213213213213213,-0.990288109332881,-0.953905131795033,-0.9933945008077144,-1.0364235069698964,-0.9300978617885888,-0.8870533797194697,-0.9160273799738323,-1.060758860419324,-0.9888143001063524,-0.9748469920447723,-0.9628655378878392,-0.997868685222957
1.3263263263263263,-1.0190854696871894,-0.9336565430000554,-0.9837403321266213,-1.0157647576835105,-1.0729075644873256,-1.0495545076556954,-1.020755777766841,-0.9865266353637576,-1.041537026067741,-1.073639412715562,-1.0034146083957713,-0.9437270949298795
1.3313313313313313,-0.8916563084388404,-1.1215883583616186,-0.9868067094617256,-0.9738363100327478,-0.9472307862949557,-1.1143914152037757,-1.0214820040021733,-1.039969530329822,-0.9733253755679029,-0.9918003501157554,-1.0161451421842134,-0.972041229171438
1.3363363363363363,-0.9979871638751031,-1.0386984996495976,-0.9247676463767878,-0.9579139834905129,-0.9448631455284382,-0.946330822479236,-1.0045646694426513,-1.0579486751688334,-0.9762563202401454,-1.0057733979277768,-0.9369958409577794,-1.0752057651334008
1.3413413413413413,-0.9609435072258408,-0.9132996819485895,-1.045529232780595,-0.996805127079359,-0.9978538581289943,-0.957294927226063,-0.9300482692465649,-0.9927844006927913,-0.9874535144752883,-0.9156356312380511,-1.0677585706959067,-0.9335408695392737
1.3463463463463463,-1.076089076122435,-0.9554330476814961,-0.9610934874040671,-0.9748227087042347,-1.0948866486602926,-1.0549893888362973,-0.9179821204734029,-1.0515766455675428,-0.9147632060837007,-1.013465032932371,-1.0144887473105513,-1.038169997341502
1.3513513513513513,-1.0680903382095392,-0.9625418302236832,-0.9544747837212013,-0.9712119472814662,-1.014911825850157,-0.9646430214073741,-0.9896250746846776,-1.075378980313716,-0.9865901872384957,-0.942538172415773,-0.9728369659686773,-1.093307822920541
1.3563563563563563,-0.9751193809288451,-1.0324248096055826,-0.9371079347907187,-0.9808387404777063,-0.9778332427038785,-1.0179377348728769,-0.9623972133425913,-0.9845483611836968,-1.0456535767080422,-1.0872060779763126,-0.9483272300822188,-0.991304765885775
1.3613613613613613,-1.0398118204406912,-0.9877235946139638,-0.882019458930904,-0.9431709621301586,-0.9522433571676718,-0.9324131750067688,-0.956151551521616,-1.0024874939425537,-0.8504411842880485,-1.0632343720049224,-0.9477659481169843,-1.0338976398576696
1.3663663663663663,-0.9678369252366509,-0.9764130250529396,-0.9856774534892663,-0.9712860514124211,-1.0184784914112952,-0.949724388305372,-1.03585025020484,-0.9690597185349153,-0.8690727259889454,-0.9931381672037464,-1.0021295713660774,-1.0887182896786123
1.3713713713713713,-0.977004243676145,-0.9499002580125648,-1.0580978260109661,-0.9350000096870217,-0.9758532693100406,-0.8747998865906051,-0.8904162366249977,-0.9559225356702665,-0.9680495232351545,-1.0616952485058047,-0.88153808199625,-0.9704105961260494
1.3763763763763763,-0.9653108696803004,-0.9354676771623041,-1.0116384916132306,-0.9499419781467461,-0.9333959118397722,-0.968637327264611,-0.9349704508297264,-0.9945296922119004,-1.0361234832017456,-0.9062417998587952,-0.9899922435818559,-0.9270124406618122
1.3813813813813813,-0.9057871122799397,-1.0633298223943186,-0.8854987224278634,-0.97266385498369,-0.9659690559640326,-0.9298848421422589,-0.9825729248453817,-0.9652148129209696,-0.962349795447813,-0.9387581780859418,-1.0462687341543266,-0.9304588812055244
1.3863863863863863,-0.8915970873367736,-0.9542912683627423,-0.8302968322904869,-1.0008947168991429,-1.0028118251287057,-0.9571175850051119,-0.9358612231178282,-0.9244158287295532,-0.946567208808134,-0.9478301390915689,-0.9647299227215089,-0.9913633905489845
1.3913913913913913,-0.9559536350774341,-0.8763049952456207,-0.9693527388694776,-0.8808002935501293,-0.896277106605697,-0.8894897750899698,-0.9058337690425086,-0.9670628898616668,-0.9596538986154876,-1.000984417844703,-0.9374681590113882,-0.9863636943682412
1.3963963963963963,-0.9560387869971811,-0.8941955574278639,-0.8698501018280534,-0.9411274844092893,-0.918824239049484,-0.9621976815098029,-0.9468991969482745,-0.9958802051290798,-0.9200940745815992,-0.9246374351201005,-0.9112419304699036,-0.9787886288460411
1.4014014014014013,-0.8866837051051959,-0.882864572969043,-0.9263971958153707,-0.9456594052171298,-0.8149993567377145,-0.9275640633595478,-0.898933930959395,-0.9087815322361494,-0.8767345481871336,-0.9164318329010603,-0.9492598314829328,-0.9071941259462752
1.4064064064064064,-0.9403499096198131,-0.911337307479669,-0.9117048480599892,-0.8734259589999342,-0.9465057408113041,-0.9478513352299909,-0.8716539328442788,-0.7976207080535267,-0.9044581221245533,-0.893653703282533,-0.8689687510275407,-0.9643873364981965
1.4114114114114114,-0.9397898091607607,-0.9220719089966104,-1.0058262514330318,-0.9424518438701177,-0.7913439935918323,-0.8687015687794322,-0.8789338105643203,-0.8669006547251539,-0.8741258067591966,-0.9726964106295971,-0.8065240638013997,-0.883996571136854
1.4164164164164164,-0.8226393164355551,-0.8649217863095132,-0.8654062324190748,-0.8356331778265046,-0.7954057733218567,-0.8589504332632666,-0.8385407026335029,-0.8232484273019772,-0.8757686433800166,-0.8464489920282775,-0.8765064761434586,-0.8440539454891354
1.4214214214214214,-0.9131420064852841,-0.7671362664977652,-0.8281533653921467,-0.8517132190676115,-0.8240612167609604,-0.8868510665285597,-0.8139603674559744,-0.7082181651254735,-0.859454051354656,-0.7375556006424003,-0.7892729541895964,-0.8658190326523414
1.4264264264264264,-0.8112199065290572,-0.8250992640216035,-0.8096394969211923,-0.8751478975520479,-0.8189383057597771,-0.8536387986765608,-0.8611864492005696,-0.6782844238710015,-0.7234096789512797,-0.7694082110994452,-0.8139922781472967,-0.7443447236092334
1.4314314314314314,-0.7045299753031038,-0.7638105065905788,-0.7436096067045633,-0.8478097078454451,-0.8358204785769123,-0.7672904729748825,-0.8204269435314137,-0.7080619901123879,-0.7408460553158975,-0.7651504796962653,-0.816800689985986,-0.7816419740805652
1.4364364364364364,-0.7894809477725415,-0.7606986627154437,-0.7643758420979723,-0.7290509139453615,-0.7816384931413898,-0.7229702749882397,-0.7490333055593851,-0.718379504998916,-0.7198513259324726,-0.8277603153142015,-0.757528858553911,-0.7401822076126382
1.4414414414414414,-0.7842883980726479,-0.7706424156875311,-0.7089688258392247,-0.7285044076877714,-0.792347633929343,-0.6633044068715872,-0.7307016329745333,-0.6642099076371181,-0.7753942877320544,-0.8087116044878971,-0.6198039096252117,-0.7597498149041205
1.4464464464464464,-0.7426868346962118,-0.5608034824447918,-0.709533842804018,-0.6422526834018709,-0.6988066037582865,-0.7774955621811703,-0.5701298534855629,-0.6574488812698495,-0.6989641749420917,-0.6972024134013303,-0.638605997441839,-0.543654637430782
1.4514514514514514,-0.6963459077144764,-0.6968347784479063,-0.7234413732329747,-0.5194016089497229,-0.5594425838831167,-0.6091028473589725,-0.5875400577004033,-0.6987455098806361,-0.6926312904519671,-0.6463349459248955,-0.6798036439282096,-0.6777555027420499
1.4564564564564564,-0.5567202905245288,-0.590256855221011,-0.6274281981109056,-0.6722695003535251,-0.6124229716339006,-0.6265600342241985,-0.5851496334328098,-0.6288821187337611,-0.6085162504816892,-0.6453525303055958,-0.6100091021732416,-0.6969654024830612
1.4614614614614614,-0.6652423526330908,-0.6671556434706393,-0.5809374319442425,-0.6011210309634836,-0.6086241277927442,-0.6124889856566659,-0.614343529891793,-0.5788216161428866,-0.6005156539434221,-0.5701707752408156,-0.7067825356195591,-0.6156878459068124
1.4664664664664664,-0.6471221518891469,-0.6064851647902781,-0.604380751812061,-0.46236156337959133,-0.6367605397285989,-0.5605378087640973,-0.4912947127672007,-0.5806836973306732,-0.511631443229313,-0.5191543328461163,-0.585345955117392,-0.5405568427781268
1.4714714714714714,-0.46345419121938797,-0.4352501363631781,-0.4942688699687424,-0.5207192438857767,-0.5053482737045711,-0.45824814821522636,-0.46366580641573696,-0.5711720495080054,-0.5172947951591643,-0.5642711989799982,-0.5348064064595495,-0.4830601332238149
1.4764764764764764,-0.45501920252976047,-0.44756594006637784,-0.48234018619462454,-0.4152413473100509,-0.47235016811630237,-0.48484918823397427,-0.5220583251956287,-0.4690739161609685,-0.40726313116303087,-0.4016935631544183,-0.5210569311759846,-0.4329557227206633
1.4814814814814814,-0.4035430525339718,-0.4630836038922171,-0.49189018221958436,-0.4813729916416515,-0.4559106271237508,-0.44894456621926876,-0.39484330535013257,-0.417819387711453,-0.46880777067018214,-0.43239493474051366,-0.4278644730566802,-0.46130687215478966
1.4864864864864864,-0.4013863720860862,-0.3809518256612183,-0.38174604285682323,-0.4114808754485039,-0.33246171609529196,-0.41106482568884184,-0.4606233694958168,-0.49322947094834807,-0.31667282171190064,-0.4485349369889024,-0.40456164681438983,-0.47785783103897683
1.4914914914914914,-0.44326422084832,-0.33460609341923087,-0.41831108156813346,-0.2575754620799982,-0.43481369738574016,-0.4102775709176395,-0.4029616069050219,-0.3189699322224185,-0.3402036944248253,-0.34721364020034406,-0.3917638531944739,-0.3478601396901971
1.4964964964964964,-0.3113180139514889,-0.3779490459583323,-0.3446029163095155,-0.3147804888262997,-0.3419805976666855,-0.36286758964504673,-0.371139192576701,-0.3444890378255805,-0.2731462806425323,-0.3352312282868253,-0.3258125563531473,-0.3062871435474422
1.5015015015015014,-0.3348103397016465,-0.32130661329589344,-0.325093491852328,-0.2802356563145908,-0.23165471089331263,-0.24525384340894424,-0.32600015065202936,-0.3150268633435848,-0.28410941872392315,-0.3488073812012528,-0.25168924957296473,-0.21640733995082456
1.5065065065065064,-0.12689050463365698,-0.2844356688686775,-0.32116545380058054,-0.3107316806452166,-0.2307655424854419,-0.29702089717275704,-0.2760970797283608,-0.2877868264323598,-0.31731242701483553,-0.27801619211810547,-0.22124945976410668,-0.15086126265162397
1.5115115115115114,-0.13723560582835456,-0.08894881570405289,-0.23388559892136976,-0.12320387086546018,-0.19222049184791504,-0.17570930718049754,-0.11691731043380917,-0.268880206087586,-0.2007409621725066,-0.2607593039075052,-0.27030197577873954,-0.18539365613586617
1.5165165165165164,-0.16086513965010102,-0.08602521369774331,-0.07734902998891802,-0.2309459141391583,-0.15164567814349983,-0.1928135028276298,-0.11604667976298902,-0.28422817675277384,-0.1562314641890678,-0.1727014704298087,-0.2112188130710945,-0.20968892587956203
1.5215215215215214,-0.14017439208415863,-0.1164349431888713,-0.13609720046485138,-0.17937409750125607,-0.1926917537939979,-0.17304024472781027,-0.08894467263401046,-0.17522400740762142,-0.09995653339506326,-0.09226584022451594,-0.20673367677864388,-0.10212202233331533
1.5265265265265264,-0.09403739351005413,-0.12916182767552842,-0.09353500686774757,-0.06048728334897569,-0.1266374642085054,-0.11605847290734712,-0.11230213739741074,-0.13354717564270688,-0.032715743623350044,-0.12342978235195276,-0.15201518481985932,-0.1473345131676579
1.5315315315315314,0.005543212005355916,-0.04896733810879256,-0.04778378326196067,-0.03271937682247582,-0.041622451689072526,-0.06562862497436774,-0.05772103454044242,-0.10095234296221006,-0.03765117395604013,-0.040169108767870124,-0.025586483014803978,0.004439094404299175
1.5365365365365364,-0.013247784919351132,0.04145461199022167,-0.03163999485038066,0.0009390102278448616,-0.07060279267423741,0.024817217060225404,-0.017369656591369034,-0.06726594932200775,-0.05326188024077229,-0.016302201565021927,-0.0035546475240511577,0.004484769356196346
1.5415415415415414,-0.01562333248216307,-0.03299748428474814,0.027845054666856873,0.05264239692062844,0.10160358687328154,0.04362497020683168,0.08190283409399673,-0.08602484593951534,0.09800864760603215,0.08380997805330873,0.05860707842601548,0.0770724744811617
1.5465465465465464,0.10327710295257869,0.0488244687726527,0.06466950108454504,0.061162765919468634,0.04431655421581357,0.11030036165085645,0.07257365019436471,0.12093596737664856,0.15061058555688875,0.0496174630316825,0.10228600354650297,0.13067734029662736
1.5515515515515514,0.09076254274269217,0.1416320230235746,0.038775942569960906,0.17173061157847092,0.13056288575695318,0.12328715652937532,0.14669730056168595,0.09178586288416289,0.12606071811584654,0.18546867028890618,0.10665697251776432,0.18652187965375963
1.5565565565565564,0.17491556715831416,0.12133237262800226,0.19701174064141289,0.1025678374806002,0.19133102935451066,0.22543647358042046,0.14658406898088083,0.24526541743768054,0.06034754883570698,0.21942818084169372,0.15769157834038447,0.14303811471818328
1.5615615615615615,0.14858798095750425,0.21350297107088617,0.25523526413680525,0.25232005896219195,0.16205804735390017,0.18359799758919088,0.19875684993392617,0.22641330693387626,0.20249342370248719,0.2160220716411026,0.18300664171929895,0.07732525956860753
1.5665665665665665,0.18537126592542527,0.24478725289067949,0.2954001790177106,0.2738334388478304,0.2478068540153079,0.23220852135075346,0.17111318872195963,0.2781540385814227,0.21252918907779444,0.31159005294240666,0.24867867811154037,0.24558544663084614
1.5715715715715715,0.18445994145146788,0.34032068181396136,0.33313383361986587,0.2048225904242124,0.26527093736964785,0.21180170232366113,0.3856980214405436,0.2071014079376417,0.23105910330286203,0.19374145251681274,0.35812978887158403,0.28964949050814864
1.5765765765765765,0.3409248044425826,0.2955274609509656,0.31214821760274275,0.30931838716296683,0.34180229784881033,0.2921830651985555,0.2983048356523129,0.3558313977515486,0.25735426529797945,0.3391388125285958,0.28686027027235755,0.3417344234607525
1.5815815815815815,0.2559125778044886,0.3304054077754292,0.23483820488810792,0.405496891854077,0.40564914897299903,0.39989208201414905,0.375948915898032,0.3839494410734231,0.262435722719244,0.42005465010198423,0.41060789175737894,0.4070469114613062
1.5865865865865865,0.36186643029960075,0.2919011506059491,0.36708867867935824,0.4794417276664916,0.42158782780084575,0.38982322696044125,0.3204267965364364,0.3416237776613362,0.45943558954131103,0.4158387901106183,0.4095855954244137,0.41619188163752224
1.5915915915915915,0.5087043323918612,0.42264553099875574,0.516252564454196,0.5157186254219221,0.3751900230463161,0.468738413997833,0.3729349684748826,0.3173453312166956,0.3843756537707896,0.5390366623646332,0.4226316813817461,0.4696743501858596
1.5965965965965965,0.418192093171031,0.4364629828498567,0.5195613873872191,0.4603080928918204,0.39764036772560407,0.4992232283480972,0.42132852799853737,0.4214761977244691,0.49121684375839525,0.49409268160004827,0.4804825308834732,0.45191543386114164
1.6016016016016015,0.4768631848629843,0.5026902018494965,0.5195525640037715,0.5244819536109027,0.5912287344289632,0.543676005704629,0.4095021504051044,0.5136682594282259,0.38820995475629094,0.3961614085891371,0.4392330542552548,0.5279782061994074
1.6066066066066067,0.4374841827628037,0.5477879909375593,0.6114452415217084,0.5382879110895382,0.5014048270197196,0.5490524836818872,0.45239016642300617,0.46524904530310385,0.5789728403733855,0.5304867394877655,0.4771181930272379,0.535947291829982
1.6116116116116117,0.5855665522173302,0.6037882393794624,0.4841271537738767,0.5768500416992384,0.4605333726561677,0.5267577113231293,0.5854211062078426,0.49958786915607756,0.6097779979483188,0.5054756405007572,0.5908850454898984,0.5738738960179662
1.6166166166166167,0.6849008615709544,0.6397212888240592,0.6234734315106175,0.6330271454899129,0.6477845325637227,0.5876734799951839,0.6138186261690504,0.57038587815561,0.56868834958249,0.5587684939541251,0.6360983563613781,0.6273203418540272
1.6216216216216217,0.6153731528189433,0.5060274092790109,0.6571126396235311,0.6859239448463252,0.6552930735237255,0.6335749895027678,0.6370060050300309,0.661357849227217,0.558798425254804,0.6071715249105124,0.6307653506996452,0.7441768919435839
1.6266266266266267,0.6522565167573926,0.6829742213711035,0.6843610576699262,0.6471253090780859,0.6992773690754812,0.7410844945726472,0.7359410381679068,0.6495129861156858,0.6063289819398281,0.5552584175446059,0.6511663412443653,0.6471922276844086
1.6316316316316317,0.7124791673785157,0.723304990553198,0.6880611749471577,0.6247128372076951,0.7134955521214086,0.6830771309501077,0.7013832056091394,0.6939792014650863,0.6867300405416198,0.636775701935575,0.7596620483492472,0.6354713384315481
1.6366366366366367,0.7449204089639501,0.6512223482368193,0.662520872206253,0.6120213796054175,0.7482273600110569,0.7906543493479063,0.8254997995417139,0.6534433277856948,0.7298159188617491,0.7751565400463475,0.6335757773683255,0.6878668391058659
1.6416416416416417,0.7453037568275251,0.7481377934986503,0.7741302107676905,0.7053858884916674,0.8026388297320824,0.7562826192319697,0.8464134294705017,0.7765879418043926,0.8557566627575626,0.7234281150348001,0.7346920126265737,0.6755483510330591
1.6466466466466467,0.7481335324938765,0.7844168586852949,0.8508345234935577,0.8527985866147272,0.6465983741129924,0.7728326083175977,0.7766385789879557,0.7648584486021734,0.732829516123768,0.8301547196978941,0.7682548105070779,0.7646011990436548
1.6516516516516517,0.8916411547019143,0.7911045885479432,0.7295651508452184,0.8163900415831689,0.8938549238009336,0.7936025404819498,0.8295226779003579,0.7257304852284003,0.7497479516501772,0.7650833841765169,0.8587085773360097,0.788190619815087
1.6566566566566567,0.9064802294158555,0.756904806183235,0.8283281539762435,0.7868351357708954,0.7833676756351129,0.8533880306894279,0.914495131541168,0.7947399995523605,0.8447347821364052,0.8431772432988205,0.9424478986502507,0.8880762347159956
1.6616616616616617,0.8388243958821405,0.8094125450557423,0.8031142160877354,0.8359128572341817,0.8860952801375808,0.7883319127128637,0.8703001284801816,0.8682282767830923,0.8126702523056044,0.8881870978108284,0.8694600693901742,0.8366227198112482
1.6666666666666667,0.8308866050378101,0.8790845758892578,0.917802248196615,0.8509587667502079,0.8645669660549641,0.7854554370590157,0.8987975722045042,0.8398252216485981,0.8820799199536288,0.8590795073505267,0.9846375030182345,0.873575022318053
1.6716716716716717,0.8106894827634306,0.9256957094419174,0.9075563756421954,0.9308574766879167,0.7608005889740811,0.9084412193483403,0.8198221316464805,0.8399649321210009,0.930445420756706,0.9305758717702138,0.8651505797822444,0.8307047498705685
1.6766766766766767,0.8629303678528584,0.8506586662219368,0.8503009318672423,0.8950866955109686,0.803163652805238,0.8880269102601838,0.92233035000431,0.8809828264065672,0.8897183576424104,0.8972600458098341,0.910860580065488,0.9257493513759415
1.6816816816816818,0.8760482309163726,0.8925036757720765,0.9673478127822532,0.9552056507930371,0.9125524275700037,0.9592889031102457,0.9993124440082608,0.9239452923714653,0.8402383953691437,0.8415660891009292,0.9755760060604477,0.9842239366981471
1.6866866866866868,0.994877832503958,0.9356000603570663,0.8198111700527377,0.9233093596766504,0.9368209544072299,0.9147541607570051,0.9757768452329487,0.9876412583611043,0.9656794811921028,0.9532899105853803,0.9804748634687408,0.9727794778191814
1.6916916916916918,1.0478929675730801,0.91872810121804,0.9499522223941332,0.9006102434736686,0.9024960528324467,0.9142285083102393,0.9224210588313781,0.9242429128903831,0.9238550762981352,0.8785996213128084,0.9534019153695636,0.9089563031222856
1.6966966966966968,0.981363036298467,0.8744977727557977,0.9547881921465853,0.948709050390342,0.981239696301273,1.0292943474807195,0.9614788564282221,0.9903582878396027,1.0272972003420078,1.0059241219051835,0.9041208252127259,0.9084775618550377
1.7017017017017018,0.9339817299981438,1.0025257346249288,1.013024003435707,0.9399620559945898,1.0150022891068213,0.9683319131153976,1.0177821953808017,0.9968973342990158,0.9626994460805548,1.0783258404416087,0.9520739299619816,0.9983716519833881
1.7067067067067068,0.8996244775507538,0.9994219178376554,0.9884103570604728,0.9620220141742616,1.0344629941457042,0.9372148788913004,1.0071129225072937,0.9374126366847008,0.9923574483303407,1.0756210801552726,1.024239705701924,1.0560560427780579
1.7117117117117118,0.9337630044504909,0.973006647225962,1.0551114194093951,1.0083845868634405,0.9986906243432425,0.964388972407407,0.8895134896592687,0.9920864142108698,1.0199382339585736,0.9628381927473916,0.9646508557873555,0.9668535874099207
1.7167167167167168,0.9923329058340872,0.9913948351174903,1.0329412409764211,1.0952554559650896,0.9615226605465705,1.0284360769095147,0.9780356860372368,0.9118328535238,0.9794013871286661,1.0963287154255263,0.9812286341176558,1.049576865615385
1.7217217217217218,0.9721373440553603,1.0378391723363622,0.9635827665216327,0.9929991594632672,1.002078999388276,0.97732837265845,0.9453261961017547,0.9682564861725728,1.0554397746137714,0.9369553858271861,0.9689291519492139,1.001654846440717
1.7267267267267268,0.9719698618821628,1.0651321951642143,0.9535333386926798,0.9298824728950328,0.9337534268144719,0.9942474605824484,0.9685875837860848,1.0563032791891476,0.9383212827881376,0.9934622944941324,0.970098037505587,0.9805197677020971
1.7317317317317318,0.9237670407068231,0.9925794691621149,1.0089019819428295,0.9822958027730087,0.9897722843038589,0.995874199164587,0.9808085951850782,1.0402920218021692,1.0186775208337344,0.9670420390450073,0.9668485791935248,1.0224225653979195
1.7367367367367368,1.008495981790312,0.9007766809886448,1.116479626847792,1.0515930840018595,1.0104668819231923,1.0404199633420133,0.9831798129517404,1.0319799269158116,1.0494661177437477,0.908853031434887,0.9928799242136075,0.9902886119189253
1.7417417417417418,1.0647382665307163,0.9588926007091053,1.0026286719224116,0.9985501187184463,1.0094506130238157,1.0216926010643954,0.9158166372026821,1.0030220504702354,0.9857691793162909,0.9612348985701288,0.9473631601981582,1.0391874461987585
1.7467467467467468,1.04379569401206,1.0748195423730882,0.9650935672849863,0.9601213339010637,0.9305414558521339,1.00049265230748,0.980087717995406,0.9236524275320215,0.9807276990040718,1.014475229751751,1.015486426608501,0.9063212913303964
1.7517517517517518,0.9774202550310843,0.9626099113206383,0.9869372050136413,0.9383966191734541,0.9283999734619004,0.9948040567878439,0.8989170451364933,1.0828880607179399,1.0035417246319887,1.0328854259795808,0.9677946858998742,1.0489211712103053
1.7567567567567568,1.1414844809426905,0.9831689341963612,0.9669926597324235,0.9325925277760534,1.0630223879085934,0.9177342856650257,0.9750393214282205,0.9798088463622643,1.046847318460578,0.9478164969801932,0.8793662622559881,0.9946757770511545
1.7617617617617618,1.003236993029005,1.0183359275347972,0.9956872563851488,1.0190557479303175,1.0385229835840848,0.9647665505193149,0.9613058280246098,0.8994069128843728,0.9950610457772783,1.0229028054151106,0.9152358254239631,0.9767337323814124
1.7667667667667668,0.9225277042276281,0.9594114734371048,0.9182084442844466,0.9120908908383198,1.016251433580465,0.9740664286298075,0.8840553485793257,1.011818002785493,0.9513840637720697,0.9430323961198129,0.9291996878501247,0.9791894160454082
1.7717717717717718,0.9074623064922102,0.9555846938467648,0.8993207718131421,0.9606611826291356,0.8757296153025198,0.9146550417303307,0.8963250110454813,0.8851804974346641,0.9428975293481988,0.9221574070377495,0.9080314631658257,0.9996039360210274
1.7767767767767768,0.966702024695192,0.9696584868231654,0.8749621220004936,0.9177535503478442,0.9665531126932101,0.996239916148445,0.9386098239852537,1.0272689409661098,0.8480821393030336,0.935217811385899,0.9250165153686742,0.9818729530993214
1.7817817817817818,0.9409195574718459,0.9528454487281923,0.8385374468265939,0.9411923979625829,0.8994794558477754,0.914918423824075,0.8802945180738606,0.8877689123899161,0.8350752115252928,0.9260772026967503,0.8660983601552733,0.9369013563034639
1.7867867867867868,0.8485398583996826,0.9070125041723313,0.8755876759427617,0.8021777341323779,0.8686563823150397,0.9153622990158332,0.8343423271596584,0.8672412941947473,0.920502078937503,0.9274150461586239,0.855806816160515,0.8728191001046951
1.7917917917917918,0.8914668243690249,0.8744806508198604,0.8644008078782874,0.8318337002620378,0.8069133381006333,0.8322209666837825,0.8651613664835318,0.8935439972293913,0.8978528208978873,0.886425232438111,0.8623653697090407,0.8569081226392185
1.7967967967967968,0.8875750041582788,0.9140353200727069,0.8904604474647522,0.758586761785192,0.8536623370241205,0.7668311871021162,0.794363125713067,0.831784922923969,0.8316712855384079,0.7786356652838268,0.7542248404619885,0.8567551078094393
1.8018018018018018,0.766913858833634,0.80816142206821,0.8881954989263188,0.8716950314628343,0.8255038531101399,0.9344727985861785,0.8323256391156362,0.8526123740302859,0.8033028657449712,0.7999661901540059,0.8442881705173468,0.9275001100003358
1.8068068068068068,0.9205691877975015,0.7195721042238483,0.7430887078233719,0.7688889247299585,0.8417892067862351,0.8284809554429768,0.7615266167715006,0.8827346448381201,0.8211115871236322,0.8115415189308782,0.8629195850995226,0.8480809490534088
1.8118118118118118,0.8102682268323608,0.7001600536481705,0.859042466872314,0.7533572202079153,0.7810530308270446,0.6768276710338499,0.717824662492358,0.7751636082728683,0.7798773270242257,0.8756952282877656,0.8543763552054098,0.7585224401066263
1.8168168168168168,0.719483828740727,0.7855070461248919,0.729389195350104,0.6708109507240809,0.8054288246051791,0.7750582289040376,0.7438889472574318,0.7359560024127524,0.8347407353375854,0.8142161326886861,0.776447962573029,0.7704958774687133
1.8218218218218218,0.7180033386808307,0.6947154609659081,0.670925050972705,0.7063026382942338,0.7409573852484371,0.8190349407873222,0.7653843702499742,0.8111695963897324,0.6953850316145489,0.6416963687603915,0.6794714822965099,0.7916990780940009
1.8268268268268268,0.792778299992707,0.6080740503222288,0.7442537071059077,0.6653644251753751,0.639047859458795,0.6840896724251411,0.6719302472771043,0.7056028157642983,0.6945322289741199,0.6579298988221687,0.7425123961272422,0.6604154770768763
1.8318318318318318,0.7496550557516651,0.6834242776100982,0.5883449803266281,0.6839292794151557,0.6870464911308071,0.7900841784016792,0.7008249864995514,0.6974806007316554,0.6921075134509371,0.7055498460701743,0.6796962665284344,0.7223890076304051
1.8368368368368369,0.5719636499878301,0.661142743651877,0.7189708955655858,0.6122067476490097,0.6954697149834279,0.6607027793241189,0.5778738893706192,0.6487680760561654,0.6282675770954925,0.7300204722605339,0.6935422800213861,0.6511117391559036
1.8418418418418419,0.7068133084374011,0.5293416161253899,0.6027622550725913,0.6980121976410012,0.5651090378337226,0.568987392932653,0.6432332331152374,0.7165627348600377,0.6155430726102319,0.6565522965777653,0.5960487502813017,0.5690214266107645
1.8468468468468469,0.5486211441213128,0.6268687031329414,0.6393643912440017,0.6662189251939159,0.5957558451996541,0.656774717813271,0.5773499346584151,0.6401218770806881,0.5888674747682984,0.6390821010828902,0.5592871448886866,0.618711454118161
1.8518518518518519,0.5220080746189019,0.5462921671907397,0.46215513088597615,0.6321388247184365,0.5118846143327372,0.532212062191706,0.582680465405857,0.4792493961871471,0.4543431290937223,0.6069147044860728,0.5191554119717128,0.5749887335139029
1.8568568568568569,0.5257867001044101,0.4993288869988738,0.5563597288854193,0.4485111256476402,0.4633775531486213,0.47490238241346233,0.5345302423808405,0.4972229084662559,0.5026140989620416,0.5212413046773187,0.4687648042872987,0.5033445667165211
1.8618618618618619,0.4402022223665822,0.47033532130381034,0.44532291274864655,0.43388123080608226,0.4229057515074071,0.40985809486824,0.48881969115254964,0.475250465782077,0.5316128416253472,0.5123092039760394,0.5441511804058595,0.3899824244655086
1.8668668668668669,0.5265029290749366,0.3194294889148426,0.515358256737342,0.3930358341571304,0.42463386550119575,0.5148480800965283,0.4135224106690868,0.4044163931654928,0.3985809452580875,0.47720419960913174,0.4438134487081295,0.5602586296841822
1.8718718718718719,0.34354790355820897,0.43255099941560704,0.3833552412949107,0.3922535524319302,0.4104907947871252,0.3937280654820954,0.42600339270030974,0.41518989875506523,0.4851946177322032,0.40269412607197014,0.37520339196033614,0.4800142848067901
1.8768768768768769,0.3673755659841409,0.3061504926423913,0.4342300460829329,0.28842169372321125,0.35432070230311896,0.31209286579905554,0.2530055241685784,0.3483290331757879,0.33164843257408855,0.3992505485736956,0.38866809357303767,0.27741720199898046
1.8818818818818819,0.387498237882403,0.3290410105741762,0.39150029864607766,0.2933865732865158,0.2961169205553358,0.36646206725207,0.2831510657374297,0.3369682417656944,0.24634087646271896,0.39269093891929063,0.3270297273986572,0.2990597532816889
1.8868868868868869,0.3167337884282998,0.2587029861491348,0.29114382407566974,0.30496611679189894,0.3269055237673069,0.2842044724771078,0.14592312565007873,0.24862341038886424,0.20932769489270803,0.3129717028110802,0.20353061946872153,0.27453054420867634
1.8918918918918919,0.2708495383026436,0.2917775289172088,0.27186048412161085,0.22869684557575126,0.29894310576705546,0.322066803954494,0.30075268867348615,0.21293676555049218,0.20978361933037692,0.21294615596345287,0.22252561863312847,0.19010355031269757
1.896896896896897,0.18998488420847673,0.18756325640166308,0.16168117812986518,0.2150253077498448,0.17997773822472574,0.20819390398490248,0.18811658269102388,0.1739302281150762,0.3041120844342967,0.17106738461336546,0.2052679231135719,0.17705873374815143
1.901901901901902,0.1338917334201039,0.1252263233748506,0.2236616764873235,0.062064395027305624,0.15716482022451828,0.161407840882505,0.1618258966588224,0.1722734929775851,0.11609064342733863,0.10072089810024198,0.19787000539301375,0.16821378906799836
1.906906906906907,0.05676474193291205,0.042025938580481856,0.26153051608119615,0.14757855844922085,0.12516488705885298,0.02835741714726013,0.16933299557349674,0.22630617839874123,0.2332626522971365,0.05507172847664782,0.12817422200033954,0.14801613986855838
1.911911911911912,0.07609642222005049,0.1191229241374391,0.07866446316025302,0.07213934453001053,0.06417078099742957,0.12151603542563313,0.043235612016329,0.06716958274982934,0.11755193649658296,0.13730508686680137,0.0631845790811322,0.09001404342198813
1.916916916916917,0.023297122104316635,-0.08553249928590026,0.0691899931872154,0.1250237621770096,-0.005386966739891162,0.037708188758394864,0.06128708695567745,-0.003524979492085918,0.08518468201096444,0.016982796003117258,0.01453841172231509,0.07999216163186187
1.921921921921922,-0.019373541316039848,0.014113916074830202,-0.03264371151154803,0.00040110845402962017,-0.052664128393276055,-0.045468972556400145,0.006506130945046528,0.018274834802143435,0.037944369313944445,0.027115641392508487,-0.01867514619482194,0.05134704185758179
1.926926926926927,-0.07808988951395221,-0.020956139111122287,-0.06265751924694786,0.058732943219186554,-0.057083366197422186,0.010516728100461094,-0.0828250629063556,-0.029450507387587713,-0.03449808509628347,-0.035287470641819016,0.007307270811134511,0.02480904206722593
1.931931931931932,-0.1138548772597611,-0.14089952566547018,-0.10149191956516893,-0.005902133015181596,-0.10606934974532543,-0.03152560711665159,-0.06846617199115032,-0.10113785889024955,-0.051522858295521355,-0.04797425507296171,-0.072531553344403,-0.009609281185546964
1.936936936936937,-0.13635682623949247,-0.1360026783019868,-0.12005755437607271,-0.10636817439841806,-0.1493350856971525,-0.06015827319886778,-0.1673075107383157,-0.1674769610695605,-0.14018091195329088,-0.0935590538756068,-0.052981970604921394,-0.1668619005133931
1.941941941941942,-0.06834207125428099,-0.13812406343102682,-0.10536932700424112,-0.05750647846927563,-0.09725008932521903,-0.16725607606556273,-0.1535203002446858,-0.14603559670214997,-0.11277593039849387,-0.18046617929100223,-0.12712006066281029,-0.03547371662691494
1.946946946946947,-0.2677391036939928,-0.21193063941876794,-0.2070459648746675,-0.17634351525222677,-0.14977446524298962,-0.11051347166626688,-0.12432542055499234,-0.20393306897188934,-0.22569087367083884,-0.21723140161284588,-0.2224113424054761,-0.24287652606568494
1.951951951951952,-0.23518556183283165,-0.18203885203777503,-0.27421855618042634,-0.2828202338990816,-0.19056283792445422,-0.2452406906116903,-0.20339747094192653,-0.22966022715213627,-0.258027716487894,-0.24798312838765343,-0.18341331777818481,-0.23664805142853887
1.956956956956957,-0.30834710271690924,-0.2650914095159475,-0.29640930828968576,-0.2724126936913931,-0.2007646701636738,-0.2696819967255002,-0.26516711536103194,-0.2360436516519166,-0.3076436009832454,-0.31746368273560677,-0.20454931296256224,-0.306627055220024
1.961961961961962,-0.30223644049491083,-0.30527455371653334,-0.3079429803450313,-0.30198612150186316,-0.309966564028291,-0.3130399281600353,-0.35036360025022045,-0.37295947026119214,-0.3118221047460189,-0.2866178643861348,-0.35929672060865525,-0.34180927291099183
1.966966966966967,-0.3689403551283569,-0.2893817507992132,-0.32294915896076837,-0.3525556952594306,-0.40877046743455103,-0.3208183433491972,-0.3739450548039456,-0.29234520912558254,-0.2814054379054844,-0.3547555934113862,-0.3044717071532213,-0.35078394656445977
1.971971971971972,-0.3313633789299036,-0.3586430274759333,-0.2998584751363588,-0.3768566495715066,-0.34055661706818463,-0.405590092499446,-0.4074741270285454,-0.44148570261408804,-0.40051037649340304,-0.3712364984354359,-0.4624087293160811,-0.45367119376904336
1.976976976976977,-0.39383857815211554,-0.37856342772473506,-0.4168976623382575,-0.4638117083968137,-0.47627057992232724,-0.4768841061125077,-0.41438519392635786,-0.4038349740166291,-0.4526925597462342,-0.5699081274110726,-0.3983914649863109,-0.4385686722331928
1.981981981981982,-0.5345320445161278,-0.4379569384112015,-0.39671805446598246,-0.40119428390366463,-0.48158540641991565,-0.5022399647458194,-0.40621227533442655,-0.4191571517530422,-0.5191601369712275,-0.4719697664015341,-0.44377217727206203,-0.43115337710182106
1.986986986986987,-0.4481740518668531,-0.46821617385334985,-0.5519260207657619,-0.5154754642307904,-0.462724978533997,-0.453518790486511,-0.4603752219901732,-0.5245305016060383,-0.4744485259195356,-0.4848242998199977,-0.6099452913822974,-0.45396672798488497
1.991991991991992,-0.4898467067685064,-0.6135407167116368,-0.5461883483054595,-0.6021123251159579,-0.627438364789279,-0.5142054317673366,-0.5075892470487641,-0.533702819840175,-0.529622336685702,-0.5774106185316905,-0.6199748536569332,-0.4290495773221641
1.996996996996997,-0.5384240156837138,-0.6412259661712443,-0.46267637917649734,-0.5659116348109131,-0.5804410457548101,-0.5369384810623659,-0.5631852523829914,-0.5836245928206344,-0.5705074419751067,-0.525309981243572,-0.5985385421655385,-0.516826091681357
2.002002002002002,-0.6205021510234052,-0.5650102432486495,-0.6371842561781714,-0.5665467444877266,-0.5838811260584336,-0.5230054159304971,-0.6169274833922387,-0.6884038195600313,-0.587343134801427,-0.6420734306697906,-0.648870067326141,-0.5988319237617753
2.007007007007007,-0.6538145790953935,-0.6032427009649799,-0.6508692568186676,-0.6134670214792383,-0.6155130159714594,-0.6627042766883069,-0.6603513306921618,-0.7211864942820547,-0.6286994315274044,-0.6234539640227048,-0.7389924219453488,-0.6796774521443955
2.012012012012012,-0.6322765481504682,-0.6225189458304188,-0.6473639890215286,-0.740062052506351,-0.7024316315487849,-0.6999403489716522,-0.6182865035292079,-0.6080035872396642,-0.6829784721180909,-0.7158869685076072,-0.5356162715345554,-0.6110354623729227
2.017017017017017,-0.7042728469817486,-0.639927654831395,-0.7555413892666353,-0.6379536536608583,-0.591129772637554,-0.6498462973099701,-0.5818270439993039,-0.6476545370733585,-0.7200468200115483,-0.657071901729239,-0.6225224042584055,-0.6915944280878478
2.022022022022022,-0.575799470427802,-0.6993316614710434,-0.7653383720260507,-0.7447931771874815,-0.6891583527958869,-0.6425626426368068,-0.720091786044257,-0.6700355825090278,-0.6785879119672684,-0.7448548918625573,-0.6623916949450213,-0.6816304517142875
2.027027027027027,-0.7270960405551669,-0.7394505495774574,-0.6862519259625222,-0.7553998671850373,-0.7368444898260413,-0.7564719471426268,-0.7997882297994586,-0.6893518000607868,-0.770769819324041,-0.8220557586329085,-0.8430455708677284,-0.7836789446218706
2.032032032032032,-0.7968149161476077,-0.8066137480545387,-0.7843968628702467,-0.7510507942059774,-0.8569534922755357,-0.7008293186414933,-0.7936587358992357,-0.7843755475412268,-0.7865220543280289,-0.8106339459080251,-0.7220207455529563,-0.7588934772083075
2.037037037037037,-0.8118697508591604,-0.7608500089341941,-0.7893942608130275,-0.7139709787701783,-0.8132577178700049,-0.8009254680195133,-0.8157037284083903,-0.8216037649797787,-0.9051137071230821,-0.7428738153012923,-0.7332568760748597,-0.8630391312066903
2.042042042042042,-0.8154240480350249,-0.8742554312528447,-0.7998701140096266,-0.781650844314761,-0.7751610589281617,-0.7824837140878135,-0.7148601707821622,-0.7733863802274761,-0.8614931046897616,-0.7831449504360238,-0.8345475834766252,-0.7538353776289094
2.047047047047047,-0.8347284509099235,-0.9036688906033992,-0.8561137745662138,-0.8624215180682407,-0.8059234085717175,-0.8450320888091315,-0.8972615038298003,-0.905726671769736,-0.9650969043012583,-0.8422871957253844,-0.8258079508393681,-0.8940070879407875
2.052052052052052,-0.9242099246477645,-0.8482548218534275,-0.88627275617259,-0.8074091410644889,-0.8742036826261821,-0.9183783123335842,-0.8482334299774112,-0.9053257271938439,-0.8972530260039956,-0.8256561630693782,-0.9219528695186648,-0.9181306239672093
2.057057057057057,-0.7703590997701636,-0.922425803973929,-0.9135915372071256,-0.9641644106870255,-0.8629132974975505,-0.891736711399494,-0.9632478653946608,-0.8747602821338979,-0.8312544369823359,-0.8944432418062065,-0.7796748662074944,-0.8737070770837536
2.062062062062062,-0.885933173665836,-0.808515213454511,-0.9205980950308339,-0.8730837855416405,-0.8127287699992104,-0.7773064745621472,-0.971865281479532,-0.8476619863245838,-0.9147522960706752,-0.8703990832187816,-0.8954791261867121,-0.8077282044925369
2.067067067067067,-0.9161306735032835,-0.9122965120459624,-0.8894273628037407,-0.9628197373645356,-0.9186847261122344,-0.9294167708996901,-0.8809005148831046,-0.9503180303623756,-0.8426155786926159,-0.9101661511895872,-0.9697476339270198,-0.8336710553237151
2.0720720720720722,-0.9022720270684845,-0.9323773387127947,-0.9449942701788905,-0.8714393759545431,-0.937341505564614,-0.9622464095986819,-0.9434067157265137,-0.984357235693917,-0.9631160298398951,-1.0038532456238596,-0.9222385733980799,-0.9686332229389921
2.0770770770770772,-0.9629881085235726,-0.8539681038585292,-0.9690987257832908,-0.8307056117898048,-0.8728501128474376,-0.9253107200039954,-1.052228421547168,-1.027948024252837,-0.8769784819827723,-0.9453454252409403,-1.0382969105126583,-0.8692766522366676
2.0820820820820822,-0.9114447930013013,-0.9725353345887722,-0.9887859974603611,-0.9709307408684452,-0.9339402601822042,-0.9141271549955823,-0.9507034961829581,-0.9367022154451043,-0.9053779870843964,-0.9198051960943866,-1.0226156919863596,-0.9965239521973898
2.0870870870870872,-0.9278762010804313,-1.02763417432709,-1.0865830866007817,-0.8888854504731433,-0.9288375050686443,-0.9770103382923658,-0.9316824837000347,-1.0205536085167166,-0.9348533116155069,-0.8986161706720632,-0.9544655914734335,-1.003906100298556
2.0920920920920922,-0.8928091786859313,-0.9916060856851314,-0.9690411540168096,-1.0786635753924654,-0.9229672070240915,-0.9504958887091628,-1.022181043211547,-0.9803046929524153,-0.9745524050698275,-0.9661515115484387,-0.9939919758904607,-0.9122694324100974
2.0970970970970972,-0.9421857506509458,-0.988623040336807,-0.9641214414891962,-0.9792919464154829,-1.0837122352456763,-1.090749183356758,-1.037621622962916,-0.9483820256800372,-0.9307456449472467,-0.9430028463354491,-0.9808450368256755,-1.0612953088723915
2.1021021021021022,-0.9827912836760498,-1.0348032203259594,-1.0692809446194405,-1.1657451098871157,-0.9808580105747966,-1.0435991209330084,-1.0898808215614644,-1.0226376727271265,-0.9944493389366597,-1.0617140198336945,-1.0383959694092453,-1.005228250089561
2.1071071071071072,-0.9691944001064272,-0.9049439989366009,-1.0305668238929622,-0.9931087747616473,-0.9754873696381477,-0.959265593509479,-0.9894859783584312,-1.0535345071217836,-1.0558601647883734,-1.0309082544418424,-0.9050125502358479,-1.0314580413853591
2.1121121121121122,-0.9652244425226528,-1.024658884691945,-0.9845272407433255,-0.9505032167341618,-0.9140691416540067,-1.07099375770341,-0.9487353456705823,-0.8579565931420672,-0.9735979729256607,-0.9522906242146032,-0.895510330921334,-0.932366197640183
2.1171171171171173,-1.0534966998998854,-1.0255985674344195,-0.9837328486707612,-0.9529137868969743,-0.9852075534996259,-1.0271476498826089,-1.015287423436369,-0.9280115972604009,-1.0016579041686837,-0.9776931933260959,-1.0299060919830418,-0.8805754965876987
2.1221221221221223,-0.9858430112687329,-1.0128449166049804,-0.9727693243253269,-0.9628095561060052,-0.9884337892115462,-0.9697458736207767,-0.9493095804272721,-1.0455931631329842,-0.9621881889430547,-0.8538378510552813,-1.0162558853719046,-0.9973426074001286
2.1271271271271273,-1.0008449038314589,-1.0143909968286648,-0.9505642409255833,-0.9840080955754866,-1.0412285110843684,-0.9539581040484977,-1.018083900471169,-0.9932074058978357,-1.0272872152289374,-0.9523790602024823,-0.961251675660813,-1.0127395775661197
2.1321321321321323,-1.0256439432352444,-0.9633117311020645,-0.9510783682062351,-1.0040861049223375,-0.9120352007880885,-0.9664636539884851,-0.9417069505190275,-1.0223205310627816,-1.0847383670269952,-0.8999027017173044,-0.9696496483610174,-0.9680197116137657
2.1371371371371373,-0.9349850076196253,-1.0152547481435892,-0.9671597873244173,-0.9843320254847002,-0.9349040402367013,-1.0270584703351975,-1.025058783494284,-0.9801575837247746,-0.9516739719214257,-0.9330390786666587,-0.9986066131814283,-0.9369068146537367
2.1421421421421423,-0.995288160555555,-1.0137803638311107,-0.9640062565048115,-0.9678549730396563,-0.9985493042569976,-0.9533533461982241,-0.9334640551403148,-1.0589027137053755,-0.969803316721736,-0.9160669648188042,-0.9667013777412423,-0.9592499830519439
2.1471471471471473,-0.8801802910786567,-1.0016844182080935,-0.9160102664800892,-1.055894389580656,-0.932672175912959,-0.9146307789767782,-0.871693468225479,-0.9593659911662082,-0.9666714533619966,-0.9338974508863166,-1.033040446549046,-1.0275625485507751
2.1521521521521523,-0.8842606632036543,-0.9105419079712618,-0.9633184844033932,-0.9637331734069438,-0.9773276841031614,-0.9082459468195204,-0.9612705658849133,-0.9185822505715019,-0.9667106960808434,-0.9549677120738816,-0.884343212902112,-0.9754984211030774
2.1571571571571573,-0.9040190529596122,-0.9365675147737379,-0.9437927473899118,-0.9120720954663296,-0.9821484529686604,-0.9246521014389938,-0.8430090485681756,-0.9870939343463521,-0.8895948553696666,-1.0095481598649982,-0.8967404073663017,-0.9109254912822945
2.1621621621621623,-0.8442017261425556,-1.0038893312479213,-0.942947902746265,-1.0115998018640586,-0.9450220727474407,-0.8936259605294212,-0.8370670881388587,-0.9167219658720489,-0.9173018295469572,-0.9411306425054646,-0.9251015118948411,-0.9123473317283453
2.1671671671671673,-0.9068614019097021,-0.9675654659560807,-0.9032744915099401,-0.9416908881654396,-0.9631598721103491,-0.8334730449003799,-0.7896939325664494,-0.8644097887745235,-0.9548309676190343,-0.8929462069338832,-0.900750571168999,-0.9538637557918415
2.1721721721721723,-0.8252252917815406,-0.9837752208200821,-0.8964999705245247,-0.838989099983812,-0.9132130099931123,-0.915672280240417,-0.887529287916065,-0.9296760061753478,-0.923595841708268,-0.920218939313033,-1.0067301700039977,-0.9172526830259002
2.1771771771771773,-0.8865060352621593,-0.8704231558770127,-0.8192042006299746,-0.8630720560874363,-0.8928658227514974,-0.877189339650407,-0.8091174014356214,-0.8605425386262303,-0.924795059382713,-0.8639476773107388,-0.9356989308170235,-0.9096253454060917
2.1821821821821823,-0.8896424152084538,-0.933279313321587,-0.8778762115186518,-0.8449716846067667,-0.9026968234627291,-0.8585978221124831,-0.8556459278730303,-0.8378076178328038,-0.8931491496679129,-0.72836934084182,-0.8174912804865679,-0.9117790769116298
2.1871871871871873,-0.8585157122435547,-0.855151882602945,-0.8323670763436891,-0.7952143843386522,-0.8105096714066979,-0.8325256557593286,-0.8827625298377175,-0.8381011044398511,-0.8034584237613562,-0.8339231136798051,-0.7434573316736295,-0.8590785263411775
2.1921921921921923,-0.7920128250766042,-0.8541243949625835,-0.7640801399960981,-0.9450648438359393,-0.8547605218931579,-0.7817437395913949,-0.8921292107697193,-0.7523177276212553,-0.7574428948858493,-0.9453627684874693,-0.7345482216918366,-0.8314766163332182
2.1971971971971973,-0.822482615676428,-0.6932956443787712,-0.7594507943647147,-0.8220962545743824,-0.8373394840877232,-0.8338241888347256,-0.7461835649866637,-0.7340082457974072,-0.718395020602961,-0.8359963898660902,-0.8109614787842812,-0.7521896016007745
2.2022022022022023,-0.77114258799803,-0.7954532056883964,-0.6827174325482841,-0.8166323431272335,-0.8011007622454835,-0.7492332165488835,-0.728622881968285,-0.8268640054287502,-0.7076810024462833,-0.7716252845223391,-0.8025763204586283,-0.7326007726565523
2.2072072072072073,-0.8014751397751552,-0.7781537124405521,-0.6842933354818366,-0.7402950773419178,-0.7131496727035086,-0.7267652225785804,-0.7425150334163726,-0.7314245443732081,-0.6569131309112136,-0.7873959066930006,-0.6861557851734358,-0.723486370806817
2.2122122122122123,-0.7483648250183704,-0.7250855247618828,-0.7491495489404155,-0.716930629216198,-0.6329228739450354,-0.7289773473967793,-0.6751320495126871,-0.7487370520485638,-0.7110054519536957,-0.6852803123216931,-0.6748096767946898,-0.6526752773446515
2.2172172172172173,-0.7210428264469813,-0.6495645155921201,-0.6216571687210583,-0.6959839523280726,-0.6816373814089517,-0.7187630771586718,-0.6993216688726573,-0.6627979679224436,-0.5792660869552317,-0.6631889542175985,-0.6838711338506147,-0.6387432692760165
2.2222222222222223,-0.6235835103371329,-0.5960834476108977,-0.560141644647981,-0.6642892516547447,-0.6857285495283632,-0.6843899200770133,-0.6511101254951002,-0.6089201961915138,-0.6232373089834687,-0.6424484764020507,-0.5619281658714783,-0.6622846083817749
2.2272272272272273,-0.6786563900882505,-0.5903422100352386,-0.5872582036378408,-0.5828041080853277,-0.6086382896048442,-0.5546426529871454,-0.6213404649975502,-0.5677938095008689,-0.7122719455783465,-0.6196703186887805,-0.6904285737511956,-0.5882978338900163
2.2322322322322323,-0.6106747629490394,-0.5238806274837383,-0.6758141405126525,-0.5232100848376356,-0.514982609636055,-0.5671965452035352,-0.6517982701483529,-0.6694342598941609,-0.5171400477692617,-0.6003874462970815,-0.4939420955956266,-0.5823912329528487
2.2372372372372373,-0.5774709093001797,-0.4707727127110821,-0.5728240532003109,-0.5464457193020661,-0.5336235578157073,-0.4841048080035602,-0.5805039215020922,-0.5349354739123934,-0.5604719761498723,-0.5881437245937512,-0.5551714209628188,-0.5101614288105
2.2422422422422423,-0.500068020147872,-0.5026209513761553,-0.5201405586250946,-0.47428481784423016,-0.49837955628494574,-0.42936446085607205,-0.4660684301675566,-0.5403059040495137,-0.4963770631137073,-0.5926701839640586,-0.5489682004960571,-0.46410938820386805
2.2472472472472473,-0.47157623414311794,-0.5595950397307868,-0.5247066723978637,-0.45246345584241615,-0.4013380713045673,-0.4336118226815629,-0.49576783638790783,-0.4949555668965093,-0.41284711185691764,-0.4785766446905607,-0.41822830063453126,-0.5229279246296995
2.2522522522522523,-0.4898193477882238,-0.5111764248079238,-0.48143576612045363,-0.4852745657548417,-0.3640427022629703,-0.5814615867091779,-0.44892563423520543,-0.4111397741326346,-0.4314640923183282,-0.5165358399015838,-0.47020980297077,-0.5099982582177466
2.2572572572572573,-0.4202674910569131,-0.36729743367174567,-0.4120381592619782,-0.3113791374951119,-0.44471616409882503,-0.41050284896914535,-0.28749815251064853,-0.39280721108622346,-0.5023597520388523,-0.5155584001690265,-0.3333246851347104,-0.32178580931303774
2.2622622622622623,-0.37824233734837814,-0.43175247699350855,-0.30002493058788543,-0.3670760830053151,-0.3119690832174461,-0.3555515656812084,-0.3595056626873207,-0.34506964503624665,-0.4227945677277459,-0.38784425400704986,-0.3721866862341872,-0.412609199251765
2.2672672672672673,-0.3467237629473684,-0.37141378668643976,-0.3600881602206501,-0.3789401191691298,-0.24852589935392216,-0.3662544385355808,-0.33402461355528956,-0.3390831762794534,-0.3942355612623045,-0.34027874398716684,-0.34580392428485224,-0.20668199124812747
2.2722722722722724,-0.3039364159584276,-0.3060546310772977,-0.25109722992427386,-0.22355381880816488,-0.3293290190782901,-0.38703334941281065,-0.26833962693803437,-0.24337433748753245,-0.23875761796494982,-0.23520076644873217,-0.26127431019732356,-0.2924479429173139
2.2772772772772774,-0.23042676823841687,-0.21352039262959388,-0.28767633098947015,-0.235088600402432,-0.2859908531762443,-0.2174916851989252,-0.1838141349760299,-0.2604151134248146,-0.2611763772369009,-0.24662486832190056,-0.26644080585136654,-0.2325843209850419
2.2822822822822824,-0.24967803649752102,-0.16726056265118555,-0.18226891117921012,-0.12918980176403672,-0.17305136861548076,-0.2281768286677504,-0.22499522557287846,-0.11415709814392928,-0.16594645429896046,-0.18832894628458138,-0.2303983167626643,-0.1967755771476938
2.2872872872872874,-0.2424863790905008,-0.17050551218518428,-0.16035195769187438,-0.20422811637557822,-0.11281234329212084,-0.1122580668550879,-0.17140082744167573,-0.16952824894441076,-0.08989489504478546,-0.14589127693590143,-0.10851910548853277,-0.12336722665205793
2.2922922922922924,-0.06888010891151344,-0.10306311734944144,-0.19480887396337926,-0.058483662526724406,-0.10768842376166986,-0.1929496266984615,-0.1280799893072589,-0.11038758953451225,-0.15509251437085528,-0.12325709130866079,-0.11124677289156777,-0.1816787733478326
2.2972972972972974,-0.08772775138591914,-0.026987937108298596,-0.011052358049344305,-0.06552538310927525,-0.0855644314384637,-0.12624486028797993,-0.14702622167391827,-0.08071173009317266,-0.08364935400411679,-0.054283359341238666,-0.1408720950460482,-0.08533836567960985
2.3023023023023024,-0.08831020175462315,-0.01028751330581925,-0.09219718465287624,-0.015377874945127636,-0.12299109433165889,-0.022918741080498135,-0.0648692943072984,0.009736436557131793,0.09695527988490735,-0.03735040212967257,-0.05499214063663335,-0.03154323005849147
2.3073073073073074,0.023259463937147968,-0.024255003923629087,-0.017137872317260987,0.020635173290734922,0.03181375332661399,0.04417169622537485,-0.07469847209154759,0.05202602445701568,-0.04712922966268073,0.046837809329640746,0.01382645307369302,0.040197250141580244
2.3123123123123124,0.12367957116402488,0.047202423789578014,0.03235231948304145,-0.043094880131401975,-0.019812677700232907,-0.04519886250862484,0.04387775136895066,0.012272560034433947,0.08365428812915521,0.044057869513662896,0.08669476514378023,0.056248924602192774
2.3173173173173174,0.10146526245196527,0.17778009826815558,0.08249872210872679,-0.009553767313416672,0.1157723324023762,0.02397723425400526,0.116570093530667,0.06834438154350572,0.07131582396126014,0.1609174782195656,-0.013822929678531784,0.08225817867139278
2.3223223223223224,0.18504648940401056,0.16610388552387517,0.18286994469540713,0.08570949535900561,0.11436518539242929,0.017689481530320697,0.13715075911131655,0.10815430034800251,0.18968863351922827,0.10082925822275639,0.09669410619000779,0.10047214508572413
2.3273273273273274,0.14719993787809033,0.06698411578345113,0.11864851490722286,0.17698348401566882,0.09084938716453561,0.182920698891199,0.19035563869588198,0.03858504250204611,0.18179945228131295,0.10920705951870716,0.12283362190451028,0.07545992020636
2.3323323323323324,0.10233436250224669,0.16018208638459674,0.286823541472492,0.2172201131422578,0.06605513043908251,0.23641099668241775,0.19637982914114985,0.2528553470208917,0.23624191362751124,0.19055520684929056,0.20081824069587254,0.1596315040211415
2.3373373373373374,0.25017621448423455,0.20081331519501508,0.18071265051499252,0.25354735885060903,0.17253320357067292,0.24557376652188523,0.3228521088588696,0.20491312430686467,0.20683407282650462,0.2584032392184846,0.2639084275618322,0.2649836263159379
2.3423423423423424,0.30686904567691564,0.2875289574239279,0.314437160986361,0.20823238945588146,0.33358941700841405,0.25117017828988103,0.30754056049704426,0.32463788066866117,0.22157822995383555,0.3156023446179707,0.3076638826682899,0.3024459700298956
2.3473473473473474,0.29265417391390797,0.32300850680454046,0.3031801802623713,0.4326883815784598,0.3596358352663493,0.27543838240081153,0.28286755882268216,0.31074062460260615,0.28195577664730037,0.30884869009331045,0.23574390686832614,0.3659192322264083
