time,lead1,lead2,lead3,lead4,lead5,lead6,lead7,lead8,lead9,lead10,lead11,lead12
0.0,-0.109,0.24,0.349,-0.066,-0.229,0.294,0.317,0.406,0.642,0.746,0.38,0.063
0.01,-0.091,0.182,0.272,-0.046,-0.182,0.227,0.273,0.351,0.554,0.644,0.328,0.056
0.02,-0.077,0.078,0.156,-0.001,-0.117,0.117,0.2,0.245,0.405,0.477,0.239,0.047
0.03,-0.062,0.008,0.07,0.027,-0.066,0.039,0.148,0.167,0.272,0.327,0.153,0.022
0.04,-0.074,-0.046,0.028,0.06,-0.051,-0.009,0.126,0.126,0.206,0.249,0.108,0.015
0.05,-0.063,-0.078,-0.015,0.071,-0.024,-0.046,0.099,0.066,0.132,0.172,0.041,-0.014
0.06,-0.061,-0.08,-0.019,0.071,-0.021,-0.049,0.09,0.063,0.107,0.149,0.032,-0.008
0.07,-0.098,-0.125,-0.027,0.112,-0.036,-0.076,0.093,0.039,0.07,0.1,0.003,-0.034
0.08,-0.051,-0.092,-0.041,0.071,-0.005,-0.066,0.081,0.034,0.079,0.103,0.005,-0.03
0.09,-0.122,-0.136,-0.015,0.129,-0.054,-0.075,0.098,0.041,0.082,0.108,0.011,-0.021
0.1,-0.025,-0.077,-0.052,0.052,0.014,-0.064,0.062,0.007,0.037,0.063,-0.032,-0.054
0.11,-0.176,-0.142,0.034,0.159,-0.104,-0.054,0.127,0.071,0.123,0.154,0.052,0.024
0.12,0.124,-0.021,-0.146,-0.051,0.135,-0.083,-0.015,-0.101,-0.105,-0.09,-0.174,-0.179
0.13,0.93,0.734,-0.196,-0.832,0.562,0.269,-0.196,0.126,0.278,0.356,0.176,0.076
0.14,0.736,0.817,0.081,-0.777,0.327,0.449,-0.088,0.442,0.731,0.85,0.62,0.437
0.15,0.558,0.514,-0.044,-0.536,0.301,0.235,-0.136,0.197,0.304,0.332,0.305,0.251
0.16,0.519,0.324,-0.196,-0.421,0.357,0.064,-0.168,0.057,-0.041,-0.115,0.133,0.237
0.17,0.428,0.001,-0.426,-0.214,0.427,-0.212,-0.29,-0.244,-0.65,-0.807,-0.172,0.143
0.18,0.45,-0.264,-0.715,-0.093,0.583,-0.489,-0.483,-0.56,-1.346,-1.614,-0.533,0.052
0.19,0.44,-0.59,-1.03,0.076,0.735,-0.81,-0.701,-0.906,-1.891,-2.229,-0.855,0.016
0.2,0.509,-0.98,-1.489,0.236,0.999,-1.234,-0.974,-1.298,-2.248,-2.533,-1.084,-0.066
0.21,0.499,-1.168,-1.667,0.335,1.083,-1.417,-1.109,-1.469,-2.261,-2.457,-1.095,-0.073
0.22,0.711,-0.955,-1.666,0.123,1.189,-1.31,-1.251,-1.501,-2.065,-2.179,-0.97,0.039
0.23,0.864,-0.769,-1.632,-0.047,1.248,-1.201,-1.131,-1.222,-1.605,-1.695,-0.747,0.121
0.24,0.727,-0.724,-1.451,-0.001,1.089,-1.087,-0.823,-0.949,-1.208,-1.268,-0.629,0.059
0.25,0.411,-0.613,-1.024,0.101,0.717,-0.818,-0.524,-0.716,-0.861,-0.875,-0.545,-0.064
0.26,0.098,-0.444,-0.542,0.173,0.32,-0.493,-0.199,-0.402,-0.464,-0.484,-0.438,-0.179
0.27,-0.046,-0.289,-0.243,0.168,0.099,-0.266,0.002,-0.172,-0.177,-0.179,-0.306,-0.173
0.28,-0.194,-0.131,0.063,0.162,-0.128,-0.034,0.185,0.046,0.106,0.129,-0.139,-0.159
0.29,-0.278,0.021,0.3,0.128,-0.289,0.16,0.317,0.217,0.35,0.389,0.008,-0.148
0.3,-0.294,0.078,0.372,0.107,-0.333,0.225,0.355,0.271,0.429,0.484,0.071,-0.127
0.31,-0.313,0.113,0.426,0.1,-0.37,0.269,0.395,0.292,0.48,0.542,0.113,-0.12
0.32,-0.332,0.134,0.466,0.099,-0.399,0.3,0.405,0.307,0.509,0.582,0.121,-0.112
0.33,-0.376,0.15,0.526,0.112,-0.451,0.338,0.424,0.326,0.541,0.621,0.124,-0.11
0.34,-0.399,0.187,0.585,0.106,-0.492,0.386,0.464,0.379,0.614,0.702,0.164,-0.101
0.35,-0.414,0.186,0.6,0.114,-0.507,0.393,0.515,0.44,0.693,0.801,0.211,-0.099
0.36,-0.401,0.234,0.635,0.083,-0.518,0.434,0.574,0.525,0.816,0.929,0.285,-0.087
0.37,-0.377,0.327,0.704,0.025,-0.541,0.516,0.644,0.625,0.942,1.064,0.371,-0.051
0.38,-0.375,0.407,0.782,-0.016,-0.579,0.594,0.718,0.702,1.035,1.17,0.457,-0.014
0.39,-0.359,0.474,0.832,-0.058,-0.596,0.653,0.683,0.694,1.048,1.196,0.512,0.012
0.4,-0.342,0.471,0.814,-0.065,-0.578,0.642,0.612,0.652,1.014,1.17,0.517,0.032
0.41,-0.291,0.429,0.721,-0.069,-0.506,0.575,0.56,0.626,0.965,1.109,0.513,0.06
0.42,-0.217,0.37,0.588,-0.077,-0.403,0.479,0.476,0.558,0.863,0.999,0.484,0.082
0.43,-0.172,0.272,0.444,-0.05,-0.309,0.358,0.39,0.465,0.738,0.851,0.43,0.085
0.44,-0.11,0.176,0.286,-0.033,-0.198,0.231,0.298,0.363,0.585,0.679,0.357,0.069
0.45,-0.085,0.082,0.167,0.001,-0.126,0.124,0.234,0.275,0.447,0.524,0.28,0.065
0.46,-0.065,0.005,0.071,0.03,-0.068,0.037,0.174,0.188,0.31,0.358,0.185,0.044
0.47,-0.06,-0.036,0.024,0.047,-0.042,-0.006,0.136,0.134,0.234,0.279,0.146,0.032
0.48,-0.097,-0.093,0.004,0.095,-0.051,-0.044,0.125,0.083,0.157,0.197,0.086,0.007
0.49,-0.079,-0.086,-0.007,0.083,-0.036,-0.046,0.115,0.056,0.115,0.155,0.051,0.001
0.5,-0.113,-0.122,-0.009,0.118,-0.051,-0.066,0.121,0.051,0.106,0.146,0.045,-0.001
0.51,-0.066,-0.105,-0.04,0.086,-0.013,-0.072,0.1,0.044,0.076,0.114,0.01,-0.031
0.52,-0.129,-0.143,-0.015,0.136,-0.057,-0.078,0.119,0.062,0.112,0.152,0.046,-0.003
0.53,-0.056,-0.109,-0.053,0.083,-0.002,-0.08,0.086,0.029,0.04,0.073,-0.021,-0.06
0.54,-0.128,-0.119,0.009,0.124,-0.069,-0.055,0.129,0.085,0.138,0.179,0.078,0.035
0.55,-0.059,-0.143,-0.084,0.101,0.013,-0.113,0.079,-0.028,-0.043,-0.018,-0.095,-0.116
0.56,0.824,0.626,-0.198,-0.725,0.511,0.213,-0.168,0.081,0.093,0.174,0.032,-0.055
0.57,0.838,0.894,0.056,-0.866,0.391,0.474,-0.11,0.416,0.71,0.844,0.61,0.408
0.58,0.541,0.567,0.027,-0.554,0.257,0.297,-0.096,0.253,0.444,0.51,0.408,0.304
0.59,0.562,0.425,-0.136,-0.493,0.349,0.144,-0.172,0.099,0.069,0.051,0.212,0.239
0.6,0.424,0.103,-0.322,-0.263,0.373,-0.109,-0.224,-0.109,-0.365,-0.483,0.017,0.204
0.61,0.439,-0.171,-0.61,-0.134,0.524,-0.39,-0.402,-0.439,-1.079,-1.307,-0.368,0.101
0.62,0.4,-0.471,-0.872,0.036,0.636,-0.672,-0.581,-0.738,-1.675,-2.017,-0.707,0.056
0.63,0.472,-0.849,-1.321,0.189,0.897,-1.085,-0.864,-1.14,-2.122,-2.471,-1.005,-0.038
0.64,0.471,-1.161,-1.631,0.345,1.051,-1.396,-1.04,-1.399,-2.291,-2.539,-1.086,-0.065
0.65,0.574,-1.1,-1.674,0.263,1.124,-1.387,-1.188,-1.518,-2.232,-2.398,-1.054,-0.025
0.66,0.796,-0.852,-1.648,0.028,1.222,-1.25,-1.202,-1.338,-1.809,-1.937,-0.83,0.098
0.67,0.746,-0.748,-1.494,0.001,1.12,-1.121,-0.9,-1.004,-1.312,-1.393,-0.625,0.086
0.68,0.473,-0.67,-1.143,0.098,0.808,-0.906,-0.597,-0.769,-0.954,-0.986,-0.54,-0.056
0.69,0.156,-0.515,-0.67,0.18,0.413,-0.592,-0.269,-0.467,-0.568,-0.599,-0.459,-0.202
0.7,-0.006,-0.346,-0.341,0.176,0.167,-0.343,-0.034,-0.214,-0.247,-0.27,-0.35,-0.256
0.71,-0.15,-0.187,-0.037,0.169,-0.056,-0.112,0.135,-0.008,0.023,0.031,-0.194,-0.251
0.72,-0.267,-0.018,0.249,0.142,-0.258,0.116,0.294,0.184,0.297,0.334,-0.018,-0.236
0.73,-0.295,0.037,0.332,0.129,-0.313,0.184,0.358,0.269,0.425,0.47,0.072,-0.224
0.74,-0.316,0.072,0.387,0.122,-0.352,0.229,0.395,0.296,0.472,0.532,0.094,-0.221
0.75,-0.337,0.119,0.456,0.109,-0.397,0.287,0.398,0.3,0.502,0.574,0.107,-0.211
0.76,-0.364,0.134,0.499,0.115,-0.432,0.316,0.415,0.31,0.523,0.614,0.119,-0.207
0.77,-0.379,0.177,0.556,0.101,-0.468,0.367,0.449,0.347,0.59,0.69,0.155,-0.199
0.78,-0.404,0.196,0.601,0.104,-0.503,0.398,0.491,0.398,0.66,0.761,0.189,-0.202
0.79,-0.404,0.211,0.615,0.096,-0.509,0.412,0.546,0.474,0.767,0.883,0.251,-0.192
0.8,-0.383,0.293,0.676,0.045,-0.53,0.484,0.617,0.573,0.893,1.013,0.339,-0.157
0.81,-0.378,0.391,0.768,-0.007,-0.573,0.579,0.69,0.648,0.992,1.136,0.424,-0.12
0.82,-0.357,0.476,0.832,-0.06,-0.595,0.654,0.678,0.657,1.035,1.191,0.481,-0.087
0.83,-0.343,0.494,0.837,-0.075,-0.59,0.665,0.604,0.632,1.0,1.162,0.498,-0.069
0.84,-0.308,0.451,0.758,-0.072,-0.534,0.604,0.552,0.612,0.958,1.123,0.504,-0.04
0.85,-0.24,0.392,0.632,-0.076,-0.436,0.512,0.494,0.558,0.883,1.032,0.479,-0.023
0.86,-0.186,0.303,0.489,-0.059,-0.337,0.396,0.41,0.479,0.772,0.902,0.437,-0.026
0.87,-0.141,0.206,0.347,-0.033,-0.244,0.276,0.32,0.39,0.633,0.733,0.379,-0.023
0.88,-0.085,0.127,0.212,-0.021,-0.149,0.169,0.237,0.293,0.48,0.572,0.312,-0.029
0.89,-0.07,0.046,0.115,0.012,-0.093,0.08,0.186,0.205,0.36,0.437,0.254,-0.02
0.9,-0.063,-0.017,0.046,0.04,-0.055,0.015,0.138,0.139,0.24,0.294,0.163,-0.042
0.91,-0.075,-0.059,0.016,0.067,-0.045,-0.021,0.117,0.102,0.191,0.232,0.117,-0.051
0.92,-0.091,-0.102,-0.011,0.097,-0.039,-0.056,0.106,0.067,0.119,0.146,0.055,-0.088
0.93,-0.099,-0.099,0.0,0.1,-0.049,-0.05,0.106,0.054,0.109,0.142,0.062,-0.083
0.94,-0.106,-0.113,-0.007,0.11,-0.049,-0.06,0.103,0.046,0.087,0.111,0.043,-0.093
0.95,-0.08,-0.095,-0.015,0.087,-0.032,-0.054,0.092,0.05,0.085,0.115,0.038,-0.094
0.96,-0.119,-0.117,0.002,0.118,-0.06,-0.057,0.105,0.038,0.085,0.119,0.045,-0.071
0.97,-0.059,-0.092,-0.033,0.076,-0.012,-0.062,0.08,0.045,0.04,0.073,-0.006,-0.118
0.98,-0.179,-0.135,0.044,0.157,-0.111,-0.045,0.139,0.035,0.133,0.162,0.086,-0.02
0.99,0.067,-0.068,-0.135,0.001,0.102,-0.101,0.004,0.051,-0.1,-0.08,-0.158,-0.256
1.0,0.75,0.603,-0.147,-0.676,0.449,0.228,-0.18,0.288,0.269,0.391,0.193,-0.047
1.01,0.729,0.855,0.126,-0.792,0.301,0.49,-0.099,0.38,0.752,0.897,0.679,0.405
1.02,0.567,0.589,0.022,-0.578,0.273,0.305,-0.133,0.228,0.371,0.428,0.376,0.223
1.03,0.51,0.392,-0.118,-0.451,0.313,0.137,-0.176,0.081,0.057,0.036,0.25,0.214
1.04,0.39,0.088,-0.302,-0.239,0.346,-0.107,-0.238,-0.139,-0.42,-0.557,-0.006,0.14
1.05,0.372,-0.173,-0.546,-0.099,0.459,-0.359,-0.398,-0.407,-1.06,-1.305,-0.338,0.058
1.06,0.361,-0.451,-0.812,0.046,0.587,-0.632,-0.576,-0.707,-1.621,-1.977,-0.65,0.032
1.07,0.432,-0.852,-1.284,0.21,0.858,-1.068,-0.844,-1.052,-1.997,-2.342,-0.899,-0.038
1.08,0.461,-1.129,-1.59,0.334,1.026,-1.359,-1.043,-1.328,-2.16,-2.399,-0.961,-0.032
1.09,0.569,-1.023,-1.592,0.227,1.081,-1.307,-1.201,-1.451,-2.108,-2.272,-0.931,0.03
1.1,0.742,-0.817,-1.558,0.038,1.15,-1.187,-1.165,-1.258,-1.7,-1.817,-0.717,0.132
1.11,0.684,-0.733,-1.416,0.025,1.051,-1.074,-0.858,-0.937,-1.245,-1.322,-0.55,0.098
1.12,0.433,-0.637,-1.07,0.102,0.751,-0.853,-0.567,-0.715,-0.895,-0.924,-0.486,-0.011
1.13,0.142,-0.464,-0.606,0.161,0.375,-0.535,-0.264,-0.44,-0.537,-0.563,-0.419,-0.163
1.14,-0.035,-0.301,-0.266,0.168,0.116,-0.283,-0.044,-0.207,-0.239,-0.256,-0.32,-0.22
1.15,-0.163,-0.16,0.004,0.161,-0.083,-0.078,0.126,-0.01,0.022,0.032,-0.17,-0.201
1.16,-0.274,-0.002,0.272,0.137,-0.273,0.135,0.287,0.177,0.288,0.322,-0.011,-0.195
1.17,-0.306,0.068,0.373,0.119,-0.34,0.22,0.334,0.238,0.391,0.454,0.056,-0.183
1.18,-0.327,0.103,0.43,0.112,-0.379,0.266,0.363,0.266,0.438,0.509,0.097,-0.186
1.19,-0.344,0.14,0.484,0.102,-0.415,0.312,0.37,0.281,0.479,0.556,0.118,-0.185
1.2,-0.372,0.159,0.532,0.106,-0.452,0.345,0.385,0.287,0.499,0.593,0.125,-0.184
1.21,-0.4,0.197,0.596,0.101,-0.498,0.396,0.428,0.326,0.567,0.676,0.155,-0.187
1.22,-0.42,0.216,0.636,0.101,-0.528,0.426,0.469,0.375,0.64,0.76,0.188,-0.178
1.23,-0.425,0.243,0.667,0.091,-0.546,0.455,0.526,0.448,0.745,0.875,0.254,-0.151
1.24,-0.403,0.323,0.727,0.04,-0.565,0.524,0.594,0.549,0.881,1.03,0.359,-0.109
1.25,-0.38,0.427,0.807,-0.024,-0.594,0.617,0.668,0.619,0.981,1.154,0.447,-0.072
1.26,-0.365,0.507,0.872,-0.071,-0.618,0.689,0.645,0.615,1.01,1.199,0.492,-0.045
1.27,-0.359,0.51,0.869,-0.076,-0.614,0.689,0.567,0.591,0.973,1.177,0.518,-0.025
1.28,-0.318,0.47,0.788,-0.076,-0.553,0.628,0.528,0.572,0.927,1.125,0.512,0.003
1.29,-0.263,0.392,0.655,-0.065,-0.459,0.523,0.456,0.519,0.857,1.026,0.497,0.038
1.3,-0.199,0.3,0.499,-0.05,-0.349,0.399,0.371,0.448,0.741,0.89,0.471,0.047
1.31,-0.141,0.209,0.349,-0.034,-0.245,0.279,0.296,0.363,0.603,0.733,0.406,0.038
1.32,-0.094,0.12,0.214,-0.014,-0.154,0.167,0.218,0.273,0.458,0.567,0.328,0.031
1.33,-0.09,0.036,0.126,0.027,-0.109,0.081,0.161,0.193,0.341,0.43,0.255,0.03
1.34,-0.091,-0.023,0.068,0.057,-0.08,0.023,0.116,0.136,0.222,0.288,0.17,0.004
1.35,-0.1,-0.066,0.034,0.082,-0.067,-0.016,0.106,0.092,0.168,0.234,0.139,0.002
1.36,-0.109,-0.108,0.001,0.108,-0.055,-0.053,0.092,0.056,0.1,0.167,0.082,-0.027
1.37,-0.112,-0.105,0.008,0.108,-0.059,-0.049,0.089,0.051,0.096,0.151,0.072,-0.015
1.38,-0.142,-0.143,-0.001,0.142,-0.07,-0.072,0.087,0.036,0.071,0.121,0.034,-0.038
1.39,-0.099,-0.106,-0.007,0.103,-0.045,-0.057,0.07,0.04,0.067,0.128,0.04,-0.038
1.4,-0.153,-0.146,0.006,0.15,-0.079,-0.07,0.086,0.02,0.072,0.127,0.047,-0.037
1.41,-0.068,-0.086,-0.018,0.077,-0.025,-0.052,0.047,0.028,0.027,0.08,0.003,-0.074
1.42,-0.201,-0.141,0.06,0.171,-0.13,-0.04,0.117,0.014,0.13,0.174,0.098,0.021
1.43,0.054,-0.058,-0.113,0.002,0.083,-0.085,-0.034,0.02,-0.144,-0.105,-0.161,-0.21
1.44,0.85,0.736,-0.114,-0.793,0.482,0.311,-0.232,0.309,0.233,0.359,0.199,0.046
1.45,0.712,0.841,0.129,-0.777,0.291,0.485,-0.118,0.365,0.713,0.851,0.666,0.447
1.46,0.512,0.505,-0.007,-0.509,0.259,0.249,-0.152,0.189,0.275,0.317,0.337,0.25
1.47,0.483,0.327,-0.157,-0.405,0.32,0.085,-0.189,0.04,-0.06,-0.124,0.174,0.231
1.48,0.379,-0.014,-0.393,-0.182,0.386,-0.203,-0.31,-0.272,-0.674,-0.831,-0.128,0.17
1.49,0.42,-0.266,-0.686,-0.077,0.553,-0.476,-0.523,-0.56,-1.333,-1.583,-0.44,0.109
1.5,0.431,-0.572,-1.003,0.071,0.717,-0.788,-0.771,-0.933,-1.815,-2.106,-0.695,0.072
1.51,0.477,-0.966,-1.443,0.245,0.96,-1.204,-1.041,-1.301,-2.181,-2.423,-0.932,-0.004
1.52,0.499,-1.114,-1.613,0.308,1.057,-1.364,-1.173,-1.46,-2.178,-2.327,-0.904,0.038
1.53,0.689,-0.897,-1.586,0.105,1.138,-1.241,-1.257,-1.412,-1.909,-2.004,-0.748,0.161
1.54,0.792,-0.739,-1.53,-0.026,1.161,-1.134,-1.105,-1.149,-1.496,-1.595,-0.593,0.208
1.55,0.666,-0.676,-1.342,0.005,1.004,-1.009,-0.823,-0.906,-1.139,-1.187,-0.521,0.125
1.56,0.373,-0.568,-0.942,0.098,0.658,-0.755,-0.522,-0.664,-0.801,-0.826,-0.487,-0.023
1.57,0.07,-0.408,-0.478,0.169,0.274,-0.442,-0.209,-0.384,-0.454,-0.482,-0.409,-0.165
1.58,-0.073,-0.251,-0.178,0.162,0.052,-0.214,-0.012,-0.163,-0.173,-0.176,-0.288,-0.191
1.59,-0.227,-0.113,0.114,0.17,-0.17,0.0,0.166,0.05,0.1,0.116,-0.133,-0.183
1.6,-0.332,0.023,0.355,0.155,-0.344,0.189,0.297,0.21,0.337,0.37,0.014,-0.167
1.61,-0.333,0.089,0.422,0.122,-0.378,0.256,0.345,0.278,0.43,0.476,0.073,-0.16
1.62,-0.335,0.14,0.475,0.097,-0.405,0.308,0.376,0.308,0.478,0.539,0.109,-0.159
1.63,-0.377,0.152,0.529,0.112,-0.453,0.34,0.384,0.308,0.499,0.559,0.108,-0.155
1.64,-0.414,0.176,0.591,0.119,-0.503,0.383,0.412,0.335,0.541,0.615,0.131,-0.152
1.65,-0.443,0.205,0.648,0.119,-0.546,0.426,0.462,0.385,0.619,0.703,0.164,-0.151
1.66,-0.47,0.198,0.668,0.136,-0.57,0.433,0.511,0.444,0.696,0.782,0.192,-0.141
1.67,-0.447,0.26,0.707,0.094,-0.577,0.483,0.574,0.542,0.823,0.934,0.288,-0.099
1.68,-0.416,0.361,0.776,0.028,-0.597,0.568,0.648,0.64,0.956,1.076,0.383,-0.066
1.69,-0.415,0.45,0.865,-0.017,-0.64,0.657,0.711,0.71,1.043,1.172,0.454,-0.04
1.7,-0.4,0.509,0.909,-0.055,-0.655,0.709,0.67,0.705,1.053,1.199,0.495,-0.014
1.71,-0.375,0.503,0.878,-0.064,-0.627,0.69,0.591,0.658,1.021,1.162,0.498,0.008
1.72,-0.342,0.453,0.795,-0.056,-0.569,0.624,0.542,0.618,0.964,1.103,0.488,0.026
1.73,-0.268,0.387,0.655,-0.06,-0.462,0.521,0.465,0.564,0.859,0.993,0.474,0.059
1.74,-0.204,0.294,0.497,-0.045,-0.351,0.395,0.374,0.471,0.732,0.844,0.44,0.077
1.75,-0.156,0.193,0.348,-0.019,-0.252,0.27,0.275,0.355,0.568,0.655,0.349,0.057
1.76,-0.137,0.105,0.242,0.016,-0.189,0.173,0.201,0.26,0.431,0.502,0.271,0.055
1.77,-0.115,0.027,0.142,0.044,-0.129,0.084,0.139,0.166,0.29,0.35,0.181,0.03
1.78,-0.11,-0.021,0.089,0.065,-0.099,0.034,0.117,0.115,0.212,0.268,0.138,0.026
1.79,-0.107,-0.062,0.045,0.084,-0.076,-0.009,0.1,0.068,0.137,0.178,0.076,-0.015
1.8,-0.11,-0.069,0.041,0.09,-0.075,-0.014,0.096,0.06,0.11,0.14,0.059,-0.019
1.81,-0.134,-0.091,0.043,0.113,-0.088,-0.024,0.092,0.049,0.086,0.123,0.045,-0.033
1.82,-0.115,-0.085,0.03,0.1,-0.072,-0.027,0.074,0.041,0.059,0.088,0.022,-0.034
1.83,-0.164,-0.104,0.06,0.134,-0.112,-0.021,0.091,0.052,0.088,0.135,0.061,-0.014
1.84,-0.09,-0.087,0.004,0.089,-0.047,-0.041,0.049,0.008,0.007,0.024,-0.024,-0.064
1.85,-0.201,-0.096,0.105,0.148,-0.153,0.005,0.12,0.076,0.139,0.188,0.112,0.036
1.86,0.048,-0.059,-0.107,0.005,0.078,-0.083,-0.046,-0.092,-0.149,-0.137,-0.182,-0.2
1.87,0.747,0.552,-0.195,-0.649,0.471,0.178,-0.244,0.073,0.053,0.017,-0.038,-0.016
1.88,0.695,0.855,0.16,-0.775,0.267,0.507,-0.109,0.425,0.713,0.83,0.629,0.438
1.89,0.527,0.574,0.047,-0.55,0.24,0.31,-0.141,0.226,0.355,0.413,0.366,0.262
1.9,0.468,0.359,-0.109,-0.413,0.288,0.125,-0.17,0.088,-0.007,-0.077,0.159,0.23
1.91,0.386,0.065,-0.321,-0.225,0.353,-0.127,-0.286,-0.199,-0.558,-0.685,-0.073,0.181
1.92,0.406,-0.226,-0.631,-0.09,0.519,-0.428,-0.48,-0.517,-1.271,-1.506,-0.429,0.106
1.93,0.408,-0.52,-0.928,0.056,0.668,-0.724,-0.707,-0.861,-1.809,-2.104,-0.717,0.054
1.94,0.462,-0.926,-1.388,0.233,0.925,-1.157,-0.994,-1.268,-2.227,-2.507,-1.002,-0.045
1.95,0.458,-1.138,-1.596,0.34,1.028,-1.367,-1.115,-1.433,-2.246,-2.446,-1.028,-0.031
1.96,0.634,-0.949,-1.583,0.158,1.108,-1.266,-1.256,-1.485,-2.052,-2.171,-0.905,0.069
1.97,0.813,-0.751,-1.565,-0.031,1.189,-1.158,-1.158,-1.215,-1.609,-1.708,-0.686,0.159
1.98,0.705,-0.701,-1.406,-0.002,1.055,-1.053,-0.858,-0.939,-1.208,-1.271,-0.559,0.104
1.99,0.404,-0.595,-0.999,0.096,0.702,-0.797,-0.572,-0.742,-0.895,-0.916,-0.509,-0.034
2.0,0.09,-0.425,-0.515,0.168,0.303,-0.47,-0.235,-0.429,-0.509,-0.529,-0.428,-0.16
2.01,-0.088,-0.274,-0.187,0.181,0.05,-0.23,-0.028,-0.206,-0.216,-0.226,-0.314,-0.199
2.02,-0.234,-0.12,0.114,0.177,-0.174,-0.003,0.149,0.011,0.062,0.07,-0.161,-0.191
2.03,-0.326,0.031,0.357,0.147,-0.342,0.194,0.297,0.197,0.322,0.353,0.008,-0.155
2.04,-0.344,0.095,0.44,0.124,-0.392,0.267,0.343,0.265,0.418,0.468,0.081,-0.145
2.05,-0.358,0.132,0.49,0.113,-0.425,0.311,0.372,0.301,0.473,0.532,0.119,-0.145
2.06,-0.391,0.151,0.542,0.12,-0.466,0.346,0.381,0.298,0.497,0.57,0.126,-0.136
2.07,-0.427,0.173,0.6,0.127,-0.514,0.386,0.404,0.316,0.523,0.606,0.133,-0.136
2.08,-0.448,0.206,0.654,0.121,-0.551,0.43,0.449,0.375,0.597,0.675,0.169,-0.127
2.09,-0.481,0.199,0.68,0.141,-0.581,0.439,0.496,0.427,0.665,0.751,0.191,-0.128
2.1,-0.462,0.247,0.709,0.107,-0.585,0.478,0.546,0.51,0.781,0.879,0.267,-0.105
2.11,-0.435,0.339,0.774,0.048,-0.605,0.557,0.623,0.614,0.913,1.02,0.368,-0.054
2.12,-0.431,0.423,0.854,0.004,-0.643,0.638,0.69,0.682,1.013,1.135,0.449,-0.018
2.13,-0.417,0.49,0.906,-0.037,-0.662,0.698,0.654,0.685,1.031,1.168,0.495,-0.001
2.14,-0.407,0.485,0.892,-0.039,-0.65,0.688,0.585,0.659,0.99,1.141,0.504,0.017
2.15,-0.351,0.459,0.811,-0.054,-0.581,0.635,0.538,0.623,0.946,1.092,0.492,0.045
2.16,-0.277,0.401,0.678,-0.062,-0.478,0.54,0.456,0.55,0.856,0.979,0.473,0.068
2.17,-0.228,0.301,0.529,-0.036,-0.379,0.415,0.365,0.47,0.733,0.838,0.438,0.08
2.18,-0.165,0.21,0.375,-0.023,-0.27,0.292,0.281,0.362,0.579,0.67,0.358,0.064
2.19,-0.141,0.116,0.257,0.012,-0.199,0.186,0.206,0.262,0.436,0.51,0.291,0.061
2.2,-0.125,0.038,0.163,0.043,-0.144,0.101,0.142,0.175,0.301,0.357,0.199,0.044
2.21,-0.106,-0.007,0.099,0.056,-0.102,0.046,0.108,0.124,0.215,0.263,0.138,0.03
2.22,-0.128,-0.055,0.073,0.091,-0.1,0.009,0.092,0.075,0.138,0.176,0.083,0.002
2.23,-0.12,-0.058,0.063,0.089,-0.091,0.002,0.083,0.04,0.099,0.133,0.049,-0.007
2.24,-0.146,-0.083,0.063,0.114,-0.104,-0.01,0.085,0.041,0.087,0.118,0.036,-0.002
2.25,-0.118,-0.076,0.042,0.096,-0.08,-0.016,0.063,0.011,0.054,0.09,0.006,-0.034
2.26,-0.156,-0.082,0.074,0.119,-0.115,-0.004,0.079,0.048,0.084,0.126,0.045,0.003
2.27,-0.11,-0.083,0.028,0.096,-0.069,-0.027,0.051,-0.021,0.007,0.047,-0.029,-0.07
2.28,-0.161,-0.069,0.092,0.114,-0.126,0.012,0.104,0.063,0.114,0.152,0.072,0.022
2.29,-0.101,-0.107,-0.006,0.103,-0.047,-0.056,0.049,-0.065,-0.062,-0.042,-0.105,-0.134
2.3,0.602,0.437,-0.166,-0.52,0.384,0.135,-0.183,-0.101,0.069,0.147,-0.001,-0.128
2.31,0.755,0.865,0.11,-0.81,0.322,0.487,-0.116,0.393,0.711,0.83,0.616,0.4
2.32,0.543,0.633,0.089,-0.588,0.227,0.361,-0.112,0.291,0.447,0.508,0.437,0.32
2.33,0.508,0.427,-0.08,-0.467,0.294,0.173,-0.174,0.103,0.067,0.023,0.196,0.214
2.34,0.395,0.138,-0.256,-0.266,0.325,-0.059,-0.248,-0.106,-0.404,-0.55,-0.025,0.191
2.35,0.4,-0.175,-0.575,-0.112,0.488,-0.375,-0.441,-0.47,-1.124,-1.353,-0.391,0.061
2.36,0.396,-0.44,-0.836,0.022,0.616,-0.638,-0.625,-0.739,-1.677,-2.001,-0.69,0.033
2.37,0.449,-0.835,-1.283,0.193,0.866,-1.059,-0.913,-1.166,-2.131,-2.459,-0.985,-0.046
2.38,0.461,-1.125,-1.586,0.332,1.023,-1.355,-1.083,-1.395,-2.243,-2.483,-1.056,-0.061
2.39,0.577,-1.012,-1.59,0.218,1.084,-1.301,-1.231,-1.494,-2.13,-2.258,-0.968,0.012
2.4,0.801,-0.779,-1.58,-0.01,1.19,-1.179,-1.232,-1.32,-1.745,-1.845,-0.759,0.118
2.41,0.75,-0.706,-1.456,-0.022,1.103,-1.081,-0.944,-1.013,-1.309,-1.382,-0.603,0.107
2.42,0.479,-0.626,-1.105,0.074,0.792,-0.865,-0.659,-0.818,-1.0,-1.019,-0.534,-0.016
2.43,0.147,-0.459,-0.606,0.157,0.377,-0.533,-0.325,-0.523,-0.62,-0.645,-0.469,-0.152
2.44,-0.055,-0.303,-0.247,0.179,0.097,-0.275,-0.075,-0.264,-0.291,-0.312,-0.353,-0.199
2.45,-0.182,-0.143,0.039,0.162,-0.11,-0.052,0.093,-0.048,-0.02,-0.023,-0.199,-0.187
2.46,-0.299,0.026,0.325,0.136,-0.312,0.175,0.258,0.16,0.267,0.292,-0.024,-0.161
2.47,-0.332,0.1,0.432,0.116,-0.382,0.265,0.324,0.257,0.398,0.444,0.083,-0.135
2.48,-0.353,0.133,0.486,0.109,-0.419,0.309,0.354,0.285,0.452,0.51,0.115,-0.127
2.49,-0.377,0.166,0.543,0.105,-0.46,0.354,0.37,0.305,0.491,0.555,0.133,-0.122
2.5,-0.413,0.19,0.603,0.111,-0.508,0.397,0.382,0.316,0.501,0.578,0.137,-0.122
2.51,-0.423,0.227,0.65,0.098,-0.537,0.438,0.419,0.356,0.583,0.666,0.177,-0.116
2.52,-0.46,0.228,0.688,0.116,-0.574,0.457,0.48,0.415,0.661,0.744,0.21,-0.117
2.53,-0.482,0.243,0.725,0.119,-0.603,0.484,0.533,0.484,0.755,0.855,0.266,-0.105
2.54,-0.43,0.336,0.766,0.047,-0.598,0.551,0.596,0.585,0.895,0.999,0.369,-0.061
2.55,-0.416,0.431,0.847,-0.008,-0.631,0.638,0.677,0.675,1.001,1.117,0.453,-0.019
2.56,-0.413,0.501,0.914,-0.044,-0.664,0.707,0.667,0.698,1.04,1.188,0.512,0.014
2.57,-0.391,0.522,0.914,-0.066,-0.653,0.718,0.6,0.668,1.019,1.181,0.542,0.037
2.58,-0.34,0.494,0.834,-0.077,-0.587,0.664,0.551,0.637,0.98,1.127,0.539,0.057
2.59,-0.281,0.439,0.719,-0.079,-0.5,0.579,0.479,0.584,0.899,1.024,0.515,0.069
2.6,-0.231,0.346,0.578,-0.058,-0.404,0.462,0.4,0.504,0.779,0.881,0.474,0.073
2.61,-0.176,0.238,0.414,-0.031,-0.295,0.326,0.308,0.403,0.627,0.701,0.389,0.059
2.62,-0.132,0.152,0.283,-0.01,-0.208,0.217,0.227,0.307,0.485,0.541,0.318,0.059
2.63,-0.108,0.066,0.175,0.021,-0.141,0.12,0.158,0.21,0.343,0.388,0.233,0.046
2.64,-0.1,0.009,0.108,0.045,-0.104,0.058,0.106,0.135,0.242,0.268,0.162,0.025
2.65,-0.115,-0.039,0.076,0.076,-0.096,0.018,0.093,0.091,0.171,0.194,0.115,0.005
2.66,-0.112,-0.062,0.05,0.087,-0.081,-0.006,0.077,0.059,0.1,0.12,0.057,-0.023
2.67,-0.151,-0.079,0.072,0.115,-0.111,-0.003,0.082,0.054,0.101,0.111,0.062,-0.011
2.68,-0.119,-0.075,0.043,0.097,-0.08,-0.016,0.061,0.022,0.053,0.064,0.015,-0.051
2.69,-0.139,-0.069,0.07,0.103,-0.104,0.001,0.07,0.043,0.098,0.112,0.053,-0.016
2.7,-0.129,-0.09,0.039,0.109,-0.083,-0.026,0.053,0.009,0.028,0.035,-0.018,-0.077
2.71,-0.118,-0.046,0.071,0.082,-0.094,0.013,0.071,0.042,0.093,0.107,0.052,-0.015
2.72,-0.201,-0.131,0.07,0.166,-0.135,-0.031,0.068,-0.004,0.012,0.019,-0.021,-0.069
2.73,0.457,0.299,-0.157,-0.378,0.307,0.071,-0.141,-0.012,-0.071,-0.046,-0.113,-0.18
2.74,0.824,0.876,0.053,-0.85,0.385,0.464,-0.142,0.363,0.607,0.697,0.527,0.317
2.75,0.558,0.703,0.146,-0.631,0.206,0.424,-0.115,0.341,0.571,0.632,0.536,0.369
2.76,0.532,0.471,-0.061,-0.502,0.296,0.205,-0.177,0.143,0.117,0.072,0.221,0.196
2.77,0.413,0.22,-0.193,-0.316,0.303,0.014,-0.221,-0.046,-0.276,-0.409,0.05,0.197
2.78,0.38,-0.111,-0.491,-0.134,0.435,-0.3,-0.401,-0.402,-1.006,-1.229,-0.326,0.078
2.79,0.382,-0.38,-0.762,-0.001,0.572,-0.57,-0.568,-0.684,-1.599,-1.931,-0.642,0.032
2.8,0.423,-0.742,-1.165,0.159,0.795,-0.953,-0.852,-1.1,-2.097,-2.443,-0.967,-0.054
2.81,0.454,-1.09,-1.544,0.318,0.999,-1.317,-1.057,-1.388,-2.274,-2.55,-1.08,-0.096
2.82,0.533,-1.059,-1.592,0.264,1.062,-1.325,-1.197,-1.51,-2.195,-2.368,-1.024,-0.04
2.83,0.777,-0.8,-1.576,0.012,1.177,-1.188,-1.271,-1.403,-1.865,-1.976,-0.821,0.087
2.84,0.779,-0.709,-1.488,-0.035,1.133,-1.098,-1.015,-1.082,-1.4,-1.499,-0.638,0.094
2.85,0.542,-0.64,-1.183,0.049,0.863,-0.911,-0.73,-0.875,-1.069,-1.117,-0.565,-0.005
2.86,0.209,-0.486,-0.695,0.139,0.453,-0.59,-0.402,-0.587,-0.684,-0.719,-0.475,-0.123
2.87,-0.016,-0.317,-0.301,0.167,0.143,-0.308,-0.116,-0.292,-0.329,-0.36,-0.345,-0.194
2.88,-0.149,-0.171,-0.021,0.16,-0.064,-0.096,0.055,-0.085,-0.058,-0.072,-0.194,-0.185
2.89,-0.296,-0.017,0.279,0.157,-0.288,0.131,0.237,0.136,0.232,0.237,-0.03,-0.169
2.9,-0.339,0.086,0.425,0.127,-0.383,0.256,0.323,0.252,0.399,0.425,0.088,-0.137
2.91,-0.355,0.126,0.481,0.115,-0.418,0.304,0.36,0.294,0.454,0.495,0.126,-0.122
2.92,-0.377,0.16,0.537,0.108,-0.457,0.348,0.373,0.317,0.5,0.551,0.147,-0.118
2.93,-0.394,0.193,0.586,0.1,-0.49,0.389,0.387,0.321,0.521,0.579,0.158,-0.117
2.94,-0.418,0.225,0.643,0.096,-0.531,0.434,0.42,0.356,0.583,0.65,0.195,-0.113
2.95,-0.446,0.236,0.681,0.105,-0.564,0.458,0.465,0.408,0.652,0.727,0.222,-0.111
2.96,-0.472,0.245,0.717,0.113,-0.594,0.481,0.52,0.48,0.743,0.825,0.267,-0.107
2.97,-0.445,0.321,0.766,0.062,-0.606,0.543,0.575,0.582,0.884,0.978,0.371,-0.069
2.98,-0.418,0.417,0.835,0.0,-0.627,0.626,0.66,0.676,0.999,1.104,0.464,-0.024
2.99,-0.406,0.497,0.903,-0.046,-0.654,0.699,0.671,0.707,1.067,1.183,0.528,0.012
3.0,-0.381,0.539,0.919,-0.079,-0.65,0.729,0.609,0.68,1.045,1.177,0.558,0.031
3.01,-0.362,0.505,0.867,-0.072,-0.615,0.686,0.561,0.647,0.991,1.119,0.555,0.045
3.02,-0.315,0.448,0.763,-0.066,-0.539,0.605,0.484,0.605,0.933,1.044,0.55,0.073
3.03,-0.248,0.368,0.616,-0.06,-0.432,0.492,0.402,0.529,0.811,0.908,0.509,0.076
3.04,-0.184,0.278,0.463,-0.047,-0.324,0.371,0.31,0.428,0.67,0.75,0.442,0.07
3.05,-0.136,0.185,0.321,-0.024,-0.229,0.253,0.22,0.32,0.509,0.572,0.346,0.054
3.06,-0.11,0.107,0.217,0.002,-0.164,0.162,0.151,0.237,0.381,0.428,0.274,0.052
3.07,-0.11,0.025,0.135,0.042,-0.122,0.079,0.106,0.149,0.252,0.277,0.184,0.024
3.08,-0.102,-0.014,0.088,0.057,-0.095,0.037,0.075,0.095,0.179,0.197,0.127,0.011
3.09,-0.13,-0.061,0.069,0.095,-0.099,0.004,0.071,0.062,0.141,0.162,0.1,-0.003
3.1,-0.125,-0.066,0.059,0.095,-0.092,-0.004,0.07,0.049,0.089,0.106,0.051,-0.015
3.11,-0.144,-0.07,0.074,0.107,-0.109,0.002,0.067,0.059,0.116,0.131,0.079,-0.009
3.12,-0.143,-0.091,0.052,0.116,-0.097,-0.019,0.076,0.023,0.048,0.055,0.022,-0.048
3.13,-0.128,-0.047,0.081,0.087,-0.104,0.017,0.058,0.06,0.111,0.126,0.096,0.004
3.14,-0.175,-0.131,0.045,0.153,-0.11,-0.043,0.086,-0.006,0.013,0.024,-0.001,-0.066
3.15,-0.081,-0.001,0.08,0.041,-0.081,0.04,0.031,0.078,0.115,0.126,0.106,0.034
3.16,-0.254,-0.217,0.038,0.236,-0.146,-0.089,0.115,-0.043,-0.007,0.0,-0.012,-0.12
3.17,0.191,0.066,-0.125,-0.128,0.158,-0.03,0.071,-0.123,-0.292,-0.29,-0.321,-0.18
3.18,0.822,0.915,0.093,-0.869,0.364,0.504,-0.177,0.377,0.525,0.598,0.464,0.38
3.19,0.571,0.694,0.123,-0.633,0.223,0.409,-0.147,0.3,0.555,0.625,0.555,0.334
3.2,0.488,0.435,-0.054,-0.462,0.271,0.19,-0.177,0.1,0.049,0.004,0.198,0.207
3.21,0.422,0.206,-0.216,-0.314,0.319,-0.005,-0.268,-0.081,-0.319,-0.459,0.064,0.204
3.22,0.367,-0.153,-0.52,-0.107,0.444,-0.336,-0.415,-0.45,-1.083,-1.323,-0.361,0.087
3.23,0.409,-0.391,-0.8,-0.009,0.605,-0.595,-0.627,-0.721,-1.645,-1.989,-0.657,0.042
3.24,0.435,-0.793,-1.228,0.179,0.832,-1.01,-0.891,-1.161,-2.133,-2.476,-0.975,-0.057
3.25,0.46,-1.088,-1.548,0.314,1.005,-1.318,-1.089,-1.426,-2.307,-2.554,-1.081,-0.085
3.26,0.53,-1.045,-1.575,0.258,1.053,-1.31,-1.213,-1.537,-2.198,-2.349,-0.998,-0.026
3.27,0.753,-0.802,-1.555,0.025,1.154,-1.178,-1.26,-1.382,-1.837,-1.955,-0.796,0.095
3.28,0.753,-0.703,-1.456,-0.025,1.105,-1.079,-0.99,-1.052,-1.366,-1.458,-0.61,0.091
3.29,0.52,-0.628,-1.149,0.054,0.835,-0.888,-0.692,-0.844,-1.028,-1.068,-0.54,-0.006
3.3,0.187,-0.469,-0.656,0.141,0.422,-0.563,-0.369,-0.543,-0.639,-0.678,-0.451,-0.138
3.31,-0.029,-0.318,-0.289,0.174,0.13,-0.303,-0.093,-0.26,-0.297,-0.332,-0.322,-0.198
3.32,-0.163,-0.171,-0.008,0.167,-0.077,-0.089,0.077,-0.05,-0.025,-0.042,-0.176,-0.179
3.33,-0.297,-0.003,0.294,0.149,-0.295,0.145,0.251,0.161,0.262,0.259,-0.006,-0.163
3.34,-0.334,0.092,0.426,0.121,-0.38,0.258,0.325,0.266,0.409,0.431,0.101,-0.139
3.35,-0.347,0.132,0.478,0.107,-0.413,0.305,0.354,0.302,0.465,0.504,0.139,-0.139
3.36,-0.362,0.167,0.529,0.097,-0.446,0.348,0.374,0.312,0.512,0.558,0.166,-0.134
3.37,-0.388,0.188,0.576,0.1,-0.482,0.382,0.4,0.32,0.534,0.588,0.168,-0.13
3.38,-0.418,0.224,0.642,0.097,-0.53,0.432,0.428,0.372,0.6,0.665,0.214,-0.128
3.39,-0.447,0.224,0.67,0.111,-0.559,0.447,0.463,0.413,0.66,0.735,0.24,-0.121
3.4,-0.452,0.237,0.69,0.108,-0.571,0.463,0.529,0.488,0.76,0.847,0.286,-0.105
3.41,-0.424,0.336,0.759,0.044,-0.592,0.547,0.581,0.592,0.899,0.994,0.387,-0.074
3.42,-0.399,0.434,0.833,-0.018,-0.617,0.633,0.666,0.679,1.012,1.116,0.471,-0.038
3.43,-0.397,0.498,0.894,-0.051,-0.646,0.696,0.695,0.709,1.067,1.181,0.542,-0.009
3.44,-0.398,0.519,0.917,-0.061,-0.658,0.718,0.609,0.664,1.039,1.172,0.554,0.018
3.45,-0.352,0.495,0.847,-0.072,-0.599,0.67,0.55,0.633,0.994,1.129,0.539,0.053
3.46,-0.289,0.437,0.726,-0.074,-0.508,0.581,0.489,0.593,0.918,1.032,0.538,0.068
3.47,-0.214,0.369,0.583,-0.078,-0.398,0.476,0.397,0.515,0.802,0.903,0.501,0.06
3.48,-0.155,0.272,0.427,-0.059,-0.291,0.35,0.306,0.424,0.669,0.743,0.437,0.055
3.49,-0.12,0.16,0.281,-0.02,-0.201,0.22,0.22,0.32,0.505,0.563,0.362,0.041
3.5,-0.107,0.083,0.19,0.012,-0.149,0.136,0.164,0.23,0.378,0.435,0.289,0.043
3.51,-0.108,0.015,0.123,0.046,-0.115,0.069,0.118,0.151,0.252,0.275,0.189,0.019
3.52,-0.106,-0.022,0.084,0.063,-0.095,0.031,0.088,0.113,0.183,0.196,0.139,0.002
3.53,-0.111,-0.048,0.064,0.079,-0.087,0.008,0.067,0.084,0.125,0.141,0.096,-0.018
3.54,-0.102,-0.049,0.054,0.075,-0.078,0.003,0.062,0.061,0.096,0.114,0.076,-0.02
3.55,-0.156,-0.095,0.062,0.125,-0.109,-0.016,0.071,0.046,0.092,0.111,0.067,-0.023
3.56,-0.105,-0.062,0.042,0.083,-0.073,-0.01,0.05,0.039,0.073,0.087,0.042,-0.046
3.57,-0.157,-0.083,0.074,0.12,-0.115,-0.004,0.073,0.057,0.105,0.122,0.077,-0.019
3.58,-0.089,-0.062,0.027,0.075,-0.058,-0.017,0.043,0.023,0.038,0.046,0.006,-0.08
3.59,-0.149,-0.057,0.093,0.103,-0.121,0.018,0.088,0.08,0.136,0.155,0.107,0.01
3.6,-0.076,-0.09,-0.015,0.083,-0.03,-0.052,0.033,-0.023,-0.043,-0.053,-0.076,-0.142
3.61,0.774,0.613,-0.161,-0.693,0.468,0.226,-0.212,0.08,0.115,0.154,0.065,-0.058
3.62,0.801,0.935,0.134,-0.869,0.333,0.534,-0.137,0.423,0.722,0.838,0.659,0.413
3.63,0.512,0.628,0.116,-0.57,0.198,0.372,-0.114,0.275,0.466,0.517,0.451,0.286
3.64,0.531,0.46,-0.071,-0.495,0.301,0.194,-0.201,0.106,0.09,0.059,0.249,0.216
3.65,0.397,0.17,-0.227,-0.284,0.312,-0.028,-0.248,-0.076,-0.314,-0.452,0.054,0.187
3.66,0.404,-0.085,-0.489,-0.159,0.447,-0.286,-0.393,-0.37,-0.972,-1.229,-0.311,0.086
3.67,0.359,-0.392,-0.752,0.017,0.556,-0.572,-0.56,-0.661,-1.582,-1.954,-0.642,0.041
3.68,0.429,-0.776,-1.205,0.174,0.817,-0.99,-0.846,-1.049,-2.035,-2.435,-0.956,-0.057
3.69,0.437,-1.111,-1.547,0.337,0.992,-1.329,-1.04,-1.34,-2.246,-2.552,-1.07,-0.069
3.7,0.522,-1.067,-1.589,0.273,1.056,-1.328,-1.209,-1.512,-2.244,-2.446,-1.051,-0.018
3.71,0.76,-0.791,-1.551,0.015,1.156,-1.171,-1.253,-1.363,-1.853,-1.99,-0.812,0.115
3.72,0.743,-0.693,-1.436,-0.025,1.089,-1.064,-0.959,-1.028,-1.352,-1.441,-0.589,0.117
3.73,0.488,-0.616,-1.104,0.064,0.796,-0.86,-0.653,-0.784,-0.973,-1.016,-0.502,0.002
3.74,0.159,-0.459,-0.618,0.15,0.389,-0.538,-0.332,-0.488,-0.59,-0.632,-0.431,-0.126
3.75,-0.023,-0.292,-0.269,0.158,0.124,-0.28,-0.087,-0.236,-0.268,-0.298,-0.31,-0.192
3.76,-0.151,-0.136,0.015,0.144,-0.083,-0.06,0.078,-0.038,-0.002,-0.01,-0.175,-0.191
3.77,-0.274,0.019,0.293,0.127,-0.284,0.156,0.252,0.167,0.282,0.295,-0.001,-0.173
3.78,-0.299,0.105,0.404,0.096,-0.351,0.254,0.308,0.246,0.41,0.456,0.092,-0.154
3.79,-0.32,0.144,0.464,0.088,-0.392,0.304,0.334,0.268,0.449,0.496,0.097,-0.153
3.8,-0.357,0.168,0.525,0.094,-0.441,0.347,0.35,0.272,0.478,0.542,0.139,-0.142
3.81,-0.396,0.179,0.574,0.108,-0.485,0.376,0.363,0.279,0.495,0.577,0.142,-0.139
3.82,-0.392,0.226,0.618,0.083,-0.505,0.422,0.401,0.332,0.569,0.655,0.169,-0.13
3.83,-0.406,0.243,0.649,0.081,-0.528,0.446,0.45,0.378,0.637,0.731,0.211,-0.135
3.84,-0.431,0.259,0.69,0.086,-0.56,0.474,0.494,0.441,0.727,0.83,0.248,-0.137
3.85,-0.39,0.35,0.74,0.02,-0.565,0.544,0.555,0.54,0.865,0.984,0.351,-0.09
3.86,-0.375,0.441,0.817,-0.033,-0.596,0.629,0.642,0.624,0.972,1.104,0.443,-0.048
3.87,-0.372,0.517,0.889,-0.073,-0.631,0.703,0.643,0.632,0.998,1.166,0.493,-0.019
3.88,-0.358,0.541,0.899,-0.092,-0.629,0.72,0.57,0.592,0.967,1.144,0.512,0.003
3.89,-0.323,0.514,0.836,-0.096,-0.58,0.675,0.509,0.563,0.933,1.094,0.511,0.022
3.9,-0.254,0.45,0.704,-0.098,-0.479,0.577,0.455,0.517,0.874,1.024,0.507,0.053
3.91,-0.193,0.361,0.554,-0.084,-0.374,0.458,0.384,0.456,0.77,0.89,0.47,0.061
3.92,-0.143,0.269,0.412,-0.063,-0.278,0.341,0.298,0.375,0.629,0.733,0.414,0.058
3.93,-0.1,0.171,0.271,-0.036,-0.186,0.221,0.214,0.282,0.482,0.574,0.332,0.05
3.94,-0.078,0.092,0.169,-0.008,-0.124,0.13,0.153,0.202,0.361,0.436,0.262,0.056
3.95,-0.059,0.033,0.092,0.012,-0.076,0.063,0.107,0.14,0.245,0.304,0.174,0.031
3.96,-0.078,-0.008,0.07,0.043,-0.074,0.031,0.104,0.102,0.198,0.232,0.125,0.016
3.97,-0.104,-0.059,0.044,0.081,-0.074,-0.007,0.094,0.062,0.127,0.152,0.062,-0.012
3.98,-0.114,-0.061,0.054,0.087,-0.084,-0.003,0.09,0.042,0.116,0.14,0.058,-0.002
3.99,-0.117,-0.067,0.049,0.092,-0.083,-0.009,0.087,0.031,0.087,0.107,0.043,-0.019
4.0,-0.088,-0.05,0.038,0.069,-0.063,-0.006,0.073,0.034,0.076,0.111,0.029,-0.026
4.01,-0.124,-0.064,0.061,0.094,-0.092,-0.001,0.088,0.027,0.087,0.112,0.054,-0.014
4.02,-0.061,-0.045,0.016,0.053,-0.038,-0.015,0.049,0.025,0.043,0.063,-0.022,-0.067
4.03,-0.167,-0.057,0.111,0.112,-0.139,0.027,0.107,0.029,0.135,0.154,0.105,0.025
4.04,0.063,-0.021,-0.084,-0.021,0.073,-0.052,-0.046,0.018,-0.101,-0.086,-0.172,-0.214
4.05,0.735,0.604,-0.13,-0.669,0.433,0.237,-0.245,0.232,0.249,0.371,0.088,-0.014
4.06,0.734,0.91,0.176,-0.822,0.279,0.543,-0.133,0.37,0.753,0.887,0.682,0.436
4.07,0.562,0.648,0.086,-0.605,0.237,0.367,-0.161,0.223,0.381,0.425,0.381,0.266
4.08,0.504,0.449,-0.055,-0.476,0.279,0.197,-0.197,0.085,0.072,0.042,0.246,0.259
4.09,0.398,0.156,-0.242,-0.277,0.32,-0.043,-0.257,-0.137,-0.403,-0.547,0.009,0.192
4.1,0.377,-0.105,-0.482,-0.136,0.43,-0.293,-0.419,-0.416,-1.044,-1.29,-0.328,0.1
4.11,0.37,-0.391,-0.762,0.011,0.566,-0.576,-0.591,-0.706,-1.598,-1.951,-0.628,0.06
4.12,0.439,-0.796,-1.235,0.179,0.837,-1.015,-0.865,-1.043,-1.973,-2.327,-0.889,0.016
4.13,0.448,-1.079,-1.528,0.316,0.989,-1.303,-1.051,-1.322,-2.148,-2.408,-0.951,0.014
4.14,0.56,-0.98,-1.54,0.21,1.05,-1.26,-1.215,-1.456,-2.118,-2.294,-0.942,0.053
4.15,0.756,-0.743,-1.499,-0.006,1.128,-1.121,-1.193,-1.267,-1.706,-1.837,-0.734,0.17
4.16,0.7,-0.657,-1.357,-0.022,1.029,-1.006,-0.881,-0.951,-1.245,-1.331,-0.568,0.139
4.17,0.428,-0.593,-1.021,0.083,0.725,-0.807,-0.589,-0.72,-0.893,-0.933,-0.486,0.019
4.18,0.128,-0.432,-0.56,0.152,0.345,-0.496,-0.286,-0.455,-0.544,-0.581,-0.43,-0.135
4.19,-0.039,-0.26,-0.222,0.149,0.092,-0.241,-0.067,-0.227,-0.244,-0.269,-0.331,-0.181
4.2,-0.165,-0.112,0.053,0.139,-0.109,-0.03,0.103,-0.015,0.032,0.031,-0.17,-0.164
4.21,-0.279,0.046,0.324,0.116,-0.302,0.185,0.261,0.167,0.291,0.324,-0.027,-0.166
4.22,-0.313,0.106,0.419,0.104,-0.367,0.262,0.309,0.229,0.393,0.439,0.049,-0.155
4.23,-0.33,0.144,0.474,0.093,-0.402,0.309,0.342,0.257,0.446,0.507,0.088,-0.156
4.24,-0.348,0.183,0.53,0.082,-0.439,0.356,0.35,0.264,0.471,0.547,0.095,-0.151
4.25,-0.379,0.204,0.583,0.087,-0.481,0.393,0.364,0.279,0.491,0.573,0.107,-0.149
4.26,-0.388,0.25,0.638,0.069,-0.513,0.443,0.401,0.324,0.568,0.667,0.155,-0.146
4.27,-0.423,0.255,0.677,0.084,-0.55,0.466,0.446,0.37,0.632,0.737,0.173,-0.145
4.28,-0.43,0.286,0.716,0.072,-0.574,0.501,0.5,0.445,0.74,0.866,0.246,-0.122
4.29,-0.398,0.373,0.771,0.012,-0.585,0.572,0.562,0.538,0.872,1.015,0.35,-0.083
4.3,-0.394,0.467,0.861,-0.037,-0.627,0.664,0.637,0.607,0.964,1.124,0.423,-0.056
4.31,-0.364,0.555,0.918,-0.096,-0.641,0.736,0.624,0.606,0.991,1.169,0.483,-0.024
4.32,-0.343,0.559,0.903,-0.108,-0.623,0.731,0.542,0.578,0.955,1.146,0.498,0.004
4.33,-0.314,0.515,0.829,-0.101,-0.571,0.672,0.494,0.557,0.914,1.108,0.496,0.029
4.34,-0.255,0.456,0.711,-0.1,-0.483,0.583,0.431,0.509,0.839,1.004,0.471,0.042
4.35,-0.195,0.367,0.562,-0.086,-0.379,0.464,0.347,0.44,0.727,0.872,0.436,0.056
4.36,-0.148,0.265,0.413,-0.059,-0.281,0.339,0.266,0.354,0.595,0.717,0.386,0.058
4.37,-0.095,0.178,0.273,-0.042,-0.184,0.225,0.188,0.259,0.449,0.545,0.302,0.041
4.38,-0.092,0.089,0.181,0.002,-0.137,0.135,0.148,0.17,0.327,0.404,0.221,0.041
4.39,-0.088,0.032,0.12,0.028,-0.105,0.076,0.104,0.111,0.213,0.272,0.134,0.01
4.4,-0.111,-0.014,0.097,0.062,-0.104,0.042,0.082,0.069,0.161,0.207,0.094,-0.009
4.41,-0.121,-0.046,0.075,0.084,-0.098,0.014,0.069,0.036,0.093,0.13,0.036,-0.036
4.42,-0.109,-0.038,0.071,0.073,-0.09,0.016,0.066,0.033,0.087,0.125,0.043,-0.029
4.43,-0.139,-0.07,0.069,0.105,-0.104,-0.001,0.064,0.023,0.069,0.094,0.022,-0.056
4.44,-0.1,-0.035,0.065,0.067,-0.082,0.015,0.046,0.031,0.07,0.101,0.026,-0.048
4.45,-0.173,-0.09,0.083,0.131,-0.128,-0.003,0.066,0.014,0.076,0.103,0.028,-0.042
4.46,-0.063,-0.013,0.051,0.038,-0.057,0.019,0.028,0.027,0.034,0.062,-0.01,-0.073
4.47,-0.209,-0.088,0.121,0.148,-0.165,0.016,0.1,0.009,0.117,0.148,0.068,0.002
4.48,0.107,0.06,-0.047,-0.083,0.077,0.006,-0.059,0.028,-0.108,-0.094,-0.157,-0.194
4.49,0.926,0.856,-0.069,-0.891,0.497,0.393,-0.261,0.313,0.266,0.36,0.211,0.074
4.5,0.705,0.89,0.185,-0.798,0.26,0.537,-0.135,0.355,0.702,0.824,0.636,0.434
4.51,0.521,0.577,0.056,-0.549,0.232,0.316,-0.175,0.192,0.283,0.318,0.319,0.242
4.52,0.476,0.386,-0.09,-0.43,0.283,0.148,-0.216,0.036,-0.063,-0.132,0.156,0.213
4.53,0.367,0.054,-0.313,-0.211,0.34,-0.129,-0.337,-0.284,-0.672,-0.836,-0.141,0.155
4.54,0.425,-0.2,-0.625,-0.112,0.525,-0.412,-0.549,-0.569,-1.334,-1.573,-0.439,0.106
4.55,0.433,-0.498,-0.931,0.033,0.683,-0.714,-0.803,-0.95,-1.821,-2.101,-0.689,0.08
4.56,0.48,-0.871,-1.352,0.196,0.916,-1.111,-1.068,-1.319,-2.189,-2.423,-0.929,0.025
4.57,0.5,-1.046,-1.546,0.273,1.023,-1.296,-1.195,-1.48,-2.21,-2.342,-0.919,0.043
4.58,0.704,-0.848,-1.551,0.072,1.128,-1.199,-1.294,-1.442,-1.942,-2.036,-0.769,0.145
4.59,0.808,-0.69,-1.498,-0.059,1.154,-1.094,-1.128,-1.174,-1.528,-1.637,-0.621,0.193
4.6,0.673,-0.631,-1.304,-0.021,0.989,-0.968,-0.838,-0.924,-1.166,-1.223,-0.553,0.113
4.61,0.387,-0.527,-0.913,0.07,0.651,-0.72,-0.54,-0.67,-0.809,-0.844,-0.497,-0.02
4.62,0.082,-0.37,-0.452,0.144,0.267,-0.411,-0.221,-0.385,-0.456,-0.492,-0.411,-0.157
4.63,-0.078,-0.219,-0.141,0.149,0.032,-0.18,-0.018,-0.168,-0.175,-0.193,-0.302,-0.184
4.64,-0.221,-0.07,0.151,0.145,-0.186,0.04,0.156,0.042,0.1,0.099,-0.155,-0.182
4.65,-0.318,0.062,0.38,0.127,-0.349,0.221,0.279,0.204,0.333,0.356,-0.012,-0.173
4.66,-0.338,0.124,0.462,0.107,-0.4,0.293,0.332,0.264,0.419,0.455,0.044,-0.166
4.67,-0.348,0.167,0.515,0.09,-0.432,0.341,0.356,0.298,0.47,0.525,0.086,-0.165
4.68,-0.367,0.192,0.559,0.088,-0.464,0.376,0.371,0.316,0.499,0.558,0.101,-0.161
4.69,-0.399,0.219,0.618,0.09,-0.509,0.419,0.4,0.331,0.537,0.602,0.11,-0.158
4.7,-0.432,0.243,0.675,0.094,-0.554,0.459,0.442,0.383,0.616,0.683,0.14,-0.156
4.71,-0.468,0.243,0.711,0.112,-0.59,0.477,0.502,0.446,0.696,0.764,0.166,-0.152
4.72,-0.452,0.287,0.739,0.082,-0.596,0.513,0.555,0.535,0.816,0.902,0.257,-0.116
4.73,-0.417,0.383,0.801,0.017,-0.609,0.592,0.625,0.634,0.95,1.056,0.362,-0.075
4.74,-0.402,0.474,0.876,-0.036,-0.639,0.675,0.691,0.697,1.044,1.164,0.436,-0.043
4.75,-0.403,0.534,0.937,-0.066,-0.671,0.736,0.653,0.692,1.058,1.192,0.486,-0.017
4.76,-0.395,0.526,0.922,-0.066,-0.659,0.724,0.58,0.646,1.01,1.158,0.484,0.005
4.77,-0.33,0.484,0.814,-0.077,-0.572,0.649,0.53,0.611,0.954,1.094,0.479,0.027
4.78,-0.269,0.416,0.686,-0.074,-0.478,0.551,0.45,0.548,0.86,0.981,0.466,0.038
4.79,-0.208,0.33,0.538,-0.061,-0.373,0.434,0.362,0.453,0.721,0.832,0.423,0.047
4.8,-0.146,0.233,0.379,-0.043,-0.263,0.305,0.268,0.346,0.563,0.655,0.345,0.037
4.81,-0.119,0.142,0.261,-0.012,-0.19,0.201,0.187,0.251,0.42,0.492,0.267,0.033
4.82,-0.111,0.063,0.174,0.024,-0.143,0.118,0.133,0.174,0.292,0.358,0.196,0.026
4.83,-0.088,0.019,0.107,0.034,-0.098,0.063,0.096,0.115,0.191,0.238,0.118,-0.007
4.84,-0.123,-0.03,0.092,0.076,-0.107,0.03,0.089,0.076,0.151,0.185,0.083,-0.014
4.85,-0.118,-0.05,0.068,0.084,-0.093,0.009,0.07,0.033,0.091,0.128,0.03,-0.046
4.86,-0.132,-0.053,0.08,0.092,-0.105,0.013,0.069,0.023,0.095,0.129,0.042,-0.034
4.87,-0.135,-0.075,0.06,0.105,-0.098,-0.007,0.059,0.011,0.054,0.074,-0.007,-0.065
4.88,-0.123,-0.053,0.07,0.087,-0.096,0.009,0.067,0.021,0.084,0.108,0.02,-0.036
4.89,-0.142,-0.083,0.059,0.112,-0.1,-0.012,0.067,0.0,0.052,0.075,-0.005,-0.062
4.9,-0.067,-0.015,0.052,0.041,-0.06,0.018,0.054,0.016,0.058,0.093,-0.002,-0.059
4.91,-0.219,-0.112,0.107,0.165,-0.163,-0.003,0.095,-0.013,0.084,0.114,0.032,-0.022
4.92,0.292,0.189,-0.102,-0.241,0.197,0.043,-0.097,-0.006,-0.124,-0.078,-0.179,-0.234
4.93,0.869,0.874,0.004,-0.872,0.432,0.439,-0.181,0.32,0.433,0.561,0.345,0.158
4.94,0.616,0.795,0.179,-0.706,0.218,0.487,-0.117,0.345,0.657,0.76,0.592,0.396
4.95,0.541,0.543,0.001,-0.542,0.27,0.272,-0.18,0.157,0.191,0.197,0.238,0.19
4.96,0.451,0.319,-0.132,-0.385,0.292,0.093,-0.214,0.002,-0.141,-0.228,0.111,0.205
4.97,0.405,-0.001,-0.406,-0.202,0.405,-0.203,-0.378,-0.332,-0.815,-0.988,-0.225,0.105
4.98,0.43,-0.263,-0.692,-0.083,0.561,-0.477,-0.561,-0.613,-1.425,-1.693,-0.512,0.069
4.99,0.448,-0.609,-1.058,0.081,0.753,-0.833,-0.826,-0.998,-1.929,-2.241,-0.812,0.007
