time,lead1,lead2,lead3,lead4,lead5,lead6,lead7,lead8,lead9,lead10,lead11,lead12
0.0,0.005,0.011,0.006,-0.008,-0.001,0.008,-0.001,-0.063,-0.077,-0.128,-0.165,-0.181
0.01,0.004,0.004,0.0,-0.004,0.002,0.001,-0.001,-0.06,-0.076,-0.127,-0.168,-0.182
0.02,0.01,0.012,0.003,-0.011,0.004,0.008,0.002,-0.055,-0.071,-0.114,-0.158,-0.175
0.03,-0.03,-0.031,-0.001,0.03,-0.014,-0.017,-0.012,-0.082,-0.099,-0.156,-0.177,-0.203
0.04,-0.11,0.024,0.134,0.043,-0.123,0.079,0.007,-0.125,-0.168,-0.189,-0.227,-0.202
0.05,-0.058,0.066,0.124,-0.004,-0.092,0.095,-0.163,-0.464,-0.441,-0.285,-0.193,-0.164
0.06,0.383,0.36,-0.023,-0.371,0.203,0.168,-0.798,-1.038,-0.716,-0.049,0.302,0.219
0.07,0.948,0.7,-0.247,-0.824,0.597,0.226,-1.338,-1.396,-0.786,0.197,0.899,0.705
0.08,0.794,0.247,-0.547,-0.52,0.67,-0.15,-1.084,-1.14,-0.769,-0.337,0.402,0.388
0.09,0.284,-0.045,-0.329,-0.119,0.307,-0.187,-0.463,-0.548,-0.547,-0.588,-0.223,-0.092
0.1,0.078,-0.013,-0.091,-0.033,0.085,-0.051,-0.112,-0.182,-0.219,-0.287,-0.185,-0.175
0.11,-0.014,-0.06,-0.046,0.038,0.016,-0.053,0.043,0.034,-0.009,-0.11,-0.168,-0.218
0.12,-0.041,-0.026,0.015,0.033,-0.028,-0.005,0.082,0.1,0.054,-0.058,-0.15,-0.227
0.13,-0.038,-0.044,-0.005,0.041,-0.016,-0.024,0.084,0.099,0.082,-0.062,-0.139,-0.23
0.14,-0.047,-0.031,0.016,0.039,-0.031,-0.007,0.104,0.132,0.112,-0.039,-0.137,-0.231
0.15,-0.04,-0.029,0.011,0.034,-0.025,-0.009,0.114,0.137,0.119,-0.029,-0.124,-0.234
0.16,-0.033,-0.015,0.019,0.024,-0.026,0.002,0.123,0.155,0.134,-0.015,-0.124,-0.236
0.17,-0.021,0.003,0.024,0.009,-0.023,0.013,0.119,0.172,0.151,0.002,-0.111,-0.231
0.18,-0.02,0.006,0.026,0.007,-0.023,0.016,0.128,0.185,0.172,0.01,-0.111,-0.231
0.19,-0.013,0.024,0.037,-0.006,-0.025,0.03,0.134,0.196,0.189,0.033,-0.102,-0.226
0.2,-0.024,0.027,0.05,-0.002,-0.037,0.038,0.137,0.207,0.208,0.048,-0.1,-0.225
0.21,-0.026,0.037,0.064,-0.006,-0.045,0.05,0.143,0.216,0.216,0.055,-0.095,-0.22
0.22,0.008,0.084,0.076,-0.046,-0.034,0.079,0.148,0.227,0.21,0.064,-0.09,-0.22
0.23,-0.015,0.091,0.106,-0.038,-0.061,0.098,0.143,0.218,0.204,0.057,-0.094,-0.225
0.24,-0.036,0.093,0.13,-0.029,-0.083,0.111,0.133,0.205,0.198,0.047,-0.095,-0.224
0.25,-0.048,0.105,0.153,-0.029,-0.101,0.129,0.127,0.193,0.174,0.038,-0.1,-0.226
0.26,-0.062,0.112,0.174,-0.025,-0.118,0.143,0.117,0.156,0.137,0.01,-0.101,-0.23
0.27,-0.047,0.141,0.188,-0.047,-0.118,0.164,0.099,0.11,0.094,-0.026,-0.107,-0.23
0.28,-0.061,0.129,0.19,-0.034,-0.126,0.159,0.073,0.062,0.042,-0.061,-0.122,-0.233
0.29,-0.06,0.115,0.175,-0.028,-0.118,0.145,0.048,0.008,-0.006,-0.094,-0.132,-0.235
0.3,-0.053,0.106,0.159,-0.027,-0.106,0.132,0.027,-0.028,-0.045,-0.119,-0.14,-0.234
0.31,-0.046,0.091,0.138,-0.023,-0.092,0.114,0.011,-0.063,-0.086,-0.139,-0.137,-0.235
0.32,-0.036,0.074,0.11,-0.02,-0.073,0.092,0.004,-0.095,-0.114,-0.152,-0.131,-0.241
0.33,-0.028,0.052,0.08,-0.012,-0.054,0.066,-0.003,-0.092,-0.109,-0.146,-0.128,-0.256
0.34,-0.003,0.047,0.049,-0.022,-0.026,0.048,-0.009,-0.084,-0.099,-0.141,-0.122,-0.267
0.35,0.007,0.041,0.034,-0.025,-0.014,0.037,-0.016,-0.078,-0.091,-0.138,-0.118,-0.274
0.36,0.0,0.035,0.036,-0.018,-0.018,0.035,-0.019,-0.07,-0.083,-0.132,-0.115,-0.28
0.37,-0.003,0.031,0.033,-0.014,-0.018,0.032,-0.014,-0.065,-0.075,-0.129,-0.112,-0.279
0.38,-0.006,0.024,0.03,-0.009,-0.019,0.027,-0.009,-0.06,-0.067,-0.124,-0.11,-0.284
0.39,0.004,0.033,0.029,-0.018,-0.013,0.031,-0.004,-0.056,-0.059,-0.119,-0.106,-0.284
0.4,0.003,0.036,0.033,-0.019,-0.016,0.034,0.0,-0.053,-0.052,-0.115,-0.105,-0.29
0.41,-0.008,0.033,0.042,-0.013,-0.025,0.037,0.006,-0.049,-0.05,-0.11,-0.102,-0.302
0.42,-0.01,0.037,0.048,-0.014,-0.03,0.042,0.001,-0.045,-0.05,-0.105,-0.096,-0.296
0.43,-0.018,0.031,0.05,-0.006,-0.035,0.04,0.0,-0.046,-0.047,-0.101,-0.092,-0.294
0.44,-0.003,0.056,0.058,-0.027,-0.031,0.057,-0.002,-0.044,-0.044,-0.095,-0.087,-0.289
0.45,0.006,0.069,0.063,-0.038,-0.029,0.066,-0.006,-0.047,-0.046,-0.09,-0.083,-0.286
0.46,0.03,0.093,0.063,-0.062,-0.017,0.078,-0.007,-0.041,-0.05,-0.085,-0.078,-0.281
0.47,0.051,0.137,0.086,-0.095,-0.018,0.112,-0.054,-0.061,-0.05,-0.077,-0.074,-0.266
0.48,0.071,0.145,0.074,-0.108,-0.001,0.109,-0.098,-0.092,-0.051,-0.078,-0.076,-0.254
0.49,0.101,0.151,0.05,-0.126,0.025,0.1,-0.09,-0.081,-0.049,-0.077,-0.073,-0.241
0.5,0.065,0.103,0.038,-0.084,0.013,0.071,-0.06,-0.077,-0.051,-0.085,-0.077,-0.249
0.51,0.021,0.055,0.034,-0.039,-0.007,0.045,-0.024,-0.068,-0.048,-0.082,-0.072,-0.279
0.52,-0.009,0.012,0.021,-0.001,-0.015,0.016,-0.015,-0.066,-0.052,-0.098,-0.093,-0.321
0.53,-0.03,-0.016,0.014,0.022,-0.021,-0.001,-0.01,-0.062,-0.049,-0.116,-0.118,-0.343
0.54,-0.022,-0.011,0.011,0.016,-0.016,0.0,-0.001,-0.06,-0.051,-0.114,-0.111,-0.345
0.55,-0.017,-0.022,-0.005,0.019,-0.006,-0.013,0.002,-0.057,-0.063,-0.128,-0.12,-0.354
0.56,-0.007,0.002,0.008,0.003,-0.007,0.005,0.013,-0.053,-0.053,-0.117,-0.108,-0.349
0.57,-0.018,-0.028,-0.01,0.023,-0.004,-0.019,0.023,-0.062,-0.067,-0.149,-0.128,-0.373
0.58,-0.113,0.03,0.143,0.041,-0.128,0.086,0.053,-0.098,-0.132,-0.173,-0.169,-0.37
0.59,-0.089,0.034,0.123,0.028,-0.107,0.078,-0.143,-0.439,-0.414,-0.281,-0.174,-0.347
0.6,0.382,0.33,-0.052,-0.356,0.217,0.139,-0.788,-1.02,-0.694,-0.065,0.33,0.038
0.61,0.956,0.699,-0.257,-0.827,0.606,0.221,-1.327,-1.375,-0.738,0.215,0.946,0.535
0.62,0.807,0.23,-0.578,-0.518,0.692,-0.174,-1.066,-1.097,-0.704,-0.297,0.46,0.226
0.63,0.258,-0.104,-0.363,-0.076,0.311,-0.233,-0.434,-0.509,-0.503,-0.566,-0.164,-0.252
0.64,0.055,-0.048,-0.103,-0.003,0.079,-0.075,-0.09,-0.155,-0.189,-0.28,-0.154,-0.339
0.65,-0.006,-0.058,-0.052,0.033,0.023,-0.055,0.065,0.054,0.032,-0.111,-0.117,-0.379
0.66,-0.045,-0.035,0.011,0.04,-0.028,-0.012,0.109,0.118,0.089,-0.054,-0.096,-0.384
0.67,-0.043,-0.053,-0.01,0.048,-0.016,-0.031,0.118,0.131,0.108,-0.047,-0.093,-0.384
0.68,-0.05,-0.04,0.01,0.044,-0.03,-0.014,0.132,0.16,0.135,-0.026,-0.093,-0.388
0.69,-0.057,-0.051,0.006,0.054,-0.031,-0.022,0.126,0.16,0.137,-0.016,-0.086,-0.389
0.7,-0.066,-0.053,0.013,0.059,-0.039,-0.019,0.149,0.185,0.163,0.001,-0.088,-0.391
0.71,-0.046,-0.026,0.02,0.036,-0.033,-0.003,0.155,0.197,0.178,0.017,-0.082,-0.385
0.72,-0.032,-0.013,0.018,0.023,-0.025,0.002,0.155,0.204,0.191,0.023,-0.079,-0.383
0.73,-0.028,0.001,0.029,0.013,-0.029,0.015,0.16,0.217,0.21,0.038,-0.069,-0.378
0.74,-0.035,0.011,0.046,0.012,-0.04,0.028,0.161,0.231,0.225,0.057,-0.065,-0.376
0.75,-0.026,0.029,0.055,-0.001,-0.041,0.042,0.166,0.236,0.235,0.067,-0.057,-0.371
0.76,-0.037,0.037,0.074,0.0,-0.056,0.055,0.162,0.229,0.228,0.072,-0.051,-0.368
0.77,-0.054,0.058,0.112,-0.002,-0.083,0.084,0.154,0.223,0.22,0.07,-0.049,-0.365
0.78,-0.053,0.079,0.132,-0.014,-0.093,0.105,0.146,0.216,0.215,0.056,-0.054,-0.362
0.79,-0.048,0.086,0.134,-0.02,-0.091,0.11,0.138,0.199,0.202,0.046,-0.071,-0.36
0.8,-0.047,0.114,0.161,-0.033,-0.104,0.137,0.131,0.174,0.166,0.033,-0.092,-0.356
0.81,-0.069,0.12,0.189,-0.026,-0.129,0.155,0.119,0.136,0.115,0.002,-0.097,-0.354
0.82,-0.065,0.113,0.178,-0.024,-0.122,0.145,0.097,0.09,0.063,-0.036,-0.104,-0.359
0.83,-0.065,0.113,0.178,-0.024,-0.122,0.145,0.078,0.043,0.016,-0.064,-0.113,-0.362
0.84,-0.062,0.106,0.168,-0.022,-0.115,0.137,0.051,-0.004,-0.033,-0.1,-0.12,-0.369
0.85,-0.023,0.106,0.129,-0.042,-0.077,0.118,0.028,-0.042,-0.075,-0.134,-0.131,-0.381
0.86,-0.021,0.076,0.098,-0.028,-0.059,0.087,0.025,-0.056,-0.09,-0.141,-0.127,-0.379
0.87,-0.037,0.039,0.075,-0.001,-0.056,0.057,0.022,-0.055,-0.087,-0.138,-0.123,-0.38
0.88,-0.014,0.034,0.048,-0.01,-0.032,0.041,0.019,-0.055,-0.081,-0.132,-0.12,-0.386
0.89,-0.003,0.029,0.033,-0.013,-0.018,0.031,0.016,-0.05,-0.076,-0.128,-0.114,-0.396
0.9,-0.002,0.028,0.03,-0.013,-0.017,0.028,0.015,-0.05,-0.07,-0.124,-0.118,-0.414
0.91,-0.001,0.021,0.023,-0.01,-0.012,0.022,0.02,-0.049,-0.065,-0.119,-0.12,-0.415
0.92,0.002,0.021,0.019,-0.012,-0.008,0.02,0.019,-0.044,-0.059,-0.116,-0.12,-0.414
0.93,0.028,0.039,0.011,-0.034,0.008,0.025,0.022,-0.038,-0.054,-0.111,-0.123,-0.415
0.94,0.026,0.04,0.014,-0.033,0.006,0.027,0.025,-0.034,-0.049,-0.109,-0.126,-0.415
0.95,0.008,0.04,0.032,-0.024,-0.012,0.036,0.026,-0.03,-0.043,-0.105,-0.125,-0.413
0.96,0.012,0.04,0.027,-0.026,-0.007,0.033,0.022,-0.025,-0.037,-0.1,-0.13,-0.407
0.97,0.013,0.041,0.028,-0.027,-0.007,0.034,0.02,-0.029,-0.035,-0.098,-0.137,-0.404
0.98,-0.012,0.039,0.05,-0.014,-0.031,0.044,0.019,-0.031,-0.035,-0.092,-0.131,-0.398
0.99,0.014,0.065,0.051,-0.039,-0.019,0.058,0.014,-0.037,-0.035,-0.087,-0.117,-0.395
1.0,0.069,0.115,0.046,-0.092,0.011,0.08,0.016,-0.038,-0.035,-0.084,-0.105,-0.375
1.01,0.032,0.109,0.078,-0.071,-0.023,0.093,-0.018,-0.05,-0.034,-0.077,-0.089,-0.35
1.02,0.064,0.125,0.061,-0.095,0.001,0.093,-0.071,-0.074,-0.036,-0.077,-0.078,-0.35
1.03,0.132,0.147,0.015,-0.14,0.058,0.081,-0.068,-0.067,-0.038,-0.078,-0.073,-0.35
1.04,0.088,0.091,0.003,-0.09,0.042,0.047,-0.036,-0.059,-0.047,-0.083,-0.069,-0.349
1.05,0.038,0.04,0.002,-0.039,0.018,0.021,0.001,-0.051,-0.051,-0.077,-0.082,-0.364
1.06,0.002,-0.008,-0.01,0.004,0.006,-0.009,0.029,-0.044,-0.049,-0.099,-0.12,-0.404
1.07,-0.019,-0.032,-0.013,0.026,-0.002,-0.022,0.033,-0.04,-0.051,-0.113,-0.137,-0.42
1.08,-0.028,-0.046,-0.018,0.037,-0.005,-0.032,0.041,-0.04,-0.049,-0.105,-0.133,-0.417
1.09,-0.037,-0.053,-0.016,0.045,-0.01,-0.035,0.035,-0.04,-0.052,-0.118,-0.148,-0.431
1.1,-0.041,-0.03,0.011,0.035,-0.026,-0.009,0.051,-0.039,-0.055,-0.098,-0.129,-0.422
1.11,-0.057,-0.052,0.005,0.054,-0.031,-0.023,0.038,-0.044,-0.075,-0.133,-0.158,-0.44
1.12,-0.127,0.01,0.137,0.058,-0.132,0.073,0.022,-0.111,-0.166,-0.186,-0.23,-0.448
1.13,-0.087,0.006,0.093,0.041,-0.09,0.049,-0.14,-0.458,-0.448,-0.302,-0.213,-0.408
1.14,0.409,0.338,-0.071,-0.373,0.24,0.133,-0.79,-1.05,-0.733,-0.081,0.319,0.012
1.15,0.966,0.673,-0.293,-0.819,0.63,0.189,-1.316,-1.401,-0.791,0.158,0.879,0.475
1.16,0.769,0.184,-0.585,-0.476,0.677,-0.2,-0.99,-1.062,-0.714,-0.351,0.344,0.12
1.17,0.224,-0.118,-0.342,-0.053,0.283,-0.229,-0.357,-0.454,-0.483,-0.542,-0.229,-0.33
1.18,0.04,-0.072,-0.112,0.016,0.077,-0.092,-0.037,-0.113,-0.17,-0.246,-0.178,-0.401
1.19,0.001,-0.079,-0.079,0.04,0.041,-0.079,0.099,0.071,0.027,-0.12,-0.155,-0.433
1.2,-0.028,-0.052,-0.024,0.041,-0.002,-0.038,0.139,0.121,0.079,-0.062,-0.134,-0.42
1.21,-0.037,-0.067,-0.03,0.052,-0.004,-0.048,0.154,0.142,0.103,-0.05,-0.129,-0.427
1.22,-0.04,-0.051,-0.011,0.046,-0.014,-0.031,0.184,0.158,0.117,-0.034,-0.127,-0.424
1.23,-0.019,-0.054,-0.035,0.036,0.008,-0.044,0.177,0.16,0.125,-0.023,-0.117,-0.424
1.24,-0.026,-0.048,-0.022,0.037,-0.002,-0.035,0.183,0.192,0.148,-0.008,-0.116,-0.425
1.25,-0.03,-0.037,-0.007,0.034,-0.011,-0.022,0.184,0.194,0.156,0.006,-0.106,-0.418
1.26,-0.031,-0.027,0.004,0.029,-0.017,-0.011,0.185,0.214,0.177,0.021,-0.107,-0.422
1.27,-0.034,-0.012,0.022,0.023,-0.028,0.005,0.185,0.226,0.187,0.039,-0.104,-0.416
1.28,-0.035,-0.003,0.032,0.018,-0.034,0.014,0.185,0.229,0.198,0.05,-0.105,-0.415
1.29,-0.04,0.012,0.052,0.014,-0.046,0.031,0.197,0.251,0.219,0.066,-0.105,-0.414
1.3,-0.05,0.035,0.084,0.007,-0.067,0.059,0.191,0.246,0.215,0.063,-0.104,-0.411
1.31,-0.037,0.063,0.1,-0.013,-0.069,0.081,0.178,0.231,0.205,0.056,-0.113,-0.409
1.32,-0.035,0.09,0.126,-0.028,-0.081,0.108,0.168,0.222,0.189,0.049,-0.135,-0.405
1.33,-0.055,0.115,0.17,-0.03,-0.113,0.142,0.155,0.202,0.164,0.043,-0.15,-0.403
1.34,-0.056,0.132,0.188,-0.038,-0.122,0.159,0.144,0.168,0.126,0.028,-0.153,-0.399
1.35,-0.056,0.138,0.194,-0.041,-0.126,0.166,0.129,0.122,0.076,-0.003,-0.163,-0.401
1.36,-0.051,0.132,0.183,-0.041,-0.117,0.157,0.1,0.076,0.022,-0.035,-0.191,-0.406
1.37,-0.054,0.118,0.171,-0.032,-0.112,0.144,0.082,0.035,-0.023,-0.069,-0.197,-0.409
1.38,-0.064,0.088,0.152,-0.013,-0.108,0.119,0.076,-0.005,-0.063,-0.102,-0.199,-0.414
1.39,-0.059,0.059,0.117,0.0,-0.088,0.088,0.069,-0.043,-0.106,-0.14,-0.212,-0.414
1.4,-0.041,0.039,0.08,0.001,-0.061,0.059,0.061,-0.055,-0.12,-0.162,-0.209,-0.416
1.41,-0.017,0.026,0.043,-0.005,-0.03,0.034,0.053,-0.047,-0.112,-0.155,-0.21,-0.413
1.42,-0.003,0.014,0.017,-0.006,-0.01,0.015,0.052,-0.039,-0.106,-0.152,-0.21,-0.421
1.43,-0.019,-0.019,0.0,0.019,-0.009,-0.01,0.056,-0.031,-0.098,-0.147,-0.209,-0.439
1.44,-0.025,-0.044,-0.018,0.035,-0.003,-0.031,0.06,-0.024,-0.078,-0.142,-0.214,-0.44
1.45,-0.006,-0.035,-0.028,0.02,0.011,-0.031,0.065,-0.017,-0.06,-0.139,-0.214,-0.439
1.46,-0.023,-0.055,-0.032,0.039,0.005,-0.043,0.073,-0.012,-0.055,-0.123,-0.224,-0.44
1.47,-0.031,-0.082,-0.051,0.057,0.01,-0.067,0.085,0.002,-0.05,-0.111,-0.221,-0.44
1.48,-0.034,-0.087,-0.053,0.061,0.01,-0.07,0.093,0.013,-0.044,-0.106,-0.215,-0.437
1.49,-0.041,-0.083,-0.042,0.063,0.001,-0.063,0.095,0.01,-0.039,-0.102,-0.235,-0.459
1.5,-0.047,-0.086,-0.039,0.067,-0.004,-0.062,0.09,0.008,-0.034,-0.097,-0.257,-0.473
1.51,-0.059,-0.089,-0.03,0.074,-0.014,-0.059,0.084,0.004,-0.029,-0.093,-0.249,-0.459
1.52,0.006,-0.02,-0.026,0.008,0.016,-0.023,0.078,0.007,-0.026,-0.088,-0.248,-0.45
1.53,0.031,0.002,-0.03,-0.016,0.031,-0.014,0.074,0.028,-0.023,-0.065,-0.272,-0.435
1.54,0.001,-0.029,-0.03,0.014,0.016,-0.029,0.065,0.034,-0.019,-0.053,-0.248,-0.42
1.55,0.054,0.024,-0.03,-0.039,0.042,-0.003,0.069,0.017,-0.014,-0.055,-0.225,-0.405
1.56,0.116,0.087,-0.029,-0.101,0.072,0.028,0.069,0.007,-0.013,-0.059,-0.23,-0.401
1.57,0.114,0.074,-0.039,-0.094,0.076,0.018,0.073,0.013,-0.006,-0.058,-0.216,-0.383
1.58,0.068,-0.002,-0.071,-0.033,0.069,-0.036,0.074,0.018,-0.005,-0.065,-0.233,-0.388
1.59,0.024,-0.044,-0.068,0.01,0.047,-0.056,0.076,0.027,0.0,-0.059,-0.254,-0.43
1.6,-0.024,-0.106,-0.082,0.065,0.029,-0.094,0.099,0.032,0.004,-0.085,-0.273,-0.452
1.61,-0.056,-0.147,-0.091,0.102,0.018,-0.119,0.105,0.039,0.003,-0.112,-0.297,-0.451
1.62,-0.054,-0.161,-0.107,0.108,0.026,-0.133,0.124,0.037,0.003,-0.108,-0.308,-0.441
1.63,-0.081,-0.187,-0.105,0.134,0.012,-0.146,0.127,0.029,-0.005,-0.114,-0.31,-0.438
1.64,-0.061,-0.15,-0.088,0.106,0.014,-0.118,0.123,0.032,0.009,-0.102,-0.301,-0.42
1.65,-0.057,-0.161,-0.105,0.11,0.024,-0.133,0.109,0.014,-0.012,-0.123,-0.311,-0.453
1.66,-0.145,-0.087,0.058,0.116,-0.101,-0.014,0.11,-0.021,-0.081,-0.137,-0.355,-0.464
1.67,-0.089,-0.095,-0.006,0.092,-0.041,-0.05,-0.041,-0.354,-0.324,-0.203,-0.345,-0.391
1.68,0.435,0.263,-0.172,-0.348,0.304,0.045,-0.692,-0.981,-0.571,0.095,0.248,0.057
1.69,1.013,0.626,-0.387,-0.819,0.7,0.119,-1.213,-1.299,-0.636,0.23,0.744,0.506
1.7,0.714,0.135,-0.579,-0.424,0.647,-0.222,-0.891,-0.969,-0.646,-0.319,0.162,0.134
1.71,0.13,-0.119,-0.249,-0.005,0.19,-0.184,-0.291,-0.37,-0.394,-0.398,-0.325,-0.286
1.72,0.022,-0.109,-0.131,0.044,0.077,-0.12,0.031,-0.008,-0.072,-0.174,-0.296,-0.357
1.73,-0.017,-0.192,-0.175,0.105,0.079,-0.183,0.165,0.166,0.089,-0.088,-0.304,-0.411
1.74,-0.043,-0.18,-0.138,0.112,0.048,-0.158,0.196,0.224,0.159,-0.005,-0.264,-0.368
1.75,-0.029,-0.191,-0.162,0.11,0.067,-0.176,0.211,0.236,0.171,-0.016,-0.23,-0.352
1.76,-0.033,-0.175,-0.141,0.104,0.054,-0.158,0.21,0.256,0.198,0.011,-0.21,-0.341
1.77,-0.024,-0.177,-0.153,0.101,0.065,-0.165,0.211,0.271,0.215,0.043,-0.197,-0.321
1.78,-0.032,-0.17,-0.138,0.101,0.053,-0.154,0.23,0.285,0.221,0.057,-0.195,-0.31
1.79,-0.029,-0.165,-0.136,0.097,0.054,-0.151,0.229,0.294,0.24,0.075,-0.184,-0.295
1.8,-0.036,-0.166,-0.131,0.101,0.048,-0.148,0.231,0.315,0.262,0.088,-0.174,-0.285
1.81,-0.038,-0.161,-0.123,0.1,0.043,-0.142,0.228,0.311,0.26,0.084,-0.159,-0.25
1.82,-0.033,-0.161,-0.128,0.097,0.048,-0.144,0.237,0.338,0.288,0.122,-0.159,-0.223
1.83,-0.041,-0.158,-0.117,0.1,0.038,-0.137,0.25,0.358,0.313,0.158,-0.165,-0.218
1.84,-0.038,-0.125,-0.087,0.082,0.024,-0.106,0.242,0.345,0.298,0.146,-0.156,-0.206
1.85,-0.032,-0.094,-0.062,0.064,0.015,-0.078,0.236,0.342,0.291,0.141,-0.117,-0.162
1.86,-0.046,-0.084,-0.038,0.065,-0.004,-0.06,0.23,0.334,0.279,0.134,-0.083,-0.137
1.87,-0.075,-0.055,0.02,0.065,-0.047,-0.017,0.221,0.324,0.243,0.121,-0.135,-0.132
1.88,-0.098,-0.028,0.07,0.063,-0.084,0.021,0.203,0.296,0.219,0.114,-0.127,-0.119
1.89,-0.1,-0.022,0.077,0.061,-0.088,0.027,0.183,0.251,0.187,0.075,-0.07,-0.109
1.9,-0.076,-0.007,0.069,0.041,-0.072,0.031,0.168,0.2,0.13,0.019,-0.111,-0.086
1.91,-0.049,0.009,0.058,0.02,-0.054,0.033,0.149,0.161,0.093,0.006,-0.119,-0.058
1.92,-0.074,-0.019,0.056,0.046,-0.065,0.018,0.12,0.119,0.063,-0.041,-0.106,-0.027
1.93,-0.078,-0.045,0.032,0.061,-0.055,-0.006,0.102,0.088,0.043,-0.067,-0.096,0.001
1.94,-0.051,-0.046,0.005,0.048,-0.027,-0.02,0.096,0.085,0.022,-0.025,-0.063,0.016
1.95,-0.032,-0.041,-0.009,0.037,-0.011,-0.025,0.089,0.085,0.007,-0.011,-0.049,0.025
1.96,-0.036,-0.085,-0.049,0.061,0.006,-0.067,0.081,0.085,0.039,0.015,-0.039,0.035
1.97,-0.031,-0.086,-0.055,0.059,0.013,-0.07,0.073,0.084,0.063,0.032,-0.03,0.049
1.98,0.017,-0.039,-0.056,0.011,0.037,-0.047,0.072,0.087,0.057,0.035,-0.006,0.069
1.99,-0.024,-0.076,-0.052,0.051,0.014,-0.064,0.079,0.096,0.072,0.051,0.018,0.062
2.0,-0.052,-0.115,-0.063,0.083,0.006,-0.088,0.087,0.117,0.09,0.062,0.046,0.065
2.01,-0.03,-0.123,-0.093,0.077,0.032,-0.108,0.091,0.131,0.089,0.055,0.05,0.099
2.02,-0.033,-0.111,-0.078,0.072,0.023,-0.094,0.09,0.123,0.093,0.037,0.055,0.126
2.03,-0.012,-0.077,-0.065,0.045,0.026,-0.071,0.094,0.115,0.096,0.059,0.103,0.155
2.04,-0.022,-0.055,-0.033,0.039,0.006,-0.044,0.095,0.11,0.095,0.083,0.121,0.154
2.05,-0.026,-0.037,-0.011,0.032,-0.007,-0.024,0.095,0.1,0.104,0.113,0.133,0.182
2.06,-0.034,-0.029,0.005,0.032,-0.019,-0.012,0.084,0.103,0.103,0.118,0.12,0.209
2.07,-0.021,0.008,0.029,0.006,-0.025,0.018,0.059,0.105,0.097,0.109,0.143,0.214
2.08,0.04,0.093,0.053,-0.067,-0.007,0.073,0.009,0.093,0.094,0.151,0.21,0.28
2.09,0.074,0.108,0.034,-0.091,0.02,0.071,-0.047,0.089,0.088,0.156,0.231,0.324
2.1,0.103,0.084,-0.019,-0.093,0.06,0.032,-0.07,0.087,0.085,0.145,0.254,0.337
2.11,0.061,0.081,0.02,-0.072,0.02,0.05,-0.056,0.083,0.078,0.138,0.248,0.34
2.12,0.005,0.037,0.032,-0.022,-0.014,0.035,-0.023,0.081,0.07,0.131,0.237,0.316
2.13,0.004,-0.036,-0.04,0.016,0.022,-0.038,0.0,0.079,0.065,0.101,0.212,0.284
2.14,-0.015,-0.072,-0.057,0.044,0.021,-0.065,0.004,0.074,0.055,0.056,0.172,0.259
2.15,-0.022,-0.073,-0.051,0.048,0.015,-0.062,0.015,0.072,0.051,0.052,0.167,0.27
2.16,-0.043,-0.108,-0.066,0.076,0.012,-0.086,0.025,0.064,0.04,0.038,0.189,0.294
2.17,-0.056,-0.112,-0.056,0.084,0.0,-0.084,0.017,0.065,0.038,0.042,0.224,0.306
2.18,-0.063,-0.116,-0.053,0.09,-0.005,-0.084,0.021,0.046,0.027,0.008,0.19,0.29
2.19,-0.126,-0.061,0.065,0.094,-0.095,0.002,0.041,0.016,-0.023,-0.02,0.136,0.295
2.2,-0.149,-0.052,0.097,0.1,-0.123,0.022,-0.015,-0.181,-0.208,-0.073,0.124,0.306
2.21,0.22,0.201,-0.019,-0.21,0.119,0.091,-0.536,-0.775,-0.526,0.089,0.576,0.66
2.22,0.811,0.692,-0.119,-0.751,0.465,0.286,-1.127,-1.272,-0.752,0.253,1.159,1.2
2.23,0.614,0.395,-0.219,-0.504,0.416,0.088,-0.926,-1.058,-0.755,-0.196,0.7,0.936
2.24,0.096,-0.021,-0.117,-0.038,0.107,-0.069,-0.409,-0.472,-0.471,-0.382,0.134,0.449
2.25,0.024,-0.031,-0.055,0.003,0.04,-0.043,-0.125,-0.063,-0.098,-0.093,0.208,0.378
2.26,-0.02,-0.1,-0.08,0.06,0.03,-0.09,0.011,0.136,0.104,0.053,0.24,0.344
2.27,-0.038,-0.101,-0.063,0.07,0.012,-0.082,0.053,0.188,0.159,0.098,0.256,0.351
2.28,-0.041,-0.116,-0.075,0.078,0.017,-0.095,0.083,0.198,0.176,0.104,0.26,0.351
2.29,-0.042,-0.109,-0.067,0.076,0.012,-0.087,0.1,0.208,0.19,0.135,0.251,0.359
2.3,-0.014,-0.098,-0.084,0.056,0.035,-0.09,0.099,0.212,0.204,0.141,0.256,0.368
2.31,-0.016,-0.098,-0.082,0.058,0.033,-0.09,0.102,0.23,0.215,0.146,0.245,0.365
2.32,-0.01,-0.083,-0.073,0.046,0.032,-0.077,0.105,0.236,0.219,0.156,0.249,0.374
2.33,-0.025,-0.094,-0.069,0.06,0.022,-0.081,0.106,0.254,0.231,0.157,0.242,0.372
2.34,-0.03,-0.089,-0.06,0.06,0.015,-0.074,0.102,0.26,0.238,0.166,0.24,0.378
2.35,-0.025,-0.081,-0.056,0.053,0.016,-0.068,0.1,0.265,0.248,0.176,0.229,0.378
2.36,-0.021,-0.067,-0.046,0.045,0.012,-0.056,0.1,0.271,0.256,0.196,0.222,0.383
2.37,-0.016,-0.049,-0.033,0.033,0.009,-0.041,0.1,0.261,0.249,0.206,0.215,0.393
2.38,-0.018,-0.034,-0.017,0.026,0.0,-0.025,0.1,0.254,0.242,0.196,0.203,0.407
2.39,-0.031,-0.005,0.026,0.018,-0.029,0.011,0.1,0.246,0.237,0.169,0.176,0.411
2.4,-0.04,0.024,0.063,0.008,-0.052,0.043,0.089,0.238,0.211,0.141,0.152,0.406
2.41,-0.046,0.026,0.072,0.01,-0.059,0.049,0.075,0.207,0.17,0.109,0.137,0.404
2.42,-0.086,0.022,0.108,0.032,-0.097,0.064,0.062,0.165,0.13,0.081,0.121,0.4
2.43,-0.101,0.02,0.121,0.04,-0.111,0.07,0.044,0.12,0.08,0.047,0.102,0.399
2.44,-0.09,0.016,0.106,0.036,-0.098,0.061,0.023,0.072,0.024,0.004,0.087,0.395
2.45,-0.081,0.015,0.096,0.033,-0.089,0.055,0.004,0.031,-0.026,-0.016,0.078,0.389
2.46,-0.06,0.01,0.07,0.025,-0.066,0.04,-0.004,-0.011,-0.059,-0.03,0.067,0.386
2.47,-0.044,-0.005,0.039,0.024,-0.042,0.017,-0.009,-0.033,-0.065,-0.033,0.057,0.381
2.48,-0.024,-0.011,0.013,0.017,-0.018,0.001,-0.014,-0.029,-0.055,-0.022,0.048,0.376
2.49,-0.03,-0.033,-0.003,0.031,-0.013,-0.018,-0.021,-0.027,-0.045,-0.016,0.04,0.372
2.5,-0.045,-0.057,-0.012,0.051,-0.016,-0.034,-0.024,-0.024,-0.035,-0.007,0.031,0.367
2.51,-0.021,-0.054,-0.034,0.038,0.007,-0.044,-0.021,-0.021,-0.029,-0.001,0.022,0.362
2.52,-0.001,-0.052,-0.051,0.027,0.025,-0.051,-0.018,-0.019,-0.024,0.006,0.013,0.359
2.53,-0.007,-0.049,-0.042,0.028,0.017,-0.045,-0.016,-0.015,-0.02,0.013,0.002,0.353
2.54,-0.01,-0.046,-0.036,0.028,0.014,-0.041,-0.013,-0.015,-0.015,0.019,-0.007,0.35
2.55,-0.015,-0.044,-0.029,0.03,0.007,-0.036,-0.009,-0.013,-0.01,0.026,-0.014,0.355
2.56,-0.017,-0.039,-0.023,0.028,0.003,-0.031,-0.012,-0.01,-0.006,0.03,-0.021,0.354
2.57,-0.01,-0.027,-0.017,0.019,0.003,-0.022,-0.017,-0.009,-0.004,0.031,-0.027,0.355
2.58,-0.014,-0.023,-0.009,0.019,-0.002,-0.016,-0.023,-0.013,-0.005,0.034,-0.035,0.355
2.59,-0.004,-0.006,-0.002,0.005,-0.001,-0.004,-0.026,-0.018,0.0,0.036,-0.04,0.354
2.6,0.009,0.022,0.013,-0.015,-0.002,0.017,-0.032,-0.025,-0.001,0.037,-0.033,0.358
2.61,0.006,0.034,0.029,-0.02,-0.012,0.031,-0.035,-0.03,0.003,0.048,-0.022,0.358
2.62,0.027,0.081,0.054,-0.054,-0.014,0.067,-0.042,-0.035,0.02,0.057,-0.013,0.384
2.63,0.075,0.119,0.044,-0.097,0.015,0.081,-0.089,-0.066,0.01,0.049,-0.001,0.401
2.64,0.109,0.134,0.024,-0.122,0.042,0.079,-0.123,-0.074,-0.008,0.044,0.016,0.388
2.65,0.089,0.104,0.015,-0.097,0.037,0.06,-0.097,-0.061,-0.018,0.039,0.011,0.382
2.66,0.033,0.035,0.002,-0.034,0.016,0.018,-0.051,-0.056,-0.023,0.031,-0.021,0.36
2.67,-0.006,-0.013,-0.007,0.01,0.0,-0.01,-0.014,-0.046,-0.025,0.015,-0.057,0.33
2.68,-0.035,-0.062,-0.027,0.049,-0.004,-0.044,0.0,-0.043,-0.033,-0.009,-0.092,0.312
2.69,-0.038,-0.07,-0.032,0.054,-0.003,-0.051,0.008,-0.037,-0.027,0.0,-0.085,0.309
2.7,-0.032,-0.084,-0.052,0.058,0.01,-0.068,0.009,-0.042,-0.034,-0.018,-0.096,0.294
2.71,-0.016,-0.059,-0.042,0.038,0.013,-0.05,0.02,-0.03,-0.026,-0.005,-0.085,0.292
2.72,-0.006,-0.072,-0.067,0.039,0.031,-0.069,0.02,-0.041,-0.038,-0.025,-0.094,0.276
2.73,-0.08,-0.047,0.033,0.064,-0.057,-0.007,0.036,-0.056,-0.088,-0.074,-0.161,0.284
2.74,-0.139,-0.011,0.129,0.075,-0.134,0.059,-0.009,-0.251,-0.267,-0.149,-0.201,0.278
2.75,0.161,0.133,-0.028,-0.147,0.094,0.052,-0.483,-0.804,-0.581,-0.035,0.138,0.518
2.76,0.814,0.618,-0.196,-0.716,0.505,0.211,-1.13,-1.308,-0.736,0.31,0.898,1.124
2.77,0.844,0.419,-0.425,-0.631,0.635,-0.003,-1.127,-1.268,-0.788,-0.079,0.666,1.031
2.78,0.258,-0.073,-0.332,-0.092,0.295,-0.202,-0.553,-0.7,-0.622,-0.505,-0.116,0.46
2.79,0.027,-0.074,-0.101,0.023,0.064,-0.088,-0.144,-0.213,-0.256,-0.246,-0.164,0.313
2.8,-0.016,-0.116,-0.1,0.066,0.042,-0.108,0.024,0.017,-0.006,-0.057,-0.103,0.276
2.81,-0.036,-0.1,-0.064,0.068,0.014,-0.081,0.099,0.119,0.098,0.015,-0.093,0.267
2.82,-0.003,-0.073,-0.07,0.038,0.034,-0.071,0.097,0.123,0.117,0.046,-0.074,0.274
2.83,-0.018,-0.077,-0.059,0.047,0.021,-0.067,0.111,0.15,0.137,0.06,-0.078,0.262
2.84,-0.015,-0.065,-0.051,0.04,0.018,-0.058,0.118,0.16,0.148,0.066,-0.058,0.268
2.85,-0.02,-0.069,-0.049,0.045,0.015,-0.059,0.123,0.167,0.157,0.068,-0.062,0.262
2.86,-0.022,-0.059,-0.037,0.041,0.007,-0.048,0.128,0.175,0.167,0.079,-0.05,0.272
2.87,-0.025,-0.06,-0.035,0.043,0.005,-0.047,0.131,0.192,0.187,0.091,-0.052,0.268
2.88,-0.041,-0.062,-0.021,0.052,-0.01,-0.041,0.137,0.21,0.206,0.122,-0.046,0.272
2.89,-0.046,-0.064,-0.018,0.055,-0.014,-0.041,0.15,0.219,0.224,0.129,-0.042,0.275
2.9,-0.021,-0.027,-0.006,0.024,-0.007,-0.016,0.156,0.231,0.244,0.135,-0.04,0.275
2.91,-0.013,-0.003,0.01,0.008,-0.011,0.004,0.147,0.242,0.251,0.136,-0.044,0.273
2.92,-0.03,0.007,0.038,0.011,-0.034,0.022,0.145,0.242,0.248,0.125,-0.045,0.267
2.93,-0.048,0.022,0.07,0.012,-0.059,0.046,0.139,0.221,0.229,0.118,-0.045,0.263
2.94,-0.059,0.045,0.104,0.007,-0.082,0.074,0.136,0.205,0.205,0.107,-0.045,0.258
2.95,-0.079,0.055,0.134,0.012,-0.107,0.094,0.124,0.18,0.166,0.077,-0.046,0.253
2.96,-0.086,0.046,0.132,0.02,-0.109,0.089,0.097,0.142,0.121,0.039,-0.066,0.249
2.97,-0.083,0.043,0.126,0.02,-0.105,0.084,0.082,0.093,0.063,0.0,-0.083,0.244
2.98,-0.086,0.036,0.122,0.025,-0.105,0.078,0.064,0.036,-0.001,-0.035,-0.092,0.238
2.99,-0.081,0.032,0.113,0.024,-0.097,0.072,0.042,-0.01,-0.048,-0.067,-0.089,0.234
3.0,-0.091,0.022,0.112,0.034,-0.102,0.067,0.032,-0.043,-0.083,-0.087,-0.084,0.227
3.01,-0.071,0.006,0.078,0.032,-0.075,0.042,0.027,-0.067,-0.096,-0.09,-0.082,0.222
3.02,-0.049,-0.015,0.034,0.032,-0.041,0.009,0.022,-0.072,-0.092,-0.086,-0.077,0.217
3.03,-0.037,-0.014,0.022,0.025,-0.029,0.004,0.016,-0.066,-0.086,-0.081,-0.075,0.209
3.04,-0.031,-0.019,0.013,0.025,-0.022,-0.003,0.011,-0.064,-0.08,-0.077,-0.07,0.201
3.05,-0.045,-0.042,0.003,0.044,-0.024,-0.02,0.013,-0.059,-0.075,-0.073,-0.07,0.193
3.06,-0.032,-0.039,-0.007,0.036,-0.012,-0.023,0.016,-0.056,-0.069,-0.068,-0.07,0.185
3.07,-0.026,-0.04,-0.014,0.034,-0.006,-0.027,0.019,-0.053,-0.064,-0.063,-0.07,0.18
3.08,-0.015,-0.037,-0.022,0.026,0.004,-0.029,0.022,-0.048,-0.059,-0.057,-0.07,0.175
3.09,-0.011,-0.034,-0.023,0.023,0.006,-0.028,0.025,-0.045,-0.052,-0.053,-0.068,0.17
3.1,-0.02,-0.035,-0.015,0.028,-0.002,-0.025,0.024,-0.042,-0.047,-0.046,-0.063,0.167
3.11,-0.019,-0.028,-0.01,0.024,-0.004,-0.019,0.019,-0.037,-0.042,-0.041,-0.058,0.16
3.12,-0.016,-0.017,-0.001,0.016,-0.007,-0.008,0.014,-0.035,-0.039,-0.036,-0.054,0.16
3.13,-0.011,-0.009,0.002,0.009,-0.006,-0.003,0.009,-0.035,-0.04,-0.032,-0.049,0.159
3.14,-0.011,0.009,0.02,0.001,-0.016,0.015,0.006,-0.035,-0.04,-0.029,-0.045,0.162
3.15,0.026,0.051,0.025,-0.039,0.0,0.037,0.0,-0.036,-0.04,-0.025,-0.034,0.173
3.16,0.026,0.061,0.035,-0.044,-0.004,0.048,-0.006,-0.036,-0.041,-0.022,-0.02,0.175
3.17,0.027,0.076,0.049,-0.052,-0.011,0.062,-0.031,-0.063,-0.044,-0.018,-0.007,0.184
3.18,0.091,0.113,0.022,-0.102,0.034,0.067,-0.064,-0.08,-0.046,-0.016,-0.006,0.18
3.19,0.103,0.114,0.011,-0.109,0.046,0.062,-0.055,-0.07,-0.044,-0.013,-0.004,0.175
3.2,0.057,0.056,-0.001,-0.056,0.029,0.027,-0.025,-0.066,-0.047,-0.017,-0.007,0.167
3.21,0.015,0.011,-0.005,-0.013,0.01,0.003,0.006,-0.056,-0.043,-0.025,-0.021,0.137
3.22,-0.022,-0.043,-0.021,0.033,-0.001,-0.032,0.024,-0.057,-0.049,-0.058,-0.047,0.101
3.23,-0.049,-0.07,-0.022,0.06,-0.013,-0.046,0.034,-0.049,-0.053,-0.07,-0.057,0.083
3.24,-0.047,-0.076,-0.029,0.062,-0.009,-0.053,0.035,-0.052,-0.057,-0.078,-0.059,0.072
3.25,-0.072,-0.085,-0.013,0.079,-0.029,-0.049,0.034,-0.043,-0.049,-0.08,-0.066,0.065
3.26,-0.077,-0.081,-0.004,0.079,-0.036,-0.042,0.037,-0.047,-0.049,-0.076,-0.057,0.066
3.27,-0.093,-0.087,0.006,0.09,-0.049,-0.04,0.045,-0.05,-0.069,-0.103,-0.087,0.041
3.28,-0.149,-0.01,0.139,0.079,-0.143,0.064,0.06,-0.139,-0.177,-0.146,-0.119,0.031
3.29,-0.027,0.024,0.051,0.001,-0.039,0.038,-0.236,-0.58,-0.505,-0.226,-0.037,0.111
3.3,0.522,0.429,-0.093,-0.475,0.307,0.168,-0.923,-1.156,-0.745,0.099,0.604,0.62
3.31,0.957,0.589,-0.368,-0.773,0.662,0.111,-1.283,-1.387,-0.796,0.137,0.963,0.935
3.32,0.574,0.03,-0.544,-0.302,0.559,-0.257,-0.859,-0.973,-0.724,-0.459,0.246,0.451
3.33,0.104,-0.131,-0.235,0.014,0.17,-0.183,-0.282,-0.402,-0.442,-0.481,-0.157,0.093
3.34,0.015,-0.087,-0.102,0.036,0.059,-0.094,-0.022,-0.096,-0.122,-0.181,-0.068,0.043
3.35,-0.04,-0.105,-0.065,0.073,0.013,-0.085,0.103,0.087,0.057,-0.064,-0.055,0.012
3.36,-0.041,-0.06,-0.02,0.05,-0.01,-0.04,0.129,0.118,0.093,-0.015,-0.021,0.015
3.37,-0.043,-0.069,-0.026,0.056,-0.008,-0.048,0.141,0.146,0.117,-0.003,-0.027,-0.008
3.38,-0.066,-0.073,-0.007,0.07,-0.029,-0.039,0.163,0.173,0.136,0.023,-0.013,-0.007
3.39,-0.062,-0.077,-0.015,0.069,-0.023,-0.046,0.158,0.17,0.146,0.029,-0.01,-0.015
3.4,-0.06,-0.061,-0.001,0.061,-0.029,-0.031,0.165,0.19,0.163,0.048,-0.003,-0.017
3.41,-0.055,-0.058,-0.003,0.056,-0.026,-0.03,0.164,0.199,0.187,0.064,0.004,-0.019
3.42,-0.054,-0.049,0.006,0.051,-0.03,-0.021,0.167,0.21,0.201,0.068,0.004,-0.027
3.43,-0.056,-0.041,0.015,0.048,-0.035,-0.012,0.173,0.22,0.209,0.087,0.006,-0.022
3.44,-0.058,-0.034,0.025,0.046,-0.041,-0.004,0.175,0.233,0.233,0.114,0.008,-0.032
3.45,-0.054,-0.018,0.036,0.036,-0.045,0.008,0.175,0.241,0.233,0.116,0.011,-0.045
3.46,-0.041,0.003,0.044,0.018,-0.043,0.023,0.175,0.242,0.237,0.113,0.009,-0.04
3.47,-0.033,0.04,0.073,-0.004,-0.053,0.057,0.168,0.233,0.242,0.11,0.027,-0.036
3.48,-0.045,0.058,0.103,-0.007,-0.074,0.08,0.158,0.229,0.222,0.11,0.024,-0.03
3.49,-0.067,0.053,0.12,0.007,-0.094,0.086,0.15,0.211,0.193,0.087,0.005,-0.028
3.5,-0.085,0.052,0.137,0.016,-0.111,0.094,0.141,0.168,0.157,0.047,-0.01,-0.02
3.51,-0.098,0.048,0.146,0.025,-0.122,0.096,0.129,0.126,0.109,0.013,-0.026,-0.026
3.52,-0.09,0.045,0.135,0.022,-0.113,0.09,0.105,0.079,0.056,-0.026,-0.035,-0.046
3.53,-0.082,0.044,0.125,0.019,-0.104,0.084,0.082,0.025,0.001,-0.059,-0.04,-0.046
3.54,-0.084,0.03,0.114,0.027,-0.099,0.072,0.064,-0.021,-0.046,-0.09,-0.04,-0.05
3.55,-0.071,0.017,0.088,0.027,-0.08,0.052,0.051,-0.053,-0.077,-0.114,-0.04,-0.051
3.56,-0.056,0.002,0.058,0.027,-0.057,0.03,0.045,-0.072,-0.097,-0.117,-0.04,-0.065
3.57,-0.047,-0.014,0.033,0.03,-0.04,0.009,0.034,-0.072,-0.096,-0.111,-0.04,-0.074
3.58,-0.052,-0.03,0.022,0.041,-0.037,-0.004,0.026,-0.063,-0.084,-0.104,-0.038,-0.081
3.59,-0.062,-0.044,0.018,0.053,-0.04,-0.013,0.029,-0.055,-0.075,-0.098,-0.034,-0.101
3.6,-0.057,-0.045,0.012,0.051,-0.034,-0.016,0.034,-0.047,-0.065,-0.091,-0.032,-0.099
3.61,-0.051,-0.045,0.006,0.048,-0.028,-0.019,0.037,-0.041,-0.055,-0.085,-0.029,-0.101
3.62,-0.046,-0.045,0.001,0.046,-0.023,-0.022,0.042,-0.035,-0.045,-0.08,-0.026,-0.099
3.63,-0.04,-0.045,-0.005,0.043,-0.017,-0.024,0.044,-0.027,-0.038,-0.076,-0.024,-0.105
3.64,-0.031,-0.044,-0.014,0.038,-0.008,-0.029,0.041,-0.021,-0.034,-0.074,-0.021,-0.122
3.65,-0.017,-0.036,-0.019,0.027,0.001,-0.027,0.036,-0.013,-0.029,-0.07,-0.018,-0.119
3.66,-0.019,-0.029,-0.01,0.024,-0.004,-0.019,0.034,-0.011,-0.025,-0.066,-0.016,-0.116
3.67,-0.023,-0.023,0.0,0.023,-0.012,-0.011,0.029,-0.016,-0.02,-0.062,-0.012,-0.113
3.68,-0.023,-0.013,0.011,0.017,-0.017,-0.001,0.027,-0.017,-0.017,-0.053,-0.011,-0.11
3.69,-0.018,0.009,0.027,0.004,-0.023,0.017,0.021,-0.023,-0.014,-0.042,-0.007,-0.108
3.7,0.011,0.041,0.03,-0.026,-0.01,0.035,0.005,-0.022,-0.011,-0.041,0.002,-0.105
3.71,0.038,0.066,0.028,-0.053,0.005,0.047,-0.011,-0.036,-0.01,-0.038,0.013,-0.1
3.72,0.065,0.084,0.019,-0.075,0.023,0.052,-0.041,-0.062,-0.018,-0.042,0.03,-0.098
3.73,0.087,0.107,0.02,-0.097,0.034,0.063,-0.054,-0.056,-0.023,-0.038,0.05,-0.093
3.74,0.061,0.072,0.011,-0.067,0.025,0.041,-0.034,-0.052,-0.032,-0.041,0.042,-0.088
3.75,-0.001,0.008,0.008,-0.003,-0.004,0.008,0.001,-0.048,-0.037,-0.046,0.009,-0.111
3.76,-0.046,-0.046,0.0,0.046,-0.023,-0.023,0.034,-0.042,-0.044,-0.06,-0.011,-0.153
3.77,-0.047,-0.076,-0.029,0.062,-0.009,-0.052,0.053,-0.042,-0.05,-0.092,-0.029,-0.185
3.78,-0.065,-0.082,-0.018,0.074,-0.023,-0.05,0.057,-0.044,-0.048,-0.091,-0.036,-0.193
3.79,-0.064,-0.111,-0.047,0.088,-0.008,-0.079,0.052,-0.048,-0.056,-0.103,-0.05,-0.204
3.8,-0.045,-0.081,-0.036,0.063,-0.004,-0.058,0.06,-0.046,-0.05,-0.083,-0.026,-0.198
3.81,-0.067,-0.11,-0.043,0.089,-0.012,-0.076,0.048,-0.056,-0.063,-0.112,-0.044,-0.225
3.82,-0.137,-0.056,0.082,0.096,-0.109,0.013,0.08,-0.066,-0.108,-0.131,-0.097,-0.23
3.83,-0.156,-0.029,0.127,0.092,-0.142,0.049,-0.044,-0.342,-0.346,-0.233,-0.115,-0.213
3.84,0.26,0.205,-0.055,-0.232,0.157,0.075,-0.646,-0.932,-0.667,-0.107,0.303,0.094
3.85,0.874,0.642,-0.233,-0.758,0.553,0.204,-1.244,-1.351,-0.767,0.228,0.982,0.638
3.86,0.811,0.257,-0.554,-0.534,0.683,-0.149,-1.088,-1.143,-0.721,-0.194,0.633,0.437
3.87,0.288,-0.141,-0.429,-0.074,0.359,-0.284,-0.458,-0.556,-0.535,-0.546,-0.061,-0.093
3.88,0.05,-0.092,-0.142,0.021,0.096,-0.117,-0.077,-0.172,-0.236,-0.29,-0.104,-0.216
3.89,-0.011,-0.11,-0.1,0.061,0.045,-0.105,0.087,0.05,0.012,-0.097,-0.05,-0.25
3.9,-0.042,-0.08,-0.038,0.061,-0.002,-0.059,0.146,0.132,0.094,-0.033,-0.025,-0.256
3.91,-0.036,-0.087,-0.051,0.062,0.008,-0.069,0.143,0.137,0.113,-0.023,-0.015,-0.268
3.92,-0.047,-0.075,-0.029,0.061,-0.009,-0.052,0.167,0.172,0.141,0.013,-0.015,-0.278
3.93,-0.043,-0.066,-0.023,0.055,-0.01,-0.044,0.166,0.17,0.145,0.016,-0.006,-0.267
3.94,-0.057,-0.073,-0.016,0.065,-0.02,-0.044,0.172,0.195,0.162,0.018,-0.006,-0.27
3.95,-0.071,-0.074,-0.003,0.072,-0.033,-0.038,0.18,0.204,0.175,0.04,0.003,-0.262
3.96,-0.064,-0.066,-0.002,0.065,-0.031,-0.034,0.186,0.216,0.198,0.053,0.004,-0.26
3.97,-0.063,-0.05,0.014,0.056,-0.038,-0.018,0.191,0.235,0.213,0.069,0.012,-0.269
3.98,-0.055,-0.045,0.01,0.049,-0.032,-0.017,0.194,0.239,0.225,0.081,0.016,-0.274
3.99,-0.058,-0.031,0.027,0.044,-0.043,-0.002,0.192,0.253,0.236,0.098,0.022,-0.265
4.0,-0.072,-0.019,0.053,0.045,-0.062,0.017,0.184,0.251,0.241,0.111,0.029,-0.259
4.01,-0.065,0.0,0.065,0.032,-0.065,0.033,0.181,0.243,0.247,0.107,0.027,-0.253
4.02,-0.075,0.016,0.091,0.029,-0.083,0.053,0.174,0.234,0.236,0.098,0.019,-0.245
4.03,-0.094,0.024,0.119,0.035,-0.107,0.071,0.169,0.229,0.218,0.088,0.011,-0.245
4.04,-0.086,0.046,0.132,0.02,-0.109,0.089,0.164,0.207,0.188,0.068,0.003,-0.245
4.05,-0.104,0.055,0.159,0.025,-0.132,0.106,0.149,0.159,0.141,0.038,-0.005,-0.246
4.06,-0.125,0.046,0.171,0.039,-0.148,0.108,0.134,0.114,0.089,0.002,-0.014,-0.256
4.07,-0.114,0.042,0.155,0.036,-0.135,0.098,0.113,0.065,0.037,-0.035,-0.029,-0.254
4.08,-0.102,0.036,0.138,0.032,-0.12,0.087,0.087,0.016,-0.012,-0.07,-0.04,-0.257
4.09,-0.078,0.028,0.106,0.025,-0.093,0.067,0.061,-0.026,-0.057,-0.098,-0.04,-0.269
4.1,-0.063,0.013,0.076,0.024,-0.069,0.044,0.046,-0.051,-0.09,-0.106,-0.04,-0.272
4.11,-0.052,0.0,0.053,0.026,-0.052,0.026,0.041,-0.05,-0.098,-0.105,-0.04,-0.286
4.12,-0.044,-0.01,0.035,0.027,-0.039,0.012,0.036,-0.048,-0.086,-0.104,-0.04,-0.293
4.13,-0.039,-0.02,0.019,0.029,-0.029,0.0,0.034,-0.045,-0.075,-0.1,-0.039,-0.296
4.14,-0.047,-0.038,0.009,0.042,-0.028,-0.014,0.025,-0.041,-0.067,-0.1,-0.035,-0.301
4.15,-0.07,-0.06,0.01,0.065,-0.04,-0.025,0.031,-0.04,-0.061,-0.098,-0.035,-0.317
4.16,-0.075,-0.066,0.01,0.07,-0.042,-0.027,0.045,-0.036,-0.054,-0.093,-0.035,-0.332
4.17,-0.075,-0.065,0.01,0.07,-0.042,-0.027,0.048,-0.035,-0.047,-0.09,-0.035,-0.329
4.18,-0.072,-0.063,0.009,0.067,-0.041,-0.026,0.056,-0.034,-0.041,-0.086,-0.035,-0.33
4.19,-0.073,-0.06,0.013,0.066,-0.043,-0.023,0.055,-0.03,-0.036,-0.083,-0.032,-0.33
4.2,-0.082,-0.061,0.021,0.071,-0.051,-0.02,0.055,-0.029,-0.035,-0.079,-0.026,-0.33
4.21,-0.079,-0.049,0.03,0.064,-0.054,-0.01,0.055,-0.03,-0.035,-0.074,-0.022,-0.325
4.22,-0.062,-0.026,0.036,0.044,-0.048,0.004,0.055,-0.023,-0.035,-0.069,-0.017,-0.316
4.23,-0.047,0.001,0.047,0.023,-0.047,0.024,0.052,-0.027,-0.035,-0.063,-0.012,-0.307
4.24,-0.034,0.022,0.055,0.006,-0.045,0.038,0.038,-0.023,-0.037,-0.059,-0.008,-0.299
4.25,0.003,0.048,0.045,-0.026,-0.021,0.046,0.012,-0.027,-0.04,-0.051,0.006,-0.285
4.26,0.054,0.082,0.028,-0.068,0.013,0.055,-0.029,-0.065,-0.04,-0.053,0.025,-0.272
4.27,0.091,0.109,0.019,-0.1,0.036,0.064,-0.046,-0.068,-0.042,-0.055,0.028,-0.26
4.28,0.077,0.083,0.006,-0.08,0.035,0.044,-0.032,-0.058,-0.046,-0.058,0.018,-0.258
4.29,0.027,0.021,-0.006,-0.024,0.017,0.007,0.004,-0.056,-0.045,-0.061,0.002,-0.289
4.3,-0.026,-0.04,-0.014,0.033,-0.006,-0.027,0.046,-0.046,-0.048,-0.067,-0.014,-0.323
4.31,-0.049,-0.087,-0.038,0.068,-0.006,-0.062,0.049,-0.042,-0.052,-0.098,-0.041,-0.345
4.32,-0.037,-0.072,-0.035,0.055,-0.001,-0.053,0.052,-0.033,-0.05,-0.094,-0.042,-0.348
4.33,-0.042,-0.091,-0.049,0.066,0.004,-0.07,0.054,-0.03,-0.058,-0.106,-0.05,-0.361
4.34,-0.05,-0.075,-0.025,0.063,-0.012,-0.05,0.056,-0.022,-0.053,-0.094,-0.049,-0.357
4.35,-0.059,-0.096,-0.037,0.078,-0.011,-0.066,0.059,-0.028,-0.064,-0.102,-0.051,-0.368
4.36,-0.127,-0.067,0.06,0.097,-0.093,-0.003,0.072,-0.047,-0.105,-0.134,-0.1,-0.376
4.37,-0.19,-0.029,0.161,0.109,-0.176,0.066,0.013,-0.253,-0.301,-0.231,-0.154,-0.376
4.38,0.124,0.099,-0.024,-0.111,0.074,0.037,-0.485,-0.799,-0.642,-0.21,0.124,-0.159
4.39,0.785,0.591,-0.194,-0.688,0.489,0.198,-1.182,-1.323,-0.791,0.164,0.856,0.43
4.4,0.894,0.404,-0.49,-0.649,0.692,-0.043,-1.191,-1.249,-0.761,-0.072,0.761,0.407
4.41,0.359,-0.114,-0.474,-0.122,0.417,-0.294,-0.579,-0.661,-0.59,-0.539,0.006,-0.159
4.42,0.041,-0.113,-0.154,0.036,0.098,-0.133,-0.121,-0.204,-0.288,-0.346,-0.124,-0.333
4.43,-0.01,-0.1,-0.09,0.056,0.04,-0.095,0.065,0.032,-0.03,-0.13,-0.056,-0.359
4.44,-0.061,-0.1,-0.038,0.081,-0.011,-0.069,0.136,0.138,0.08,-0.061,-0.051,-0.375
4.45,-0.072,-0.098,-0.027,0.085,-0.022,-0.062,0.14,0.146,0.096,-0.028,-0.029,-0.366
4.46,-0.071,-0.089,-0.018,0.081,-0.026,-0.054,0.157,0.172,0.121,-0.01,-0.035,-0.374
4.47,-0.067,-0.074,-0.008,0.071,-0.029,-0.041,0.168,0.187,0.138,0.008,-0.018,-0.367
4.48,-0.062,-0.072,-0.011,0.067,-0.025,-0.041,0.17,0.209,0.156,0.015,-0.019,-0.372
4.49,-0.062,-0.06,0.002,0.062,-0.031,-0.029,0.17,0.212,0.165,0.03,-0.008,-0.364
4.5,-0.061,-0.062,-0.001,0.061,-0.03,-0.031,0.178,0.22,0.177,0.035,-0.006,-0.36
4.51,-0.059,-0.05,0.009,0.054,-0.034,-0.021,0.181,0.24,0.203,0.06,-0.001,-0.355
4.52,-0.063,-0.049,0.013,0.056,-0.038,-0.018,0.179,0.246,0.215,0.073,0.002,-0.349
4.53,-0.064,-0.04,0.025,0.052,-0.044,-0.007,0.181,0.256,0.222,0.083,0.005,-0.343
4.54,-0.068,-0.025,0.043,0.046,-0.055,0.009,0.179,0.258,0.237,0.094,0.011,-0.339
4.55,-0.06,0.005,0.065,0.027,-0.062,0.035,0.18,0.251,0.242,0.084,0.007,-0.34
4.56,-0.049,0.041,0.09,0.004,-0.07,0.065,0.174,0.241,0.229,0.077,-0.001,-0.34
4.57,-0.073,0.047,0.12,0.013,-0.097,0.083,0.168,0.234,0.213,0.067,-0.009,-0.34
4.58,-0.087,0.05,0.137,0.019,-0.112,0.093,0.161,0.212,0.174,0.059,-0.017,-0.34
4.59,-0.103,0.045,0.147,0.029,-0.125,0.096,0.155,0.168,0.125,0.041,-0.025,-0.34
4.6,-0.122,0.036,0.158,0.042,-0.14,0.097,0.144,0.126,0.076,0.008,-0.031,-0.336
4.61,-0.122,0.032,0.154,0.045,-0.138,0.093,0.116,0.081,0.029,-0.022,-0.047,-0.335
4.62,-0.12,0.022,0.142,0.049,-0.131,0.082,0.092,0.035,-0.012,-0.062,-0.066,-0.334
4.63,-0.101,0.021,0.121,0.04,-0.111,0.071,0.078,-0.005,-0.064,-0.092,-0.065,-0.332
4.64,-0.085,0.004,0.089,0.04,-0.087,0.046,0.071,-0.041,-0.088,-0.115,-0.066,-0.327
4.65,-0.054,0.002,0.056,0.026,-0.055,0.028,0.064,-0.05,-0.099,-0.125,-0.071,-0.339
4.66,-0.031,0.002,0.033,0.015,-0.032,0.017,0.058,-0.042,-0.109,-0.118,-0.069,-0.365
4.67,-0.042,-0.026,0.016,0.034,-0.029,-0.005,0.05,-0.036,-0.088,-0.114,-0.073,-0.365
4.68,-0.046,-0.039,0.007,0.043,-0.027,-0.016,0.045,-0.029,-0.077,-0.107,-0.075,-0.364
4.69,-0.056,-0.046,0.01,0.051,-0.033,-0.017,0.049,-0.023,-0.068,-0.102,-0.075,-0.365
4.7,-0.055,-0.045,0.01,0.05,-0.032,-0.017,0.05,-0.017,-0.057,-0.098,-0.075,-0.364
4.71,-0.055,-0.045,0.01,0.05,-0.032,-0.017,0.051,-0.015,-0.05,-0.091,-0.075,-0.363
4.72,-0.055,-0.045,0.01,0.05,-0.032,-0.017,0.056,-0.015,-0.05,-0.087,-0.075,-0.358
4.73,-0.055,-0.045,0.01,0.05,-0.032,-0.017,0.055,-0.011,-0.049,-0.081,-0.076,-0.361
4.74,-0.057,-0.041,0.016,0.049,-0.036,-0.013,0.054,-0.009,-0.044,-0.075,-0.075,-0.358
4.75,-0.056,-0.034,0.022,0.045,-0.039,-0.005,0.047,-0.01,-0.045,-0.07,-0.075,-0.362
4.76,-0.055,-0.028,0.027,0.041,-0.04,-0.001,0.043,-0.016,-0.042,-0.065,-0.083,-0.372
4.77,-0.039,-0.005,0.034,0.022,-0.037,0.014,0.039,-0.022,-0.04,-0.059,-0.078,-0.361
4.78,-0.01,0.022,0.032,-0.006,-0.021,0.026,0.032,-0.03,-0.037,-0.056,-0.068,-0.35
4.79,0.025,0.049,0.024,-0.038,0.0,0.037,0.032,-0.033,-0.034,-0.051,-0.056,-0.333
4.8,0.058,0.075,0.018,-0.067,0.02,0.046,-0.015,-0.053,-0.031,-0.046,-0.04,-0.317
4.81,0.083,0.093,0.009,-0.088,0.037,0.051,-0.056,-0.066,-0.03,-0.048,-0.032,-0.297
4.82,0.07,0.074,0.004,-0.072,0.033,0.039,-0.037,-0.049,-0.046,-0.049,-0.019,-0.289
4.83,0.029,0.022,-0.007,-0.025,0.018,0.007,-0.001,-0.039,-0.058,-0.052,-0.022,-0.319
4.84,-0.017,-0.025,-0.008,0.021,-0.004,-0.016,0.037,-0.03,-0.053,-0.054,-0.049,-0.344
4.85,-0.057,-0.082,-0.025,0.069,-0.016,-0.053,0.05,-0.025,-0.057,-0.091,-0.084,-0.379
4.86,-0.056,-0.075,-0.02,0.066,-0.018,-0.047,0.056,-0.016,-0.053,-0.093,-0.086,-0.377
4.87,-0.042,-0.082,-0.04,0.062,-0.001,-0.061,0.054,-0.012,-0.057,-0.096,-0.097,-0.382
4.88,-0.036,-0.072,-0.036,0.054,0.001,-0.054,0.06,-0.004,-0.058,-0.096,-0.102,-0.379
4.89,-0.027,-0.07,-0.043,0.049,0.008,-0.057,0.059,-0.012,-0.064,-0.089,-0.092,-0.377
4.9,-0.082,-0.078,0.005,0.08,-0.044,-0.036,0.064,-0.037,-0.098,-0.128,-0.136,-0.408
4.91,-0.188,-0.037,0.151,0.112,-0.169,0.057,0.071,-0.168,-0.238,-0.2,-0.204,-0.397
4.92,-0.023,-0.012,0.011,0.017,-0.017,0.0,-0.287,-0.633,-0.575,-0.274,-0.091,-0.293
4.93,0.623,0.46,-0.164,-0.541,0.393,0.148,-1.018,-1.237,-0.81,0.033,0.607,0.248
4.94,0.936,0.508,-0.428,-0.722,0.682,0.04,-1.262,-1.364,-0.827,-0.006,0.806,0.45
4.95,0.481,-0.046,-0.528,-0.217,0.505,-0.286,-0.718,-0.825,-0.67,-0.499,0.068,-0.088
4.96,0.087,-0.132,-0.219,0.023,0.154,-0.175,-0.182,-0.274,-0.352,-0.401,-0.201,-0.361
4.97,-0.026,-0.123,-0.097,0.074,0.036,-0.11,0.051,0.002,-0.067,-0.142,-0.12,-0.377
4.98,-0.071,-0.121,-0.049,0.097,-0.011,-0.085,0.145,0.131,0.066,-0.056,-0.113,-0.401
4.99,-0.067,-0.097,-0.03,0.083,-0.018,-0.064,0.14,0.141,0.084,-0.017,-0.084,-0.394
