0.004,0.138,0.134,-0.072,-0.065,0.136,-0.123,0.088,0.143,0.192,0.083,0.088
-0.02,0.116,0.136,-0.048,-0.078,0.125,-0.102,0.066,0.113,0.156,0.057,0.063
-0.053,0.092,0.145,-0.02,-0.1,0.118,-0.082,0.043,0.069,0.107,0.013,0.022
-0.056,0.089,0.145,-0.017,-0.101,0.117,-0.078,0.046,0.054,0.088,-0.006,0.002
-0.062,0.083,0.145,-0.011,-0.104,0.114,-0.07,0.045,0.056,0.084,-0.008,-0.001
-0.065,0.076,0.142,-0.006,-0.104,0.108,-0.064,0.044,0.053,0.079,-0.012,0.0
-0.061,0.078,0.139,-0.008,-0.101,0.108,-0.058,0.046,0.05,0.073,-0.016,0.0
-0.061,0.08,0.141,-0.009,-0.101,0.11,-0.052,0.041,0.05,0.067,-0.019,0.0
-0.064,0.081,0.145,-0.009,-0.105,0.113,-0.05,0.041,0.048,0.062,-0.024,0.0
-0.061,0.092,0.154,-0.016,-0.108,0.123,-0.05,0.039,0.044,0.059,-0.027,0.0
-0.057,0.096,0.153,-0.02,-0.105,0.124,-0.05,0.043,0.042,0.06,-0.025,-0.003
-0.055,0.094,0.15,-0.019,-0.103,0.121,-0.049,0.059,0.039,0.056,-0.025,-0.006
-0.055,0.095,0.15,-0.02,-0.103,0.122,-0.051,0.055,0.036,0.055,-0.022,-0.001
-0.052,0.095,0.146,-0.022,-0.1,0.121,-0.054,0.047,0.034,0.055,-0.019,0.001
-0.05,0.095,0.144,-0.023,-0.098,0.12,-0.058,0.041,0.028,0.049,-0.021,0.005
-0.055,0.09,0.145,-0.018,-0.1,0.117,-0.06,0.034,0.02,0.044,-0.024,0.01
-0.05,0.09,0.14,-0.02,-0.095,0.115,-0.061,0.029,0.012,0.039,-0.027,0.007
-0.051,0.089,0.14,-0.019,-0.095,0.114,-0.065,0.02,0.004,0.033,-0.03,0.001
-0.056,0.084,0.141,-0.014,-0.099,0.112,-0.064,0.012,-0.004,0.027,-0.032,-0.004
-0.053,0.086,0.139,-0.016,-0.096,0.112,-0.06,0.003,-0.018,0.027,-0.037,-0.009
-0.06,0.083,0.142,-0.011,-0.101,0.112,-0.056,-0.005,-0.032,0.03,-0.04,-0.016
-0.063,0.072,0.135,-0.005,-0.099,0.103,-0.054,-0.015,-0.03,0.03,-0.033,-0.019
-0.073,0.064,0.137,0.005,-0.105,0.1,-0.049,-0.023,-0.022,0.03,-0.026,-0.01
-0.073,0.019,0.092,0.027,-0.082,0.056,-0.046,-0.013,-0.016,0.03,-0.019,0.006
-0.05,-0.032,0.019,0.041,-0.034,-0.006,-0.042,0.0,-0.009,0.03,-0.012,0.018
-0.058,-0.067,-0.009,0.063,-0.024,-0.038,-0.032,0.011,-0.003,0.037,-0.004,0.031
-0.058,-0.104,-0.045,0.081,-0.006,-0.074,-0.021,0.026,0.003,0.047,0.004,0.043
-0.042,-0.105,-0.062,0.074,0.01,-0.083,-0.008,0.03,0.005,0.051,0.012,0.05
-0.048,-0.121,-0.072,0.085,0.012,-0.096,-0.002,0.032,0.005,0.053,0.019,0.052
-0.067,-0.17,-0.103,0.119,0.018,-0.136,-0.001,0.036,0.008,0.056,0.025,0.054
-0.062,-0.189,-0.127,0.125,0.033,-0.157,0.0,0.031,0.011,0.065,0.037,0.064
-0.049,-0.183,-0.134,0.117,0.042,-0.158,0.003,0.027,0.009,0.066,0.039,0.068
-0.056,-0.175,-0.119,0.116,0.032,-0.147,0.006,0.024,0.005,0.057,0.032,0.059
-0.053,-0.17,-0.117,0.112,0.032,-0.143,0.002,0.021,0.0,0.051,0.028,0.052
-0.067,-0.159,-0.092,0.113,0.013,-0.125,0.0,0.016,-0.004,0.044,0.021,0.045
-0.067,-0.134,-0.067,0.101,0.0,-0.1,0.0,0.016,-0.008,0.037,0.016,0.036
-0.044,-0.129,-0.085,0.087,0.021,-0.106,-0.004,0.02,-0.014,0.037,0.019,0.042
-0.049,-0.139,-0.09,0.094,0.021,-0.115,-0.005,0.02,-0.013,0.04,0.031,0.047
-0.045,-0.138,-0.093,0.092,0.024,-0.115,-0.005,0.02,-0.01,0.035,0.035,0.044
-0.053,-0.149,-0.096,0.102,0.021,-0.122,-0.01,0.02,-0.01,0.035,0.035,0.046
-0.061,-0.157,-0.096,0.109,0.018,-0.126,-0.01,0.02,-0.01,0.035,0.035,0.045
-0.039,-0.152,-0.113,0.095,0.038,-0.132,-0.011,0.016,-0.009,0.035,0.031,0.045
-0.052,-0.151,-0.099,0.101,0.024,-0.125,-0.016,0.009,-0.011,0.036,0.025,0.044
-0.068,-0.137,-0.068,0.103,0.0,-0.102,-0.014,0.003,-0.017,0.032,0.02,0.04
-0.058,-0.103,-0.046,0.081,-0.006,-0.074,-0.018,-0.004,-0.028,0.023,0.014,0.04
-0.05,-0.083,-0.033,0.067,-0.008,-0.058,-0.032,-0.011,-0.038,0.012,0.009,0.04
-0.034,-0.075,-0.041,0.055,0.004,-0.058,-0.034,-0.016,-0.039,0.002,0.004,0.041
-0.042,-0.021,0.022,0.031,-0.032,0.001,-0.041,-0.032,-0.056,-0.006,-0.002,0.033
-0.055,0.028,0.083,0.014,-0.069,0.055,-0.051,-0.044,-0.067,-0.012,-0.009,0.018
-0.047,0.032,0.079,0.008,-0.063,0.055,-0.052,-0.046,-0.064,-0.019,-0.016,0.005
-0.048,0.036,0.085,0.006,-0.067,0.06,-0.055,-0.049,-0.064,-0.026,-0.022,-0.003
-0.051,0.035,0.087,0.007,-0.069,0.061,-0.058,-0.052,-0.073,-0.033,-0.029,-0.009
-0.055,0.052,0.107,0.001,-0.081,0.079,-0.061,-0.054,-0.087,-0.037,-0.027,-0.016
-0.043,0.073,0.116,-0.016,-0.08,0.095,-0.056,-0.057,-0.084,-0.042,-0.025,-0.023
-0.052,0.075,0.128,-0.012,-0.09,0.101,-0.055,-0.059,-0.09,-0.044,-0.025,-0.029
-0.067,0.075,0.142,-0.004,-0.105,0.108,-0.055,-0.063,-0.098,-0.041,-0.02,-0.027
-0.059,0.075,0.134,-0.008,-0.097,0.104,-0.055,-0.065,-0.095,-0.038,-0.021,-0.022
-0.057,0.076,0.132,-0.01,-0.095,0.104,-0.055,-0.069,-0.093,-0.036,-0.019,-0.019
-0.052,0.074,0.126,-0.012,-0.089,0.1,-0.057,-0.07,-0.09,-0.032,-0.015,-0.016
-0.054,0.071,0.125,-0.009,-0.089,0.097,-0.059,-0.067,-0.087,-0.029,-0.015,-0.011
-0.057,0.068,0.126,-0.006,-0.091,0.097,-0.055,-0.062,-0.085,-0.032,-0.015,-0.011
-0.059,0.065,0.124,-0.004,-0.092,0.095,-0.055,-0.059,-0.085,-0.036,-0.015,-0.015
-0.063,0.063,0.126,-0.001,-0.095,0.094,-0.053,-0.056,-0.085,-0.035,-0.014,-0.015
-0.065,0.059,0.124,0.003,-0.095,0.091,-0.049,-0.051,-0.085,-0.035,-0.026,-0.015
-0.063,0.063,0.126,-0.001,-0.095,0.094,-0.05,-0.051,-0.085,-0.035,-0.032,-0.015
-0.064,0.065,0.129,0.0,-0.097,0.097,-0.05,-0.055,-0.084,-0.035,-0.027,-0.015
-0.065,0.065,0.13,0.0,-0.098,0.097,-0.05,-0.055,-0.087,-0.036,-0.025,-0.019
-0.064,0.065,0.13,-0.001,-0.097,0.097,-0.05,-0.059,-0.09,-0.034,-0.021,-0.021
-0.058,0.072,0.13,-0.007,-0.094,0.101,-0.05,-0.06,-0.09,-0.038,-0.02,-0.024
-0.052,0.077,0.13,-0.012,-0.092,0.103,-0.049,-0.056,-0.093,-0.042,-0.016,-0.026
-0.06,0.071,0.131,-0.005,-0.096,0.101,-0.051,-0.051,-0.098,-0.036,-0.007,-0.03
-0.048,0.099,0.147,-0.026,-0.098,0.123,-0.058,-0.047,-0.099,-0.031,-0.001,-0.028
-0.049,0.069,0.118,-0.01,-0.084,0.093,-0.05,-0.044,-0.083,-0.025,0.006,-0.003
-0.057,-0.002,0.056,0.029,-0.057,0.027,-0.04,-0.039,-0.071,-0.02,0.015,0.021
-0.052,-0.018,0.034,0.035,-0.043,0.008,-0.034,-0.034,-0.068,-0.017,0.023,0.027
-0.058,-0.042,0.016,0.05,-0.037,-0.013,-0.027,-0.03,-0.064,-0.013,0.032,0.035
-0.059,-0.047,0.012,0.052,-0.035,-0.017,-0.021,-0.025,-0.061,-0.01,0.039,0.038
-0.07,-0.047,0.023,0.059,-0.047,-0.012,-0.014,-0.022,-0.056,-0.005,0.042,0.035
-0.062,-0.055,0.007,0.058,-0.034,-0.024,-0.009,-0.018,-0.054,-0.003,0.045,0.035
-0.048,-0.053,-0.006,0.05,-0.02,-0.029,-0.004,-0.014,-0.047,0.005,0.049,0.033
-0.043,-0.082,-0.039,0.062,-0.002,-0.06,0.002,-0.01,-0.042,0.008,0.049,0.029
-0.017,-0.057,-0.04,0.037,0.012,-0.049,0.006,-0.005,-0.035,0.005,0.05,0.03
-0.011,-0.039,-0.028,0.026,0.008,-0.033,0.01,-0.003,-0.031,0.005,0.05,0.034
-0.005,-0.017,-0.012,0.011,0.004,-0.014,0.015,0.019,-0.025,0.003,0.05,0.037
-0.011,0.098,0.109,-0.044,-0.06,0.103,0.012,0.018,-0.023,0.0,0.05,0.023
-0.005,0.152,0.157,-0.074,-0.081,0.154,0.0,-0.017,-0.041,0.0,0.05,0.02
0.042,0.201,0.159,-0.122,-0.058,0.179,-0.038,-0.001,-0.029,0.027,0.064,0.05
0.049,0.23,0.181,-0.14,-0.066,0.205,-0.111,-0.003,-0.025,0.032,0.06,0.05
0.027,0.196,0.169,-0.112,-0.071,0.182,-0.136,-0.044,-0.055,-0.013,0.04,0.034
0.007,0.178,0.171,-0.093,-0.082,0.175,-0.114,-0.05,-0.079,-0.032,0.025,0.021
-0.028,0.14,0.168,-0.056,-0.098,0.154,-0.103,-0.05,-0.1,-0.063,-0.013,-0.015
-0.062,0.137,0.2,-0.038,-0.131,0.168,-0.103,-0.058,-0.097,-0.053,-0.011,-0.028
-0.074,0.118,0.192,-0.023,-0.133,0.155,-0.09,-0.085,-0.121,-0.085,-0.03,-0.048
-0.07,0.126,0.196,-0.029,-0.133,0.161,-0.091,-0.086,-0.129,-0.092,-0.031,-0.038
-0.091,0.11,0.2,-0.01,-0.146,0.155,-0.078,-0.099,-0.141,-0.082,-0.034,-0.041
-0.091,0.109,0.2,-0.01,-0.146,0.154,-0.074,-0.081,-0.131,-0.111,-0.043,-0.042
-0.078,0.108,0.186,-0.015,-0.133,0.147,-0.071,-0.086,-0.132,-0.052,-0.019,-0.033
-0.101,0.065,0.166,0.018,-0.134,0.116,-0.001,0.022,-0.045,-0.127,-0.085,-0.087
-0.053,0.112,0.165,-0.03,-0.109,0.138,0.12,0.462,0.351,0.114,-0.019,-0.095
0.144,0.303,0.159,-0.224,-0.008,0.231,-0.078,-0.267,-0.119,0.299,0.248,0.132
0.526,1.203,0.677,-0.865,-0.076,0.94,-1.113,-2.246,-1.229,1.478,1.406,1.084
0.367,1.247,0.88,-0.807,-0.257,1.063,-1.595,-2.932,-1.922,1.86,1.608,1.266
-0.265,0.202,0.467,0.031,-0.366,0.334,-1.125,-2.202,-2.163,-0.475,-0.005,0.182
-0.25,0.107,0.357,0.072,-0.304,0.232,-0.732,-1.139,-1.229,-0.8,-0.321,-0.114
-0.056,0.202,0.258,-0.073,-0.157,0.23,-0.254,-0.256,-0.284,-0.072,-0.026,-0.006
-0.08,0.147,0.226,-0.034,-0.153,0.186,-0.058,-0.016,-0.107,-0.17,-0.074,-0.044
-0.045,0.173,0.218,-0.064,-0.132,0.195,-0.042,0.051,0.021,-0.013,0.011,-0.018
-0.05,0.139,0.189,-0.045,-0.12,0.164,-0.007,0.098,0.032,-0.096,-0.035,-0.046
-0.075,0.167,0.241,-0.046,-0.158,0.204,-0.035,0.107,0.071,-0.031,0.004,-0.019
-0.084,0.151,0.235,-0.033,-0.16,0.193,-0.006,0.139,0.094,-0.046,-0.009,-0.028
-0.071,0.173,0.245,-0.051,-0.159,0.209,-0.016,0.145,0.101,-0.033,0.003,-0.014
-0.046,0.188,0.234,-0.071,-0.141,0.211,-0.016,0.161,0.131,-0.012,0.011,-0.011
-0.033,0.218,0.251,-0.092,-0.142,0.234,-0.032,0.143,0.133,-0.02,0.011,-0.007
-0.018,0.231,0.249,-0.107,-0.133,0.24,-0.03,0.173,0.158,0.032,0.041,0.006
-0.003,0.228,0.231,-0.113,-0.117,0.229,-0.029,0.198,0.183,0.037,0.048,0.01
-0.009,0.231,0.24,-0.111,-0.124,0.235,-0.041,0.205,0.213,0.064,0.068,0.024
-0.002,0.215,0.217,-0.107,-0.109,0.216,-0.053,0.231,0.24,0.085,0.085,0.034
0.017,0.233,0.216,-0.126,-0.099,0.224,-0.059,0.26,0.278,0.123,0.106,0.059
0.048,0.259,0.21,-0.154,-0.081,0.234,-0.062,0.296,0.307,0.147,0.122,0.065
0.074,0.285,0.211,-0.179,-0.069,0.248,-0.086,0.32,0.341,0.166,0.127,0.07
0.108,0.31,0.202,-0.209,-0.048,0.256,-0.096,0.361,0.391,0.199,0.158,0.099
0.138,0.349,0.211,-0.244,-0.037,0.28,-0.122,0.417,0.437,0.226,0.189,0.117
0.166,0.404,0.237,-0.285,-0.036,0.32,-0.16,0.466,0.498,0.268,0.207,0.129
0.22,0.42,0.2,-0.32,0.01,0.31,-0.177,0.528,0.564,0.337,0.257,0.163
0.253,0.467,0.214,-0.36,0.02,0.34,-0.212,0.575,0.616,0.39,0.307,0.203
0.294,0.534,0.241,-0.415,0.026,0.387,-0.262,0.595,0.651,0.434,0.344,0.236
0.328,0.559,0.231,-0.444,0.049,0.395,-0.292,0.611,0.672,0.493,0.399,0.275
0.352,0.589,0.237,-0.471,0.057,0.412,-0.327,0.593,0.659,0.506,0.424,0.3
0.383,0.622,0.239,-0.503,0.072,0.43,-0.36,0.533,0.617,0.496,0.424,0.3
0.371,0.631,0.26,-0.501,0.055,0.445,-0.371,0.438,0.54,0.489,0.419,0.299
0.313,0.611,0.299,-0.462,0.007,0.455,-0.363,0.312,0.423,0.43,0.375,0.273
0.239,0.545,0.306,-0.393,-0.033,0.425,-0.315,0.201,0.304,0.328,0.296,0.208
0.157,0.463,0.307,-0.31,-0.075,0.385,-0.258,0.109,0.175,0.203,0.189,0.125
0.099,0.409,0.31,-0.254,-0.106,0.359,-0.202,0.027,0.067,0.093,0.092,0.041
0.033,0.351,0.318,-0.192,-0.143,0.334,-0.144,-0.037,-0.011,0.004,0.016,-0.022
-0.03,0.292,0.322,-0.131,-0.176,0.307,-0.106,-0.065,-0.067,-0.067,-0.043,-0.073
-0.027,0.265,0.291,-0.119,-0.159,0.278,-0.081,-0.067,-0.09,-0.105,-0.072,-0.103
-0.025,0.265,0.289,-0.12,-0.158,0.277,-0.075,-0.079,-0.106,-0.13,-0.093,-0.116
-0.012,0.268,0.281,-0.129,-0.147,0.274,-0.075,-0.081,-0.115,-0.142,-0.102,-0.128
-0.014,0.27,0.284,-0.128,-0.149,0.277,-0.075,-0.079,-0.12,-0.159,-0.108,-0.137
-0.036,0.275,0.312,-0.12,-0.174,0.293,-0.075,-0.077,-0.12,-0.166,-0.122,-0.147
-0.044,0.273,0.317,-0.115,-0.181,0.295,-0.075,-0.074,-0.12,-0.164,-0.126,-0.146
-0.05,0.291,0.341,-0.121,-0.196,0.316,-0.074,-0.077,-0.121,-0.166,-0.12,-0.145
-0.038,0.306,0.344,-0.134,-0.191,0.324,-0.064,-0.08,-0.12,-0.164,-0.115,-0.144
-0.055,0.316,0.371,-0.131,-0.213,0.343,-0.074,-0.081,-0.122,-0.171,-0.112,-0.14
-0.054,0.341,0.395,-0.144,-0.225,0.368,-0.081,-0.08,-0.126,-0.176,-0.105,-0.139
-0.039,0.34,0.379,-0.151,-0.209,0.359,-0.08,-0.081,-0.13,-0.175,-0.109,-0.144
-0.03,0.352,0.381,-0.162,-0.206,0.366,-0.091,-0.083,-0.134,-0.175,-0.123,-0.155
-0.003,0.365,0.368,-0.182,-0.186,0.367,-0.09,-0.092,-0.141,-0.175,-0.126,-0.155
-0.011,0.365,0.376,-0.177,-0.194,0.37,-0.09,-0.099,-0.147,-0.174,-0.124,-0.155
-0.04,0.359,0.399,-0.16,-0.22,0.379,-0.09,-0.107,-0.155,-0.182,-0.126,-0.155
-0.044,0.336,0.38,-0.146,-0.212,0.358,-0.09,-0.106,-0.165,-0.194,-0.129,-0.155
-0.048,0.325,0.373,-0.139,-0.211,0.349,-0.089,-0.107,-0.175,-0.197,-0.133,-0.156
-0.056,0.321,0.377,-0.133,-0.217,0.349,-0.084,-0.13,-0.184,-0.201,-0.139,-0.16
-0.052,0.317,0.369,-0.133,-0.21,0.343,-0.086,-0.137,-0.186,-0.207,-0.146,-0.165
-0.063,0.303,0.366,-0.12,-0.215,0.334,-0.082,-0.134,-0.189,-0.215,-0.149,-0.168
-0.059,0.296,0.355,-0.119,-0.207,0.325,-0.08,-0.136,-0.191,-0.223,-0.152,-0.173
-0.058,0.295,0.353,-0.119,-0.206,0.324,-0.08,-0.134,-0.195,-0.223,-0.154,-0.175
-0.059,0.282,0.341,-0.111,-0.201,0.311,-0.083,-0.135,-0.199,-0.22,-0.158,-0.178
-0.048,0.285,0.333,-0.119,-0.191,0.309,-0.086,-0.135,-0.204,-0.22,-0.16,-0.18
-0.07,0.275,0.345,-0.103,-0.207,0.309,-0.084,-0.135,-0.205,-0.22,-0.16,-0.18
-0.065,0.258,0.323,-0.097,-0.194,0.291,-0.085,-0.135,-0.205,-0.22,-0.16,-0.18
-0.063,0.256,0.319,-0.096,-0.192,0.287,-0.084,-0.135,-0.21,-0.221,-0.16,-0.18
-0.077,0.254,0.332,-0.089,-0.205,0.293,-0.086,-0.135,-0.21,-0.224,-0.16,-0.18
-0.069,0.255,0.324,-0.094,-0.197,0.289,-0.09,-0.139,-0.21,-0.229,-0.16,-0.179
-0.066,0.255,0.321,-0.094,-0.194,0.287,-0.09,-0.151,-0.21,-0.228,-0.159,-0.182
-0.059,0.255,0.314,-0.098,-0.187,0.285,-0.09,-0.155,-0.21,-0.224,-0.156,-0.185
-0.058,0.251,0.309,-0.097,-0.184,0.28,-0.09,-0.155,-0.21,-0.225,-0.153,-0.185
-0.058,0.246,0.304,-0.094,-0.181,0.275,-0.09,-0.155,-0.21,-0.225,-0.151,-0.185
-0.056,0.241,0.298,-0.093,-0.177,0.27,-0.086,-0.155,-0.21,-0.225,-0.147,-0.185
-0.086,0.237,0.323,-0.076,-0.205,0.28,-0.08,-0.155,-0.206,-0.225,-0.145,-0.185
-0.085,0.233,0.317,-0.074,-0.201,0.275,-0.075,-0.15,-0.199,-0.219,-0.143,-0.179
-0.05,0.228,0.278,-0.089,-0.164,0.253,-0.069,-0.14,-0.193,-0.212,-0.137,-0.172
-0.049,0.218,0.267,-0.085,-0.158,0.243,-0.064,-0.132,-0.186,-0.206,-0.134,-0.166
-0.061,0.197,0.258,-0.068,-0.16,0.227,-0.059,-0.126,-0.179,-0.199,-0.128,-0.159
-0.061,0.174,0.235,-0.056,-0.148,0.204,-0.053,-0.119,-0.172,-0.192,-0.125,-0.153
-0.053,0.155,0.208,-0.051,-0.131,0.181,-0.047,-0.112,-0.167,-0.187,-0.119,-0.147
-0.051,0.148,0.199,-0.049,-0.125,0.173,-0.043,-0.106,-0.162,-0.182,-0.113,-0.143
-0.066,0.125,0.191,-0.03,-0.129,0.157,-0.036,-0.102,-0.156,-0.177,-0.109,-0.138
-0.067,0.106,0.173,-0.02,-0.12,0.139,-0.031,-0.099,-0.151,-0.174,-0.102,-0.134
-0.042,0.105,0.146,-0.032,-0.094,0.125,-0.038,-0.095,-0.146,-0.168,-0.098,-0.129
-0.062,0.079,0.141,-0.008,-0.102,0.109,-0.037,-0.091,-0.14,-0.165,-0.092,-0.121
-0.069,0.059,0.128,0.005,-0.099,0.093,-0.029,-0.089,-0.135,-0.153,-0.091,-0.108
-0.071,-0.012,0.058,0.041,-0.064,0.023,-0.026,-0.083,-0.129,-0.137,-0.068,-0.098
-0.098,-0.068,0.03,0.082,-0.063,-0.019,-0.02,-0.077,-0.124,-0.135,-0.042,-0.094
-0.065,-0.029,0.035,0.047,-0.05,0.003,-0.015,-0.072,-0.118,-0.132,-0.054,-0.092
-0.035,-0.015,0.021,0.025,-0.027,0.003,-0.012,-0.066,-0.115,-0.129,-0.058,-0.089
-0.041,-0.015,0.025,0.028,-0.032,0.004,-0.005,-0.061,-0.113,-0.126,-0.064,-0.086
-0.056,-0.015,0.042,0.035,-0.048,0.013,-0.008,-0.056,-0.11,-0.124,-0.075,-0.084
-0.054,-0.015,0.038,0.034,-0.046,0.011,-0.021,-0.054,-0.107,-0.121,-0.068,-0.081
-0.045,-0.014,0.031,0.03,-0.038,0.008,-0.022,-0.051,-0.104,-0.119,-0.064,-0.08
-0.04,-0.018,0.022,0.028,-0.03,0.002,-0.018,-0.048,-0.102,-0.12,-0.058,-0.08
-0.045,-0.027,0.018,0.036,-0.031,-0.004,-0.016,-0.045,-0.097,-0.119,-0.052,-0.08
-0.049,-0.048,0.001,0.048,-0.025,-0.023,-0.012,-0.045,-0.094,-0.121,-0.048,-0.08
-0.03,-0.043,-0.013,0.037,-0.008,-0.028,-0.01,-0.045,-0.091,-0.117,-0.041,-0.077
-0.047,-0.057,-0.01,0.052,-0.018,-0.033,-0.008,-0.045,-0.086,-0.115,-0.037,-0.075
-0.054,-0.092,-0.038,0.073,-0.008,-0.065,-0.004,-0.045,-0.086,-0.115,-0.031,-0.072
-0.048,-0.095,-0.047,0.072,0.0,-0.071,-0.005,-0.045,-0.09,-0.115,-0.025,-0.069
-0.051,-0.093,-0.042,0.072,-0.004,-0.067,-0.001,-0.045,-0.09,-0.115,-0.02,-0.066
-0.05,-0.09,-0.04,0.07,-0.005,-0.065,0.0,-0.045,-0.09,-0.115,-0.031,-0.064
-0.05,-0.086,-0.037,0.068,-0.006,-0.062,0.0,-0.045,-0.09,-0.119,-0.043,-0.073
-0.051,-0.085,-0.033,0.069,-0.009,-0.059,0.005,-0.045,-0.089,-0.12,-0.04,-0.08
-0.046,-0.09,-0.044,0.068,0.0,-0.067,0.005,-0.045,-0.098,-0.12,-0.04,-0.08
-0.014,-0.097,-0.083,0.056,0.035,-0.09,0.007,-0.044,-0.103,-0.12,-0.039,-0.08
-0.006,-0.092,-0.086,0.049,0.04,-0.089,0.01,-0.047,-0.097,-0.12,-0.035,-0.08
-0.014,-0.113,-0.098,0.063,0.042,-0.105,0.011,-0.051,-0.095,-0.118,-0.034,-0.08
-0.015,-0.141,-0.126,0.079,0.055,-0.133,0.007,-0.046,-0.09,-0.114,-0.038,-0.08
-0.014,-0.138,-0.125,0.077,0.056,-0.131,0.005,-0.044,-0.086,-0.115,-0.04,-0.075
-0.017,-0.141,-0.124,0.08,0.054,-0.132,0.005,-0.04,-0.084,-0.111,-0.042,-0.075
-0.016,-0.143,-0.127,0.08,0.056,-0.135,0.005,-0.036,-0.078,-0.11,-0.045,-0.074
-0.005,-0.147,-0.141,0.076,0.068,-0.144,0.006,-0.031,-0.07,-0.111,-0.046,-0.07
-0.004,-0.143,-0.139,0.073,0.068,-0.14,0.005,-0.022,-0.064,-0.101,-0.038,-0.071
0.016,-0.118,-0.134,0.051,0.076,-0.126,0.022,-0.011,-0.057,-0.086,-0.028,-0.067
0.04,-0.094,-0.134,0.027,0.087,-0.114,0.042,-0.003,-0.048,-0.067,-0.018,-0.058
0.042,-0.085,-0.126,0.021,0.084,-0.105,0.062,0.013,-0.033,-0.054,-0.006,-0.048
0.064,-0.076,-0.14,0.006,0.102,-0.108,0.049,0.023,-0.019,-0.046,0.006,-0.026
0.124,-0.045,-0.169,-0.039,0.147,-0.107,-0.031,0.012,-0.014,-0.044,0.046,0.004
0.125,-0.064,-0.189,-0.03,0.157,-0.126,-0.058,0.003,-0.002,-0.032,0.056,0.011
0.09,-0.093,-0.183,0.001,0.137,-0.137,-0.037,-0.009,-0.022,-0.034,0.018,-0.015
0.099,-0.126,-0.225,0.013,0.162,-0.175,-0.024,-0.02,-0.046,-0.043,0.008,-0.025
0.091,-0.197,-0.288,0.053,0.19,-0.242,0.024,-0.027,-0.054,-0.062,-0.013,-0.042
0.068,-0.21,-0.278,0.071,0.173,-0.243,0.039,-0.015,-0.047,-0.066,-0.027,-0.055
0.036,-0.248,-0.284,0.106,0.161,-0.266,0.04,-0.013,-0.052,-0.076,-0.041,-0.055
0.024,-0.272,-0.295,0.124,0.16,-0.283,0.04,-0.004,-0.05,-0.096,-0.051,-0.053
0.032,-0.284,-0.316,0.126,0.174,-0.3,0.04,0.004,-0.047,-0.053,-0.038,-0.044
0.013,-0.336,-0.349,0.161,0.182,-0.342,0.068,0.0,-0.054,-0.102,-0.067,-0.054
0.011,-0.339,-0.351,0.164,0.181,-0.344,0.064,0.004,-0.019,-0.026,-0.033,-0.031
0.002,-0.385,-0.386,0.192,0.194,-0.385,0.104,0.033,-0.009,-0.104,-0.082,-0.076
0.013,-0.326,-0.34,0.157,0.177,-0.332,0.235,0.455,0.359,0.057,-0.031,-0.094
0.134,-0.234,-0.368,0.051,0.251,-0.3,0.208,0.169,0.175,0.245,0.129,0.012
0.502,0.51,0.008,-0.506,0.247,0.259,-0.692,-1.704,-0.948,1.079,1.074,0.8
0.601,1.007,0.406,-0.804,0.097,0.706,-1.498,-2.819,-1.7,2.188,1.839,1.394
0.008,0.038,0.03,-0.023,-0.011,0.034,-1.177,-2.316,-2.098,0.222,0.429,0.468
-0.209,-0.356,-0.147,0.283,-0.031,-0.252,-0.717,-1.321,-1.461,-0.971,-0.383,-0.128
0.006,-0.195,-0.201,0.095,0.104,-0.198,-0.236,-0.316,-0.33,-0.106,-0.033,-0.018
0.014,-0.254,-0.268,0.12,0.141,-0.261,0.049,0.049,-0.034,-0.141,-0.084,-0.065
0.028,-0.189,-0.217,0.08,0.123,-0.202,0.054,0.093,0.072,-0.04,-0.027,-0.036
0.031,-0.214,-0.245,0.091,0.139,-0.229,0.104,0.165,0.107,-0.057,-0.048,-0.057
0.035,-0.183,-0.218,0.074,0.127,-0.2,0.087,0.159,0.13,-0.055,-0.032,-0.041
0.047,-0.182,-0.229,0.068,0.138,-0.206,0.106,0.192,0.174,-0.019,-0.023,-0.038
0.048,-0.171,-0.219,0.062,0.133,-0.195,0.095,0.204,0.175,-0.043,-0.025,-0.036
0.058,-0.158,-0.216,0.05,0.137,-0.186,0.093,0.214,0.206,0.015,0.008,-0.024
0.058,-0.157,-0.216,0.05,0.137,-0.186,0.091,0.228,0.213,0.002,0.01,-0.026
0.067,-0.136,-0.203,0.034,0.135,-0.169,0.083,0.246,0.245,0.047,0.041,-0.009
0.079,-0.119,-0.198,0.02,0.139,-0.158,0.084,0.254,0.265,0.054,0.046,-0.008
0.09,-0.091,-0.18,0.001,0.135,-0.136,0.064,0.271,0.288,0.084,0.067,0.006
0.097,-0.068,-0.165,-0.014,0.131,-0.116,0.055,0.291,0.308,0.095,0.07,0.011
0.111,-0.03,-0.142,-0.04,0.127,-0.086,0.037,0.303,0.331,0.115,0.078,0.02
0.138,0.013,-0.125,-0.075,0.132,-0.056,0.015,0.329,0.363,0.138,0.092,0.026
0.183,0.068,-0.115,-0.126,0.149,-0.023,-0.008,0.356,0.392,0.15,0.1,0.032
0.208,0.104,-0.105,-0.156,0.156,-0.001,-0.023,0.404,0.442,0.195,0.125,0.058
0.241,0.143,-0.098,-0.191,0.169,0.022,-0.033,0.463,0.499,0.234,0.151,0.078
0.276,0.185,-0.091,-0.231,0.183,0.047,-0.057,0.524,0.558,0.272,0.177,0.1
0.327,0.241,-0.087,-0.283,0.207,0.077,-0.093,0.59,0.622,0.326,0.21,0.13
0.387,0.306,-0.081,-0.347,0.234,0.112,-0.128,0.648,0.679,0.384,0.256,0.164
0.413,0.337,-0.076,-0.375,0.245,0.13,-0.153,0.704,0.738,0.446,0.314,0.216
0.45,0.378,-0.073,-0.414,0.261,0.152,-0.193,0.704,0.766,0.503,0.362,0.261
0.481,0.414,-0.067,-0.447,0.273,0.173,-0.24,0.691,0.756,0.534,0.402,0.296
0.507,0.443,-0.065,-0.474,0.286,0.189,-0.264,0.667,0.722,0.528,0.418,0.305
0.512,0.462,-0.05,-0.487,0.281,0.206,-0.28,0.564,0.643,0.517,0.404,0.304
0.474,0.43,-0.045,-0.452,0.26,0.192,-0.273,0.444,0.537,0.482,0.372,0.284
0.377,0.374,-0.002,-0.376,0.19,0.186,-0.226,0.317,0.407,0.381,0.302,0.218
0.259,0.302,0.044,-0.281,0.107,0.173,-0.178,0.197,0.282,0.263,0.201,0.141
0.203,0.239,0.036,-0.221,0.084,0.137,-0.122,0.108,0.169,0.149,0.093,0.056
0.144,0.208,0.064,-0.176,0.04,0.136,-0.063,0.038,0.072,0.043,0.013,-0.026
0.088,0.173,0.084,-0.131,0.002,0.128,-0.029,-0.01,0.017,-0.025,-0.041,-0.081
0.061,0.135,0.074,-0.098,-0.006,0.104,-0.007,-0.031,-0.02,-0.063,-0.083,-0.108
0.039,0.114,0.076,-0.077,-0.019,0.095,0.005,-0.034,-0.038,-0.087,-0.103,-0.121
0.047,0.114,0.068,-0.08,-0.011,0.091,0.014,-0.033,-0.047,-0.107,-0.122,-0.128
0.049,0.116,0.067,-0.083,-0.01,0.091,0.021,-0.026,-0.051,-0.113,-0.131,-0.13
0.053,0.114,0.061,-0.084,-0.005,0.088,0.035,-0.021,-0.05,-0.109,-0.13,-0.134
0.067,0.115,0.048,-0.091,0.009,0.081,0.046,-0.015,-0.051,-0.11,-0.128,-0.136
0.041,0.116,0.075,-0.078,-0.018,0.095,0.045,-0.01,-0.05,-0.105,-0.124,-0.14
0.025,0.127,0.102,-0.076,-0.039,0.114,0.044,-0.007,-0.051,-0.105,-0.126,-0.14
0.03,0.141,0.11,-0.086,-0.04,0.125,0.04,-0.003,-0.04,-0.104,-0.121,-0.13
0.039,0.144,0.104,-0.092,-0.033,0.123,0.04,0.0,-0.03,-0.097,-0.115,-0.114
0.075,0.136,0.061,-0.106,0.007,0.098,0.038,0.005,-0.031,-0.093,-0.109,-0.108
0.076,0.128,0.052,-0.103,0.012,0.09,0.032,0.003,-0.03,-0.087,-0.106,-0.111
0.047,0.124,0.077,-0.085,-0.015,0.1,0.028,-0.005,-0.031,-0.082,-0.11,-0.11
0.043,0.113,0.07,-0.078,-0.014,0.091,0.024,-0.008,-0.03,-0.076,-0.11,-0.114
0.048,0.11,0.061,-0.079,-0.007,0.085,0.019,-0.015,-0.031,-0.075,-0.11,-0.115
0.039,0.097,0.058,-0.068,-0.01,0.077,0.014,-0.019,-0.039,-0.088,-0.11,-0.115
0.038,0.104,0.066,-0.071,-0.015,0.085,0.027,-0.027,-0.058,-0.101,-0.109,-0.119
0.057,0.138,0.081,-0.098,-0.012,0.109,0.031,-0.047,-0.08,-0.117,-0.115,-0.121
0.061,0.136,0.075,-0.099,-0.007,0.105,0.024,-0.052,-0.09,-0.126,-0.118,-0.125
0.056,0.126,0.07,-0.091,-0.008,0.098,0.021,-0.06,-0.095,-0.124,-0.115,-0.123
0.056,0.122,0.067,-0.089,-0.006,0.094,0.016,-0.062,-0.095,-0.125,-0.115,-0.119
0.051,0.112,0.061,-0.082,-0.005,0.086,0.011,-0.059,-0.095,-0.125,-0.115,-0.12
0.035,0.093,0.058,-0.064,-0.012,0.075,0.008,-0.06,-0.095,-0.125,-0.115,-0.12
0.032,0.083,0.051,-0.058,-0.01,0.066,0.003,-0.055,-0.095,-0.125,-0.115,-0.12
0.041,0.085,0.045,-0.063,-0.003,0.065,0.0,-0.055,-0.094,-0.121,-0.111,-0.12
0.037,0.087,0.051,-0.062,-0.007,0.069,-0.003,-0.056,-0.097,-0.12,-0.11,-0.12
0.042,0.09,0.048,-0.066,-0.003,0.069,-0.008,-0.065,-0.099,-0.12,-0.11,-0.12
0.038,0.092,0.054,-0.065,-0.008,0.073,-0.009,-0.074,-0.108,-0.12,-0.11,-0.119
0.025,0.102,0.077,-0.064,-0.026,0.089,-0.006,-0.075,-0.122,-0.119,-0.11,-0.123
0.023,0.097,0.074,-0.06,-0.025,0.085,-0.003,-0.075,-0.118,-0.121,-0.111,-0.126
0.022,0.087,0.065,-0.055,-0.022,0.076,-0.001,-0.076,-0.115,-0.125,-0.115,-0.12
0.022,0.081,0.058,-0.052,-0.018,0.069,0.003,-0.08,-0.113,-0.125,-0.115,-0.115
0.021,0.071,0.05,-0.046,-0.015,0.061,0.006,-0.08,-0.109,-0.127,-0.115,-0.113
0.027,0.071,0.044,-0.049,-0.009,0.057,0.003,-0.08,-0.11,-0.13,-0.115,-0.104
0.03,0.068,0.039,-0.049,-0.005,0.054,0.01,-0.08,-0.11,-0.13,-0.115,-0.116
0.042,0.075,0.033,-0.059,0.004,0.054,0.012,-0.08,-0.11,-0.127,-0.115,-0.133
0.056,0.086,0.03,-0.071,0.013,0.057,0.009,-0.084,-0.11,-0.124,-0.115,-0.129
0.054,0.08,0.025,-0.067,0.014,0.052,0.009,-0.085,-0.11,-0.125,-0.115,-0.13
0.056,0.075,0.019,-0.066,0.018,0.046,0.004,-0.085,-0.11,-0.125,-0.115,-0.13
0.031,0.072,0.041,-0.052,-0.005,0.056,0.006,-0.085,-0.11,-0.125,-0.115,-0.13
0.013,0.065,0.052,-0.039,-0.019,0.058,0.002,-0.085,-0.109,-0.124,-0.113,-0.129
0.015,0.068,0.053,-0.042,-0.02,0.06,-0.006,-0.084,-0.119,-0.12,-0.11,-0.125
0.015,0.07,0.055,-0.043,-0.02,0.062,-0.013,-0.08,-0.126,-0.12,-0.108,-0.125
0.02,0.07,0.05,-0.045,-0.015,0.06,-0.018,-0.08,-0.125,-0.117,-0.105,-0.123
0.029,0.07,0.041,-0.049,-0.006,0.055,-0.016,-0.08,-0.123,-0.114,-0.101,-0.119
0.028,0.07,0.042,-0.049,-0.007,0.056,-0.013,-0.08,-0.119,-0.115,-0.1,-0.12
0.007,0.086,0.079,-0.047,-0.036,0.082,-0.011,-0.08,-0.12,-0.111,-0.097,-0.132
0.003,0.084,0.082,-0.044,-0.04,0.083,-0.007,-0.076,-0.116,-0.11,-0.094,-0.134
0.002,0.071,0.07,-0.037,-0.034,0.07,-0.005,-0.075,-0.115,-0.11,-0.095,-0.126
0.011,0.063,0.052,-0.037,-0.021,0.057,-0.003,-0.075,-0.115,-0.105,-0.095,-0.124
0.03,0.052,0.022,-0.041,0.004,0.037,0.003,-0.07,-0.11,-0.105,-0.095,-0.118
0.025,0.042,0.016,-0.034,0.004,0.029,0.008,-0.07,-0.11,-0.104,-0.094,-0.114
0.015,0.025,0.01,-0.02,0.002,0.017,0.011,-0.069,-0.109,-0.097,-0.089,-0.111
0.008,0.009,0.001,-0.008,0.003,0.005,0.016,-0.064,-0.105,-0.092,-0.086,-0.108
0.009,-0.001,-0.01,-0.003,0.01,-0.006,0.02,-0.059,-0.103,-0.087,-0.083,-0.106
0.017,-0.006,-0.024,-0.005,0.021,-0.015,0.02,-0.054,-0.099,-0.081,-0.078,-0.102
0.019,-0.011,-0.031,-0.004,0.025,-0.021,0.02,-0.05,-0.097,-0.076,-0.075,-0.1
0.027,-0.018,-0.045,-0.004,0.036,-0.031,0.02,-0.045,-0.094,-0.075,-0.071,-0.097
0.034,-0.022,-0.056,-0.005,0.045,-0.039,0.02,-0.041,-0.092,-0.075,-0.069,-0.095
0.026,-0.028,-0.054,0.001,0.041,-0.041,0.021,-0.039,-0.089,-0.075,-0.07,-0.095
0.027,-0.03,-0.058,0.002,0.043,-0.044,0.017,-0.04,-0.086,-0.075,-0.07,-0.091
0.03,-0.03,-0.06,0.0,0.045,-0.045,0.015,-0.04,-0.083,-0.075,-0.07,-0.089
0.02,-0.041,-0.06,0.011,0.04,-0.05,0.015,-0.04,-0.08,-0.075,-0.069,-0.091
0.002,-0.054,-0.056,0.026,0.029,-0.055,0.015,-0.039,-0.078,-0.075,-0.065,-0.094
-0.008,-0.058,-0.049,0.033,0.021,-0.053,0.015,-0.035,-0.075,-0.075,-0.065,-0.095
-0.005,-0.047,-0.042,0.027,0.019,-0.044,0.016,-0.035,-0.075,-0.075,-0.06,-0.095
-0.001,-0.038,-0.036,0.02,0.018,-0.037,0.019,-0.032,-0.075,-0.075,-0.059,-0.095
0.001,-0.028,-0.029,0.013,0.015,-0.028,0.02,-0.03,-0.075,-0.075,-0.068,-0.094
0.006,-0.02,-0.026,0.007,0.016,-0.022,0.02,-0.03,-0.075,-0.075,-0.071,-0.097
0.013,-0.036,-0.05,0.012,0.031,-0.043,0.02,-0.033,-0.079,-0.075,-0.069,-0.1
0.016,-0.039,-0.054,0.012,0.035,-0.046,0.02,-0.037,-0.08,-0.075,-0.07,-0.1
0.017,-0.019,-0.035,0.001,0.026,-0.027,0.018,-0.043,-0.081,-0.075,-0.07,-0.1
0.012,-0.01,-0.022,-0.001,0.017,-0.015,0.012,-0.059,-0.094,-0.075,-0.069,-0.1
0.002,-0.007,-0.009,0.003,0.006,-0.008,0.009,-0.06,-0.101,-0.076,-0.077,-0.1
0.011,0.026,0.014,-0.019,-0.001,0.02,0.004,-0.061,-0.103,-0.092,-0.093,-0.107
0.017,0.066,0.05,-0.042,-0.017,0.058,-0.005,-0.075,-0.11,-0.11,-0.105,-0.118
0.008,0.079,0.072,-0.044,-0.032,0.075,-0.021,-0.08,-0.12,-0.12,-0.114,-0.128
0.018,0.103,0.085,-0.061,-0.034,0.094,-0.032,-0.084,-0.126,-0.129,-0.121,-0.136
0.017,0.121,0.104,-0.069,-0.044,0.112,-0.035,-0.091,-0.128,-0.132,-0.125,-0.143
0.007,0.134,0.127,-0.071,-0.06,0.13,-0.046,-0.096,-0.136,-0.137,-0.13,-0.143
0.024,0.168,0.144,-0.096,-0.06,0.155,-0.054,-0.105,-0.143,-0.14,-0.132,-0.139
0.024,0.174,0.15,-0.099,-0.064,0.162,-0.06,-0.105,-0.138,-0.137,-0.126,-0.141
0.019,0.168,0.149,-0.093,-0.065,0.159,-0.052,-0.099,-0.131,-0.132,-0.122,-0.14
0.034,0.184,0.151,-0.109,-0.059,0.167,-0.05,-0.093,-0.126,-0.127,-0.118,-0.14
0.062,0.211,0.149,-0.137,-0.044,0.18,-0.036,-0.089,-0.118,-0.123,-0.112,-0.14
0.081,0.232,0.152,-0.157,-0.036,0.192,-0.021,-0.08,-0.106,-0.113,-0.111,-0.13
0.075,0.233,0.158,-0.154,-0.042,0.196,-0.02,-0.073,-0.094,-0.098,-0.115,-0.113
0.129,0.289,0.16,-0.209,-0.016,0.225,-0.023,-0.073,-0.091,-0.101,-0.116,-0.108
0.153,0.322,0.169,-0.238,-0.009,0.245,-0.089,-0.082,-0.088,-0.097,-0.113,-0.111
0.121,0.273,0.152,-0.197,-0.016,0.212,-0.108,-0.099,-0.1,-0.105,-0.118,-0.119
0.112,0.251,0.139,-0.182,-0.013,0.195,-0.088,-0.105,-0.121,-0.112,-0.111,-0.117
0.07,0.198,0.128,-0.134,-0.029,0.163,-0.081,-0.121,-0.133,-0.139,-0.129,-0.135
0.038,0.162,0.124,-0.1,-0.044,0.143,-0.071,-0.116,-0.131,-0.147,-0.139,-0.15
0.035,0.147,0.112,-0.091,-0.039,0.129,-0.062,-0.12,-0.15,-0.153,-0.141,-0.158
0.033,0.141,0.108,-0.087,-0.038,0.124,-0.053,-0.109,-0.141,-0.174,-0.143,-0.163
0.035,0.136,0.1,-0.086,-0.033,0.118,-0.051,-0.114,-0.141,-0.139,-0.13,-0.158
0.029,0.115,0.086,-0.072,-0.028,0.1,-0.039,-0.105,-0.14,-0.184,-0.148,-0.176
0.035,0.128,0.093,-0.082,-0.029,0.111,-0.05,-0.107,-0.131,-0.116,-0.116,-0.156
0.027,0.085,0.059,-0.056,-0.016,0.072,0.001,-0.073,-0.113,-0.192,-0.185,-0.193
0.04,0.129,0.089,-0.085,-0.025,0.109,0.133,0.368,0.251,-0.033,-0.147,-0.204
0.177,0.231,0.054,-0.204,0.061,0.142,0.059,-0.112,-0.019,0.133,0.002,-0.082
0.571,1.037,0.466,-0.804,0.052,0.751,-0.915,-2.11,-1.106,0.987,0.954,0.733
0.664,1.529,0.866,-1.097,-0.101,1.197,-1.799,-3.228,-1.871,1.928,1.673,1.328
0.063,0.565,0.502,-0.315,-0.219,0.533,-1.473,-2.635,-2.228,0.008,0.301,0.409
-0.158,0.168,0.326,-0.005,-0.243,0.247,-0.875,-1.41,-1.457,-0.958,-0.438,-0.19
0.032,0.304,0.272,-0.168,-0.121,0.288,-0.344,-0.405,-0.395,-0.186,-0.139,-0.126
0.021,0.24,0.219,-0.131,-0.099,0.23,-0.078,-0.077,-0.148,-0.256,-0.201,-0.18
0.025,0.268,0.243,-0.147,-0.109,0.255,-0.058,-0.009,-0.035,-0.138,-0.142,-0.138
0.03,0.231,0.201,-0.131,-0.086,0.216,-0.011,0.05,-0.003,-0.164,-0.167,-0.159
0.037,0.247,0.21,-0.142,-0.086,0.228,-0.02,0.075,0.032,-0.147,-0.149,-0.142
0.035,0.236,0.201,-0.136,-0.083,0.218,-0.005,0.107,0.072,-0.12,-0.143,-0.143
0.026,0.232,0.206,-0.129,-0.09,0.219,-0.008,0.112,0.074,-0.139,-0.145,-0.14
0.053,0.257,0.204,-0.155,-0.076,0.231,-0.005,0.127,0.099,-0.096,-0.127,-0.129
0.056,0.285,0.229,-0.171,-0.086,0.257,-0.011,0.134,0.113,-0.113,-0.129,-0.133
0.061,0.306,0.245,-0.184,-0.092,0.276,-0.021,0.145,0.134,-0.077,-0.105,-0.12
0.071,0.334,0.263,-0.203,-0.096,0.298,-0.027,0.157,0.151,-0.08,-0.102,-0.123
0.072,0.349,0.276,-0.211,-0.102,0.312,-0.036,0.177,0.186,-0.048,-0.081,-0.111
0.089,0.361,0.272,-0.226,-0.092,0.317,-0.05,0.194,0.197,-0.034,-0.071,-0.107
0.108,0.385,0.277,-0.247,-0.085,0.331,-0.067,0.219,0.226,-0.003,-0.042,-0.092
0.121,0.384,0.263,-0.253,-0.072,0.323,-0.068,0.266,0.278,0.036,-0.018,-0.061
0.147,0.385,0.238,-0.266,-0.046,0.311,-0.076,0.316,0.327,0.062,-0.004,-0.032
0.168,0.402,0.235,-0.286,-0.034,0.318,-0.091,0.363,0.378,0.1,0.016,-0.013
0.194,0.437,0.243,-0.316,-0.024,0.34,-0.108,0.416,0.429,0.13,0.042,0.006
0.237,0.453,0.217,-0.345,0.01,0.335,-0.131,0.497,0.502,0.182,0.086,0.031
0.258,0.461,0.203,-0.36,0.027,0.332,-0.148,0.58,0.574,0.242,0.128,0.066
0.283,0.488,0.205,-0.386,0.039,0.347,-0.166,0.649,0.637,0.298,0.177,0.112
0.349,0.559,0.21,-0.454,0.069,0.384,-0.213,0.686,0.681,0.345,0.222,0.145
0.405,0.634,0.229,-0.52,0.088,0.431,-0.261,0.697,0.691,0.385,0.256,0.179
0.416,0.651,0.235,-0.534,0.09,0.443,-0.29,0.699,0.701,0.431,0.311,0.223
0.434,0.656,0.223,-0.545,0.105,0.439,-0.313,0.646,0.683,0.433,0.332,0.256
0.432,0.666,0.234,-0.549,0.099,0.45,-0.327,0.549,0.609,0.418,0.315,0.261
0.362,0.618,0.256,-0.49,0.053,0.436,-0.317,0.417,0.503,0.399,0.305,0.237
0.292,0.557,0.266,-0.425,0.013,0.411,-0.279,0.274,0.369,0.312,0.247,0.184
0.217,0.496,0.279,-0.357,-0.032,0.387,-0.23,0.154,0.237,0.192,0.141,0.099
0.141,0.408,0.266,-0.275,-0.063,0.337,-0.174,0.063,0.126,0.081,0.049,0.027
0.082,0.333,0.251,-0.207,-0.085,0.291,-0.119,0.004,0.046,-0.005,-0.015,-0.031
0.024,0.266,0.242,-0.145,-0.109,0.254,-0.071,-0.036,-0.014,-0.07,-0.069,-0.09
-0.009,0.213,0.223,-0.102,-0.116,0.218,-0.031,-0.042,-0.058,-0.116,-0.112,-0.121
-0.039,0.164,0.203,-0.063,-0.121,0.183,-0.009,-0.036,-0.068,-0.131,-0.125,-0.126
-0.057,0.129,0.186,-0.036,-0.122,0.158,0.002,-0.036,-0.061,-0.137,-0.135,-0.125
-0.055,0.121,0.177,-0.033,-0.116,0.149,0.023,-0.03,-0.054,-0.145,-0.136,-0.125
-0.046,0.115,0.161,-0.035,-0.104,0.138,0.035,-0.031,-0.048,-0.14,-0.126,-0.125
-0.036,0.111,0.147,-0.038,-0.091,0.129,0.037,-0.019,-0.041,-0.13,-0.122,-0.125
-0.042,0.086,0.128,-0.022,-0.085,0.107,0.043,0.003,-0.035,-0.12,-0.114,-0.121
-0.06,0.05,0.109,0.005,-0.085,0.079,0.049,0.015,-0.028,-0.11,-0.108,-0.11
-0.055,0.026,0.081,0.014,-0.068,0.053,0.06,0.025,-0.018,-0.103,-0.101,-0.103
-0.042,0.015,0.057,0.014,-0.05,0.036,0.066,0.027,-0.007,-0.098,-0.094,-0.097
-0.056,0.01,0.066,0.023,-0.061,0.037,0.069,0.024,-0.003,-0.092,-0.088,-0.091
-0.05,0.007,0.058,0.021,-0.055,0.032,0.071,0.025,-0.005,-0.086,-0.08,-0.086
-0.044,0.0,0.044,0.021,-0.044,0.022,0.07,0.025,-0.009,-0.081,-0.076,-0.08
-0.061,-0.014,0.047,0.037,-0.054,0.016,0.07,0.025,-0.011,-0.084,-0.075,-0.072
-0.055,-0.025,0.03,0.04,-0.042,0.002,0.073,0.025,-0.014,-0.086,-0.075,-0.064
-0.05,-0.057,-0.007,0.054,-0.021,-0.032,0.076,0.025,-0.016,-0.09,-0.075,-0.06
-0.062,-0.073,-0.012,0.068,-0.025,-0.042,0.075,0.025,-0.02,-0.093,-0.075,-0.058
-0.061,-0.069,-0.008,0.065,-0.027,-0.038,0.075,0.025,-0.029,-0.097,-0.075,-0.055
-0.024,-0.07,-0.045,0.047,0.011,-0.057,0.076,0.025,-0.028,-0.108,-0.072,-0.052
-0.019,-0.083,-0.064,0.051,0.022,-0.073,0.073,0.025,-0.041,-0.111,-0.07,-0.049
-0.04,-0.101,-0.061,0.071,0.011,-0.081,0.085,0.021,-0.057,-0.109,-0.066,-0.054
-0.049,-0.116,-0.067,0.083,0.009,-0.092,0.097,0.014,-0.054,-0.106,-0.064,-0.055
-0.086,-0.141,-0.055,0.114,-0.015,-0.098,0.094,0.008,-0.055,-0.104,-0.06,-0.055
-0.088,-0.147,-0.059,0.117,-0.014,-0.103,0.111,0.001,-0.055,-0.106,-0.06,-0.055
-0.061,-0.142,-0.081,0.101,0.011,-0.111,0.114,-0.006,-0.055,-0.111,-0.07,-0.055
-0.073,-0.123,-0.049,0.098,-0.012,-0.086,0.106,-0.009,-0.052,-0.115,-0.072,-0.054
-0.087,-0.113,-0.026,0.1,-0.03,-0.069,0.104,-0.005,-0.049,-0.112,-0.068,-0.048
-0.06,-0.119,-0.059,0.09,-0.001,-0.088,0.098,-0.002,-0.051,-0.109,-0.066,-0.041
-0.055,-0.123,-0.068,0.089,0.007,-0.095,0.095,0.0,-0.049,-0.106,-0.062,-0.034
-0.057,-0.124,-0.067,0.091,0.005,-0.095,0.089,0.004,-0.051,-0.103,-0.06,-0.027
-0.065,-0.139,-0.075,0.102,0.005,-0.107,0.094,0.004,-0.049,-0.1,-0.062,-0.021
-0.083,-0.171,-0.089,0.127,0.003,-0.13,0.106,0.013,-0.045,-0.1,-0.066,-0.02
-0.068,-0.174,-0.106,0.121,0.02,-0.14,0.11,0.022,-0.045,-0.1,-0.069,-0.02
-0.066,-0.177,-0.111,0.122,0.023,-0.144,0.11,0.019,-0.045,-0.1,-0.07,-0.02
-0.078,-0.184,-0.106,0.131,0.014,-0.145,0.112,0.02,-0.045,-0.1,-0.07,-0.02
-0.087,-0.192,-0.105,0.14,0.009,-0.148,0.115,0.02,-0.045,-0.1,-0.07,-0.02
-0.094,-0.214,-0.12,0.155,0.013,-0.167,0.116,0.02,-0.041,-0.1,-0.07,-0.02
-0.09,-0.215,-0.125,0.153,0.018,-0.17,0.112,0.019,-0.039,-0.096,-0.067,-0.02
-0.099,-0.215,-0.115,0.157,0.009,-0.165,0.11,0.014,-0.04,-0.095,-0.065,-0.02
-0.101,-0.215,-0.115,0.158,0.008,-0.165,0.11,0.016,-0.04,-0.095,-0.065,-0.02
-0.106,-0.214,-0.109,0.16,0.002,-0.161,0.106,0.012,-0.04,-0.095,-0.061,-0.02
-0.112,-0.215,-0.103,0.164,-0.005,-0.159,0.105,0.01,-0.039,-0.095,-0.06,-0.02
-0.073,-0.206,-0.133,0.14,0.03,-0.169,0.104,0.009,-0.035,-0.093,-0.06,-0.017
-0.076,-0.225,-0.149,0.151,0.037,-0.187,0.121,0.023,-0.035,-0.09,-0.055,-0.011
-0.081,-0.245,-0.163,0.163,0.041,-0.204,0.132,0.045,-0.033,-0.088,-0.051,-0.006
-0.061,-0.238,-0.177,0.15,0.058,-0.207,0.129,0.045,-0.029,-0.085,-0.049,-0.003
-0.067,-0.242,-0.175,0.155,0.054,-0.208,0.131,0.046,-0.03,-0.082,-0.044,0.003
-0.057,-0.237,-0.18,0.147,0.062,-0.209,0.13,0.049,-0.026,-0.08,-0.041,0.006
-0.067,-0.249,-0.181,0.158,0.057,-0.215,0.13,0.051,-0.025,-0.077,-0.037,0.01
-0.072,-0.27,-0.198,0.171,0.063,-0.234,0.138,0.049,-0.025,-0.072,-0.035,0.015
-0.069,-0.27,-0.201,0.169,0.066,-0.235,0.145,0.045,-0.02,-0.069,-0.035,0.015
-0.071,-0.27,-0.199,0.171,0.064,-0.235,0.145,0.045,-0.02,-0.066,-0.031,0.015
-0.067,-0.268,-0.201,0.168,0.067,-0.235,0.145,0.043,-0.019,-0.061,-0.03,0.015
-0.082,-0.281,-0.199,0.182,0.058,-0.24,0.145,0.039,-0.015,-0.06,-0.03,0.015
-0.09,-0.29,-0.2,0.19,0.055,-0.245,0.145,0.04,-0.015,-0.061,-0.025,0.015
-0.103,-0.284,-0.181,0.194,0.039,-0.232,0.145,0.052,-0.013,-0.06,-0.025,0.016
-0.088,-0.279,-0.192,0.184,0.052,-0.235,0.145,0.056,-0.01,-0.06,-0.025,0.02
-0.06,-0.277,-0.216,0.169,0.079,-0.246,0.145,0.054,-0.01,-0.06,-0.025,0.02
-0.055,-0.269,-0.214,0.162,0.079,-0.241,0.145,0.055,-0.013,-0.06,-0.025,0.02
-0.065,-0.276,-0.211,0.171,0.073,-0.244,0.144,0.055,-0.015,-0.06,-0.027,0.02
-0.089,-0.297,-0.208,0.193,0.06,-0.252,0.14,0.055,-0.015,-0.055,-0.03,0.02
-0.081,-0.286,-0.205,0.184,0.062,-0.245,0.14,0.051,-0.015,-0.055,-0.03,0.017
-0.078,-0.278,-0.2,0.178,0.061,-0.239,0.14,0.05,-0.015,-0.054,-0.03,0.014
-0.079,-0.276,-0.197,0.178,0.059,-0.237,0.14,0.05,-0.015,-0.05,-0.03,0.011
-0.08,-0.272,-0.192,0.176,0.056,-0.232,0.139,0.05,-0.015,-0.05,-0.03,0.008
-0.079,-0.269,-0.19,0.174,0.055,-0.229,0.142,0.05,-0.015,-0.048,-0.026,0.005
-0.079,-0.264,-0.185,0.172,0.054,-0.225,0.145,0.052,-0.015,-0.044,-0.025,0.006
-0.088,-0.269,-0.181,0.178,0.047,-0.225,0.145,0.056,-0.015,-0.042,-0.025,0.011
-0.09,-0.27,-0.18,0.18,0.045,-0.225,0.149,0.058,-0.015,-0.039,-0.025,0.016
-0.115,-0.274,-0.159,0.195,0.023,-0.216,0.15,0.061,-0.012,-0.036,-0.025,0.021
-0.095,-0.277,-0.183,0.186,0.044,-0.23,0.15,0.064,-0.009,-0.034,-0.023,0.025
-0.073,-0.305,-0.232,0.19,0.079,-0.268,0.15,0.066,-0.006,-0.031,-0.018,0.03
-0.098,-0.34,-0.242,0.219,0.072,-0.291,0.153,0.069,-0.003,-0.028,-0.015,0.026
-0.102,-0.336,-0.234,0.219,0.067,-0.285,0.16,0.07,0.0,-0.025,-0.012,0.025
-0.092,-0.331,-0.239,0.212,0.073,-0.285,0.162,0.071,0.001,-0.022,-0.007,0.025
-0.082,-0.328,-0.246,0.205,0.082,-0.286,0.166,0.076,0.007,-0.019,-0.005,0.02
-0.083,-0.322,-0.239,0.202,0.078,-0.28,0.169,0.074,0.013,-0.022,-0.005,0.021
-0.082,-0.319,-0.236,0.201,0.077,-0.277,0.172,0.077,0.018,-0.026,-0.005,0.018
-0.079,-0.312,-0.233,0.196,0.077,-0.273,0.176,0.081,0.025,-0.024,-0.004,0.015
-0.078,-0.307,-0.229,0.192,0.076,-0.267,0.174,0.081,0.024,-0.019,-0.007,0.014
-0.06,-0.298,-0.238,0.18,0.089,-0.268,0.181,0.088,0.026,-0.007,-0.004,0.015
-0.041,-0.293,-0.252,0.168,0.106,-0.273,0.179,0.083,0.028,0.002,-0.003,0.024
-0.034,-0.282,-0.247,0.158,0.107,-0.264,0.182,0.101,0.05,0.014,0.019,0.041
-0.028,-0.264,-0.236,0.147,0.104,-0.25,0.196,0.112,0.078,0.025,0.043,0.057
-0.006,-0.237,-0.231,0.122,0.113,-0.234,0.195,0.111,0.077,0.038,0.046,0.063
0.011,-0.218,-0.229,0.104,0.12,-0.224,0.168,0.136,0.102,0.071,0.073,0.086
0.009,-0.221,-0.23,0.106,0.12,-0.226,0.112,0.107,0.089,0.07,0.073,0.085
0.01,-0.22,-0.23,0.105,0.12,-0.225,0.102,0.079,0.06,0.041,0.055,0.07
-0.01,-0.255,-0.244,0.133,0.117,-0.249,0.13,0.078,0.056,0.037,0.035,0.055
-0.04,-0.277,-0.237,0.159,0.099,-0.257,0.149,0.064,0.034,-0.002,-0.008,0.024
-0.057,-0.271,-0.215,0.164,0.079,-0.243,0.147,0.062,0.033,0.007,-0.005,0.022
-0.045,-0.297,-0.252,0.171,0.104,-0.274,0.148,0.049,0.012,-0.03,-0.028,0.004
-0.049,-0.272,-0.223,0.161,0.087,-0.247,0.137,0.052,0.02,-0.018,-0.023,0.005
-0.088,-0.277,-0.189,0.183,0.051,-0.233,0.143,0.042,-0.002,-0.036,-0.043,-0.013
-0.108,-0.254,-0.146,0.181,0.02,-0.2,0.13,0.047,0.006,-0.05,-0.046,-0.015
-0.112,-0.256,-0.144,0.185,0.016,-0.2,0.143,0.03,-0.011,-0.006,-0.045,-0.018
-0.073,-0.255,-0.182,0.164,0.055,-0.218,0.21,0.195,0.156,-0.052,-0.079,-0.076
-0.04,-0.225,-0.185,0.133,0.073,-0.205,0.331,0.557,0.502,0.212,0.007,-0.069
0.169,0.102,-0.067,-0.136,0.118,0.018,-0.026,-0.431,-0.226,0.483,0.422,0.299
0.504,1.021,0.517,-0.763,-0.007,0.769,-1.084,-2.221,-1.279,1.905,1.674,1.26
0.17,0.716,0.546,-0.443,-0.188,0.63,-1.263,-2.461,-1.854,1.707,1.4,1.094
-0.349,-0.233,0.116,0.291,-0.233,-0.059,-0.787,-1.725,-1.924,-0.748,-0.234,0.028
-0.227,-0.188,0.039,0.207,-0.132,-0.074,-0.449,-0.797,-0.874,-0.584,-0.249,-0.085
-0.079,-0.14,-0.062,0.11,-0.008,-0.101,0.0,-0.053,-0.096,-0.005,-0.025,-0.034
-0.08,-0.127,-0.047,0.103,-0.016,-0.087,0.1,0.073,0.036,-0.106,-0.076,-0.059
-0.07,-0.117,-0.047,0.094,-0.011,-0.082,0.123,0.131,0.136,0.031,-0.005,-0.024
-0.064,-0.119,-0.055,0.092,-0.005,-0.087,0.15,0.164,0.144,-0.069,-0.045,-0.046
-0.046,-0.074,-0.028,0.06,-0.009,-0.051,0.127,0.168,0.181,0.014,0.001,-0.017
-0.06,-0.088,-0.028,0.075,-0.016,-0.058,0.142,0.188,0.186,-0.03,-0.017,-0.03
-0.054,-0.059,-0.005,0.057,-0.024,-0.032,0.123,0.187,0.217,0.009,0.005,-0.012
-0.045,-0.059,-0.014,0.052,-0.015,-0.036,0.13,0.203,0.232,0.018,0.008,-0.011
-0.033,-0.04,-0.007,0.037,-0.013,-0.023,0.12,0.208,0.247,0.031,0.018,-0.003
-0.033,-0.045,-0.011,0.039,-0.01,-0.028,0.117,0.217,0.269,0.059,0.038,0.005
-0.038,-0.048,-0.01,0.043,-0.014,-0.029,0.109,0.23,0.285,0.069,0.049,0.014
-0.045,-0.05,-0.005,0.048,-0.02,-0.028,0.102,0.254,0.317,0.11,0.063,0.037
-0.02,-0.054,-0.034,0.037,0.007,-0.043,0.096,0.281,0.35,0.131,0.085,0.054
0.03,-0.06,-0.09,0.015,0.06,-0.074,0.089,0.315,0.396,0.177,0.12,0.081
0.053,-0.069,-0.122,0.008,0.088,-0.096,0.084,0.355,0.442,0.212,0.154,0.107
0.076,-0.057,-0.133,-0.01,0.105,-0.094,0.074,0.4,0.495,0.252,0.183,0.119
0.108,-0.049,-0.156,-0.029,0.132,-0.102,0.067,0.451,0.554,0.291,0.207,0.145
0.139,-0.033,-0.172,-0.053,0.156,-0.102,0.047,0.508,0.613,0.336,0.247,0.176
0.184,0.003,-0.182,-0.093,0.183,-0.089,0.022,0.571,0.676,0.388,0.284,0.201
0.22,0.042,-0.178,-0.13,0.198,-0.068,-0.012,0.63,0.744,0.444,0.324,0.24
0.242,0.076,-0.166,-0.158,0.204,-0.045,-0.046,0.684,0.801,0.511,0.378,0.279
0.3,0.14,-0.16,-0.22,0.23,-0.01,-0.087,0.711,0.839,0.567,0.425,0.319
0.33,0.18,-0.15,-0.255,0.24,0.015,-0.13,0.709,0.859,0.612,0.466,0.36
0.325,0.181,-0.144,-0.253,0.234,0.018,-0.154,0.705,0.855,0.648,0.504,0.395
0.33,0.196,-0.134,-0.263,0.231,0.031,-0.179,0.659,0.813,0.654,0.518,0.415
0.321,0.193,-0.129,-0.257,0.225,0.032,-0.188,0.561,0.722,0.631,0.51,0.413
0.295,0.178,-0.118,-0.236,0.207,0.03,-0.178,0.435,0.606,0.567,0.458,0.369
0.216,0.111,-0.104,-0.163,0.159,0.004,-0.141,0.326,0.477,0.452,0.363,0.291
0.128,0.027,-0.101,-0.077,0.115,-0.037,-0.07,0.232,0.354,0.333,0.263,0.215
0.042,-0.025,-0.067,-0.009,0.055,-0.046,-0.023,0.146,0.252,0.219,0.165,0.13
-0.031,-0.083,-0.052,0.058,0.01,-0.067,0.027,0.103,0.187,0.127,0.093,0.06
-0.064,-0.122,-0.058,0.094,-0.003,-0.09,0.073,0.084,0.145,0.075,0.035,0.022
-0.102,-0.153,-0.051,0.128,-0.026,-0.102,0.083,0.084,0.108,0.031,0.0,0.003
-0.103,-0.19,-0.087,0.147,-0.008,-0.139,0.099,0.086,0.104,0.018,0.0,-0.004
-0.085,-0.207,-0.122,0.146,0.019,-0.164,0.112,0.084,0.109,0.017,0.0,-0.019
-0.096,-0.215,-0.119,0.156,0.012,-0.166,0.115,0.085,0.111,0.011,0.0,-0.027
-0.107,-0.227,-0.12,0.167,0.007,-0.173,0.116,0.085,0.115,0.01,0.0,-0.024
-0.107,-0.227,-0.12,0.167,0.007,-0.173,0.114,0.091,0.119,0.003,0.001,-0.021
-0.102,-0.221,-0.119,0.161,0.009,-0.17,0.118,0.106,0.13,0.018,0.005,-0.018
-0.094,-0.216,-0.122,0.155,0.014,-0.169,0.119,0.109,0.129,0.031,0.004,-0.015
-0.086,-0.21,-0.124,0.148,0.02,-0.167,0.112,0.1,0.122,0.021,0.008,-0.015
-0.073,-0.205,-0.132,0.139,0.03,-0.168,0.106,0.094,0.116,0.016,0.01,-0.015
-0.078,-0.189,-0.111,0.134,0.017,-0.15,0.099,0.086,0.108,0.007,0.01,-0.015
-0.094,-0.165,-0.071,0.13,-0.011,-0.117,0.093,0.079,0.103,0.001,0.005,-0.014
-0.088,-0.142,-0.054,0.115,-0.017,-0.098,0.087,0.072,0.096,-0.006,-0.005,-0.029
-0.084,-0.134,-0.05,0.11,-0.017,-0.092,0.085,0.065,0.085,-0.015,-0.012,-0.042
-0.1,-0.136,-0.035,0.118,-0.032,-0.085,0.085,0.059,0.073,-0.025,-0.023,-0.039
-0.112,-0.135,-0.023,0.124,-0.044,-0.079,0.085,0.052,0.062,-0.041,-0.039,-0.04
-0.106,-0.135,-0.029,0.121,-0.038,-0.082,0.085,0.046,0.053,-0.045,-0.046,-0.044
-0.112,-0.135,-0.023,0.124,-0.044,-0.079,0.084,0.04,0.046,-0.055,-0.051,-0.051
-0.118,-0.133,-0.015,0.126,-0.052,-0.074,0.081,0.033,0.039,-0.068,-0.056,-0.056
-0.115,-0.125,-0.01,0.12,-0.053,-0.067,0.078,0.026,0.031,-0.069,-0.059,-0.054
-0.135,-0.109,0.026,0.122,-0.08,-0.041,0.075,0.019,0.024,-0.075,-0.061,-0.059
-0.143,-0.089,0.054,0.115,-0.098,-0.017,0.072,0.011,0.017,-0.075,-0.059,-0.064
-0.15,-0.094,0.056,0.121,-0.103,-0.019,0.07,0.004,0.014,-0.076,-0.062,-0.071
-0.154,-0.095,0.059,0.125,-0.106,-0.018,0.068,-0.002,0.015,-0.088,-0.082,-0.081
-0.134,-0.072,0.062,0.103,-0.098,-0.004,0.063,-0.009,0.015,-0.091,-0.091,-0.08
-0.138,-0.068,0.069,0.103,-0.103,0.0,0.06,-0.015,0.015,-0.087,-0.084,-0.08
-0.142,-0.071,0.071,0.107,-0.106,0.0,0.057,-0.02,0.014,-0.085,-0.083,-0.08
-0.139,-0.069,0.07,0.104,-0.105,0.0,0.052,-0.025,0.011,-0.081,-0.078,-0.079
-0.147,-0.07,0.077,0.108,-0.112,0.003,0.049,-0.03,0.008,-0.079,-0.076,-0.083
-0.143,-0.07,0.073,0.106,-0.108,0.001,0.046,-0.034,0.005,-0.084,-0.071,-0.085
-0.149,-0.065,0.084,0.107,-0.117,0.01,0.043,-0.039,0.002,-0.084,-0.071,-0.085
-0.169,-0.056,0.113,0.112,-0.141,0.028,0.041,-0.04,0.0,-0.079,-0.087,-0.088
-0.158,-0.042,0.116,0.1,-0.137,0.036,0.037,-0.04,0.0,-0.08,-0.091,-0.091
-0.157,-0.043,0.114,0.1,-0.135,0.036,0.035,-0.04,0.0,-0.08,-0.086,-0.089
-0.148,-0.032,0.115,0.09,-0.131,0.041,0.033,-0.04,0.0,-0.08,-0.085,-0.086
-0.123,-0.008,0.115,0.065,-0.119,0.053,0.029,-0.04,0.0,-0.088,-0.08,-0.085
-0.124,-0.01,0.114,0.067,-0.119,0.051,0.03,-0.04,0.0,-0.091,-0.08,-0.085
-0.12,-0.01,0.11,0.065,-0.115,0.05,0.026,-0.04,0.0,-0.089,-0.084,-0.085
-0.118,-0.01,0.108,0.064,-0.113,0.049,0.024,-0.04,0.005,-0.09,-0.089,-0.085
-0.114,-0.009,0.105,0.061,-0.109,0.047,0.026,-0.04,0.005,-0.09,-0.09,-0.087
-0.113,-0.011,0.102,0.062,-0.107,0.045,0.024,-0.04,0.006,-0.09,-0.09,-0.09
-0.098,0.001,0.099,0.048,-0.099,0.05,0.026,-0.04,0.01,-0.086,-0.09,-0.09
-0.097,0.003,0.101,0.047,-0.099,0.052,0.023,-0.042,0.01,-0.085,-0.09,-0.09
-0.133,-0.034,0.099,0.084,-0.116,0.033,0.03,-0.046,0.01,-0.084,-0.09,-0.09
-0.137,-0.036,0.101,0.086,-0.118,0.032,0.041,-0.045,0.01,-0.081,-0.09,-0.09
-0.117,-0.018,0.099,0.068,-0.108,0.04,0.035,-0.045,0.01,-0.079,-0.09,-0.094
-0.11,-0.008,0.102,0.059,-0.106,0.047,0.03,-0.045,0.01,-0.081,-0.09,-0.095
-0.118,0.001,0.119,0.058,-0.119,0.06,0.027,-0.045,0.01,-0.088,-0.09,-0.094
-0.105,0.009,0.114,0.048,-0.11,0.061,0.021,-0.05,0.01,-0.091,-0.091,-0.096
-0.099,0.009,0.108,0.045,-0.103,0.059,0.02,-0.054,0.005,-0.09,-0.089,-0.094
-0.111,0.016,0.127,0.047,-0.119,0.071,0.02,-0.059,0.005,-0.09,-0.099,-0.099
-0.117,0.037,0.154,0.04,-0.136,0.095,0.02,-0.058,0.004,-0.095,-0.107,-0.102
-0.138,0.041,0.18,0.048,-0.159,0.11,0.02,-0.055,0.0,-0.095,-0.102,-0.1
-0.15,0.032,0.182,0.059,-0.166,0.106,0.02,-0.054,-0.001,-0.089,-0.1,-0.1
-0.139,0.031,0.169,0.054,-0.154,0.1,0.021,-0.049,0.003,-0.085,-0.097,-0.099
-0.121,0.01,0.132,0.055,-0.127,0.071,0.026,-0.051,0.008,-0.08,-0.094,-0.101
-0.125,-0.06,0.065,0.092,-0.094,0.002,0.04,-0.031,0.029,-0.077,-0.092,-0.08
-0.124,-0.093,0.031,0.108,-0.078,-0.031,0.049,-0.012,0.047,-0.071,-0.089,-0.058
-0.122,-0.085,0.037,0.103,-0.079,-0.024,0.046,-0.018,0.045,-0.066,-0.086,-0.061
-0.116,-0.083,0.033,0.099,-0.074,-0.024,0.045,-0.021,0.045,-0.063,-0.083,-0.06
-0.116,-0.08,0.036,0.098,-0.076,-0.021,0.045,-0.026,0.041,-0.056,-0.08,-0.06
-0.141,-0.08,0.062,0.11,-0.101,-0.009,0.045,-0.031,0.039,-0.057,-0.081,-0.06
-0.136,-0.08,0.056,0.108,-0.096,-0.012,0.045,-0.034,0.04,-0.06,-0.085,-0.06
-0.105,-0.084,0.021,0.094,-0.063,-0.031,0.042,-0.035,0.035,-0.063,-0.087,-0.059
-0.091,-0.068,0.022,0.079,-0.056,-0.023,0.04,-0.035,0.035,-0.065,-0.091,-0.066
-0.127,-0.059,0.069,0.093,-0.098,0.005,0.037,-0.033,0.034,-0.062,-0.086,-0.078
-0.151,-0.06,0.091,0.105,-0.121,0.015,0.034,-0.026,0.029,-0.059,-0.085,-0.074
-0.122,-0.06,0.062,0.091,-0.092,0.001,0.031,-0.022,0.03,-0.056,-0.085,-0.068
-0.113,-0.059,0.054,0.085,-0.083,-0.002,0.03,-0.016,0.03,-0.053,-0.081,-0.065
-0.117,-0.062,0.055,0.089,-0.086,-0.003,0.038,-0.008,0.031,-0.051,-0.08,-0.06
-0.11,-0.052,0.058,0.081,-0.084,0.003,0.048,-0.006,0.041,-0.05,-0.08,-0.057
-0.091,-0.016,0.075,0.053,-0.083,0.03,0.058,0.014,0.067,-0.032,-0.062,-0.05
-0.072,-0.008,0.064,0.04,-0.068,0.028,0.098,0.029,0.087,-0.014,-0.051,-0.041
-0.075,-0.027,0.048,0.051,-0.061,0.01,0.121,0.045,0.103,0.001,-0.043,-0.028
-0.053,-0.033,0.021,0.043,-0.037,-0.006,0.079,0.061,0.13,0.042,-0.002,0.01
-0.005,-0.021,-0.016,0.013,0.006,-0.018,0.042,0.05,0.15,0.058,0.021,0.032
-0.003,-0.055,-0.052,0.029,0.025,-0.053,0.036,0.034,0.136,0.039,0.003,0.018
-0.018,-0.081,-0.063,0.049,0.023,-0.071,0.021,0.03,0.102,0.013,-0.018,-0.003
-0.035,-0.1,-0.064,0.068,0.015,-0.082,0.021,0.023,0.082,0.007,-0.034,-0.018
-0.071,-0.148,-0.076,0.109,0.003,-0.111,0.062,0.019,0.075,-0.016,-0.059,-0.033
-0.101,-0.158,-0.057,0.13,-0.022,-0.107,0.073,0.017,0.072,-0.005,-0.06,-0.036
-0.107,-0.199,-0.092,0.153,-0.007,-0.146,0.08,0.006,0.057,-0.03,-0.076,-0.054
-0.094,-0.203,-0.109,0.149,0.008,-0.156,0.076,0.02,0.059,-0.025,-0.059,-0.046
-0.13,-0.25,-0.121,0.19,-0.004,-0.185,0.085,0.012,0.046,-0.031,-0.068,-0.053
-0.146,-0.252,-0.106,0.199,-0.02,-0.178,0.089,0.038,0.077,-0.038,-0.062,-0.05
-0.14,-0.253,-0.113,0.196,-0.013,-0.183,0.092,0.01,0.056,0.006,-0.051,-0.046
-0.124,-0.286,-0.162,0.205,0.019,-0.224,0.186,0.208,0.218,-0.032,-0.085,-0.075
-0.07,-0.262,-0.192,0.167,0.061,-0.227,0.336,0.573,0.548,0.217,0.017,-0.038
0.147,-0.059,-0.206,-0.044,0.177,-0.132,0.006,-0.506,-0.096,0.459,0.346,0.264
0.563,0.87,0.306,-0.716,0.128,0.588,-1.152,-2.472,-1.115,1.753,1.548,1.251
0.353,0.774,0.421,-0.564,-0.035,0.597,-1.622,-2.945,-1.778,1.784,1.545,1.317
-0.224,-0.229,-0.005,0.227,-0.11,-0.117,-1.075,-2.02,-1.847,-0.462,-0.01,0.241
-0.217,-0.268,-0.051,0.243,-0.083,-0.159,-0.491,-0.793,-0.751,-0.483,-0.187,-0.007
-0.086,-0.25,-0.164,0.168,0.039,-0.207,0.003,-0.02,0.046,0.064,0.023,0.041
-0.079,-0.281,-0.202,0.18,0.062,-0.241,0.133,0.144,0.163,-0.043,-0.026,0.001
-0.085,-0.276,-0.191,0.181,0.054,-0.234,0.165,0.222,0.264,0.108,0.03,0.036
-0.085,-0.316,-0.231,0.201,0.073,-0.273,0.202,0.264,0.281,0.024,-0.024,0.007
-0.062,-0.288,-0.226,0.175,0.082,-0.257,0.193,0.288,0.328,0.102,0.019,0.03
-0.087,-0.346,-0.259,0.216,0.086,-0.302,0.224,0.319,0.348,0.088,0.013,0.032
-0.066,-0.347,-0.281,0.207,0.108,-0.314,0.213,0.335,0.383,0.129,0.051,0.056
-0.043,-0.353,-0.311,0.199,0.134,-0.331,0.214,0.356,0.399,0.141,0.057,0.066
-0.044,-0.346,-0.302,0.195,0.13,-0.324,0.205,0.362,0.417,0.144,0.058,0.075
-0.039,-0.345,-0.306,0.193,0.134,-0.325,0.2,0.392,0.456,0.181,0.081,0.09
-0.032,-0.335,-0.303,0.184,0.136,-0.319,0.196,0.402,0.473,0.183,0.097,0.1
-0.008,-0.305,-0.297,0.157,0.145,-0.301,0.187,0.413,0.495,0.211,0.113,0.105
0.003,-0.293,-0.296,0.145,0.15,-0.294,0.178,0.442,0.52,0.226,0.118,0.116
0.01,-0.28,-0.291,0.135,0.151,-0.285,0.166,0.466,0.552,0.257,0.137,0.132
0.021,-0.267,-0.288,0.123,0.154,-0.277,0.155,0.506,0.593,0.283,0.161,0.15
0.035,-0.25,-0.285,0.108,0.16,-0.267,0.142,0.558,0.647,0.323,0.189,0.17
0.071,-0.233,-0.303,0.081,0.187,-0.268,0.124,0.618,0.709,0.362,0.212,0.191
0.102,-0.209,-0.311,0.054,0.206,-0.26,0.1,0.688,0.769,0.398,0.236,0.214
0.137,-0.181,-0.318,0.022,0.227,-0.249,0.077,0.771,0.837,0.453,0.274,0.24
0.184,-0.146,-0.33,-0.019,0.257,-0.238,0.053,0.855,0.911,0.513,0.321,0.279
0.22,-0.103,-0.323,-0.058,0.272,-0.213,0.021,0.921,0.966,0.562,0.36,0.318
0.267,-0.048,-0.315,-0.109,0.291,-0.181,-0.019,0.958,1.004,0.61,0.401,0.357
0.298,-0.008,-0.306,-0.145,0.302,-0.157,-0.055,0.96,1.018,0.657,0.455,0.399
0.323,0.023,-0.3,-0.172,0.311,-0.138,-0.089,0.941,1.009,0.689,0.498,0.443
0.334,0.045,-0.288,-0.189,0.311,-0.121,-0.123,0.874,0.954,0.688,0.502,0.45
0.31,0.042,-0.268,-0.176,0.289,-0.113,-0.139,0.737,0.856,0.654,0.493,0.437
0.271,0.008,-0.263,-0.139,0.267,-0.127,-0.124,0.581,0.739,0.604,0.46,0.422
0.219,-0.049,-0.267,-0.085,0.243,-0.158,-0.086,0.439,0.596,0.5,0.364,0.353
0.147,-0.122,-0.269,-0.013,0.208,-0.195,-0.028,0.322,0.467,0.377,0.27,0.265
0.053,-0.22,-0.273,0.084,0.163,-0.246,0.028,0.242,0.367,0.287,0.186,0.19
-0.012,-0.287,-0.275,0.15,0.131,-0.281,0.076,0.184,0.293,0.199,0.109,0.126
-0.065,-0.343,-0.278,0.205,0.107,-0.31,0.121,0.156,0.241,0.143,0.067,0.089
-0.072,-0.38,-0.308,0.226,0.118,-0.344,0.146,0.154,0.202,0.11,0.045,0.074
-0.078,-0.393,-0.315,0.236,0.119,-0.354,0.16,0.151,0.188,0.094,0.035,0.064
-0.097,-0.414,-0.317,0.256,0.11,-0.365,0.174,0.148,0.19,0.084,0.025,0.052
-0.082,-0.409,-0.326,0.246,0.122,-0.367,0.179,0.144,0.192,0.072,0.016,0.05
-0.109,-0.409,-0.3,0.259,0.095,-0.354,0.18,0.146,0.195,0.075,0.015,0.05
-0.104,-0.406,-0.302,0.256,0.099,-0.354,0.184,0.158,0.196,0.075,0.015,0.05
-0.087,-0.403,-0.317,0.246,0.115,-0.36,0.185,0.166,0.2,0.075,0.015,0.05
-0.102,-0.407,-0.305,0.255,0.102,-0.356,0.187,0.17,0.212,0.075,0.015,0.049
-0.106,-0.409,-0.303,0.258,0.098,-0.356,0.19,0.17,0.216,0.075,0.014,0.053
-0.102,-0.41,-0.308,0.256,0.103,-0.359,0.19,0.169,0.211,0.073,0.019,0.055
-0.102,-0.412,-0.31,0.257,0.104,-0.361,0.193,0.17,0.209,0.069,0.025,0.055
-0.101,-0.416,-0.314,0.259,0.107,-0.365,0.196,0.17,0.205,0.07,0.031,0.058
-0.097,-0.414,-0.317,0.256,0.11,-0.365,0.194,0.166,0.204,0.069,0.034,0.06
-0.098,-0.419,-0.321,0.259,0.112,-0.37,0.19,0.161,0.198,0.07,0.027,0.059
-0.093,-0.419,-0.326,0.257,0.116,-0.372,0.185,0.157,0.187,0.07,0.022,0.054
-0.107,-0.413,-0.306,0.26,0.1,-0.359,0.18,0.153,0.177,0.059,0.017,0.048
-0.11,-0.398,-0.288,0.254,0.089,-0.343,0.177,0.13,0.157,0.044,0.011,0.044
-0.078,-0.368,-0.29,0.223,0.106,-0.329,0.171,0.11,0.144,0.033,0.006,0.038
-0.074,-0.368,-0.294,0.222,0.11,-0.331,0.172,0.107,0.138,0.027,0.008,0.032
-0.103,-0.398,-0.295,0.251,0.096,-0.346,0.183,0.101,0.131,0.023,0.013,0.032
-0.104,-0.404,-0.3,0.254,0.099,-0.352,0.185,0.098,0.124,0.018,0.016,0.035
-0.099,-0.398,-0.299,0.249,0.1,-0.348,0.185,0.092,0.117,0.014,0.019,0.039
-0.105,-0.408,-0.303,0.256,0.099,-0.355,0.185,0.091,0.114,0.009,0.024,0.04
-0.093,-0.416,-0.323,0.255,0.115,-0.369,0.185,0.097,0.112,0.005,0.024,0.036
-0.098,-0.414,-0.316,0.257,0.11,-0.365,0.185,0.092,0.109,0.0,0.018,0.033
-0.102,-0.409,-0.307,0.256,0.103,-0.358,0.182,0.089,0.106,-0.004,0.012,0.031
-0.114,-0.412,-0.298,0.263,0.092,-0.354,0.174,0.086,0.104,-0.009,0.008,0.027
-0.121,-0.395,-0.274,0.258,0.077,-0.334,0.166,0.081,0.095,-0.013,0.001,0.025
-0.119,-0.357,-0.238,0.238,0.06,-0.297,0.158,0.079,0.079,-0.018,-0.004,0.022
-0.125,-0.331,-0.206,0.229,0.041,-0.269,0.15,0.073,0.068,-0.027,-0.009,0.014
-0.111,-0.315,-0.204,0.214,0.047,-0.259,0.145,0.066,0.06,-0.038,-0.016,0.008
-0.1,-0.307,-0.207,0.203,0.054,-0.256,0.14,0.059,0.054,-0.045,-0.022,0.0
-0.089,-0.301,-0.212,0.195,0.062,-0.256,0.135,0.052,0.047,-0.047,-0.028,-0.008
-0.098,-0.293,-0.195,0.196,0.049,-0.244,0.131,0.046,0.041,-0.051,-0.033,-0.014
-0.11,-0.267,-0.158,0.189,0.024,-0.212,0.126,0.041,0.035,-0.054,-0.04,-0.022
-0.116,-0.245,-0.128,0.181,0.006,-0.186,0.125,0.034,0.029,-0.057,-0.039,-0.029
-0.128,-0.239,-0.112,0.184,-0.008,-0.175,0.125,0.027,0.022,-0.064,-0.043,-0.036
-0.125,-0.232,-0.107,0.179,-0.008,-0.169,0.125,0.021,0.016,-0.072,-0.051,-0.038
-0.119,-0.225,-0.106,0.173,-0.006,-0.165,0.125,0.013,0.009,-0.071,-0.046,-0.032
-0.121,-0.221,-0.1,0.171,-0.01,-0.161,0.125,0.011,0.002,-0.069,-0.041,-0.027
-0.124,-0.225,-0.101,0.174,-0.011,-0.163,0.125,0.015,0.002,-0.07,-0.038,-0.024
-0.106,-0.225,-0.119,0.166,0.007,-0.172,0.129,0.018,0.007,-0.069,-0.032,-0.019
-0.106,-0.224,-0.119,0.165,0.007,-0.171,0.133,0.022,0.01,-0.071,-0.029,-0.015
-0.103,-0.229,-0.126,0.166,0.011,-0.177,0.138,0.025,0.013,-0.067,-0.025,-0.015
-0.102,-0.235,-0.134,0.169,0.016,-0.184,0.14,0.029,0.018,-0.065,-0.025,-0.015
-0.105,-0.251,-0.146,0.179,0.021,-0.198,0.14,0.03,0.019,-0.065,-0.025,-0.015
-0.087,-0.253,-0.166,0.171,0.04,-0.21,0.14,0.03,0.016,-0.061,-0.025,-0.015
-0.085,-0.242,-0.157,0.164,0.036,-0.199,0.14,0.03,0.013,-0.059,-0.025,-0.015
-0.081,-0.233,-0.151,0.157,0.035,-0.192,0.14,0.03,0.011,-0.061,-0.025,-0.012
-0.077,-0.223,-0.146,0.15,0.035,-0.184,0.135,0.029,0.007,-0.064,-0.025,-0.01
-0.076,-0.216,-0.14,0.146,0.032,-0.177,0.135,0.025,0.005,-0.065,-0.025,-0.01
-0.085,-0.209,-0.124,0.147,0.02,-0.166,0.134,0.025,0.002,-0.065,-0.025,-0.01
-0.1,-0.202,-0.103,0.151,0.002,-0.152,0.13,0.025,0.0,-0.065,-0.025,-0.01
-0.1,-0.196,-0.096,0.148,-0.001,-0.146,0.13,0.025,0.0,-0.064,-0.026,-0.01
-0.101,-0.19,-0.089,0.146,-0.006,-0.139,0.128,0.025,-0.004,-0.068,-0.031,-0.014
-0.098,-0.181,-0.083,0.14,-0.008,-0.131,0.123,0.022,-0.005,-0.07,-0.035,-0.015
-0.092,-0.168,-0.076,0.13,-0.008,-0.122,0.12,0.019,-0.005,-0.07,-0.04,-0.015
-0.088,-0.158,-0.069,0.123,-0.009,-0.113,0.117,0.016,-0.009,-0.075,-0.036,-0.015
-0.092,-0.154,-0.062,0.123,-0.015,-0.108,0.112,0.013,-0.012,-0.083,-0.034,-0.014
-0.098,-0.156,-0.058,0.127,-0.019,-0.107,0.111,0.01,-0.015,-0.083,-0.035,-0.018
-0.098,-0.151,-0.053,0.125,-0.022,-0.102,0.114,0.011,-0.017,-0.079,-0.03,-0.02
-0.1,-0.15,-0.05,0.125,-0.025,-0.1,0.116,0.016,-0.021,-0.08,-0.03,-0.02
-0.103,-0.149,-0.046,0.127,-0.028,-0.098,0.114,0.019,-0.018,-0.08,-0.029,-0.02
-0.102,-0.144,-0.042,0.123,-0.03,-0.093,0.116,0.023,-0.011,-0.08,-0.025,-0.02
-0.088,-0.129,-0.041,0.108,-0.023,-0.085,0.115,0.028,-0.006,-0.081,-0.026,-0.02
-0.086,-0.1,-0.015,0.093,-0.035,-0.057,0.114,0.03,0.0,-0.075,-0.023,-0.015
-0.08,-0.066,0.014,0.073,-0.047,-0.026,0.132,0.035,0.006,-0.066,-0.019,-0.01
-0.065,-0.025,0.04,0.045,-0.052,0.008,0.155,0.047,0.008,-0.059,-0.021,-0.007
-0.047,0.004,0.051,0.021,-0.049,0.028,0.149,0.048,0.024,-0.045,-0.008,-0.001
-0.01,0.049,0.059,-0.02,-0.035,0.053,0.055,0.036,0.035,-0.042,0.025,0.01
0.013,0.081,0.068,-0.047,-0.028,0.074,-0.009,0.029,0.021,-0.037,0.036,0.023
-0.008,0.038,0.046,-0.015,-0.028,0.042,0.04,0.016,0.003,-0.049,0.008,0.015
-0.04,0.012,0.052,0.014,-0.046,0.032,0.04,0.01,-0.018,-0.073,-0.02,-0.001
-0.052,-0.002,0.05,0.027,-0.051,0.024,0.046,0.002,-0.042,-0.085,-0.035,-0.026
-0.064,-0.015,0.049,0.039,-0.056,0.017,0.071,-0.003,-0.05,-0.122,-0.049,-0.049
-0.094,-0.016,0.078,0.055,-0.086,0.031,0.068,-0.006,-0.063,-0.122,-0.06,-0.052
-0.107,-0.038,0.069,0.072,-0.088,0.016,0.08,-0.015,-0.077,-0.153,-0.084,-0.062
-0.091,-0.028,0.063,0.059,-0.077,0.017,0.071,-0.012,-0.062,-0.115,-0.064,-0.056
-0.099,-0.06,0.039,0.079,-0.068,-0.011,0.09,-0.028,-0.079,-0.155,-0.088,-0.075
-0.089,-0.03,0.058,0.059,-0.073,0.014,0.077,-0.014,-0.05,-0.119,-0.062,-0.061
-0.094,-0.072,0.022,0.083,-0.058,-0.025,0.106,-0.023,-0.08,-0.143,-0.088,-0.085
-0.097,-0.075,0.022,0.086,-0.059,-0.026,0.207,0.282,0.204,-0.093,-0.086,-0.097
-0.018,-0.04,-0.022,0.029,0.002,-0.031,0.307,0.466,0.385,0.155,0.014,-0.055
0.286,0.439,0.153,-0.363,0.066,0.295,-0.288,-1.001,-0.559,0.625,0.652,0.494
0.543,1.225,0.682,-0.885,-0.07,0.954,-1.305,-2.628,-1.488,2.076,1.813,1.391
0.053,0.525,0.472,-0.289,-0.21,0.499,-1.216,-2.514,-2.031,0.978,0.953,0.834
-0.348,-0.226,0.122,0.287,-0.235,-0.052,-0.741,-1.625,-1.812,-1.048,-0.389,-0.081
-0.143,-0.061,0.081,0.102,-0.112,0.01,-0.336,-0.579,-0.614,-0.371,-0.134,-0.037
-0.07,-0.119,-0.049,0.095,-0.01,-0.084,0.081,0.031,-0.044,-0.094,-0.043,-0.022
-0.071,-0.111,-0.04,0.092,-0.015,-0.075,0.123,0.108,0.058,-0.102,-0.022,0.005
-0.067,-0.142,-0.075,0.104,0.004,-0.108,0.171,0.192,0.148,-0.021,0.013,0.023
-0.053,-0.155,-0.102,0.104,0.025,-0.129,0.192,0.215,0.168,-0.08,-0.007,0.023
-0.029,-0.132,-0.103,0.081,0.037,-0.117,0.194,0.237,0.213,0.002,0.03,0.043
-0.042,-0.132,-0.09,0.087,0.025,-0.111,0.189,0.242,0.212,-0.046,0.019,0.03
-0.02,-0.087,-0.066,0.054,0.023,-0.077,0.172,0.254,0.248,0.008,0.056,0.046
-0.01,-0.075,-0.065,0.043,0.028,-0.07,0.172,0.257,0.252,-0.009,0.045,0.039
-0.005,-0.056,-0.051,0.031,0.024,-0.053,0.155,0.254,0.264,0.02,0.056,0.048
-0.005,-0.052,-0.048,0.029,0.022,-0.05,0.154,0.28,0.288,0.04,0.062,0.047
-0.001,-0.038,-0.037,0.02,0.018,-0.037,0.142,0.287,0.302,0.058,0.077,0.053
0.018,-0.012,-0.03,-0.002,0.024,-0.021,0.133,0.298,0.318,0.075,0.085,0.057
0.032,0.009,-0.023,-0.02,0.027,-0.006,0.115,0.313,0.344,0.088,0.1,0.063
0.043,0.027,-0.015,-0.035,0.029,0.006,0.099,0.34,0.375,0.12,0.117,0.079
0.077,0.068,-0.009,-0.072,0.043,0.029,0.073,0.369,0.406,0.139,0.136,0.089
0.105,0.123,0.018,-0.114,0.043,0.07,0.043,0.398,0.439,0.164,0.148,0.096
0.115,0.154,0.039,-0.134,0.038,0.096,0.022,0.444,0.49,0.199,0.157,0.114
0.143,0.183,0.04,-0.163,0.051,0.112,-0.005,0.503,0.554,0.253,0.198,0.143
0.171,0.215,0.044,-0.193,0.063,0.129,-0.03,0.565,0.619,0.301,0.234,0.172
0.201,0.247,0.047,-0.224,0.077,0.147,-0.058,0.621,0.681,0.357,0.281,0.209
0.251,0.301,0.05,-0.276,0.1,0.175,-0.098,0.662,0.73,0.423,0.337,0.252
0.314,0.363,0.049,-0.339,0.132,0.206,-0.142,0.678,0.767,0.48,0.388,0.293
0.352,0.396,0.044,-0.374,0.154,0.22,-0.175,0.676,0.763,0.522,0.425,0.331
0.345,0.386,0.041,-0.366,0.152,0.213,-0.2,0.664,0.752,0.555,0.457,0.37
0.339,0.376,0.038,-0.358,0.15,0.207,-0.219,0.602,0.711,0.554,0.481,0.39
0.336,0.37,0.033,-0.353,0.151,0.201,-0.215,0.502,0.616,0.525,0.46,0.373
0.283,0.313,0.03,-0.298,0.126,0.172,-0.183,0.39,0.501,0.448,0.391,0.319
0.187,0.213,0.026,-0.201,0.08,0.12,-0.125,0.281,0.375,0.33,0.294,0.243
0.1,0.12,0.019,-0.11,0.04,0.069,-0.056,0.199,0.264,0.223,0.203,0.165
0.03,0.043,0.012,-0.037,0.009,0.027,0.001,0.13,0.172,0.113,0.119,0.091
-0.026,-0.021,0.006,0.023,-0.016,-0.007,0.039,0.088,0.114,0.036,0.053,0.04
-0.073,-0.074,-0.001,0.073,-0.035,-0.037,0.074,0.067,0.076,-0.006,0.008,0.006
-0.073,-0.099,-0.026,0.087,-0.023,-0.063,0.099,0.059,0.04,-0.041,-0.024,-0.018
-0.07,-0.104,-0.034,0.087,-0.018,-0.069,0.098,0.061,0.025,-0.063,-0.033,-0.028
-0.083,-0.096,-0.013,0.09,-0.035,-0.055,0.092,0.057,0.025,-0.078,-0.05,-0.053
-0.092,-0.084,0.008,0.088,-0.049,-0.038,0.089,0.055,0.025,-0.086,-0.067,-0.067
-0.108,-0.076,0.032,0.092,-0.07,-0.022,0.083,0.055,0.025,-0.085,-0.064,-0.064
-0.096,-0.067,0.03,0.081,-0.063,-0.018,0.08,0.06,0.025,-0.085,-0.065,-0.066
-0.073,-0.058,0.015,0.065,-0.044,-0.022,0.086,0.062,0.023,-0.085,-0.065,-0.065
-0.099,-0.051,0.048,0.075,-0.073,-0.002,0.086,0.058,0.02,-0.085,-0.065,-0.065
-0.134,-0.048,0.086,0.091,-0.11,0.019,0.084,0.056,0.017,-0.089,-0.062,-0.069
-0.127,-0.043,0.084,0.085,-0.105,0.02,0.085,0.053,0.014,-0.09,-0.06,-0.07
-0.11,-0.031,0.079,0.071,-0.095,0.024,0.085,0.05,0.011,-0.092,-0.06,-0.07
-0.093,-0.015,0.078,0.054,-0.085,0.031,0.085,0.048,0.01,-0.095,-0.06,-0.07
-0.087,-0.016,0.071,0.051,-0.079,0.027,0.083,0.038,0.004,-0.097,-0.06,-0.07
-0.098,-0.028,0.071,0.063,-0.084,0.021,0.077,0.026,-0.011,-0.099,-0.061,-0.071
-0.092,-0.005,0.086,0.048,-0.089,0.04,0.073,0.015,-0.026,-0.112,-0.076,-0.077
-0.083,0.03,0.113,0.026,-0.098,0.071,0.068,0.005,-0.042,-0.124,-0.089,-0.085
-0.09,0.036,0.127,0.027,-0.109,0.081,0.064,-0.003,-0.061,-0.139,-0.093,-0.095
-0.092,0.031,0.122,0.03,-0.107,0.076,0.059,-0.009,-0.064,-0.151,-0.097,-0.101
-0.09,0.03,0.119,0.03,-0.104,0.074,0.055,-0.017,-0.075,-0.157,-0.107,-0.103
-0.092,0.026,0.118,0.033,-0.105,0.072,0.047,-0.024,-0.093,-0.167,-0.116,-0.106
-0.088,0.024,0.112,0.032,-0.1,0.068,0.041,-0.031,-0.088,-0.17,-0.119,-0.104
-0.093,0.039,0.132,0.027,-0.113,0.086,0.035,-0.037,-0.098,-0.174,-0.123,-0.107
-0.108,0.063,0.172,0.022,-0.14,0.117,0.025,-0.046,-0.115,-0.175,-0.131,-0.118
-0.099,0.071,0.17,0.014,-0.135,0.12,0.039,-0.047,-0.12,-0.175,-0.136,-0.121
-0.09,0.069,0.159,0.01,-0.125,0.114,0.05,-0.044,-0.12,-0.175,-0.135,-0.119
-0.09,0.066,0.156,0.012,-0.123,0.111,0.041,-0.047,-0.12,-0.175,-0.135,-0.12
-0.076,0.063,0.14,0.006,-0.109,0.102,0.038,-0.05,-0.12,-0.175,-0.136,-0.12
-0.092,0.082,0.174,0.004,-0.133,0.128,0.031,-0.068,-0.119,-0.175,-0.134,-0.119
-0.103,0.098,0.202,0.003,-0.153,0.15,0.026,-0.077,-0.133,-0.189,-0.143,-0.13
-0.109,0.095,0.204,0.006,-0.157,0.15,0.021,-0.074,-0.142,-0.196,-0.151,-0.136
-0.118,0.095,0.213,0.012,-0.166,0.154,0.017,-0.075,-0.134,-0.189,-0.15,-0.134
-0.107,0.095,0.202,0.006,-0.155,0.149,0.014,-0.075,-0.134,-0.188,-0.15,-0.135
-0.104,0.095,0.199,0.005,-0.152,0.146,0.011,-0.075,-0.128,-0.183,-0.15,-0.135
-0.106,0.095,0.201,0.005,-0.154,0.147,0.004,-0.071,-0.125,-0.18,-0.15,-0.135
-0.113,0.098,0.211,0.008,-0.162,0.154,0.01,-0.07,-0.133,-0.188,-0.146,-0.138
-0.108,0.103,0.211,0.002,-0.16,0.157,0.026,-0.07,-0.135,-0.191,-0.144,-0.142
-0.102,0.1,0.201,0.001,-0.152,0.15,0.025,-0.07,-0.129,-0.19,-0.145,-0.145
-0.096,0.099,0.195,-0.002,-0.146,0.147,0.024,-0.07,-0.127,-0.188,-0.145,-0.149
-0.072,0.116,0.188,-0.022,-0.13,0.152,0.021,-0.073,-0.122,-0.184,-0.145,-0.149
-0.087,0.091,0.178,-0.002,-0.133,0.134,0.019,-0.075,-0.12,-0.185,-0.146,-0.144
-0.117,0.072,0.19,0.022,-0.154,0.131,0.022,-0.077,-0.13,-0.189,-0.15,-0.138
-0.105,0.091,0.196,0.006,-0.15,0.143,0.025,-0.08,-0.127,-0.19,-0.152,-0.135
-0.106,0.083,0.189,0.011,-0.148,0.136,0.025,-0.081,-0.136,-0.191,-0.155,-0.13
-0.105,0.085,0.19,0.009,-0.147,0.137,0.024,-0.073,-0.159,-0.192,-0.151,-0.125
-0.081,0.098,0.179,-0.009,-0.13,0.138,0.026,-0.073,-0.154,-0.186,-0.15,-0.13
-0.104,0.094,0.199,0.005,-0.152,0.146,0.024,-0.089,-0.147,-0.181,-0.15,-0.131
-0.085,0.092,0.177,-0.004,-0.131,0.134,0.03,-0.08,-0.141,-0.177,-0.145,-0.13
-0.057,0.089,0.146,-0.016,-0.102,0.117,0.038,-0.068,-0.135,-0.172,-0.145,-0.128
-0.075,0.086,0.161,-0.005,-0.118,0.123,0.035,-0.071,-0.136,-0.168,-0.144,-0.124
-0.08,0.085,0.165,-0.002,-0.123,0.125,0.035,-0.068,-0.133,-0.165,-0.14,-0.125
-0.091,0.089,0.18,0.0,-0.135,0.134,0.035,-0.065,-0.13,-0.165,-0.14,-0.121
-0.082,0.09,0.172,-0.005,-0.127,0.131,0.035,-0.065,-0.129,-0.165,-0.137,-0.119
-0.077,0.089,0.166,-0.006,-0.122,0.128,0.035,-0.065,-0.133,-0.165,-0.135,-0.12
-0.072,0.091,0.163,-0.01,-0.117,0.127,0.032,-0.065,-0.135,-0.165,-0.135,-0.12
-0.066,0.086,0.153,-0.01,-0.11,0.12,0.029,-0.065,-0.135,-0.165,-0.138,-0.12
-0.084,0.086,0.169,-0.001,-0.127,0.127,0.026,-0.065,-0.139,-0.165,-0.14,-0.121
-0.099,0.08,0.179,0.009,-0.139,0.13,0.023,-0.065,-0.14,-0.165,-0.14,-0.125
-0.091,0.081,0.172,0.005,-0.131,0.126,0.02,-0.065,-0.14,-0.165,-0.139,-0.13
-0.07,0.097,0.167,-0.014,-0.119,0.132,0.022,-0.059,-0.134,-0.165,-0.132,-0.126
-0.058,0.103,0.162,-0.023,-0.111,0.132,0.033,-0.054,-0.128,-0.164,-0.126,-0.119
-0.046,0.108,0.153,-0.031,-0.1,0.13,0.044,-0.046,-0.12,-0.156,-0.12,-0.113
-0.057,0.109,0.166,-0.026,-0.111,0.137,0.043,-0.043,-0.114,-0.145,-0.113,-0.106
-0.05,0.128,0.179,-0.039,-0.115,0.153,0.062,-0.033,-0.103,-0.134,-0.106,-0.099
-0.04,0.125,0.165,-0.043,-0.102,0.145,0.092,-0.012,-0.079,-0.126,-0.105,-0.088
-0.028,0.131,0.159,-0.051,-0.094,0.145,0.092,0.003,-0.072,-0.118,-0.104,-0.075
0.024,0.174,0.15,-0.099,-0.063,0.162,0.02,-0.005,-0.078,-0.114,-0.097,-0.065
0.03,0.174,0.144,-0.102,-0.057,0.159,-0.04,-0.038,-0.08,-0.11,-0.094,-0.066
0.015,0.153,0.138,-0.084,-0.062,0.145,-0.004,-0.043,-0.079,-0.102,-0.083,-0.064
0.028,0.121,0.093,-0.075,-0.033,0.107,0.012,-0.049,-0.093,-0.12,-0.098,-0.069
0.014,0.084,0.07,-0.049,-0.028,0.077,0.013,-0.068,-0.122,-0.13,-0.129,-0.095
-0.02,0.059,0.079,-0.02,-0.05,0.069,0.027,-0.064,-0.134,-0.158,-0.142,-0.11
-0.043,0.059,0.101,-0.008,-0.072,0.08,0.021,-0.076,-0.139,-0.152,-0.143,-0.115
-0.062,0.041,0.103,0.011,-0.083,0.072,0.03,-0.084,-0.153,-0.183,-0.163,-0.131
-0.055,0.054,0.11,0.0,-0.083,0.082,0.02,-0.074,-0.147,-0.168,-0.147,-0.119
-0.058,0.03,0.088,0.014,-0.073,0.058,0.029,-0.088,-0.169,-0.176,-0.164,-0.135
-0.055,0.045,0.099,0.005,-0.078,0.072,0.023,-0.068,-0.139,-0.183,-0.161,-0.127
-0.073,0.017,0.09,0.028,-0.082,0.053,0.034,-0.1,-0.158,-0.154,-0.162,-0.135
-0.072,-0.011,0.061,0.041,-0.066,0.025,0.123,0.121,0.019,-0.172,-0.19,-0.173
0.016,0.052,0.035,-0.034,-0.01,0.043,0.254,0.446,0.316,0.052,-0.116,-0.158
0.247,0.339,0.092,-0.293,0.077,0.215,-0.128,-0.707,-0.382,0.321,0.281,0.199
0.637,1.283,0.646,-0.96,-0.004,0.964,-1.287,-2.628,-1.369,1.691,1.508,1.177
0.353,1.045,0.692,-0.699,-0.17,0.868,-1.636,-2.959,-2.022,1.46,1.284,1.08
-0.206,0.045,0.25,0.08,-0.228,0.147,-1.072,-2.024,-2.05,-0.791,-0.245,0.039
-0.116,0.059,0.175,0.028,-0.145,0.117,-0.528,-0.859,-0.926,-0.609,-0.297,-0.106
-0.037,0.053,0.09,-0.008,-0.064,0.071,-0.055,-0.112,-0.178,-0.108,-0.117,-0.05
-0.041,0.039,0.08,0.0,-0.06,0.059,0.055,0.026,-0.06,-0.205,-0.145,-0.079
-0.014,0.064,0.078,-0.025,-0.046,0.071,0.098,0.107,0.028,-0.063,-0.077,-0.062
-0.03,0.035,0.065,-0.002,-0.048,0.05,0.119,0.134,0.037,-0.149,-0.118,-0.091
-0.012,0.058,0.07,-0.023,-0.041,0.064,0.113,0.147,0.09,-0.069,-0.071,-0.059
-0.017,0.026,0.044,-0.005,-0.031,0.035,0.134,0.179,0.101,-0.104,-0.092,-0.067
0.03,0.038,0.008,-0.034,0.011,0.023,0.118,0.193,0.146,-0.06,-0.064,-0.048
0.045,0.02,-0.025,-0.033,0.035,-0.003,0.127,0.219,0.171,-0.043,-0.06,-0.048
0.031,0.017,-0.014,-0.024,0.022,0.001,0.116,0.23,0.185,-0.026,-0.051,-0.04
0.07,0.032,-0.038,-0.05,0.054,-0.003,0.122,0.245,0.214,0.002,-0.044,-0.023
0.101,0.065,-0.036,-0.082,0.068,0.014,0.114,0.259,0.228,0.011,-0.028,-0.002
0.067,0.054,-0.014,-0.06,0.04,0.02,0.116,0.285,0.265,0.052,0.005,0.029
0.075,0.064,-0.011,-0.07,0.043,0.026,0.109,0.298,0.288,0.06,0.01,0.039
0.113,0.137,0.024,-0.126,0.044,0.081,0.07,0.314,0.31,0.078,0.025,0.042
0.109,0.169,0.06,-0.14,0.024,0.115,0.052,0.34,0.343,0.09,0.03,0.037
0.143,0.171,0.028,-0.157,0.057,0.099,0.043,0.399,0.393,0.133,0.058,0.05
0.164,0.182,0.019,-0.173,0.072,0.1,0.031,0.455,0.451,0.169,0.08,0.075
0.175,0.206,0.031,-0.191,0.072,0.118,0.015,0.519,0.507,0.209,0.106,0.097
0.237,0.217,-0.021,-0.227,0.129,0.098,-0.002,0.608,0.584,0.275,0.16,0.139
0.274,0.207,-0.067,-0.24,0.17,0.07,-0.013,0.687,0.665,0.338,0.214,0.188
0.317,0.205,-0.112,-0.26,0.214,0.046,-0.037,0.767,0.734,0.412,0.284,0.247
0.394,0.235,-0.159,-0.315,0.276,0.038,-0.066,0.815,0.783,0.475,0.343,0.306
0.428,0.267,-0.161,-0.348,0.295,0.053,-0.102,0.829,0.8,0.525,0.389,0.345
0.427,0.277,-0.15,-0.351,0.288,0.063,-0.148,0.807,0.783,0.544,0.428,0.386
0.42,0.26,-0.16,-0.34,0.29,0.05,-0.158,0.735,0.743,0.531,0.449,0.399
0.407,0.231,-0.176,-0.319,0.291,0.027,-0.147,0.618,0.658,0.52,0.44,0.389
0.364,0.19,-0.174,-0.276,0.269,0.008,-0.139,0.48,0.534,0.466,0.38,0.366
0.304,0.111,-0.193,-0.207,0.248,-0.04,-0.092,0.36,0.414,0.363,0.297,0.292
0.22,0.018,-0.202,-0.119,0.211,-0.092,-0.028,0.243,0.293,0.251,0.197,0.204
0.136,-0.063,-0.199,-0.037,0.168,-0.13,0.023,0.165,0.192,0.152,0.104,0.129
0.092,-0.109,-0.201,0.009,0.146,-0.155,0.066,0.115,0.122,0.08,0.037,0.07
0.049,-0.15,-0.199,0.05,0.124,-0.175,0.101,0.079,0.071,0.022,-0.009,0.03
0.007,-0.193,-0.2,0.093,0.104,-0.196,0.129,0.081,0.045,-0.006,-0.035,0.008
-0.009,-0.203,-0.194,0.107,0.093,-0.198,0.141,0.079,0.039,-0.015,-0.058,0.006
-0.007,-0.211,-0.204,0.109,0.098,-0.207,0.144,0.075,0.04,-0.035,-0.066,0.0
-0.02,-0.231,-0.211,0.125,0.096,-0.22,0.149,0.075,0.04,-0.041,-0.065,-0.004
-0.028,-0.236,-0.208,0.133,0.091,-0.222,0.149,0.076,0.04,-0.035,-0.065,-0.007
-0.035,-0.237,-0.202,0.137,0.084,-0.219,0.153,0.083,0.039,-0.033,-0.065,-0.019
-0.024,-0.243,-0.219,0.134,0.098,-0.231,0.168,0.089,0.044,-0.028,-0.065,-0.018
-0.022,-0.254,-0.232,0.138,0.105,-0.242,0.171,0.093,0.048,-0.025,-0.061,-0.006
-0.029,-0.253,-0.224,0.142,0.097,-0.238,0.17,0.098,0.044,-0.021,-0.054,-0.001
0.003,-0.244,-0.248,0.121,0.126,-0.246,0.175,0.099,0.045,-0.02,-0.047,0.003
0.012,-0.245,-0.257,0.117,0.135,-0.251,0.174,0.093,0.045,-0.02,-0.041,0.008
0.02,-0.234,-0.254,0.108,0.137,-0.243,0.177,0.088,0.045,-0.02,-0.034,0.012
0.011,-0.243,-0.254,0.116,0.133,-0.249,0.18,0.084,0.045,-0.02,-0.031,0.017
0.014,-0.259,-0.273,0.123,0.143,-0.266,0.18,0.08,0.04,-0.021,-0.035,0.02
0.027,-0.264,-0.291,0.118,0.159,-0.277,0.18,0.075,0.032,-0.025,-0.035,0.02
0.005,-0.283,-0.288,0.139,0.147,-0.285,0.18,0.071,0.024,-0.025,-0.035,0.022
0.008,-0.29,-0.298,0.142,0.153,-0.294,0.18,0.067,0.016,-0.029,-0.035,0.025
-0.025,-0.305,-0.279,0.165,0.127,-0.291,0.176,0.064,0.009,-0.037,-0.035,0.025
-0.034,-0.316,-0.282,0.176,0.124,-0.299,0.175,0.06,0.005,-0.039,-0.039,0.021
-0.015,-0.324,-0.309,0.17,0.147,-0.316,0.175,0.056,0.003,-0.043,-0.04,0.02
-0.03,-0.338,-0.308,0.184,0.139,-0.323,0.175,0.053,0.0,-0.045,-0.04,0.02
-0.037,-0.339,-0.303,0.189,0.133,-0.321,0.174,0.05,-0.003,-0.049,-0.04,0.015
-0.044,-0.345,-0.3,0.194,0.128,-0.322,0.177,0.05,-0.005,-0.05,-0.04,0.015
-0.021,-0.349,-0.328,0.185,0.154,-0.338,0.188,0.05,-0.005,-0.046,-0.039,0.014
-0.013,-0.349,-0.336,0.181,0.162,-0.342,0.191,0.05,-0.005,-0.044,-0.035,0.01
-0.016,-0.344,-0.328,0.18,0.156,-0.335,0.189,0.05,-0.006,-0.041,-0.035,0.01
-0.01,-0.338,-0.328,0.175,0.159,-0.333,0.19,0.046,-0.01,-0.039,-0.033,0.01
-0.014,-0.335,-0.321,0.175,0.154,-0.328,0.19,0.044,-0.013,-0.034,-0.029,0.01
-0.008,-0.329,-0.321,0.169,0.156,-0.325,0.19,0.045,-0.015,-0.036,-0.03,0.01
-0.003,-0.326,-0.323,0.165,0.161,-0.325,0.19,0.045,-0.019,-0.04,-0.03,0.014
0.004,-0.323,-0.327,0.16,0.166,-0.325,0.19,0.045,-0.02,-0.04,-0.03,0.015
-0.015,-0.334,-0.319,0.175,0.152,-0.326,0.19,0.044,-0.024,-0.045,-0.03,0.015
-0.008,-0.34,-0.332,0.175,0.162,-0.336,0.19,0.04,-0.025,-0.045,-0.03,0.015
0.003,-0.332,-0.335,0.165,0.17,-0.334,0.19,0.041,-0.025,-0.05,-0.03,0.015
-0.013,-0.33,-0.317,0.172,0.152,-0.323,0.188,0.037,-0.03,-0.06,-0.03,0.014
-0.018,-0.324,-0.306,0.171,0.145,-0.315,0.184,0.035,-0.03,-0.07,-0.038,0.009
-0.026,-0.322,-0.296,0.174,0.135,-0.309,0.178,0.035,-0.032,-0.075,-0.039,0.003
-0.004,-0.307,-0.303,0.156,0.15,-0.305,0.175,0.032,-0.035,-0.076,-0.043,0.0
-0.009,-0.28,-0.272,0.145,0.132,-0.276,0.17,0.029,-0.038,-0.091,-0.058,-0.005
-0.034,-0.28,-0.246,0.157,0.106,-0.263,0.165,0.026,-0.04,-0.096,-0.067,-0.01
-0.034,-0.286,-0.252,0.16,0.109,-0.269,0.169,0.023,-0.037,-0.094,-0.069,-0.006
-0.048,-0.288,-0.24,0.169,0.096,-0.264,0.17,0.02,-0.034,-0.096,-0.063,-0.005
-0.033,-0.291,-0.258,0.162,0.113,-0.274,0.172,0.021,-0.031,-0.094,-0.057,-0.005
-0.023,-0.288,-0.265,0.156,0.121,-0.276,0.175,0.025,-0.028,-0.095,-0.052,0.0
-0.027,-0.291,-0.265,0.16,0.119,-0.278,0.176,0.025,-0.026,-0.091,-0.046,0.0
-0.017,-0.307,-0.289,0.162,0.136,-0.298,0.18,0.029,-0.023,-0.09,-0.049,0.001
-0.025,-0.312,-0.287,0.168,0.131,-0.299,0.18,0.031,-0.02,-0.09,-0.05,0.005
-0.047,-0.308,-0.261,0.178,0.107,-0.285,0.18,0.029,-0.02,-0.085,-0.05,0.005
-0.055,-0.311,-0.256,0.183,0.101,-0.283,0.181,0.031,-0.018,-0.085,-0.05,0.005
-0.024,-0.309,-0.285,0.167,0.131,-0.296,0.196,0.029,-0.014,-0.085,-0.05,0.005
-0.016,-0.313,-0.297,0.165,0.141,-0.305,0.205,0.032,-0.015,-0.085,-0.049,0.004
-0.023,-0.334,-0.311,0.179,0.144,-0.322,0.206,0.036,-0.019,-0.085,-0.045,0.01
-0.022,-0.339,-0.318,0.181,0.148,-0.328,0.206,0.033,-0.02,-0.085,-0.045,0.018
-0.027,-0.331,-0.304,0.179,0.139,-0.317,0.201,0.029,-0.02,-0.085,-0.042,0.014
-0.028,-0.327,-0.299,0.178,0.136,-0.313,0.199,0.026,-0.025,-0.085,-0.04,0.008
-0.03,-0.321,-0.291,0.175,0.131,-0.306,0.194,0.021,-0.025,-0.089,-0.04,0.005
-0.022,-0.317,-0.294,0.17,0.136,-0.305,0.191,0.021,-0.026,-0.09,-0.044,0.0
-0.014,-0.311,-0.297,0.163,0.141,-0.304,0.187,0.025,-0.03,-0.09,-0.051,-0.004
-0.008,-0.308,-0.3,0.158,0.147,-0.304,0.182,0.021,-0.03,-0.095,-0.055,-0.009
-0.008,-0.303,-0.295,0.156,0.144,-0.299,0.177,0.019,-0.03,-0.095,-0.058,-0.015
-0.024,-0.288,-0.264,0.157,0.12,-0.276,0.173,0.02,-0.033,-0.096,-0.062,-0.021
-0.029,-0.274,-0.245,0.152,0.108,-0.259,0.169,0.02,-0.04,-0.103,-0.065,-0.026
-0.031,-0.266,-0.235,0.149,0.102,-0.25,0.163,0.02,-0.051,-0.109,-0.069,-0.032
-0.036,-0.254,-0.218,0.145,0.091,-0.235,0.174,0.019,-0.055,-0.112,-0.072,-0.035
-0.025,-0.225,-0.199,0.125,0.087,-0.212,0.177,0.013,-0.059,-0.117,-0.076,-0.035
-0.036,-0.193,-0.157,0.115,0.061,-0.175,0.164,0.007,-0.066,-0.122,-0.084,-0.039
-0.032,-0.172,-0.141,0.102,0.055,-0.156,0.155,0.002,-0.071,-0.129,-0.093,-0.04
0.0,-0.16,-0.16,0.08,0.08,-0.159,0.145,-0.004,-0.075,-0.133,-0.098,-0.042
-0.002,-0.15,-0.147,0.076,0.073,-0.148,0.137,-0.008,-0.078,-0.136,-0.104,-0.045
-0.007,-0.141,-0.134,0.074,0.063,-0.137,0.129,-0.015,-0.082,-0.139,-0.105,-0.046
-0.012,-0.123,-0.11,0.068,0.049,-0.116,0.12,-0.023,-0.084,-0.14,-0.106,-0.055
-0.037,-0.093,-0.056,0.065,0.01,-0.075,0.115,-0.029,-0.096,-0.156,-0.12,-0.07
-0.05,-0.079,-0.029,0.065,-0.01,-0.054,0.107,-0.037,-0.106,-0.166,-0.133,-0.075
-0.044,-0.072,-0.028,0.058,-0.008,-0.05,0.103,-0.045,-0.104,-0.164,-0.136,-0.075
-0.036,-0.063,-0.027,0.05,-0.004,-0.045,0.096,-0.048,-0.106,-0.165,-0.134,-0.078
-0.033,-0.049,-0.016,0.042,-0.008,-0.032,0.092,-0.044,-0.1,-0.162,-0.137,-0.083
-0.032,-0.017,0.014,0.024,-0.023,-0.001,0.087,-0.041,-0.094,-0.157,-0.143,-0.092
-0.042,0.001,0.043,0.02,-0.043,0.022,0.083,-0.039,-0.089,-0.151,-0.136,-0.087
-0.019,0.033,0.052,-0.008,-0.036,0.043,0.105,-0.034,-0.083,-0.147,-0.127,-0.077
0.006,0.076,0.07,-0.041,-0.032,0.073,0.121,-0.021,-0.08,-0.143,-0.121,-0.071
0.004,0.101,0.098,-0.053,-0.047,0.099,0.118,-0.011,-0.079,-0.139,-0.111,-0.061
0.06,0.153,0.094,-0.107,-0.017,0.123,0.039,-0.028,-0.082,-0.147,-0.115,-0.064
0.071,0.153,0.082,-0.112,-0.005,0.117,-0.031,-0.043,-0.078,-0.144,-0.114,-0.067
0.034,0.102,0.068,-0.068,-0.018,0.085,0.013,-0.047,-0.09,-0.153,-0.117,-0.074
0.042,0.078,0.036,-0.06,0.002,0.057,0.041,-0.061,-0.118,-0.158,-0.135,-0.074
0.031,0.026,-0.005,-0.029,0.018,0.01,0.047,-0.076,-0.134,-0.179,-0.162,-0.086
-0.002,0.018,0.019,-0.008,-0.011,0.018,0.054,-0.066,-0.132,-0.196,-0.166,-0.098
-0.038,-0.004,0.034,0.021,-0.036,0.014,0.054,-0.073,-0.152,-0.189,-0.172,-0.105
-0.017,0.005,0.022,0.006,-0.02,0.014,0.057,-0.079,-0.165,-0.233,-0.195,-0.122
-0.051,0.005,0.056,0.023,-0.054,0.031,0.051,-0.087,-0.161,-0.2,-0.181,-0.121
-0.054,0.006,0.06,0.024,-0.057,0.033,0.061,-0.087,-0.179,-0.24,-0.207,-0.138
-0.035,0.051,0.086,-0.008,-0.061,0.068,0.047,-0.079,-0.169,-0.189,-0.181,-0.119
-0.045,-0.019,0.026,0.032,-0.036,0.003,0.081,-0.082,-0.164,-0.232,-0.229,-0.153
0.004,0.029,0.025,-0.017,-0.01,0.027,0.206,0.327,0.156,-0.158,-0.219,-0.173
0.044,0.034,-0.009,-0.04,0.026,0.012,0.22,0.109,0.075,0.032,-0.104,-0.109
0.507,0.792,0.285,-0.65,0.111,0.538,-0.614,-1.787,-0.952,0.667,0.686,0.574
0.554,1.32,0.766,-0.938,-0.106,1.043,-1.636,-3.223,-1.784,1.87,1.656,1.376
0.316,0.773,0.457,-0.545,-0.071,0.615,-1.47,-2.819,-2.249,0.299,0.511,0.613
0.121,0.398,0.277,-0.26,-0.078,0.337,-0.837,-1.568,-1.658,-1.065,-0.492,-0.156
-0.326,0.057,0.383,0.135,-0.354,0.219,-0.315,-0.494,-0.501,-0.28,-0.175,-0.071
-0.348,-0.056,0.292,0.202,-0.32,0.118,0.029,-0.058,-0.177,-0.308,-0.231,-0.145
