-0.054,-0.138,-0.083,0.096,0.015,-0.11,0.025,-0.035,-0.04,-0.3,-0.184,-0.174
-0.053,-0.156,-0.103,0.105,0.025,-0.129,0.027,-0.038,-0.043,-0.303,-0.185,-0.176
-0.063,-0.153,-0.09,0.108,0.014,-0.121,0.032,-0.051,-0.059,-0.312,-0.193,-0.185
-0.06,-0.161,-0.101,0.11,0.021,-0.131,0.035,-0.056,-0.067,-0.322,-0.196,-0.185
-0.05,-0.193,-0.144,0.122,0.047,-0.168,0.029,-0.054,-0.063,-0.326,-0.198,-0.185
-0.054,-0.19,-0.136,0.122,0.041,-0.163,0.022,-0.056,-0.072,-0.329,-0.202,-0.182
-0.059,-0.182,-0.123,0.121,0.032,-0.152,0.016,-0.054,-0.088,-0.333,-0.204,-0.179
-0.058,-0.161,-0.103,0.11,0.023,-0.132,0.009,-0.067,-0.099,-0.335,-0.207,-0.18
-0.054,-0.138,-0.085,0.096,0.016,-0.111,0.002,-0.081,-0.1,-0.33,-0.212,-0.188
-0.051,-0.134,-0.083,0.092,0.016,-0.108,0.002,-0.078,-0.096,-0.33,-0.21,-0.191
-0.047,-0.123,-0.077,0.085,0.015,-0.1,0.005,-0.072,-0.093,-0.33,-0.204,-0.19
-0.043,-0.117,-0.074,0.08,0.016,-0.095,0.009,-0.067,-0.088,-0.325,-0.2,-0.19
-0.041,-0.108,-0.067,0.074,0.013,-0.087,0.01,-0.061,-0.084,-0.325,-0.194,-0.189
-0.028,-0.095,-0.068,0.062,0.02,-0.081,0.005,-0.055,-0.088,-0.322,-0.191,-0.191
-0.018,-0.064,-0.045,0.041,0.014,-0.054,0.005,-0.07,-0.099,-0.313,-0.184,-0.177
-0.015,-0.018,-0.003,0.017,-0.006,-0.01,0.004,-0.063,-0.075,-0.291,-0.178,-0.167
-0.003,0.019,0.022,-0.008,-0.013,0.021,0.007,-0.048,-0.058,-0.273,-0.179,-0.17
0.009,0.022,0.012,-0.016,-0.002,0.017,-0.003,-0.05,-0.052,-0.277,-0.182,-0.17
0.02,0.007,-0.013,-0.013,0.016,-0.003,-0.039,-0.067,-0.059,-0.288,-0.186,-0.17
0.029,-0.011,-0.04,-0.009,0.035,-0.026,-0.059,-0.12,-0.11,-0.297,-0.187,-0.17
-0.006,-0.045,-0.039,0.026,0.016,-0.042,-0.049,-0.119,-0.126,-0.324,-0.192,-0.169
-0.064,-0.077,-0.013,0.071,-0.026,-0.045,-0.052,-0.115,-0.127,-0.322,-0.198,-0.189
-0.092,-0.084,0.008,0.088,-0.05,-0.038,-0.045,-0.118,-0.151,-0.363,-0.239,-0.229
-0.102,-0.045,0.057,0.073,-0.079,0.006,-0.045,-0.145,-0.175,-0.383,-0.245,-0.227
-0.104,-0.062,0.042,0.083,-0.073,-0.01,-0.042,-0.148,-0.172,-0.38,-0.248,-0.245
-0.114,-0.013,0.101,0.064,-0.108,0.044,-0.035,-0.154,-0.192,-0.408,-0.262,-0.257
-0.068,0.017,0.085,0.026,-0.077,0.051,-0.029,-0.145,-0.167,-0.381,-0.274,-0.269
-0.05,0.017,0.068,0.016,-0.06,0.042,0.17,0.312,0.174,-0.436,-0.359,-0.35
0.074,0.176,0.102,-0.126,-0.014,0.139,0.286,0.848,0.866,-0.006,-0.116,-0.196
0.377,0.771,0.393,-0.575,-0.008,0.582,0.025,0.734,1.257,0.963,0.765,0.512
0.306,1.527,1.221,-0.917,-0.458,1.374,-0.396,-0.553,0.747,2.45,1.841,1.259
-0.172,1.018,1.191,-0.423,-0.681,1.104,-0.592,-1.758,-0.872,1.79,1.142,0.762
-0.528,-0.034,0.494,0.281,-0.511,0.23,-0.566,-1.636,-2.332,-1.363,-0.783,-0.412
-0.466,-0.391,0.075,0.429,-0.27,-0.158,-0.55,-1.117,-1.908,-1.884,-1.115,-0.716
-0.193,-0.274,-0.081,0.234,-0.056,-0.177,-0.313,-0.475,-0.827,-0.919,-0.64,-0.505
-0.101,-0.039,0.062,0.07,-0.081,0.011,-0.066,-0.087,-0.257,-0.586,-0.386,-0.328
-0.118,-0.048,0.069,0.083,-0.093,0.01,-0.011,-0.077,-0.045,-0.343,-0.244,-0.247
-0.077,-0.039,0.038,0.058,-0.058,-0.001,0.019,-0.035,-0.033,-0.394,-0.258,-0.242
-0.091,-0.017,0.074,0.054,-0.083,0.028,0.013,-0.045,0.018,-0.327,-0.229,-0.221
-0.107,-0.021,0.085,0.064,-0.096,0.032,0.015,-0.021,0.03,-0.335,-0.231,-0.221
-0.07,-0.006,0.064,0.037,-0.067,0.029,0.016,0.002,0.078,-0.293,-0.205,-0.207
-0.06,0.015,0.076,0.022,-0.068,0.045,0.014,0.002,0.106,-0.267,-0.196,-0.201
-0.057,0.065,0.123,-0.004,-0.09,0.094,0.016,0.018,0.133,-0.254,-0.182,-0.189
-0.04,0.078,0.118,-0.019,-0.08,0.098,0.02,0.045,0.182,-0.208,-0.161,-0.18
-0.03,0.093,0.123,-0.031,-0.076,0.108,0.025,0.079,0.246,-0.178,-0.127,-0.164
-0.024,0.094,0.118,-0.035,-0.071,0.106,0.015,0.125,0.34,-0.107,-0.078,-0.131
0.024,0.162,0.138,-0.093,-0.057,0.15,0.012,0.177,0.426,-0.057,-0.06,-0.107
0.049,0.234,0.185,-0.142,-0.068,0.209,0.005,0.249,0.559,0.027,-0.005,-0.067
0.078,0.27,0.193,-0.174,-0.058,0.231,0.0,0.342,0.712,0.139,0.076,-0.011
0.123,0.329,0.206,-0.227,-0.041,0.267,-0.004,0.446,0.864,0.284,0.188,0.074
0.162,0.388,0.226,-0.275,-0.032,0.307,-0.039,0.531,0.997,0.44,0.313,0.17
0.233,0.486,0.252,-0.36,-0.01,0.369,-0.087,0.542,1.025,0.558,0.414,0.251
0.257,0.584,0.327,-0.421,-0.035,0.455,-0.153,0.505,0.998,0.611,0.473,0.302
0.247,0.609,0.362,-0.429,-0.058,0.485,-0.211,0.439,0.935,0.62,0.48,0.319
0.236,0.588,0.352,-0.412,-0.058,0.47,-0.222,0.349,0.793,0.581,0.463,0.317
0.186,0.525,0.339,-0.356,-0.076,0.432,-0.205,0.241,0.621,0.46,0.386,0.252
0.119,0.432,0.313,-0.276,-0.097,0.372,-0.169,0.155,0.432,0.284,0.252,0.145
0.061,0.35,0.288,-0.206,-0.114,0.319,-0.13,0.084,0.267,0.122,0.124,0.047
-0.004,0.272,0.276,-0.134,-0.14,0.273,-0.101,0.013,0.136,-0.016,0.014,-0.034
-0.033,0.234,0.267,-0.101,-0.15,0.25,-0.086,-0.044,0.028,-0.138,-0.085,-0.107
-0.023,0.224,0.247,-0.101,-0.135,0.235,-0.079,-0.089,-0.051,-0.221,-0.148,-0.168
-0.05,0.213,0.263,-0.082,-0.157,0.238,-0.072,-0.122,-0.109,-0.272,-0.18,-0.197
-0.055,0.208,0.263,-0.077,-0.159,0.236,-0.066,-0.143,-0.136,-0.298,-0.206,-0.214
-0.063,0.169,0.233,-0.053,-0.148,0.201,-0.059,-0.143,-0.139,-0.309,-0.215,-0.216
-0.098,0.129,0.227,-0.016,-0.163,0.178,-0.054,-0.137,-0.132,-0.314,-0.22,-0.214
-0.092,0.13,0.221,-0.019,-0.156,0.175,-0.048,-0.133,-0.127,-0.317,-0.223,-0.215
-0.094,0.131,0.225,-0.019,-0.159,0.177,-0.044,-0.126,-0.122,-0.322,-0.225,-0.214
-0.105,0.123,0.228,-0.009,-0.167,0.175,-0.039,-0.121,-0.116,-0.325,-0.229,-0.216
-0.096,0.134,0.23,-0.019,-0.163,0.182,-0.035,-0.116,-0.111,-0.325,-0.23,-0.222
-0.108,0.118,0.226,-0.005,-0.167,0.172,-0.03,-0.112,-0.11,-0.325,-0.227,-0.226
-0.124,0.094,0.218,0.015,-0.172,0.156,-0.026,-0.106,-0.11,-0.325,-0.224,-0.22
-0.099,0.113,0.212,-0.007,-0.156,0.162,-0.04,-0.103,-0.106,-0.325,-0.221,-0.215
-0.067,0.106,0.173,-0.02,-0.12,0.139,-0.041,-0.097,-0.104,-0.321,-0.218,-0.211
-0.057,0.079,0.136,-0.011,-0.096,0.107,-0.031,-0.096,-0.108,-0.317,-0.216,-0.206
-0.072,0.05,0.122,0.011,-0.097,0.086,-0.026,-0.1,-0.114,-0.311,-0.213,-0.202
-0.089,0.015,0.104,0.037,-0.097,0.059,-0.019,-0.1,-0.117,-0.308,-0.21,-0.2
-0.108,-0.008,0.1,0.058,-0.104,0.045,-0.021,-0.105,-0.113,-0.301,-0.21,-0.197
-0.121,-0.021,0.1,0.071,-0.11,0.039,-0.019,-0.103,-0.122,-0.303,-0.21,-0.194
-0.103,-0.003,0.099,0.053,-0.101,0.048,-0.015,-0.118,-0.151,-0.328,-0.21,-0.19
-0.092,0.01,0.102,0.041,-0.097,0.056,-0.015,-0.14,-0.162,-0.336,-0.21,-0.19
-0.076,0.02,0.096,0.028,-0.087,0.058,-0.017,-0.14,-0.167,-0.334,-0.214,-0.195
-0.073,0.04,0.113,0.016,-0.093,0.076,-0.021,-0.14,-0.173,-0.335,-0.221,-0.198
-0.077,0.041,0.117,0.018,-0.097,0.079,-0.024,-0.14,-0.175,-0.335,-0.225,-0.203
-0.084,0.026,0.111,0.029,-0.098,0.068,-0.026,-0.14,-0.179,-0.335,-0.225,-0.205
-0.112,-0.006,0.107,0.059,-0.11,0.051,-0.024,-0.14,-0.182,-0.337,-0.225,-0.208
-0.099,0.022,0.121,0.038,-0.11,0.072,-0.032,-0.148,-0.186,-0.347,-0.225,-0.211
-0.081,0.075,0.156,0.002,-0.118,0.115,-0.046,-0.152,-0.19,-0.346,-0.224,-0.214
-0.085,0.071,0.155,0.006,-0.12,0.113,-0.044,-0.15,-0.194,-0.343,-0.231,-0.22
-0.074,0.078,0.152,-0.002,-0.113,0.115,-0.047,-0.163,-0.193,-0.342,-0.238,-0.218
-0.065,0.084,0.148,-0.01,-0.107,0.116,-0.049,-0.161,-0.187,-0.337,-0.232,-0.209
-0.063,0.091,0.154,-0.014,-0.108,0.122,-0.051,-0.151,-0.182,-0.335,-0.222,-0.201
-0.035,0.125,0.159,-0.045,-0.097,0.142,-0.044,-0.143,-0.18,-0.332,-0.22,-0.192
-0.015,0.138,0.154,-0.062,-0.085,0.146,-0.015,-0.134,-0.16,-0.323,-0.199,-0.187
-0.001,0.14,0.142,-0.07,-0.071,0.141,-0.009,-0.121,-0.138,-0.296,-0.171,-0.162
0.014,0.153,0.139,-0.084,-0.063,0.146,-0.012,-0.112,-0.14,-0.274,-0.169,-0.137
0.009,0.132,0.123,-0.07,-0.057,0.127,-0.027,-0.118,-0.14,-0.273,-0.17,-0.141
0.016,0.085,0.07,-0.051,-0.027,0.077,-0.061,-0.122,-0.143,-0.279,-0.17,-0.144
-0.02,0.024,0.044,-0.002,-0.032,0.034,-0.069,-0.133,-0.146,-0.274,-0.168,-0.147
-0.064,-0.019,0.045,0.041,-0.054,0.013,-0.03,-0.125,-0.144,-0.29,-0.172,-0.151
-0.08,-0.036,0.044,0.058,-0.061,0.004,0.008,-0.141,-0.154,-0.295,-0.175,-0.159
-0.101,-0.079,0.022,0.09,-0.061,-0.028,0.023,-0.128,-0.16,-0.324,-0.192,-0.171
-0.107,-0.096,0.01,0.102,-0.058,-0.043,0.021,-0.148,-0.161,-0.306,-0.178,-0.155
-0.094,-0.1,-0.006,0.097,-0.043,-0.053,0.023,-0.133,-0.154,-0.315,-0.198,-0.173
-0.104,-0.059,0.045,0.081,-0.074,-0.007,0.016,-0.135,-0.179,-0.339,-0.212,-0.18
-0.086,-0.074,0.012,0.08,-0.049,-0.031,0.022,-0.116,-0.149,-0.318,-0.229,-0.211
-0.043,-0.034,0.009,0.039,-0.026,-0.013,0.229,0.406,0.246,-0.351,-0.286,-0.272
0.132,0.124,-0.007,-0.128,0.069,0.058,0.348,0.984,0.978,0.128,0.017,-0.064
0.426,0.66,0.234,-0.543,0.096,0.447,0.074,0.778,1.302,1.135,0.939,0.681
0.32,1.335,1.015,-0.828,-0.348,1.175,-0.338,-0.701,0.702,2.645,1.997,1.429
-0.165,0.798,0.963,-0.317,-0.565,0.881,-0.537,-1.897,-0.985,1.773,1.165,0.859
-0.51,-0.224,0.286,0.366,-0.398,0.031,-0.549,-1.628,-2.356,-1.382,-0.756,-0.35
-0.407,-0.489,-0.082,0.448,-0.163,-0.285,-0.495,-1.023,-1.774,-1.702,-0.995,-0.62
-0.161,-0.337,-0.176,0.249,0.008,-0.256,-0.219,-0.343,-0.676,-0.75,-0.512,-0.38
-0.106,-0.177,-0.071,0.142,-0.018,-0.124,0.012,0.007,-0.175,-0.474,-0.289,-0.233
-0.091,-0.151,-0.06,0.121,-0.015,-0.105,0.06,-0.027,-0.018,-0.278,-0.194,-0.182
-0.064,-0.122,-0.058,0.093,-0.003,-0.09,0.08,0.004,-0.001,-0.319,-0.202,-0.174
-0.062,-0.097,-0.036,0.08,-0.013,-0.066,0.073,0.005,0.047,-0.242,-0.171,-0.16
-0.063,-0.074,-0.011,0.069,-0.026,-0.042,0.074,0.032,0.052,-0.263,-0.177,-0.157
-0.038,-0.032,0.006,0.035,-0.022,-0.012,0.07,0.041,0.092,-0.235,-0.153,-0.146
-0.046,-0.015,0.031,0.03,-0.038,0.008,0.069,0.05,0.11,-0.223,-0.148,-0.142
-0.041,-0.021,0.02,0.031,-0.031,0.0,0.073,0.078,0.161,-0.192,-0.126,-0.132
-0.022,-0.062,-0.04,0.043,0.009,-0.051,0.092,0.122,0.237,-0.125,-0.083,-0.105
-0.032,-0.071,-0.039,0.052,0.004,-0.055,0.106,0.168,0.309,-0.088,-0.047,-0.071
-0.011,-0.042,-0.03,0.027,0.01,-0.036,0.1,0.218,0.41,-0.018,-0.001,-0.037
0.026,0.001,-0.025,-0.013,0.026,-0.012,0.099,0.287,0.516,0.046,0.043,-0.005
0.055,0.04,-0.015,-0.047,0.034,0.012,0.095,0.384,0.667,0.149,0.104,0.041
0.076,0.062,-0.014,-0.068,0.045,0.023,0.092,0.501,0.826,0.269,0.19,0.11
0.117,0.119,0.002,-0.118,0.057,0.06,0.091,0.602,0.978,0.406,0.296,0.193
0.179,0.161,-0.018,-0.17,0.099,0.071,0.081,0.702,1.113,0.567,0.43,0.298
0.239,0.192,-0.048,-0.215,0.144,0.071,0.035,0.715,1.155,0.701,0.55,0.411
0.257,0.261,0.004,-0.259,0.126,0.132,-0.037,0.668,1.129,0.756,0.614,0.47
0.249,0.302,0.054,-0.276,0.097,0.178,-0.09,0.597,1.042,0.752,0.623,0.468
0.249,0.285,0.035,-0.267,0.107,0.16,-0.101,0.488,0.895,0.705,0.584,0.455
0.208,0.199,-0.009,-0.203,0.108,0.094,-0.085,0.392,0.737,0.602,0.519,0.411
0.135,0.099,-0.036,-0.117,0.085,0.031,-0.045,0.298,0.558,0.439,0.392,0.306
0.102,0.038,-0.064,-0.069,0.082,-0.013,-0.006,0.212,0.386,0.264,0.258,0.194
0.062,-0.018,-0.081,-0.022,0.072,-0.049,0.021,0.132,0.242,0.12,0.143,0.098
0.002,-0.072,-0.075,0.035,0.039,-0.073,0.048,0.068,0.135,0.005,0.048,0.032
-0.026,-0.156,-0.13,0.091,0.052,-0.143,0.072,0.059,0.082,-0.056,0.012,0.009
-0.034,-0.248,-0.214,0.141,0.09,-0.231,0.11,0.053,0.053,-0.08,-0.006,-0.008
-0.045,-0.284,-0.239,0.164,0.097,-0.261,0.127,0.05,0.026,-0.099,-0.016,-0.019
-0.048,-0.283,-0.234,0.166,0.093,-0.258,0.126,0.047,0.012,-0.116,-0.022,-0.026
-0.049,-0.277,-0.228,0.163,0.09,-0.252,0.131,0.042,0.007,-0.125,-0.03,-0.031
-0.053,-0.273,-0.219,0.163,0.083,-0.246,0.126,0.04,0.004,-0.125,-0.037,-0.034
-0.053,-0.268,-0.216,0.161,0.081,-0.242,0.125,0.039,0.001,-0.124,-0.044,-0.039
-0.086,-0.262,-0.177,0.175,0.046,-0.219,0.125,0.041,-0.004,-0.129,-0.049,-0.045
-0.095,-0.256,-0.161,0.176,0.033,-0.208,0.124,0.038,-0.004,-0.136,-0.052,-0.055
-0.055,-0.248,-0.193,0.152,0.069,-0.221,0.126,0.049,0.0,-0.134,-0.059,-0.06
-0.053,-0.244,-0.191,0.149,0.069,-0.217,0.124,0.052,0.005,-0.139,-0.066,-0.06
-0.042,-0.227,-0.185,0.135,0.072,-0.206,0.118,0.04,-0.002,-0.153,-0.063,-0.065
-0.045,-0.199,-0.154,0.122,0.055,-0.176,0.111,0.033,-0.023,-0.163,-0.077,-0.065
-0.068,-0.181,-0.113,0.125,0.023,-0.147,0.104,0.023,-0.038,-0.183,-0.092,-0.069
-0.054,-0.172,-0.118,0.113,0.032,-0.145,0.098,0.009,-0.052,-0.194,-0.092,-0.081
-0.048,-0.158,-0.11,0.104,0.031,-0.134,0.09,-0.013,-0.072,-0.205,-0.096,-0.085
-0.054,-0.154,-0.1,0.104,0.023,-0.127,0.097,-0.033,-0.089,-0.212,-0.098,-0.089
-0.055,-0.178,-0.123,0.117,0.034,-0.15,0.111,-0.041,-0.096,-0.208,-0.102,-0.09
-0.05,-0.188,-0.138,0.119,0.044,-0.163,0.113,-0.043,-0.101,-0.218,-0.105,-0.09
-0.047,-0.178,-0.131,0.113,0.042,-0.155,0.11,-0.047,-0.11,-0.228,-0.108,-0.09
-0.049,-0.176,-0.127,0.113,0.039,-0.151,0.107,-0.05,-0.12,-0.233,-0.112,-0.091
-0.053,-0.171,-0.118,0.113,0.032,-0.144,0.105,-0.053,-0.125,-0.237,-0.115,-0.095
-0.051,-0.165,-0.114,0.108,0.031,-0.139,0.101,-0.057,-0.125,-0.241,-0.115,-0.095
-0.067,-0.171,-0.104,0.119,0.019,-0.137,0.1,-0.06,-0.125,-0.245,-0.115,-0.095
-0.078,-0.181,-0.103,0.13,0.012,-0.142,0.096,-0.06,-0.125,-0.245,-0.115,-0.095
-0.056,-0.18,-0.124,0.118,0.034,-0.152,0.09,-0.063,-0.125,-0.245,-0.115,-0.095
-0.054,-0.176,-0.122,0.115,0.034,-0.148,0.085,-0.069,-0.126,-0.245,-0.119,-0.092
-0.058,-0.175,-0.117,0.117,0.03,-0.146,0.079,-0.072,-0.131,-0.245,-0.126,-0.089
-0.06,-0.172,-0.112,0.116,0.027,-0.142,0.073,-0.077,-0.134,-0.245,-0.13,-0.092
-0.075,-0.168,-0.093,0.122,0.009,-0.13,0.07,-0.082,-0.139,-0.245,-0.13,-0.103
-0.084,-0.162,-0.078,0.123,-0.003,-0.12,0.07,-0.083,-0.14,-0.245,-0.13,-0.105
-0.075,-0.159,-0.084,0.117,0.005,-0.121,0.07,-0.076,-0.14,-0.245,-0.13,-0.105
-0.065,-0.154,-0.089,0.11,0.012,-0.122,0.07,-0.072,-0.14,-0.246,-0.131,-0.11
-0.073,-0.149,-0.076,0.111,0.001,-0.112,0.07,-0.067,-0.14,-0.244,-0.127,-0.111
-0.064,-0.135,-0.071,0.1,0.004,-0.103,0.07,-0.062,-0.129,-0.234,-0.126,-0.109
-0.043,-0.095,-0.051,0.069,0.004,-0.073,0.067,-0.058,-0.119,-0.218,-0.122,-0.1
-0.037,-0.099,-0.062,0.068,0.013,-0.08,0.061,-0.05,-0.115,-0.222,-0.119,-0.09
-0.022,-0.081,-0.059,0.052,0.019,-0.069,0.056,-0.044,-0.112,-0.214,-0.119,-0.08
-0.002,-0.022,-0.02,0.012,0.009,-0.02,0.053,-0.034,-0.114,-0.191,-0.084,-0.069
0.025,0.022,-0.002,-0.023,0.013,0.01,0.047,-0.029,-0.118,-0.179,-0.062,-0.056
0.042,0.014,-0.029,-0.028,0.035,-0.008,0.045,-0.012,-0.121,-0.165,-0.069,-0.047
0.035,-0.081,-0.116,0.023,0.076,-0.098,0.053,-0.023,-0.123,-0.177,-0.073,-0.05
0.017,-0.12,-0.137,0.052,0.078,-0.128,0.054,-0.088,-0.133,-0.187,-0.076,-0.049
-0.015,-0.112,-0.097,0.063,0.042,-0.104,0.062,-0.085,-0.141,-0.206,-0.082,-0.057
-0.03,-0.117,-0.087,0.074,0.028,-0.101,0.061,-0.1,-0.161,-0.22,-0.105,-0.084
-0.053,-0.144,-0.09,0.099,0.019,-0.117,0.074,-0.099,-0.175,-0.247,-0.132,-0.099
-0.091,-0.176,-0.084,0.134,-0.003,-0.13,0.082,-0.105,-0.177,-0.241,-0.122,-0.091
-0.085,-0.227,-0.143,0.156,0.029,-0.185,0.092,-0.09,-0.162,-0.229,-0.126,-0.093
-0.086,-0.198,-0.112,0.142,0.014,-0.155,0.095,-0.072,-0.167,-0.249,-0.127,-0.087
-0.087,-0.23,-0.143,0.159,0.028,-0.186,0.096,-0.089,-0.144,-0.206,-0.121,-0.105
-0.058,-0.246,-0.189,0.152,0.066,-0.217,0.29,0.386,0.197,-0.244,-0.18,-0.171
0.095,-0.037,-0.132,-0.029,0.113,-0.084,0.411,0.994,0.892,0.137,0.032,-0.041
0.4,0.513,0.112,-0.456,0.144,0.312,0.161,0.897,1.28,0.999,0.845,0.618
0.357,1.276,0.918,-0.817,-0.281,1.097,-0.272,-0.55,0.771,2.529,1.968,1.433
-0.117,0.939,1.056,-0.411,-0.587,0.998,-0.529,-1.978,-0.866,2.104,1.431,1.051
-0.506,-0.095,0.412,0.3,-0.459,0.158,-0.569,-1.798,-2.387,-1.093,-0.549,-0.201
-0.464,-0.484,-0.019,0.474,-0.222,-0.251,-0.532,-1.15,-1.961,-1.769,-1.018,-0.612
-0.187,-0.346,-0.158,0.267,-0.014,-0.252,-0.27,-0.463,-0.798,-0.757,-0.521,-0.38
-0.099,-0.153,-0.054,0.126,-0.023,-0.103,-0.005,-0.026,-0.243,-0.462,-0.276,-0.21
-0.092,-0.153,-0.062,0.123,-0.015,-0.107,0.064,-0.03,-0.058,-0.24,-0.15,-0.149
-0.08,-0.123,-0.044,0.102,-0.018,-0.083,0.083,0.0,-0.048,-0.287,-0.166,-0.157
-0.087,-0.097,-0.01,0.092,-0.038,-0.053,0.078,0.001,0.004,-0.216,-0.14,-0.13
-0.075,-0.101,-0.026,0.088,-0.024,-0.063,0.075,0.033,0.032,-0.203,-0.137,-0.109
-0.074,-0.081,-0.008,0.078,-0.033,-0.044,0.073,0.049,0.063,-0.187,-0.112,-0.094
-0.067,-0.083,-0.017,0.075,-0.025,-0.05,0.069,0.062,0.095,-0.162,-0.1,-0.087
-0.062,-0.067,-0.006,0.065,-0.028,-0.036,0.071,0.086,0.132,-0.145,-0.085,-0.079
-0.041,-0.05,-0.009,0.046,-0.016,-0.029,0.069,0.108,0.193,-0.094,-0.061,-0.067
-0.007,-0.003,0.004,0.005,-0.006,0.001,0.071,0.154,0.255,-0.065,-0.038,-0.047
0.0,0.04,0.04,-0.021,-0.02,0.04,0.07,0.194,0.343,-0.007,-0.001,-0.029
-0.006,0.054,0.061,-0.024,-0.034,0.058,0.07,0.269,0.458,0.055,0.04,0.006
0.033,0.071,0.038,-0.052,-0.003,0.054,0.082,0.379,0.614,0.165,0.12,0.069
0.092,0.125,0.033,-0.109,0.029,0.079,0.075,0.488,0.768,0.273,0.192,0.122
0.137,0.236,0.098,-0.187,0.019,0.167,0.041,0.584,0.902,0.387,0.274,0.183
0.197,0.33,0.133,-0.264,0.032,0.231,-0.006,0.661,1.019,0.525,0.384,0.27
0.247,0.369,0.122,-0.309,0.062,0.246,-0.051,0.682,1.078,0.653,0.501,0.377
0.287,0.411,0.125,-0.349,0.081,0.268,-0.102,0.653,1.065,0.729,0.579,0.449
0.284,0.434,0.15,-0.359,0.067,0.292,-0.151,0.589,0.989,0.727,0.599,0.468
0.257,0.401,0.145,-0.329,0.056,0.273,-0.167,0.484,0.851,0.697,0.588,0.461
0.229,0.323,0.094,-0.276,0.068,0.208,-0.155,0.37,0.685,0.613,0.523,0.412
0.169,0.184,0.015,-0.177,0.077,0.099,-0.099,0.286,0.519,0.468,0.421,0.332
0.093,0.039,-0.054,-0.066,0.073,-0.007,-0.04,0.219,0.365,0.322,0.306,0.242
0.03,-0.074,-0.104,0.022,0.068,-0.089,-0.002,0.148,0.231,0.182,0.191,0.152
-0.002,-0.167,-0.165,0.085,0.082,-0.166,0.045,0.097,0.134,0.083,0.113,0.088
-0.037,-0.216,-0.179,0.127,0.071,-0.197,0.071,0.073,0.056,0.001,0.052,0.04
-0.053,-0.275,-0.222,0.165,0.085,-0.248,0.093,0.057,0.016,-0.046,0.024,0.018
-0.055,-0.345,-0.29,0.201,0.118,-0.318,0.114,0.053,0.006,-0.05,0.017,0.021
-0.056,-0.352,-0.296,0.204,0.12,-0.323,0.107,0.056,-0.008,-0.066,0.003,0.018
-0.054,-0.347,-0.293,0.201,0.119,-0.32,0.114,0.055,-0.01,-0.072,-0.002,0.015
-0.06,-0.354,-0.293,0.207,0.117,-0.323,0.114,0.06,-0.013,-0.07,-0.01,0.015
-0.059,-0.343,-0.285,0.201,0.113,-0.314,0.122,0.06,-0.016,-0.07,-0.014,0.018
-0.051,-0.359,-0.308,0.205,0.129,-0.333,0.145,0.06,-0.004,-0.07,-0.008,0.032
-0.044,-0.39,-0.345,0.217,0.15,-0.367,0.145,0.071,0.01,-0.07,-0.001,0.041
-0.043,-0.393,-0.35,0.218,0.154,-0.371,0.147,0.069,0.018,-0.07,0.006,0.044
-0.039,-0.392,-0.352,0.216,0.157,-0.372,0.155,0.07,0.014,-0.075,0.012,0.049
-0.05,-0.408,-0.358,0.229,0.155,-0.383,0.165,0.08,0.012,-0.075,0.019,0.048
-0.034,-0.415,-0.38,0.225,0.173,-0.397,0.166,0.073,0.008,-0.076,0.016,0.042
-0.027,-0.421,-0.394,0.225,0.184,-0.407,0.161,0.069,0.005,-0.081,0.009,0.037
-0.05,-0.428,-0.378,0.239,0.164,-0.403,0.16,0.063,0.005,-0.079,0.005,0.033
-0.038,-0.407,-0.369,0.223,0.166,-0.388,0.155,0.057,-0.007,-0.084,-0.001,0.029
-0.043,-0.398,-0.355,0.221,0.157,-0.376,0.155,0.053,-0.023,-0.098,-0.006,0.024
-0.056,-0.394,-0.338,0.225,0.142,-0.366,0.15,0.042,-0.044,-0.107,-0.011,0.02
-0.038,-0.391,-0.354,0.215,0.158,-0.372,0.143,0.033,-0.056,-0.114,-0.019,0.015
-0.034,-0.378,-0.344,0.207,0.155,-0.361,0.139,0.013,-0.065,-0.122,-0.027,0.01
-0.036,-0.348,-0.312,0.192,0.138,-0.33,0.132,-0.008,-0.082,-0.136,-0.035,0.007
-0.023,-0.332,-0.309,0.178,0.143,-0.32,0.128,-0.021,-0.094,-0.142,-0.043,0.001
-0.022,-0.32,-0.298,0.171,0.138,-0.309,0.122,-0.027,-0.104,-0.136,-0.042,0.002
-0.04,-0.326,-0.286,0.183,0.123,-0.306,0.12,-0.023,-0.101,-0.134,-0.034,0.009
-0.058,-0.328,-0.27,0.193,0.106,-0.298,0.12,-0.037,-0.094,-0.129,-0.028,0.013
-0.051,-0.338,-0.287,0.195,0.118,-0.312,0.119,-0.035,-0.091,-0.125,-0.021,0.019
-0.033,-0.396,-0.364,0.215,0.166,-0.38,0.14,-0.015,-0.084,-0.125,-0.014,0.025
-0.042,-0.428,-0.386,0.235,0.172,-0.407,0.152,-0.01,-0.079,-0.125,-0.009,0.03
-0.048,-0.421,-0.373,0.235,0.163,-0.397,0.149,-0.002,-0.073,-0.125,-0.003,0.035
-0.04,-0.441,-0.402,0.241,0.181,-0.421,0.151,0.004,-0.071,-0.125,0.002,0.035
-0.064,-0.47,-0.405,0.267,0.171,-0.437,0.15,0.011,-0.068,-0.125,0.009,0.035
-0.077,-0.468,-0.39,0.273,0.157,-0.429,0.15,0.014,-0.072,-0.124,0.005,0.035
-0.063,-0.443,-0.38,0.253,0.159,-0.411,0.15,0.007,-0.084,-0.12,-0.005,0.035
-0.067,-0.421,-0.354,0.244,0.144,-0.387,0.15,0.003,-0.078,-0.115,-0.015,0.035
-0.073,-0.435,-0.362,0.255,0.145,-0.398,0.15,-0.003,-0.07,-0.11,-0.023,0.035
-0.071,-0.471,-0.4,0.271,0.165,-0.435,0.148,-0.009,-0.066,-0.108,-0.018,0.031
-0.06,-0.487,-0.428,0.274,0.184,-0.457,0.14,-0.015,-0.056,-0.099,-0.012,0.026
-0.043,-0.471,-0.428,0.258,0.192,-0.449,0.135,-0.01,-0.063,-0.109,-0.007,0.023
-0.064,-0.419,-0.355,0.242,0.146,-0.387,0.126,-0.007,-0.076,-0.126,-0.009,0.02
-0.057,-0.354,-0.298,0.206,0.121,-0.326,0.122,-0.017,-0.071,-0.119,-0.019,0.015
-0.045,-0.339,-0.294,0.192,0.124,-0.316,0.113,-0.018,-0.062,-0.11,-0.023,0.018
-0.041,-0.323,-0.282,0.182,0.121,-0.302,0.111,-0.006,-0.059,-0.104,-0.019,0.026
0.003,-0.273,-0.276,0.136,0.14,-0.274,0.146,0.009,-0.049,-0.094,-0.001,0.035
-0.009,-0.262,-0.253,0.136,0.122,-0.258,0.148,0.021,-0.037,-0.08,0.031,0.059
0.001,-0.249,-0.249,0.124,0.125,-0.249,0.129,0.04,-0.004,-0.056,0.045,0.08
0.051,-0.274,-0.325,0.112,0.188,-0.299,0.125,0.045,0.009,-0.052,0.034,0.079
0.055,-0.344,-0.399,0.145,0.227,-0.371,0.117,-0.01,-0.047,-0.075,0.028,0.073
0.032,-0.36,-0.393,0.164,0.213,-0.376,0.122,-0.025,-0.066,-0.098,0.017,0.061
-0.02,-0.349,-0.329,0.185,0.155,-0.339,0.119,-0.03,-0.075,-0.108,0.002,0.026
-0.039,-0.357,-0.319,0.198,0.14,-0.338,0.119,-0.041,-0.099,-0.134,-0.031,-0.006
-0.032,-0.343,-0.311,0.188,0.14,-0.327,0.123,-0.048,-0.106,-0.169,-0.056,-0.005
-0.041,-0.355,-0.315,0.198,0.137,-0.335,0.12,-0.081,-0.107,-0.147,-0.057,-0.01
-0.051,-0.352,-0.301,0.202,0.125,-0.326,0.133,-0.039,-0.1,-0.185,-0.07,-0.015
-0.064,-0.352,-0.288,0.209,0.112,-0.32,0.111,-0.077,-0.118,-0.146,-0.054,-0.015
-0.046,-0.372,-0.325,0.209,0.14,-0.348,0.228,0.217,0.075,-0.191,-0.128,-0.092
0.053,-0.247,-0.3,0.097,0.177,-0.273,0.417,0.862,0.692,0.031,-0.038,-0.052
0.339,0.123,-0.216,-0.23,0.277,-0.047,0.299,1.105,1.259,0.714,0.563,0.429
0.474,0.932,0.458,-0.703,0.007,0.695,-0.092,0.104,1.129,2.079,1.726,1.326
0.087,1.034,0.946,-0.561,-0.43,0.99,-0.391,-1.65,-0.159,2.677,1.918,1.437
-0.416,0.044,0.46,0.186,-0.438,0.251,-0.457,-1.982,-1.982,-0.054,0.108,0.271
-0.501,-0.562,-0.061,0.532,-0.22,-0.312,-0.504,-1.35,-2.211,-1.813,-0.968,-0.492
-0.24,-0.526,-0.286,0.383,0.024,-0.406,-0.351,-0.709,-1.068,-0.923,-0.598,-0.379
-0.085,-0.334,-0.25,0.21,0.083,-0.292,-0.029,-0.083,-0.304,-0.457,-0.283,-0.175
-0.079,-0.275,-0.196,0.178,0.058,-0.235,0.094,0.034,-0.034,-0.219,-0.117,-0.081
-0.05,-0.314,-0.264,0.182,0.107,-0.288,0.138,0.065,0.039,-0.184,-0.096,-0.051
-0.051,-0.352,-0.301,0.202,0.125,-0.327,0.172,0.117,0.099,-0.134,-0.049,-0.01
-0.047,-0.37,-0.323,0.209,0.139,-0.346,0.181,0.13,0.137,-0.083,-0.017,0.003
-0.025,-0.356,-0.331,0.191,0.153,-0.343,0.192,0.156,0.17,-0.091,-0.016,0.02
-0.041,-0.355,-0.314,0.198,0.137,-0.334,0.192,0.156,0.199,-0.039,0.002,0.026
-0.021,-0.37,-0.349,0.196,0.164,-0.359,0.2,0.204,0.247,-0.019,0.031,0.046
0.01,-0.386,-0.396,0.188,0.203,-0.391,0.199,0.245,0.321,0.046,0.074,0.083
0.018,-0.351,-0.369,0.166,0.194,-0.36,0.196,0.274,0.369,0.062,0.086,0.088
0.04,-0.319,-0.359,0.14,0.2,-0.339,0.193,0.318,0.457,0.123,0.127,0.118
0.061,-0.281,-0.342,0.111,0.202,-0.312,0.188,0.385,0.565,0.182,0.162,0.145
0.081,-0.226,-0.307,0.073,0.194,-0.266,0.186,0.462,0.685,0.247,0.203,0.173
0.101,-0.161,-0.261,0.03,0.181,-0.21,0.174,0.561,0.827,0.341,0.266,0.216
0.163,-0.054,-0.217,-0.054,0.19,-0.136,0.15,0.673,0.974,0.455,0.349,0.278
0.222,0.039,-0.182,-0.13,0.202,-0.071,0.117,0.767,1.107,0.59,0.45,0.361
0.265,0.082,-0.183,-0.173,0.223,-0.05,0.072,0.813,1.186,0.72,0.559,0.453
0.314,0.147,-0.167,-0.23,0.24,-0.01,0.01,0.79,1.181,0.817,0.66,0.545
0.334,0.232,-0.102,-0.283,0.218,0.065,-0.06,0.723,1.12,0.831,0.69,0.577
0.338,0.245,-0.093,-0.291,0.215,0.076,-0.106,0.62,0.998,0.803,0.672,0.567
0.289,0.187,-0.102,-0.238,0.196,0.042,-0.102,0.498,0.841,0.739,0.634,0.536
0.221,0.083,-0.139,-0.152,0.18,-0.028,-0.061,0.396,0.668,0.609,0.537,0.454
0.155,-0.031,-0.186,-0.061,0.171,-0.108,-0.01,0.314,0.497,0.454,0.407,0.351
0.097,-0.108,-0.205,0.005,0.151,-0.156,0.034,0.231,0.346,0.303,0.284,0.253
0.058,-0.17,-0.228,0.057,0.143,-0.199,0.06,0.163,0.218,0.177,0.178,0.173
0.009,-0.241,-0.25,0.116,0.13,-0.246,0.087,0.119,0.139,0.093,0.114,0.118
-0.002,-0.293,-0.291,0.148,0.145,-0.292,0.116,0.097,0.088,0.035,0.076,0.091
-0.008,-0.313,-0.305,0.161,0.149,-0.309,0.125,0.095,0.055,-0.004,0.046,0.083
-0.036,-0.352,-0.315,0.194,0.14,-0.333,0.13,0.088,0.049,-0.016,0.032,0.072
-0.026,-0.379,-0.353,0.202,0.164,-0.366,0.139,0.083,0.05,-0.017,0.027,0.063
-0.014,-0.37,-0.355,0.192,0.171,-0.362,0.147,0.076,0.05,-0.02,0.025,0.056
-0.022,-0.367,-0.345,0.195,0.162,-0.356,0.149,0.078,0.05,-0.025,0.02,0.051
-0.022,-0.361,-0.338,0.192,0.158,-0.349,0.146,0.091,0.05,-0.033,0.017,0.046
-0.025,-0.354,-0.33,0.19,0.153,-0.341,0.141,0.088,0.044,-0.039,0.013,0.04
-0.027,-0.351,-0.324,0.189,0.149,-0.337,0.139,0.082,0.037,-0.046,0.01,0.035
-0.028,-0.337,-0.309,0.183,0.141,-0.323,0.134,0.079,0.03,-0.051,0.01,0.031
-0.023,-0.322,-0.299,0.172,0.139,-0.31,0.131,0.073,0.024,-0.054,0.008,0.028
-0.042,-0.32,-0.277,0.181,0.117,-0.298,0.128,0.07,0.016,-0.062,0.004,0.025
-0.036,-0.32,-0.284,0.178,0.124,-0.302,0.124,0.063,0.005,-0.079,0.006,0.022
-0.006,-0.32,-0.314,0.163,0.154,-0.317,0.126,0.055,-0.007,-0.08,0.0,0.02
-0.017,-0.32,-0.303,0.169,0.143,-0.311,0.121,0.049,-0.018,-0.08,-0.011,0.018
-0.021,-0.32,-0.298,0.171,0.139,-0.309,0.12,0.042,-0.027,-0.096,-0.018,0.012
-0.02,-0.313,-0.294,0.167,0.137,-0.304,0.12,0.033,-0.054,-0.114,-0.037,0.007
-0.018,-0.303,-0.285,0.16,0.134,-0.293,0.113,0.022,-0.074,-0.116,-0.047,0.004
-0.013,-0.297,-0.285,0.155,0.136,-0.291,0.104,0.013,-0.072,-0.114,-0.047,-0.001
-0.019,-0.281,-0.263,0.15,0.122,-0.272,0.095,-0.009,-0.083,-0.134,-0.052,-0.005
-0.03,-0.259,-0.228,0.144,0.099,-0.243,0.087,-0.032,-0.109,-0.153,-0.067,-0.014
-0.055,-0.237,-0.182,0.146,0.064,-0.209,0.066,-0.031,-0.116,-0.157,-0.079,-0.028
-0.06,-0.271,-0.211,0.166,0.076,-0.241,0.087,-0.03,-0.11,-0.145,-0.063,-0.035
-0.026,-0.319,-0.294,0.173,0.134,-0.306,0.113,-0.03,-0.108,-0.137,-0.049,-0.035
-0.019,-0.307,-0.287,0.163,0.134,-0.297,0.101,-0.03,-0.103,-0.143,-0.051,-0.035
-0.038,-0.294,-0.255,0.166,0.109,-0.274,0.096,-0.03,-0.1,-0.143,-0.049,-0.035
-0.04,-0.279,-0.24,0.16,0.1,-0.26,0.089,-0.032,-0.104,-0.15,-0.052,-0.035
-0.028,-0.251,-0.223,0.14,0.098,-0.237,0.082,-0.043,-0.118,-0.162,-0.07,-0.035
-0.015,-0.224,-0.209,0.119,0.098,-0.217,0.078,-0.049,-0.13,-0.168,-0.088,-0.04
-0.008,-0.206,-0.198,0.107,0.095,-0.202,0.073,-0.052,-0.139,-0.17,-0.104,-0.039
0.001,-0.196,-0.197,0.098,0.099,-0.196,0.07,-0.054,-0.142,-0.17,-0.106,-0.047
-0.03,-0.184,-0.155,0.107,0.063,-0.169,0.066,-0.059,-0.151,-0.186,-0.103,-0.059
-0.078,-0.175,-0.097,0.127,0.01,-0.136,0.062,-0.066,-0.17,-0.196,-0.112,-0.066
-0.054,-0.167,-0.113,0.111,0.029,-0.14,0.06,-0.065,-0.17,-0.195,-0.121,-0.075
-0.024,-0.171,-0.146,0.098,0.061,-0.158,0.052,-0.068,-0.17,-0.195,-0.12,-0.078
-0.038,-0.164,-0.127,0.101,0.045,-0.145,0.043,-0.071,-0.17,-0.196,-0.121,-0.08
-0.021,-0.139,-0.118,0.08,0.049,-0.129,0.034,-0.069,-0.17,-0.195,-0.121,-0.085
-0.011,-0.077,-0.066,0.044,0.028,-0.071,0.026,-0.073,-0.169,-0.196,-0.119,-0.084
-0.014,0.014,0.028,0.0,-0.022,0.021,0.018,-0.079,-0.17,-0.204,-0.128,-0.093
0.013,0.043,0.03,-0.028,-0.009,0.036,0.024,-0.085,-0.176,-0.202,-0.127,-0.095
0.033,0.105,0.072,-0.069,-0.02,0.088,0.035,-0.085,-0.167,-0.194,-0.115,-0.08
0.063,0.205,0.142,-0.134,-0.04,0.173,0.025,-0.085,-0.159,-0.193,-0.11,-0.072
0.079,0.2,0.121,-0.139,-0.022,0.16,0.007,-0.085,-0.135,-0.193,-0.098,-0.059
0.074,0.182,0.108,-0.128,-0.017,0.145,-0.034,-0.091,-0.138,-0.206,-0.106,-0.072
0.055,0.146,0.091,-0.101,-0.018,0.118,-0.063,-0.133,-0.185,-0.205,-0.121,-0.089
0.031,0.092,0.061,-0.062,-0.015,0.076,-0.041,-0.129,-0.197,-0.219,-0.135,-0.095
0.004,0.066,0.062,-0.035,-0.03,0.064,-0.012,-0.127,-0.204,-0.232,-0.153,-0.115
-0.031,-0.001,0.029,0.016,-0.03,0.014,0.016,-0.121,-0.206,-0.244,-0.162,-0.125
-0.063,-0.009,0.054,0.036,-0.058,0.022,0.022,-0.107,-0.217,-0.262,-0.159,-0.12
-0.056,-0.046,0.01,0.051,-0.032,-0.018,0.023,-0.118,-0.206,-0.228,-0.15,-0.118
-0.045,-0.064,-0.019,0.055,-0.013,-0.041,0.044,-0.078,-0.199,-0.259,-0.157,-0.117
-0.052,-0.082,-0.03,0.068,-0.011,-0.056,0.023,-0.138,-0.2,-0.204,-0.142,-0.109
-0.013,-0.133,-0.12,0.073,0.054,-0.126,0.171,0.201,0.037,-0.243,-0.22,-0.182
0.068,-0.034,-0.102,-0.017,0.085,-0.068,0.356,0.793,0.626,0.003,-0.115,-0.143
0.345,0.345,0.0,-0.345,0.172,0.172,0.213,0.94,1.147,0.703,0.532,0.387
0.425,1.169,0.744,-0.797,-0.159,0.956,-0.178,0.022,1.016,2.066,1.635,1.224
-0.002,1.139,1.141,-0.568,-0.572,1.14,-0.387,-1.543,-0.233,2.49,1.638,1.169
-0.465,0.148,0.612,0.158,-0.539,0.379,-0.346,-1.812,-2.01,-0.294,-0.159,0.016
-0.506,-0.357,0.149,0.431,-0.327,-0.103,-0.476,-1.269,-2.22,-1.83,-1.051,-0.613
-0.245,-0.368,-0.122,0.307,-0.061,-0.245,-0.384,-0.696,-1.139,-0.948,-0.65,-0.454
-0.095,-0.168,-0.073,0.131,-0.01,-0.12,-0.067,-0.114,-0.416,-0.511,-0.363,-0.262
-0.047,-0.065,-0.017,0.056,-0.015,-0.041,0.024,-0.013,-0.137,-0.252,-0.209,-0.167
-0.045,-0.045,0.0,0.045,-0.022,-0.022,0.043,-0.013,-0.101,-0.251,-0.203,-0.16
-0.04,0.011,0.05,0.014,-0.045,0.03,0.036,0.002,-0.06,-0.213,-0.172,-0.152
-0.017,0.033,0.05,-0.008,-0.034,0.041,0.033,0.002,-0.036,-0.187,-0.169,-0.146
-0.012,0.077,0.089,-0.033,-0.051,0.083,0.031,0.016,-0.017,-0.194,-0.167,-0.143
-0.009,0.095,0.104,-0.043,-0.057,0.099,0.024,0.02,0.013,-0.154,-0.154,-0.131
-0.007,0.124,0.131,-0.059,-0.069,0.127,0.024,0.034,0.03,-0.161,-0.158,-0.119
0.021,0.151,0.13,-0.086,-0.054,0.14,0.016,0.049,0.085,-0.114,-0.117,-0.104
0.037,0.174,0.137,-0.106,-0.05,0.155,0.013,0.087,0.139,-0.091,-0.094,-0.089
0.044,0.225,0.182,-0.135,-0.069,0.203,0.008,0.115,0.213,-0.037,-0.072,-0.068
0.066,0.257,0.191,-0.161,-0.063,0.224,0.003,0.174,0.31,0.018,-0.037,-0.04
0.095,0.285,0.19,-0.19,-0.048,0.238,0.0,0.258,0.436,0.101,0.018,0.003
0.116,0.312,0.196,-0.215,-0.04,0.254,0.005,0.366,0.599,0.218,0.101,0.061
0.169,0.364,0.195,-0.267,-0.013,0.28,0.0,0.472,0.745,0.342,0.193,0.123
0.236,0.448,0.212,-0.342,0.012,0.33,-0.026,0.567,0.885,0.486,0.309,0.216
0.265,0.47,0.205,-0.368,0.03,0.337,-0.069,0.628,0.976,0.636,0.446,0.329
0.316,0.53,0.214,-0.424,0.051,0.372,-0.131,0.606,0.968,0.72,0.519,0.393
0.337,0.611,0.275,-0.474,0.031,0.443,-0.201,0.543,0.912,0.734,0.537,0.417
0.302,0.597,0.296,-0.45,0.003,0.446,-0.228,0.453,0.799,0.715,0.531,0.421
0.283,0.536,0.252,-0.409,0.015,0.393,-0.208,0.358,0.653,0.647,0.489,0.396
0.228,0.412,0.184,-0.321,0.022,0.298,-0.159,0.277,0.493,0.513,0.392,0.319
0.14,0.29,0.151,-0.215,-0.006,0.22,-0.113,0.201,0.326,0.349,0.259,0.21
0.098,0.232,0.134,-0.165,-0.018,0.183,-0.086,0.119,0.171,0.198,0.14,0.113
0.07,0.172,0.102,-0.122,-0.016,0.137,-0.055,0.05,0.051,0.068,0.039,0.037
0.026,0.12,0.094,-0.073,-0.035,0.107,-0.026,0.001,-0.025,-0.022,-0.031,-0.023
0.012,0.107,0.095,-0.06,-0.042,0.101,-0.004,-0.03,-0.09,-0.087,-0.078,-0.058
0.008,0.1,0.092,-0.054,-0.042,0.096,0.001,-0.05,-0.135,-0.131,-0.107,-0.079
0.001,0.09,0.09,-0.046,-0.045,0.09,0.003,-0.07,-0.15,-0.154,-0.133,-0.102
-0.007,0.083,0.09,-0.038,-0.048,0.086,0.006,-0.065,-0.149,-0.166,-0.147,-0.105
-0.026,0.072,0.098,-0.023,-0.062,0.085,0.009,-0.057,-0.146,-0.17,-0.144,-0.108
-0.031,0.063,0.094,-0.016,-0.063,0.079,0.01,-0.051,-0.144,-0.176,-0.145,-0.112
-0.027,0.052,0.079,-0.012,-0.053,0.065,0.005,-0.046,-0.139,-0.175,-0.145,-0.108
-0.027,0.044,0.071,-0.009,-0.049,0.057,0.005,-0.051,-0.142,-0.175,-0.144,-0.108
-0.024,0.037,0.061,-0.007,-0.043,0.049,0.004,-0.049,-0.145,-0.175,-0.15,-0.103
-0.027,0.03,0.056,-0.002,-0.042,0.043,0.0,-0.053,-0.15,-0.175,-0.153,-0.106
-0.026,0.023,0.049,0.001,-0.038,0.035,0.001,-0.055,-0.161,-0.179,-0.15,-0.117
-0.029,0.015,0.044,0.007,-0.037,0.029,-0.002,-0.055,-0.167,-0.186,-0.15,-0.121
-0.019,0.028,0.047,-0.005,-0.033,0.037,-0.007,-0.058,-0.178,-0.191,-0.15,-0.12
0.0,0.041,0.041,-0.021,-0.021,0.041,-0.011,-0.068,-0.19,-0.198,-0.15,-0.12
-0.01,0.057,0.067,-0.024,-0.039,0.062,-0.015,-0.083,-0.207,-0.21,-0.15,-0.12
-0.003,0.06,0.062,-0.029,-0.032,0.061,-0.021,-0.087,-0.213,-0.214,-0.156,-0.12
-0.005,0.063,0.068,-0.029,-0.037,0.065,-0.03,-0.098,-0.236,-0.23,-0.179,-0.131
-0.021,0.099,0.12,-0.039,-0.07,0.109,-0.037,-0.122,-0.267,-0.257,-0.202,-0.151
-0.011,0.12,0.131,-0.055,-0.071,0.125,-0.045,-0.132,-0.274,-0.266,-0.21,-0.156
-0.004,0.149,0.152,-0.073,-0.078,0.15,-0.049,-0.129,-0.286,-0.268,-0.21,-0.16
-0.001,0.164,0.165,-0.082,-0.083,0.164,-0.051,-0.129,-0.292,-0.274,-0.214,-0.165
0.006,0.162,0.156,-0.084,-0.075,0.158,-0.049,-0.146,-0.295,-0.277,-0.215,-0.169
0.004,0.169,0.165,-0.086,-0.081,0.167,-0.054,-0.165,-0.302,-0.281,-0.217,-0.168
-0.019,0.17,0.189,-0.076,-0.104,0.179,-0.067,-0.168,-0.306,-0.286,-0.221,-0.164
-0.026,0.175,0.201,-0.074,-0.114,0.187,-0.071,-0.172,-0.309,-0.29,-0.219,-0.165
-0.026,0.175,0.201,-0.075,-0.114,0.188,-0.069,-0.174,-0.31,-0.29,-0.22,-0.165
-0.033,0.174,0.207,-0.071,-0.121,0.191,-0.074,-0.177,-0.312,-0.29,-0.225,-0.178
-0.035,0.176,0.21,-0.071,-0.123,0.192,-0.075,-0.188,-0.315,-0.29,-0.232,-0.186
-0.037,0.177,0.214,-0.07,-0.126,0.195,-0.075,-0.195,-0.318,-0.289,-0.239,-0.192
-0.025,0.197,0.222,-0.086,-0.124,0.209,-0.082,-0.195,-0.321,-0.298,-0.245,-0.199
-0.022,0.222,0.244,-0.1,-0.133,0.233,-0.082,-0.196,-0.332,-0.301,-0.25,-0.196
-0.041,0.225,0.266,-0.093,-0.153,0.245,-0.08,-0.194,-0.335,-0.301,-0.25,-0.195
-0.049,0.211,0.26,-0.081,-0.155,0.235,-0.079,-0.187,-0.325,-0.298,-0.252,-0.195
-0.026,0.24,0.266,-0.107,-0.147,0.253,-0.082,-0.185,-0.323,-0.293,-0.254,-0.19
-0.006,0.286,0.292,-0.14,-0.149,0.289,-0.106,-0.179,-0.314,-0.295,-0.256,-0.19
-0.008,0.274,0.282,-0.133,-0.145,0.278,-0.113,-0.176,-0.313,-0.288,-0.249,-0.189
0.025,0.329,0.303,-0.177,-0.139,0.316,-0.113,-0.178,-0.301,-0.266,-0.223,-0.182
0.04,0.424,0.384,-0.232,-0.173,0.404,-0.122,-0.181,-0.286,-0.261,-0.214,-0.178
0.031,0.405,0.374,-0.218,-0.171,0.389,-0.113,-0.185,-0.286,-0.255,-0.214,-0.17
0.049,0.368,0.318,-0.209,-0.135,0.343,-0.134,-0.185,-0.281,-0.257,-0.216,-0.167
0.061,0.352,0.292,-0.207,-0.116,0.322,-0.157,-0.218,-0.32,-0.272,-0.216,-0.164
0.032,0.336,0.304,-0.185,-0.136,0.32,-0.132,-0.218,-0.34,-0.307,-0.245,-0.187
-0.017,0.331,0.348,-0.157,-0.183,0.339,-0.129,-0.217,-0.348,-0.319,-0.277,-0.223
-0.013,0.316,0.329,-0.152,-0.171,0.322,-0.122,-0.221,-0.369,-0.349,-0.293,-0.236
-0.029,0.32,0.349,-0.146,-0.189,0.334,-0.121,-0.242,-0.391,-0.354,-0.298,-0.245
-0.046,0.298,0.344,-0.126,-0.195,0.321,-0.12,-0.242,-0.393,-0.339,-0.305,-0.256
-0.065,0.307,0.372,-0.121,-0.219,0.339,-0.11,-0.227,-0.396,-0.368,-0.31,-0.255
-0.038,0.286,0.324,-0.124,-0.181,0.305,-0.122,-0.244,-0.371,-0.315,-0.299,-0.261
0.006,0.303,0.297,-0.154,-0.146,0.3,0.047,0.142,-0.071,-0.375,-0.387,-0.347
0.098,0.446,0.348,-0.272,-0.126,0.397,0.172,0.648,0.54,-0.019,-0.212,-0.248
0.359,0.934,0.575,-0.647,-0.108,0.754,-0.051,0.633,0.951,0.779,0.55,0.385
0.323,1.713,1.39,-1.018,-0.533,1.551,-0.417,-0.418,0.634,2.213,1.618,1.125
-0.141,1.395,1.536,-0.627,-0.839,1.466,-0.508,-1.69,-0.789,2.0,1.156,0.751
-0.516,0.431,0.946,0.042,-0.731,0.688,-0.478,-1.744,-2.385,-1.082,-0.732,-0.414
-0.403,0.136,0.539,0.133,-0.471,0.337,-0.622,-1.273,-2.232,-1.946,-1.236,-0.794
-0.152,0.16,0.311,-0.004,-0.232,0.235,-0.464,-0.695,-1.155,-0.988,-0.78,-0.582
-0.076,0.326,0.402,-0.125,-0.239,0.363,-0.196,-0.218,-0.519,-0.627,-0.493,-0.394
-0.036,0.409,0.445,-0.187,-0.241,0.427,-0.145,-0.188,-0.284,-0.363,-0.356,-0.295
-0.018,0.384,0.403,-0.183,-0.211,0.393,-0.11,-0.172,-0.258,-0.396,-0.367,-0.278
-0.009,0.403,0.411,-0.197,-0.211,0.407,-0.101,-0.147,-0.179,-0.309,-0.31,-0.247
-0.012,0.388,0.4,-0.188,-0.206,0.394,-0.092,-0.131,-0.165,-0.29,-0.298,-0.245
-0.008,0.399,0.407,-0.196,-0.208,0.403,-0.095,-0.115,-0.144,-0.268,-0.266,-0.232
-0.015,0.391,0.406,-0.188,-0.211,0.398,-0.096,-0.104,-0.109,-0.241,-0.256,-0.225
-0.015,0.397,0.412,-0.191,-0.214,0.404,-0.093,-0.082,-0.072,-0.229,-0.246,-0.221
0.013,0.427,0.415,-0.221,-0.202,0.421,-0.096,-0.059,-0.009,-0.177,-0.217,-0.201
0.032,0.445,0.413,-0.239,-0.191,0.429,-0.094,-0.027,0.037,-0.155,-0.199,-0.178
0.031,0.486,0.455,-0.258,-0.213,0.47,-0.102,-0.002,0.109,-0.106,-0.175,-0.161
0.057,0.54,0.483,-0.299,-0.213,0.511,-0.107,0.044,0.201,-0.043,-0.141,-0.149
0.098,0.621,0.523,-0.36,-0.213,0.572,-0.129,0.099,0.308,0.034,-0.094,-0.122
0.124,0.698,0.574,-0.411,-0.225,0.635,-0.154,0.176,0.446,0.123,-0.031,-0.073
0.182,0.801,0.619,-0.492,-0.219,0.71,-0.182,0.259,0.585,0.26,0.058,-0.013
0.229,0.928,0.698,-0.579,-0.235,0.813,-0.237,0.321,0.702,0.384,0.16,0.063
0.286,1.009,0.723,-0.648,-0.219,0.866,-0.29,0.346,0.761,0.514,0.271,0.15
0.318,1.098,0.78,-0.708,-0.231,0.939,-0.351,0.322,0.738,0.593,0.346,0.212
0.31,1.153,0.843,-0.732,-0.267,0.998,-0.408,0.271,0.684,0.594,0.366,0.231
0.3,1.147,0.846,-0.724,-0.273,0.996,-0.432,0.188,0.57,0.577,0.34,0.216
0.26,1.103,0.843,-0.682,-0.292,0.972,-0.422,0.091,0.403,0.469,0.272,0.17
0.221,1.056,0.835,-0.639,-0.307,0.945,-0.387,0.0,0.213,0.289,0.137,0.058
0.162,0.993,0.832,-0.578,-0.335,0.912,-0.35,-0.082,0.041,0.112,0.002,-0.054
0.081,0.899,0.818,-0.49,-0.369,0.858,-0.311,-0.146,-0.093,-0.037,-0.102,-0.133
0.04,0.825,0.785,-0.433,-0.373,0.805,-0.283,-0.205,-0.211,-0.156,-0.207,-0.215
0.011,0.728,0.717,-0.37,-0.353,0.722,-0.251,-0.228,-0.272,-0.234,-0.261,-0.247
-0.008,0.651,0.659,-0.321,-0.334,0.655,-0.212,-0.231,-0.307,-0.271,-0.287,-0.254
-0.005,0.597,0.602,-0.296,-0.304,0.6,-0.197,-0.241,-0.332,-0.291,-0.3,-0.261
-0.018,0.548,0.566,-0.265,-0.292,0.557,-0.183,-0.239,-0.337,-0.291,-0.3,-0.259
-0.026,0.549,0.575,-0.262,-0.3,0.562,-0.174,-0.24,-0.342,-0.287,-0.299,-0.259
-0.022,0.553,0.575,-0.266,-0.299,0.564,-0.176,-0.24,-0.343,-0.302,-0.307,-0.267
-0.034,0.553,0.587,-0.259,-0.311,0.569,-0.173,-0.24,-0.347,-0.32,-0.321,-0.281
-0.038,0.561,0.599,-0.262,-0.319,0.58,-0.17,-0.24,-0.349,-0.326,-0.329,-0.289
-0.017,0.569,0.586,-0.276,-0.302,0.578,-0.169,-0.24,-0.352,-0.323,-0.33,-0.298
-0.001,0.566,0.567,-0.282,-0.284,0.566,-0.177,-0.24,-0.355,-0.331,-0.33,-0.301
-0.037,0.559,0.596,-0.261,-0.316,0.577,-0.186,-0.24,-0.355,-0.35,-0.346,-0.299
-0.05,0.557,0.607,-0.254,-0.329,0.582,-0.184,-0.241,-0.355,-0.355,-0.357,-0.301
-0.019,0.549,0.569,-0.265,-0.294,0.559,-0.185,-0.24,-0.355,-0.358,-0.354,-0.299
-0.019,0.548,0.567,-0.265,-0.293,0.557,-0.184,-0.239,-0.365,-0.363,-0.355,-0.301
-0.01,0.543,0.553,-0.266,-0.283,0.548,-0.185,-0.233,-0.381,-0.366,-0.356,-0.305
-0.011,0.546,0.557,-0.268,-0.284,0.551,-0.187,-0.245,-0.381,-0.374,-0.353,-0.304
-0.023,0.57,0.593,-0.274,-0.308,0.581,-0.193,-0.273,-0.399,-0.394,-0.366,-0.313
-0.04,0.569,0.609,-0.265,-0.325,0.589,-0.204,-0.274,-0.419,-0.41,-0.382,-0.322
-0.047,0.557,0.605,-0.255,-0.326,0.581,-0.205,-0.283,-0.411,-0.411,-0.38,-0.319
-0.036,0.55,0.586,-0.257,-0.311,0.568,-0.204,-0.292,-0.434,-0.411,-0.376,-0.32
-0.035,0.541,0.575,-0.253,-0.305,0.558,-0.205,-0.283,-0.446,-0.405,-0.375,-0.32
-0.02,0.528,0.548,-0.254,-0.285,0.538,-0.204,-0.278,-0.435,-0.4,-0.372,-0.32
-0.048,0.513,0.56,-0.233,-0.304,0.536,-0.204,-0.27,-0.433,-0.394,-0.37,-0.315
-0.021,0.49,0.511,-0.234,-0.267,0.5,-0.19,-0.264,-0.418,-0.388,-0.369,-0.304
-0.003,0.446,0.449,-0.222,-0.226,0.448,-0.176,-0.259,-0.397,-0.384,-0.361,-0.296
-0.056,0.421,0.477,-0.183,-0.267,0.449,-0.173,-0.253,-0.389,-0.378,-0.354,-0.288
-0.04,0.426,0.466,-0.193,-0.254,0.446,-0.176,-0.247,-0.388,-0.373,-0.348,-0.28
-0.045,0.416,0.461,-0.185,-0.253,0.438,-0.182,-0.242,-0.384,-0.367,-0.34,-0.272
-0.031,0.428,0.459,-0.199,-0.245,0.444,-0.18,-0.235,-0.381,-0.36,-0.332,-0.265
-0.006,0.466,0.472,-0.23,-0.24,0.469,-0.194,-0.232,-0.379,-0.349,-0.326,-0.257
-0.021,0.458,0.479,-0.219,-0.25,0.468,-0.171,-0.224,-0.372,-0.34,-0.318,-0.251
0.027,0.497,0.47,-0.262,-0.222,0.483,-0.148,-0.217,-0.354,-0.329,-0.297,-0.244
0.048,0.542,0.494,-0.295,-0.223,0.518,-0.161,-0.209,-0.331,-0.303,-0.281,-0.235
0.055,0.524,0.469,-0.289,-0.207,0.496,-0.159,-0.173,-0.324,-0.286,-0.279,-0.227
0.078,0.48,0.401,-0.279,-0.162,0.44,-0.193,-0.194,-0.326,-0.293,-0.28,-0.218
0.055,0.388,0.333,-0.222,-0.139,0.36,-0.213,-0.242,-0.345,-0.288,-0.279,-0.218
0.054,0.336,0.283,-0.195,-0.115,0.309,-0.164,-0.219,-0.344,-0.301,-0.28,-0.223
0.026,0.34,0.313,-0.183,-0.144,0.326,-0.133,-0.231,-0.356,-0.315,-0.283,-0.228
-0.024,0.323,0.348,-0.15,-0.186,0.335,-0.138,-0.249,-0.385,-0.355,-0.328,-0.26
-0.045,0.331,0.376,-0.144,-0.211,0.353,-0.156,-0.268,-0.401,-0.381,-0.338,-0.275
-0.039,0.311,0.349,-0.136,-0.194,0.33,-0.157,-0.273,-0.39,-0.353,-0.33,-0.277
-0.031,0.321,0.352,-0.145,-0.192,0.336,-0.149,-0.239,-0.386,-0.392,-0.351,-0.274
-0.034,0.312,0.345,-0.139,-0.19,0.328,-0.165,-0.276,-0.398,-0.343,-0.324,-0.271
-0.003,0.303,0.306,-0.15,-0.155,0.305,-0.009,0.063,-0.144,-0.386,-0.404,-0.365
0.095,0.443,0.348,-0.269,-0.127,0.396,0.148,0.59,0.483,-0.077,-0.263,-0.3
0.35,0.895,0.544,-0.623,-0.097,0.72,-0.034,0.65,0.951,0.708,0.441,0.274
0.376,1.685,1.309,-1.031,-0.467,1.497,-0.409,-0.266,0.697,2.1,1.557,1.084
-0.056,1.446,1.502,-0.695,-0.779,1.474,-0.545,-1.536,-0.663,2.219,1.347,0.878
-0.47,0.419,0.889,0.025,-0.68,0.654,-0.485,-1.699,-2.325,-0.752,-0.566,-0.307
-0.46,0.015,0.475,0.222,-0.467,0.245,-0.599,-1.296,-2.339,-2.027,-1.269,-0.796
-0.198,0.01,0.208,0.093,-0.203,0.109,-0.473,-0.737,-1.267,-1.061,-0.811,-0.59
-0.058,0.169,0.227,-0.056,-0.142,0.197,-0.185,-0.23,-0.549,-0.619,-0.498,-0.375
-0.031,0.249,0.279,-0.109,-0.155,0.263,-0.119,-0.182,-0.269,-0.339,-0.326,-0.279
-0.035,0.288,0.324,-0.127,-0.18,0.306,-0.102,-0.163,-0.263,-0.36,-0.348,-0.288
-0.023,0.321,0.344,-0.15,-0.184,0.332,-0.106,-0.154,-0.215,-0.304,-0.308,-0.262
-0.024,0.295,0.319,-0.136,-0.171,0.307,-0.105,-0.142,-0.19,-0.283,-0.309,-0.256
-0.021,0.347,0.368,-0.163,-0.195,0.357,-0.104,-0.123,-0.155,-0.272,-0.288,-0.242
0.006,0.348,0.343,-0.177,-0.169,0.345,-0.106,-0.122,-0.118,-0.229,-0.255,-0.233
0.015,0.356,0.341,-0.186,-0.163,0.348,-0.105,-0.103,-0.098,-0.227,-0.245,-0.232
0.025,0.414,0.389,-0.22,-0.182,0.401,-0.116,-0.094,-0.055,-0.191,-0.227,-0.225
0.026,0.475,0.449,-0.251,-0.212,0.462,-0.124,-0.076,-0.025,-0.187,-0.234,-0.222
0.046,0.511,0.465,-0.279,-0.21,0.488,-0.13,-0.053,0.051,-0.128,-0.202,-0.203
0.065,0.556,0.491,-0.311,-0.213,0.523,-0.143,-0.004,0.132,-0.084,-0.159,-0.183
0.099,0.645,0.545,-0.372,-0.223,0.594,-0.162,0.051,0.242,-0.008,-0.119,-0.157
0.148,0.676,0.529,-0.412,-0.191,0.602,-0.158,0.142,0.397,0.111,-0.048,-0.092
0.175,0.725,0.55,-0.45,-0.188,0.637,-0.167,0.244,0.548,0.243,0.051,-0.024
0.228,0.815,0.587,-0.522,-0.18,0.701,-0.2,0.319,0.69,0.391,0.167,0.062
0.284,0.899,0.615,-0.592,-0.166,0.757,-0.247,0.354,0.754,0.529,0.279,0.154
0.314,1.0,0.686,-0.657,-0.186,0.843,-0.31,0.34,0.738,0.608,0.347,0.201
0.319,1.055,0.736,-0.687,-0.208,0.895,-0.361,0.296,0.686,0.614,0.371,0.241
0.304,1.055,0.75,-0.68,-0.223,0.902,-0.388,0.218,0.573,0.587,0.36,0.235
0.265,0.985,0.72,-0.625,-0.228,0.852,-0.374,0.139,0.428,0.503,0.309,0.188
0.205,0.901,0.696,-0.553,-0.246,0.798,-0.335,0.057,0.247,0.333,0.183,0.096
0.145,0.805,0.66,-0.475,-0.258,0.732,-0.296,-0.025,0.079,0.157,0.044,-0.01
0.1,0.724,0.624,-0.412,-0.262,0.673,-0.269,-0.096,-0.061,0.006,-0.071,-0.101
0.053,0.676,0.623,-0.365,-0.285,0.65,-0.235,-0.165,-0.182,-0.123,-0.164,-0.177
-0.001,0.581,0.581,-0.29,-0.291,0.581,-0.203,-0.196,-0.248,-0.2,-0.219,-0.208
-0.016,0.526,0.542,-0.256,-0.279,0.534,-0.196,-0.212,-0.293,-0.253,-0.258,-0.237
-0.025,0.516,0.541,-0.245,-0.283,0.528,-0.189,-0.233,-0.327,-0.287,-0.281,-0.255
-0.039,0.494,0.533,-0.227,-0.286,0.513,-0.183,-0.234,-0.334,-0.3,-0.293,-0.258
-0.04,0.482,0.522,-0.221,-0.281,0.502,-0.175,-0.225,-0.325,-0.298,-0.286,-0.251
-0.019,0.488,0.507,-0.235,-0.263,0.497,-0.17,-0.217,-0.319,-0.288,-0.281,-0.243
-0.017,0.455,0.471,-0.22,-0.244,0.463,-0.152,-0.209,-0.313,-0.281,-0.276,-0.238
-0.035,0.391,0.425,-0.178,-0.23,0.408,-0.128,-0.202,-0.305,-0.273,-0.269,-0.231
-0.022,0.363,0.385,-0.17,-0.204,0.374,-0.123,-0.188,-0.294,-0.266,-0.265,-0.226
-0.023,0.328,0.351,-0.153,-0.187,0.339,-0.12,-0.178,-0.288,-0.265,-0.26,-0.221
-0.026,0.304,0.33,-0.139,-0.179,0.317,-0.116,-0.171,-0.29,-0.265,-0.257,-0.216
-0.024,0.3,0.324,-0.138,-0.174,0.311,-0.112,-0.164,-0.293,-0.265,-0.253,-0.212
-0.025,0.293,0.318,-0.134,-0.172,0.305,-0.109,-0.162,-0.296,-0.265,-0.25,-0.208
-0.027,0.288,0.315,-0.131,-0.171,0.301,-0.105,-0.165,-0.298,-0.265,-0.244,-0.202
-0.032,0.282,0.314,-0.125,-0.174,0.298,-0.105,-0.168,-0.302,-0.265,-0.253,-0.215
-0.042,0.277,0.319,-0.117,-0.181,0.297,-0.103,-0.17,-0.298,-0.265,-0.262,-0.228
-0.048,0.271,0.319,-0.112,-0.184,0.295,-0.1,-0.177,-0.306,-0.277,-0.258,-0.222
-0.056,0.265,0.32,-0.105,-0.188,0.292,-0.098,-0.184,-0.317,-0.287,-0.253,-0.219
-0.053,0.271,0.324,-0.11,-0.188,0.297,-0.107,-0.196,-0.331,-0.301,-0.266,-0.231
-0.025,0.301,0.325,-0.138,-0.175,0.313,-0.121,-0.207,-0.354,-0.315,-0.282,-0.242
-0.011,0.312,0.323,-0.151,-0.167,0.317,-0.119,-0.203,-0.355,-0.316,-0.279,-0.244
-0.008,0.311,0.319,-0.151,-0.164,0.315,-0.12,-0.209,-0.354,-0.32,-0.281,-0.249
-0.003,0.317,0.321,-0.157,-0.162,0.318,-0.119,-0.221,-0.357,-0.323,-0.279,-0.252
0.0,0.317,0.318,-0.158,-0.159,0.317,-0.123,-0.227,-0.369,-0.326,-0.286,-0.256
-0.024,0.322,0.346,-0.15,-0.185,0.334,-0.132,-0.238,-0.376,-0.33,-0.304,-0.263
-0.046,0.338,0.384,-0.146,-0.215,0.36,-0.131,-0.245,-0.37,-0.338,-0.306,-0.262
-0.052,0.333,0.386,-0.141,-0.219,0.359,-0.129,-0.245,-0.37,-0.34,-0.31,-0.259
-0.059,0.324,0.382,-0.133,-0.221,0.353,-0.131,-0.245,-0.37,-0.332,-0.314,-0.26
-0.049,0.344,0.392,-0.148,-0.221,0.368,-0.13,-0.243,-0.37,-0.331,-0.315,-0.26
-0.035,0.364,0.399,-0.165,-0.217,0.381,-0.13,-0.235,-0.37,-0.325,-0.308,-0.261
-0.027,0.366,0.393,-0.17,-0.21,0.379,-0.131,-0.229,-0.368,-0.322,-0.301,-0.259
-0.03,0.363,0.393,-0.167,-0.212,0.379,-0.127,-0.222,-0.36,-0.315,-0.296,-0.252
-0.032,0.365,0.397,-0.167,-0.215,0.38,-0.139,-0.215,-0.353,-0.315,-0.292,-0.247
-0.01,0.381,0.392,-0.186,-0.201,0.386,-0.134,-0.22,-0.349,-0.312,-0.287,-0.241
0.002,0.428,0.426,-0.215,-0.212,0.427,-0.123,-0.219,-0.336,-0.273,-0.249,-0.243
0.008,0.473,0.465,-0.24,-0.229,0.468,-0.136,-0.225,-0.32,-0.259,-0.228,-0.246
0.024,0.464,0.439,-0.244,-0.208,0.451,-0.159,-0.224,-0.3,-0.257,-0.24,-0.244
0.018,0.452,0.435,-0.235,-0.209,0.444,-0.203,-0.233,-0.328,-0.28,-0.256,-0.247
0.021,0.446,0.425,-0.234,-0.202,0.435,-0.212,-0.268,-0.373,-0.309,-0.28,-0.242
0.003,0.426,0.423,-0.215,-0.21,0.424,-0.184,-0.26,-0.375,-0.328,-0.295,-0.251
-0.061,0.355,0.416,-0.147,-0.239,0.386,-0.164,-0.268,-0.375,-0.322,-0.295,-0.275
-0.101,0.303,0.405,-0.101,-0.253,0.354,-0.14,-0.251,-0.382,-0.351,-0.318,-0.284
-0.079,0.315,0.394,-0.118,-0.237,0.355,-0.149,-0.265,-0.396,-0.341,-0.316,-0.276
-0.053,0.31,0.363,-0.129,-0.208,0.336,-0.143,-0.246,-0.382,-0.342,-0.322,-0.284
-0.094,0.332,0.426,-0.119,-0.26,0.378,-0.145,-0.259,-0.401,-0.361,-0.321,-0.277
-0.086,0.272,0.358,-0.093,-0.222,0.315,-0.107,-0.208,-0.347,-0.332,-0.346,-0.307
-0.045,0.326,0.37,-0.141,-0.208,0.348,0.108,0.309,0.069,-0.342,-0.407,-0.385
0.131,0.489,0.358,-0.31,-0.114,0.423,0.187,0.814,0.775,0.17,-0.066,-0.146
0.406,1.083,0.677,-0.745,-0.136,0.88,-0.092,0.553,1.072,1.223,0.916,0.648
0.271,1.752,1.481,-1.012,-0.605,1.616,-0.508,-0.874,0.404,2.657,1.876,1.312
-0.233,1.11,1.343,-0.439,-0.789,1.227,-0.666,-1.934,-1.323,1.471,0.863,0.62
-0.526,0.168,0.694,0.179,-0.61,0.431,-0.674,-1.677,-2.585,-1.625,-0.986,-0.531
-0.419,-0.08,0.339,0.249,-0.379,0.129,-0.65,-1.126,-1.932,-1.675,-1.097,-0.71
-0.202,0.046,0.248,0.077,-0.225,0.146,-0.359,-0.466,-0.884,-0.775,-0.634,-0.489
-0.095,0.242,0.337,-0.074,-0.217,0.29,-0.148,-0.14,-0.395,-0.498,-0.407,-0.332
-0.095,0.246,0.341,-0.075,-0.218,0.293,-0.12,-0.158,-0.238,-0.308,-0.32,-0.289
-0.068,0.258,0.326,-0.095,-0.198,0.292,-0.093,-0.115,-0.228,-0.349,-0.328,-0.285
-0.057,0.255,0.312,-0.1,-0.185,0.284,-0.088,-0.109,-0.157,-0.24,-0.274,-0.252
-0.088,0.249,0.337,-0.081,-0.212,0.292,-0.075,-0.089,-0.145,-0.264,-0.278,-0.255
-0.062,0.253,0.315,-0.096,-0.188,0.284,-0.075,-0.078,-0.101,-0.221,-0.242,-0.229
-0.042,0.245,0.288,-0.102,-0.165,0.266,-0.071,-0.057,-0.064,-0.206,-0.23,-0.208
-0.046,0.255,0.301,-0.105,-0.174,0.278,-0.068,-0.032,-0.023,-0.17,-0.208,-0.188
-0.041,0.246,0.287,-0.103,-0.164,0.267,-0.066,-0.009,0.039,-0.126,-0.193,-0.175
-0.01,0.306,0.316,-0.148,-0.164,0.311,-0.062,0.015,0.084,-0.096,-0.168,-0.159
0.003,0.36,0.357,-0.182,-0.177,0.359,-0.061,0.062,0.177,-0.033,-0.123,-0.134
0.007,0.36,0.352,-0.184,-0.173,0.356,-0.059,0.138,0.299,0.019,-0.086,-0.1
0.05,0.41,0.359,-0.23,-0.155,0.384,-0.062,0.219,0.434,0.12,-0.027,-0.06
0.088,0.468,0.38,-0.278,-0.146,0.424,-0.058,0.324,0.587,0.228,0.058,-0.002
0.128,0.535,0.407,-0.332,-0.139,0.47,-0.071,0.423,0.732,0.365,0.165,0.077
0.188,0.621,0.433,-0.405,-0.123,0.527,-0.117,0.489,0.849,0.502,0.267,0.16
0.23,0.691,0.461,-0.461,-0.116,0.576,-0.169,0.514,0.899,0.62,0.376,0.253
0.236,0.727,0.491,-0.482,-0.128,0.609,-0.219,0.484,0.885,0.701,0.462,0.319
0.255,0.705,0.45,-0.48,-0.098,0.577,-0.248,0.425,0.814,0.706,0.483,0.353
0.233,0.641,0.408,-0.437,-0.088,0.524,-0.246,0.343,0.694,0.68,0.474,0.354
0.173,0.551,0.377,-0.362,-0.102,0.464,-0.228,0.238,0.532,0.576,0.406,0.301
0.12,0.426,0.306,-0.273,-0.093,0.366,-0.191,0.161,0.358,0.408,0.282,0.221
0.048,0.302,0.254,-0.175,-0.103,0.278,-0.149,0.093,0.205,0.253,0.163,0.13
0.019,0.236,0.217,-0.127,-0.099,0.226,-0.114,0.023,0.058,0.111,0.041,0.03
-0.009,0.174,0.183,-0.083,-0.096,0.178,-0.08,-0.02,-0.037,0.014,-0.038,-0.033
-0.052,0.118,0.17,-0.033,-0.111,0.143,-0.062,-0.054,-0.099,-0.06,-0.087,-0.072
-0.062,0.096,0.158,-0.017,-0.11,0.127,-0.053,-0.075,-0.148,-0.107,-0.127,-0.102
-0.041,0.084,0.126,-0.022,-0.084,0.105,-0.043,-0.082,-0.165,-0.125,-0.134,-0.11
-0.032,0.082,0.115,-0.025,-0.074,0.098,-0.037,-0.09,-0.173,-0.14,-0.14,-0.113
-0.06,0.075,0.135,-0.008,-0.098,0.105,-0.032,-0.087,-0.169,-0.147,-0.145,-0.118
-0.056,0.069,0.125,-0.007,-0.09,0.097,-0.029,-0.08,-0.163,-0.154,-0.149,-0.127
-0.052,0.066,0.118,-0.008,-0.085,0.092,-0.024,-0.077,-0.16,-0.154,-0.148,-0.126
-0.077,0.031,0.108,0.023,-0.092,0.069,-0.02,-0.069,-0.155,-0.149,-0.144,-0.121
-0.083,-0.015,0.068,0.048,-0.075,0.027,-0.02,-0.066,-0.151,-0.151,-0.142,-0.119
-0.082,-0.015,0.067,0.048,-0.074,0.026,-0.02,-0.069,-0.15,-0.147,-0.139,-0.114
-0.085,-0.015,0.07,0.05,-0.077,0.027,-0.02,-0.072,-0.151,-0.145,-0.136,-0.11
-0.113,-0.043,0.069,0.078,-0.091,0.013,-0.02,-0.075,-0.15,-0.145,-0.134,-0.11
-0.103,-0.035,0.068,0.069,-0.085,0.016,-0.02,-0.078,-0.151,-0.151,-0.143,-0.109
-0.062,0.019,0.081,0.021,-0.072,0.05,-0.022,-0.08,-0.169,-0.173,-0.154,-0.125
-0.069,0.043,0.112,0.013,-0.091,0.077,-0.027,-0.082,-0.19,-0.185,-0.155,-0.142
-0.067,0.028,0.095,0.019,-0.081,0.061,-0.03,-0.088,-0.194,-0.185,-0.166,-0.147
-0.074,0.05,0.123,0.012,-0.099,0.086,-0.038,-0.107,-0.214,-0.208,-0.185,-0.153
-0.083,0.065,0.149,0.009,-0.116,0.107,-0.043,-0.121,-0.241,-0.223,-0.191,-0.155
-0.084,0.051,0.135,0.016,-0.11,0.093,-0.037,-0.12,-0.243,-0.215,-0.186,-0.155
-0.096,0.05,0.145,0.023,-0.121,0.097,-0.032,-0.12,-0.24,-0.212,-0.181,-0.155
-0.084,0.026,0.11,0.029,-0.097,0.068,-0.029,-0.12,-0.238,-0.208,-0.178,-0.15
-0.091,-0.02,0.071,0.055,-0.08,0.026,-0.023,-0.12,-0.234,-0.202,-0.172,-0.146
-0.101,-0.024,0.077,0.062,-0.089,0.026,-0.02,-0.12,-0.232,-0.201,-0.171,-0.143
-0.102,-0.027,0.076,0.064,-0.088,0.024,-0.025,-0.12,-0.229,-0.205,-0.176,-0.139
-0.114,-0.033,0.081,0.074,-0.098,0.024,-0.029,-0.125,-0.234,-0.21,-0.179,-0.136
-0.078,0.001,0.079,0.038,-0.078,0.039,-0.034,-0.133,-0.247,-0.207,-0.177,-0.132
-0.055,0.018,0.073,0.018,-0.064,0.045,-0.033,-0.133,-0.245,-0.202,-0.174,-0.13
-0.088,-0.008,0.08,0.047,-0.084,0.036,-0.027,-0.127,-0.235,-0.199,-0.171,-0.13
-0.095,-0.064,0.031,0.079,-0.063,-0.016,-0.023,-0.124,-0.229,-0.196,-0.168,-0.13
-0.092,-0.074,0.018,0.083,-0.055,-0.028,-0.018,-0.118,-0.221,-0.193,-0.166,-0.131
-0.078,-0.05,0.027,0.063,-0.052,-0.011,-0.014,-0.115,-0.214,-0.189,-0.164,-0.13
-0.07,-0.042,0.028,0.056,-0.048,-0.007,-0.008,-0.102,-0.207,-0.184,-0.159,-0.125
-0.068,-0.032,0.037,0.05,-0.052,0.002,-0.004,-0.091,-0.202,-0.177,-0.153,-0.12
-0.027,-0.006,0.021,0.016,-0.024,0.007,0.01,-0.096,-0.2,-0.175,-0.15,-0.115
-0.007,0.097,0.105,-0.045,-0.056,0.101,0.005,-0.095,-0.196,-0.168,-0.144,-0.111
0.002,0.206,0.204,-0.104,-0.101,0.205,-0.038,-0.105,-0.193,-0.168,-0.141,-0.106
0.026,0.232,0.206,-0.13,-0.09,0.219,-0.062,-0.105,-0.187,-0.164,-0.143,-0.107
0.018,0.23,0.213,-0.124,-0.098,0.221,-0.11,-0.133,-0.214,-0.186,-0.158,-0.126
0.004,0.22,0.216,-0.112,-0.106,0.218,-0.148,-0.207,-0.275,-0.228,-0.192,-0.149
-0.026,0.213,0.239,-0.094,-0.133,0.226,-0.115,-0.21,-0.293,-0.257,-0.22,-0.168
-0.08,0.207,0.286,-0.064,-0.183,0.246,-0.104,-0.221,-0.299,-0.259,-0.229,-0.193
-0.067,0.198,0.265,-0.066,-0.166,0.231,-0.094,-0.21,-0.312,-0.285,-0.256,-0.215
-0.061,0.2,0.261,-0.07,-0.161,0.23,-0.093,-0.218,-0.331,-0.294,-0.257,-0.211
-0.083,0.192,0.275,-0.055,-0.179,0.233,-0.088,-0.217,-0.338,-0.296,-0.262,-0.21
-0.09,0.207,0.297,-0.059,-0.194,0.252,-0.079,-0.202,-0.331,-0.324,-0.267,-0.202
-0.077,0.192,0.269,-0.058,-0.173,0.231,-0.083,-0.223,-0.301,-0.283,-0.265,-0.226
-0.07,0.208,0.278,-0.069,-0.174,0.242,0.104,0.237,0.003,-0.328,-0.342,-0.305
0.064,0.32,0.255,-0.192,-0.096,0.287,0.244,0.814,0.705,0.068,-0.126,-0.169
0.39,0.88,0.489,-0.635,-0.05,0.684,0.006,0.742,1.124,0.943,0.679,0.478
0.336,1.641,1.305,-0.989,-0.485,1.473,-0.417,-0.59,0.658,2.437,1.789,1.295
-0.133,1.248,1.381,-0.558,-0.758,1.315,-0.639,-1.991,-0.916,2.064,1.314,0.958
-0.5,0.215,0.716,0.142,-0.608,0.465,-0.667,-1.869,-2.469,-1.085,-0.631,-0.271
-0.48,-0.182,0.299,0.331,-0.389,0.058,-0.652,-1.247,-2.122,-1.813,-1.129,-0.685
-0.208,-0.053,0.156,0.13,-0.182,0.051,-0.388,-0.567,-0.972,-0.815,-0.648,-0.48
-0.088,0.151,0.24,-0.032,-0.164,0.195,-0.12,-0.154,-0.387,-0.499,-0.39,-0.304
-0.08,0.183,0.263,-0.052,-0.171,0.223,-0.053,-0.162,-0.201,-0.274,-0.252,-0.23
-0.077,0.137,0.214,-0.03,-0.145,0.175,-0.009,-0.091,-0.165,-0.301,-0.265,-0.225
-0.08,0.076,0.156,0.002,-0.119,0.116,0.013,-0.059,-0.07,-0.204,-0.206,-0.177
-0.056,0.06,0.116,-0.002,-0.087,0.088,0.027,-0.016,-0.045,-0.176,-0.192,-0.158
-0.059,0.024,0.083,0.017,-0.071,0.053,0.052,0.012,0.0,-0.135,-0.164,-0.131
-0.044,-0.034,0.01,0.039,-0.027,-0.012,0.062,0.044,0.054,-0.097,-0.124,-0.118
-0.015,0.019,0.034,-0.003,-0.024,0.027,0.059,0.057,0.079,-0.089,-0.106,-0.105
-0.035,0.063,0.098,-0.015,-0.066,0.08,0.06,0.066,0.122,-0.046,-0.087,-0.088
-0.031,0.056,0.086,-0.013,-0.059,0.071,0.06,0.122,0.192,-0.015,-0.075,-0.066
-0.008,0.045,0.053,-0.019,-0.031,0.049,0.061,0.177,0.296,0.06,-0.033,-0.024
-0.016,0.039,0.055,-0.012,-0.035,0.047,0.081,0.255,0.413,0.13,0.021,0.008
0.035,0.101,0.066,-0.068,-0.016,0.083,0.084,0.329,0.537,0.214,0.079,0.046
0.096,0.126,0.03,-0.111,0.033,0.077,0.073,0.453,0.708,0.338,0.168,0.119
0.126,0.116,-0.011,-0.121,0.068,0.052,0.073,0.585,0.882,0.495,0.292,0.219
0.192,0.219,0.026,-0.205,0.083,0.122,0.035,0.656,0.991,0.625,0.4,0.304
0.21,0.282,0.072,-0.246,0.069,0.177,-0.014,0.684,1.061,0.759,0.52,0.402
0.225,0.288,0.063,-0.257,0.081,0.176,-0.049,0.673,1.067,0.853,0.614,0.492
0.279,0.336,0.058,-0.308,0.11,0.197,-0.104,0.612,0.991,0.854,0.636,0.516
0.286,0.337,0.051,-0.312,0.117,0.194,-0.137,0.498,0.849,0.823,0.615,0.495
0.244,0.288,0.044,-0.266,0.1,0.166,-0.13,0.378,0.674,0.717,0.538,0.439
0.165,0.202,0.037,-0.183,0.064,0.119,-0.097,0.285,0.494,0.555,0.41,0.344
0.1,0.079,-0.021,-0.089,0.06,0.029,-0.053,0.209,0.328,0.397,0.281,0.243
0.044,-0.01,-0.054,-0.016,0.049,-0.032,-0.019,0.136,0.187,0.252,0.178,0.162
-0.009,-0.04,-0.031,0.025,0.012,-0.036,-0.006,0.068,0.068,0.134,0.078,0.079
-0.024,-0.039,-0.015,0.032,-0.004,-0.026,-0.003,0.024,-0.016,0.039,-0.01,0.007
-0.033,-0.035,-0.002,0.034,-0.015,-0.018,0.003,-0.01,-0.071,-0.022,-0.054,-0.034
-0.043,-0.032,0.012,0.037,-0.027,-0.01,0.009,-0.038,-0.102,-0.053,-0.077,-0.057
-0.045,-0.027,0.018,0.036,-0.031,-0.004,0.014,-0.053,-0.123,-0.068,-0.091,-0.067
-0.059,-0.024,0.034,0.041,-0.046,0.005,0.019,-0.058,-0.133,-0.085,-0.099,-0.066
-0.056,-0.019,0.038,0.037,-0.047,0.009,0.023,-0.057,-0.122,-0.093,-0.108,-0.063
-0.042,-0.051,-0.01,0.047,-0.016,-0.03,0.025,-0.049,-0.113,-0.09,-0.098,-0.06
-0.069,-0.121,-0.052,0.095,-0.008,-0.086,0.046,-0.02,-0.102,-0.088,-0.087,-0.058
-0.089,-0.148,-0.06,0.118,-0.014,-0.104,0.057,-0.004,-0.095,-0.084,-0.091,-0.054
-0.071,-0.143,-0.072,0.107,0.002,-0.107,0.054,-0.005,-0.096,-0.082,-0.09,-0.058
-0.066,-0.144,-0.078,0.105,0.006,-0.111,0.056,0.0,-0.095,-0.079,-0.09,-0.06
-0.065,-0.136,-0.071,0.101,0.003,-0.103,0.055,0.002,-0.096,-0.084,-0.09,-0.06
-0.064,-0.151,-0.087,0.108,0.012,-0.119,0.055,0.006,-0.094,-0.085,-0.091,-0.06
-0.063,-0.149,-0.086,0.107,0.012,-0.117,0.051,0.001,-0.099,-0.086,-0.097,-0.06
-0.054,-0.117,-0.063,0.086,0.005,-0.09,0.05,-0.018,-0.118,-0.106,-0.108,-0.071
-0.047,-0.112,-0.065,0.08,0.009,-0.088,0.05,-0.037,-0.138,-0.128,-0.126,-0.083
-0.037,-0.103,-0.066,0.071,0.015,-0.084,0.045,-0.046,-0.154,-0.144,-0.13,-0.085
-0.061,-0.125,-0.063,0.093,0.001,-0.094,0.045,-0.052,-0.16,-0.146,-0.13,-0.085
-0.072,-0.154,-0.082,0.113,0.005,-0.118,0.044,-0.058,-0.16,-0.145,-0.13,-0.085
-0.06,-0.149,-0.088,0.105,0.014,-0.118,0.039,-0.06,-0.161,-0.145,-0.13,-0.084
-0.079,-0.148,-0.069,0.114,-0.005,-0.108,0.034,-0.071,-0.175,-0.145,-0.13,-0.086
-0.078,-0.142,-0.064,0.111,-0.007,-0.103,0.03,-0.081,-0.183,-0.145,-0.133,-0.079
-0.076,-0.142,-0.066,0.109,-0.005,-0.103,0.025,-0.078,-0.178,-0.144,-0.142,-0.084
-0.082,-0.126,-0.044,0.104,-0.019,-0.085,0.02,-0.088,-0.197,-0.152,-0.144,-0.105
-0.079,-0.087,-0.008,0.083,-0.035,-0.047,0.016,-0.107,-0.213,-0.165,-0.151,-0.115
-0.076,-0.055,0.022,0.065,-0.049,-0.016,0.009,-0.118,-0.224,-0.178,-0.17,-0.129
-0.089,-0.028,0.061,0.058,-0.075,0.016,0.006,-0.131,-0.231,-0.189,-0.175,-0.137
-0.107,-0.025,0.082,0.066,-0.095,0.029,-0.002,-0.135,-0.23,-0.191,-0.175,-0.138
-0.118,-0.039,0.079,0.079,-0.098,0.02,-0.005,-0.137,-0.229,-0.189,-0.174,-0.144
-0.116,-0.035,0.081,0.075,-0.098,0.023,-0.015,-0.141,-0.237,-0.194,-0.178,-0.144
-0.099,-0.019,0.079,0.059,-0.089,0.03,-0.038,-0.136,-0.256,-0.201,-0.186,-0.141
-0.089,-0.008,0.081,0.048,-0.085,0.036,-0.041,-0.135,-0.253,-0.195,-0.185,-0.14
-0.067,0.007,0.074,0.029,-0.07,0.04,-0.039,-0.135,-0.249,-0.191,-0.181,-0.141
-0.075,0.019,0.094,0.027,-0.085,0.057,-0.04,-0.129,-0.245,-0.185,-0.18,-0.14
-0.08,0.055,0.135,0.012,-0.108,0.095,-0.039,-0.13,-0.241,-0.178,-0.174,-0.141
-0.036,0.103,0.14,-0.034,-0.088,0.121,-0.041,-0.128,-0.238,-0.173,-0.177,-0.137
-0.029,0.107,0.136,-0.04,-0.083,0.121,-0.045,-0.12,-0.231,-0.166,-0.186,-0.127
-0.013,0.136,0.149,-0.062,-0.081,0.142,-0.045,-0.11,-0.224,-0.158,-0.168,-0.118
0.001,0.193,0.192,-0.097,-0.096,0.192,-0.044,-0.099,-0.208,-0.148,-0.154,-0.107
-0.004,0.178,0.182,-0.087,-0.093,0.18,-0.046,-0.095,-0.19,-0.127,-0.155,-0.101
0.018,0.126,0.108,-0.072,-0.045,0.117,-0.052,-0.082,-0.18,-0.117,-0.155,-0.095
0.031,0.127,0.096,-0.079,-0.033,0.111,-0.083,-0.132,-0.221,-0.147,-0.157,-0.107
0.007,0.115,0.108,-0.061,-0.05,0.111,-0.064,-0.164,-0.258,-0.195,-0.16,-0.13
-0.055,0.047,0.103,0.004,-0.079,0.075,-0.025,-0.166,-0.26,-0.195,-0.158,-0.126
-0.076,0.001,0.077,0.037,-0.077,0.039,-0.019,-0.171,-0.26,-0.193,-0.177,-0.143
-0.09,0.007,0.097,0.041,-0.093,0.052,-0.02,-0.167,-0.279,-0.217,-0.205,-0.156
-0.106,0.015,0.122,0.045,-0.114,0.068,-0.022,-0.185,-0.29,-0.205,-0.208,-0.162
-0.115,0.063,0.177,0.026,-0.146,0.12,-0.015,-0.157,-0.294,-0.245,-0.232,-0.183
-0.12,0.041,0.161,0.039,-0.141,0.1,-0.03,-0.186,-0.282,-0.181,-0.226,-0.181
-0.082,0.014,0.096,0.034,-0.089,0.055,0.111,0.15,-0.054,-0.229,-0.278,-0.238
0.022,0.131,0.108,-0.077,-0.043,0.119,0.294,0.809,0.587,0.018,-0.163,-0.181
0.324,0.494,0.17,-0.409,0.077,0.332,0.166,1.013,1.156,0.749,0.487,0.344
0.423,1.344,0.921,-0.884,-0.249,1.132,-0.249,-0.11,0.912,2.121,1.627,1.213
0.011,1.327,1.315,-0.669,-0.652,1.321,-0.541,-1.802,-0.469,2.57,1.709,1.247
-0.464,0.237,0.701,0.113,-0.583,0.469,-0.581,-1.99,-2.227,-0.274,-0.121,0.091
-0.538,-0.343,0.195,0.44,-0.366,-0.074,-0.602,-1.357,-2.316,-1.861,-1.109,-0.609
-0.266,-0.324,-0.057,0.295,-0.104,-0.19,-0.393,-0.68,-1.131,-0.885,-0.675,-0.46
-0.104,-0.173,-0.069,0.139,-0.017,-0.121,-0.07,-0.1,-0.383,-0.428,-0.348,-0.249
-0.087,-0.145,-0.057,0.117,-0.015,-0.101,0.038,-0.031,-0.112,-0.181,-0.187,-0.153
-0.077,-0.152,-0.075,0.115,-0.001,-0.113,0.067,0.016,-0.069,-0.179,-0.189,-0.147
-0.07,-0.126,-0.056,0.099,-0.007,-0.091,0.081,0.035,-0.023,-0.141,-0.162,-0.125
-0.066,-0.14,-0.073,0.104,0.004,-0.106,0.092,0.049,0.017,-0.094,-0.14,-0.113
-0.06,-0.146,-0.086,0.103,0.013,-0.116,0.105,0.091,0.055,-0.079,-0.117,-0.099
-0.043,-0.126,-0.084,0.085,0.021,-0.105,0.11,0.088,0.081,-0.032,-0.091,-0.075
-0.042,-0.124,-0.082,0.083,0.02,-0.102,0.115,0.13,0.115,-0.036,-0.083,-0.061
-0.034,-0.121,-0.087,0.078,0.027,-0.104,0.107,0.166,0.182,0.032,-0.042,-0.045
-0.011,-0.053,-0.042,0.032,0.016,-0.047,0.101,0.174,0.211,0.03,-0.046,-0.043
-0.008,-0.032,-0.024,0.02,0.008,-0.027,0.094,0.215,0.302,0.083,-0.01,-0.024
-0.01,-0.029,-0.02,0.02,0.005,-0.025,0.088,0.298,0.425,0.157,0.037,0.014
0.033,0.004,-0.029,-0.018,0.03,-0.012,0.08,0.385,0.56,0.24,0.094,0.063
0.074,0.033,-0.041,-0.053,0.057,-0.004,0.075,0.505,0.722,0.36,0.178,0.126
0.117,0.106,-0.011,-0.112,0.064,0.047,0.066,0.615,0.871,0.478,0.266,0.191
0.177,0.176,0.0,-0.177,0.088,0.088,0.04,0.705,1.003,0.615,0.379,0.278
0.221,0.296,0.075,-0.258,0.072,0.185,-0.023,0.737,1.062,0.727,0.475,0.362
0.262,0.425,0.163,-0.344,0.049,0.294,-0.096,0.701,1.047,0.798,0.547,0.422
0.283,0.46,0.177,-0.372,0.053,0.318,-0.149,0.631,0.988,0.813,0.575,0.454
0.254,0.489,0.235,-0.372,0.009,0.362,-0.2,0.512,0.852,0.783,0.555,0.432
0.218,0.497,0.28,-0.358,-0.031,0.389,-0.204,0.378,0.672,0.702,0.499,0.389
0.168,0.405,0.237,-0.287,-0.035,0.321,-0.166,0.271,0.497,0.558,0.396,0.309
0.107,0.278,0.171,-0.193,-0.033,0.224,-0.13,0.193,0.338,0.406,0.275,0.214
0.067,0.212,0.146,-0.14,-0.04,0.179,-0.095,0.108,0.187,0.257,0.147,0.113
0.019,0.161,0.142,-0.09,-0.062,0.151,-0.065,0.038,0.058,0.131,0.049,0.025
-0.021,0.128,0.149,-0.054,-0.086,0.138,-0.037,-0.007,-0.032,0.038,-0.031,-0.03
-0.045,0.073,0.118,-0.015,-0.082,0.096,-0.019,-0.039,-0.086,-0.013,-0.068,-0.075
-0.07,0.016,0.086,0.027,-0.079,0.051,-0.011,-0.039,-0.103,-0.033,-0.076,-0.082
-0.073,0.018,0.091,0.028,-0.083,0.054,-0.004,-0.054,-0.123,-0.06,-0.096,-0.084
-0.06,0.021,0.08,0.019,-0.07,0.05,0.002,-0.066,-0.133,-0.072,-0.105,-0.096
-0.063,0.015,0.078,0.024,-0.071,0.046,0.009,-0.056,-0.126,-0.076,-0.111,-0.101
-0.059,0.011,0.07,0.023,-0.064,0.04,0.015,-0.053,-0.125,-0.08,-0.11,-0.098
-0.071,0.005,0.077,0.033,-0.074,0.041,0.019,-0.046,-0.121,-0.08,-0.11,-0.095
-0.084,0.003,0.087,0.04,-0.086,0.044,0.022,-0.042,-0.12,-0.08,-0.11,-0.092
-0.089,-0.004,0.085,0.046,-0.087,0.04,0.024,-0.036,-0.117,-0.08,-0.11,-0.09
-0.091,-0.01,0.082,0.05,-0.086,0.035,0.028,-0.03,-0.114,-0.08,-0.108,-0.088
-0.067,-0.02,0.047,0.044,-0.057,0.013,0.029,-0.025,-0.111,-0.081,-0.105,-0.085
-0.06,-0.055,0.004,0.057,-0.032,-0.025,0.039,-0.02,-0.109,-0.079,-0.105,-0.085
-0.059,-0.067,-0.008,0.063,-0.025,-0.037,0.046,-0.013,-0.104,-0.086,-0.102,-0.082
-0.05,-0.08,-0.03,0.065,-0.01,-0.055,0.045,-0.011,-0.108,-0.092,-0.099,-0.08
-0.034,-0.091,-0.057,0.063,0.012,-0.074,0.043,-0.027,-0.123,-0.088,-0.102,-0.081
-0.04,-0.086,-0.046,0.063,0.003,-0.065,0.04,-0.038,-0.136,-0.105,-0.11,-0.086
-0.047,-0.092,-0.045,0.07,-0.001,-0.068,0.04,-0.047,-0.15,-0.114,-0.111,-0.089
-0.047,-0.088,-0.042,0.068,-0.003,-0.065,0.044,-0.055,-0.154,-0.109,-0.11,-0.083
-0.054,-0.092,-0.038,0.073,-0.008,-0.065,0.045,-0.054,-0.149,-0.111,-0.107,-0.08
-0.041,-0.122,-0.081,0.081,0.02,-0.101,0.046,-0.056,-0.146,-0.106,-0.104,-0.077
-0.022,-0.13,-0.108,0.076,0.043,-0.119,0.053,-0.059,-0.142,-0.105,-0.105,-0.072
-0.037,-0.137,-0.1,0.087,0.032,-0.118,0.059,-0.06,-0.138,-0.105,-0.098,-0.07
-0.052,-0.183,-0.131,0.118,0.04,-0.156,0.073,-0.059,-0.135,-0.098,-0.091,-0.063
-0.036,-0.203,-0.167,0.119,0.066,-0.185,0.084,-0.046,-0.132,-0.087,-0.084,-0.052
-0.051,-0.242,-0.19,0.147,0.07,-0.216,0.088,-0.036,-0.127,-0.078,-0.077,-0.043
-0.056,-0.296,-0.24,0.176,0.092,-0.268,0.097,-0.032,-0.125,-0.072,-0.071,-0.037
-0.053,-0.307,-0.253,0.18,0.1,-0.28,0.094,-0.027,-0.121,-0.068,-0.066,-0.032
-0.067,-0.314,-0.248,0.19,0.091,-0.281,0.095,-0.022,-0.117,-0.064,-0.061,-0.029
-0.054,-0.306,-0.252,0.18,0.1,-0.279,0.096,-0.018,-0.114,-0.06,-0.055,-0.024
-0.044,-0.293,-0.249,0.168,0.103,-0.271,0.093,-0.011,-0.101,-0.055,-0.051,-0.02
-0.03,-0.28,-0.25,0.155,0.11,-0.265,0.102,0.006,-0.091,-0.038,-0.032,-0.004
-0.02,-0.298,-0.278,0.16,0.129,-0.288,0.114,0.029,-0.072,-0.009,-0.004,0.021
0.009,-0.314,-0.323,0.153,0.166,-0.318,0.149,0.053,-0.048,0.019,0.019,0.043
0.026,-0.304,-0.33,0.139,0.178,-0.317,0.167,0.081,-0.012,0.055,0.048,0.076
0.021,-0.284,-0.305,0.132,0.164,-0.295,0.146,0.088,0.009,0.079,0.073,0.087
0.036,-0.288,-0.324,0.126,0.18,-0.306,0.127,0.089,0.008,0.067,0.064,0.077
0.03,-0.346,-0.376,0.158,0.203,-0.361,0.094,0.053,-0.016,0.051,0.048,0.074
0.039,-0.371,-0.409,0.167,0.225,-0.39,0.077,0.012,-0.05,0.042,0.033,0.067
0.002,-0.4,-0.402,0.199,0.203,-0.401,0.122,0.038,-0.044,0.019,0.017,0.061
-0.044,-0.448,-0.403,0.246,0.18,-0.425,0.158,0.028,-0.053,0.008,0.008,0.048
-0.053,-0.448,-0.395,0.251,0.171,-0.421,0.165,0.045,-0.077,-0.03,-0.007,0.031
-0.078,-0.454,-0.376,0.266,0.149,-0.414,0.151,0.022,-0.094,-0.018,-0.003,0.026
-0.073,-0.458,-0.385,0.266,0.157,-0.422,0.162,0.043,-0.077,-0.044,-0.023,0.008
-0.102,-0.439,-0.338,0.271,0.118,-0.388,0.147,0.015,-0.085,-0.038,-0.013,0.015
-0.071,-0.461,-0.389,0.266,0.16,-0.425,0.195,0.091,-0.023,-0.05,-0.056,-0.031
-0.016,-0.401,-0.385,0.209,0.185,-0.393,0.399,0.679,0.442,0.012,-0.076,-0.071
0.194,-0.168,-0.361,-0.013,0.278,-0.264,0.406,1.173,1.112,0.531,0.286,0.186
0.477,0.558,0.081,-0.517,0.198,0.319,0.088,0.736,1.314,1.565,1.283,0.985
0.261,1.079,0.818,-0.67,-0.278,0.948,-0.276,-0.983,0.443,2.815,2.081,1.56
-0.278,0.379,0.657,-0.05,-0.468,0.518,-0.379,-2.031,-1.458,1.223,0.846,0.734
-0.576,-0.463,0.113,0.519,-0.344,-0.175,-0.431,-1.574,-2.437,-1.497,-0.805,-0.343
-0.393,-0.679,-0.287,0.536,-0.053,-0.482,-0.399,-0.925,-1.548,-1.228,-0.777,-0.447
-0.138,-0.503,-0.366,0.321,0.114,-0.434,-0.089,-0.219,-0.521,-0.433,-0.341,-0.228
-0.083,-0.313,-0.23,0.199,0.074,-0.272,0.085,0.046,-0.107,-0.187,-0.157,-0.113
-0.074,-0.33,-0.256,0.202,0.091,-0.292,0.12,0.03,-0.005,-0.065,-0.109,-0.082
-0.08,-0.328,-0.248,0.204,0.084,-0.288,0.16,0.108,0.045,-0.083,-0.086,-0.058
-0.047,-0.322,-0.275,0.185,0.114,-0.298,0.164,0.118,0.098,-0.004,-0.044,-0.037
0.002,-0.287,-0.289,0.143,0.146,-0.288,0.162,0.144,0.1,-0.025,-0.045,-0.027
-0.004,-0.284,-0.28,0.145,0.138,-0.282,0.156,0.142,0.141,0.023,-0.02,-0.01
-0.021,-0.311,-0.29,0.167,0.135,-0.3,0.154,0.188,0.191,0.042,-0.012,-0.001
-0.004,-0.278,-0.274,0.141,0.135,-0.276,0.148,0.207,0.235,0.083,0.022,0.014
-0.011,-0.273,-0.262,0.142,0.125,-0.267,0.161,0.226,0.279,0.113,0.05,0.035
0.004,-0.29,-0.293,0.143,0.149,-0.291,0.18,0.292,0.371,0.169,0.089,0.073
0.023,-0.275,-0.298,0.126,0.161,-0.287,0.188,0.346,0.472,0.238,0.129,0.103
0.036,-0.247,-0.283,0.106,0.16,-0.265,0.187,0.43,0.59,0.303,0.175,0.138
0.092,-0.213,-0.305,0.061,0.199,-0.259,0.183,0.54,0.743,0.418,0.254,0.197
0.118,-0.157,-0.275,0.02,0.196,-0.215,0.176,0.648,0.898,0.526,0.328,0.254
0.163,-0.063,-0.226,-0.05,0.195,-0.144,0.138,0.75,1.033,0.65,0.427,0.326
0.242,0.044,-0.198,-0.143,0.22,-0.077,0.075,0.811,1.133,0.772,0.532,0.418
0.271,0.109,-0.162,-0.19,0.216,-0.026,0.017,0.81,1.172,0.887,0.636,0.507
0.299,0.154,-0.145,-0.226,0.222,0.005,-0.034,0.778,1.139,0.943,0.707,0.573
0.305,0.201,-0.104,-0.253,0.204,0.048,-0.083,0.689,1.037,0.918,0.702,0.571
0.278,0.211,-0.068,-0.244,0.173,0.071,-0.1,0.564,0.873,0.864,0.668,0.528
0.238,0.155,-0.083,-0.197,0.16,0.036,-0.08,0.449,0.697,0.735,0.567,0.458
0.172,0.068,-0.104,-0.12,0.137,-0.017,-0.042,0.346,0.508,0.567,0.433,0.349
0.116,-0.024,-0.14,-0.045,0.128,-0.082,0.012,0.263,0.347,0.417,0.313,0.252
0.054,-0.094,-0.147,0.02,0.101,-0.12,0.045,0.191,0.221,0.284,0.197,0.16
0.02,-0.164,-0.184,0.072,0.102,-0.173,0.072,0.14,0.134,0.199,0.137,0.097
-0.005,-0.239,-0.234,0.122,0.114,-0.236,0.108,0.103,0.083,0.137,0.102,0.078
-0.028,-0.275,-0.248,0.152,0.11,-0.261,0.122,0.077,0.037,0.105,0.068,0.06
-0.022,-0.291,-0.269,0.157,0.124,-0.28,0.13,0.06,0.018,0.09,0.052,0.046
-0.02,-0.269,-0.249,0.145,0.115,-0.259,0.117,0.048,-0.009,0.066,0.038,0.035
-0.025,-0.231,-0.206,0.128,0.091,-0.218,0.1,0.049,-0.027,0.053,0.021,0.025
-0.035,-0.212,-0.177,0.124,0.071,-0.194,0.1,0.052,-0.024,0.041,0.005,0.015
-0.034,-0.207,-0.173,0.121,0.07,-0.19,0.1,0.055,-0.026,0.03,0.0,0.005
-0.033,-0.205,-0.172,0.119,0.07,-0.188,0.1,0.058,-0.022,0.02,-0.003,-0.003
-0.034,-0.201,-0.167,0.118,0.066,-0.183,0.101,0.061,-0.019,0.012,-0.005,-0.007
-0.034,-0.203,-0.168,0.119,0.067,-0.185,0.099,0.055,-0.022,0.005,-0.01,-0.013
-0.02,-0.228,-0.208,0.125,0.094,-0.218,0.098,0.052,-0.022,-0.002,-0.008,-0.018
-0.017,-0.19,-0.172,0.104,0.078,-0.181,0.086,0.046,-0.035,-0.01,-0.024,-0.026
-0.029,-0.198,-0.169,0.114,0.071,-0.183,0.092,0.047,-0.029,-0.013,-0.016,-0.007
-0.026,-0.334,-0.308,0.18,0.141,-0.321,0.136,0.084,0.002,0.018,0.033,0.039
-0.027,-0.392,-0.365,0.209,0.169,-0.378,0.154,0.094,0.012,0.046,0.049,0.055
-0.028,-0.43,-0.402,0.229,0.188,-0.416,0.159,0.088,0.009,0.055,0.062,0.064
-0.03,-0.452,-0.422,0.241,0.196,-0.437,0.161,0.091,0.004,0.055,0.066,0.074
-0.037,-0.438,-0.401,0.238,0.182,-0.419,0.159,0.085,-0.003,0.052,0.063,0.074
-0.042,-0.435,-0.393,0.239,0.176,-0.414,0.162,0.086,-0.008,0.049,0.066,0.076
-0.03,-0.47,-0.44,0.25,0.206,-0.455,0.17,0.083,-0.008,0.053,0.063,0.074
-0.039,-0.562,-0.523,0.3,0.242,-0.542,0.197,0.101,-0.003,0.071,0.079,0.095
-0.042,-0.597,-0.555,0.319,0.257,-0.575,0.207,0.117,0.0,0.077,0.093,0.113
-0.027,-0.592,-0.566,0.31,0.27,-0.579,0.204,0.109,0.003,0.074,0.09,0.105
-0.042,-0.592,-0.55,0.317,0.254,-0.571,0.203,0.106,0.008,0.076,0.087,0.104
-0.042,-0.586,-0.544,0.315,0.251,-0.565,0.199,0.101,0.009,0.074,0.083,0.099
-0.049,-0.583,-0.534,0.317,0.243,-0.558,0.2,0.096,0.015,0.074,0.079,0.094
-0.04,-0.571,-0.531,0.306,0.246,-0.55,0.206,0.097,0.015,0.08,0.075,0.097
-0.053,-0.574,-0.521,0.314,0.234,-0.547,0.22,0.105,0.018,0.084,0.077,0.099
-0.064,-0.581,-0.517,0.323,0.227,-0.549,0.222,0.119,0.041,0.099,0.101,0.116
-0.001,-0.582,-0.58,0.292,0.29,-0.581,0.226,0.15,0.048,0.111,0.118,0.132
0.037,-0.573,-0.61,0.268,0.324,-0.591,0.242,0.167,0.07,0.139,0.139,0.149
0.081,-0.504,-0.585,0.212,0.333,-0.544,0.252,0.162,0.091,0.166,0.159,0.168
0.084,-0.48,-0.564,0.198,0.325,-0.522,0.249,0.192,0.114,0.183,0.178,0.191
0.071,-0.556,-0.626,0.243,0.349,-0.591,0.219,0.205,0.138,0.204,0.199,0.198
0.058,-0.611,-0.669,0.277,0.364,-0.64,0.174,0.155,0.094,0.174,0.177,0.183
0.053,-0.597,-0.65,0.272,0.352,-0.623,0.163,0.147,0.059,0.134,0.141,0.169
0.034,-0.6,-0.635,0.283,0.335,-0.617,0.199,0.148,0.05,0.127,0.131,0.14
-0.024,-0.651,-0.627,0.338,0.302,-0.639,0.213,0.132,0.055,0.13,0.124,0.123
-0.045,-0.673,-0.627,0.359,0.291,-0.65,0.226,0.143,0.057,0.108,0.116,0.117
-0.051,-0.737,-0.686,0.394,0.318,-0.711,0.239,0.111,0.05,0.129,0.12,0.113
-0.053,-0.756,-0.704,0.405,0.326,-0.73,0.251,0.139,0.065,0.092,0.101,0.101
-0.083,-0.748,-0.665,0.416,0.291,-0.706,0.227,0.087,0.035,0.124,0.118,0.103
-0.05,-0.782,-0.732,0.416,0.341,-0.757,0.325,0.308,0.171,0.081,0.053,0.078
0.027,-0.719,-0.746,0.346,0.387,-0.733,0.557,0.931,0.709,0.204,0.081,0.072
0.282,-0.448,-0.73,0.083,0.507,-0.589,0.476,1.278,1.325,0.821,0.586,0.454
0.503,0.329,-0.174,-0.416,0.338,0.078,0.132,0.631,1.421,2.058,1.686,1.324
0.177,0.579,0.401,-0.378,-0.112,0.49,-0.149,-1.042,0.373,2.965,2.123,1.587
-0.378,-0.273,0.104,0.326,-0.241,-0.084,-0.193,-1.72,-1.53,0.694,0.541,0.558
-0.553,-0.982,-0.43,0.768,-0.061,-0.706,-0.218,-1.194,-2.137,-1.458,-0.726,-0.269
-0.298,-1.133,-0.836,0.716,0.269,-0.984,-0.175,-0.588,-1.115,-0.806,-0.467,-0.224
-0.087,-0.958,-0.871,0.523,0.392,-0.914,0.123,0.072,-0.232,-0.214,-0.109,-0.015
-0.059,-0.858,-0.799,0.459,0.37,-0.828,0.289,0.278,0.135,0.077,0.1,0.129
-0.063,-0.863,-0.8,0.463,0.369,-0.831,0.311,0.257,0.206,0.135,0.126,0.141
-0.046,-0.838,-0.792,0.443,0.373,-0.815,0.324,0.299,0.245,0.13,0.137,0.143
-0.028,-0.845,-0.817,0.437,0.395,-0.831,0.321,0.301,0.288,0.19,0.168,0.169
-0.03,-0.834,-0.804,0.432,0.387,-0.819,0.33,0.324,0.308,0.17,0.164,0.187
-0.026,-0.829,-0.803,0.428,0.389,-0.816,0.327,0.33,0.347,0.22,0.192,0.202
-0.009,-0.828,-0.819,0.419,0.405,-0.823,0.335,0.362,0.39,0.226,0.211,0.216
0.028,-0.832,-0.86,0.402,0.444,-0.845,0.34,0.403,0.459,0.292,0.252,0.244
0.036,-0.803,-0.84,0.384,0.438,-0.821,0.336,0.425,0.5,0.317,0.267,0.255
0.061,-0.761,-0.822,0.35,0.441,-0.791,0.334,0.452,0.567,0.352,0.282,0.264
0.085,-0.739,-0.824,0.328,0.455,-0.781,0.329,0.519,0.67,0.426,0.328,0.296
0.104,-0.727,-0.831,0.312,0.468,-0.779,0.326,0.608,0.806,0.511,0.394,0.35
0.16,-0.675,-0.835,0.257,0.498,-0.755,0.32,0.699,0.952,0.603,0.457,0.396
0.197,-0.633,-0.83,0.218,0.514,-0.731,0.303,0.815,1.113,0.73,0.557,0.475
0.235,-0.54,-0.775,0.152,0.505,-0.657,0.253,0.905,1.241,0.864,0.664,0.555
0.286,-0.419,-0.704,0.067,0.495,-0.561,0.199,0.941,1.309,0.972,0.755,0.625
0.34,-0.418,-0.758,0.039,0.549,-0.588,0.161,0.966,1.358,1.101,0.875,0.74
0.345,-0.441,-0.786,0.048,0.565,-0.613,0.119,0.94,1.328,1.156,0.939,0.803
0.335,-0.441,-0.776,0.053,0.556,-0.608,0.109,0.847,1.209,1.123,0.936,0.796
0.329,-0.459,-0.788,0.065,0.558,-0.623,0.109,0.737,1.061,1.061,0.884,0.76
0.265,-0.52,-0.786,0.128,0.525,-0.653,0.116,0.641,0.888,0.923,0.772,0.677
0.185,-0.619,-0.804,0.218,0.495,-0.712,0.161,0.557,0.715,0.762,0.643,0.571
0.123,-0.698,-0.821,0.288,0.473,-0.759,0.207,0.475,0.559,0.617,0.524,0.472
0.083,-0.723,-0.806,0.321,0.444,-0.764,0.226,0.395,0.429,0.479,0.419,0.383
0.054,-0.731,-0.785,0.339,0.419,-0.758,0.236,0.335,0.323,0.375,0.33,0.316
0.041,-0.738,-0.779,0.349,0.41,-0.759,0.245,0.3,0.254,0.306,0.278,0.274
0.004,-0.766,-0.77,0.381,0.387,-0.768,0.246,0.272,0.226,0.27,0.245,0.252
-0.001,-0.762,-0.761,0.382,0.38,-0.761,0.243,0.258,0.2,0.249,0.232,0.243
0.027,-0.731,-0.757,0.352,0.392,-0.744,0.251,0.261,0.195,0.24,0.225,0.232
0.013,-0.736,-0.749,0.362,0.381,-0.742,0.265,0.259,0.194,0.227,0.215,0.222
0.013,-0.734,-0.748,0.361,0.381,-0.741,0.266,0.26,0.195,0.218,0.215,0.218
0.01,-0.726,-0.736,0.358,0.373,-0.731,0.264,0.259,0.195,0.21,0.215,0.214
-0.002,-0.743,-0.741,0.373,0.37,-0.742,0.265,0.26,0.194,0.206,0.215,0.212
0.012,-0.785,-0.797,0.387,0.405,-0.791,0.28,0.28,0.214,0.229,0.215,0.206
0.004,-0.799,-0.803,0.397,0.404,-0.801,0.286,0.283,0.216,0.232,0.215,0.205
-0.015,-0.79,-0.775,0.402,0.381,-0.782,0.278,0.272,0.204,0.22,0.212,0.209
0.003,-0.793,-0.796,0.395,0.4,-0.794,0.278,0.268,0.198,0.216,0.209,0.211
0.033,-0.782,-0.816,0.375,0.425,-0.799,0.271,0.259,0.19,0.205,0.21,0.215
0.028,-0.792,-0.819,0.382,0.424,-0.805,0.271,0.256,0.185,0.203,0.209,0.217
0.005,-0.823,-0.829,0.409,0.417,-0.826,0.274,0.253,0.179,0.209,0.21,0.222
0.005,-0.835,-0.84,0.415,0.423,-0.837,0.279,0.25,0.175,0.204,0.209,0.224
0.008,-0.861,-0.869,0.427,0.439,-0.865,0.293,0.247,0.171,0.197,0.206,0.221
0.0,-0.87,-0.869,0.435,0.434,-0.869,0.295,0.245,0.166,0.19,0.204,0.219
-0.007,-0.872,-0.865,0.439,0.429,-0.868,0.295,0.242,0.162,0.184,0.206,0.217
-0.003,-0.859,-0.856,0.431,0.427,-0.857,0.298,0.239,0.16,0.178,0.204,0.213
0.003,-0.852,-0.855,0.424,0.429,-0.853,0.3,0.239,0.159,0.183,0.207,0.218
0.023,-0.887,-0.91,0.432,0.467,-0.898,0.299,0.24,0.16,0.206,0.224,0.238
0.028,-0.882,-0.91,0.427,0.47,-0.896,0.295,0.24,0.16,0.21,0.224,0.238
0.005,-0.858,-0.863,0.427,0.434,-0.861,0.295,0.241,0.16,0.21,0.22,0.233
0.016,-0.831,-0.846,0.408,0.431,-0.838,0.288,0.245,0.168,0.21,0.219,0.232
0.055,-0.802,-0.857,0.373,0.457,-0.829,0.29,0.253,0.174,0.212,0.214,0.225
0.069,-0.767,-0.836,0.35,0.452,-0.801,0.28,0.26,0.18,0.221,0.218,0.227
0.076,-0.728,-0.804,0.327,0.44,-0.766,0.295,0.262,0.198,0.24,0.248,0.258
0.11,-0.745,-0.855,0.318,0.482,-0.8,0.315,0.29,0.241,0.291,0.296,0.301
0.116,-0.822,-0.938,0.354,0.527,-0.88,0.287,0.307,0.268,0.298,0.305,0.314
0.106,-0.882,-0.988,0.389,0.547,-0.935,0.272,0.276,0.238,0.281,0.29,0.303
0.092,-0.946,-1.038,0.427,0.565,-0.992,0.278,0.265,0.226,0.281,0.277,0.296
0.036,-0.977,-1.013,0.47,0.525,-0.995,0.319,0.267,0.199,0.247,0.262,0.282
0.021,-0.959,-0.98,0.469,0.5,-0.969,0.337,0.24,0.171,0.226,0.238,0.246
0.016,-0.951,-0.967,0.468,0.492,-0.959,0.337,0.23,0.171,0.19,0.198,0.221
0.005,-0.96,-0.965,0.478,0.485,-0.962,0.33,0.208,0.166,0.219,0.214,0.228
0.001,-0.967,-0.968,0.484,0.485,-0.967,0.342,0.246,0.183,0.184,0.2,0.213
-0.014,-0.977,-0.964,0.496,0.476,-0.971,0.323,0.214,0.157,0.209,0.217,0.223
0.018,-1.06,-1.078,0.522,0.549,-1.069,0.382,0.377,0.27,0.187,0.176,0.188
0.057,-0.968,-1.025,0.456,0.542,-0.997,0.587,0.929,0.751,0.256,0.145,0.13
0.275,-0.655,-0.93,0.19,0.603,-0.792,0.538,1.253,1.347,0.845,0.591,0.47
0.486,0.059,-0.426,-0.273,0.456,-0.183,0.208,0.791,1.53,2.029,1.66,1.311
0.217,0.361,0.143,-0.289,0.037,0.252,-0.03,-0.627,0.711,3.162,2.221,1.639
-0.312,-0.478,-0.165,0.395,-0.073,-0.321,0.001,-1.41,-1.142,1.112,0.731,0.657
-0.511,-1.141,-0.63,0.826,0.06,-0.885,-0.1,-1.052,-2.027,-1.375,-0.675,-0.215
-0.28,-1.284,-1.005,0.782,0.363,-1.144,-0.143,-0.515,-1.148,-0.843,-0.456,-0.176
-0.076,-1.161,-1.085,0.619,0.505,-1.123,0.158,0.119,-0.237,-0.193,-0.082,0.03
-0.012,-0.981,-0.97,0.496,0.479,-0.975,0.302,0.34,0.174,0.107,0.147,0.186
0.001,-0.965,-0.965,0.482,0.483,-0.965,0.319,0.316,0.262,0.207,0.184,0.205
-0.003,-0.928,-0.924,0.466,0.461,-0.926,0.338,0.336,0.277,0.177,0.164,0.193
0.026,-0.915,-0.942,0.445,0.484,-0.928,0.33,0.326,0.329,0.253,0.204,0.214
0.026,-0.91,-0.937,0.442,0.482,-0.924,0.339,0.354,0.342,0.218,0.199,0.213
0.028,-0.899,-0.927,0.436,0.478,-0.913,0.329,0.347,0.393,0.295,0.239,0.236
