-0.119,-0.055,0.064,0.086,-0.091,0.004,-0.069,-0.031,0.0,-0.026,-0.039,-0.079
-0.116,-0.051,0.065,0.083,-0.09,0.006,-0.064,-0.036,-0.003,-0.031,-0.034,-0.074
-0.12,-0.044,0.076,0.082,-0.098,0.016,-0.058,-0.034,-0.01,-0.028,-0.029,-0.069
-0.117,-0.038,0.08,0.077,-0.098,0.021,-0.05,-0.03,-0.015,-0.023,-0.022,-0.064
-0.103,-0.031,0.072,0.066,-0.087,0.021,-0.045,-0.027,-0.02,-0.019,-0.018,-0.058
-0.097,-0.025,0.071,0.061,-0.084,0.023,-0.036,-0.025,-0.009,-0.014,-0.012,-0.052
-0.119,-0.014,0.106,0.066,-0.112,0.046,-0.029,-0.012,0.005,-0.008,-0.007,-0.048
-0.096,0.008,0.104,0.044,-0.1,0.056,-0.023,0.003,0.018,0.002,-0.001,-0.041
-0.048,0.044,0.092,0.002,-0.07,0.068,-0.015,0.018,0.021,0.009,0.005,-0.038
-0.037,0.045,0.081,-0.004,-0.059,0.063,-0.05,0.009,0.018,0.022,0.009,-0.033
-0.032,0.034,0.066,-0.001,-0.05,0.05,-0.075,0.007,0.042,0.042,0.028,-0.029
-0.002,0.078,0.08,-0.038,-0.042,0.079,-0.064,0.022,0.048,0.045,0.041,-0.025
-0.017,0.052,0.069,-0.017,-0.044,0.06,-0.065,0.007,0.039,0.046,0.041,-0.014
-0.115,-0.028,0.086,0.071,-0.1,0.029,-0.059,-0.011,0.018,0.015,0.01,-0.058
-0.156,-0.063,0.093,0.109,-0.124,0.015,-0.055,-0.04,-0.022,-0.027,-0.031,-0.096
-0.153,-0.066,0.088,0.109,-0.12,0.011,-0.058,-0.037,-0.033,-0.03,-0.036,-0.086
-0.143,-0.058,0.084,0.1,-0.113,0.013,-0.059,-0.038,-0.037,-0.034,-0.039,-0.086
-0.109,-0.072,0.037,0.09,-0.073,-0.017,-0.065,-0.028,-0.033,-0.036,-0.045,-0.084
-0.153,-0.055,0.097,0.104,-0.125,0.021,-0.063,-0.027,-0.035,-0.027,-0.045,-0.075
-0.178,-0.066,0.113,0.122,-0.145,0.023,-0.036,-0.017,-0.041,-0.034,-0.057,-0.094
-0.152,-0.04,0.112,0.096,-0.132,0.035,0.048,0.157,0.055,0.001,-0.036,-0.105
0.043,0.156,0.113,-0.1,-0.035,0.134,0.031,0.364,0.397,0.309,0.203,0.05
0.469,0.344,-0.124,-0.406,0.296,0.11,-0.29,0.076,0.486,0.539,0.494,0.313
0.371,0.247,-0.124,-0.309,0.248,0.061,-0.636,-0.953,-0.176,0.132,0.369,0.382
-0.002,0.007,0.008,-0.002,-0.005,0.007,-0.672,-1.339,-0.606,-0.277,0.084,0.248
-0.078,-0.081,-0.003,0.08,-0.037,-0.042,-0.463,-0.753,-0.395,-0.235,-0.013,0.101
-0.132,-0.058,0.074,0.094,-0.103,0.008,-0.199,-0.3,-0.167,-0.129,-0.063,-0.008
-0.132,-0.073,0.059,0.102,-0.095,-0.007,-0.054,-0.078,-0.047,-0.08,-0.071,-0.063
-0.14,-0.088,0.052,0.114,-0.096,-0.018,-0.026,-0.023,-0.012,-0.053,-0.061,-0.086
-0.138,-0.057,0.082,0.097,-0.11,0.012,-0.015,0.012,0.004,-0.037,-0.061,-0.092
-0.179,-0.094,0.085,0.136,-0.132,-0.005,-0.011,0.042,0.007,-0.022,-0.053,-0.085
-0.18,-0.072,0.108,0.126,-0.144,0.018,-0.009,0.038,0.003,-0.016,-0.051,-0.085
-0.119,-0.051,0.068,0.084,-0.093,0.008,-0.004,0.048,0.006,-0.013,-0.043,-0.08
-0.158,-0.088,0.07,0.123,-0.113,-0.009,-0.001,0.047,0.011,-0.01,-0.039,-0.079
-0.138,-0.077,0.061,0.108,-0.1,-0.008,0.004,0.058,0.017,-0.008,-0.034,-0.076
-0.117,-0.077,0.04,0.097,-0.078,-0.018,0.017,0.054,-0.001,-0.003,-0.024,-0.073
-0.133,-0.067,0.065,0.1,-0.099,-0.001,0.01,0.07,-0.007,-0.019,-0.041,-0.087
-0.126,-0.066,0.061,0.096,-0.093,-0.002,0.005,0.078,-0.001,-0.029,-0.055,-0.094
-0.149,-0.055,0.095,0.102,-0.122,0.02,0.027,0.073,0.009,-0.018,-0.044,-0.085
-0.156,-0.058,0.097,0.107,-0.126,0.019,0.035,0.077,0.017,-0.013,-0.04,-0.08
-0.139,-0.056,0.083,0.097,-0.11,0.013,0.039,0.1,0.025,-0.005,-0.032,-0.072
-0.124,-0.036,0.089,0.08,-0.106,0.026,0.035,0.115,0.028,-0.006,-0.027,-0.067
-0.073,-0.035,0.038,0.054,-0.055,0.001,0.018,0.118,0.017,-0.003,-0.014,-0.057
-0.078,-0.011,0.067,0.044,-0.072,0.028,0.039,0.154,0.049,0.017,0.012,-0.038
-0.123,-0.001,0.121,0.062,-0.122,0.06,0.064,0.176,0.081,0.036,0.023,-0.026
-0.121,-0.014,0.107,0.067,-0.114,0.046,0.059,0.192,0.082,0.042,0.028,-0.024
-0.062,0.041,0.103,0.01,-0.082,0.072,0.058,0.234,0.112,0.08,0.055,-0.001
-0.023,0.081,0.104,-0.029,-0.064,0.092,0.054,0.257,0.142,0.123,0.099,0.039
-0.024,0.064,0.088,-0.02,-0.057,0.076,0.055,0.264,0.158,0.135,0.119,0.059
0.022,0.124,0.102,-0.074,-0.04,0.113,0.063,0.262,0.178,0.167,0.157,0.098
0.021,0.151,0.13,-0.086,-0.055,0.14,0.049,0.245,0.178,0.176,0.177,0.114
0.011,0.137,0.126,-0.074,-0.058,0.131,0.028,0.204,0.167,0.171,0.16,0.106
-0.009,0.117,0.127,-0.054,-0.068,0.122,0.017,0.155,0.145,0.153,0.149,0.103
-0.042,0.071,0.113,-0.015,-0.078,0.091,0.004,0.107,0.108,0.103,0.105,0.063
-0.048,0.054,0.102,-0.003,-0.075,0.078,-0.002,0.068,0.077,0.078,0.06,0.021
-0.066,0.034,0.1,0.016,-0.083,0.067,-0.009,0.047,0.049,0.05,0.029,-0.006
-0.088,0.001,0.089,0.044,-0.089,0.044,-0.016,0.013,0.027,0.013,0.008,-0.026
-0.143,-0.057,0.087,0.1,-0.114,0.015,-0.023,-0.005,0.017,0.002,-0.006,-0.038
-0.169,-0.071,0.098,0.12,-0.133,0.014,-0.029,-0.008,0.011,-0.004,-0.024,-0.051
-0.17,-0.057,0.113,0.114,-0.141,0.028,-0.026,-0.021,0.004,-0.011,-0.025,-0.059
-0.19,-0.075,0.116,0.132,-0.153,0.02,-0.026,-0.021,-0.003,-0.018,-0.037,-0.06
-0.184,-0.071,0.113,0.127,-0.148,0.021,-0.022,-0.017,-0.007,-0.023,-0.047,-0.061
-0.165,-0.057,0.108,0.111,-0.136,0.025,-0.035,-0.036,-0.031,-0.038,-0.044,-0.065
-0.195,-0.079,0.116,0.136,-0.155,0.018,-0.044,-0.046,-0.042,-0.047,-0.043,-0.065
-0.188,-0.085,0.103,0.136,-0.146,0.009,-0.032,-0.037,-0.032,-0.044,-0.04,-0.065
-0.178,-0.075,0.103,0.126,-0.14,0.014,-0.026,-0.035,-0.03,-0.049,-0.039,-0.065
-0.186,-0.076,0.11,0.131,-0.147,0.017,-0.02,-0.03,-0.025,-0.05,-0.047,-0.065
-0.163,-0.065,0.098,0.114,-0.131,0.017,-0.015,-0.025,-0.02,-0.05,-0.055,-0.062
-0.169,-0.07,0.099,0.12,-0.134,0.014,-0.01,-0.021,-0.017,-0.044,-0.047,-0.057
-0.138,-0.038,0.1,0.088,-0.119,0.031,-0.002,-0.014,-0.014,-0.038,-0.041,-0.055
-0.159,-0.044,0.116,0.102,-0.137,0.036,-0.002,-0.011,-0.012,-0.034,-0.035,-0.05
-0.184,-0.079,0.105,0.132,-0.144,0.012,-0.014,-0.004,-0.008,-0.027,-0.026,-0.047
-0.143,-0.07,0.074,0.106,-0.108,0.002,-0.016,0.001,-0.006,-0.023,-0.033,-0.043
-0.157,-0.083,0.074,0.12,-0.115,-0.004,-0.009,0.007,-0.003,-0.017,-0.042,-0.04
-0.126,-0.057,0.069,0.092,-0.097,0.006,-0.009,0.019,0.001,-0.015,-0.037,-0.04
-0.131,-0.065,0.066,0.098,-0.099,0.001,-0.003,0.021,0.006,-0.015,-0.035,-0.038
-0.155,-0.073,0.083,0.114,-0.119,0.005,0.0,0.019,0.01,-0.015,-0.032,-0.035
-0.143,-0.051,0.092,0.097,-0.117,0.02,-0.019,0.02,-0.009,-0.015,-0.029,-0.035
-0.17,-0.086,0.084,0.128,-0.127,-0.001,-0.027,0.02,-0.012,-0.016,-0.032,-0.039
-0.146,-0.075,0.071,0.11,-0.109,-0.002,-0.024,0.02,0.001,-0.029,-0.027,-0.04
-0.157,-0.073,0.084,0.115,-0.12,0.005,-0.022,0.016,-0.02,-0.029,-0.038,-0.04
-0.175,-0.101,0.074,0.138,-0.125,-0.013,-0.019,0.01,-0.031,-0.021,-0.056,-0.044
-0.141,-0.1,0.041,0.12,-0.091,-0.029,-0.021,0.005,-0.029,-0.019,-0.055,-0.046
-0.158,-0.106,0.051,0.132,-0.104,-0.027,-0.025,-0.001,-0.031,-0.013,-0.054,-0.043
-0.174,-0.102,0.072,0.138,-0.123,-0.015,-0.03,-0.006,-0.029,-0.01,-0.05,-0.041
-0.167,-0.098,0.07,0.132,-0.118,-0.014,-0.034,-0.012,-0.031,-0.018,-0.05,-0.037
-0.168,-0.093,0.075,0.13,-0.121,-0.009,-0.033,-0.016,-0.027,-0.033,-0.048,-0.035
-0.165,-0.09,0.076,0.127,-0.12,-0.007,-0.029,-0.014,-0.024,-0.037,-0.044,-0.031
-0.158,-0.084,0.074,0.121,-0.116,-0.005,-0.027,-0.011,-0.02,-0.035,-0.046,-0.03
-0.153,-0.077,0.075,0.114,-0.114,-0.001,-0.024,-0.008,-0.017,-0.035,-0.041,-0.035
-0.119,-0.071,0.048,0.095,-0.084,-0.011,-0.021,-0.006,-0.012,-0.035,-0.04,-0.035
-0.113,-0.063,0.05,0.088,-0.081,-0.006,-0.02,-0.003,-0.01,-0.035,-0.04,-0.03
-0.118,-0.061,0.057,0.09,-0.087,-0.002,-0.02,-0.01,-0.026,-0.035,-0.035,-0.028
-0.106,-0.057,0.049,0.081,-0.077,-0.004,-0.02,-0.021,-0.031,-0.03,-0.035,-0.023
-0.149,-0.087,0.062,0.118,-0.105,-0.012,-0.02,-0.016,-0.023,-0.03,-0.035,-0.02
-0.148,-0.09,0.058,0.119,-0.103,-0.016,-0.02,-0.013,-0.02,-0.029,-0.035,-0.032
-0.132,-0.082,0.05,0.107,-0.091,-0.015,-0.02,-0.009,-0.012,-0.024,-0.035,-0.032
-0.122,-0.074,0.048,0.098,-0.085,-0.012,-0.017,-0.005,-0.007,-0.026,-0.033,-0.024
-0.13,-0.058,0.072,0.094,-0.1,0.006,-0.009,-0.003,-0.003,-0.021,-0.023,-0.018
-0.126,-0.058,0.068,0.092,-0.097,0.005,-0.001,0.008,0.005,-0.007,-0.015,-0.011
-0.051,0.013,0.064,0.018,-0.057,0.038,0.006,0.017,0.007,0.007,-0.006,-0.003
-0.072,0.016,0.088,0.028,-0.08,0.052,0.016,0.028,0.019,0.017,0.002,0.008
-0.098,-0.023,0.075,0.06,-0.086,0.026,-0.01,0.029,0.015,0.012,0.005,0.017
-0.081,-0.002,0.079,0.041,-0.079,0.038,-0.038,0.031,0.027,0.031,0.024,0.033
-0.06,-0.005,0.055,0.032,-0.057,0.025,-0.034,0.024,0.041,0.038,0.031,0.033
-0.069,-0.039,0.03,0.054,-0.049,-0.005,-0.032,-0.011,0.005,0.005,0.003,0.015
-0.106,-0.081,0.025,0.093,-0.065,-0.028,-0.029,-0.024,-0.002,-0.026,-0.036,0.005
-0.119,-0.105,0.014,0.112,-0.066,-0.045,-0.026,-0.037,-0.006,-0.027,-0.04,-0.008
-0.148,-0.114,0.033,0.131,-0.09,-0.04,-0.024,-0.043,-0.03,-0.033,-0.041,-0.019
-0.129,-0.106,0.023,0.118,-0.076,-0.041,-0.041,-0.044,-0.054,-0.066,-0.064,-0.028
-0.126,-0.102,0.025,0.114,-0.075,-0.038,-0.036,-0.033,-0.049,-0.064,-0.059,-0.022
-0.152,-0.109,0.043,0.13,-0.097,-0.033,-0.02,-0.028,-0.031,-0.062,-0.053,-0.004
-0.131,-0.14,-0.009,0.135,-0.06,-0.074,0.002,0.031,-0.03,-0.062,-0.068,-0.04
-0.107,-0.047,0.06,0.077,-0.083,0.007,0.09,0.225,0.121,0.056,0.007,-0.023
0.208,0.213,0.005,-0.211,0.101,0.109,0.003,0.379,0.476,0.415,0.301,0.194
0.521,0.302,-0.219,-0.411,0.37,0.041,-0.367,-0.158,0.327,0.467,0.496,0.409
0.251,0.117,-0.134,-0.183,0.192,-0.008,-0.649,-1.181,-0.386,-0.046,0.269,0.405
-0.045,-0.053,-0.008,0.049,-0.019,-0.03,-0.59,-1.206,-0.575,-0.271,0.038,0.276
-0.117,-0.092,0.025,0.104,-0.071,-0.033,-0.338,-0.579,-0.312,-0.179,-0.033,0.136
-0.122,-0.086,0.036,0.103,-0.078,-0.025,-0.12,-0.223,-0.131,-0.13,-0.08,0.045
-0.108,-0.079,0.029,0.093,-0.068,-0.025,-0.032,-0.031,-0.042,-0.071,-0.071,0.02
-0.157,-0.097,0.06,0.127,-0.109,-0.018,-0.011,0.0,-0.027,-0.052,-0.069,0.006
-0.155,-0.101,0.054,0.128,-0.104,-0.023,0.014,0.024,-0.011,-0.041,-0.064,0.001
-0.135,-0.087,0.049,0.111,-0.092,-0.019,0.025,0.039,-0.011,-0.039,-0.059,-0.006
-0.138,-0.091,0.046,0.114,-0.092,-0.022,0.038,0.039,-0.005,-0.034,-0.056,-0.013
-0.134,-0.102,0.032,0.118,-0.083,-0.034,0.041,0.04,0.0,-0.029,-0.049,-0.019
-0.121,-0.098,0.023,0.11,-0.072,-0.037,0.039,0.045,0.003,-0.031,-0.048,-0.021
-0.143,-0.106,0.037,0.124,-0.089,-0.034,0.042,0.068,0.006,-0.029,-0.043,-0.019
-0.163,-0.099,0.065,0.131,-0.114,-0.017,0.044,0.063,0.004,-0.031,-0.042,-0.021
-0.131,-0.077,0.055,0.104,-0.093,-0.011,0.045,0.066,0.011,-0.029,-0.038,-0.019
-0.122,-0.083,0.039,0.103,-0.08,-0.021,0.047,0.064,0.009,-0.031,-0.036,-0.021
-0.135,-0.095,0.04,0.115,-0.087,-0.027,0.051,0.069,0.012,-0.026,-0.033,-0.018
-0.133,-0.098,0.034,0.115,-0.083,-0.032,0.049,0.082,0.017,-0.02,-0.028,-0.012
-0.134,-0.086,0.047,0.11,-0.09,-0.019,0.047,0.095,0.024,-0.012,-0.02,-0.002
-0.107,-0.071,0.036,0.089,-0.071,-0.017,0.041,0.112,0.032,-0.007,-0.016,0.004
-0.089,-0.06,0.03,0.075,-0.059,-0.015,0.043,0.134,0.035,0.007,-0.006,0.013
-0.066,-0.043,0.023,0.054,-0.044,-0.01,0.072,0.156,0.051,0.025,-0.004,0.019
-0.049,-0.023,0.026,0.036,-0.038,0.002,0.082,0.182,0.068,0.035,0.015,0.02
-0.094,-0.023,0.071,0.058,-0.082,0.024,0.083,0.22,0.095,0.064,0.053,0.052
-0.085,-0.006,0.079,0.045,-0.082,0.036,0.098,0.235,0.115,0.088,0.066,0.075
-0.018,0.059,0.077,-0.021,-0.048,0.068,0.091,0.254,0.138,0.125,0.106,0.106
0.02,0.094,0.074,-0.057,-0.027,0.083,0.081,0.264,0.17,0.158,0.146,0.14
0.039,0.105,0.066,-0.072,-0.014,0.085,0.073,0.247,0.172,0.173,0.161,0.16
0.072,0.137,0.065,-0.105,0.003,0.101,0.063,0.224,0.164,0.184,0.165,0.182
0.071,0.128,0.057,-0.099,0.006,0.092,0.056,0.186,0.156,0.173,0.155,0.18
0.048,0.104,0.056,-0.076,-0.004,0.079,0.045,0.142,0.143,0.152,0.143,0.16
0.011,0.072,0.061,-0.042,-0.026,0.067,0.045,0.092,0.116,0.109,0.107,0.121
-0.043,0.026,0.069,0.008,-0.056,0.047,0.044,0.074,0.074,0.061,0.065,0.078
-0.062,0.002,0.063,0.03,-0.063,0.032,0.036,0.052,0.039,0.03,0.028,0.045
-0.076,-0.025,0.051,0.05,-0.063,0.013,0.03,0.019,0.024,0.022,0.009,0.028
-0.091,-0.046,0.045,0.068,-0.068,-0.001,0.022,0.02,0.013,0.014,-0.006,0.018
-0.102,-0.067,0.035,0.085,-0.068,-0.016,0.017,0.01,0.004,0.002,-0.03,0.008
-0.114,-0.065,0.049,0.09,-0.081,-0.008,0.005,0.004,-0.002,-0.009,-0.036,0.004
-0.127,-0.06,0.067,0.093,-0.097,0.003,-0.006,-0.013,-0.01,-0.019,-0.035,-0.002
-0.125,-0.065,0.06,0.095,-0.092,-0.002,-0.001,-0.028,-0.015,-0.022,-0.035,-0.007
-0.123,-0.065,0.058,0.094,-0.09,-0.004,-0.002,-0.02,-0.023,-0.026,-0.035,-0.013
-0.135,-0.081,0.053,0.107,-0.094,-0.014,-0.004,-0.017,-0.023,-0.025,-0.034,-0.013
-0.124,-0.075,0.049,0.099,-0.086,-0.012,0.001,-0.012,-0.019,-0.025,-0.031,-0.009
-0.12,-0.07,0.05,0.094,-0.085,-0.01,0.004,-0.008,-0.021,-0.034,-0.028,-0.011
-0.137,-0.068,0.069,0.102,-0.103,0.001,0.008,-0.004,-0.02,-0.032,-0.025,-0.01
-0.144,-0.058,0.086,0.1,-0.115,0.014,0.011,0.002,-0.02,-0.026,-0.023,-0.01
-0.148,-0.074,0.073,0.111,-0.11,0.0,0.014,0.008,-0.02,-0.021,-0.019,-0.01
-0.161,-0.097,0.064,0.129,-0.112,-0.016,0.015,0.014,-0.014,-0.015,-0.026,-0.005
-0.156,-0.091,0.066,0.123,-0.111,-0.012,0.014,0.019,0.001,-0.01,-0.031,-0.003
-0.119,-0.065,0.054,0.092,-0.086,-0.005,0.016,0.024,0.022,-0.005,-0.029,0.002
-0.12,-0.085,0.035,0.102,-0.078,-0.024,0.014,0.025,0.025,-0.004,-0.03,0.002
-0.104,-0.07,0.035,0.087,-0.069,-0.017,0.016,0.03,0.025,0.0,-0.03,0.011
-0.073,-0.056,0.017,0.064,-0.045,-0.019,0.014,0.029,0.025,0.001,-0.03,0.022
-0.105,-0.081,0.024,0.093,-0.064,-0.028,0.005,0.025,0.02,-0.005,-0.026,0.029
-0.098,-0.054,0.044,0.076,-0.071,-0.005,0.008,0.023,0.02,-0.006,-0.019,0.041
-0.087,-0.061,0.027,0.074,-0.057,-0.017,0.015,0.019,0.018,-0.001,-0.012,0.037
-0.1,-0.068,0.032,0.083,-0.065,-0.018,0.019,0.018,0.016,0.0,-0.006,0.033
-0.083,-0.07,0.013,0.077,-0.048,-0.028,0.016,0.012,0.013,-0.005,0.002,0.03
-0.107,-0.081,0.026,0.094,-0.066,-0.027,0.01,0.026,0.023,-0.003,0.004,0.025
-0.111,-0.066,0.045,0.088,-0.078,-0.01,0.007,0.04,0.029,-0.001,-0.009,0.023
-0.058,-0.064,-0.007,0.061,-0.025,-0.035,-0.001,0.033,0.02,-0.014,-0.024,0.019
-0.074,-0.055,0.019,0.065,-0.046,-0.018,0.005,0.028,0.014,-0.021,-0.027,0.02
-0.085,-0.052,0.033,0.068,-0.059,-0.009,0.011,0.022,0.006,-0.02,-0.023,0.02
-0.076,-0.051,0.025,0.063,-0.05,-0.013,0.004,0.02,-0.002,-0.018,-0.019,0.02
-0.099,-0.048,0.051,0.074,-0.075,0.001,0.005,0.02,-0.003,-0.015,-0.016,0.02
-0.069,-0.045,0.024,0.057,-0.046,-0.011,0.005,0.02,0.0,-0.015,-0.011,0.02
-0.066,-0.034,0.032,0.05,-0.049,-0.001,0.005,0.02,0.0,-0.012,-0.011,0.022
-0.083,-0.054,0.029,0.068,-0.056,-0.012,0.005,0.02,0.0,-0.009,-0.027,0.021
-0.076,-0.07,0.006,0.073,-0.041,-0.031,0.004,0.02,0.0,-0.006,-0.033,0.02
-0.058,-0.056,0.002,0.057,-0.029,-0.027,0.006,0.015,0.001,-0.003,-0.026,0.02
-0.053,-0.059,-0.006,0.056,-0.023,-0.032,0.002,0.014,0.004,0.0,-0.025,0.02
-0.096,-0.06,0.036,0.078,-0.066,-0.012,0.015,0.01,0.005,-0.001,-0.02,0.019
-0.069,-0.06,0.009,0.065,-0.039,-0.026,0.033,0.007,0.008,-0.005,-0.017,0.023
-0.086,-0.065,0.022,0.076,-0.054,-0.021,0.024,0.005,0.011,-0.009,-0.014,0.025
-0.127,-0.065,0.062,0.096,-0.094,-0.002,0.024,0.004,0.006,-0.011,-0.009,0.026
-0.097,-0.063,0.034,0.08,-0.065,-0.015,0.018,0.015,-0.011,-0.017,-0.005,0.031
-0.103,-0.053,0.05,0.078,-0.076,-0.001,0.014,0.018,0.0,-0.001,0.001,0.028
-0.055,-0.024,0.031,0.039,-0.042,0.003,0.032,0.042,0.039,0.031,0.003,0.035
-0.011,0.029,0.039,-0.009,-0.025,0.034,0.032,0.063,0.056,0.043,0.013,0.046
-0.007,0.045,0.052,-0.019,-0.03,0.049,0.012,0.052,0.057,0.033,0.032,0.054
0.013,0.035,0.022,-0.024,-0.005,0.028,-0.016,0.049,0.059,0.03,0.042,0.069
0.001,0.027,0.026,-0.014,-0.013,0.026,-0.023,0.046,0.069,0.047,0.038,0.07
0.005,0.017,0.012,-0.011,-0.004,0.014,-0.009,0.039,0.064,0.044,0.043,0.07
-0.009,0.009,0.018,0.0,-0.014,0.014,0.003,0.036,0.038,0.032,0.039,0.069
-0.029,-0.029,0.0,0.029,-0.015,-0.014,0.004,0.02,0.012,0.011,-0.007,0.034
-0.037,-0.062,-0.025,0.049,-0.005,-0.044,-0.002,0.01,0.001,-0.014,-0.03,0.005
-0.102,-0.072,0.03,0.087,-0.066,-0.021,-0.001,0.003,-0.006,-0.028,-0.033,-0.003
-0.077,-0.068,0.008,0.073,-0.042,-0.03,-0.001,-0.011,-0.013,-0.021,-0.037,-0.009
-0.063,-0.073,-0.01,0.068,-0.026,-0.041,0.017,0.001,-0.011,-0.01,-0.031,-0.017
-0.101,-0.076,0.025,0.088,-0.062,-0.026,0.024,0.004,-0.006,0.0,-0.024,-0.024
-0.08,-0.074,0.007,0.077,-0.043,-0.033,0.053,0.092,0.007,-0.013,-0.041,-0.032
-0.025,0.022,0.047,0.002,-0.036,0.034,0.106,0.293,0.19,0.112,0.038,0.027
0.351,0.292,-0.059,-0.321,0.205,0.116,-0.033,0.387,0.538,0.495,0.379,0.276
0.559,0.343,-0.216,-0.451,0.387,0.064,-0.407,-0.331,0.227,0.413,0.499,0.472
0.226,0.122,-0.103,-0.174,0.164,0.009,-0.639,-1.273,-0.474,-0.117,0.215,0.414
-0.029,-0.001,0.028,0.015,-0.028,0.014,-0.526,-1.061,-0.514,-0.262,0.038,0.272
-0.106,-0.057,0.049,0.081,-0.077,-0.004,-0.27,-0.462,-0.26,-0.165,-0.031,0.146
-0.095,-0.062,0.033,0.078,-0.064,-0.014,-0.073,-0.149,-0.093,-0.095,-0.065,0.071
-0.067,-0.043,0.024,0.055,-0.045,-0.01,-0.004,0.002,-0.006,-0.046,-0.041,0.036
-0.115,-0.071,0.044,0.092,-0.079,-0.013,0.034,0.028,0.004,-0.032,-0.033,0.028
-0.101,-0.07,0.031,0.085,-0.066,-0.019,0.057,0.062,0.016,-0.023,-0.025,0.031
-0.1,-0.067,0.033,0.083,-0.066,-0.017,0.044,0.053,0.015,-0.023,-0.037,0.025
-0.121,-0.063,0.058,0.092,-0.089,-0.003,0.062,0.075,0.03,-0.015,-0.042,0.025
-0.112,-0.076,0.036,0.094,-0.074,-0.02,0.075,0.092,0.04,-0.012,-0.039,0.025
-0.089,-0.053,0.035,0.071,-0.062,-0.009,0.07,0.089,0.035,-0.007,-0.037,0.025
-0.015,0.007,0.022,0.004,-0.019,0.015,0.065,0.091,0.03,-0.001,-0.034,0.025
-0.024,-0.032,-0.008,0.028,-0.008,-0.02,0.062,0.089,0.026,-0.011,-0.035,0.025
-0.087,-0.052,0.035,0.069,-0.061,-0.008,0.056,0.091,0.021,-0.007,-0.03,0.025
-0.072,-0.01,0.062,0.041,-0.067,0.026,0.058,0.092,0.023,0.006,-0.024,0.025
-0.052,-0.002,0.05,0.027,-0.051,0.024,0.077,0.112,0.042,0.025,-0.021,0.026
-0.073,-0.015,0.058,0.043,-0.065,0.022,0.087,0.126,0.046,0.043,-0.015,0.032
-0.076,-0.023,0.053,0.049,-0.064,0.014,0.084,0.134,0.045,0.037,-0.013,0.032
-0.071,-0.011,0.06,0.04,-0.065,0.024,0.086,0.149,0.052,0.042,-0.006,0.04
-0.084,-0.019,0.065,0.051,-0.074,0.022,0.084,0.161,0.047,0.038,-0.003,0.038
-0.056,-0.011,0.045,0.033,-0.05,0.017,0.093,0.188,0.065,0.041,0.008,0.042
-0.032,0.012,0.044,0.01,-0.038,0.027,0.115,0.215,0.076,0.056,0.035,0.068
0.014,0.062,0.048,-0.038,-0.017,0.055,0.121,0.247,0.102,0.077,0.063,0.092
0.028,0.097,0.07,-0.063,-0.021,0.083,0.132,0.275,0.144,0.117,0.094,0.119
0.002,0.083,0.081,-0.043,-0.04,0.082,0.133,0.286,0.154,0.136,0.115,0.137
0.084,0.155,0.07,-0.12,0.007,0.112,0.115,0.299,0.184,0.18,0.163,0.176
0.11,0.182,0.072,-0.147,0.019,0.127,0.107,0.284,0.189,0.196,0.194,0.198
0.099,0.187,0.088,-0.143,0.005,0.138,0.098,0.244,0.176,0.181,0.184,0.197
0.103,0.183,0.08,-0.143,0.012,0.131,0.077,0.206,0.176,0.179,0.172,0.192
0.071,0.136,0.065,-0.104,0.002,0.101,0.061,0.166,0.139,0.139,0.134,0.158
0.043,0.11,0.067,-0.077,-0.012,0.088,0.055,0.123,0.108,0.107,0.103,0.124
0.025,0.072,0.047,-0.049,-0.011,0.059,0.05,0.094,0.094,0.089,0.077,0.088
-0.01,0.043,0.053,-0.017,-0.032,0.048,0.044,0.061,0.052,0.044,0.027,0.062
-0.084,-0.021,0.063,0.052,-0.074,0.021,0.039,0.037,0.02,0.01,0.013,0.046
-0.071,-0.008,0.063,0.039,-0.067,0.027,0.033,0.034,0.017,0.004,0.002,0.03
-0.057,-0.013,0.044,0.034,-0.051,0.016,0.03,0.025,0.011,-0.002,-0.021,0.025
-0.072,-0.034,0.038,0.053,-0.055,0.002,0.03,0.019,0.008,-0.01,-0.019,0.023
-0.056,0.018,0.075,0.018,-0.066,0.047,0.027,0.012,0.003,-0.015,-0.021,0.02
-0.064,0.009,0.073,0.027,-0.069,0.041,0.025,0.009,-0.002,-0.022,-0.019,0.017
-0.073,-0.007,0.065,0.04,-0.069,0.029,0.024,0.006,-0.009,-0.025,-0.025,0.015
-0.093,-0.024,0.068,0.058,-0.08,0.022,0.027,0.003,-0.021,-0.03,-0.035,0.011
-0.069,-0.014,0.056,0.042,-0.062,0.021,0.023,-0.002,-0.021,-0.042,-0.05,0.01
-0.079,-0.016,0.063,0.048,-0.071,0.023,0.035,-0.012,-0.014,-0.043,-0.057,0.01
-0.094,-0.023,0.071,0.059,-0.082,0.023,0.056,-0.003,-0.008,-0.035,-0.05,0.005
-0.069,-0.009,0.059,0.039,-0.064,0.025,0.05,0.013,0.0,-0.03,-0.05,0.005
-0.09,-0.048,0.042,0.069,-0.066,-0.003,0.045,0.007,0.004,-0.025,-0.045,0.006
-0.11,-0.053,0.056,0.081,-0.083,0.002,0.042,0.012,-0.005,-0.022,-0.045,0.012
-0.106,-0.028,0.078,0.067,-0.092,0.025,0.037,0.034,-0.007,-0.018,-0.038,0.018
-0.059,0.007,0.066,0.026,-0.063,0.036,0.031,0.035,-0.002,-0.015,-0.029,0.023
-0.025,0.031,0.056,-0.004,-0.041,0.044,0.041,0.035,0.0,-0.01,-0.02,0.029
-0.032,0.016,0.049,0.008,-0.041,0.032,0.05,0.035,0.005,-0.013,-0.016,0.025
-0.036,0.001,0.037,0.017,-0.037,0.019,0.04,0.034,0.008,-0.015,-0.023,0.017
-0.048,-0.023,0.025,0.035,-0.036,0.001,0.035,0.036,0.01,-0.015,-0.026,0.011
-0.039,-0.002,0.037,0.02,-0.038,0.017,0.027,0.033,0.004,-0.015,-0.031,0.003
-0.025,0.013,0.037,0.006,-0.031,0.025,0.021,0.045,0.006,-0.016,-0.036,-0.005
-0.063,-0.033,0.03,0.048,-0.046,-0.001,0.024,0.048,0.004,-0.029,-0.039,-0.008
-0.057,-0.017,0.04,0.036,-0.048,0.011,0.024,0.041,0.005,-0.031,-0.04,-0.005
-0.07,-0.019,0.052,0.044,-0.061,0.016,0.02,0.033,0.014,-0.026,-0.04,-0.002
-0.114,-0.049,0.065,0.082,-0.09,0.008,0.02,0.029,0.004,-0.024,-0.04,0.0
-0.06,-0.034,0.026,0.047,-0.043,-0.004,0.02,0.017,0.001,-0.02,-0.04,0.0
-0.026,-0.03,-0.004,0.028,-0.011,-0.017,0.02,0.009,-0.005,-0.02,-0.038,0.0
-0.02,-0.003,0.017,0.011,-0.019,0.007,0.025,0.035,-0.012,-0.025,-0.033,0.0
-0.048,-0.003,0.045,0.026,-0.047,0.021,0.025,0.039,-0.005,-0.025,-0.03,0.0
-0.062,-0.025,0.037,0.044,-0.049,0.006,0.025,0.027,0.012,-0.022,-0.027,0.001
-0.028,-0.006,0.022,0.017,-0.025,0.008,0.021,0.023,0.018,-0.037,-0.022,-0.001
-0.054,-0.017,0.037,0.036,-0.045,0.01,0.02,0.013,0.004,-0.04,-0.02,-0.009
-0.048,-0.032,0.017,0.04,-0.032,-0.007,0.02,0.008,-0.005,-0.031,-0.027,-0.016
-0.048,-0.025,0.023,0.036,-0.035,-0.001,0.015,0.008,-0.014,-0.03,-0.036,-0.023
-0.051,-0.007,0.044,0.028,-0.047,0.018,0.01,0.016,-0.016,-0.023,-0.034,-0.022
-0.019,0.006,0.024,0.006,-0.022,0.015,0.005,0.02,-0.014,-0.021,-0.037,-0.018
-0.027,-0.002,0.025,0.014,-0.026,0.011,0.002,0.019,-0.016,-0.024,-0.04,-0.015
-0.034,-0.014,0.021,0.024,-0.027,0.003,-0.005,0.021,-0.013,-0.029,-0.04,-0.012
-0.032,-0.03,0.002,0.03,-0.016,-0.014,-0.002,0.019,-0.007,-0.028,-0.037,-0.009
-0.017,0.013,0.03,0.002,-0.024,0.022,0.012,0.022,0.002,-0.02,-0.022,-0.003
-0.032,0.023,0.054,0.004,-0.044,0.038,0.025,0.019,0.007,-0.017,-0.016,0.004
0.008,0.043,0.035,-0.026,-0.014,0.039,0.033,0.023,0.015,-0.008,-0.012,0.012
0.015,0.064,0.05,-0.04,-0.018,0.057,0.025,0.047,0.025,-0.007,-0.012,0.016
-0.022,0.041,0.063,-0.01,-0.042,0.051,0.022,0.052,0.034,0.017,-0.002,0.033
0.049,0.096,0.047,-0.073,0.001,0.071,0.015,0.049,0.046,0.029,0.015,0.047
0.055,0.082,0.027,-0.069,0.014,0.054,0.011,0.05,0.052,0.028,0.027,0.055
0.101,0.122,0.022,-0.111,0.039,0.071,0.004,0.04,0.049,0.055,0.048,0.079
0.125,0.142,0.018,-0.134,0.053,0.08,-0.009,0.032,0.05,0.052,0.051,0.087
0.015,0.03,0.015,-0.023,0.0,0.022,0.007,0.024,0.033,0.027,0.022,0.06
-0.025,-0.002,0.023,0.013,-0.024,0.01,-0.003,0.013,-0.012,-0.02,-0.027,0.027
0.0,0.012,0.012,-0.006,-0.007,0.012,-0.012,0.017,-0.036,-0.04,-0.048,0.023
0.01,0.027,0.017,-0.019,-0.004,0.022,-0.001,0.005,-0.029,-0.037,-0.041,0.014
-0.001,0.02,0.022,-0.01,-0.012,0.021,0.004,0.011,-0.018,-0.056,-0.04,0.012
-0.016,0.001,0.017,0.007,-0.017,0.009,0.011,0.003,-0.019,-0.048,-0.035,0.004
-0.011,-0.026,-0.014,0.019,0.002,-0.02,0.023,0.04,0.005,-0.037,-0.044,-0.017
-0.033,0.014,0.046,0.01,-0.04,0.03,0.101,0.216,0.096,0.023,-0.022,-0.006
0.204,0.227,0.023,-0.215,0.09,0.124,0.059,0.41,0.43,0.356,0.248,0.171
0.628,0.423,-0.204,-0.525,0.416,0.109,-0.266,0.015,0.428,0.51,0.506,0.441
0.45,0.29,-0.16,-0.37,0.305,0.065,-0.589,-1.041,-0.285,0.048,0.322,0.444
0.053,0.029,-0.023,-0.041,0.038,0.003,-0.599,-1.258,-0.597,-0.282,0.071,0.308
-0.026,-0.025,0.001,0.025,-0.013,-0.012,-0.355,-0.637,-0.341,-0.205,-0.007,0.194
-0.045,0.0,0.045,0.022,-0.045,0.022,-0.11,-0.23,-0.136,-0.119,-0.06,0.086
-0.035,-0.024,0.011,0.03,-0.023,-0.006,-0.019,-0.025,-0.054,-0.082,-0.072,0.047
-0.022,-0.016,0.007,0.019,-0.014,-0.005,0.011,0.032,-0.027,-0.058,-0.064,0.028
-0.028,0.013,0.041,0.007,-0.035,0.027,0.043,0.051,0.002,-0.04,-0.05,0.027
0.001,0.023,0.022,-0.012,-0.011,0.023,0.045,0.057,0.004,-0.034,-0.051,0.024
0.024,0.035,0.01,-0.03,0.007,0.022,0.045,0.06,0.01,-0.028,-0.06,0.019
-0.004,0.036,0.04,-0.017,-0.022,0.038,0.045,0.071,0.016,-0.02,-0.052,0.016
-0.018,0.029,0.047,-0.006,-0.033,0.038,0.055,0.07,0.021,-0.017,-0.046,0.012
-0.022,0.022,0.044,0.0,-0.033,0.032,0.044,0.075,0.025,-0.02,-0.039,0.01
-0.031,0.015,0.046,0.007,-0.038,0.03,0.034,0.074,0.018,-0.022,-0.033,0.006
-0.039,0.005,0.045,0.017,-0.042,0.025,0.071,0.1,0.015,-0.02,-0.027,0.004
-0.025,0.019,0.044,0.002,-0.035,0.032,0.087,0.111,0.011,-0.018,-0.024,0.0
0.006,0.038,0.031,-0.022,-0.013,0.034,0.084,0.11,0.003,-0.014,-0.025,0.0
0.01,0.033,0.023,-0.021,-0.007,0.027,0.083,0.118,0.018,-0.012,-0.021,0.005
0.033,0.03,-0.003,-0.032,0.018,0.013,0.081,0.126,0.039,-0.009,-0.02,0.012
0.037,0.028,-0.008,-0.032,0.022,0.01,0.078,0.13,0.041,-0.008,-0.02,0.015
0.015,0.022,0.007,-0.019,0.003,0.014,0.088,0.161,0.039,0.002,-0.013,0.023
0.009,0.037,0.028,-0.023,-0.01,0.032,0.088,0.183,0.042,0.002,-0.005,0.026
0.069,0.09,0.021,-0.08,0.024,0.055,0.088,0.196,0.064,0.02,0.007,0.037
0.122,0.136,0.014,-0.129,0.054,0.074,0.125,0.247,0.094,0.067,0.045,0.076
0.095,0.154,0.059,-0.125,0.018,0.107,0.121,0.265,0.111,0.085,0.076,0.095
0.085,0.153,0.068,-0.12,0.008,0.111,0.105,0.281,0.139,0.11,0.104,0.11
0.097,0.159,0.062,-0.128,0.017,0.11,0.1,0.311,0.181,0.151,0.162,0.148
0.167,0.235,0.067,-0.201,0.05,0.151,0.088,0.299,0.183,0.178,0.194,0.181
0.182,0.263,0.082,-0.223,0.05,0.172,0.081,0.26,0.167,0.178,0.193,0.189
0.135,0.219,0.084,-0.177,0.026,0.151,0.07,0.212,0.158,0.157,0.169,0.178
0.121,0.197,0.076,-0.159,0.022,0.136,0.053,0.166,0.138,0.144,0.142,0.165
0.073,0.15,0.077,-0.112,-0.002,0.113,0.037,0.126,0.115,0.121,0.118,0.137
0.0,0.081,0.081,-0.041,-0.041,0.081,0.031,0.098,0.08,0.075,0.069,0.09
-0.037,0.054,0.091,-0.009,-0.064,0.073,0.024,0.079,0.063,0.051,0.05,0.069
0.017,0.078,0.061,-0.048,-0.022,0.069,0.016,0.065,0.055,0.04,0.045,0.065
0.016,0.058,0.042,-0.037,-0.014,0.05,0.01,0.037,0.027,0.012,0.014,0.038
0.0,0.036,0.036,-0.018,-0.018,0.036,-0.004,0.005,0.004,-0.003,-0.007,0.024
0.012,0.032,0.02,-0.022,-0.004,0.026,-0.008,0.004,-0.022,-0.028,-0.02,0.022
-0.009,0.021,0.029,-0.006,-0.019,0.025,0.009,0.004,-0.041,-0.048,-0.033,0.018
0.012,0.054,0.042,-0.033,-0.015,0.048,0.022,-0.002,-0.04,-0.044,-0.035,0.015
0.04,0.056,0.016,-0.048,0.012,0.036,0.02,-0.003,-0.04,-0.044,-0.035,0.01
0.035,0.045,0.01,-0.04,0.012,0.027,0.02,-0.01,-0.04,-0.04,-0.035,0.008
0.01,0.043,0.034,-0.027,-0.012,0.038,0.018,-0.009,-0.04,-0.039,-0.035,0.002
0.011,0.031,0.02,-0.021,-0.005,0.026,0.014,-0.005,-0.038,-0.045,-0.03,-0.003
-0.03,0.03,0.06,-0.001,-0.045,0.045,0.015,-0.001,-0.034,-0.056,-0.029,-0.006
-0.059,0.02,0.079,0.019,-0.069,0.049,0.018,0.002,-0.036,-0.055,-0.039,-0.012
-0.029,0.021,0.05,0.004,-0.04,0.035,0.026,0.007,-0.031,-0.051,-0.037,-0.015
-0.058,0.011,0.07,0.023,-0.064,0.04,0.032,0.009,-0.03,-0.05,-0.031,-0.009
-0.033,0.012,0.045,0.01,-0.039,0.029,0.04,0.017,-0.029,-0.047,-0.028,-0.002
0.021,0.057,0.035,-0.039,-0.007,0.045,0.043,0.036,-0.026,-0.027,-0.022,0.006
0.019,0.06,0.041,-0.04,-0.011,0.05,0.04,0.035,-0.023,-0.01,-0.02,0.014
0.019,0.046,0.027,-0.033,-0.004,0.037,0.04,0.03,-0.021,-0.031,-0.035,0.01
-0.018,0.037,0.055,-0.01,-0.037,0.046,0.036,0.028,-0.017,-0.035,-0.038,0.005
-0.03,0.03,0.06,0.0,-0.045,0.045,0.035,0.022,-0.015,-0.025,-0.027,0.002
-0.032,0.017,0.049,0.007,-0.041,0.033,0.033,0.022,-0.013,-0.026,-0.024,-0.005
-0.008,0.029,0.037,-0.011,-0.023,0.033,0.03,0.013,0.001,-0.016,-0.014,-0.002
0.028,0.075,0.047,-0.052,-0.01,0.061,0.029,0.013,0.007,-0.018,-0.013,0.007
0.038,0.073,0.035,-0.056,0.001,0.054,0.023,0.023,0.002,-0.036,-0.027,0.006
0.038,0.071,0.032,-0.055,0.003,0.051,0.016,0.017,-0.006,-0.042,-0.03,0.001
0.01,0.051,0.041,-0.031,-0.015,0.045,0.013,0.016,-0.008,-0.039,-0.021,-0.001
0.01,0.03,0.02,-0.02,-0.006,0.025,-0.006,0.011,-0.02,-0.039,-0.024,-0.006
-0.018,0.02,0.038,-0.001,-0.028,0.029,-0.023,-0.001,-0.044,-0.055,-0.047,-0.009
0.015,0.027,0.012,-0.021,0.002,0.019,-0.016,-0.001,-0.032,-0.052,-0.046,-0.01
0.03,0.051,0.021,-0.041,0.005,0.036,-0.011,0.005,-0.023,-0.044,-0.038,-0.01
-0.028,0.02,0.048,0.004,-0.038,0.034,-0.008,0.008,-0.027,-0.044,-0.037,-0.01
-0.033,0.021,0.054,0.006,-0.044,0.037,-0.002,0.015,-0.022,-0.039,-0.032,-0.015
0.002,0.029,0.027,-0.016,-0.013,0.028,-0.001,0.013,-0.02,-0.037,-0.029,-0.02
0.023,0.017,-0.006,-0.02,0.014,0.005,-0.006,0.008,-0.02,-0.034,-0.024,-0.024
0.001,0.017,0.016,-0.009,-0.008,0.016,-0.009,0.006,-0.022,-0.039,-0.028,-0.029
0.003,0.006,0.003,-0.005,-0.001,0.005,-0.015,-0.018,-0.034,-0.037,-0.039,-0.028
-0.018,0.009,0.027,0.005,-0.023,0.018,-0.021,-0.026,-0.045,-0.034,-0.041,-0.024
0.01,0.026,0.016,-0.018,-0.003,0.021,-0.02,-0.018,-0.039,-0.035,-0.04,-0.022
0.036,0.039,0.003,-0.037,0.017,0.02,-0.02,-0.013,-0.032,-0.035,-0.038,-0.019
0.029,0.06,0.031,-0.044,-0.001,0.045,-0.019,-0.007,-0.032,-0.035,-0.034,-0.016
0.034,0.061,0.027,-0.047,0.003,0.043,-0.021,-0.004,-0.039,-0.036,-0.036,-0.015
-0.019,-0.006,0.013,0.013,-0.016,0.004,-0.009,-0.012,-0.045,-0.043,-0.028,-0.01
0.018,0.04,0.022,-0.029,-0.002,0.03,0.013,-0.009,-0.036,-0.038,-0.01,-0.005
0.043,0.095,0.052,-0.069,-0.005,0.073,0.021,0.014,-0.023,-0.031,-0.002,-0.002
0.045,0.074,0.029,-0.06,0.008,0.052,0.02,0.027,-0.012,-0.024,0.004,0.004
0.088,0.123,0.034,-0.106,0.027,0.078,0.017,0.038,0.005,-0.001,0.011,0.021
0.09,0.107,0.018,-0.099,0.036,0.062,0.012,0.029,0.013,0.021,0.016,0.04
0.094,0.101,0.007,-0.097,0.043,0.054,0.01,0.036,0.026,0.017,0.03,0.045
0.074,0.114,0.039,-0.094,0.017,0.076,0.005,0.046,0.035,0.002,0.029,0.049
0.074,0.07,-0.004,-0.072,0.038,0.033,0.002,0.019,0.009,-0.006,0.01,0.034
0.007,0.026,0.019,-0.017,-0.006,0.022,-0.003,0.008,-0.022,-0.02,-0.007,0.015
0.005,0.008,0.003,-0.007,0.001,0.006,-0.023,0.006,-0.029,-0.035,-0.028,0.009
0.023,-0.004,-0.027,-0.009,0.025,-0.016,-0.023,0.004,-0.034,-0.042,-0.041,-0.005
-0.017,-0.024,-0.007,0.021,-0.005,-0.015,-0.011,-0.004,-0.056,-0.043,-0.034,-0.02
0.013,-0.013,-0.026,0.0,0.02,-0.019,-0.007,-0.001,-0.062,-0.05,-0.032,-0.022
-0.024,-0.028,-0.004,0.026,-0.01,-0.015,0.005,-0.021,-0.055,-0.046,-0.024,-0.017
-0.013,-0.003,0.01,0.008,-0.011,0.003,0.017,0.037,-0.04,-0.042,-0.035,-0.03
-0.016,0.06,0.076,-0.023,-0.046,0.068,0.092,0.225,0.089,0.024,-0.006,-0.019
0.244,0.249,0.006,-0.247,0.119,0.127,0.036,0.395,0.436,0.37,0.273,0.167
0.641,0.435,-0.206,-0.538,0.423,0.114,-0.316,-0.061,0.369,0.483,0.503,0.415
0.424,0.254,-0.17,-0.338,0.296,0.041,-0.621,-1.11,-0.345,-0.004,0.306,0.432
0.108,0.084,-0.024,-0.096,0.066,0.03,-0.605,-1.239,-0.614,-0.307,0.054,0.285
0.072,0.07,-0.002,-0.071,0.037,0.033,-0.361,-0.613,-0.352,-0.215,-0.024,0.153
0.027,0.029,0.002,-0.028,0.012,0.015,-0.115,-0.226,-0.153,-0.122,-0.065,0.062
0.014,0.028,0.015,-0.021,-0.001,0.021,-0.007,-0.028,-0.036,-0.072,-0.07,0.02
-0.032,-0.018,0.013,0.025,-0.022,-0.003,-0.009,-0.017,-0.036,-0.059,-0.064,0.006
-0.051,-0.013,0.038,0.032,-0.044,0.012,0.004,0.013,-0.033,-0.059,-0.062,-0.002
0.008,0.012,0.005,-0.01,0.001,0.008,0.039,0.06,-0.015,-0.05,-0.057,-0.009
-0.022,-0.024,-0.002,0.022,-0.009,-0.013,0.039,0.056,-0.028,-0.045,-0.055,-0.015
-0.048,-0.009,0.039,0.028,-0.043,0.015,0.04,0.066,-0.023,-0.036,-0.049,-0.02
-0.005,0.009,0.014,-0.002,-0.01,0.011,0.041,0.061,-0.024,-0.033,-0.044,-0.027
0.011,0.017,0.006,-0.014,0.003,0.011,0.038,0.069,-0.019,-0.024,-0.039,-0.03
-0.01,0.009,0.019,0.0,-0.015,0.014,0.051,0.054,-0.021,-0.019,-0.033,-0.03
-0.008,-0.015,-0.007,0.011,0.0,-0.011,0.049,0.054,-0.016,-0.043,-0.026,-0.03
-0.019,-0.001,0.018,0.01,-0.018,0.008,0.061,0.074,-0.006,-0.045,-0.028,-0.03
-0.041,0.009,0.05,0.016,-0.046,0.029,0.083,0.068,0.001,-0.036,-0.033,-0.03
-0.027,-0.003,0.024,0.015,-0.025,0.01,0.079,0.082,0.009,-0.034,-0.029,-0.026
0.017,0.028,0.011,-0.023,0.003,0.019,0.081,0.103,0.016,-0.024,-0.026,-0.017
0.031,0.053,0.022,-0.042,0.004,0.038,0.08,0.113,0.021,-0.024,-0.023,-0.009
-0.004,0.047,0.051,-0.022,-0.028,0.049,0.08,0.128,0.019,-0.008,-0.019,-0.001
0.016,0.053,0.037,-0.035,-0.011,0.045,0.083,0.159,0.031,0.016,-0.009,0.006
0.021,0.045,0.024,-0.033,-0.001,0.034,0.087,0.19,0.046,0.023,0.016,0.017
0.027,0.065,0.038,-0.046,-0.006,0.051,0.101,0.212,0.064,0.043,0.041,0.03
0.028,0.097,0.069,-0.063,-0.021,0.082,0.097,0.239,0.098,0.07,0.064,0.046
0.064,0.144,0.08,-0.104,-0.008,0.112,0.094,0.264,0.132,0.117,0.112,0.087
0.156,0.176,0.02,-0.166,0.068,0.098,0.09,0.268,0.156,0.152,0.152,0.121
0.128,0.173,0.045,-0.151,0.041,0.108,0.086,0.257,0.167,0.164,0.181,0.146
0.125,0.226,0.101,-0.175,0.012,0.163,0.083,0.244,0.177,0.159,0.195,0.16
0.161,0.228,0.068,-0.195,0.046,0.148,0.053,0.211,0.177,0.145,0.189,0.154
0.124,0.177,0.053,-0.151,0.036,0.115,0.046,0.163,0.139,0.145,0.169,0.135
0.077,0.138,0.062,-0.108,0.007,0.1,0.05,0.109,0.09,0.104,0.118,0.082
0.065,0.113,0.049,-0.089,0.008,0.081,0.041,0.062,0.051,0.059,0.067,0.04
0.056,0.092,0.035,-0.074,0.01,0.063,0.039,0.038,0.009,0.022,0.03,0.003
0.012,0.037,0.025,-0.025,-0.007,0.031,0.034,0.028,-0.015,-0.007,0.009,-0.02
0.005,0.026,0.021,-0.016,-0.008,0.023,0.029,0.014,-0.023,-0.024,-0.002,-0.029
0.017,0.041,0.023,-0.029,-0.003,0.032,0.024,0.008,-0.031,-0.035,-0.006,-0.035
-0.045,-0.002,0.043,0.023,-0.044,0.02,0.011,-0.002,-0.04,-0.026,-0.016,-0.031
-0.053,0.012,0.065,0.02,-0.059,0.038,0.008,-0.031,-0.046,-0.048,-0.045,-0.053
0.0,0.05,0.05,-0.025,-0.025,0.05,0.02,-0.041,-0.044,-0.058,-0.052,-0.056
-0.023,0.024,0.047,0.0,-0.035,0.035,0.019,-0.04,-0.046,-0.053,-0.049,-0.054
-0.004,0.013,0.018,-0.005,-0.011,0.015,0.015,-0.039,-0.044,-0.052,-0.047,-0.055
-0.013,0.013,0.026,0.0,-0.02,0.019,0.01,-0.043,-0.05,-0.05,-0.044,-0.056
-0.067,-0.002,0.064,0.034,-0.066,0.031,0.015,-0.053,-0.06,-0.048,-0.045,-0.051
-0.045,0.002,0.047,0.022,-0.046,0.024,0.031,-0.044,-0.053,-0.049,-0.04,-0.051
-0.042,0.015,0.057,0.014,-0.05,0.036,0.03,-0.03,-0.049,-0.066,-0.037,-0.07
-0.042,0.003,0.045,0.019,-0.044,0.024,0.03,-0.032,-0.044,-0.064,-0.034,-0.064
-0.028,0.018,0.046,0.005,-0.037,0.032,0.03,-0.033,-0.036,-0.06,-0.03,-0.057
-0.022,0.044,0.066,-0.011,-0.044,0.054,0.03,-0.014,-0.044,-0.058,-0.025,-0.053
-0.035,0.016,0.051,0.009,-0.043,0.033,0.028,-0.007,-0.052,-0.055,-0.031,-0.049
-0.038,0.009,0.047,0.015,-0.043,0.027,0.024,-0.004,-0.045,-0.053,-0.036,-0.051
0.008,0.047,0.04,-0.028,-0.016,0.043,0.026,0.001,-0.036,-0.043,-0.03,-0.05
-0.026,0.006,0.032,0.01,-0.03,0.019,0.021,-0.012,-0.032,-0.035,-0.025,-0.05
-0.027,-0.003,0.024,0.015,-0.025,0.01,0.02,-0.016,-0.035,-0.027,-0.022,-0.05
0.034,0.044,0.009,-0.039,0.012,0.026,0.02,-0.006,-0.035,-0.024,-0.014,-0.055
-0.004,0.016,0.02,-0.006,-0.012,0.018,0.015,-0.008,-0.035,-0.028,-0.023,-0.055
-0.042,-0.012,0.03,0.027,-0.036,0.009,0.015,-0.017,-0.035,-0.042,-0.041,-0.059
-0.008,0.002,0.011,0.003,-0.01,0.006,0.015,-0.028,-0.035,-0.046,-0.04,-0.06
0.024,0.016,-0.008,-0.02,0.016,0.004,0.015,-0.037,-0.039,-0.044,-0.04,-0.065
-0.003,0.005,0.008,-0.001,-0.005,0.006,0.015,-0.036,-0.042,-0.046,-0.037,-0.071
-0.024,-0.001,0.023,0.012,-0.023,0.011,0.013,-0.035,-0.047,-0.044,-0.034,-0.069
-0.048,-0.029,0.019,0.039,-0.033,-0.005,0.009,-0.033,-0.05,-0.046,-0.036,-0.071
-0.037,-0.018,0.019,0.028,-0.028,0.001,0.007,-0.031,-0.053,-0.049,-0.039,-0.069
0.011,0.026,0.014,-0.019,-0.002,0.02,0.004,-0.029,-0.055,-0.05,-0.042,-0.071
-0.005,0.011,0.016,-0.004,-0.01,0.013,0.001,-0.037,-0.058,-0.05,-0.044,-0.068
-0.027,-0.016,0.011,0.021,-0.019,-0.002,-0.001,-0.05,-0.06,-0.05,-0.048,-0.076
0.003,-0.003,-0.006,0.0,0.005,-0.004,-0.004,-0.05,-0.056,-0.049,-0.05,-0.095
0.037,0.015,-0.022,-0.026,0.029,-0.003,-0.005,-0.05,-0.054,-0.053,-0.05,-0.095
0.027,0.003,-0.025,-0.015,0.026,-0.011,-0.005,-0.05,-0.051,-0.055,-0.05,-0.095
-0.002,-0.013,-0.011,0.007,0.005,-0.012,-0.005,-0.05,-0.048,-0.055,-0.05,-0.095
-0.025,-0.03,-0.004,0.028,-0.01,-0.017,-0.005,-0.047,-0.045,-0.059,-0.05,-0.095
-0.029,-0.018,0.011,0.023,-0.02,-0.003,-0.003,-0.045,-0.045,-0.06,-0.05,-0.093
-0.031,-0.002,0.029,0.016,-0.03,0.013,0.001,-0.045,-0.056,-0.059,-0.05,-0.089
-0.038,-0.018,0.02,0.028,-0.029,0.001,0.005,-0.042,-0.056,-0.055,-0.045,-0.091
-0.034,-0.024,0.01,0.029,-0.021,-0.007,0.008,-0.039,-0.05,-0.055,-0.045,-0.086
-0.029,-0.028,0.001,0.029,-0.014,-0.014,0.014,-0.042,-0.045,-0.054,-0.044,-0.085
0.006,-0.005,-0.011,0.0,0.009,-0.008,0.014,-0.054,-0.039,-0.049,-0.039,-0.086
0.04,0.03,-0.01,-0.035,0.025,0.009,0.012,-0.045,-0.033,-0.05,-0.041,-0.078
0.013,0.012,-0.001,-0.013,0.007,0.005,0.008,-0.036,-0.029,-0.047,-0.037,-0.071
0.016,0.031,0.015,-0.024,0.0,0.023,0.022,-0.012,-0.014,-0.038,-0.028,-0.064
0.046,0.081,0.035,-0.063,0.005,0.057,0.046,0.028,0.011,-0.027,-0.02,-0.058
0.091,0.102,0.011,-0.097,0.04,0.057,0.012,0.027,0.014,-0.025,-0.011,-0.051
0.125,0.1,-0.025,-0.112,0.075,0.037,-0.019,0.017,0.006,-0.021,-0.004,-0.044
0.131,0.103,-0.028,-0.116,0.079,0.037,-0.013,0.011,-0.001,-0.007,0.001,-0.039
0.155,0.112,-0.044,-0.133,0.099,0.034,-0.012,0.001,-0.013,0.007,0.008,-0.027
0.089,0.048,-0.041,-0.068,0.065,0.003,-0.008,-0.01,-0.03,-0.018,0.006,-0.059
0.026,-0.007,-0.033,-0.009,0.029,-0.019,-0.005,-0.043,-0.046,-0.065,-0.023,-0.101
0.0,-0.036,-0.036,0.018,0.019,-0.036,-0.006,-0.043,-0.054,-0.061,-0.045,-0.099
-0.005,-0.041,-0.036,0.023,0.016,-0.038,-0.019,-0.052,-0.075,-0.071,-0.057,-0.109
-0.018,-0.05,-0.032,0.034,0.007,-0.04,-0.02,-0.065,-0.079,-0.084,-0.074,-0.124
-0.068,-0.042,0.026,0.055,-0.047,-0.007,-0.002,-0.031,-0.063,-0.071,-0.072,-0.122
-0.001,-0.01,-0.009,0.006,0.004,-0.009,0.012,-0.012,-0.057,-0.07,-0.068,-0.118
-0.001,-0.023,-0.022,0.012,0.011,-0.022,0.075,0.102,-0.015,-0.046,-0.057,-0.11
0.091,0.13,0.039,-0.111,0.026,0.084,0.113,0.327,0.254,0.179,0.104,-0.014
0.494,0.338,-0.156,-0.416,0.325,0.091,-0.132,0.239,0.48,0.495,0.415,0.23
0.572,0.317,-0.254,-0.444,0.413,0.031,-0.512,-0.69,-0.04,0.231,0.413,0.369
0.218,0.112,-0.106,-0.165,0.162,0.002,-0.648,-1.377,-0.618,-0.251,0.122,0.286
0.017,-0.025,-0.042,0.004,0.03,-0.033,-0.475,-0.926,-0.504,-0.285,-0.021,0.141
-0.022,-0.037,-0.015,0.03,-0.003,-0.026,-0.193,-0.387,-0.249,-0.184,-0.075,0.018
-0.046,-0.04,0.007,0.043,-0.026,-0.016,-0.025,-0.108,-0.108,-0.109,-0.097,-0.033
-0.031,-0.039,-0.008,0.035,-0.011,-0.023,0.019,0.003,-0.064,-0.081,-0.087,-0.071
0.017,-0.022,-0.039,0.003,0.028,-0.031,0.033,-0.012,-0.053,-0.078,-0.085,-0.094
0.029,0.022,-0.007,-0.026,0.018,0.007,0.044,0.019,-0.017,-0.064,-0.077,-0.087
-0.043,-0.031,0.012,0.037,-0.027,-0.009,0.033,0.017,-0.027,-0.063,-0.073,-0.094
-0.028,-0.049,-0.021,0.039,-0.004,-0.034,0.035,0.026,-0.032,-0.055,-0.067,-0.095
0.051,0.028,-0.024,-0.039,0.037,0.002,0.056,0.046,-0.024,-0.054,-0.063,-0.092
0.0,-0.012,-0.012,0.006,0.006,-0.012,0.054,0.043,-0.02,-0.047,-0.057,-0.086
-0.075,-0.059,0.016,0.067,-0.046,-0.021,0.051,0.053,-0.014,-0.046,-0.054,-0.083
-0.034,-0.038,-0.005,0.036,-0.014,-0.021,0.048,0.07,-0.009,-0.051,-0.048,-0.076
0.017,-0.023,-0.04,0.004,0.029,-0.031,0.047,0.072,-0.006,-0.054,-0.046,-0.078
-0.01,-0.036,-0.026,0.023,0.008,-0.03,0.04,0.067,-0.037,-0.052,-0.063,-0.096
-0.031,-0.043,-0.012,0.038,-0.01,-0.027,0.064,0.078,-0.049,-0.049,-0.066,-0.094
-0.017,-0.028,-0.011,0.023,-0.003,-0.019,0.097,0.1,-0.029,-0.05,-0.064,-0.09
-0.001,-0.014,-0.012,0.008,0.005,-0.013,0.094,0.1,-0.023,-0.05,-0.066,-0.087
-0.017,-0.023,-0.006,0.02,-0.005,-0.015,0.095,0.102,-0.017,-0.049,-0.063,-0.082
0.011,-0.009,-0.02,0.0,0.015,-0.014,0.096,0.137,-0.012,-0.034,-0.05,-0.08
0.057,0.041,-0.016,-0.048,0.037,0.012,0.094,0.168,0.003,-0.012,-0.022,-0.071
0.056,0.044,-0.012,-0.05,0.034,0.016,0.096,0.185,0.031,0.012,0.002,-0.054
0.1,0.091,-0.01,-0.095,0.055,0.04,0.107,0.228,0.062,0.05,0.031,-0.02
0.071,0.099,0.027,-0.085,0.022,0.062,0.104,0.251,0.089,0.067,0.053,0.0
0.065,0.091,0.026,-0.078,0.019,0.058,0.093,0.258,0.115,0.098,0.089,0.019
0.144,0.176,0.032,-0.16,0.056,0.104,0.087,0.271,0.14,0.149,0.141,0.068
0.184,0.193,0.009,-0.188,0.087,0.101,0.08,0.241,0.14,0.153,0.159,0.092
0.167,0.188,0.021,-0.178,0.073,0.104,0.089,0.2,0.133,0.149,0.152,0.089
0.148,0.186,0.037,-0.167,0.056,0.111,0.078,0.16,0.123,0.133,0.123,0.07
0.169,0.15,-0.019,-0.159,0.093,0.065,0.048,0.12,0.091,0.095,0.083,0.035
0.09,0.093,0.004,-0.092,0.043,0.048,0.037,0.08,0.055,0.052,0.047,0.004
0.037,0.051,0.014,-0.044,0.011,0.032,0.031,0.045,0.017,0.016,0.003,-0.028
0.036,0.041,0.005,-0.038,0.015,0.023,0.024,0.023,-0.013,-0.001,-0.021,-0.052
0.011,0.014,0.003,-0.012,0.004,0.008,0.018,0.003,-0.024,-0.012,-0.022,-0.067
-0.008,-0.019,-0.011,0.014,0.002,-0.015,0.01,-0.011,-0.049,-0.038,-0.044,-0.082
-0.041,-0.04,0.001,0.041,-0.021,-0.019,0.018,-0.025,-0.063,-0.057,-0.058,-0.093
-0.029,-0.042,-0.012,0.036,-0.009,-0.027,0.027,-0.037,-0.058,-0.054,-0.053,-0.098
-0.041,-0.038,0.003,0.039,-0.022,-0.017,0.024,-0.04,-0.065,-0.057,-0.059,-0.104
-0.03,-0.039,-0.009,0.034,-0.01,-0.024,0.025,-0.043,-0.064,-0.06,-0.059,-0.105
-0.01,-0.033,-0.023,0.021,0.007,-0.028,0.025,-0.046,-0.066,-0.06,-0.06,-0.105
-0.082,-0.036,0.046,0.058,-0.064,0.005,0.025,-0.049,-0.057,-0.061,-0.063,-0.109
-0.069,-0.047,0.022,0.058,-0.045,-0.012,0.025,-0.05,-0.064,-0.07,-0.067,-0.11
-0.082,-0.052,0.03,0.067,-0.056,-0.011,0.015,-0.045,-0.071,-0.078,-0.077,-0.109
-0.08,-0.054,0.026,0.067,-0.053,-0.014,0.031,-0.041,-0.064,-0.072,-0.075,-0.105
0.008,-0.023,-0.032,0.008,0.02,-0.027,0.053,-0.036,-0.081,-0.067,-0.068,-0.105
-0.047,-0.044,0.003,0.046,-0.025,-0.02,0.046,-0.032,-0.081,-0.064,-0.065,-0.103
-0.043,-0.069,-0.027,0.056,-0.008,-0.048,0.044,-0.028,-0.069,-0.059,-0.06,-0.099
-0.033,-0.048,-0.015,0.04,-0.009,-0.031,0.039,-0.021,-0.066,-0.055,-0.056,-0.1
-0.084,-0.059,0.025,0.071,-0.054,-0.017,0.036,-0.014,-0.061,-0.051,-0.06,-0.1
-0.065,-0.059,0.006,0.062,-0.036,-0.026,0.033,-0.007,-0.059,-0.047,-0.059,-0.1
-0.034,-0.051,-0.017,0.043,-0.008,-0.034,0.029,-0.001,-0.055,-0.043,-0.054,-0.1
-0.015,-0.039,-0.024,0.027,0.005,-0.031,0.031,0.007,-0.05,-0.04,-0.052,-0.1
-0.018,-0.029,-0.011,0.023,-0.004,-0.019,0.026,0.01,-0.048,-0.035,-0.047,-0.1
0.02,-0.032,-0.052,0.006,0.036,-0.042,0.025,0.01,-0.04,-0.037,-0.045,-0.101
0.021,-0.028,-0.049,0.004,0.035,-0.038,0.025,0.01,-0.037,-0.044,-0.052,-0.11
0.009,-0.033,-0.042,0.012,0.026,-0.037,0.02,0.01,-0.049,-0.05,-0.056,-0.112
0.016,-0.027,-0.043,0.005,0.029,-0.035,0.02,0.011,-0.051,-0.05,-0.055,-0.11
-0.001,-0.035,-0.035,0.018,0.017,-0.034,0.019,0.007,-0.049,-0.05,-0.055,-0.11
-0.013,-0.048,-0.035,0.031,0.011,-0.041,0.015,0.004,-0.046,-0.05,-0.055,-0.105
-0.017,-0.04,-0.023,0.028,0.004,-0.031,0.016,-0.001,-0.044,-0.05,-0.055,-0.105
-0.003,-0.045,-0.042,0.024,0.02,-0.043,0.012,-0.002,-0.047,-0.05,-0.055,-0.106
0.016,-0.043,-0.059,0.014,0.038,-0.051,0.01,-0.009,-0.049,-0.05,-0.055,-0.11
-0.012,-0.063,-0.051,0.038,0.02,-0.057,0.01,-0.008,-0.055,-0.06,-0.062,-0.11
-0.026,-0.072,-0.046,0.049,0.01,-0.059,0.01,0.009,-0.054,-0.066,-0.065,-0.11
-0.005,-0.057,-0.052,0.031,0.023,-0.054,0.01,0.005,-0.059,-0.064,-0.066,-0.11
-0.048,-0.062,-0.013,0.055,-0.018,-0.037,0.01,-0.003,-0.059,-0.065,-0.071,-0.111
-0.025,-0.059,-0.034,0.042,0.004,-0.046,0.017,-0.009,-0.064,-0.064,-0.069,-0.123
-0.022,-0.064,-0.043,0.043,0.011,-0.053,0.01,-0.014,-0.084,-0.06,-0.066,-0.126
-0.039,-0.065,-0.026,0.052,-0.006,-0.045,0.003,-0.009,-0.081,-0.06,-0.061,-0.122
0.01,-0.065,-0.075,0.027,0.043,-0.07,0.006,-0.01,-0.074,-0.059,-0.058,-0.12
0.004,-0.065,-0.069,0.03,0.037,-0.066,-0.003,-0.01,-0.07,-0.055,-0.055,-0.116
0.003,-0.065,-0.068,0.031,0.036,-0.066,0.004,-0.01,-0.063,-0.055,-0.049,-0.115
0.004,-0.064,-0.068,0.031,0.036,-0.066,0.028,-0.011,-0.061,-0.053,-0.056,-0.114
0.004,-0.057,-0.061,0.027,0.033,-0.059,0.03,-0.005,-0.06,-0.047,-0.06,-0.118
0.015,-0.053,-0.068,0.02,0.042,-0.061,0.023,-0.006,-0.061,-0.043,-0.053,-0.126
0.019,-0.034,-0.054,0.007,0.037,-0.044,0.023,-0.001,-0.059,-0.038,-0.048,-0.119
0.022,-0.041,-0.063,0.01,0.043,-0.052,0.015,-0.001,-0.061,-0.034,-0.042,-0.113
-0.015,-0.035,-0.02,0.025,0.003,-0.027,0.017,0.004,-0.049,-0.029,-0.037,-0.105
-0.003,0.023,0.026,-0.011,-0.015,0.025,0.04,0.029,-0.027,-0.025,-0.028,-0.104
0.046,0.06,0.014,-0.054,0.016,0.037,0.041,0.046,-0.015,-0.018,-0.02,-0.109
0.079,0.066,-0.013,-0.073,0.045,0.026,0.03,0.037,-0.007,-0.013,-0.01,-0.097
0.128,0.066,-0.062,-0.097,0.095,0.001,0.023,0.022,0.002,-0.005,-0.004,-0.087
0.093,0.064,-0.03,-0.079,0.061,0.017,0.016,0.05,0.021,0.022,0.007,-0.085
0.086,0.056,-0.03,-0.07,0.057,0.013,0.003,0.039,0.012,0.012,0.004,-0.077
0.072,-0.002,-0.075,-0.035,0.073,-0.038,-0.009,0.014,-0.032,-0.022,-0.03,-0.09
-0.001,-0.055,-0.054,0.028,0.027,-0.054,0.0,0.016,-0.055,-0.029,-0.048,-0.117
0.004,-0.055,-0.059,0.026,0.032,-0.057,0.005,0.009,-0.055,-0.052,-0.058,-0.129
-0.009,-0.058,-0.049,0.034,0.02,-0.054,0.009,0.012,-0.055,-0.063,-0.06,-0.127
-0.022,-0.07,-0.048,0.046,0.013,-0.058,0.017,0.0,-0.056,-0.055,-0.061,-0.126
-0.044,-0.088,-0.043,0.067,0.0,-0.065,0.037,0.014,-0.071,-0.055,-0.059,-0.124
-0.049,-0.097,-0.049,0.073,0.0,-0.073,0.036,0.009,-0.065,-0.05,-0.061,-0.127
-0.054,-0.112,-0.058,0.083,0.002,-0.084,0.054,0.087,-0.031,-0.051,-0.078,-0.139
0.032,0.038,0.006,-0.035,0.013,0.022,0.129,0.309,0.167,0.104,0.034,-0.071
0.419,0.279,-0.14,-0.349,0.28,0.069,-0.027,0.378,0.478,0.449,0.341,0.138
0.622,0.31,-0.312,-0.465,0.467,-0.001,-0.409,-0.353,0.155,0.349,0.448,0.325
0.281,0.121,-0.16,-0.201,0.22,-0.019,-0.623,-1.265,-0.518,-0.152,0.192,0.294
0.01,-0.039,-0.05,0.014,0.03,-0.044,-0.526,-1.057,-0.569,-0.285,0.018,0.143
0.03,-0.022,-0.051,-0.004,0.04,-0.036,-0.244,-0.442,-0.284,-0.177,-0.039,0.017
-0.01,-0.051,-0.041,0.031,0.016,-0.046,-0.039,-0.117,-0.115,-0.11,-0.084,-0.076
-0.027,-0.074,-0.047,0.051,0.011,-0.06,0.014,0.01,-0.061,-0.07,-0.073,-0.113
-0.005,-0.051,-0.045,0.029,0.02,-0.048,0.037,0.028,-0.035,-0.057,-0.071,-0.118
0.009,-0.051,-0.059,0.021,0.034,-0.055,0.054,0.065,-0.021,-0.046,-0.064,-0.123
-0.003,-0.054,-0.051,0.029,0.024,-0.052,0.055,0.056,-0.021,-0.043,-0.058,-0.125
-0.043,-0.083,-0.041,0.063,-0.001,-0.062,0.055,0.085,-0.013,-0.037,-0.056,-0.125
-0.034,-0.074,-0.04,0.055,0.003,-0.057,0.063,0.106,-0.011,-0.031,-0.054,-0.125
-0.044,-0.071,-0.028,0.058,-0.008,-0.049,0.066,0.107,-0.004,-0.026,-0.056,-0.125
-0.024,-0.069,-0.045,0.046,0.011,-0.056,0.064,0.114,-0.017,-0.033,-0.054,-0.126
-0.002,-0.061,-0.059,0.032,0.029,-0.06,0.076,0.114,-0.028,-0.034,-0.055,-0.124
-0.015,-0.06,-0.045,0.038,0.015,-0.052,0.081,0.12,-0.023,-0.026,-0.055,-0.123
-0.028,-0.052,-0.024,0.04,-0.002,-0.038,0.079,0.122,-0.02,-0.024,-0.051,-0.115
-0.023,-0.051,-0.028,0.037,0.003,-0.039,0.085,0.126,-0.017,-0.018,-0.044,-0.119
0.019,-0.044,-0.063,0.013,0.042,-0.053,0.084,0.131,-0.013,-0.014,-0.038,-0.138
0.013,-0.046,-0.059,0.017,0.036,-0.052,0.086,0.149,-0.007,-0.023,-0.031,-0.131
0.003,-0.044,-0.047,0.02,0.025,-0.045,0.088,0.162,0.003,-0.014,-0.024,-0.119
0.002,-0.046,-0.049,0.022,0.026,-0.048,0.093,0.175,0.005,-0.001,-0.019,-0.111
0.002,-0.039,-0.041,0.019,0.022,-0.04,0.102,0.199,0.025,0.018,-0.005,-0.098
0.036,-0.006,-0.042,-0.015,0.039,-0.023,0.101,0.225,0.056,0.046,0.008,-0.093
0.044,0.01,-0.034,-0.027,0.039,-0.012,0.115,0.253,0.068,0.059,0.03,-0.069
0.076,0.049,-0.028,-0.062,0.052,0.011,0.118,0.289,0.102,0.09,0.067,-0.034
0.13,0.109,-0.021,-0.119,0.075,0.044,0.108,0.307,0.131,0.122,0.105,-0.003
0.14,0.126,-0.014,-0.133,0.077,0.056,0.104,0.311,0.157,0.16,0.149,0.019
0.149,0.143,-0.006,-0.146,0.077,0.068,0.095,0.301,0.172,0.175,0.167,0.047
0.156,0.158,0.002,-0.157,0.077,0.08,0.09,0.26,0.159,0.158,0.155,0.068
0.126,0.146,0.02,-0.136,0.053,0.083,0.081,0.215,0.154,0.157,0.155,0.062
0.108,0.133,0.025,-0.12,0.041,0.079,0.068,0.176,0.131,0.129,0.128,0.046
0.098,0.068,-0.029,-0.083,0.063,0.02,0.058,0.139,0.076,0.082,0.077,-0.012
0.094,0.035,-0.059,-0.064,0.076,-0.012,0.051,0.103,0.04,0.045,0.034,-0.061
0.058,0.01,-0.049,-0.034,0.053,-0.019,0.046,0.068,0.026,0.026,0.007,-0.068
0.004,-0.043,-0.048,0.02,0.026,-0.045,0.041,0.045,0.014,0.013,-0.009,-0.086
-0.012,-0.054,-0.042,0.034,0.015,-0.048,0.035,0.035,0.006,-0.015,-0.024,-0.111
-0.036,-0.073,-0.037,0.054,0.001,-0.055,0.031,0.025,-0.002,-0.027,-0.033,-0.116
-0.042,-0.07,-0.027,0.056,-0.007,-0.048,0.034,0.014,-0.01,-0.027,-0.039,-0.115
-0.03,-0.069,-0.039,0.05,0.005,-0.054,0.035,0.003,-0.018,-0.032,-0.036,-0.114
-0.02,-0.068,-0.048,0.044,0.014,-0.057,0.035,-0.009,-0.024,-0.035,-0.035,-0.117
-0.026,-0.06,-0.034,0.043,0.004,-0.047,0.035,-0.02,-0.031,-0.031,-0.034,-0.127
-0.032,-0.057,-0.025,0.045,-0.003,-0.041,0.035,-0.029,-0.036,-0.03,-0.031,-0.132
-0.037,-0.052,-0.015,0.044,-0.01,-0.033,0.033,-0.031,-0.04,-0.029,-0.028,-0.132
-0.038,-0.048,-0.01,0.043,-0.014,-0.029,0.029,-0.034,-0.045,-0.033,-0.035,-0.14
-0.04,-0.045,-0.005,0.043,-0.017,-0.025,0.031,-0.037,-0.041,-0.049,-0.054,-0.155
-0.069,-0.069,0.0,0.069,-0.034,-0.034,0.029,-0.04,-0.034,-0.046,-0.051,-0.15
-0.084,-0.076,0.007,0.08,-0.045,-0.035,0.031,-0.039,-0.027,-0.039,-0.044,-0.143
-0.077,-0.069,0.008,0.073,-0.042,-0.03,0.04,-0.008,-0.021,-0.035,-0.04,-0.131
-0.057,-0.063,-0.006,0.06,-0.026,-0.034,0.04,0.01,-0.013,-0.028,-0.033,-0.115
-0.013,-0.056,-0.043,0.035,0.015,-0.049,0.04,0.013,-0.011,-0.026,-0.029,-0.122
0.004,-0.049,-0.053,0.023,0.028,-0.05,0.037,0.026,-0.015,-0.025,-0.025,-0.123
0.004,-0.043,-0.047,0.02,0.026,-0.045,0.035,0.024,-0.015,-0.025,-0.024,-0.115
0.018,-0.037,-0.055,0.01,0.037,-0.046,0.035,0.021,-0.015,-0.025,-0.021,-0.11
0.009,-0.03,-0.04,0.011,0.025,-0.035,0.03,0.019,-0.015,-0.025,-0.017,-0.105
-0.006,-0.062,-0.057,0.034,0.026,-0.059,0.03,0.011,-0.015,-0.025,-0.034,-0.102
-0.036,-0.077,-0.041,0.056,0.003,-0.059,0.03,0.005,-0.011,-0.021,-0.046,-0.098
-0.003,-0.048,-0.044,0.026,0.021,-0.046,0.03,-0.003,-0.01,-0.02,-0.04,-0.096
-0.002,-0.049,-0.047,0.026,0.022,-0.047,0.031,-0.011,-0.01,-0.019,-0.038,-0.088
-0.034,-0.061,-0.026,0.047,-0.004,-0.043,0.027,-0.018,-0.01,-0.016,-0.033,-0.099
0.007,-0.06,-0.067,0.027,0.037,-0.063,0.025,-0.024,-0.01,-0.014,-0.03,-0.117
-0.019,-0.06,-0.041,0.04,0.011,-0.05,0.025,-0.025,-0.011,-0.016,-0.026,-0.109
-0.022,-0.06,-0.038,0.041,0.008,-0.048,0.021,-0.025,-0.015,-0.022,-0.025,-0.106
0.0,-0.061,-0.061,0.03,0.031,-0.061,0.02,-0.025,-0.017,-0.028,-0.025,-0.101
-0.014,-0.061,-0.047,0.038,0.017,-0.054,0.02,-0.026,-0.016,-0.034,-0.026,-0.096
-0.032,-0.078,-0.046,0.055,0.007,-0.062,0.015,-0.03,-0.013,-0.032,-0.023,-0.094
-0.022,-0.084,-0.062,0.053,0.02,-0.073,0.01,-0.046,-0.027,-0.029,-0.03,-0.097
-0.011,-0.069,-0.058,0.04,0.024,-0.063,0.005,-0.051,-0.037,-0.03,-0.049,-0.11
-0.04,-0.062,-0.022,0.051,-0.008,-0.042,0.001,-0.046,-0.029,-0.025,-0.046,-0.108
-0.012,-0.057,-0.046,0.035,0.017,-0.051,-0.004,-0.044,-0.025,-0.025,-0.039,-0.103
-0.004,-0.045,-0.042,0.024,0.019,-0.044,-0.003,-0.041,-0.019,-0.024,-0.035,-0.101
-0.005,-0.038,-0.032,0.022,0.014,-0.035,0.001,-0.039,-0.014,-0.019,-0.027,-0.095
0.023,-0.057,-0.081,0.017,0.052,-0.069,0.004,-0.036,-0.009,-0.014,-0.027,-0.096
-0.014,-0.078,-0.064,0.046,0.025,-0.071,0.008,-0.035,-0.001,-0.01,-0.032,-0.104
-0.024,-0.08,-0.056,0.052,0.016,-0.068,0.01,-0.034,0.007,-0.005,-0.031,-0.105
-0.016,-0.08,-0.063,0.048,0.024,-0.072,0.006,-0.03,0.007,0.0,-0.029,-0.105
-0.053,-0.08,-0.027,0.067,-0.013,-0.053,0.001,-0.029,-0.002,-0.003,-0.031,-0.105
-0.03,-0.08,-0.05,0.055,0.01,-0.065,-0.001,-0.039,-0.007,-0.007,-0.03,-0.105
-0.021,-0.079,-0.059,0.05,0.019,-0.069,-0.005,-0.044,-0.015,-0.01,-0.031,-0.105
-0.032,-0.065,-0.033,0.049,0.001,-0.049,-0.01,-0.034,-0.018,-0.014,-0.025,-0.101
-0.004,-0.051,-0.048,0.028,0.022,-0.049,-0.007,-0.03,-0.015,-0.014,-0.015,-0.094
-0.003,-0.04,-0.037,0.022,0.017,-0.038,0.006,-0.022,-0.009,-0.005,-0.005,-0.09
0.0,-0.031,-0.031,0.016,0.016,-0.031,0.017,-0.017,0.004,0.003,0.002,-0.083
0.007,-0.023,-0.03,0.008,0.018,-0.026,0.015,-0.014,0.016,0.012,0.003,-0.081
0.068,0.044,-0.024,-0.056,0.046,0.01,0.01,-0.016,0.027,0.026,0.018,-0.079
0.118,0.068,-0.05,-0.093,0.084,0.009,0.005,-0.014,0.041,0.028,0.033,-0.08
0.115,0.043,-0.072,-0.078,0.093,-0.015,0.003,-0.017,0.039,0.015,0.027,-0.08
0.108,0.031,-0.077,-0.069,0.092,-0.023,-0.006,-0.037,0.024,0.01,0.023,-0.079
0.013,-0.049,-0.062,0.019,0.038,-0.056,0.004,-0.038,0.003,-0.002,0.0,-0.098
-0.031,-0.099,-0.068,0.066,0.019,-0.083,0.026,-0.051,-0.018,-0.009,-0.027,-0.107
-0.043,-0.1,-0.057,0.072,0.007,-0.078,0.025,-0.059,-0.034,-0.022,-0.045,-0.119
-0.049,-0.099,-0.05,0.074,0.001,-0.074,0.025,-0.054,-0.031,-0.047,-0.051,-0.122
-0.029,-0.09,-0.06,0.06,0.016,-0.075,0.026,-0.039,-0.024,-0.052,-0.049,-0.116
-0.054,-0.081,-0.027,0.068,-0.013,-0.054,0.023,-0.036,-0.02,-0.039,-0.052,-0.112
-0.006,-0.057,-0.051,0.032,0.023,-0.053,0.038,0.017,-0.014,-0.03,-0.044,-0.108
0.013,-0.007,-0.02,-0.003,0.017,-0.013,0.107,0.192,0.097,0.044,-0.002,-0.095
0.278,0.204,-0.074,-0.241,0.176,0.065,0.043,0.382,0.44,0.378,0.267,0.086
0.643,0.35,-0.293,-0.496,0.468,0.029,-0.307,-0.103,0.334,0.458,0.481,0.33
0.408,0.188,-0.221,-0.298,0.314,-0.017,-0.603,-1.155,-0.351,-0.023,0.271,0.351
0.058,-0.002,-0.06,-0.028,0.059,-0.031,-0.572,-1.239,-0.579,-0.283,0.036,0.209
0.013,-0.052,-0.064,0.02,0.039,-0.058,-0.317,-0.613,-0.329,-0.191,-0.033,0.072
-0.001,-0.049,-0.049,0.025,0.024,-0.049,-0.077,-0.224,-0.125,-0.106,-0.062,-0.032
-0.019,-0.055,-0.036,0.037,0.009,-0.045,-0.003,-0.032,-0.047,-0.057,-0.063,-0.077
-0.018,-0.053,-0.034,0.036,0.008,-0.043,0.02,0.009,-0.028,-0.037,-0.058,-0.078
-0.011,-0.045,-0.034,0.028,0.012,-0.039,0.053,0.039,-0.013,-0.029,-0.051,-0.081
-0.005,-0.043,-0.038,0.025,0.016,-0.041,0.058,0.043,-0.014,-0.026,-0.046,-0.079
0.003,-0.036,-0.038,0.016,0.021,-0.037,0.059,0.052,-0.005,-0.019,-0.048,-0.081
0.007,-0.035,-0.042,0.014,0.025,-0.038,0.054,0.065,0.0,-0.013,-0.051,-0.086
0.011,-0.028,-0.039,0.008,0.025,-0.033,0.056,0.069,0.004,-0.011,-0.05,-0.081
0.004,-0.036,-0.041,0.016,0.023,-0.039,0.053,0.067,0.001,-0.027,-0.05,-0.074
-0.028,-0.069,-0.04,0.048,0.006,-0.054,0.068,0.076,-0.001,-0.033,-0.05,-0.068
-0.025,-0.062,-0.037,0.044,0.006,-0.049,0.088,0.106,0.001,-0.023,-0.049,-0.061
0.0,-0.053,-0.053,0.027,0.027,-0.052,0.083,0.112,-0.002,-0.018,-0.043,-0.053
0.004,-0.057,-0.061,0.026,0.033,-0.058,0.086,0.119,0.004,-0.01,-0.035,-0.04
0.011,-0.05,-0.061,0.019,0.036,-0.055,0.084,0.125,0.01,-0.005,-0.03,-0.025
0.018,-0.04,-0.058,0.011,0.038,-0.049,0.086,0.146,0.022,0.004,-0.022,-0.007
0.032,-0.031,-0.063,-0.001,0.048,-0.046,0.087,0.162,0.027,0.007,-0.017,0.002
0.037,-0.02,-0.057,-0.008,0.047,-0.038,0.099,0.189,0.036,0.015,-0.01,0.029
0.041,-0.022,-0.063,-0.01,0.052,-0.043,0.106,0.219,0.038,0.013,-0.005,0.054
0.059,-0.001,-0.06,-0.029,0.06,-0.03,0.1,0.246,0.037,0.02,0.003,0.066
0.084,0.067,-0.017,-0.075,0.05,0.025,0.138,0.289,0.073,0.069,0.034,0.107
0.118,0.075,-0.042,-0.096,0.08,0.016,0.142,0.312,0.089,0.092,0.068,0.132
0.115,0.071,-0.044,-0.092,0.079,0.013,0.117,0.322,0.119,0.116,0.102,0.16
0.128,0.098,-0.03,-0.112,0.079,0.033,0.114,0.328,0.146,0.139,0.139,0.199
0.164,0.126,-0.038,-0.144,0.1,0.044,0.103,0.321,0.154,0.162,0.165,0.212
0.19,0.157,-0.033,-0.173,0.111,0.061,0.093,0.297,0.175,0.188,0.186,0.221
0.169,0.14,-0.029,-0.154,0.099,0.055,0.077,0.247,0.155,0.171,0.186,0.222
0.133,0.108,-0.026,-0.12,0.079,0.041,0.061,0.191,0.113,0.127,0.152,0.182
0.132,0.076,-0.056,-0.104,0.093,0.01,0.045,0.145,0.075,0.082,0.105,0.129
0.122,0.06,-0.062,-0.091,0.092,-0.001,0.035,0.105,0.051,0.056,0.06,0.087
0.065,0.025,-0.04,-0.045,0.053,-0.008,0.028,0.067,0.028,0.03,0.025,0.046
0.008,-0.019,-0.028,0.006,0.018,-0.023,0.021,0.039,-0.009,-0.011,-0.011,0.027
0.022,-0.029,-0.051,0.003,0.037,-0.04,0.018,0.024,-0.035,-0.045,-0.036,0.024
-0.007,-0.054,-0.047,0.031,0.021,-0.05,0.014,0.015,-0.042,-0.051,-0.035,0.022
-0.018,-0.056,-0.039,0.037,0.011,-0.047,0.01,0.005,-0.042,-0.052,-0.035,0.018
0.004,-0.052,-0.055,0.024,0.03,-0.053,0.007,-0.004,-0.047,-0.057,-0.036,0.016
-0.019,-0.06,-0.041,0.039,0.011,-0.05,0.003,-0.011,-0.062,-0.059,-0.033,0.014
-0.02,-0.059,-0.04,0.04,0.01,-0.049,0.0,-0.018,-0.066,-0.061,-0.04,0.008
-0.032,-0.063,-0.031,0.048,0.0,-0.047,-0.003,-0.024,-0.064,-0.058,-0.054,0.001
-0.055,-0.077,-0.022,0.066,-0.016,-0.049,-0.006,-0.032,-0.065,-0.066,-0.058,-0.007
-0.057,-0.074,-0.016,0.066,-0.02,-0.045,-0.001,-0.034,-0.065,-0.07,-0.06,-0.011
-0.056,-0.063,-0.006,0.06,-0.025,-0.034,0.0,-0.03,-0.064,-0.063,-0.065,-0.031
-0.044,-0.071,-0.026,0.058,-0.009,-0.048,0.0,-0.03,-0.058,-0.059,-0.063,-0.055
-0.029,-0.074,-0.044,0.052,0.008,-0.059,0.005,-0.028,-0.052,-0.053,-0.06,-0.055
-0.049,-0.073,-0.024,0.062,-0.012,-0.048,0.005,-0.025,-0.048,-0.046,-0.057,-0.055
-0.063,-0.069,-0.006,0.066,-0.029,-0.037,0.005,-0.025,-0.041,-0.049,-0.054,-0.055
-0.042,-0.071,-0.029,0.056,-0.006,-0.05,0.005,-0.025,-0.036,-0.06,-0.051,-0.055
-0.041,-0.069,-0.027,0.055,-0.007,-0.048,0.005,-0.025,-0.034,-0.06,-0.049,-0.056
-0.026,-0.056,-0.03,0.041,0.002,-0.043,0.006,-0.025,-0.036,-0.06,-0.046,-0.061
0.0,-0.027,-0.027,0.013,0.014,-0.027,0.0,-0.025,-0.034,-0.06,-0.044,-0.061
-0.01,-0.022,-0.012,0.016,0.001,-0.017,-0.01,-0.025,-0.037,-0.06,-0.046,-0.068
-0.006,-0.069,-0.063,0.038,0.029,-0.066,-0.018,-0.024,-0.041,-0.058,-0.042,-0.056
-0.011,-0.076,-0.064,0.044,0.027,-0.07,-0.015,-0.02,-0.04,-0.051,-0.036,-0.052
-0.023,-0.075,-0.051,0.049,0.015,-0.063,-0.013,-0.018,-0.04,-0.046,-0.031,-0.083
-0.02,-0.075,-0.055,0.048,0.018,-0.065,-0.01,-0.014,-0.04,-0.042,-0.026,-0.086
-0.031,-0.075,-0.043,0.053,0.007,-0.059,0.016,-0.015,-0.04,-0.033,-0.019,-0.084
-0.024,-0.089,-0.065,0.057,0.021,-0.077,0.025,-0.015,-0.04,-0.033,-0.017,-0.086
0.001,-0.059,-0.06,0.029,0.031,-0.059,0.012,-0.015,-0.04,-0.048,-0.03,-0.084
-0.032,-0.057,-0.025,0.045,-0.003,-0.041,0.009,-0.015,-0.04,-0.048,-0.031,-0.085
-0.031,-0.079,-0.047,0.055,0.008,-0.063,0.0,-0.014,-0.04,-0.04,-0.029,-0.079
-0.015,-0.074,-0.059,0.044,0.023,-0.066,-0.004,-0.034,-0.059,-0.04,-0.046,-0.077
-0.045,-0.075,-0.03,0.06,-0.007,-0.052,0.006,-0.042,-0.067,-0.03,-0.051,-0.074
-0.032,-0.079,-0.047,0.056,0.008,-0.063,0.007,-0.036,-0.064,-0.035,-0.046,-0.069
-0.034,-0.079,-0.045,0.057,0.006,-0.062,0.011,-0.035,-0.062,-0.047,-0.044,-0.078
-0.03,-0.081,-0.051,0.056,0.011,-0.066,0.006,-0.03,-0.059,-0.039,-0.041,-0.086
-0.015,-0.078,-0.064,0.047,0.024,-0.071,-0.008,-0.03,-0.06,-0.056,-0.039,-0.079
-0.004,-0.063,-0.059,0.034,0.028,-0.061,-0.005,-0.025,-0.055,-0.071,-0.036,-0.076
0.004,-0.061,-0.064,0.029,0.034,-0.062,-0.001,-0.017,-0.05,-0.059,-0.031,-0.071
0.004,-0.065,-0.069,0.031,0.037,-0.066,0.001,-0.011,-0.045,-0.055,-0.029,-0.066
-0.027,-0.089,-0.062,0.058,0.018,-0.075,0.006,-0.004,-0.042,-0.048,-0.025,-0.063
-0.047,-0.092,-0.045,0.069,-0.001,-0.068,0.009,0.002,-0.034,-0.039,-0.019,-0.056
-0.015,-0.07,-0.056,0.043,0.021,-0.063,0.008,0.004,-0.044,-0.055,-0.029,-0.049
-0.034,-0.074,-0.04,0.054,0.003,-0.057,0.003,-0.005,-0.044,-0.058,-0.035,-0.043
-0.018,-0.056,-0.038,0.037,0.01,-0.047,0.0,-0.008,-0.028,-0.04,-0.026,-0.036
-0.015,-0.035,-0.02,0.025,0.003,-0.028,0.007,-0.005,-0.04,-0.046,-0.022,-0.03
-0.002,-0.013,-0.011,0.008,0.005,-0.012,0.014,0.003,-0.035,-0.041,-0.016,-0.022
0.009,0.005,-0.004,-0.007,0.006,0.001,0.022,0.006,-0.022,-0.027,-0.011,-0.016
-0.014,0.025,0.039,-0.006,-0.027,0.032,0.02,0.014,-0.012,-0.018,0.001,-0.009
0.053,0.04,-0.013,-0.047,0.033,0.014,-0.006,0.012,-0.004,-0.011,0.009,-0.003
0.076,0.037,-0.039,-0.056,0.058,-0.001,-0.028,-0.003,0.018,0.007,0.028,0.003
0.079,0.069,-0.01,-0.073,0.045,0.029,-0.025,0.014,0.038,0.019,0.043,0.018
0.075,0.052,-0.023,-0.063,0.048,0.015,-0.009,0.018,0.012,0.002,0.029,0.01
0.026,-0.013,-0.039,-0.006,0.033,-0.026,-0.002,0.009,-0.001,-0.008,0.016,0.001
-0.014,-0.047,-0.033,0.031,0.01,-0.04,-0.008,-0.008,-0.023,-0.044,-0.003,-0.025
-0.041,-0.067,-0.025,0.054,-0.008,-0.046,-0.011,-0.029,-0.043,-0.079,-0.033,-0.059
-0.037,-0.061,-0.023,0.049,-0.007,-0.042,-0.017,-0.05,-0.034,-0.073,-0.044,-0.059
-0.023,-0.051,-0.028,0.037,0.003,-0.039,-0.02,-0.046,-0.031,-0.064,-0.04,-0.071
-0.059,-0.078,-0.019,0.069,-0.02,-0.048,-0.02,-0.056,-0.025,-0.055,-0.053,-0.064
-0.052,-0.095,-0.043,0.074,-0.004,-0.068,-0.011,-0.045,-0.026,-0.06,-0.044,-0.099
-0.02,-0.04,-0.019,0.03,0.0,-0.03,0.065,0.121,0.032,-0.034,-0.013,-0.137
0.143,0.142,-0.001,-0.143,0.072,0.07,0.067,0.345,0.356,0.267,0.195,0.033
0.536,0.319,-0.217,-0.427,0.376,0.051,-0.201,0.112,0.477,0.525,0.503,0.33
0.419,0.266,-0.153,-0.342,0.286,0.056,-0.527,-0.9,-0.149,0.158,0.426,0.446
0.011,0.093,0.082,-0.053,-0.035,0.087,-0.576,-1.333,-0.615,-0.271,0.131,0.299
-0.05,-0.044,0.006,0.047,-0.028,-0.019,-0.4,-0.792,-0.455,-0.29,-0.022,0.124
-0.069,-0.07,-0.001,0.069,-0.034,-0.035,-0.189,-0.363,-0.222,-0.18,-0.058,0.022
-0.063,-0.036,0.027,0.049,-0.044,-0.005,-0.044,-0.107,-0.081,-0.096,-0.054,-0.023
-0.048,-0.047,0.001,0.047,-0.024,-0.023,-0.005,-0.02,-0.032,-0.067,-0.046,-0.037
-0.046,-0.043,0.003,0.044,-0.024,-0.019,0.01,-0.003,-0.018,-0.052,-0.034,-0.055
-0.008,-0.026,-0.018,0.018,0.005,-0.022,0.024,0.027,-0.011,-0.048,-0.026,-0.055
-0.008,-0.029,-0.02,0.019,0.006,-0.024,0.026,0.017,-0.011,-0.047,-0.026,-0.055
-0.034,-0.054,-0.02,0.044,-0.007,-0.036,0.032,0.037,-0.004,-0.042,-0.041,-0.056
-0.04,-0.055,-0.014,0.048,-0.013,-0.034,0.028,0.048,-0.002,-0.041,-0.036,-0.054
-0.035,-0.046,-0.012,0.041,-0.012,-0.029,0.032,0.052,0.001,-0.038,-0.021,-0.056
-0.032,-0.04,-0.008,0.037,-0.012,-0.024,0.048,0.049,-0.001,-0.036,-0.016,-0.054
-0.018,-0.022,-0.004,0.02,-0.006,-0.013,0.051,0.05,0.001,-0.032,-0.011,-0.055
-0.04,-0.052,-0.011,0.046,-0.014,-0.031,0.049,0.054,0.0,-0.03,-0.008,-0.055
-0.053,-0.069,-0.016,0.061,-0.018,-0.042,0.051,0.061,0.0,-0.026,-0.005,-0.055
-0.043,-0.065,-0.022,0.055,-0.01,-0.043,0.049,0.06,-0.001,-0.025,0.001,-0.055
-0.046,-0.074,-0.028,0.06,-0.009,-0.051,0.051,0.075,0.005,-0.02,-0.007,-0.05
-0.015,-0.043,-0.028,0.029,0.006,-0.035,0.059,0.096,0.013,-0.012,-0.016,-0.042
0.009,-0.013,-0.021,0.002,0.015,-0.017,0.071,0.104,0.018,-0.006,-0.007,-0.036
-0.002,-0.017,-0.016,0.01,0.007,-0.016,0.062,0.125,0.03,0.001,-0.002,-0.029
0.006,-0.005,-0.012,0.0,0.009,-0.008,0.059,0.159,0.04,0.016,0.018,-0.005
0.07,0.066,-0.004,-0.067,0.036,0.031,0.089,0.206,0.076,0.054,0.062,0.018
0.063,0.061,-0.002,-0.062,0.032,0.029,0.095,0.231,0.105,0.087,0.098,0.03
0.049,0.057,0.009,-0.053,0.02,0.033,0.087,0.246,0.125,0.119,0.126,0.069
0.128,0.144,0.016,-0.136,0.056,0.08,0.085,0.273,0.175,0.151,0.161,0.118
0.103,0.13,0.026,-0.117,0.038,0.078,0.079,0.259,0.186,0.176,0.188,0.145
0.095,0.16,0.065,-0.128,0.015,0.112,0.073,0.247,0.187,0.195,0.213,0.167
0.15,0.202,0.052,-0.176,0.049,0.126,0.063,0.237,0.195,0.189,0.226,0.186
0.111,0.145,0.034,-0.128,0.038,0.089,0.055,0.185,0.162,0.17,0.197,0.168
0.086,0.113,0.027,-0.1,0.029,0.07,0.045,0.131,0.117,0.118,0.143,0.121
0.049,0.065,0.016,-0.057,0.017,0.04,0.037,0.085,0.076,0.067,0.088,0.072
-0.019,0.021,0.039,-0.001,-0.029,0.03,0.035,0.054,0.043,0.035,0.052,0.03
0.007,0.007,-0.001,-0.007,0.004,0.003,0.035,0.033,0.023,0.006,0.032,-0.01
-0.024,-0.028,-0.004,0.026,-0.01,-0.016,0.032,0.017,0.007,-0.004,0.018,-0.059
-0.054,-0.058,-0.004,0.056,-0.025,-0.031,0.029,0.001,-0.007,-0.013,0.006,-0.09
-0.019,-0.042,-0.023,0.031,0.002,-0.032,0.03,-0.015,-0.02,-0.022,-0.004,-0.096
-0.056,-0.042,0.013,0.049,-0.034,-0.014,0.026,-0.021,-0.035,-0.031,-0.024,-0.099
-0.026,-0.029,-0.003,0.027,-0.011,-0.016,0.023,-0.024,-0.042,-0.029,-0.036,-0.095
-0.04,-0.022,0.019,0.031,-0.029,-0.001,0.021,-0.027,-0.045,-0.031,-0.034,-0.094
-0.102,-0.068,0.034,0.085,-0.068,-0.017,0.016,-0.033,-0.051,-0.039,-0.036,-0.096
-0.079,-0.073,0.007,0.076,-0.043,-0.033,0.018,-0.032,-0.047,-0.044,-0.033,-0.092
-0.04,-0.057,-0.018,0.048,-0.011,-0.037,-0.006,-0.049,-0.058,-0.074,-0.052,-0.109
0.001,-0.031,-0.032,0.015,0.017,-0.031,-0.024,-0.061,-0.065,-0.079,-0.064,-0.12
-0.05,-0.059,-0.009,0.055,-0.02,-0.034,-0.008,-0.044,-0.049,-0.059,-0.051,-0.11
-0.068,-0.051,0.016,0.059,-0.042,-0.017,-0.002,-0.036,-0.041,-0.052,-0.047,-0.106
-0.038,-0.016,0.022,0.027,-0.03,0.003,0.001,-0.027,-0.034,-0.04,-0.044,-0.097
-0.077,-0.06,0.016,0.068,-0.046,-0.022,0.004,-0.019,-0.028,-0.039,-0.045,-0.089
-0.05,-0.024,0.027,0.037,-0.038,0.002,0.006,-0.011,-0.019,-0.025,-0.037,-0.081
-0.007,-0.02,-0.013,0.013,0.003,-0.016,0.011,-0.005,-0.019,-0.026,-0.032,-0.074
-0.031,-0.044,-0.013,0.038,-0.009,-0.029,0.009,-0.005,-0.028,-0.036,-0.022,-0.07
-0.044,-0.023,0.021,0.033,-0.032,-0.001,0.005,-0.005,-0.013,-0.018,-0.007,-0.065
-0.026,-0.021,0.006,0.023,-0.016,-0.007,0.005,-0.005,-0.002,-0.024,-0.01,-0.063
-0.024,-0.016,0.007,0.02,-0.015,-0.004,0.003,-0.005,-0.005,-0.021,-0.013,-0.058
0.014,-0.014,-0.027,0.0,0.021,-0.02,-0.001,-0.005,-0.008,-0.011,-0.015,-0.055
0.012,-0.008,-0.021,-0.002,0.016,-0.014,0.001,-0.008,-0.012,-0.008,-0.019,-0.055
-0.023,-0.038,-0.014,0.03,-0.004,-0.026,-0.006,-0.013,-0.015,0.003,-0.02,-0.055
-0.007,-0.048,-0.04,0.028,0.017,-0.044,-0.006,-0.016,-0.011,0.003,-0.016,-0.055
-0.019,-0.028,-0.01,0.024,-0.004,-0.019,-0.005,-0.02,-0.01,-0.003,-0.015,-0.055
0.003,-0.016,-0.019,0.007,0.011,-0.018,-0.004,-0.023,-0.009,-0.011,-0.015,-0.055
0.004,-0.028,-0.031,0.013,0.018,-0.029,0.0,-0.027,-0.006,-0.018,-0.016,-0.055
-0.007,-0.048,-0.04,0.028,0.017,-0.044,0.0,-0.03,-0.004,-0.026,-0.014,-0.056
-0.01,-0.039,-0.029,0.025,0.01,-0.034,0.003,-0.033,-0.009,-0.033,-0.02,-0.064
-0.027,-0.035,-0.009,0.031,-0.008,-0.022,0.005,-0.035,-0.016,-0.032,-0.031,-0.065
0.01,-0.032,-0.042,0.011,0.026,-0.037,0.007,-0.039,-0.015,-0.029,-0.027,-0.065
0.011,-0.026,-0.037,0.008,0.024,-0.031,-0.008,-0.04,-0.014,-0.026,-0.023,-0.062
0.01,-0.022,-0.032,0.007,0.021,-0.027,-0.022,-0.036,-0.011,-0.024,-0.02,-0.06
0.008,-0.02,-0.028,0.006,0.018,-0.024,-0.02,-0.031,-0.01,-0.019,-0.014,-0.06
0.004,-0.019,-0.023,0.008,0.013,-0.02,-0.017,-0.026,-0.009,-0.022,-0.022,-0.057
0.009,-0.022,-0.031,0.007,0.02,-0.026,-0.016,-0.023,-0.004,-0.024,-0.031,-0.053
-0.003,-0.017,-0.014,0.01,0.005,-0.015,-0.012,-0.016,0.001,-0.018,-0.03,-0.05
0.015,0.0,-0.015,-0.007,0.015,-0.008,0.008,-0.017,0.004,-0.013,-0.031,-0.047
0.018,0.018,0.0,-0.018,0.009,0.009,0.008,-0.028,0.012,-0.007,-0.029,-0.042
-0.021,0.01,0.032,0.005,-0.027,0.021,-0.006,-0.025,0.002,-0.001,-0.032,-0.032
-0.03,0.016,0.046,0.007,-0.038,0.031,-0.019,0.003,-0.004,0.003,-0.023,0.003
0.007,0.051,0.044,-0.03,-0.019,0.047,-0.017,0.032,0.034,0.015,-0.004,0.043
0.011,0.057,0.047,-0.035,-0.018,0.052,0.007,0.028,0.04,0.019,0.002,0.077
0.042,0.084,0.042,-0.064,0.0,0.063,-0.001,0.008,0.012,0.001,0.014,0.109
0.067,0.083,0.016,-0.075,0.025,0.049,-0.036,0.024,0.031,0.019,0.04,0.142
0.071,0.07,-0.001,-0.071,0.036,0.035,-0.041,0.073,0.07,0.057,0.053,0.164
0.093,0.079,-0.014,-0.086,0.053,0.032,-0.04,0.062,0.06,0.058,0.046,0.171
0.033,0.015,-0.018,-0.024,0.026,-0.001,-0.04,0.044,0.032,0.031,0.032,0.174
-0.004,-0.042,-0.038,0.023,0.017,-0.039,-0.039,0.026,0.003,-0.01,-0.004,0.137
0.03,-0.025,-0.054,-0.003,0.042,-0.039,-0.041,0.017,-0.01,-0.027,-0.03,0.112
0.023,-0.036,-0.059,0.006,0.042,-0.047,-0.035,0.015,-0.016,-0.04,-0.028,0.099
-0.004,-0.067,-0.064,0.036,0.03,-0.065,-0.032,0.012,-0.024,-0.042,-0.036,0.082
0.002,-0.051,-0.053,0.025,0.028,-0.052,-0.022,0.022,-0.018,-0.038,-0.055,0.073
-0.006,-0.054,-0.048,0.03,0.021,-0.051,-0.021,0.011,-0.01,-0.038,-0.056,0.059
0.006,-0.039,-0.045,0.017,0.025,-0.042,0.038,0.152,0.021,-0.024,-0.046,0.054
0.103,0.111,0.008,-0.107,0.047,0.06,0.094,0.363,0.291,0.196,0.116,0.152
0.44,0.361,-0.079,-0.4,0.259,0.141,-0.129,0.316,0.62,0.599,0.497,0.441
0.539,0.358,-0.181,-0.449,0.36,0.088,-0.53,-0.564,0.108,0.367,0.53,0.602
0.16,0.087,-0.072,-0.123,0.116,0.007,-0.687,-1.327,-0.594,-0.208,0.182,0.472
0.027,-0.027,-0.053,0.0,0.04,-0.04,-0.524,-0.905,-0.506,-0.279,0.012,0.305
-0.008,-0.053,-0.046,0.03,0.019,-0.049,-0.269,-0.382,-0.254,-0.179,-0.048,0.175
-0.052,-0.079,-0.027,0.066,-0.012,-0.053,-0.083,-0.108,-0.092,-0.099,-0.085,0.103
-0.009,-0.057,-0.048,0.033,0.02,-0.052,-0.044,0.015,-0.019,-0.055,-0.077,0.09
-0.022,-0.049,-0.027,0.036,0.003,-0.038,-0.026,0.035,-0.027,-0.057,-0.078,0.081
0.008,-0.043,-0.051,0.017,0.03,-0.047,0.008,0.086,-0.01,-0.034,-0.074,0.078
0.013,-0.037,-0.05,0.012,0.032,-0.043,0.009,0.073,-0.011,-0.044,-0.072,0.073
0.013,-0.035,-0.048,0.011,0.031,-0.041,0.015,0.084,0.0,-0.046,-0.053,0.069
0.027,-0.027,-0.054,0.0,0.04,-0.041,0.018,0.077,0.001,-0.044,-0.045,0.064
0.012,-0.026,-0.038,0.007,0.026,-0.032,0.024,0.081,0.007,-0.041,-0.044,0.061
-0.005,-0.059,-0.054,0.032,0.025,-0.056,0.027,0.079,0.011,-0.039,-0.04,0.059
0.015,-0.049,-0.065,0.017,0.04,-0.057,0.034,0.085,0.015,-0.039,-0.038,0.06
0.004,-0.039,-0.043,0.018,0.023,-0.041,0.033,0.106,0.02,-0.032,-0.035,0.059
0.009,-0.038,-0.047,0.015,0.028,-0.042,0.03,0.107,0.02,-0.026,-0.033,0.061
0.032,-0.031,-0.063,-0.001,0.048,-0.047,0.03,0.113,0.021,-0.019,-0.026,0.057
0.03,-0.025,-0.055,-0.002,0.042,-0.04,0.028,0.115,0.025,-0.012,-0.021,0.054
0.046,-0.009,-0.055,-0.018,0.051,-0.032,0.025,0.125,0.026,-0.006,-0.017,0.053
0.012,-0.036,-0.049,0.012,0.03,-0.042,0.023,0.133,0.02,-0.019,-0.009,0.046
0.03,-0.021,-0.051,-0.004,0.041,-0.036,0.046,0.156,0.032,-0.018,-0.006,0.064
0.032,-0.016,-0.048,-0.008,0.041,-0.031,0.043,0.191,0.041,0.0,0.006,0.07
0.039,0.022,-0.018,-0.03,0.029,0.002,0.066,0.218,0.072,0.018,0.034,0.088
0.096,0.083,-0.014,-0.089,0.055,0.034,0.091,0.253,0.114,0.064,0.057,0.125
0.1,0.103,0.002,-0.102,0.049,0.052,0.065,0.281,0.139,0.113,0.097,0.151
0.141,0.143,0.002,-0.142,0.069,0.072,0.076,0.295,0.168,0.134,0.124,0.181
0.186,0.171,-0.015,-0.179,0.101,0.078,0.079,0.303,0.189,0.168,0.159,0.207
0.204,0.219,0.014,-0.212,0.095,0.116,0.057,0.279,0.194,0.192,0.198,0.236
0.167,0.202,0.036,-0.185,0.065,0.119,0.045,0.236,0.189,0.187,0.186,0.248
0.169,0.192,0.023,-0.181,0.073,0.107,0.033,0.195,0.175,0.176,0.177,0.233
0.159,0.176,0.016,-0.168,0.071,0.096,0.023,0.148,0.135,0.132,0.148,0.185
0.093,0.107,0.014,-0.1,0.039,0.06,0.013,0.098,0.099,0.089,0.09,0.138
0.06,0.06,0.0,-0.06,0.029,0.03,0.006,0.05,0.07,0.052,0.047,0.105
0.044,0.031,-0.013,-0.038,0.028,0.009,-0.001,0.024,0.028,0.008,0.026,0.069
0.064,0.045,-0.019,-0.054,0.041,0.013,-0.009,0.015,0.01,-0.003,0.016,0.053
0.034,0.004,-0.03,-0.019,0.032,-0.013,-0.016,0.002,0.009,-0.017,0.002,0.049
0.013,-0.028,-0.041,0.008,0.027,-0.034,-0.021,-0.007,0.005,-0.036,-0.014,0.043
0.023,-0.007,-0.029,-0.008,0.026,-0.018,-0.019,-0.017,0.002,-0.035,-0.03,0.037
0.026,0.002,-0.024,-0.014,0.025,-0.011,-0.021,-0.025,0.0,-0.035,-0.036,0.035
0.016,-0.002,-0.018,-0.007,0.017,-0.01,-0.019,-0.035,-0.003,-0.036,-0.039,0.035
-0.022,-0.032,-0.009,0.027,-0.006,-0.02,-0.021,-0.039,-0.011,-0.035,-0.044,0.035
-0.003,-0.025,-0.022,0.014,0.009,-0.023,-0.019,-0.04,-0.019,-0.032,-0.045,0.035
0.005,-0.02,-0.026,0.008,0.016,-0.023,-0.017,-0.04,-0.029,-0.045,-0.045,0.035
0.006,-0.017,-0.023,0.006,0.015,-0.02,-0.033,-0.038,-0.035,-0.052,-0.047,0.035
0.018,-0.001,-0.019,-0.009,0.019,-0.01,-0.035,-0.055,-0.051,-0.049,-0.047,0.035
-0.014,-0.031,-0.017,0.023,0.002,-0.024,-0.029,-0.056,-0.055,-0.047,-0.045,0.035
-0.03,-0.044,-0.014,0.038,-0.008,-0.029,-0.028,-0.045,-0.046,-0.044,-0.045,0.035
-0.035,-0.026,0.009,0.031,-0.022,-0.008,-0.022,-0.039,-0.044,-0.045,-0.04,0.035
-0.031,-0.022,0.009,0.026,-0.02,-0.006,-0.02,-0.03,-0.038,-0.041,-0.04,0.035
-0.017,-0.031,-0.014,0.024,-0.001,-0.022,-0.02,-0.026,-0.035,-0.038,-0.039,0.035
0.032,-0.004,-0.035,-0.014,0.033,-0.02,-0.02,-0.021,-0.029,-0.036,-0.033,0.035
0.061,0.02,-0.042,-0.041,0.051,-0.011,-0.02,-0.019,-0.024,-0.032,-0.028,0.035
0.052,0.012,-0.039,-0.032,0.045,-0.013,-0.02,-0.014,-0.019,-0.031,-0.022,0.035
0.035,-0.005,-0.04,-0.015,0.038,-0.022,-0.02,-0.011,-0.013,-0.027,-0.017,0.036
0.035,-0.005,-0.04,-0.015,0.038,-0.022,-0.022,-0.009,-0.007,-0.025,-0.009,0.039
0.053,0.01,-0.043,-0.032,0.048,-0.016,-0.025,-0.014,-0.007,-0.025,-0.026,0.035
0.021,-0.024,-0.045,0.002,0.033,-0.035,-0.025,-0.017,-0.011,-0.022,-0.047,0.035
0.008,-0.031,-0.039,0.011,0.024,-0.034,-0.025,-0.012,-0.01,-0.018,-0.044,0.034
0.007,-0.028,-0.035,0.011,0.021,-0.031,-0.028,-0.005,-0.01,-0.023,-0.045,0.029
0.014,-0.043,-0.057,0.015,0.036,-0.05,-0.03,0.0,-0.01,-0.039,-0.041,0.03
0.045,-0.023,-0.067,-0.01,0.056,-0.045,-0.034,-0.009,-0.012,-0.037,-0.039,0.028
0.044,-0.02,-0.064,-0.011,0.055,-0.042,-0.035,-0.021,-0.019,-0.03,-0.042,0.023
0.02,-0.044,-0.064,0.013,0.042,-0.054,-0.03,-0.033,-0.016,-0.029,-0.045,0.02
0.017,-0.05,-0.067,0.017,0.042,-0.058,-0.03,-0.038,-0.014,-0.021,-0.045,0.017
0.017,-0.042,-0.059,0.013,0.039,-0.051,-0.029,-0.034,-0.016,-0.022,-0.045,0.012
0.019,-0.04,-0.059,0.011,0.039,-0.049,-0.025,-0.035,-0.013,-0.027,-0.045,0.01
0.048,-0.034,-0.082,-0.007,0.065,-0.057,-0.025,-0.032,-0.025,-0.025,-0.045,0.015
0.05,-0.03,-0.08,-0.01,0.065,-0.055,-0.027,-0.029,-0.041,-0.024,-0.048,0.015
0.046,-0.033,-0.079,-0.006,0.062,-0.056,-0.031,-0.031,-0.04,-0.022,-0.051,0.016
0.045,-0.037,-0.081,-0.004,0.063,-0.059,-0.029,-0.035,-0.04,-0.017,-0.054,0.02
0.047,-0.029,-0.077,-0.009,0.062,-0.053,-0.03,-0.036,-0.04,-0.034,-0.057,0.02
0.07,-0.006,-0.075,-0.031,0.073,-0.04,-0.03,-0.034,-0.039,-0.047,-0.06,0.018
0.042,-0.03,-0.071,-0.006,0.057,-0.05,-0.025,-0.032,-0.043,-0.045,-0.059,0.015
0.009,-0.06,-0.069,0.025,0.039,-0.064,-0.026,-0.028,-0.045,-0.043,-0.054,0.012
0.023,-0.044,-0.067,0.011,0.045,-0.055,-0.023,-0.036,-0.045,-0.039,-0.051,0.009
0.028,-0.034,-0.062,0.003,0.046,-0.048,-0.021,-0.044,-0.049,-0.04,-0.048,0.005
0.043,-0.033,-0.076,-0.005,0.06,-0.054,-0.018,-0.039,-0.05,-0.036,-0.043,0.005
0.049,-0.037,-0.086,-0.005,0.067,-0.061,-0.028,-0.032,-0.05,-0.029,-0.04,0.01
0.058,-0.027,-0.085,-0.015,0.072,-0.056,-0.034,-0.028,-0.038,-0.023,-0.036,0.016
0.059,-0.02,-0.08,-0.019,0.07,-0.05,-0.015,-0.022,-0.02,-0.016,-0.029,0.022
0.075,0.01,-0.065,-0.042,0.07,-0.027,-0.015,-0.017,-0.007,-0.009,-0.023,0.027
0.126,0.069,-0.058,-0.097,0.092,0.006,-0.015,-0.014,0.007,-0.004,-0.016,0.031
0.113,0.077,-0.036,-0.095,0.074,0.021,-0.015,-0.007,0.021,-0.001,-0.009,0.028
0.136,0.063,-0.073,-0.099,0.104,-0.005,-0.034,-0.007,0.036,0.006,-0.003,0.045
0.184,0.081,-0.103,-0.132,0.143,-0.011,-0.041,0.021,0.042,0.023,0.018,0.06
0.175,0.1,-0.075,-0.137,0.125,0.012,-0.039,0.015,0.029,0.031,0.031,0.053
0.166,0.059,-0.107,-0.112,0.136,-0.024,-0.041,-0.019,0.018,0.014,0.027,0.043
0.132,0.028,-0.104,-0.08,0.118,-0.038,-0.039,-0.029,0.003,-0.014,-0.002,0.017
0.108,0.005,-0.104,-0.056,0.106,-0.049,-0.041,-0.052,-0.02,-0.048,-0.047,-0.017
0.079,-0.036,-0.116,-0.021,0.098,-0.075,-0.032,-0.049,-0.046,-0.066,-0.074,-0.036
0.056,-0.032,-0.088,-0.012,0.073,-0.06,-0.027,-0.054,-0.051,-0.065,-0.077,-0.034
0.047,-0.043,-0.09,-0.001,0.069,-0.066,-0.018,-0.031,-0.034,-0.064,-0.079,-0.029
0.023,-0.066,-0.089,0.021,0.056,-0.077,-0.01,-0.051,-0.035,-0.067,-0.086,-0.024
0.028,-0.068,-0.096,0.02,0.062,-0.081,0.017,0.02,-0.022,-0.061,-0.082,-0.04
0.074,0.045,-0.029,-0.059,0.051,0.008,0.096,0.245,0.151,0.083,0.013,-0.003
0.396,0.307,-0.089,-0.352,0.242,0.109,-0.036,0.341,0.539,0.475,0.345,0.238
0.706,0.413,-0.293,-0.559,0.5,0.06,-0.43,-0.267,0.332,0.483,0.513,0.464
0.423,0.177,-0.246,-0.3,0.334,-0.034,-0.704,-1.28,-0.464,-0.085,0.239,0.402
0.13,-0.035,-0.166,-0.047,0.148,-0.1,-0.621,-1.202,-0.604,-0.315,0.013,0.251
0.114,-0.029,-0.142,-0.042,0.128,-0.085,-0.33,-0.544,-0.298,-0.189,-0.054,0.124
0.046,-0.028,-0.074,-0.008,0.06,-0.051,-0.103,-0.216,-0.119,-0.119,-0.079,0.032
0.111,0.009,-0.102,-0.059,0.106,-0.047,-0.023,-0.04,-0.038,-0.067,-0.07,0.02
0.104,0.0,-0.104,-0.052,0.104,-0.052,-0.003,-0.03,-0.033,-0.054,-0.071,-0.005
0.021,-0.069,-0.09,0.024,0.056,-0.079,0.019,-0.011,-0.017,-0.054,-0.065,-0.025
0.059,-0.047,-0.107,-0.006,0.083,-0.077,0.026,0.012,-0.019,-0.048,-0.062,-0.024
0.056,-0.041,-0.097,-0.007,0.077,-0.069,0.025,0.023,-0.011,-0.042,-0.058,-0.027
0.087,-0.017,-0.104,-0.035,0.096,-0.06,0.023,0.025,-0.004,-0.038,-0.054,-0.029
0.099,-0.008,-0.106,-0.045,0.103,-0.057,0.02,0.027,0.004,-0.032,-0.043,-0.031
0.081,-0.026,-0.107,-0.027,0.094,-0.067,0.02,0.041,-0.002,-0.029,-0.062,-0.028
0.107,-0.007,-0.114,-0.05,0.111,-0.06,0.024,0.039,-0.008,-0.024,-0.082,-0.025
0.054,-0.029,-0.083,-0.012,0.068,-0.056,0.036,0.041,0.008,-0.02,-0.072,-0.02
0.027,-0.047,-0.074,0.01,0.051,-0.06,0.041,0.035,-0.013,-0.032,-0.068,-0.018
0.044,-0.059,-0.103,0.007,0.074,-0.081,0.039,0.054,-0.016,-0.035,-0.061,-0.014
0.034,-0.053,-0.087,0.009,0.061,-0.069,0.043,0.071,0.009,-0.026,-0.054,-0.009
0.063,-0.019,-0.082,-0.022,0.073,-0.05,0.059,0.071,0.015,-0.023,-0.048,-0.019
0.068,-0.021,-0.089,-0.023,0.078,-0.055,0.066,0.094,0.023,-0.013,-0.041,-0.017
0.071,-0.015,-0.086,-0.027,0.078,-0.05,0.071,0.116,0.029,-0.001,-0.029,-0.007
0.081,-0.003,-0.085,-0.039,0.083,-0.044,0.085,0.141,0.046,0.01,-0.017,-0.001
0.115,0.029,-0.086,-0.072,0.1,-0.028,0.083,0.173,0.065,0.015,0.004,0.008
0.131,0.054,-0.077,-0.092,0.104,-0.011,0.1,0.2,0.075,0.043,0.03,0.025
0.113,0.098,-0.015,-0.105,0.064,0.041,0.116,0.248,0.124,0.098,0.065,0.079
0.154,0.142,-0.012,-0.148,0.083,0.065,0.105,0.274,0.162,0.13,0.096,0.108
0.189,0.158,-0.031,-0.173,0.11,0.063,0.099,0.277,0.169,0.154,0.128,0.134
0.228,0.215,-0.013,-0.221,0.121,0.1,0.093,0.276,0.2,0.192,0.168,0.179
0.219,0.213,-0.006,-0.215,0.112,0.103,0.079,0.232,0.18,0.189,0.172,0.182
0.198,0.189,-0.009,-0.193,0.103,0.09,0.057,0.178,0.154,0.173,0.166,0.176
0.194,0.152,-0.042,-0.173,0.118,0.055,0.046,0.131,0.139,0.145,0.138,0.156
0.115,0.093,-0.022,-0.104,0.068,0.035,0.036,0.084,0.093,0.08,0.087,0.112
0.107,0.07,-0.037,-0.088,0.072,0.017,0.039,0.045,0.066,0.055,0.037,0.064
0.107,0.023,-0.085,-0.065,0.096,-0.031,0.049,0.015,0.002,0.0,-0.003,0.036
0.106,0.028,-0.078,-0.067,0.092,-0.025,0.012,-0.008,0.025,0.02,-0.025,0.026
0.09,0.021,-0.069,-0.055,0.079,-0.023,-0.014,-0.009,-0.023,-0.027,-0.036,-0.008
0.069,0.0,-0.069,-0.034,0.069,-0.035,-0.001,-0.026,0.0,0.024,-0.041,-0.058
0.086,0.004,-0.081,-0.044,0.083,-0.038,0.001,-0.001,-0.025,0.242,-0.046,-0.098
0.022,-0.031,-0.054,0.005,0.038,-0.042,-0.001,0.107,-0.149,0.143,-0.035,-0.12
