-0.041,-0.08,-0.039,0.06,-0.001,-0.06,0.045,-0.005,0.005,-0.055,-0.07,-0.04
-0.039,-0.076,-0.037,0.058,-0.001,-0.057,0.045,-0.007,0.001,-0.055,-0.07,-0.04
-0.018,-0.069,-0.051,0.043,0.017,-0.059,0.045,-0.013,-0.006,-0.055,-0.073,-0.045
-0.013,-0.063,-0.05,0.038,0.019,-0.056,0.045,-0.016,-0.012,-0.058,-0.077,-0.049
-0.02,-0.055,-0.034,0.038,0.007,-0.044,0.045,-0.021,-0.019,-0.062,-0.079,-0.056
-0.01,-0.051,-0.041,0.031,0.016,-0.045,0.044,-0.026,-0.025,-0.067,-0.084,-0.06
-0.034,-0.049,-0.015,0.042,-0.01,-0.031,0.041,-0.029,-0.03,-0.069,-0.084,-0.051
-0.047,-0.052,-0.005,0.049,-0.021,-0.029,0.036,-0.03,-0.03,-0.082,-0.092,-0.065
-0.019,-0.057,-0.038,0.038,0.01,-0.047,0.034,-0.03,-0.03,-0.091,-0.101,-0.076
-0.03,-0.047,-0.017,0.039,-0.006,-0.032,0.028,-0.03,-0.03,-0.082,-0.093,-0.066
-0.046,-0.034,0.012,0.04,-0.029,-0.01,0.027,-0.03,-0.03,-0.08,-0.09,-0.063
-0.028,-0.03,-0.002,0.029,-0.013,-0.015,0.023,-0.032,-0.032,-0.075,-0.086,-0.056
-0.019,-0.031,-0.012,0.025,-0.004,-0.021,0.029,-0.038,-0.036,-0.069,-0.079,-0.051
-0.05,-0.027,0.022,0.038,-0.036,-0.002,0.04,-0.042,-0.038,-0.087,-0.092,-0.063
-0.037,-0.025,0.012,0.031,-0.024,-0.007,0.02,-0.045,-0.041,-0.097,-0.106,-0.072
-0.022,-0.023,-0.002,0.023,-0.01,-0.012,0.013,-0.051,-0.044,-0.097,-0.104,-0.072
-0.028,-0.031,-0.002,0.029,-0.013,-0.016,0.017,-0.057,-0.046,-0.102,-0.105,-0.076
-0.02,-0.036,-0.016,0.028,-0.002,-0.026,0.014,-0.063,-0.049,-0.104,-0.105,-0.079
-0.054,-0.023,0.031,0.038,-0.043,0.004,0.016,-0.065,-0.05,-0.106,-0.105,-0.081
-0.072,-0.019,0.053,0.045,-0.062,0.017,0.017,-0.067,-0.05,-0.109,-0.105,-0.084
-0.069,-0.021,0.048,0.045,-0.059,0.014,0.016,-0.07,-0.05,-0.11,-0.105,-0.086
-0.072,-0.019,0.053,0.045,-0.062,0.017,0.015,-0.071,-0.05,-0.11,-0.115,-0.09
-0.077,-0.021,0.056,0.048,-0.066,0.017,0.015,-0.072,-0.048,-0.11,-0.115,-0.088
-0.073,-0.019,0.053,0.045,-0.063,0.016,0.015,-0.066,-0.041,-0.11,-0.107,-0.081
-0.068,-0.013,0.055,0.04,-0.061,0.02,0.015,-0.061,-0.036,-0.107,-0.101,-0.077
-0.043,0.0,0.043,0.021,-0.043,0.021,0.012,-0.056,-0.031,-0.099,-0.094,-0.071
-0.014,0.038,0.053,-0.012,-0.034,0.045,0.01,-0.05,-0.025,-0.092,-0.088,-0.065
-0.024,0.061,0.085,-0.018,-0.055,0.073,0.011,-0.045,-0.021,-0.082,-0.082,-0.06
0.007,0.088,0.081,-0.048,-0.037,0.084,0.005,-0.04,-0.001,-0.077,-0.08,-0.055
0.036,0.113,0.077,-0.075,-0.02,0.095,0.006,-0.039,0.018,-0.08,-0.08,-0.055
0.051,0.099,0.047,-0.075,0.001,0.073,0.003,-0.038,0.013,-0.08,-0.08,-0.053
0.048,0.091,0.042,-0.07,0.003,0.066,-0.02,-0.031,0.011,-0.08,-0.08,-0.051
0.038,0.08,0.042,-0.059,-0.002,0.061,-0.033,-0.047,-0.006,-0.08,-0.079,-0.048
0.034,0.07,0.037,-0.053,-0.001,0.053,-0.029,-0.054,-0.031,-0.08,-0.086,-0.055
0.0,0.063,0.063,-0.031,-0.032,0.063,-0.03,-0.072,-0.047,-0.095,-0.1,-0.074
-0.039,0.054,0.093,-0.007,-0.067,0.073,-0.026,-0.096,-0.07,-0.122,-0.133,-0.1
-0.065,0.056,0.121,0.004,-0.093,0.088,-0.023,-0.105,-0.081,-0.139,-0.153,-0.117
-0.059,0.054,0.113,0.002,-0.087,0.083,-0.027,-0.109,-0.082,-0.144,-0.148,-0.113
-0.068,0.056,0.124,0.006,-0.096,0.089,-0.014,-0.097,-0.075,-0.141,-0.153,-0.117
-0.07,0.051,0.121,0.009,-0.096,0.086,-0.015,-0.118,-0.088,-0.14,-0.155,-0.113
-0.083,0.044,0.127,0.019,-0.105,0.085,0.0,-0.088,-0.069,-0.135,-0.154,-0.121
-0.09,0.039,0.128,0.025,-0.109,0.083,-0.001,-0.126,-0.09,-0.135,-0.153,-0.127
-0.1,0.028,0.128,0.036,-0.114,0.078,0.009,-0.079,-0.059,-0.129,-0.144,-0.124
-0.108,0.028,0.136,0.04,-0.122,0.082,0.037,-0.058,-0.054,-0.128,-0.154,-0.137
-0.115,0.002,0.117,0.056,-0.117,0.059,0.077,0.081,0.028,-0.094,-0.15,-0.149
0.044,0.115,0.071,-0.08,-0.014,0.093,0.056,0.412,0.511,0.341,0.206,0.085
0.804,0.415,-0.389,-0.609,0.596,0.013,-0.431,0.348,0.925,1.013,0.886,0.708
1.038,0.53,-0.508,-0.784,0.773,0.011,-0.873,-0.593,0.153,0.495,0.639,0.739
0.28,0.287,0.007,-0.284,0.136,0.147,-0.921,-2.104,-1.517,-0.922,-0.476,-0.04
-0.081,0.015,0.096,0.033,-0.088,0.055,-0.767,-1.898,-1.663,-1.188,-0.812,-0.403
-0.035,0.041,0.076,-0.004,-0.056,0.059,-0.392,-0.746,-0.735,-0.623,-0.474,-0.268
-0.012,0.13,0.142,-0.06,-0.077,0.136,-0.161,-0.312,-0.317,-0.304,-0.251,-0.165
-0.009,0.103,0.112,-0.047,-0.061,0.107,-0.071,-0.055,-0.098,-0.164,-0.156,-0.116
-0.024,0.109,0.132,-0.043,-0.078,0.121,-0.034,-0.03,-0.053,-0.119,-0.124,-0.102
0.0,0.145,0.144,-0.072,-0.072,0.144,-0.04,0.012,-0.013,-0.1,-0.105,-0.097
0.001,0.159,0.158,-0.08,-0.079,0.158,-0.026,0.029,0.016,-0.089,-0.102,-0.093
0.008,0.168,0.16,-0.088,-0.076,0.164,-0.029,0.042,0.025,-0.068,-0.094,-0.086
0.002,0.163,0.161,-0.082,-0.08,0.161,-0.02,0.071,0.055,-0.058,-0.087,-0.081
0.006,0.154,0.148,-0.08,-0.072,0.151,-0.018,0.07,0.064,-0.052,-0.079,-0.076
0.016,0.181,0.165,-0.099,-0.074,0.173,-0.032,0.104,0.08,-0.037,-0.065,-0.069
0.017,0.193,0.176,-0.105,-0.08,0.185,-0.042,0.11,0.087,-0.018,-0.055,-0.063
0.035,0.187,0.152,-0.111,-0.059,0.17,-0.04,0.15,0.12,-0.003,-0.039,-0.055
0.04,0.193,0.152,-0.117,-0.056,0.172,-0.04,0.188,0.144,0.005,-0.028,-0.048
0.046,0.186,0.14,-0.117,-0.047,0.163,-0.04,0.232,0.187,0.044,-0.007,-0.027
0.077,0.213,0.136,-0.145,-0.03,0.175,-0.039,0.287,0.236,0.079,0.016,-0.008
0.124,0.254,0.13,-0.189,-0.003,0.192,-0.036,0.35,0.282,0.111,0.04,0.006
0.143,0.262,0.119,-0.203,0.012,0.19,-0.031,0.444,0.354,0.157,0.076,0.032
0.155,0.294,0.139,-0.225,0.008,0.217,-0.029,0.533,0.423,0.201,0.118,0.059
0.218,0.336,0.117,-0.277,0.05,0.226,-0.024,0.626,0.497,0.265,0.172,0.107
0.243,0.349,0.107,-0.296,0.068,0.228,-0.02,0.714,0.573,0.326,0.222,0.147
0.236,0.366,0.13,-0.301,0.052,0.248,-0.022,0.747,0.62,0.369,0.257,0.167
0.265,0.391,0.126,-0.329,0.069,0.258,-0.025,0.747,0.631,0.398,0.289,0.193
0.279,0.39,0.111,-0.334,0.083,0.25,-0.028,0.681,0.615,0.389,0.295,0.189
0.231,0.367,0.136,-0.299,0.048,0.251,-0.038,0.533,0.535,0.347,0.255,0.162
0.153,0.338,0.185,-0.246,-0.016,0.261,-0.046,0.343,0.383,0.246,0.181,0.114
0.093,0.292,0.198,-0.193,-0.053,0.245,-0.043,0.178,0.232,0.129,0.089,0.048
0.031,0.264,0.234,-0.148,-0.102,0.249,-0.053,0.049,0.108,0.025,-0.003,-0.012
0.016,0.258,0.242,-0.137,-0.114,0.25,-0.066,-0.038,0.034,-0.046,-0.057,-0.058
0.004,0.242,0.237,-0.123,-0.117,0.239,-0.06,-0.085,-0.01,-0.087,-0.095,-0.102
-0.026,0.227,0.252,-0.101,-0.139,0.239,-0.055,-0.118,-0.057,-0.122,-0.122,-0.126
-0.008,0.214,0.222,-0.103,-0.116,0.218,-0.052,-0.111,-0.073,-0.123,-0.127,-0.124
-0.039,0.205,0.244,-0.083,-0.142,0.224,-0.045,-0.117,-0.07,-0.127,-0.133,-0.127
-0.069,0.19,0.259,-0.061,-0.164,0.224,-0.048,-0.137,-0.07,-0.131,-0.135,-0.131
-0.048,0.189,0.237,-0.071,-0.143,0.213,-0.05,-0.139,-0.07,-0.133,-0.135,-0.13
-0.046,0.201,0.247,-0.078,-0.147,0.224,-0.049,-0.141,-0.069,-0.135,-0.135,-0.13
-0.052,0.209,0.261,-0.078,-0.157,0.235,-0.054,-0.139,-0.076,-0.143,-0.149,-0.141
-0.057,0.225,0.282,-0.085,-0.17,0.254,-0.055,-0.141,-0.088,-0.157,-0.157,-0.146
-0.047,0.22,0.267,-0.087,-0.157,0.243,-0.051,-0.14,-0.094,-0.154,-0.154,-0.146
-0.057,0.215,0.272,-0.079,-0.165,0.243,-0.047,-0.144,-0.095,-0.155,-0.153,-0.15
-0.076,0.212,0.289,-0.069,-0.183,0.25,-0.044,-0.145,-0.096,-0.155,-0.149,-0.15
-0.074,0.203,0.277,-0.065,-0.176,0.24,-0.038,-0.145,-0.094,-0.158,-0.15,-0.155
-0.066,0.219,0.285,-0.077,-0.176,0.252,-0.045,-0.15,-0.096,-0.161,-0.153,-0.155
-0.057,0.231,0.287,-0.087,-0.172,0.259,-0.047,-0.15,-0.095,-0.159,-0.162,-0.156
-0.069,0.224,0.293,-0.078,-0.182,0.258,-0.047,-0.151,-0.095,-0.161,-0.164,-0.16
-0.077,0.219,0.296,-0.071,-0.187,0.257,-0.072,-0.149,-0.116,-0.16,-0.16,-0.159
-0.046,0.251,0.297,-0.103,-0.172,0.274,-0.076,-0.158,-0.122,-0.16,-0.16,-0.162
-0.024,0.269,0.293,-0.123,-0.159,0.281,-0.074,-0.166,-0.119,-0.16,-0.16,-0.165
-0.028,0.262,0.29,-0.117,-0.159,0.275,-0.075,-0.164,-0.12,-0.159,-0.16,-0.168
-0.019,0.267,0.287,-0.124,-0.154,0.277,-0.075,-0.177,-0.12,-0.171,-0.159,-0.171
-0.02,0.262,0.282,-0.121,-0.151,0.272,-0.074,-0.181,-0.119,-0.181,-0.167,-0.174
-0.045,0.269,0.314,-0.112,-0.18,0.291,-0.069,-0.18,-0.115,-0.179,-0.179,-0.175
-0.092,0.236,0.328,-0.073,-0.211,0.282,-0.086,-0.179,-0.115,-0.183,-0.176,-0.175
-0.1,0.223,0.323,-0.062,-0.212,0.272,-0.091,-0.192,-0.115,-0.185,-0.174,-0.175
-0.084,0.243,0.326,-0.08,-0.205,0.284,-0.086,-0.207,-0.116,-0.185,-0.175,-0.175
-0.096,0.228,0.324,-0.067,-0.21,0.276,-0.085,-0.199,-0.113,-0.181,-0.174,-0.175
-0.077,0.249,0.326,-0.087,-0.201,0.287,-0.08,-0.196,-0.127,-0.174,-0.176,-0.175
-0.057,0.267,0.324,-0.105,-0.191,0.295,-0.079,-0.191,-0.137,-0.168,-0.173,-0.172
-0.06,0.266,0.326,-0.103,-0.194,0.296,-0.076,-0.186,-0.124,-0.161,-0.168,-0.164
-0.062,0.26,0.322,-0.099,-0.193,0.291,-0.074,-0.183,-0.113,-0.154,-0.161,-0.156
-0.035,0.305,0.34,-0.135,-0.188,0.323,-0.069,-0.178,-0.099,-0.148,-0.158,-0.148
-0.021,0.343,0.364,-0.161,-0.193,0.353,-0.068,-0.175,-0.084,-0.136,-0.143,-0.141
-0.025,0.332,0.357,-0.154,-0.192,0.345,-0.062,-0.167,-0.072,-0.12,-0.124,-0.144
-0.005,0.357,0.361,-0.176,-0.183,0.359,-0.073,-0.165,-0.068,-0.118,-0.125,-0.145
-0.01,0.338,0.348,-0.164,-0.18,0.343,-0.107,-0.154,-0.064,-0.122,-0.124,-0.146
0.005,0.35,0.346,-0.178,-0.171,0.348,-0.112,-0.168,-0.079,-0.134,-0.135,-0.151
0.034,0.36,0.326,-0.198,-0.146,0.343,-0.11,-0.199,-0.105,-0.145,-0.148,-0.149
0.001,0.314,0.313,-0.157,-0.156,0.313,-0.11,-0.193,-0.112,-0.152,-0.156,-0.153
-0.051,0.327,0.378,-0.138,-0.215,0.353,-0.107,-0.218,-0.148,-0.185,-0.18,-0.176
-0.062,0.34,0.402,-0.139,-0.232,0.371,-0.104,-0.228,-0.168,-0.207,-0.202,-0.197
-0.056,0.33,0.386,-0.137,-0.221,0.358,-0.105,-0.233,-0.18,-0.21,-0.206,-0.2
-0.056,0.326,0.383,-0.136,-0.22,0.354,-0.101,-0.228,-0.182,-0.215,-0.205,-0.199
-0.057,0.319,0.376,-0.131,-0.216,0.347,-0.098,-0.238,-0.183,-0.215,-0.205,-0.201
-0.051,0.311,0.363,-0.13,-0.207,0.337,-0.104,-0.235,-0.18,-0.215,-0.204,-0.198
-0.081,0.308,0.389,-0.114,-0.235,0.348,-0.092,-0.225,-0.169,-0.215,-0.205,-0.202
-0.09,0.295,0.386,-0.102,-0.238,0.34,-0.112,-0.235,-0.183,-0.216,-0.209,-0.202
-0.09,0.301,0.391,-0.106,-0.241,0.346,-0.072,-0.19,-0.147,-0.213,-0.224,-0.214
-0.106,0.275,0.381,-0.085,-0.244,0.328,-0.042,-0.172,-0.161,-0.218,-0.231,-0.247
-0.122,0.275,0.397,-0.077,-0.26,0.336,0.013,0.128,0.082,-0.06,-0.128,-0.204
0.315,0.499,0.184,-0.407,0.065,0.342,-0.191,0.338,0.635,0.581,0.435,0.248
1.081,0.757,-0.324,-0.919,0.702,0.217,-0.768,-0.039,0.653,0.878,0.858,0.745
0.739,0.709,-0.03,-0.724,0.384,0.339,-1.009,-1.458,-0.736,-0.256,0.054,0.312
0.002,0.398,0.396,-0.2,-0.197,0.396,-0.973,-2.439,-1.951,-1.306,-0.846,-0.401
-0.054,0.263,0.317,-0.105,-0.186,0.29,-0.716,-1.48,-1.348,-1.021,-0.752,-0.455
-0.038,0.351,0.389,-0.157,-0.214,0.369,-0.343,-0.606,-0.575,-0.498,-0.408,-0.288
-0.006,0.351,0.357,-0.173,-0.182,0.354,-0.194,-0.288,-0.289,-0.278,-0.258,-0.22
-0.019,0.346,0.365,-0.164,-0.192,0.355,-0.139,-0.132,-0.147,-0.198,-0.212,-0.196
-0.043,0.374,0.417,-0.166,-0.23,0.395,-0.132,-0.136,-0.133,-0.168,-0.179,-0.189
-0.028,0.375,0.403,-0.173,-0.216,0.388,-0.126,-0.066,-0.088,-0.148,-0.164,-0.183
-0.046,0.369,0.415,-0.161,-0.231,0.392,-0.123,-0.069,-0.084,-0.144,-0.16,-0.178
-0.025,0.375,0.401,-0.176,-0.213,0.388,-0.121,-0.041,-0.055,-0.132,-0.148,-0.17
-0.016,0.392,0.408,-0.189,-0.212,0.399,-0.114,-0.035,-0.046,-0.127,-0.144,-0.164
-0.016,0.386,0.403,-0.185,-0.21,0.394,-0.116,-0.014,-0.029,-0.119,-0.132,-0.157
-0.009,0.385,0.395,-0.188,-0.203,0.39,-0.114,0.017,-0.007,-0.103,-0.121,-0.15
-0.009,0.377,0.387,-0.184,-0.198,0.382,-0.116,0.052,0.024,-0.083,-0.109,-0.14
0.021,0.401,0.38,-0.211,-0.18,0.39,-0.115,0.072,0.058,-0.063,-0.101,-0.129
0.054,0.431,0.377,-0.243,-0.162,0.404,-0.115,0.109,0.079,-0.042,-0.084,-0.114
0.051,0.422,0.371,-0.237,-0.161,0.396,-0.115,0.164,0.108,-0.008,-0.056,-0.093
0.083,0.451,0.368,-0.267,-0.143,0.409,-0.109,0.222,0.152,0.027,-0.033,-0.072
0.111,0.475,0.364,-0.294,-0.126,0.419,-0.104,0.305,0.212,0.059,-0.002,-0.053
0.123,0.479,0.357,-0.301,-0.117,0.418,-0.098,0.405,0.284,0.114,0.039,-0.025
0.164,0.517,0.353,-0.34,-0.095,0.435,-0.093,0.502,0.356,0.168,0.076,0.013
0.203,0.539,0.336,-0.371,-0.067,0.438,-0.086,0.592,0.424,0.222,0.117,0.05
0.227,0.544,0.317,-0.386,-0.045,0.43,-0.09,0.671,0.505,0.293,0.177,0.085
0.262,0.572,0.311,-0.418,-0.025,0.441,-0.102,0.684,0.543,0.337,0.216,0.114
0.264,0.588,0.324,-0.426,-0.03,0.455,-0.103,0.667,0.547,0.344,0.226,0.125
0.234,0.571,0.337,-0.403,-0.052,0.453,-0.11,0.564,0.504,0.329,0.222,0.115
0.199,0.554,0.356,-0.377,-0.079,0.455,-0.113,0.38,0.37,0.257,0.166,0.073
0.161,0.539,0.379,-0.35,-0.109,0.459,-0.11,0.205,0.22,0.141,0.082,0.008
0.112,0.504,0.392,-0.308,-0.14,0.448,-0.11,0.051,0.087,0.031,-0.003,-0.058
0.029,0.456,0.427,-0.243,-0.199,0.441,-0.11,-0.057,-0.022,-0.062,-0.084,-0.12
-0.023,0.403,0.425,-0.19,-0.224,0.413,-0.11,-0.127,-0.086,-0.108,-0.127,-0.149
-0.044,0.378,0.422,-0.167,-0.233,0.4,-0.11,-0.159,-0.122,-0.134,-0.149,-0.163
-0.036,0.402,0.438,-0.183,-0.237,0.42,-0.107,-0.182,-0.146,-0.153,-0.166,-0.179
-0.031,0.403,0.433,-0.187,-0.232,0.418,-0.103,-0.197,-0.161,-0.159,-0.168,-0.185
-0.051,0.384,0.435,-0.167,-0.244,0.41,-0.112,-0.194,-0.165,-0.165,-0.177,-0.188
-0.051,0.384,0.435,-0.167,-0.243,0.409,-0.126,-0.2,-0.164,-0.164,-0.194,-0.191
-0.044,0.391,0.434,-0.174,-0.239,0.412,-0.12,-0.2,-0.167,-0.172,-0.197,-0.195
-0.041,0.394,0.435,-0.177,-0.239,0.415,-0.115,-0.196,-0.178,-0.185,-0.199,-0.195
-0.045,0.389,0.434,-0.172,-0.24,0.411,-0.112,-0.195,-0.181,-0.185,-0.203,-0.195
-0.045,0.391,0.436,-0.173,-0.241,0.413,-0.105,-0.195,-0.18,-0.185,-0.205,-0.195
-0.06,0.387,0.447,-0.164,-0.254,0.417,-0.111,-0.195,-0.185,-0.186,-0.205,-0.195
-0.067,0.384,0.451,-0.159,-0.259,0.417,-0.117,-0.195,-0.185,-0.184,-0.205,-0.195
-0.063,0.386,0.449,-0.161,-0.257,0.417,-0.112,-0.196,-0.186,-0.188,-0.205,-0.196
-0.072,0.378,0.45,-0.153,-0.261,0.414,-0.11,-0.203,-0.184,-0.194,-0.205,-0.2
-0.054,0.396,0.45,-0.171,-0.252,0.423,-0.106,-0.209,-0.19,-0.201,-0.205,-0.2
-0.042,0.407,0.449,-0.182,-0.246,0.428,-0.104,-0.214,-0.202,-0.205,-0.205,-0.2
-0.049,0.396,0.446,-0.174,-0.248,0.421,-0.114,-0.217,-0.199,-0.205,-0.205,-0.199
-0.047,0.396,0.443,-0.175,-0.245,0.419,-0.116,-0.22,-0.193,-0.209,-0.204,-0.207
-0.052,0.389,0.44,-0.168,-0.246,0.414,-0.115,-0.224,-0.202,-0.21,-0.209,-0.216
-0.051,0.386,0.437,-0.168,-0.244,0.411,-0.113,-0.225,-0.204,-0.212,-0.215,-0.214
-0.054,0.381,0.435,-0.164,-0.245,0.408,-0.109,-0.225,-0.207,-0.215,-0.215,-0.215
-0.058,0.374,0.432,-0.158,-0.245,0.403,-0.11,-0.225,-0.216,-0.215,-0.215,-0.215
-0.059,0.371,0.429,-0.156,-0.244,0.4,-0.113,-0.225,-0.214,-0.215,-0.215,-0.215
-0.067,0.362,0.43,-0.147,-0.249,0.396,-0.122,-0.225,-0.215,-0.215,-0.215,-0.211
-0.069,0.361,0.43,-0.146,-0.249,0.395,-0.124,-0.227,-0.219,-0.214,-0.213,-0.209
-0.081,0.349,0.43,-0.134,-0.256,0.389,-0.12,-0.225,-0.221,-0.21,-0.209,-0.21
-0.068,0.361,0.429,-0.147,-0.248,0.395,-0.12,-0.225,-0.219,-0.206,-0.21,-0.209
-0.05,0.389,0.438,-0.17,-0.244,0.413,-0.12,-0.223,-0.22,-0.204,-0.21,-0.21
-0.052,0.397,0.449,-0.173,-0.251,0.423,-0.12,-0.219,-0.219,-0.199,-0.21,-0.208
-0.046,0.394,0.44,-0.174,-0.243,0.417,-0.12,-0.221,-0.221,-0.196,-0.21,-0.201
-0.023,0.41,0.434,-0.194,-0.228,0.421,-0.117,-0.212,-0.214,-0.192,-0.201,-0.193
0.009,0.437,0.427,-0.223,-0.209,0.432,-0.113,-0.193,-0.185,-0.179,-0.187,-0.185
0.011,0.427,0.416,-0.219,-0.202,0.421,-0.115,-0.18,-0.167,-0.167,-0.178,-0.177
0.026,0.457,0.431,-0.241,-0.203,0.443,-0.105,-0.176,-0.166,-0.169,-0.179,-0.175
0.037,0.475,0.438,-0.256,-0.201,0.456,-0.122,-0.167,-0.159,-0.17,-0.18,-0.175
0.03,0.449,0.42,-0.24,-0.195,0.434,-0.156,-0.168,-0.167,-0.17,-0.179,-0.174
0.017,0.435,0.418,-0.226,-0.201,0.427,-0.152,-0.195,-0.197,-0.177,-0.181,-0.176
-0.012,0.41,0.422,-0.199,-0.217,0.416,-0.146,-0.193,-0.204,-0.172,-0.178,-0.172
-0.04,0.387,0.427,-0.174,-0.234,0.407,-0.143,-0.207,-0.219,-0.189,-0.191,-0.19
-0.058,0.371,0.429,-0.157,-0.243,0.4,-0.137,-0.238,-0.253,-0.215,-0.215,-0.21
-0.066,0.366,0.432,-0.15,-0.249,0.398,-0.135,-0.242,-0.267,-0.217,-0.221,-0.211
-0.064,0.363,0.427,-0.149,-0.246,0.395,-0.142,-0.254,-0.276,-0.227,-0.227,-0.207
-0.076,0.356,0.432,-0.14,-0.254,0.394,-0.129,-0.239,-0.268,-0.226,-0.228,-0.218
-0.073,0.354,0.428,-0.14,-0.251,0.39,-0.13,-0.252,-0.268,-0.221,-0.223,-0.228
-0.087,0.347,0.434,-0.13,-0.261,0.39,-0.12,-0.229,-0.256,-0.221,-0.227,-0.233
-0.092,0.345,0.436,-0.127,-0.265,0.391,-0.116,-0.246,-0.258,-0.215,-0.219,-0.227
-0.087,0.343,0.429,-0.128,-0.258,0.386,-0.115,-0.224,-0.247,-0.217,-0.221,-0.232
-0.127,0.3,0.427,-0.087,-0.277,0.363,-0.077,-0.186,-0.237,-0.204,-0.223,-0.233
-0.122,0.27,0.392,-0.074,-0.258,0.331,-0.051,-0.088,-0.196,-0.19,-0.23,-0.24
-0.016,0.358,0.374,-0.171,-0.195,0.366,-0.041,0.221,0.189,0.128,0.023,-0.083
0.709,0.621,-0.088,-0.665,0.398,0.266,-0.466,0.304,0.677,0.801,0.697,0.521
1.081,0.795,-0.286,-0.938,0.683,0.254,-0.92,-0.474,0.104,0.477,0.59,0.652
0.287,0.575,0.288,-0.431,-0.001,0.432,-0.937,-2.032,-1.499,-0.858,-0.451,-0.08
-0.133,0.319,0.452,-0.094,-0.292,0.386,-0.847,-2.109,-1.873,-1.261,-0.865,-0.485
-0.078,0.291,0.369,-0.107,-0.224,0.33,-0.541,-0.969,-1.023,-0.767,-0.595,-0.38
-0.052,0.328,0.38,-0.139,-0.216,0.354,-0.281,-0.453,-0.528,-0.411,-0.351,-0.263
0.014,0.365,0.351,-0.19,-0.169,0.358,-0.205,-0.187,-0.301,-0.249,-0.236,-0.206
-0.002,0.365,0.367,-0.181,-0.185,0.366,-0.157,-0.124,-0.219,-0.192,-0.197,-0.18
0.005,0.355,0.35,-0.18,-0.173,0.352,-0.141,-0.092,-0.184,-0.16,-0.17,-0.166
-0.004,0.35,0.354,-0.173,-0.18,0.352,-0.118,-0.05,-0.15,-0.144,-0.161,-0.163
-0.006,0.341,0.347,-0.167,-0.177,0.344,-0.122,-0.036,-0.131,-0.132,-0.149,-0.156
0.0,0.34,0.339,-0.17,-0.17,0.339,-0.119,0.008,-0.106,-0.118,-0.14,-0.15
0.001,0.333,0.332,-0.167,-0.166,0.332,-0.115,0.022,-0.1,-0.105,-0.132,-0.14
0.044,0.364,0.32,-0.204,-0.138,0.342,-0.116,0.05,-0.083,-0.086,-0.123,-0.13
0.042,0.357,0.315,-0.2,-0.136,0.336,-0.113,0.07,-0.08,-0.077,-0.113,-0.12
0.018,0.32,0.303,-0.169,-0.143,0.311,-0.11,0.108,-0.044,-0.055,-0.092,-0.104
0.041,0.343,0.302,-0.192,-0.131,0.323,-0.105,0.15,-0.017,-0.039,-0.072,-0.092
0.045,0.337,0.292,-0.191,-0.124,0.314,-0.103,0.198,0.005,-0.015,-0.046,-0.078
0.063,0.353,0.29,-0.209,-0.114,0.321,-0.098,0.242,0.045,0.018,-0.029,-0.067
0.108,0.39,0.282,-0.249,-0.087,0.335,-0.094,0.313,0.091,0.05,-0.006,-0.053
0.131,0.381,0.25,-0.257,-0.06,0.316,-0.1,0.403,0.157,0.099,0.03,-0.022
0.181,0.418,0.236,-0.3,-0.028,0.327,-0.108,0.493,0.221,0.145,0.07,0.025
0.25,0.448,0.198,-0.349,0.025,0.323,-0.104,0.593,0.302,0.209,0.128,0.063
0.25,0.446,0.196,-0.348,0.027,0.32,-0.1,0.677,0.374,0.262,0.17,0.085
0.256,0.451,0.195,-0.353,0.03,0.323,-0.098,0.725,0.434,0.319,0.225,0.137
0.276,0.454,0.178,-0.365,0.048,0.316,-0.093,0.718,0.469,0.365,0.268,0.165
0.258,0.452,0.193,-0.355,0.032,0.322,-0.09,0.675,0.454,0.355,0.263,0.152
0.245,0.437,0.192,-0.341,0.026,0.314,-0.086,0.561,0.385,0.319,0.233,0.127
0.181,0.418,0.236,-0.3,-0.028,0.327,-0.08,0.374,0.237,0.225,0.156,0.08
0.12,0.37,0.25,-0.245,-0.065,0.31,-0.075,0.213,0.097,0.109,0.073,0.027
0.056,0.312,0.256,-0.184,-0.1,0.283,-0.069,0.097,-0.013,0.02,0.001,-0.03
-0.006,0.281,0.287,-0.138,-0.146,0.284,-0.064,0.01,-0.11,-0.056,-0.066,-0.083
-0.009,0.273,0.282,-0.132,-0.146,0.277,-0.058,-0.045,-0.162,-0.106,-0.106,-0.118
-0.031,0.27,0.301,-0.12,-0.166,0.285,-0.068,-0.068,-0.206,-0.138,-0.14,-0.147
-0.053,0.251,0.304,-0.099,-0.179,0.277,-0.076,-0.08,-0.228,-0.156,-0.158,-0.162
-0.066,0.253,0.319,-0.094,-0.193,0.286,-0.07,-0.087,-0.23,-0.157,-0.154,-0.159
-0.062,0.264,0.326,-0.102,-0.194,0.295,-0.068,-0.098,-0.235,-0.16,-0.156,-0.16
-0.045,0.254,0.299,-0.105,-0.172,0.276,-0.064,-0.097,-0.232,-0.157,-0.157,-0.16
-0.051,0.247,0.298,-0.099,-0.174,0.272,-0.059,-0.09,-0.229,-0.154,-0.155,-0.16
-0.054,0.239,0.293,-0.093,-0.174,0.266,-0.057,-0.087,-0.226,-0.156,-0.155,-0.157
-0.065,0.231,0.296,-0.083,-0.181,0.263,-0.053,-0.082,-0.223,-0.154,-0.152,-0.152
-0.068,0.224,0.292,-0.078,-0.18,0.258,-0.052,-0.077,-0.22,-0.155,-0.15,-0.149
-0.051,0.218,0.269,-0.084,-0.16,0.243,-0.048,-0.076,-0.221,-0.156,-0.15,-0.146
-0.063,0.211,0.274,-0.075,-0.169,0.242,-0.046,-0.081,-0.226,-0.161,-0.146,-0.141
-0.064,0.207,0.271,-0.072,-0.168,0.239,-0.044,-0.08,-0.225,-0.164,-0.145,-0.141
-0.059,0.198,0.257,-0.07,-0.158,0.228,-0.037,-0.08,-0.228,-0.162,-0.145,-0.145
-0.062,0.199,0.262,-0.069,-0.162,0.23,-0.047,-0.081,-0.231,-0.159,-0.145,-0.148
-0.063,0.194,0.257,-0.066,-0.16,0.225,-0.05,-0.08,-0.23,-0.156,-0.145,-0.15
-0.075,0.165,0.24,-0.045,-0.157,0.202,-0.044,-0.077,-0.227,-0.154,-0.147,-0.154
-0.076,0.157,0.233,-0.041,-0.155,0.195,-0.042,-0.074,-0.222,-0.15,-0.15,-0.155
-0.075,0.152,0.226,-0.039,-0.151,0.189,-0.037,-0.071,-0.219,-0.151,-0.153,-0.152
-0.051,0.143,0.194,-0.047,-0.123,0.168,-0.034,-0.068,-0.216,-0.155,-0.155,-0.149
-0.021,0.133,0.155,-0.056,-0.088,0.144,-0.031,-0.065,-0.21,-0.154,-0.158,-0.146
-0.057,0.121,0.178,-0.032,-0.118,0.149,-0.028,-0.063,-0.213,-0.158,-0.161,-0.143
-0.103,0.11,0.213,-0.004,-0.158,0.161,-0.026,-0.06,-0.221,-0.16,-0.156,-0.14
-0.087,0.1,0.187,-0.007,-0.137,0.143,-0.022,-0.06,-0.214,-0.16,-0.155,-0.139
-0.081,0.095,0.176,-0.007,-0.129,0.135,-0.02,-0.06,-0.207,-0.155,-0.152,-0.133
-0.099,0.086,0.185,0.006,-0.142,0.135,-0.017,-0.06,-0.201,-0.145,-0.15,-0.125
-0.082,0.083,0.165,-0.001,-0.123,0.123,-0.011,-0.061,-0.194,-0.135,-0.149,-0.119
-0.08,0.07,0.15,0.005,-0.115,0.11,-0.006,-0.054,-0.189,-0.125,-0.137,-0.113
-0.072,0.082,0.155,-0.005,-0.114,0.118,-0.001,-0.041,-0.173,-0.113,-0.119,-0.103
-0.017,0.118,0.135,-0.05,-0.077,0.126,0.006,-0.029,-0.153,-0.1,-0.097,-0.087
-0.004,0.113,0.117,-0.054,-0.061,0.114,0.01,-0.024,-0.139,-0.094,-0.089,-0.078
-0.003,0.11,0.113,-0.054,-0.058,0.111,0.003,-0.025,-0.135,-0.095,-0.088,-0.08
0.014,0.104,0.09,-0.059,-0.038,0.097,-0.004,-0.024,-0.128,-0.094,-0.084,-0.08
-0.003,0.064,0.067,-0.03,-0.035,0.065,-0.011,-0.026,-0.141,-0.095,-0.082,-0.08
-0.026,0.039,0.065,-0.007,-0.046,0.051,-0.014,-0.025,-0.167,-0.094,-0.078,-0.08
-0.053,0.024,0.077,0.014,-0.065,0.05,-0.005,-0.029,-0.166,-0.096,-0.091,-0.08
-0.053,0.013,0.066,0.02,-0.06,0.039,-0.003,-0.04,-0.176,-0.118,-0.106,-0.09
-0.06,-0.009,0.05,0.034,-0.055,0.02,0.005,-0.031,-0.183,-0.127,-0.114,-0.097
-0.099,-0.055,0.045,0.076,-0.072,-0.005,0.009,-0.041,-0.188,-0.124,-0.115,-0.093
-0.113,-0.071,0.042,0.092,-0.077,-0.015,0.015,-0.028,-0.181,-0.129,-0.114,-0.096
-0.111,-0.069,0.042,0.09,-0.076,-0.013,0.023,-0.042,-0.188,-0.131,-0.116,-0.094
-0.11,-0.078,0.032,0.093,-0.07,-0.023,0.03,-0.029,-0.183,-0.128,-0.113,-0.095
-0.114,-0.073,0.041,0.093,-0.077,-0.016,0.047,-0.04,-0.185,-0.127,-0.119,-0.097
-0.099,-0.077,0.022,0.087,-0.06,-0.027,0.042,-0.033,-0.183,-0.122,-0.118,-0.092
-0.11,-0.08,0.03,0.095,-0.069,-0.025,0.066,0.025,-0.149,-0.121,-0.121,-0.104
-0.117,-0.12,-0.003,0.119,-0.057,-0.061,0.098,0.062,-0.131,-0.11,-0.128,-0.115
-0.074,-0.117,-0.042,0.096,-0.016,-0.079,0.14,0.362,0.197,0.136,0.046,-0.027
0.463,0.141,-0.322,-0.302,0.393,-0.09,-0.157,0.576,0.811,0.888,0.748,0.551
1.022,0.36,-0.662,-0.691,0.842,-0.151,-0.643,0.141,0.676,1.019,1.038,0.976
0.46,0.255,-0.206,-0.357,0.333,0.024,-0.728,-1.328,-0.916,-0.324,0.027,0.341
-0.137,-0.037,0.1,0.087,-0.118,0.031,-0.66,-1.916,-1.814,-1.149,-0.713,-0.288
-0.107,-0.202,-0.095,0.155,-0.006,-0.148,-0.412,-0.899,-1.067,-0.748,-0.523,-0.261
-0.058,-0.17,-0.112,0.115,0.027,-0.141,-0.12,-0.293,-0.478,-0.349,-0.257,-0.127
-0.032,-0.164,-0.132,0.098,0.051,-0.148,-0.019,-0.011,-0.198,-0.135,-0.106,-0.059
-0.059,-0.162,-0.102,0.111,0.021,-0.132,0.048,0.097,-0.085,-0.067,-0.062,-0.041
-0.043,-0.156,-0.113,0.1,0.035,-0.135,0.067,0.104,-0.067,-0.038,-0.037,-0.026
-0.018,-0.154,-0.137,0.086,0.06,-0.145,0.077,0.16,-0.005,-0.008,-0.026,-0.018
-0.024,-0.149,-0.125,0.087,0.05,-0.137,0.083,0.157,0.006,0.01,-0.009,-0.003
-0.007,-0.15,-0.143,0.079,0.068,-0.146,0.093,0.215,0.051,0.04,0.009,0.017
-0.015,-0.151,-0.136,0.083,0.061,-0.143,0.097,0.208,0.052,0.041,0.009,0.027
-0.025,-0.174,-0.149,0.1,0.062,-0.161,0.093,0.238,0.072,0.058,0.023,0.038
-0.013,-0.175,-0.162,0.094,0.075,-0.168,0.097,0.264,0.105,0.075,0.044,0.047
0.004,-0.17,-0.174,0.083,0.089,-0.172,0.094,0.286,0.132,0.098,0.075,0.066
0.024,-0.169,-0.193,0.072,0.109,-0.181,0.096,0.327,0.164,0.117,0.084,0.074
0.044,-0.165,-0.209,0.061,0.127,-0.187,0.094,0.365,0.19,0.139,0.101,0.092
0.047,-0.163,-0.21,0.059,0.129,-0.187,0.1,0.415,0.232,0.169,0.13,0.109
0.07,-0.156,-0.226,0.043,0.149,-0.191,0.112,0.478,0.287,0.208,0.16,0.127
0.099,-0.146,-0.245,0.024,0.172,-0.195,0.109,0.553,0.348,0.254,0.198,0.16
0.114,-0.14,-0.254,0.013,0.184,-0.197,0.113,0.636,0.421,0.304,0.24,0.191
0.144,-0.138,-0.281,-0.003,0.213,-0.209,0.131,0.733,0.5,0.372,0.297,0.231
0.184,-0.11,-0.294,-0.037,0.239,-0.202,0.137,0.81,0.574,0.429,0.343,0.268
0.22,-0.09,-0.311,-0.065,0.266,-0.2,0.134,0.862,0.634,0.483,0.389,0.303
0.228,-0.07,-0.298,-0.079,0.263,-0.184,0.132,0.867,0.662,0.52,0.424,0.328
0.236,-0.058,-0.294,-0.088,0.265,-0.176,0.129,0.828,0.656,0.514,0.426,0.335
0.201,-0.1,-0.3,-0.05,0.251,-0.2,0.131,0.734,0.597,0.483,0.402,0.32
0.147,-0.123,-0.27,-0.012,0.209,-0.196,0.123,0.562,0.469,0.403,0.331,0.267
0.098,-0.151,-0.249,0.027,0.174,-0.2,0.122,0.403,0.323,0.289,0.244,0.194
0.022,-0.22,-0.242,0.099,0.132,-0.231,0.141,0.29,0.209,0.193,0.175,0.142
-0.017,-0.261,-0.244,0.139,0.114,-0.252,0.147,0.2,0.124,0.124,0.112,0.1
-0.034,-0.264,-0.231,0.149,0.099,-0.247,0.144,0.146,0.059,0.071,0.07,0.063
-0.043,-0.287,-0.244,0.165,0.101,-0.266,0.146,0.124,0.031,0.04,0.047,0.049
-0.07,-0.322,-0.252,0.195,0.092,-0.286,0.144,0.122,0.029,0.027,0.031,0.041
-0.078,-0.326,-0.248,0.202,0.086,-0.287,0.146,0.118,0.03,0.024,0.028,0.04
-0.08,-0.324,-0.244,0.202,0.082,-0.284,0.149,0.114,0.03,0.021,0.024,0.04
-0.087,-0.337,-0.25,0.212,0.081,-0.293,0.15,0.11,0.03,0.018,0.021,0.035
-0.056,-0.345,-0.289,0.201,0.117,-0.317,0.15,0.112,0.03,0.016,0.016,0.035
-0.065,-0.344,-0.279,0.205,0.107,-0.311,0.149,0.116,0.03,0.013,0.016,0.034
-0.083,-0.35,-0.266,0.217,0.092,-0.308,0.159,0.114,0.03,0.01,0.022,0.03
-0.073,-0.347,-0.274,0.21,0.1,-0.31,0.163,0.115,0.03,0.01,0.028,0.03
-0.081,-0.368,-0.287,0.225,0.103,-0.327,0.165,0.114,0.03,0.01,0.034,0.038
-0.086,-0.394,-0.308,0.24,0.111,-0.35,0.173,0.11,0.03,0.01,0.032,0.041
-0.084,-0.388,-0.304,0.236,0.11,-0.345,0.167,0.109,0.031,0.01,0.029,0.039
-0.082,-0.391,-0.309,0.237,0.114,-0.35,0.166,0.11,0.039,0.006,0.026,0.04
-0.077,-0.388,-0.311,0.233,0.117,-0.35,0.162,0.109,0.043,0.004,0.023,0.04
-0.092,-0.392,-0.3,0.242,0.104,-0.346,0.159,0.11,0.04,0.005,0.02,0.04
-0.087,-0.383,-0.297,0.235,0.105,-0.34,0.163,0.107,0.04,0.005,0.02,0.044
-0.066,-0.379,-0.313,0.222,0.124,-0.346,0.165,0.104,0.04,0.005,0.03,0.045
-0.062,-0.41,-0.348,0.236,0.144,-0.379,0.166,0.105,0.04,0.006,0.035,0.047
-0.066,-0.423,-0.357,0.245,0.146,-0.39,0.164,0.105,0.04,0.012,0.034,0.051
-0.069,-0.422,-0.354,0.246,0.143,-0.388,0.162,0.105,0.043,0.019,0.037,0.048
-0.07,-0.42,-0.35,0.245,0.14,-0.385,0.157,0.105,0.048,0.016,0.04,0.045
-0.07,-0.42,-0.35,0.245,0.14,-0.385,0.168,0.109,0.049,0.015,0.04,0.045
-0.068,-0.419,-0.351,0.244,0.141,-0.385,0.18,0.11,0.043,0.014,0.037,0.045
-0.086,-0.443,-0.356,0.265,0.135,-0.399,0.179,0.109,0.04,0.016,0.034,0.045
-0.083,-0.449,-0.366,0.266,0.142,-0.408,0.194,0.111,0.035,0.014,0.036,0.044
-0.078,-0.435,-0.357,0.257,0.14,-0.396,0.195,0.108,0.041,0.018,0.035,0.052
-0.064,-0.454,-0.39,0.259,0.163,-0.422,0.19,0.121,0.081,0.044,0.047,0.07
-0.072,-0.425,-0.354,0.249,0.142,-0.39,0.189,0.138,0.104,0.058,0.063,0.077
-0.079,-0.399,-0.32,0.239,0.121,-0.359,0.184,0.132,0.096,0.057,0.064,0.079
-0.037,-0.401,-0.364,0.219,0.164,-0.382,0.188,0.147,0.112,0.07,0.085,0.1
-0.031,-0.393,-0.362,0.212,0.166,-0.377,0.186,0.169,0.147,0.097,0.102,0.113
0.003,-0.391,-0.394,0.194,0.199,-0.393,0.168,0.156,0.141,0.094,0.094,0.105
0.025,-0.383,-0.408,0.179,0.217,-0.395,0.163,0.146,0.128,0.081,0.09,0.102
0.007,-0.405,-0.412,0.199,0.21,-0.409,0.168,0.134,0.118,0.073,0.084,0.097
-0.011,-0.437,-0.426,0.224,0.208,-0.431,0.176,0.127,0.115,0.058,0.078,0.092
-0.055,-0.467,-0.412,0.261,0.179,-0.439,0.194,0.112,0.101,0.041,0.074,0.089
-0.079,-0.493,-0.414,0.286,0.168,-0.453,0.201,0.109,0.067,0.028,0.067,0.081
-0.082,-0.496,-0.414,0.29,0.166,-0.455,0.194,0.102,0.046,0.022,0.061,0.074
-0.068,-0.493,-0.425,0.28,0.179,-0.458,0.191,0.106,0.055,0.018,0.054,0.067
-0.071,-0.499,-0.428,0.286,0.179,-0.463,0.19,0.101,0.06,0.013,0.047,0.059
-0.078,-0.504,-0.426,0.291,0.174,-0.464,0.179,0.095,0.057,0.009,0.042,0.053
-0.091,-0.496,-0.406,0.294,0.158,-0.451,0.202,0.112,0.074,0.006,0.033,0.053
-0.069,-0.487,-0.418,0.278,0.175,-0.452,0.194,0.087,0.048,0.008,0.029,0.06
-0.083,-0.478,-0.395,0.281,0.156,-0.436,0.207,0.128,0.068,0.017,0.02,0.052
-0.114,-0.55,-0.437,0.332,0.162,-0.493,0.258,0.146,0.066,0.01,0.014,0.037
-0.122,-0.573,-0.451,0.348,0.164,-0.512,0.33,0.406,0.281,0.134,0.09,0.048
0.207,-0.357,-0.563,0.075,0.385,-0.46,0.171,0.652,0.855,0.764,0.633,0.456
0.965,-0.096,-1.061,-0.434,1.014,-0.578,-0.381,0.436,1.078,1.269,1.215,1.062
0.789,-0.096,-0.885,-0.346,0.837,-0.49,-0.667,-0.794,-0.146,0.282,0.555,0.755
0.062,-0.41,-0.472,0.175,0.267,-0.441,-0.637,-1.978,-1.584,-0.972,-0.486,-0.024
-0.073,-0.623,-0.55,0.348,0.239,-0.586,-0.412,-1.228,-1.178,-0.828,-0.515,-0.168
-0.059,-0.542,-0.482,0.301,0.211,-0.512,-0.059,-0.31,-0.37,-0.304,-0.174,-0.021
-0.035,-0.494,-0.459,0.265,0.212,-0.476,0.1,0.005,-0.064,-0.062,-0.008,0.044
-0.035,-0.493,-0.458,0.264,0.211,-0.475,0.179,0.194,0.12,0.043,0.06,0.087
-0.043,-0.496,-0.453,0.27,0.205,-0.474,0.211,0.188,0.145,0.068,0.073,0.109
-0.04,-0.521,-0.481,0.281,0.22,-0.501,0.234,0.269,0.217,0.111,0.103,0.118
-0.011,-0.496,-0.485,0.254,0.238,-0.49,0.249,0.264,0.226,0.121,0.128,0.126
-0.001,-0.51,-0.508,0.255,0.254,-0.509,0.242,0.3,0.251,0.14,0.134,0.138
-0.011,-0.505,-0.494,0.258,0.242,-0.5,0.247,0.314,0.26,0.149,0.141,0.132
0.004,-0.499,-0.502,0.247,0.253,-0.5,0.244,0.331,0.268,0.16,0.156,0.144
-0.035,-0.534,-0.499,0.284,0.233,-0.516,0.245,0.366,0.302,0.18,0.157,0.149
-0.031,-0.529,-0.497,0.28,0.233,-0.513,0.24,0.37,0.312,0.185,0.162,0.146
0.002,-0.523,-0.525,0.261,0.264,-0.523,0.24,0.42,0.356,0.208,0.185,0.184
0.057,-0.49,-0.547,0.217,0.303,-0.519,0.239,0.45,0.382,0.236,0.199,0.194
0.082,-0.466,-0.547,0.192,0.315,-0.507,0.235,0.495,0.415,0.262,0.224,0.201
0.08,-0.471,-0.551,0.196,0.316,-0.511,0.234,0.57,0.472,0.291,0.247,0.22
0.105,-0.45,-0.555,0.173,0.33,-0.503,0.241,0.637,0.516,0.329,0.275,0.237
0.108,-0.449,-0.557,0.171,0.333,-0.503,0.257,0.734,0.584,0.387,0.324,0.282
0.144,-0.43,-0.574,0.143,0.359,-0.502,0.258,0.831,0.67,0.441,0.37,0.318
0.187,-0.384,-0.572,0.099,0.38,-0.478,0.253,0.911,0.746,0.501,0.421,0.355
0.216,-0.364,-0.581,0.075,0.398,-0.472,0.25,0.978,0.819,0.562,0.468,0.392
0.244,-0.343,-0.588,0.05,0.416,-0.465,0.247,1.002,0.86,0.609,0.511,0.422
0.245,-0.333,-0.577,0.044,0.411,-0.455,0.242,0.98,0.854,0.623,0.526,0.43
0.247,-0.33,-0.577,0.042,0.412,-0.453,0.24,0.887,0.817,0.601,0.511,0.418
0.223,-0.343,-0.566,0.061,0.394,-0.454,0.245,0.716,0.714,0.534,0.468,0.398
0.151,-0.397,-0.548,0.123,0.35,-0.472,0.245,0.535,0.554,0.423,0.376,0.333
0.065,-0.455,-0.52,0.195,0.292,-0.487,0.249,0.397,0.402,0.31,0.283,0.262
0.008,-0.495,-0.503,0.244,0.256,-0.498,0.25,0.299,0.297,0.221,0.213,0.21
-0.017,-0.509,-0.492,0.263,0.238,-0.5,0.252,0.23,0.245,0.169,0.164,0.162
-0.038,-0.542,-0.504,0.29,0.233,-0.523,0.255,0.191,0.209,0.132,0.135,0.139
-0.047,-0.567,-0.52,0.307,0.237,-0.543,0.254,0.167,0.183,0.116,0.122,0.14
-0.036,-0.538,-0.502,0.288,0.233,-0.519,0.258,0.155,0.179,0.114,0.122,0.14
-0.049,-0.556,-0.507,0.302,0.229,-0.531,0.261,0.15,0.18,0.106,0.117,0.14
-0.072,-0.584,-0.512,0.328,0.22,-0.548,0.259,0.141,0.18,0.102,0.113,0.14
-0.069,-0.582,-0.512,0.326,0.222,-0.547,0.256,0.137,0.18,0.096,0.11,0.139
-0.071,-0.583,-0.513,0.327,0.221,-0.548,0.253,0.127,0.172,0.091,0.106,0.134
-0.071,-0.576,-0.504,0.324,0.217,-0.54,0.25,0.129,0.164,0.086,0.1,0.128
-0.067,-0.577,-0.51,0.323,0.222,-0.544,0.247,0.145,0.155,0.081,0.095,0.124
-0.077,-0.567,-0.49,0.322,0.207,-0.528,0.245,0.145,0.149,0.078,0.09,0.118
-0.086,-0.583,-0.497,0.335,0.205,-0.54,0.247,0.144,0.15,0.071,0.082,0.111
-0.079,-0.612,-0.534,0.346,0.228,-0.573,0.255,0.145,0.15,0.071,0.082,0.112
-0.08,-0.597,-0.517,0.339,0.219,-0.557,0.259,0.145,0.15,0.075,0.083,0.115
-0.082,-0.589,-0.507,0.336,0.212,-0.548,0.255,0.142,0.15,0.074,0.08,0.115
-0.091,-0.591,-0.499,0.341,0.204,-0.545,0.255,0.135,0.149,0.077,0.08,0.118
-0.099,-0.589,-0.49,0.344,0.196,-0.539,0.254,0.129,0.145,0.08,0.08,0.12
-0.076,-0.59,-0.514,0.333,0.219,-0.552,0.25,0.123,0.145,0.08,0.08,0.119
-0.065,-0.59,-0.525,0.327,0.23,-0.557,0.25,0.115,0.144,0.077,0.08,0.115
-0.066,-0.583,-0.518,0.325,0.227,-0.55,0.25,0.11,0.139,0.072,0.084,0.109
-0.082,-0.596,-0.514,0.339,0.216,-0.554,0.25,0.12,0.141,0.069,0.085,0.106
-0.098,-0.606,-0.508,0.353,0.205,-0.557,0.25,0.122,0.137,0.066,0.085,0.101
-0.104,-0.605,-0.501,0.354,0.199,-0.553,0.25,0.118,0.134,0.06,0.09,0.096
-0.099,-0.602,-0.503,0.351,0.202,-0.552,0.25,0.115,0.129,0.062,0.09,0.096
-0.081,-0.599,-0.519,0.34,0.219,-0.559,0.25,0.113,0.127,0.07,0.091,0.105
-0.09,-0.6,-0.51,0.345,0.21,-0.555,0.249,0.109,0.122,0.07,0.095,0.109
-0.097,-0.595,-0.498,0.346,0.201,-0.547,0.253,0.112,0.12,0.07,0.095,0.112
-0.071,-0.616,-0.546,0.344,0.238,-0.581,0.26,0.117,0.125,0.07,0.095,0.115
-0.059,-0.617,-0.557,0.338,0.249,-0.587,0.259,0.121,0.123,0.07,0.096,0.117
-0.062,-0.601,-0.539,0.332,0.239,-0.57,0.261,0.126,0.132,0.072,0.094,0.121
-0.036,-0.571,-0.535,0.304,0.25,-0.553,0.265,0.127,0.146,0.092,0.102,0.117
-0.016,-0.523,-0.507,0.27,0.246,-0.515,0.266,0.141,0.165,0.105,0.115,0.131
-0.016,-0.504,-0.488,0.26,0.236,-0.496,0.262,0.15,0.18,0.103,0.115,0.147
-0.002,-0.482,-0.48,0.242,0.24,-0.481,0.254,0.164,0.195,0.126,0.132,0.149
0.013,-0.501,-0.514,0.244,0.264,-0.508,0.247,0.17,0.203,0.133,0.147,0.159
0.013,-0.528,-0.541,0.257,0.277,-0.534,0.241,0.156,0.194,0.12,0.138,0.153
0.018,-0.531,-0.548,0.257,0.283,-0.539,0.235,0.144,0.177,0.113,0.129,0.142
0.016,-0.56,-0.576,0.272,0.296,-0.568,0.234,0.136,0.148,0.104,0.122,0.133
-0.032,-0.572,-0.541,0.302,0.255,-0.556,0.236,0.128,0.121,0.086,0.097,0.122
-0.061,-0.57,-0.508,0.316,0.224,-0.539,0.233,0.101,0.106,0.053,0.068,0.116
-0.073,-0.583,-0.51,0.329,0.218,-0.546,0.237,0.083,0.104,0.044,0.064,0.108
-0.095,-0.586,-0.491,0.341,0.199,-0.539,0.23,0.075,0.096,0.046,0.062,0.102
-0.095,-0.578,-0.483,0.336,0.194,-0.53,0.232,0.086,0.101,0.043,0.059,0.093
-0.078,-0.57,-0.493,0.324,0.208,-0.531,0.228,0.063,0.084,0.039,0.056,0.089
-0.081,-0.559,-0.479,0.32,0.199,-0.519,0.231,0.088,0.099,0.041,0.055,0.083
-0.09,-0.611,-0.521,0.351,0.216,-0.566,0.251,0.077,0.1,0.05,0.067,0.087
-0.109,-0.643,-0.534,0.376,0.213,-0.588,0.245,0.102,0.115,0.055,0.062,0.083
-0.153,-0.627,-0.474,0.39,0.161,-0.55,0.269,0.114,0.115,0.041,0.044,0.087
-0.147,-0.645,-0.498,0.396,0.176,-0.571,0.341,0.253,0.191,0.075,0.055,0.08
-0.015,-0.53,-0.514,0.272,0.25,-0.522,0.331,0.589,0.635,0.466,0.361,0.24
0.682,-0.263,-0.945,-0.209,0.813,-0.603,-0.125,0.558,1.076,1.163,1.06,0.861
1.061,-0.117,-1.178,-0.472,1.119,-0.647,-0.604,-0.252,0.489,0.836,0.964,1.017
0.338,-0.342,-0.681,0.002,0.51,-0.511,-0.674,-1.784,-1.186,-0.597,-0.15,0.259
-0.086,-0.649,-0.563,0.368,0.239,-0.606,-0.534,-1.797,-1.542,-1.029,-0.599,-0.179
-0.051,-0.653,-0.602,0.353,0.276,-0.627,-0.172,-0.608,-0.593,-0.463,-0.273,-0.055
-0.048,-0.575,-0.527,0.312,0.24,-0.551,0.087,-0.113,-0.126,-0.109,-0.033,0.06
-0.026,-0.559,-0.534,0.293,0.254,-0.546,0.184,0.152,0.102,0.044,0.063,0.112
-0.056,-0.564,-0.508,0.311,0.226,-0.536,0.243,0.192,0.168,0.095,0.098,0.125
-0.028,-0.569,-0.54,0.299,0.256,-0.554,0.236,0.234,0.207,0.124,0.128,0.135
-0.016,-0.555,-0.54,0.286,0.262,-0.547,0.242,0.267,0.244,0.135,0.136,0.141
-0.026,-0.561,-0.534,0.294,0.255,-0.547,0.239,0.272,0.245,0.144,0.144,0.138
-0.058,-0.57,-0.513,0.314,0.227,-0.541,0.248,0.317,0.275,0.161,0.155,0.151
-0.033,-0.566,-0.534,0.3,0.251,-0.55,0.254,0.318,0.278,0.174,0.165,0.161
-0.012,-0.559,-0.547,0.286,0.268,-0.553,0.255,0.357,0.301,0.188,0.175,0.164
-0.002,-0.533,-0.531,0.268,0.265,-0.532,0.261,0.372,0.312,0.195,0.178,0.175
0.025,-0.515,-0.54,0.245,0.282,-0.527,0.258,0.401,0.345,0.218,0.201,0.181
0.028,-0.518,-0.547,0.245,0.287,-0.532,0.255,0.434,0.374,0.24,0.214,0.186
0.087,-0.5,-0.586,0.207,0.337,-0.543,0.252,0.488,0.406,0.266,0.233,0.206
0.085,-0.49,-0.575,0.203,0.33,-0.532,0.249,0.539,0.451,0.293,0.256,0.223
0.081,-0.478,-0.56,0.199,0.321,-0.519,0.258,0.615,0.51,0.335,0.283,0.252
0.118,-0.463,-0.582,0.173,0.351,-0.522,0.267,0.704,0.573,0.377,0.322,0.276
0.141,-0.438,-0.578,0.149,0.36,-0.508,0.262,0.786,0.638,0.422,0.356,0.299
0.184,-0.394,-0.577,0.105,0.381,-0.485,0.26,0.879,0.712,0.481,0.399,0.335
0.224,-0.374,-0.598,0.075,0.412,-0.486,0.257,0.962,0.789,0.541,0.452,0.369
0.253,-0.337,-0.59,0.042,0.422,-0.463,0.253,1.011,0.849,0.598,0.499,0.408
0.235,-0.326,-0.561,0.045,0.398,-0.443,0.266,1.0,0.86,0.625,0.529,0.432
0.226,-0.341,-0.567,0.058,0.397,-0.454,0.256,0.938,0.838,0.623,0.533,0.435
0.234,-0.329,-0.563,0.048,0.399,-0.446,0.241,0.793,0.759,0.571,0.493,0.405
0.182,-0.354,-0.536,0.086,0.359,-0.445,0.246,0.614,0.619,0.471,0.421,0.355
0.109,-0.432,-0.541,0.162,0.325,-0.486,0.244,0.455,0.478,0.366,0.337,0.299
0.066,-0.466,-0.532,0.2,0.299,-0.498,0.245,0.319,0.357,0.26,0.246,0.228
0.011,-0.482,-0.493,0.236,0.252,-0.488,0.245,0.237,0.271,0.187,0.182,0.177
-0.04,-0.517,-0.477,0.279,0.219,-0.497,0.245,0.191,0.215,0.145,0.15,0.15
0.003,-0.509,-0.511,0.253,0.257,-0.51,0.245,0.15,0.18,0.114,0.133,0.14
0.002,-0.53,-0.532,0.264,0.267,-0.531,0.245,0.134,0.18,0.108,0.126,0.133
-0.067,-0.559,-0.492,0.313,0.213,-0.525,0.25,0.134,0.179,0.1,0.117,0.123
-0.081,-0.553,-0.472,0.317,0.196,-0.512,0.25,0.13,0.174,0.094,0.107,0.118
-0.098,-0.556,-0.458,0.327,0.18,-0.507,0.25,0.128,0.172,0.084,0.101,0.112
-0.086,-0.554,-0.468,0.32,0.191,-0.511,0.247,0.124,0.168,0.085,0.099,0.107
-0.049,-0.556,-0.507,0.303,0.229,-0.531,0.244,0.127,0.165,0.096,0.096,0.101
-0.059,-0.55,-0.491,0.305,0.216,-0.521,0.246,0.126,0.161,0.095,0.094,0.096
-0.063,-0.549,-0.487,0.306,0.212,-0.518,0.249,0.124,0.159,0.094,0.089,0.103
-0.044,-0.543,-0.498,0.294,0.228,-0.521,0.25,0.125,0.156,0.09,0.093,0.106
-0.058,-0.544,-0.486,0.301,0.214,-0.515,0.251,0.124,0.153,0.09,0.101,0.101
-0.047,-0.533,-0.486,0.29,0.219,-0.509,0.255,0.125,0.15,0.088,0.1,0.099
-0.024,-0.521,-0.498,0.273,0.237,-0.509,0.255,0.122,0.148,0.084,0.1,0.095
-0.072,-0.553,-0.481,0.313,0.205,-0.517,0.253,0.119,0.144,0.085,0.1,0.095
-0.073,-0.546,-0.473,0.31,0.2,-0.51,0.249,0.12,0.14,0.081,0.099,0.101
-0.069,-0.542,-0.473,0.305,0.202,-0.507,0.247,0.12,0.138,0.08,0.101,0.099
-0.08,-0.543,-0.463,0.312,0.192,-0.503,0.244,0.12,0.133,0.079,0.105,0.096
-0.076,-0.555,-0.479,0.316,0.202,-0.517,0.241,0.12,0.13,0.075,0.105,0.093
-0.07,-0.559,-0.489,0.315,0.21,-0.524,0.239,0.113,0.126,0.071,0.105,0.089
-0.053,-0.533,-0.48,0.294,0.214,-0.507,0.235,0.105,0.125,0.069,0.105,0.091
-0.074,-0.547,-0.473,0.311,0.199,-0.51,0.23,0.1,0.125,0.064,0.105,0.095
-0.073,-0.543,-0.47,0.308,0.199,-0.506,0.225,0.09,0.125,0.06,0.101,0.095
-0.087,-0.539,-0.452,0.313,0.182,-0.495,0.223,0.086,0.124,0.058,0.1,0.099
-0.07,-0.538,-0.468,0.304,0.199,-0.503,0.213,0.072,0.127,0.053,0.1,0.1
-0.054,-0.543,-0.489,0.299,0.217,-0.516,0.233,0.082,0.13,0.067,0.095,0.096
-0.081,-0.554,-0.473,0.318,0.196,-0.513,0.254,0.103,0.13,0.082,0.095,0.095
-0.058,-0.54,-0.481,0.299,0.212,-0.51,0.246,0.099,0.129,0.079,0.096,0.094
-0.04,-0.527,-0.487,0.284,0.223,-0.507,0.245,0.101,0.13,0.081,0.1,0.096
-0.046,-0.529,-0.483,0.288,0.219,-0.505,0.241,0.1,0.129,0.08,0.103,0.094
-0.046,-0.516,-0.47,0.281,0.212,-0.493,0.24,0.1,0.132,0.079,0.106,0.097
-0.033,-0.479,-0.446,0.257,0.206,-0.463,0.236,0.097,0.15,0.085,0.11,0.109
-0.025,-0.47,-0.445,0.248,0.21,-0.457,0.227,0.095,0.158,0.094,0.108,0.118
-0.02,-0.465,-0.445,0.243,0.213,-0.455,0.221,0.115,0.178,0.114,0.127,0.129
-0.023,-0.464,-0.441,0.244,0.209,-0.453,0.213,0.117,0.198,0.117,0.137,0.137
0.003,-0.465,-0.468,0.231,0.236,-0.466,0.205,0.104,0.183,0.105,0.128,0.145
0.015,-0.465,-0.48,0.225,0.248,-0.472,0.2,0.096,0.17,0.098,0.123,0.142
0.007,-0.464,-0.471,0.229,0.239,-0.467,0.194,0.084,0.155,0.088,0.118,0.127
-0.007,-0.469,-0.462,0.238,0.228,-0.465,0.189,0.082,0.142,0.078,0.109,0.118
-0.062,-0.511,-0.449,0.287,0.194,-0.48,0.209,0.07,0.126,0.061,0.083,0.107
-0.093,-0.526,-0.433,0.31,0.17,-0.479,0.222,0.069,0.111,0.045,0.069,0.099
-0.094,-0.526,-0.432,0.31,0.169,-0.479,0.213,0.056,0.096,0.039,0.068,0.09
-0.084,-0.531,-0.447,0.308,0.181,-0.489,0.208,0.054,0.1,0.04,0.062,0.082
-0.094,-0.531,-0.437,0.313,0.172,-0.484,0.208,0.045,0.102,0.04,0.06,0.078
-0.098,-0.538,-0.44,0.318,0.172,-0.489,0.195,0.032,0.1,0.04,0.055,0.075
-0.095,-0.521,-0.425,0.308,0.165,-0.473,0.211,0.049,0.113,0.041,0.054,0.071
-0.064,-0.502,-0.438,0.283,0.187,-0.47,0.198,0.033,0.088,0.035,0.052,0.068
-0.059,-0.488,-0.429,0.274,0.186,-0.458,0.204,0.073,0.115,0.031,0.038,0.063
-0.079,-0.519,-0.441,0.3,0.181,-0.48,0.248,0.074,0.103,0.021,0.025,0.054
-0.089,-0.517,-0.428,0.304,0.169,-0.472,0.319,0.342,0.315,0.155,0.111,0.064
0.239,-0.349,-0.588,0.055,0.414,-0.468,0.148,0.591,0.864,0.763,0.647,0.466
1.002,-0.089,-1.091,-0.456,1.047,-0.589,-0.432,0.277,0.969,1.155,1.126,1.009
0.821,-0.068,-0.889,-0.376,0.855,-0.479,-0.725,-1.049,-0.296,0.135,0.433,0.661
0.037,-0.403,-0.44,0.183,0.239,-0.422,-0.693,-2.188,-1.633,-1.024,-0.53,-0.074
-0.073,-0.566,-0.494,0.32,0.211,-0.53,-0.449,-1.35,-1.175,-0.828,-0.517,-0.185
-0.035,-0.481,-0.445,0.258,0.205,-0.462,-0.07,-0.396,-0.357,-0.286,-0.152,-0.018
-0.038,-0.452,-0.414,0.246,0.188,-0.433,0.075,-0.076,-0.057,-0.061,0.001,0.06
-0.033,-0.442,-0.409,0.238,0.188,-0.425,0.15,0.11,0.122,0.039,0.054,0.09
-0.033,-0.432,-0.4,0.233,0.184,-0.416,0.176,0.106,0.139,0.069,0.087,0.098
-0.022,-0.43,-0.408,0.226,0.193,-0.419,0.177,0.179,0.195,0.092,0.101,0.102
-0.034,-0.428,-0.394,0.231,0.18,-0.411,0.184,0.169,0.207,0.106,0.108,0.104
-0.021,-0.425,-0.404,0.223,0.192,-0.414,0.176,0.192,0.212,0.117,0.117,0.11
-0.029,-0.423,-0.394,0.226,0.183,-0.408,0.184,0.21,0.228,0.124,0.12,0.109
-0.015,-0.43,-0.416,0.223,0.201,-0.423,0.184,0.232,0.242,0.142,0.136,0.113
-0.016,-0.419,-0.403,0.218,0.194,-0.411,0.183,0.254,0.266,0.156,0.139,0.118
-0.004,-0.396,-0.392,0.2,0.194,-0.394,0.179,0.269,0.275,0.162,0.148,0.121
0.025,-0.379,-0.404,0.177,0.215,-0.392,0.176,0.299,0.295,0.177,0.161,0.139
0.038,-0.37,-0.408,0.166,0.224,-0.389,0.171,0.334,0.325,0.202,0.18,0.158
0.07,-0.36,-0.431,0.145,0.251,-0.396,0.17,0.389,0.357,0.226,0.201,0.167
0.07,-0.349,-0.419,0.139,0.245,-0.384,0.177,0.449,0.399,0.252,0.219,0.179
0.077,-0.333,-0.41,0.128,0.244,-0.371,0.192,0.531,0.452,0.295,0.253,0.21
0.136,-0.31,-0.446,0.087,0.291,-0.378,0.196,0.63,0.517,0.344,0.29,0.235
0.197,-0.266,-0.463,0.035,0.33,-0.364,0.191,0.728,0.586,0.398,0.337,0.261
0.233,-0.225,-0.458,-0.004,0.346,-0.342,0.19,0.811,0.65,0.45,0.379,0.297
0.248,-0.212,-0.459,-0.018,0.354,-0.335,0.186,0.887,0.733,0.511,0.431,0.342
0.26,-0.208,-0.468,-0.026,0.365,-0.338,0.185,0.909,0.778,0.555,0.469,0.373
0.278,-0.182,-0.46,-0.048,0.369,-0.321,0.175,0.884,0.786,0.549,0.489,0.382
0.269,-0.156,-0.425,-0.056,0.347,-0.29,0.158,0.794,0.751,0.536,0.487,0.385
0.209,-0.186,-0.395,-0.011,0.302,-0.29,0.153,0.612,0.623,0.484,0.424,0.337
0.138,-0.229,-0.367,0.046,0.253,-0.298,0.155,0.423,0.463,0.372,0.337,0.264
0.073,-0.275,-0.348,0.101,0.211,-0.311,0.155,0.272,0.321,0.252,0.241,0.202
0.038,-0.305,-0.343,0.134,0.191,-0.324,0.155,0.161,0.215,0.17,0.166,0.149
0.004,-0.342,-0.346,0.169,0.175,-0.344,0.16,0.103,0.145,0.116,0.116,0.113
-0.034,-0.375,-0.341,0.205,0.154,-0.358,0.16,0.059,0.098,0.077,0.085,0.086
-0.043,-0.365,-0.322,0.204,0.14,-0.343,0.16,0.028,0.073,0.067,0.082,0.071
-0.056,-0.365,-0.309,0.211,0.127,-0.337,0.16,0.022,0.06,0.056,0.076,0.066
-0.05,-0.356,-0.306,0.203,0.129,-0.331,0.16,0.017,0.052,0.044,0.072,0.062
-0.055,-0.359,-0.304,0.207,0.125,-0.331,0.16,0.013,0.048,0.04,0.068,0.057
-0.076,-0.375,-0.298,0.225,0.111,-0.336,0.16,0.009,0.042,0.033,0.063,0.053
-0.072,-0.37,-0.297,0.222,0.113,-0.333,0.164,0.005,0.036,0.03,0.06,0.048
-0.077,-0.367,-0.29,0.222,0.107,-0.328,0.165,-0.001,0.031,0.024,0.06,0.045
-0.077,-0.37,-0.292,0.223,0.108,-0.331,0.165,-0.003,0.025,0.02,0.058,0.045
-0.068,-0.354,-0.286,0.211,0.11,-0.32,0.165,0.0,0.027,0.032,0.054,0.043
-0.066,-0.363,-0.296,0.214,0.115,-0.329,0.165,0.003,0.031,0.034,0.055,0.039
-0.077,-0.395,-0.317,0.236,0.121,-0.356,0.163,0.005,0.03,0.028,0.051,0.04
-0.087,-0.363,-0.276,0.225,0.095,-0.319,0.156,-0.004,0.029,0.024,0.045,0.036
-0.087,-0.347,-0.26,0.217,0.086,-0.303,0.152,-0.017,0.024,0.019,0.04,0.034
-0.089,-0.352,-0.263,0.221,0.087,-0.307,0.145,-0.028,0.025,0.016,0.034,0.035
-0.068,-0.346,-0.279,0.207,0.106,-0.312,0.14,-0.031,0.021,0.011,0.029,0.035
-0.049,-0.345,-0.296,0.198,0.124,-0.321,0.135,-0.03,0.009,0.008,0.023,0.035
-0.061,-0.344,-0.283,0.203,0.111,-0.313,0.13,-0.03,-0.003,0.004,0.02,0.034
-0.059,-0.343,-0.284,0.201,0.113,-0.313,0.126,-0.03,-0.012,0.001,0.02,0.029
-0.05,-0.327,-0.276,0.189,0.113,-0.301,0.123,-0.03,-0.02,-0.003,0.02,0.026
-0.065,-0.339,-0.275,0.202,0.105,-0.307,0.12,-0.038,-0.028,-0.005,0.02,0.023
-0.074,-0.34,-0.266,0.207,0.097,-0.303,0.114,-0.045,-0.03,-0.008,0.02,0.018
-0.075,-0.351,-0.276,0.213,0.101,-0.313,0.126,-0.045,-0.03,-0.011,0.016,0.015
-0.053,-0.353,-0.3,0.203,0.124,-0.326,0.135,-0.045,-0.03,-0.014,0.015,0.019
-0.049,-0.324,-0.275,0.186,0.113,-0.299,0.126,-0.046,-0.03,-0.015,0.015,0.02
-0.08,-0.323,-0.243,0.202,0.081,-0.283,0.123,-0.047,-0.03,-0.009,0.011,0.02
-0.067,-0.312,-0.245,0.189,0.089,-0.278,0.116,-0.04,-0.023,-0.006,0.009,0.025
-0.059,-0.306,-0.247,0.183,0.095,-0.277,0.11,-0.032,-0.016,0.0,0.011,0.025
-0.048,-0.287,-0.238,0.168,0.095,-0.262,0.115,-0.027,-0.009,0.001,0.019,0.026
-0.033,-0.265,-0.232,0.149,0.1,-0.248,0.123,-0.017,-0.003,0.013,0.031,0.034
-0.039,-0.265,-0.226,0.152,0.094,-0.245,0.116,-0.008,0.005,0.024,0.039,0.045
-0.028,-0.259,-0.231,0.144,0.102,-0.245,0.105,0.005,0.011,0.031,0.053,0.053
-0.012,-0.248,-0.235,0.13,0.112,-0.241,0.099,0.007,0.018,0.044,0.06,0.049
0.002,-0.249,-0.25,0.124,0.126,-0.249,0.086,-0.002,0.025,0.032,0.05,0.044
0.005,-0.26,-0.264,0.128,0.135,-0.262,0.086,-0.012,0.001,0.022,0.042,0.04
0.003,-0.251,-0.254,0.124,0.129,-0.253,0.084,-0.038,-0.031,0.014,0.033,0.035
-0.003,-0.249,-0.246,0.126,0.122,-0.248,0.085,-0.038,-0.029,0.005,0.023,0.03
-0.038,-0.272,-0.234,0.156,0.098,-0.253,0.1,-0.053,-0.032,0.001,0.016,0.026
-0.091,-0.314,-0.223,0.203,0.066,-0.268,0.106,-0.074,-0.059,-0.01,0.004,0.015
-0.106,-0.319,-0.213,0.213,0.054,-0.266,0.105,-0.076,-0.079,-0.02,-0.005,0.005
-0.085,-0.302,-0.217,0.194,0.066,-0.259,0.1,-0.074,-0.081,-0.033,-0.016,-0.004
-0.081,-0.29,-0.209,0.186,0.064,-0.249,0.102,-0.085,-0.078,-0.04,-0.031,-0.022
-0.09,-0.301,-0.211,0.195,0.061,-0.256,0.098,-0.099,-0.084,-0.039,-0.034,-0.024
-0.098,-0.321,-0.222,0.21,0.062,-0.271,0.107,-0.07,-0.074,-0.041,-0.037,-0.027
-0.068,-0.303,-0.234,0.186,0.083,-0.268,0.104,-0.089,-0.087,-0.039,-0.033,-0.023
-0.085,-0.296,-0.212,0.191,0.064,-0.254,0.109,-0.046,-0.073,-0.041,-0.037,-0.026
-0.11,-0.32,-0.21,0.215,0.05,-0.264,0.142,-0.025,-0.057,-0.038,-0.036,-0.044
-0.143,-0.35,-0.207,0.247,0.032,-0.278,0.212,0.164,0.08,0.034,0.006,-0.043
0.126,-0.202,-0.327,0.038,0.227,-0.264,0.079,0.453,0.59,0.571,0.465,0.306
0.932,0.102,-0.83,-0.517,0.881,-0.364,-0.459,0.359,0.894,1.124,1.069,0.913
0.841,0.163,-0.678,-0.502,0.759,-0.257,-0.732,-0.814,-0.207,0.274,0.516,0.684
0.013,-0.109,-0.122,0.048,0.068,-0.116,-0.698,-2.13,-1.67,-0.967,-0.504,-0.091
-0.131,-0.334,-0.204,0.233,0.037,-0.269,-0.552,-1.541,-1.437,-0.929,-0.592,-0.267
-0.074,-0.322,-0.248,0.198,0.087,-0.285,-0.211,-0.561,-0.623,-0.422,-0.271,-0.119
-0.055,-0.265,-0.21,0.16,0.078,-0.237,-0.027,-0.212,-0.271,-0.164,-0.098,-0.047
-0.04,-0.261,-0.221,0.151,0.09,-0.241,0.048,0.005,-0.079,-0.058,-0.029,-0.008
-0.081,-0.282,-0.201,0.182,0.06,-0.241,0.081,0.015,-0.049,-0.021,0.007,0.007
-0.064,-0.276,-0.212,0.171,0.074,-0.244,0.073,0.078,0.004,0.017,0.03,0.023
-0.066,-0.266,-0.199,0.166,0.067,-0.232,0.078,0.091,0.029,0.042,0.042,0.036
-0.05,-0.259,-0.208,0.155,0.079,-0.233,0.072,0.109,0.045,0.06,0.053,0.042
-0.043,-0.246,-0.203,0.145,0.08,-0.224,0.079,0.13,0.061,0.058,0.048,0.035
-0.028,-0.237,-0.209,0.133,0.091,-0.222,0.089,0.149,0.064,0.055,0.051,0.036
-0.01,-0.222,-0.211,0.116,0.101,-0.216,0.09,0.17,0.089,0.074,0.069,0.064
0.001,-0.212,-0.213,0.106,0.108,-0.212,0.085,0.192,0.107,0.096,0.088,0.078
0.049,-0.169,-0.218,0.06,0.134,-0.193,0.084,0.224,0.113,0.099,0.087,0.076
0.061,-0.157,-0.218,0.048,0.14,-0.188,0.08,0.248,0.133,0.127,0.104,0.081
0.043,-0.18,-0.223,0.069,0.133,-0.201,0.081,0.305,0.178,0.157,0.14,0.102
0.07,-0.155,-0.224,0.043,0.147,-0.189,0.085,0.362,0.211,0.175,0.152,0.112
0.109,-0.123,-0.233,0.007,0.172,-0.178,0.087,0.425,0.258,0.21,0.176,0.123
0.124,-0.106,-0.231,-0.009,0.178,-0.168,0.091,0.511,0.326,0.261,0.218,0.16
0.149,-0.097,-0.246,-0.026,0.198,-0.171,0.086,0.607,0.404,0.321,0.262,0.198
0.178,-0.07,-0.248,-0.053,0.213,-0.159,0.085,0.691,0.481,0.378,0.312,0.226
0.206,-0.021,-0.227,-0.092,0.217,-0.124,0.085,0.757,0.546,0.435,0.36,0.259
0.272,0.023,-0.249,-0.147,0.26,-0.113,0.08,0.781,0.599,0.475,0.399,0.291
0.269,0.027,-0.243,-0.148,0.256,-0.108,0.081,0.76,0.605,0.498,0.421,0.31
0.233,-0.002,-0.236,-0.115,0.235,-0.119,0.077,0.7,0.573,0.499,0.418,0.314
0.19,-0.036,-0.226,-0.077,0.208,-0.131,0.085,0.559,0.491,0.432,0.37,0.285
0.1,-0.067,-0.167,-0.017,0.134,-0.117,0.097,0.386,0.341,0.323,0.281,0.216
0.073,-0.07,-0.143,-0.001,0.108,-0.106,0.094,0.228,0.189,0.206,0.183,0.138
0.039,-0.097,-0.136,0.029,0.088,-0.116,0.095,0.116,0.087,0.114,0.111,0.084
-0.033,-0.157,-0.124,0.095,0.046,-0.14,0.095,0.065,0.027,0.066,0.06,0.043
-0.052,-0.168,-0.115,0.11,0.032,-0.141,0.095,0.023,-0.02,0.027,0.017,0.017
-0.058,-0.166,-0.107,0.112,0.025,-0.136,0.092,-0.006,-0.056,0.0,-0.007,0.003
-0.057,-0.16,-0.102,0.109,0.023,-0.131,0.089,-0.016,-0.075,-0.012,-0.02,-0.01
-0.064,-0.162,-0.097,0.113,0.016,-0.129,0.091,-0.029,-0.087,-0.027,-0.027,-0.019
-0.091,-0.182,-0.091,0.136,0.001,-0.136,0.089,-0.044,-0.101,-0.041,-0.034,-0.02
-0.081,-0.167,-0.086,0.124,0.003,-0.126,0.09,-0.038,-0.097,-0.039,-0.035,-0.02
-0.081,-0.181,-0.1,0.132,0.009,-0.14,0.09,-0.03,-0.093,-0.035,-0.035,-0.025
-0.09,-0.19,-0.1,0.14,0.005,-0.145,0.09,-0.026,-0.091,-0.034,-0.035,-0.025
-0.088,-0.177,-0.089,0.133,0.0,-0.133,0.09,-0.015,-0.084,-0.028,-0.035,-0.026
-0.097,-0.179,-0.081,0.138,-0.008,-0.13,0.09,-0.025,-0.094,-0.037,-0.035,-0.035
-0.098,-0.172,-0.074,0.135,-0.011,-0.123,0.09,-0.037,-0.102,-0.046,-0.035,-0.037
-0.1,-0.171,-0.071,0.135,-0.015,-0.121,0.09,-0.034,-0.097,-0.045,-0.035,-0.034
-0.101,-0.165,-0.064,0.133,-0.018,-0.115,0.102,-0.036,-0.095,-0.045,-0.035,-0.031
-0.1,-0.163,-0.063,0.131,-0.018,-0.113,0.101,-0.035,-0.092,-0.045,-0.035,-0.028
-0.1,-0.154,-0.053,0.127,-0.023,-0.103,0.09,-0.035,-0.09,-0.045,-0.035,-0.025
-0.079,-0.146,-0.067,0.113,-0.006,-0.106,0.084,-0.039,-0.094,-0.049,-0.035,-0.026
-0.067,-0.139,-0.072,0.103,0.003,-0.105,0.075,-0.041,-0.095,-0.05,-0.036,-0.033
-0.07,-0.129,-0.059,0.1,-0.005,-0.094,0.069,-0.039,-0.095,-0.051,-0.034,-0.039
-0.095,-0.147,-0.052,0.121,-0.021,-0.099,0.064,-0.042,-0.095,-0.058,-0.037,-0.04
-0.117,-0.149,-0.031,0.133,-0.043,-0.09,0.058,-0.054,-0.096,-0.064,-0.049,-0.04
-0.083,-0.136,-0.053,0.11,-0.015,-0.094,0.053,-0.063,-0.105,-0.067,-0.051,-0.04
-0.058,-0.121,-0.063,0.09,0.003,-0.092,0.045,-0.069,-0.114,-0.072,-0.049,-0.041
-0.068,-0.118,-0.05,0.093,-0.009,-0.084,0.056,-0.07,-0.115,-0.075,-0.046,-0.045
-0.097,-0.144,-0.047,0.121,-0.024,-0.096,0.067,-0.071,-0.116,-0.077,-0.044,-0.045
-0.108,-0.145,-0.037,0.127,-0.035,-0.091,0.064,-0.074,-0.119,-0.081,-0.047,-0.045
-0.106,-0.138,-0.032,0.122,-0.037,-0.085,0.065,-0.076,-0.121,-0.083,-0.051,-0.045
-0.117,-0.139,-0.021,0.128,-0.048,-0.08,0.065,-0.073,-0.117,-0.087,-0.046,-0.046
-0.092,-0.131,-0.039,0.111,-0.026,-0.084,0.065,-0.066,-0.098,-0.074,-0.039,-0.042
-0.06,-0.104,-0.044,0.082,-0.008,-0.074,0.061,-0.056,-0.078,-0.048,-0.033,-0.034
-0.056,-0.059,-0.003,0.058,-0.026,-0.031,0.054,-0.048,-0.063,-0.037,-0.026,-0.025
-0.038,-0.021,0.017,0.029,-0.027,-0.002,0.048,-0.047,-0.052,-0.035,-0.02,-0.016
-0.011,0.007,0.018,0.002,-0.015,0.012,0.042,-0.05,-0.054,-0.034,-0.013,-0.015
-0.003,0.001,0.004,0.0,-0.003,0.002,0.033,-0.051,-0.056,-0.035,-0.004,-0.015
-0.007,-0.018,-0.012,0.013,0.003,-0.014,0.032,-0.047,-0.053,-0.035,-0.003,-0.016
-0.009,-0.037,-0.028,0.024,0.01,-0.032,0.034,-0.058,-0.058,-0.035,-0.017,-0.013
-0.038,-0.082,-0.044,0.06,0.003,-0.063,0.036,-0.053,-0.05,-0.037,-0.028,-0.026
-0.082,-0.074,0.008,0.078,-0.045,-0.033,0.043,-0.075,-0.071,-0.059,-0.048,-0.052
-0.119,-0.076,0.042,0.097,-0.08,-0.017,0.046,-0.104,-0.094,-0.086,-0.071,-0.056
-0.111,-0.113,-0.002,0.112,-0.054,-0.057,0.045,-0.107,-0.1,-0.087,-0.069,-0.053
-0.09,-0.099,-0.009,0.095,-0.04,-0.054,0.044,-0.102,-0.102,-0.095,-0.074,-0.062
-0.117,-0.083,0.034,0.1,-0.076,-0.024,0.047,-0.098,-0.109,-0.105,-0.086,-0.08
-0.112,-0.08,0.032,0.096,-0.072,-0.023,0.041,-0.106,-0.129,-0.105,-0.084,-0.081
-0.111,-0.069,0.043,0.09,-0.077,-0.013,0.05,-0.085,-0.112,-0.105,-0.087,-0.085
-0.121,-0.082,0.039,0.101,-0.08,-0.022,0.04,-0.113,-0.127,-0.105,-0.091,-0.088
-0.148,-0.11,0.038,0.129,-0.093,-0.036,0.051,-0.071,-0.089,-0.105,-0.087,-0.089
-0.155,-0.103,0.051,0.129,-0.103,-0.026,0.081,-0.067,-0.112,-0.097,-0.106,-0.106
-0.158,-0.114,0.043,0.136,-0.1,-0.035,0.156,0.144,0.041,-0.011,-0.061,-0.096
0.14,0.034,-0.106,-0.087,0.123,-0.036,0.039,0.447,0.62,0.572,0.448,0.279
0.904,0.342,-0.562,-0.623,0.733,-0.109,-0.5,0.297,0.911,1.142,1.063,0.894
0.799,0.39,-0.409,-0.594,0.604,-0.01,-0.79,-0.883,-0.215,0.247,0.496,0.657
0.016,0.093,0.077,-0.055,-0.03,0.085,-0.777,-2.142,-1.701,-1.024,-0.554,-0.124
-0.137,-0.109,0.028,0.123,-0.082,-0.041,-0.599,-1.52,-1.423,-0.973,-0.643,-0.314
-0.088,-0.057,0.031,0.072,-0.06,-0.013,-0.25,-0.577,-0.602,-0.463,-0.316,-0.18
-0.082,-0.019,0.063,0.05,-0.072,0.022,-0.086,-0.238,-0.264,-0.197,-0.14,-0.091
-0.067,-0.017,0.05,0.042,-0.058,0.017,-0.008,-0.029,-0.07,-0.097,-0.073,-0.053
-0.092,-0.025,0.067,0.058,-0.079,0.021,0.027,-0.05,-0.044,-0.072,-0.052,-0.052
-0.087,-0.03,0.057,0.058,-0.072,0.014,0.041,0.024,0.01,-0.026,-0.024,-0.038
-0.09,-0.019,0.07,0.054,-0.08,0.025,0.049,0.033,0.012,-0.013,-0.018,-0.033
-0.075,-0.018,0.057,0.046,-0.066,0.019,0.034,0.058,0.038,0.002,-0.007,-0.023
-0.063,-0.009,0.054,0.036,-0.058,0.022,0.038,0.083,0.06,0.009,-0.004,-0.016
-0.049,-0.007,0.042,0.027,-0.045,0.018,0.028,0.091,0.072,0.02,0.008,-0.008
-0.039,0.002,0.041,0.018,-0.04,0.021,0.026,0.115,0.095,0.033,0.026,0.0
-0.025,0.007,0.033,0.008,-0.029,0.02,0.034,0.128,0.107,0.046,0.031,0.008
-0.006,0.033,0.039,-0.014,-0.023,0.036,0.041,0.17,0.143,0.065,0.043,0.023
-0.013,0.046,0.059,-0.016,-0.036,0.052,0.04,0.199,0.163,0.079,0.063,0.033
0.022,0.039,0.017,-0.031,0.002,0.028,0.04,0.263,0.205,0.117,0.092,0.049
0.093,0.079,-0.014,-0.086,0.053,0.032,0.047,0.333,0.256,0.154,0.118,0.072
0.122,0.103,-0.018,-0.112,0.07,0.042,0.05,0.395,0.302,0.18,0.138,0.089
0.124,0.114,-0.01,-0.119,0.067,0.052,0.05,0.476,0.359,0.222,0.17,0.11
0.134,0.148,0.015,-0.141,0.059,0.081,0.05,0.555,0.442,0.278,0.214,0.148
0.185,0.157,-0.028,-0.17,0.106,0.064,0.05,0.652,0.541,0.357,0.28,0.199
0.222,0.172,-0.051,-0.197,0.136,0.06,0.05,0.718,0.605,0.409,0.328,0.233
0.257,0.221,-0.036,-0.239,0.146,0.092,0.044,0.742,0.652,0.451,0.357,0.253
0.261,0.23,-0.031,-0.245,0.146,0.1,0.039,0.733,0.658,0.468,0.378,0.267
0.225,0.211,-0.014,-0.218,0.12,0.098,0.034,0.641,0.611,0.444,0.366,0.264
0.194,0.195,0.001,-0.194,0.096,0.097,0.028,0.485,0.52,0.387,0.32,0.239
0.115,0.165,0.05,-0.14,0.033,0.107,0.021,0.302,0.356,0.272,0.234,0.17
0.044,0.136,0.092,-0.09,-0.024,0.114,0.023,0.149,0.211,0.16,0.142,0.093
-0.004,0.113,0.118,-0.055,-0.061,0.115,0.032,0.044,0.121,0.08,0.066,0.04
-0.034,0.105,0.14,-0.036,-0.087,0.122,0.031,-0.033,0.04,0.02,0.0,-0.006
-0.048,0.1,0.148,-0.026,-0.098,0.124,0.029,-0.077,-0.015,-0.031,-0.038,-0.043
-0.066,0.089,0.155,-0.012,-0.111,0.122,0.03,-0.093,-0.04,-0.063,-0.054,-0.064
-0.081,0.071,0.152,0.005,-0.117,0.112,0.03,-0.087,-0.05,-0.072,-0.06,-0.067
-0.084,0.061,0.145,0.011,-0.115,0.103,0.03,-0.084,-0.057,-0.084,-0.059,-0.065
-0.074,0.067,0.14,0.003,-0.107,0.103,0.032,-0.081,-0.061,-0.086,-0.061,-0.065
-0.067,0.063,0.131,0.002,-0.099,0.097,0.035,-0.075,-0.059,-0.084,-0.06,-0.065
-0.062,0.067,0.128,-0.003,-0.095,0.098,0.035,-0.076,-0.06,-0.085,-0.06,-0.065
-0.06,0.055,0.116,0.002,-0.088,0.085,0.035,-0.08,-0.06,-0.085,-0.072,-0.065
-0.083,0.057,0.14,0.013,-0.112,0.099,0.035,-0.08,-0.06,-0.085,-0.074,-0.07
-0.091,0.086,0.177,0.002,-0.134,0.131,0.034,-0.082,-0.071,-0.093,-0.066,-0.076
-0.073,0.07,0.143,0.001,-0.108,0.106,0.031,-0.086,-0.076,-0.1,-0.065,-0.083
-0.088,0.054,0.142,0.017,-0.115,0.097,0.028,-0.085,-0.075,-0.102,-0.058,-0.085
-0.099,0.051,0.15,0.024,-0.125,0.1,0.026,-0.086,-0.076,-0.105,-0.055,-0.085
-0.083,0.056,0.139,0.013,-0.111,0.097,0.022,-0.085,-0.075,-0.107,-0.07,-0.085
-0.078,0.059,0.137,0.009,-0.108,0.098,0.02,-0.086,-0.075,-0.111,-0.076,-0.085
-0.074,0.055,0.129,0.009,-0.102,0.092,0.018,-0.085,-0.075,-0.108,-0.074,-0.085
-0.082,0.043,0.126,0.019,-0.104,0.084,0.013,-0.086,-0.075,-0.103,-0.075,-0.085
-0.085,0.059,0.144,0.013,-0.115,0.101,0.007,-0.106,-0.075,-0.1,-0.075,-0.085
-0.078,0.092,0.171,-0.007,-0.125,0.131,0.004,-0.117,-0.075,-0.097,-0.075,-0.085
-0.107,0.062,0.169,0.022,-0.138,0.115,-0.002,-0.114,-0.075,-0.092,-0.07,-0.085
-0.105,0.059,0.165,0.022,-0.136,0.112,-0.005,-0.115,-0.075,-0.09,-0.07,-0.085
-0.085,0.077,0.162,0.004,-0.124,0.12,0.0,-0.115,-0.086,-0.105,-0.07,-0.083
-0.092,0.069,0.16,0.011,-0.126,0.114,0.005,-0.114,-0.091,-0.111,-0.07,-0.079
-0.09,0.065,0.155,0.012,-0.123,0.11,0.009,-0.124,-0.091,-0.109,-0.07,-0.077
-0.105,0.063,0.168,0.021,-0.137,0.115,0.014,-0.137,-0.095,-0.114,-0.067,-0.073
-0.134,0.053,0.187,0.04,-0.161,0.12,0.019,-0.134,-0.095,-0.115,-0.065,-0.088
-0.121,0.063,0.184,0.028,-0.153,0.124,0.02,-0.131,-0.09,-0.115,-0.065,-0.1
-0.084,0.104,0.188,-0.01,-0.136,0.146,0.02,-0.128,-0.085,-0.109,-0.065,-0.093
-0.071,0.12,0.191,-0.024,-0.132,0.155,0.02,-0.125,-0.081,-0.103,-0.065,-0.088
-0.083,0.11,0.193,-0.014,-0.138,0.151,0.02,-0.124,-0.077,-0.098,-0.065,-0.083
-0.077,0.121,0.198,-0.022,-0.138,0.16,0.02,-0.115,-0.073,-0.091,-0.058,-0.077
-0.066,0.133,0.199,-0.034,-0.133,0.166,0.02,-0.106,-0.064,-0.076,-0.047,-0.062
-0.063,0.13,0.193,-0.034,-0.128,0.162,0.015,-0.097,-0.056,-0.063,-0.037,-0.049
-0.022,0.163,0.185,-0.071,-0.104,0.174,0.012,-0.096,-0.054,-0.063,-0.034,-0.049
0.0,0.179,0.179,-0.09,-0.09,0.178,0.004,-0.104,-0.056,-0.066,-0.035,-0.05
-0.001,0.168,0.17,-0.084,-0.086,0.169,-0.018,-0.103,-0.053,-0.071,-0.035,-0.054
-0.002,0.164,0.167,-0.081,-0.085,0.165,-0.032,-0.128,-0.063,-0.068,-0.035,-0.054
-0.028,0.142,0.169,-0.057,-0.099,0.155,-0.029,-0.142,-0.082,-0.081,-0.035,-0.058
-0.047,0.129,0.176,-0.042,-0.112,0.152,-0.023,-0.145,-0.087,-0.101,-0.046,-0.069
-0.08,0.122,0.202,-0.021,-0.141,0.161,-0.024,-0.168,-0.108,-0.113,-0.072,-0.089
-0.109,0.111,0.22,-0.001,-0.165,0.165,-0.014,-0.188,-0.126,-0.135,-0.096,-0.111
-0.106,0.104,0.21,0.0,-0.158,0.157,-0.019,-0.205,-0.128,-0.146,-0.102,-0.109
-0.096,0.094,0.19,0.001,-0.144,0.142,-0.026,-0.184,-0.12,-0.144,-0.101,-0.11
-0.094,0.094,0.188,0.0,-0.141,0.141,-0.032,-0.197,-0.132,-0.146,-0.094,-0.11
-0.126,0.085,0.211,0.02,-0.169,0.148,-0.021,-0.166,-0.117,-0.144,-0.094,-0.11
-0.114,0.084,0.198,0.015,-0.157,0.141,-0.019,-0.186,-0.133,-0.146,-0.087,-0.111
-0.115,0.096,0.211,0.009,-0.163,0.153,-0.019,-0.166,-0.117,-0.141,-0.085,-0.108
-0.164,0.078,0.242,0.042,-0.203,0.16,0.035,-0.145,-0.108,-0.131,-0.102,-0.126
-0.148,0.045,0.193,0.051,-0.171,0.118,0.076,-0.029,-0.05,-0.108,-0.099,-0.16
-0.045,0.13,0.175,-0.043,-0.111,0.153,0.075,0.31,0.387,0.258,0.182,0.029
0.663,0.414,-0.249,-0.538,0.456,0.083,-0.358,0.317,0.861,0.97,0.871,0.653
1.037,0.549,-0.489,-0.793,0.763,0.03,-0.826,-0.475,0.299,0.665,0.804,0.813
0.292,0.333,0.041,-0.312,0.125,0.187,-0.89,-2.027,-1.38,-0.763,-0.297,0.071
-0.084,0.089,0.173,-0.003,-0.129,0.131,-0.797,-2.092,-1.793,-1.227,-0.786,-0.389
-0.063,0.08,0.143,-0.008,-0.104,0.111,-0.439,-0.921,-0.875,-0.68,-0.473,-0.271
-0.079,0.154,0.234,-0.038,-0.157,0.194,-0.165,-0.413,-0.384,-0.315,-0.214,-0.152
-0.04,0.151,0.191,-0.055,-0.116,0.171,-0.081,-0.144,-0.151,-0.166,-0.12,-0.11
-0.047,0.155,0.202,-0.054,-0.125,0.178,-0.029,-0.098,-0.087,-0.114,-0.081,-0.092
-0.022,0.162,0.184,-0.07,-0.103,0.173,-0.027,-0.067,-0.048,-0.084,-0.047,-0.083
-0.074,0.146,0.221,-0.036,-0.148,0.183,-0.009,-0.036,-0.004,-0.069,-0.038,-0.072
-0.032,0.161,0.193,-0.065,-0.113,0.177,-0.004,-0.02,0.012,-0.061,-0.028,-0.063
-0.002,0.18,0.182,-0.089,-0.093,0.181,-0.009,0.032,0.049,-0.049,-0.017,-0.055
-0.046,0.171,0.217,-0.063,-0.132,0.194,-0.018,0.03,0.047,-0.035,-0.01,-0.049
-0.016,0.178,0.193,-0.082,-0.105,0.186,-0.015,0.051,0.06,-0.006,0.0,-0.042
-0.017,0.172,0.19,-0.078,-0.104,0.181,-0.011,0.067,0.07,0.01,0.009,-0.036
-0.016,0.177,0.193,-0.081,-0.105,0.185,-0.01,0.097,0.099,0.023,0.023,-0.028
0.021,0.218,0.197,-0.119,-0.088,0.207,-0.005,0.131,0.13,0.042,0.037,-0.018
0.058,0.245,0.187,-0.152,-0.065,0.215,-0.005,0.173,0.156,0.055,0.047,-0.012
0.062,0.242,0.18,-0.152,-0.06,0.211,-0.021,0.223,0.189,0.075,0.061,0.003
0.061,0.235,0.174,-0.148,-0.057,0.205,-0.026,0.305,0.247,0.116,0.097,0.024
0.123,0.285,0.162,-0.205,-0.02,0.224,-0.018,0.384,0.306,0.155,0.128,0.047
0.143,0.313,0.171,-0.228,-0.014,0.242,-0.014,0.477,0.372,0.204,0.169,0.076
0.165,0.342,0.177,-0.254,-0.006,0.259,-0.007,0.57,0.454,0.276,0.226,0.115
0.23,0.375,0.145,-0.303,0.042,0.26,-0.002,0.658,0.534,0.334,0.274,0.163
0.25,0.363,0.113,-0.306,0.068,0.238,-0.002,0.709,0.589,0.386,0.324,0.194
0.242,0.382,0.141,-0.312,0.05,0.261,-0.008,0.701,0.605,0.402,0.339,0.215
0.248,0.423,0.175,-0.336,0.036,0.299,-0.015,0.647,0.578,0.39,0.331,0.208
0.225,0.407,0.182,-0.317,0.021,0.294,-0.018,0.511,0.509,0.367,0.312,0.188
0.151,0.35,0.199,-0.251,-0.025,0.274,-0.034,0.331,0.379,0.277,0.242,0.148
0.085,0.336,0.251,-0.211,-0.083,0.293,-0.045,0.135,0.196,0.15,0.151,0.063
0.01,0.289,0.279,-0.15,-0.135,0.284,-0.037,0.012,0.081,0.049,0.077,0.011
-0.014,0.243,0.257,-0.115,-0.136,0.25,-0.031,-0.053,0.016,-0.011,0.019,-0.022
-0.023,0.243,0.266,-0.111,-0.144,0.254,-0.024,-0.119,-0.047,-0.063,-0.033,-0.066
-0.048,0.229,0.276,-0.091,-0.162,0.252,-0.017,-0.149,-0.082,-0.094,-0.057,-0.087
-0.046,0.222,0.268,-0.088,-0.157,0.244,-0.015,-0.161,-0.099,-0.096,-0.063,-0.098
-0.047,0.217,0.264,-0.085,-0.156,0.24,-0.015,-0.162,-0.103,-0.109,-0.076,-0.104
-0.042,0.219,0.262,-0.089,-0.152,0.24,-0.015,-0.172,-0.109,-0.115,-0.08,-0.101
-0.03,0.221,0.251,-0.096,-0.141,0.235,-0.015,-0.178,-0.11,-0.115,-0.08,-0.1
-0.047,0.219,0.266,-0.087,-0.156,0.242,-0.015,-0.181,-0.11,-0.119,-0.081,-0.099
-0.067,0.22,0.287,-0.077,-0.177,0.253,-0.015,-0.185,-0.115,-0.12,-0.079,-0.101
-0.058,0.22,0.278,-0.082,-0.168,0.248,-0.022,-0.18,-0.115,-0.122,-0.084,-0.098
-0.079,0.215,0.295,-0.068,-0.187,0.255,-0.026,-0.177,-0.116,-0.126,-0.094,-0.105
-0.093,0.21,0.303,-0.059,-0.198,0.257,-0.024,-0.173,-0.12,-0.129,-0.096,-0.12
-0.093,0.204,0.297,-0.055,-0.195,0.25,-0.026,-0.17,-0.12,-0.132,-0.093,-0.12
-0.096,0.201,0.297,-0.053,-0.197,0.249,-0.024,-0.165,-0.12,-0.135,-0.101,-0.12
-0.102,0.191,0.293,-0.045,-0.198,0.242,-0.026,-0.169,-0.12,-0.138,-0.111,-0.12
-0.103,0.194,0.297,-0.046,-0.2,0.245,-0.022,-0.172,-0.12,-0.14,-0.107,-0.12
-0.089,0.222,0.311,-0.066,-0.2,0.266,-0.013,-0.172,-0.124,-0.142,-0.104,-0.118
-0.111,0.2,0.311,-0.045,-0.211,0.255,-0.028,-0.178,-0.125,-0.145,-0.1,-0.115
-0.125,0.174,0.299,-0.025,-0.212,0.237,-0.037,-0.192,-0.126,-0.148,-0.096,-0.114
-0.107,0.188,0.295,-0.041,-0.201,0.241,-0.033,-0.207,-0.133,-0.151,-0.093,-0.11
-0.07,0.212,0.282,-0.071,-0.176,0.246,-0.036,-0.21,-0.139,-0.155,-0.089,-0.11
-0.08,0.212,0.291,-0.066,-0.186,0.252,-0.034,-0.206,-0.14,-0.155,-0.102,-0.124
-0.12,0.203,0.323,-0.042,-0.222,0.263,-0.036,-0.206,-0.14,-0.15,-0.111,-0.137
-0.125,0.201,0.325,-0.038,-0.225,0.262,-0.04,-0.215,-0.14,-0.15,-0.109,-0.133
-0.122,0.192,0.313,-0.035,-0.218,0.252,-0.041,-0.214,-0.14,-0.15,-0.11,-0.13
-0.116,0.194,0.309,-0.039,-0.213,0.251,-0.039,-0.218,-0.14,-0.15,-0.11,-0.128
-0.101,0.193,0.294,-0.046,-0.198,0.243,-0.037,-0.233,-0.141,-0.15,-0.11,-0.123
-0.099,0.211,0.31,-0.056,-0.205,0.26,-0.034,-0.241,-0.15,-0.15,-0.114,-0.131
-0.11,0.233,0.343,-0.062,-0.226,0.287,-0.038,-0.244,-0.151,-0.15,-0.115,-0.136
-0.092,0.229,0.321,-0.069,-0.207,0.275,-0.054,-0.238,-0.144,-0.15,-0.115,-0.131
-0.075,0.229,0.304,-0.078,-0.189,0.267,-0.055,-0.234,-0.14,-0.15,-0.115,-0.129
-0.053,0.232,0.284,-0.09,-0.169,0.258,-0.05,-0.23,-0.134,-0.15,-0.115,-0.124
-0.062,0.226,0.289,-0.082,-0.176,0.257,-0.049,-0.226,-0.129,-0.15,-0.114,-0.121
-0.079,0.243,0.322,-0.082,-0.201,0.282,-0.044,-0.218,-0.124,-0.133,-0.101,-0.116
-0.058,0.256,0.314,-0.099,-0.187,0.285,-0.046,-0.199,-0.116,-0.108,-0.086,-0.102
-0.047,0.263,0.31,-0.108,-0.179,0.287,-0.05,-0.182,-0.097,-0.101,-0.08,-0.088
-0.002,0.304,0.306,-0.151,-0.154,0.305,-0.049,-0.172,-0.068,-0.094,-0.08,-0.08
0.011,0.312,0.301,-0.162,-0.146,0.306,-0.056,-0.18,-0.055,-0.095,-0.08,-0.08
-0.002,0.291,0.293,-0.144,-0.148,0.292,-0.075,-0.181,-0.069,-0.092,-0.08,-0.077
0.001,0.257,0.256,-0.129,-0.128,0.257,-0.082,-0.187,-0.089,-0.087,-0.08,-0.072
-0.019,0.222,0.241,-0.102,-0.13,0.231,-0.068,-0.194,-0.104,-0.103,-0.08,-0.086
-0.038,0.246,0.284,-0.104,-0.161,0.265,-0.057,-0.204,-0.121,-0.115,-0.091,-0.105
-0.082,0.251,0.333,-0.084,-0.208,0.292,-0.056,-0.233,-0.147,-0.142,-0.108,-0.127
-0.113,0.226,0.339,-0.057,-0.226,0.282,-0.049,-0.241,-0.166,-0.162,-0.123,-0.137
-0.106,0.208,0.313,-0.051,-0.21,0.26,-0.052,-0.244,-0.178,-0.164,-0.139,-0.135
-0.125,0.19,0.315,-0.033,-0.22,0.253,-0.043,-0.233,-0.171,-0.17,-0.142,-0.141
-0.119,0.196,0.315,-0.039,-0.217,0.255,-0.047,-0.25,-0.18,-0.17,-0.138,-0.139
-0.124,0.195,0.319,-0.036,-0.222,0.257,-0.055,-0.228,-0.162,-0.169,-0.143,-0.146
-0.139,0.187,0.327,-0.024,-0.233,0.257,-0.061,-0.252,-0.178,-0.171,-0.137,-0.152
-0.139,0.179,0.317,-0.021,-0.228,0.248,-0.056,-0.228,-0.159,-0.17,-0.145,-0.157
-0.148,0.175,0.323,-0.014,-0.236,0.249,-0.021,-0.212,-0.14,-0.166,-0.148,-0.168
-0.125,0.16,0.285,-0.017,-0.205,0.222,0.022,-0.097,-0.095,-0.139,-0.131,-0.181
-0.031,0.242,0.273,-0.106,-0.152,0.258,0.034,0.249,0.341,0.228,0.149,0.006
0.666,0.504,-0.162,-0.585,0.414,0.171,-0.4,0.259,0.803,0.908,0.815,0.603
1.073,0.678,-0.395,-0.875,0.733,0.141,-0.885,-0.559,0.216,0.582,0.722,0.744
0.322,0.472,0.149,-0.397,0.086,0.31,-0.952,-2.123,-1.424,-0.8,-0.339,0.024
-0.113,0.155,0.268,-0.021,-0.191,0.212,-0.833,-2.191,-1.813,-1.232,-0.798,-0.411
-0.072,0.151,0.223,-0.04,-0.148,0.187,-0.488,-1.0,-0.903,-0.694,-0.49,-0.293
-0.07,0.235,0.305,-0.083,-0.188,0.27,-0.221,-0.48,-0.421,-0.337,-0.234,-0.181
-0.008,0.253,0.261,-0.123,-0.135,0.257,-0.128,-0.21,-0.193,-0.195,-0.147,-0.14
-0.056,0.267,0.324,-0.106,-0.19,0.295,-0.077,-0.16,-0.116,-0.147,-0.109,-0.118
-0.063,0.257,0.319,-0.097,-0.191,0.288,-0.07,-0.127,-0.088,-0.107,-0.088,-0.109
-0.048,0.261,0.309,-0.107,-0.178,0.285,-0.049,-0.072,-0.057,-0.078,-0.078,-0.101
-0.071,0.249,0.319,-0.089,-0.196,0.284,-0.052,-0.074,-0.035,-0.069,-0.065,-0.093
-0.057,0.263,0.32,-0.103,-0.189,0.291,-0.049,-0.047,-0.001,-0.056,-0.055,-0.085
-0.047,0.293,0.34,-0.123,-0.194,0.316,-0.05,-0.044,-0.014,-0.047,-0.048,-0.079
-0.045,0.294,0.338,-0.124,-0.192,0.316,-0.051,0.004,0.003,-0.032,-0.038,-0.074
-0.033,0.304,0.336,-0.136,-0.185,0.32,-0.048,0.019,0.009,-0.022,-0.032,-0.067
-0.005,0.327,0.332,-0.161,-0.169,0.33,-0.06,0.041,0.037,-0.005,-0.023,-0.063
0.019,0.34,0.321,-0.18,-0.151,0.33,-0.065,0.079,0.052,0.005,-0.009,-0.056
0.035,0.341,0.305,-0.188,-0.135,0.323,-0.058,0.12,0.078,0.035,0.013,-0.039
0.044,0.339,0.295,-0.192,-0.126,0.317,-0.055,0.179,0.128,0.067,0.042,-0.017
0.056,0.34,0.284,-0.198,-0.114,0.312,-0.05,0.255,0.171,0.089,0.059,0.002
0.085,0.36,0.275,-0.223,-0.095,0.317,-0.045,0.341,0.23,0.133,0.089,0.024
0.11,0.374,0.264,-0.242,-0.077,0.319,-0.045,0.436,0.296,0.183,0.135,0.057
0.16,0.398,0.239,-0.279,-0.04,0.318,-0.045,0.537,0.376,0.245,0.189,0.1
0.187,0.427,0.24,-0.307,-0.027,0.333,-0.045,0.624,0.452,0.31,0.243,0.139
0.197,0.443,0.246,-0.321,-0.024,0.344,-0.045,0.679,0.511,0.363,0.283,0.168
0.225,0.47,0.245,-0.348,-0.011,0.357,-0.044,0.677,0.536,0.39,0.307,0.186
0.233,0.476,0.243,-0.355,-0.005,0.359,-0.058,0.623,0.517,0.384,0.301,0.188
0.219,0.469,0.25,-0.345,-0.016,0.36,-0.072,0.495,0.444,0.35,0.288,0.18
0.169,0.446,0.277,-0.308,-0.054,0.361,-0.069,0.315,0.311,0.268,0.229,0.138
0.1,0.395,0.295,-0.248,-0.097,0.345,-0.07,0.136,0.158,0.149,0.131,0.057
0.025,0.365,0.341,-0.195,-0.158,0.353,-0.075,-0.015,0.021,0.043,0.054,-0.017
-0.025,0.334,0.359,-0.155,-0.192,0.346,-0.075,-0.097,-0.066,-0.028,-0.011,-0.061
-0.049,0.301,0.349,-0.126,-0.199,0.325,-0.075,-0.149,-0.123,-0.071,-0.055,-0.088
-0.047,0.299,0.346,-0.126,-0.196,0.322,-0.071,-0.176,-0.155,-0.093,-0.074,-0.101
-0.033,0.301,0.334,-0.134,-0.184,0.317,-0.07,-0.186,-0.171,-0.105,-0.085,-0.11
-0.057,0.304,0.36,-0.124,-0.209,0.332,-0.07,-0.21,-0.193,-0.115,-0.088,-0.121
-0.073,0.306,0.379,-0.117,-0.226,0.342,-0.065,-0.216,-0.203,-0.125,-0.084,-0.122
-0.068,0.3,0.369,-0.116,-0.219,0.335,-0.065,-0.218,-0.204,-0.13,-0.086,-0.125
-0.071,0.296,0.368,-0.113,-0.22,0.332,-0.065,-0.22,-0.205,-0.13,-0.105,-0.129
-0.068,0.291,0.359,-0.111,-0.214,0.325,-0.065,-0.215,-0.208,-0.13,-0.112,-0.13
-0.072,0.287,0.359,-0.108,-0.216,0.323,-0.065,-0.215,-0.216,-0.134,-0.109,-0.127
-0.067,0.283,0.35,-0.108,-0.209,0.317,-0.063,-0.216,-0.215,-0.139,-0.107,-0.122
-0.079,0.276,0.356,-0.098,-0.218,0.316,-0.059,-0.214,-0.214,-0.142,-0.104,-0.119
-0.104,0.273,0.377,-0.085,-0.241,0.325,-0.06,-0.217,-0.217,-0.147,-0.106,-0.117
-0.102,0.253,0.356,-0.076,-0.229,0.304,-0.076,-0.209,-0.209,-0.15,-0.098,-0.109
-0.092,0.283,0.374,-0.096,-0.233,0.328,-0.081,-0.214,-0.219,-0.15,-0.107,-0.117
-0.081,0.307,0.388,-0.113,-0.235,0.347,-0.076,-0.241,-0.235,-0.149,-0.131,-0.14
-0.115,0.258,0.373,-0.072,-0.244,0.315,-0.075,-0.24,-0.241,-0.158,-0.13,-0.142
-0.113,0.275,0.388,-0.082,-0.251,0.332,-0.07,-0.241,-0.251,-0.166,-0.131,-0.145
-0.079,0.304,0.383,-0.113,-0.231,0.343,-0.071,-0.246,-0.25,-0.167,-0.135,-0.149
-0.09,0.293,0.382,-0.102,-0.236,0.337,-0.074,-0.244,-0.254,-0.17,-0.135,-0.15
-0.088,0.281,0.368,-0.097,-0.228,0.324,-0.079,-0.248,-0.255,-0.174,-0.135,-0.155
-0.101,0.275,0.376,-0.087,-0.239,0.325,-0.079,-0.25,-0.258,-0.175,-0.135,-0.155
-0.149,0.262,0.411,-0.056,-0.28,0.336,-0.084,-0.25,-0.267,-0.179,-0.135,-0.155
-0.149,0.26,0.41,-0.055,-0.28,0.335,-0.096,-0.253,-0.269,-0.18,-0.135,-0.155
-0.118,0.288,0.407,-0.085,-0.263,0.347,-0.093,-0.255,-0.27,-0.18,-0.135,-0.155
-0.123,0.264,0.387,-0.071,-0.256,0.326,-0.09,-0.255,-0.269,-0.185,-0.135,-0.155
-0.112,0.274,0.386,-0.082,-0.249,0.33,-0.088,-0.26,-0.27,-0.185,-0.13,-0.155
-0.103,0.29,0.393,-0.094,-0.249,0.342,-0.084,-0.257,-0.271,-0.184,-0.126,-0.152
-0.091,0.28,0.371,-0.095,-0.232,0.325,-0.085,-0.248,-0.264,-0.178,-0.123,-0.146
-0.105,0.282,0.387,-0.089,-0.246,0.335,-0.085,-0.24,-0.257,-0.177,-0.119,-0.141
-0.132,0.278,0.41,-0.073,-0.271,0.344,-0.085,-0.231,-0.251,-0.162,-0.116,-0.135
-0.092,0.314,0.406,-0.111,-0.249,0.359,-0.085,-0.223,-0.244,-0.128,-0.111,-0.131
-0.064,0.337,0.401,-0.136,-0.233,0.369,-0.084,-0.215,-0.237,-0.117,-0.097,-0.126
-0.047,0.35,0.396,-0.152,-0.222,0.373,-0.085,-0.206,-0.234,-0.11,-0.083,-0.127
-0.033,0.357,0.389,-0.162,-0.211,0.373,-0.091,-0.198,-0.235,-0.11,-0.085,-0.131
-0.024,0.341,0.365,-0.159,-0.195,0.353,-0.111,-0.187,-0.235,-0.108,-0.087,-0.129
-0.017,0.337,0.354,-0.16,-0.186,0.345,-0.124,-0.212,-0.234,-0.116,-0.094,-0.131
-0.018,0.324,0.342,-0.153,-0.18,0.333,-0.121,-0.243,-0.246,-0.136,-0.097,-0.129
-0.025,0.321,0.346,-0.148,-0.186,0.333,-0.114,-0.236,-0.261,-0.144,-0.108,-0.131
-0.087,0.307,0.394,-0.11,-0.241,0.35,-0.111,-0.251,-0.283,-0.161,-0.14,-0.144
-0.139,0.272,0.41,-0.067,-0.275,0.341,-0.102,-0.251,-0.291,-0.173,-0.147,-0.156
-0.121,0.279,0.4,-0.079,-0.261,0.339,-0.1,-0.262,-0.297,-0.182,-0.144,-0.159
-0.121,0.288,0.409,-0.084,-0.265,0.349,-0.094,-0.264,-0.298,-0.185,-0.159,-0.166
-0.12,0.281,0.401,-0.081,-0.261,0.341,-0.094,-0.267,-0.3,-0.186,-0.165,-0.169
-0.117,0.294,0.411,-0.089,-0.264,0.352,-0.096,-0.251,-0.291,-0.186,-0.171,-0.173
-0.122,0.286,0.409,-0.082,-0.266,0.347,-0.084,-0.244,-0.287,-0.182,-0.176,-0.179
-0.088,0.265,0.353,-0.089,-0.221,0.309,-0.099,-0.253,-0.289,-0.173,-0.173,-0.178
-0.155,0.284,0.439,-0.065,-0.297,0.362,-0.068,-0.219,-0.268,-0.167,-0.177,-0.191
-0.158,0.234,0.392,-0.038,-0.275,0.313,-0.035,-0.176,-0.264,-0.166,-0.163,-0.195
-0.121,0.222,0.343,-0.051,-0.232,0.283,0.014,0.099,0.002,0.014,-0.04,-0.131
0.358,0.491,0.133,-0.424,0.112,0.312,-0.25,0.31,0.57,0.696,0.578,0.372
1.043,0.737,-0.306,-0.889,0.674,0.215,-0.777,-0.068,0.513,0.91,0.935,0.838
0.515,0.646,0.131,-0.581,0.192,0.388,-0.911,-1.536,-0.975,-0.335,0.023,0.29
-0.121,0.367,0.488,-0.123,-0.305,0.427,-0.845,-2.299,-1.975,-1.222,-0.759,-0.361
-0.082,0.242,0.324,-0.08,-0.203,0.283,-0.615,-1.306,-1.326,-0.88,-0.618,-0.367
-0.111,0.286,0.397,-0.087,-0.254,0.341,-0.317,-0.6,-0.701,-0.47,-0.353,-0.251
-0.072,0.315,0.387,-0.122,-0.23,0.351,-0.188,-0.302,-0.421,-0.249,-0.204,-0.182
-0.055,0.333,0.388,-0.139,-0.222,0.361,-0.116,-0.157,-0.285,-0.172,-0.157,-0.159
-0.06,0.328,0.388,-0.134,-0.224,0.358,-0.115,-0.151,-0.256,-0.137,-0.125,-0.148
-0.051,0.331,0.381,-0.141,-0.216,0.355,-0.11,-0.099,-0.202,-0.111,-0.105,-0.133
-0.058,0.329,0.386,-0.136,-0.222,0.357,-0.106,-0.1,-0.195,-0.107,-0.1,-0.128
-0.053,0.338,0.392,-0.143,-0.223,0.365,-0.104,-0.063,-0.172,-0.089,-0.085,-0.117
-0.044,0.367,0.41,-0.162,-0.227,0.388,-0.098,-0.064,-0.17,-0.086,-0.079,-0.108
-0.035,0.358,0.393,-0.162,-0.214,0.375,-0.097,-0.019,-0.147,-0.066,-0.07,-0.095
-0.013,0.355,0.368,-0.171,-0.191,0.361,-0.09,0.003,-0.127,-0.053,-0.066,-0.085
-0.022,0.348,0.369,-0.163,-0.196,0.358,-0.089,0.022,-0.114,-0.047,-0.061,-0.075
-0.05,0.345,0.395,-0.147,-0.223,0.37,-0.084,0.067,-0.087,-0.021,-0.038,-0.064
0.005,0.357,0.352,-0.181,-0.174,0.354,-0.08,0.099,-0.054,0.018,-0.007,-0.052
0.006,0.353,0.347,-0.18,-0.171,0.35,-0.082,0.142,-0.02,0.036,0.001,-0.041
0.031,0.383,0.352,-0.207,-0.161,0.367,-0.085,0.204,0.021,0.06,0.03,-0.023
0.058,0.394,0.335,-0.226,-0.139,0.364,-0.085,0.281,0.074,0.108,0.066,0.008
0.06,0.395,0.334,-0.228,-0.137,0.364,-0.085,0.371,0.14,0.157,0.102,0.044
0.103,0.433,0.33,-0.268,-0.114,0.381,-0.085,0.456,0.217,0.217,0.152,0.078
0.132,0.472,0.34,-0.303,-0.104,0.406,-0.084,0.531,0.287,0.276,0.201,0.108
0.157,0.496,0.339,-0.327,-0.091,0.417,-0.081,0.601,0.363,0.333,0.252,0.149
0.157,0.498,0.341,-0.328,-0.092,0.419,-0.078,0.62,0.4,0.379,0.289,0.182
0.194,0.532,0.339,-0.363,-0.072,0.435,-0.076,0.576,0.385,0.378,0.295,0.177
0.191,0.533,0.341,-0.362,-0.075,0.437,-0.072,0.476,0.343,0.356,0.274,0.165
0.148,0.491,0.343,-0.319,-0.098,0.417,-0.07,0.323,0.236,0.287,0.222,0.135
0.084,0.457,0.373,-0.27,-0.145,0.414,-0.067,0.159,0.092,0.163,0.127,0.067
0.005,0.418,0.413,-0.212,-0.205,0.415,-0.065,0.021,-0.044,0.061,0.044,-0.002
-0.03,0.391,0.421,-0.181,-0.226,0.406,-0.065,-0.078,-0.145,-0.023,-0.026,-0.063
-0.077,0.362,0.439,-0.143,-0.258,0.4,-0.065,-0.142,-0.212,-0.08,-0.079,-0.1
-0.095,0.349,0.444,-0.128,-0.269,0.396,-0.065,-0.177,-0.251,-0.112,-0.104,-0.115
-0.1,0.347,0.446,-0.124,-0.274,0.396,-0.065,-0.192,-0.265,-0.128,-0.12,-0.129
-0.108,0.343,0.451,-0.118,-0.28,0.397,-0.06,-0.195,-0.275,-0.13,-0.118,-0.136
-0.113,0.339,0.453,-0.113,-0.283,0.396,-0.061,-0.204,-0.287,-0.142,-0.127,-0.14
-0.12,0.335,0.455,-0.108,-0.288,0.395,-0.08,-0.216,-0.307,-0.15,-0.141,-0.144
-0.117,0.333,0.45,-0.108,-0.284,0.391,-0.085,-0.21,-0.311,-0.15,-0.144,-0.145
-0.124,0.325,0.448,-0.101,-0.286,0.386,-0.079,-0.205,-0.309,-0.15,-0.149,-0.146
-0.103,0.343,0.445,-0.121,-0.274,0.394,-0.077,-0.202,-0.307,-0.15,-0.147,-0.144
-0.089,0.352,0.442,-0.132,-0.266,0.397,-0.072,-0.195,-0.304,-0.149,-0.145,-0.149
-0.095,0.344,0.44,-0.125,-0.268,0.392,-0.069,-0.201,-0.306,-0.156,-0.145,-0.156
-0.096,0.345,0.441,-0.125,-0.269,0.393,-0.071,-0.212,-0.305,-0.166,-0.142,-0.155
-0.111,0.339,0.45,-0.114,-0.28,0.394,-0.069,-0.216,-0.305,-0.165,-0.139,-0.155
-0.112,0.342,0.454,-0.115,-0.283,0.397,-0.069,-0.219,-0.305,-0.165,-0.142,-0.155
-0.097,0.354,0.45,-0.129,-0.274,0.402,-0.088,-0.225,-0.305,-0.165,-0.158,-0.155
-0.098,0.351,0.449,-0.126,-0.274,0.4,-0.091,-0.224,-0.305,-0.164,-0.162,-0.156
-0.1,0.343,0.444,-0.122,-0.272,0.393,-0.089,-0.228,-0.307,-0.168,-0.158,-0.161
-0.103,0.341,0.444,-0.119,-0.274,0.392,-0.086,-0.229,-0.311,-0.17,-0.162,-0.16
-0.106,0.329,0.435,-0.112,-0.271,0.382,-0.084,-0.234,-0.315,-0.176,-0.158,-0.16
-0.111,0.342,0.454,-0.115,-0.283,0.398,-0.087,-0.25,-0.323,-0.183,-0.166,-0.161
-0.125,0.371,0.497,-0.123,-0.311,0.433,-0.088,-0.25,-0.325,-0.186,-0.185,-0.158
-0.124,0.37,0.494,-0.124,-0.309,0.431,-0.118,-0.253,-0.329,-0.189,-0.185,-0.147
-0.127,0.369,0.496,-0.122,-0.311,0.432,-0.102,-0.256,-0.33,-0.192,-0.184,-0.051
-0.123,0.371,0.494,-0.125,-0.308,0.432,-0.069,-0.254,-0.335,-0.195,-0.185,0.009
-0.128,0.368,0.496,-0.121,-0.312,0.432,-0.047,-0.256,-0.335,-0.19,-0.184,-0.004
-0.117,0.373,0.491,-0.128,-0.304,0.431,-0.059,-0.255,-0.325,-0.186,-0.188,0.002
-0.097,0.378,0.474,-0.141,-0.286,0.426,-0.064,-0.255,-0.315,-0.187,-0.19,-0.002
