-0.034,-0.574,-0.54,0.304,0.253,-0.556,0.2,0.25,0.135,0.165,0.135,0.115
-0.038,-0.575,-0.537,0.306,0.25,-0.555,0.199,0.248,0.132,0.163,0.134,0.114
-0.057,-0.584,-0.527,0.32,0.235,-0.555,0.195,0.242,0.126,0.157,0.13,0.11
-0.066,-0.592,-0.525,0.329,0.229,-0.558,0.192,0.238,0.121,0.154,0.127,0.107
-0.08,-0.588,-0.508,0.334,0.214,-0.548,0.187,0.234,0.115,0.149,0.122,0.102
-0.085,-0.59,-0.505,0.338,0.21,-0.548,0.184,0.229,0.11,0.144,0.119,0.099
-0.058,-0.59,-0.531,0.324,0.237,-0.561,0.181,0.224,0.104,0.14,0.115,0.096
-0.061,-0.588,-0.526,0.324,0.233,-0.557,0.176,0.218,0.098,0.134,0.109,0.093
-0.068,-0.619,-0.551,0.344,0.241,-0.585,0.173,0.213,0.094,0.131,0.106,0.091
-0.065,-0.609,-0.544,0.337,0.24,-0.576,0.17,0.208,0.087,0.126,0.101,0.087
-0.056,-0.57,-0.514,0.313,0.229,-0.542,0.164,0.2,0.082,0.122,0.096,0.085
-0.038,-0.561,-0.523,0.299,0.242,-0.542,0.175,0.21,0.081,0.119,0.094,0.085
-0.037,-0.554,-0.517,0.296,0.241,-0.535,0.187,0.229,0.085,0.12,0.095,0.085
-0.039,-0.553,-0.513,0.296,0.237,-0.533,0.184,0.234,0.088,0.12,0.094,0.085
-0.045,-0.55,-0.506,0.298,0.23,-0.528,0.183,0.239,0.09,0.119,0.095,0.084
-0.047,-0.545,-0.499,0.296,0.226,-0.522,0.18,0.242,0.097,0.122,0.095,0.086
-0.053,-0.546,-0.493,0.3,0.22,-0.519,0.179,0.243,0.091,0.115,0.094,0.082
-0.045,-0.53,-0.485,0.288,0.22,-0.507,0.192,0.248,0.105,0.131,0.104,0.091
-0.01,-0.491,-0.48,0.251,0.236,-0.485,0.205,0.248,0.112,0.133,0.106,0.093
-0.014,-0.478,-0.463,0.246,0.225,-0.47,0.214,0.252,0.119,0.143,0.122,0.107
-0.02,-0.479,-0.459,0.25,0.22,-0.469,0.202,0.253,0.138,0.168,0.142,0.131
-0.012,-0.472,-0.46,0.242,0.224,-0.466,0.167,0.236,0.121,0.15,0.129,0.117
-0.01,-0.474,-0.464,0.242,0.227,-0.469,0.138,0.233,0.112,0.136,0.115,0.099
-0.015,-0.466,-0.451,0.241,0.218,-0.458,0.113,0.207,0.082,0.116,0.098,0.084
-0.037,-0.487,-0.45,0.262,0.207,-0.468,0.118,0.194,0.077,0.104,0.08,0.07
-0.047,-0.52,-0.474,0.283,0.214,-0.497,0.107,0.157,0.06,0.09,0.071,0.064
-0.062,-0.539,-0.477,0.301,0.207,-0.507,0.112,0.169,0.071,0.093,0.069,0.059
-0.054,-0.548,-0.494,0.301,0.22,-0.521,0.101,0.146,0.055,0.074,0.054,0.047
-0.049,-0.542,-0.493,0.295,0.222,-0.517,0.111,0.144,0.058,0.08,0.055,0.049
-0.043,-0.546,-0.503,0.295,0.231,-0.524,0.127,0.147,0.06,0.067,0.04,0.031
-0.023,-0.495,-0.472,0.259,0.225,-0.483,0.138,0.24,0.083,0.074,0.047,0.022
0.025,-0.505,-0.529,0.24,0.277,-0.517,0.313,0.763,0.483,0.241,0.099,0.029
0.291,0.051,-0.24,-0.171,0.265,-0.094,-0.004,-0.029,0.816,0.881,0.682,0.539
0.378,0.849,0.471,-0.614,-0.047,0.66,-0.637,-1.555,0.884,1.668,1.493,1.267
-0.006,0.461,0.467,-0.227,-0.237,0.464,-0.747,-1.78,0.08,0.918,0.972,0.908
-0.2,-0.21,-0.009,0.205,-0.095,-0.109,-0.538,-1.245,-0.69,-0.129,0.104,0.225
-0.132,-0.385,-0.253,0.259,0.06,-0.319,-0.215,-0.433,-0.287,-0.077,0.018,0.062
-0.106,-0.422,-0.316,0.264,0.105,-0.369,0.004,-0.008,-0.069,-0.031,-0.005,0.004
-0.068,-0.41,-0.342,0.239,0.137,-0.376,0.068,0.104,-0.022,-0.001,0.001,0.013
-0.073,-0.454,-0.381,0.264,0.154,-0.417,0.097,0.175,0.04,0.022,0.008,0.01
-0.083,-0.458,-0.375,0.271,0.146,-0.416,0.105,0.17,0.021,0.016,0.003,0.009
-0.088,-0.457,-0.369,0.272,0.141,-0.413,0.113,0.208,0.069,0.034,0.018,0.01
-0.092,-0.455,-0.363,0.274,0.136,-0.409,0.108,0.201,0.052,0.024,0.01,0.002
-0.059,-0.425,-0.366,0.242,0.154,-0.395,0.111,0.213,0.065,0.041,0.015,0.007
-0.044,-0.4,-0.356,0.222,0.156,-0.378,0.109,0.213,0.058,0.032,0.005,0.007
-0.037,-0.377,-0.34,0.207,0.152,-0.358,0.11,0.214,0.061,0.042,0.007,0.017
-0.03,-0.364,-0.334,0.197,0.152,-0.349,0.114,0.228,0.076,0.04,0.006,0.019
-0.042,-0.36,-0.318,0.202,0.138,-0.339,0.115,0.251,0.092,0.052,0.018,0.026
-0.037,-0.33,-0.293,0.184,0.128,-0.311,0.115,0.255,0.097,0.058,0.026,0.031
-0.032,-0.309,-0.277,0.171,0.123,-0.292,0.115,0.271,0.114,0.062,0.032,0.037
-0.036,-0.304,-0.268,0.17,0.116,-0.286,0.115,0.301,0.142,0.085,0.043,0.039
-0.012,-0.273,-0.261,0.143,0.125,-0.267,0.114,0.329,0.169,0.104,0.05,0.052
0.018,-0.227,-0.245,0.105,0.131,-0.236,0.102,0.371,0.203,0.134,0.085,0.075
0.037,-0.164,-0.202,0.064,0.12,-0.183,0.09,0.407,0.237,0.166,0.107,0.09
0.044,-0.115,-0.16,0.036,0.102,-0.138,0.083,0.446,0.284,0.199,0.131,0.111
0.062,-0.059,-0.12,-0.001,0.092,-0.09,0.073,0.487,0.35,0.267,0.19,0.15
0.099,0.008,-0.091,-0.054,0.095,-0.041,0.067,0.52,0.412,0.328,0.241,0.195
0.106,0.051,-0.056,-0.078,0.081,-0.003,0.058,0.527,0.45,0.378,0.285,0.23
0.123,0.093,-0.03,-0.108,0.076,0.031,0.055,0.516,0.482,0.421,0.311,0.25
0.15,0.128,-0.021,-0.139,0.085,0.053,0.043,0.515,0.491,0.43,0.331,0.272
0.148,0.126,-0.022,-0.137,0.085,0.052,0.05,0.499,0.492,0.431,0.339,0.288
0.131,0.096,-0.035,-0.113,0.083,0.03,0.086,0.453,0.465,0.414,0.311,0.265
0.082,0.02,-0.061,-0.05,0.071,-0.02,0.1,0.402,0.384,0.34,0.261,0.206
0.049,-0.068,-0.117,0.01,0.083,-0.092,0.109,0.337,0.291,0.245,0.185,0.141
0.033,-0.111,-0.145,0.039,0.089,-0.128,0.111,0.265,0.197,0.169,0.108,0.088
0.002,-0.16,-0.161,0.079,0.082,-0.16,0.109,0.203,0.119,0.098,0.046,0.037
-0.021,-0.187,-0.165,0.104,0.072,-0.176,0.111,0.157,0.065,0.047,0.005,0.011
-0.035,-0.211,-0.176,0.123,0.07,-0.193,0.11,0.135,0.035,0.032,-0.006,0.007
-0.038,-0.238,-0.2,0.138,0.081,-0.219,0.108,0.125,0.029,0.028,-0.008,-0.001
-0.048,-0.235,-0.187,0.141,0.07,-0.21,0.104,0.119,0.022,0.022,-0.012,-0.007
-0.025,-0.23,-0.205,0.128,0.09,-0.217,0.105,0.112,0.016,0.016,-0.015,-0.014
-0.019,-0.233,-0.214,0.126,0.098,-0.223,0.102,0.106,0.009,0.011,-0.018,-0.021
-0.04,-0.244,-0.205,0.142,0.083,-0.224,0.099,0.1,0.006,0.013,-0.023,-0.027
-0.032,-0.232,-0.2,0.132,0.084,-0.215,0.102,0.108,0.011,0.016,-0.024,-0.035
-0.037,-0.231,-0.193,0.134,0.078,-0.211,0.11,0.114,0.014,0.019,-0.019,-0.023
-0.033,-0.257,-0.224,0.145,0.096,-0.24,0.111,0.116,0.017,0.022,-0.016,-0.007
-0.036,-0.275,-0.238,0.156,0.102,-0.256,0.109,0.125,0.022,0.025,-0.013,-0.005
-0.047,-0.28,-0.233,0.164,0.093,-0.256,0.111,0.122,0.025,0.024,-0.008,-0.005
-0.048,-0.283,-0.235,0.166,0.094,-0.259,0.109,0.113,0.025,0.019,-0.005,-0.002
-0.035,-0.283,-0.248,0.16,0.107,-0.266,0.111,0.109,0.025,0.02,-0.008,0.0
-0.006,-0.278,-0.272,0.142,0.133,-0.275,0.115,0.099,0.025,0.017,-0.011,-0.001
-0.001,-0.275,-0.274,0.138,0.137,-0.274,0.111,0.097,0.025,0.014,-0.014,-0.005
-0.028,-0.298,-0.27,0.163,0.121,-0.284,0.11,0.109,0.025,0.015,-0.017,-0.005
-0.035,-0.327,-0.292,0.181,0.129,-0.309,0.11,0.11,0.024,0.011,-0.02,-0.005
-0.032,-0.333,-0.301,0.183,0.135,-0.317,0.105,0.105,0.018,0.006,-0.02,-0.007
-0.043,-0.333,-0.29,0.188,0.124,-0.311,0.105,0.104,0.011,0.002,-0.02,-0.013
-0.039,-0.33,-0.29,0.185,0.125,-0.31,0.104,0.1,0.004,-0.003,-0.02,-0.017
-0.047,-0.33,-0.282,0.189,0.117,-0.306,0.1,0.099,-0.003,-0.007,-0.024,-0.021
-0.05,-0.33,-0.281,0.19,0.115,-0.305,0.1,0.094,-0.009,-0.012,-0.031,-0.026
-0.025,-0.329,-0.304,0.177,0.14,-0.317,0.1,0.088,-0.014,-0.015,-0.036,-0.031
-0.025,-0.33,-0.305,0.178,0.14,-0.317,0.1,0.085,-0.016,-0.017,-0.041,-0.035
-0.036,-0.324,-0.288,0.18,0.126,-0.306,0.1,0.08,-0.019,-0.021,-0.044,-0.04
-0.042,-0.318,-0.275,0.18,0.117,-0.296,0.1,0.075,-0.022,-0.016,-0.048,-0.043
-0.05,-0.312,-0.262,0.182,0.106,-0.287,0.1,0.071,-0.025,-0.015,-0.052,-0.048
-0.051,-0.307,-0.256,0.179,0.103,-0.281,0.1,0.066,-0.026,-0.015,-0.057,-0.05
-0.053,-0.304,-0.251,0.179,0.099,-0.277,0.1,0.061,-0.03,-0.011,-0.06,-0.05
-0.052,-0.298,-0.246,0.175,0.097,-0.272,0.1,0.057,-0.034,-0.009,-0.062,-0.054
-0.056,-0.295,-0.239,0.176,0.092,-0.267,0.099,0.053,-0.036,-0.012,-0.065,-0.055
-0.053,-0.289,-0.236,0.171,0.091,-0.262,0.087,0.048,-0.041,-0.024,-0.068,-0.055
-0.071,-0.289,-0.218,0.18,0.074,-0.253,0.076,0.046,-0.035,-0.04,-0.07,-0.06
-0.067,-0.269,-0.202,0.169,0.068,-0.236,0.065,0.042,-0.039,-0.048,-0.073,-0.063
-0.001,-0.21,-0.208,0.106,0.104,-0.208,0.066,0.04,-0.055,-0.053,-0.081,-0.071
0.004,-0.207,-0.21,0.102,0.108,-0.208,0.064,0.036,-0.056,-0.056,-0.085,-0.077
-0.017,-0.234,-0.217,0.126,0.1,-0.225,0.061,0.036,-0.055,-0.056,-0.085,-0.073
-0.031,-0.226,-0.195,0.128,0.083,-0.21,0.061,0.038,-0.051,-0.055,-0.086,-0.071
-0.048,-0.218,-0.17,0.133,0.061,-0.194,0.057,0.043,-0.049,-0.05,-0.08,-0.068
-0.036,-0.207,-0.171,0.121,0.068,-0.189,0.074,0.043,-0.049,-0.05,-0.072,-0.065
-0.042,-0.187,-0.145,0.115,0.051,-0.166,0.087,0.049,-0.044,-0.049,-0.065,-0.063
-0.032,-0.153,-0.122,0.093,0.045,-0.137,0.097,0.063,-0.041,-0.045,-0.062,-0.06
-0.014,-0.119,-0.104,0.067,0.045,-0.111,0.097,0.064,-0.038,-0.045,-0.064,-0.06
-0.049,-0.113,-0.065,0.081,0.008,-0.089,0.082,0.061,-0.032,-0.043,-0.069,-0.061
-0.067,-0.116,-0.049,0.091,-0.008,-0.082,0.059,0.051,-0.032,-0.04,-0.069,-0.058
-0.012,-0.113,-0.101,0.063,0.045,-0.107,0.025,0.057,-0.031,-0.039,-0.075,-0.062
0.011,-0.128,-0.139,0.059,0.075,-0.133,0.011,0.031,-0.045,-0.044,-0.073,-0.057
-0.032,-0.183,-0.151,0.108,0.06,-0.167,0.019,0.017,-0.054,-0.061,-0.085,-0.074
-0.049,-0.206,-0.157,0.128,0.054,-0.182,0.01,-0.01,-0.084,-0.09,-0.109,-0.093
-0.073,-0.216,-0.143,0.145,0.035,-0.18,0.019,0.004,-0.073,-0.082,-0.106,-0.087
-0.068,-0.221,-0.154,0.145,0.043,-0.187,0.012,-0.01,-0.082,-0.094,-0.115,-0.094
-0.066,-0.196,-0.131,0.131,0.033,-0.163,0.013,-0.014,-0.074,-0.078,-0.103,-0.089
-0.062,-0.217,-0.155,0.139,0.047,-0.185,0.007,0.019,-0.061,-0.089,-0.119,-0.109
0.009,-0.172,-0.181,0.081,0.095,-0.176,0.031,0.101,-0.042,-0.085,-0.108,-0.106
0.041,-0.171,-0.211,0.065,0.127,-0.191,0.195,0.589,0.323,0.072,-0.051,-0.095
0.28,0.334,0.053,-0.307,0.113,0.194,-0.105,-0.133,0.655,0.662,0.483,0.377
0.403,1.108,0.705,-0.756,-0.151,0.906,-0.733,-1.671,0.716,1.424,1.275,1.098
0.013,0.777,0.764,-0.395,-0.376,0.77,-0.895,-1.954,-0.052,0.755,0.833,0.81
-0.205,0.121,0.326,0.042,-0.266,0.223,-0.654,-1.386,-0.78,-0.237,-0.006,0.138
-0.151,-0.078,0.073,0.114,-0.112,-0.002,-0.298,-0.554,-0.398,-0.197,-0.137,-0.073
-0.118,-0.114,0.003,0.116,-0.06,-0.055,-0.096,-0.14,-0.188,-0.177,-0.161,-0.133
-0.076,-0.098,-0.023,0.087,-0.026,-0.06,-0.037,-0.043,-0.147,-0.149,-0.153,-0.13
-0.068,-0.142,-0.074,0.105,0.003,-0.108,-0.011,0.034,-0.093,-0.124,-0.157,-0.138
-0.058,-0.139,-0.081,0.098,0.011,-0.11,-0.008,0.041,-0.12,-0.139,-0.164,-0.136
-0.056,-0.135,-0.079,0.096,0.012,-0.107,0.001,0.065,-0.089,-0.115,-0.155,-0.133
-0.053,-0.134,-0.081,0.093,0.014,-0.107,0.003,0.05,-0.11,-0.128,-0.16,-0.134
-0.049,-0.128,-0.079,0.089,0.015,-0.104,0.011,0.081,-0.086,-0.109,-0.148,-0.127
-0.048,-0.113,-0.064,0.081,0.008,-0.088,0.014,0.092,-0.086,-0.115,-0.151,-0.132
-0.039,-0.081,-0.043,0.06,0.002,-0.062,0.01,0.097,-0.07,-0.103,-0.142,-0.124
-0.044,-0.081,-0.036,0.063,-0.004,-0.058,0.01,0.104,-0.056,-0.1,-0.142,-0.121
-0.048,-0.08,-0.032,0.064,-0.008,-0.055,0.009,0.121,-0.044,-0.094,-0.136,-0.115
-0.054,-0.08,-0.025,0.067,-0.015,-0.052,0.005,0.142,-0.029,-0.088,-0.124,-0.111
-0.043,-0.064,-0.02,0.054,-0.011,-0.042,0.005,0.163,-0.015,-0.084,-0.113,-0.106
-0.016,-0.031,-0.015,0.024,0.0,-0.023,0.005,0.193,0.016,-0.068,-0.099,-0.101
0.008,0.011,0.004,-0.009,0.002,0.007,0.005,0.213,0.037,-0.047,-0.09,-0.089
0.024,0.055,0.03,-0.04,-0.003,0.042,0.005,0.253,0.074,-0.014,-0.07,-0.065
0.011,0.068,0.056,-0.04,-0.023,0.062,0.005,0.304,0.125,0.026,-0.031,-0.035
0.019,0.08,0.061,-0.05,-0.021,0.07,0.006,0.355,0.183,0.081,0.018,0.006
0.065,0.128,0.062,-0.096,0.001,0.095,0.004,0.393,0.25,0.143,0.065,0.04
0.098,0.191,0.093,-0.144,0.002,0.142,0.001,0.411,0.307,0.196,0.114,0.085
0.109,0.247,0.138,-0.178,-0.014,0.192,-0.002,0.429,0.347,0.247,0.159,0.116
0.119,0.278,0.159,-0.199,-0.02,0.218,-0.005,0.432,0.384,0.291,0.195,0.144
0.14,0.298,0.157,-0.219,-0.009,0.227,-0.007,0.423,0.405,0.318,0.227,0.181
0.14,0.292,0.153,-0.217,-0.007,0.222,-0.011,0.418,0.403,0.323,0.234,0.172
0.131,0.292,0.161,-0.212,-0.015,0.226,-0.007,0.374,0.374,0.3,0.211,0.152
0.13,0.28,0.15,-0.205,-0.01,0.215,-0.004,0.315,0.307,0.228,0.152,0.122
0.089,0.191,0.102,-0.14,-0.007,0.146,-0.006,0.248,0.212,0.135,0.073,0.057
0.048,0.132,0.084,-0.09,-0.018,0.107,-0.001,0.163,0.11,0.057,0.003,-0.01
0.051,0.127,0.077,-0.089,-0.013,0.102,0.0,0.103,0.031,-0.016,-0.06,-0.064
0.026,0.094,0.067,-0.06,-0.021,0.08,0.0,0.054,-0.02,-0.071,-0.11,-0.112
-0.019,0.039,0.058,-0.011,-0.039,0.049,0.004,0.02,-0.057,-0.099,-0.132,-0.127
-0.041,0.01,0.05,0.015,-0.046,0.03,0.007,0.011,-0.081,-0.102,-0.143,-0.132
-0.065,0.001,0.066,0.032,-0.065,0.033,0.01,0.004,-0.089,-0.1,-0.146,-0.136
-0.071,-0.006,0.064,0.038,-0.067,0.029,0.013,-0.002,-0.084,-0.1,-0.14,-0.129
-0.061,-0.008,0.053,0.034,-0.057,0.022,0.015,-0.01,-0.077,-0.096,-0.138,-0.129
-0.061,-0.015,0.046,0.038,-0.053,0.015,0.015,-0.015,-0.071,-0.094,-0.133,-0.122
-0.052,-0.016,0.035,0.033,-0.043,0.009,0.015,-0.006,-0.064,-0.097,-0.13,-0.122
-0.049,-0.032,0.017,0.04,-0.033,-0.008,0.026,0.011,-0.057,-0.1,-0.127,-0.108
-0.046,-0.061,-0.015,0.054,-0.015,-0.038,0.045,0.033,-0.055,-0.1,-0.122,-0.089
-0.039,-0.074,-0.035,0.057,-0.002,-0.055,0.053,0.046,-0.055,-0.1,-0.119,-0.09
-0.063,-0.084,-0.021,0.074,-0.02,-0.053,0.05,0.045,-0.055,-0.1,-0.116,-0.09
-0.067,-0.085,-0.018,0.077,-0.024,-0.051,0.05,0.045,-0.055,-0.1,-0.111,-0.096
-0.05,-0.085,-0.035,0.068,-0.007,-0.06,0.048,0.047,-0.056,-0.1,-0.111,-0.101
-0.048,-0.084,-0.036,0.066,-0.005,-0.06,0.045,0.05,-0.061,-0.1,-0.116,-0.099
-0.028,-0.087,-0.059,0.058,0.016,-0.073,0.045,0.06,-0.077,-0.1,-0.119,-0.1
-0.012,-0.081,-0.069,0.046,0.029,-0.074,0.045,0.06,-0.092,-0.1,-0.124,-0.108
-0.033,-0.106,-0.073,0.07,0.02,-0.089,0.045,0.052,-0.089,-0.1,-0.126,-0.111
-0.043,-0.139,-0.096,0.091,0.027,-0.117,0.045,0.046,-0.09,-0.101,-0.125,-0.109
-0.026,-0.116,-0.09,0.071,0.032,-0.102,0.045,0.039,-0.094,-0.107,-0.125,-0.11
-0.04,-0.124,-0.084,0.082,0.022,-0.104,0.045,0.032,-0.096,-0.114,-0.125,-0.11
-0.062,-0.143,-0.081,0.102,0.01,-0.112,0.045,0.012,-0.1,-0.115,-0.126,-0.11
-0.053,-0.138,-0.085,0.096,0.016,-0.111,0.045,-0.001,-0.099,-0.115,-0.135,-0.114
-0.056,-0.141,-0.085,0.099,0.014,-0.112,0.045,-0.005,-0.095,-0.115,-0.137,-0.118
-0.053,-0.14,-0.087,0.096,0.017,-0.113,0.045,-0.01,-0.095,-0.114,-0.135,-0.123
-0.048,-0.14,-0.092,0.094,0.022,-0.116,0.045,-0.014,-0.091,-0.11,-0.135,-0.124
-0.057,-0.144,-0.087,0.101,0.015,-0.115,0.045,-0.019,-0.089,-0.11,-0.13,-0.12
-0.049,-0.148,-0.1,0.099,0.026,-0.124,0.042,-0.021,-0.104,-0.117,-0.129,-0.12
-0.029,-0.144,-0.115,0.087,0.043,-0.129,0.036,-0.019,-0.111,-0.121,-0.131,-0.118
-0.017,-0.138,-0.121,0.078,0.052,-0.129,0.031,-0.021,-0.109,-0.119,-0.135,-0.114
-0.033,-0.135,-0.103,0.084,0.036,-0.119,0.028,-0.019,-0.11,-0.12,-0.135,-0.115
-0.033,-0.129,-0.097,0.081,0.032,-0.113,0.022,-0.021,-0.11,-0.119,-0.137,-0.118
-0.031,-0.126,-0.095,0.078,0.033,-0.11,0.021,-0.032,-0.109,-0.121,-0.141,-0.12
-0.044,-0.13,-0.086,0.087,0.021,-0.108,0.026,-0.036,-0.105,-0.124,-0.139,-0.12
-0.043,-0.146,-0.103,0.095,0.03,-0.125,0.03,-0.034,-0.105,-0.125,-0.144,-0.12
-0.048,-0.166,-0.118,0.107,0.036,-0.142,0.027,-0.036,-0.105,-0.125,-0.145,-0.12
-0.048,-0.162,-0.114,0.105,0.033,-0.138,0.024,-0.035,-0.105,-0.125,-0.145,-0.119
-0.043,-0.148,-0.105,0.095,0.031,-0.126,0.025,-0.036,-0.105,-0.125,-0.145,-0.115
-0.038,-0.143,-0.105,0.091,0.034,-0.124,0.025,-0.04,-0.107,-0.122,-0.145,-0.115
-0.029,-0.131,-0.102,0.08,0.037,-0.116,0.025,-0.04,-0.111,-0.12,-0.145,-0.115
-0.036,-0.134,-0.098,0.085,0.031,-0.116,0.024,-0.041,-0.11,-0.116,-0.145,-0.115
-0.052,-0.148,-0.096,0.1,0.023,-0.122,0.019,-0.045,-0.11,-0.114,-0.145,-0.115
-0.047,-0.141,-0.094,0.094,0.024,-0.117,0.015,-0.045,-0.11,-0.11,-0.145,-0.112
-0.04,-0.13,-0.09,0.085,0.025,-0.11,0.013,-0.042,-0.106,-0.111,-0.145,-0.107
-0.033,-0.119,-0.086,0.076,0.027,-0.102,0.008,-0.032,-0.103,-0.121,-0.146,-0.105
-0.026,-0.117,-0.091,0.072,0.033,-0.104,0.005,-0.021,-0.098,-0.114,-0.139,-0.1
-0.028,-0.117,-0.09,0.073,0.031,-0.103,0.011,-0.013,-0.096,-0.106,-0.126,-0.097
-0.021,-0.083,-0.062,0.053,0.021,-0.072,0.036,-0.003,-0.092,-0.097,-0.115,-0.093
-0.024,-0.046,-0.022,0.035,-0.001,-0.034,0.066,0.001,-0.09,-0.092,-0.105,-0.09
-0.021,-0.03,-0.009,0.026,-0.006,-0.019,0.059,0.007,-0.091,-0.094,-0.103,-0.09
0.025,0.009,-0.016,-0.016,0.02,-0.004,0.037,0.01,-0.085,-0.095,-0.107,-0.087
0.011,0.018,0.006,-0.014,0.002,0.012,0.018,-0.01,-0.087,-0.099,-0.11,-0.085
-0.023,-0.038,-0.015,0.031,-0.004,-0.026,0.009,-0.011,-0.081,-0.098,-0.113,-0.083
0.014,-0.066,-0.079,0.026,0.047,-0.072,-0.002,-0.042,-0.101,-0.11,-0.118,-0.097
-0.003,-0.097,-0.095,0.05,0.046,-0.096,-0.001,-0.05,-0.116,-0.128,-0.138,-0.12
-0.047,-0.144,-0.097,0.096,0.025,-0.121,-0.002,-0.057,-0.132,-0.144,-0.149,-0.121
-0.077,-0.168,-0.09,0.123,0.007,-0.129,0.002,-0.043,-0.123,-0.14,-0.14,-0.117
-0.072,-0.175,-0.103,0.124,0.016,-0.138,0.002,-0.04,-0.125,-0.151,-0.151,-0.125
-0.063,-0.174,-0.111,0.119,0.024,-0.142,0.006,-0.042,-0.125,-0.139,-0.138,-0.114
-0.078,-0.206,-0.127,0.142,0.025,-0.166,0.005,-0.015,-0.105,-0.15,-0.152,-0.126
-0.024,-0.164,-0.14,0.094,0.058,-0.151,0.031,0.021,-0.08,-0.123,-0.146,-0.13
0.043,-0.163,-0.206,0.06,0.125,-0.184,0.197,0.514,0.251,0.013,-0.104,-0.136
0.289,0.263,-0.026,-0.276,0.158,0.118,-0.033,0.014,0.607,0.543,0.393,0.3
0.427,1.026,0.599,-0.727,-0.086,0.812,-0.62,-1.494,0.724,1.344,1.207,1.073
0.027,0.77,0.742,-0.399,-0.358,0.756,-0.8,-1.93,0.009,0.794,0.868,0.865
-0.221,0.083,0.304,0.068,-0.263,0.194,-0.584,-1.432,-0.767,-0.221,0.028,0.172
-0.144,-0.141,0.003,0.143,-0.074,-0.069,-0.247,-0.596,-0.429,-0.222,-0.13,-0.045
-0.107,-0.201,-0.094,0.154,-0.006,-0.147,-0.027,-0.151,-0.17,-0.158,-0.136,-0.094
-0.063,-0.198,-0.135,0.131,0.036,-0.167,0.036,-0.051,-0.125,-0.139,-0.133,-0.083
-0.063,-0.22,-0.156,0.142,0.047,-0.188,0.061,0.033,-0.085,-0.121,-0.126,-0.097
-0.077,-0.245,-0.168,0.162,0.046,-0.206,0.079,0.018,-0.11,-0.132,-0.13,-0.103
-0.078,-0.256,-0.179,0.167,0.051,-0.217,0.094,0.06,-0.051,-0.109,-0.12,-0.093
-0.087,-0.256,-0.169,0.172,0.041,-0.212,0.086,0.073,-0.061,-0.119,-0.125,-0.097
-0.065,-0.225,-0.16,0.145,0.047,-0.192,0.085,0.104,-0.041,-0.099,-0.115,-0.088
-0.038,-0.19,-0.152,0.114,0.058,-0.171,0.082,0.105,-0.041,-0.1,-0.118,-0.091
-0.041,-0.184,-0.143,0.113,0.051,-0.163,0.078,0.095,-0.033,-0.086,-0.111,-0.084
-0.047,-0.182,-0.135,0.115,0.044,-0.158,0.098,0.098,-0.025,-0.081,-0.111,-0.08
-0.054,-0.18,-0.126,0.117,0.036,-0.153,0.106,0.108,-0.021,-0.073,-0.107,-0.076
-0.042,-0.149,-0.107,0.096,0.033,-0.128,0.104,0.134,-0.003,-0.061,-0.099,-0.071
-0.004,-0.103,-0.099,0.054,0.048,-0.101,0.105,0.136,0.01,-0.054,-0.091,-0.067
0.014,-0.092,-0.106,0.04,0.06,-0.099,0.105,0.156,0.03,-0.038,-0.072,-0.061
0.017,-0.083,-0.1,0.033,0.058,-0.091,0.105,0.195,0.063,-0.015,-0.045,-0.044
0.025,-0.072,-0.097,0.024,0.061,-0.084,0.1,0.229,0.099,0.021,-0.022,-0.02
0.039,-0.049,-0.088,0.005,0.064,-0.068,0.1,0.273,0.14,0.05,0.005,0.01
0.066,0.0,-0.066,-0.033,0.066,-0.033,0.099,0.32,0.198,0.095,0.047,0.046
0.073,0.038,-0.035,-0.055,0.053,0.002,0.095,0.366,0.264,0.162,0.097,0.086
0.085,0.087,0.002,-0.086,0.041,0.044,0.095,0.396,0.333,0.224,0.156,0.134
0.125,0.147,0.022,-0.137,0.052,0.084,0.097,0.421,0.377,0.277,0.2,0.171
0.143,0.184,0.041,-0.164,0.051,0.112,0.101,0.453,0.406,0.317,0.242,0.2
0.152,0.23,0.078,-0.192,0.037,0.154,0.099,0.46,0.428,0.342,0.265,0.221
0.142,0.24,0.098,-0.191,0.021,0.169,0.104,0.469,0.442,0.356,0.275,0.232
0.128,0.213,0.085,-0.171,0.021,0.149,0.105,0.46,0.435,0.338,0.284,0.224
0.131,0.162,0.031,-0.146,0.05,0.096,0.106,0.4,0.38,0.294,0.233,0.19
0.106,0.078,-0.027,-0.092,0.066,0.025,0.122,0.321,0.292,0.225,0.163,0.138
0.061,0.006,-0.054,-0.033,0.057,-0.024,0.129,0.236,0.203,0.131,0.087,0.067
0.025,-0.06,-0.086,0.018,0.056,-0.073,0.129,0.172,0.128,0.066,0.027,0.015
0.001,-0.096,-0.098,0.048,0.05,-0.097,0.125,0.13,0.069,0.011,-0.015,-0.023
-0.012,-0.116,-0.104,0.065,0.046,-0.11,0.12,0.094,0.034,-0.029,-0.051,-0.052
-0.024,-0.128,-0.104,0.076,0.04,-0.116,0.118,0.068,0.009,-0.043,-0.063,-0.059
-0.04,-0.117,-0.078,0.079,0.019,-0.097,0.113,0.051,-0.018,-0.057,-0.081,-0.065
-0.035,-0.106,-0.07,0.071,0.018,-0.088,0.11,0.039,-0.028,-0.059,-0.086,-0.068
-0.033,-0.095,-0.063,0.064,0.015,-0.079,0.106,0.039,-0.034,-0.06,-0.08,-0.073
-0.036,-0.088,-0.052,0.062,0.008,-0.07,0.101,0.041,-0.039,-0.06,-0.079,-0.075
-0.06,-0.081,-0.021,0.071,-0.019,-0.05,0.096,0.04,-0.043,-0.059,-0.075,-0.075
-0.074,-0.08,-0.006,0.077,-0.034,-0.042,0.092,0.04,-0.046,-0.072,-0.073,-0.075
-0.046,-0.08,-0.034,0.063,-0.006,-0.057,0.088,0.04,-0.045,-0.082,-0.07,-0.075
-0.033,-0.075,-0.042,0.054,0.005,-0.058,0.083,0.038,-0.045,-0.079,-0.071,-0.076
-0.036,-0.075,-0.039,0.056,0.002,-0.057,0.08,0.033,-0.045,-0.08,-0.079,-0.079
-0.037,-0.074,-0.037,0.056,0.0,-0.055,0.077,0.03,-0.045,-0.08,-0.081,-0.08
-0.032,-0.067,-0.035,0.05,0.001,-0.051,0.075,0.027,-0.045,-0.08,-0.089,-0.08
-0.03,-0.063,-0.033,0.047,0.002,-0.048,0.071,0.022,-0.049,-0.084,-0.105,-0.081
-0.012,-0.055,-0.043,0.034,0.016,-0.049,0.07,0.02,-0.054,-0.091,-0.106,-0.079
0.004,-0.053,-0.057,0.025,0.031,-0.054,0.067,0.008,-0.061,-0.097,-0.103,-0.085
-0.004,-0.051,-0.047,0.028,0.022,-0.049,0.064,-0.012,-0.075,-0.1,-0.114,-0.095
-0.014,-0.059,-0.045,0.037,0.016,-0.052,0.065,-0.021,-0.081,-0.103,-0.122,-0.095
-0.023,-0.063,-0.04,0.043,0.009,-0.051,0.065,-0.028,-0.084,-0.112,-0.117,-0.095
-0.029,-0.062,-0.034,0.046,0.003,-0.048,0.064,-0.034,-0.089,-0.114,-0.115,-0.095
-0.034,-0.085,-0.052,0.06,0.01,-0.069,0.067,-0.035,-0.09,-0.11,-0.112,-0.094
-0.045,-0.107,-0.062,0.076,0.009,-0.084,0.07,-0.035,-0.091,-0.11,-0.109,-0.096
-0.049,-0.108,-0.059,0.079,0.005,-0.083,0.065,-0.035,-0.094,-0.11,-0.117,-0.099
-0.037,-0.095,-0.058,0.066,0.011,-0.076,0.06,-0.035,-0.096,-0.11,-0.12,-0.1
-0.039,-0.094,-0.054,0.067,0.008,-0.074,0.057,-0.035,-0.093,-0.11,-0.123,-0.1
-0.042,-0.097,-0.055,0.07,0.006,-0.076,0.05,-0.037,-0.089,-0.114,-0.125,-0.1
-0.054,-0.106,-0.052,0.08,-0.001,-0.078,0.056,-0.036,-0.083,-0.112,-0.119,-0.1
-0.059,-0.096,-0.037,0.078,-0.01,-0.067,0.068,-0.031,-0.08,-0.109,-0.114,-0.098
-0.042,-0.11,-0.067,0.076,0.013,-0.088,0.074,-0.029,-0.076,-0.106,-0.108,-0.094
-0.037,-0.154,-0.117,0.096,0.04,-0.135,0.075,-0.025,-0.069,-0.103,-0.103,-0.092
-0.035,-0.149,-0.115,0.092,0.04,-0.131,0.075,-0.02,-0.082,-0.101,-0.096,-0.089
-0.035,-0.14,-0.106,0.088,0.036,-0.123,0.075,-0.023,-0.091,-0.097,-0.099,-0.086
-0.03,-0.14,-0.11,0.085,0.04,-0.125,0.075,-0.025,-0.082,-0.107,-0.108,-0.084
-0.028,-0.14,-0.112,0.084,0.042,-0.125,0.074,-0.025,-0.08,-0.116,-0.102,-0.08
-0.023,-0.14,-0.117,0.082,0.047,-0.128,0.07,-0.028,-0.075,-0.108,-0.097,-0.08
-0.025,-0.143,-0.118,0.084,0.046,-0.13,0.07,-0.031,-0.071,-0.105,-0.094,-0.079
-0.027,-0.155,-0.128,0.091,0.051,-0.141,0.068,-0.029,-0.072,-0.1,-0.089,-0.075
-0.045,-0.161,-0.116,0.103,0.035,-0.138,0.064,-0.025,-0.071,-0.095,-0.084,-0.075
-0.067,-0.159,-0.092,0.113,0.013,-0.126,0.065,-0.018,-0.067,-0.095,-0.081,-0.073
-0.033,-0.161,-0.128,0.097,0.047,-0.144,0.072,-0.014,-0.065,-0.095,-0.077,-0.068
-0.035,-0.17,-0.135,0.103,0.05,-0.152,0.079,-0.008,-0.061,-0.095,-0.074,-0.063
-0.061,-0.164,-0.103,0.112,0.021,-0.133,0.063,0.0,-0.059,-0.095,-0.069,-0.059
-0.049,-0.148,-0.098,0.099,0.025,-0.123,0.069,-0.009,-0.065,-0.094,-0.066,-0.054
-0.026,-0.121,-0.095,0.074,0.035,-0.108,0.112,0.015,-0.059,-0.067,-0.062,-0.049
-0.008,-0.084,-0.076,0.046,0.034,-0.08,0.136,0.046,-0.046,-0.045,-0.053,-0.04
0.005,-0.044,-0.049,0.019,0.027,-0.046,0.106,0.035,-0.04,-0.046,-0.043,-0.023
0.017,-0.035,-0.052,0.009,0.035,-0.043,0.066,0.034,-0.031,-0.044,-0.032,-0.017
0.013,-0.033,-0.046,0.01,0.03,-0.039,0.063,0.017,-0.039,-0.047,-0.026,-0.023
0.02,-0.047,-0.067,0.014,0.044,-0.057,0.067,0.015,-0.03,-0.042,-0.022,-0.026
0.03,-0.091,-0.121,0.031,0.075,-0.106,0.058,0.001,-0.042,-0.051,-0.034,-0.031
-0.001,-0.128,-0.127,0.065,0.063,-0.128,0.062,-0.006,-0.061,-0.069,-0.054,-0.041
-0.034,-0.172,-0.138,0.103,0.052,-0.154,0.058,-0.005,-0.072,-0.094,-0.075,-0.061
-0.038,-0.164,-0.126,0.102,0.044,-0.145,0.054,-0.025,-0.086,-0.095,-0.073,-0.06
-0.05,-0.179,-0.129,0.115,0.04,-0.154,0.057,-0.005,-0.07,-0.098,-0.078,-0.068
-0.052,-0.169,-0.118,0.111,0.033,-0.143,0.045,-0.049,-0.082,-0.095,-0.067,-0.068
-0.054,-0.171,-0.118,0.113,0.032,-0.144,0.058,0.002,-0.041,-0.086,-0.065,-0.068
-0.033,-0.169,-0.137,0.102,0.052,-0.153,0.035,-0.019,-0.069,-0.095,-0.078,-0.082
0.008,-0.194,-0.202,0.093,0.105,-0.198,0.162,0.377,0.161,-0.004,-0.068,-0.113
0.194,0.035,-0.159,-0.115,0.177,-0.062,0.119,0.467,0.586,0.362,0.225,0.133
0.44,0.882,0.442,-0.661,-0.001,0.662,-0.411,-0.92,0.834,1.281,1.136,0.956
0.157,0.968,0.81,-0.563,-0.327,0.889,-0.695,-1.816,0.381,1.203,1.205,1.084
-0.217,0.23,0.447,-0.006,-0.332,0.338,-0.591,-1.576,-0.635,-0.012,0.238,0.331
-0.174,-0.095,0.079,0.134,-0.126,-0.008,-0.339,-0.866,-0.585,-0.265,-0.106,0.004
-0.124,-0.155,-0.031,0.14,-0.046,-0.093,-0.092,-0.249,-0.181,-0.139,-0.094,-0.053
-0.079,-0.138,-0.059,0.109,-0.01,-0.098,-0.009,-0.087,-0.139,-0.142,-0.095,-0.078
-0.018,-0.133,-0.115,0.076,0.048,-0.123,0.032,0.013,-0.052,-0.073,-0.071,-0.063
-0.011,-0.132,-0.121,0.072,0.055,-0.127,0.056,0.014,-0.073,-0.103,-0.083,-0.076
-0.048,-0.12,-0.072,0.084,0.012,-0.095,0.061,0.03,-0.048,-0.077,-0.063,-0.065
-0.062,-0.122,-0.06,0.092,-0.001,-0.091,0.06,0.057,-0.054,-0.085,-0.068,-0.073
-0.028,-0.109,-0.081,0.069,0.026,-0.094,0.059,0.077,-0.048,-0.072,-0.056,-0.066
-0.025,-0.11,-0.085,0.068,0.03,-0.097,0.061,0.085,-0.037,-0.068,-0.056,-0.064
-0.005,-0.099,-0.095,0.052,0.045,-0.097,0.058,0.081,-0.02,-0.065,-0.052,-0.06
-0.008,-0.098,-0.089,0.053,0.041,-0.093,0.053,0.09,0.001,-0.057,-0.048,-0.056
-0.012,-0.084,-0.072,0.048,0.031,-0.078,0.045,0.089,0.001,-0.058,-0.046,-0.053
0.007,-0.051,-0.058,0.022,0.032,-0.054,0.039,0.097,0.013,-0.048,-0.04,-0.049
0.007,-0.037,-0.044,0.015,0.026,-0.04,0.032,0.093,0.017,-0.042,-0.031,-0.044
0.015,0.008,-0.007,-0.012,0.011,0.001,0.026,0.111,0.032,-0.027,-0.02,-0.033
0.025,0.064,0.038,-0.045,-0.007,0.051,0.019,0.124,0.043,-0.008,-0.009,-0.026
0.028,0.072,0.044,-0.05,-0.008,0.058,0.012,0.152,0.073,0.032,0.021,-0.012
0.028,0.074,0.047,-0.052,-0.01,0.06,0.006,0.203,0.122,0.075,0.058,0.017
0.068,0.109,0.042,-0.089,0.013,0.075,-0.001,0.242,0.177,0.117,0.104,0.058
0.104,0.159,0.056,-0.132,0.024,0.107,-0.006,0.281,0.245,0.181,0.159,0.103
0.114,0.196,0.082,-0.155,0.016,0.138,-0.018,0.313,0.306,0.244,0.21,0.151
0.143,0.266,0.123,-0.205,0.01,0.194,-0.038,0.335,0.349,0.299,0.258,0.191
0.166,0.334,0.168,-0.25,-0.001,0.251,-0.037,0.344,0.395,0.347,0.302,0.221
0.18,0.365,0.185,-0.273,-0.003,0.275,-0.028,0.338,0.412,0.382,0.323,0.242
0.185,0.405,0.22,-0.295,-0.018,0.312,-0.023,0.327,0.417,0.382,0.327,0.249
0.163,0.392,0.229,-0.278,-0.033,0.31,-0.015,0.313,0.41,0.367,0.321,0.236
0.144,0.357,0.214,-0.251,-0.035,0.285,-0.011,0.283,0.356,0.335,0.278,0.202
0.109,0.303,0.194,-0.206,-0.042,0.248,0.001,0.233,0.29,0.262,0.222,0.154
0.065,0.21,0.145,-0.138,-0.04,0.177,0.015,0.175,0.202,0.176,0.153,0.092
0.047,0.148,0.101,-0.098,-0.027,0.124,0.027,0.125,0.127,0.096,0.089,0.044
0.012,0.091,0.079,-0.052,-0.034,0.085,0.04,0.076,0.063,0.037,0.045,0.005
-0.009,0.058,0.067,-0.024,-0.038,0.062,0.04,0.044,0.007,0.005,0.008,-0.032
-0.009,0.047,0.056,-0.019,-0.033,0.051,0.036,0.036,-0.002,-0.005,-0.001,-0.041
-0.013,0.038,0.051,-0.013,-0.032,0.044,0.034,0.025,-0.014,-0.012,0.001,-0.04
-0.013,0.033,0.047,-0.01,-0.03,0.04,0.03,0.018,-0.026,-0.024,-0.003,-0.04
-0.019,0.023,0.042,-0.002,-0.031,0.033,0.029,0.015,-0.038,-0.028,-0.005,-0.04
-0.019,0.018,0.038,0.0,-0.029,0.028,0.024,0.009,-0.035,-0.018,-0.006,-0.041
-0.024,0.01,0.033,0.006,-0.029,0.021,0.021,0.022,-0.019,-0.005,0.0,-0.033
-0.018,0.002,0.02,0.007,-0.019,0.011,0.018,0.032,-0.015,0.004,0.009,-0.017
-0.006,-0.004,0.002,0.005,-0.003,-0.001,0.013,0.029,-0.015,0.005,0.018,-0.008
-0.003,-0.013,-0.01,0.008,0.003,-0.011,0.01,0.03,-0.015,0.005,0.023,-0.01
0.002,-0.018,-0.021,0.008,0.012,-0.019,0.01,0.025,-0.015,0.005,0.02,-0.015
-0.004,-0.029,-0.025,0.017,0.011,-0.027,0.01,0.025,-0.015,0.005,0.017,-0.017
0.008,-0.035,-0.043,0.014,0.026,-0.038,0.01,0.024,-0.017,0.004,0.015,-0.022
0.004,-0.028,-0.032,0.012,0.018,-0.03,0.01,0.017,-0.037,-0.003,0.011,-0.025
-0.018,-0.029,-0.012,0.024,-0.003,-0.02,0.01,0.013,-0.046,-0.007,0.01,-0.021
0.004,-0.035,-0.039,0.016,0.022,-0.037,0.009,0.007,-0.044,-0.013,0.007,-0.02
0.01,-0.038,-0.047,0.015,0.029,-0.042,0.004,0.001,-0.046,-0.019,0.001,-0.015
0.002,-0.036,-0.038,0.017,0.021,-0.037,-0.002,-0.003,-0.045,-0.024,-0.004,-0.014
0.005,-0.032,-0.037,0.014,0.022,-0.034,-0.005,-0.013,-0.045,-0.037,-0.007,-0.009
0.0,-0.03,-0.03,0.015,0.015,-0.03,-0.01,-0.02,-0.047,-0.041,-0.013,-0.013
0.001,-0.026,-0.028,0.013,0.015,-0.027,-0.015,-0.02,-0.062,-0.039,-0.014,-0.038
-0.003,-0.024,-0.021,0.014,0.01,-0.023,-0.012,-0.016,-0.057,-0.041,-0.01,-0.041
-0.016,-0.03,-0.014,0.023,-0.001,-0.022,-0.009,-0.017,-0.049,-0.039,-0.01,-0.039
-0.008,-0.039,-0.032,0.024,0.012,-0.035,-0.006,-0.035,-0.068,-0.041,-0.01,-0.038
-0.003,-0.033,-0.03,0.018,0.013,-0.031,-0.003,-0.035,-0.071,-0.044,-0.01,-0.034
0.004,-0.012,-0.016,0.004,0.01,-0.014,0.0,-0.03,-0.069,-0.045,-0.01,-0.035
0.0,-0.038,-0.038,0.019,0.019,-0.038,-0.001,-0.028,-0.067,-0.045,-0.01,-0.038
-0.027,-0.073,-0.046,0.05,0.01,-0.059,-0.007,-0.023,-0.064,-0.045,-0.01,-0.04
-0.026,-0.064,-0.038,0.046,0.006,-0.051,-0.01,-0.021,-0.066,-0.045,-0.01,-0.04
-0.026,-0.06,-0.034,0.043,0.004,-0.047,-0.015,-0.016,-0.069,-0.043,-0.01,-0.044
-0.027,-0.055,-0.028,0.041,0.001,-0.041,-0.02,-0.013,-0.074,-0.038,-0.01,-0.045
-0.026,-0.047,-0.021,0.037,-0.002,-0.033,-0.017,-0.009,-0.073,-0.032,-0.009,-0.044
-0.024,-0.051,-0.027,0.037,0.002,-0.038,-0.008,-0.006,-0.066,-0.029,-0.003,-0.04
-0.033,-0.059,-0.026,0.046,-0.003,-0.043,-0.003,0.001,-0.062,-0.024,0.003,-0.036
-0.029,-0.044,-0.015,0.036,-0.007,-0.029,0.005,-0.002,-0.056,-0.02,0.011,-0.033
-0.018,-0.015,0.003,0.017,-0.011,-0.006,0.01,-0.022,-0.049,-0.03,0.017,-0.029
-0.034,0.014,0.047,0.01,-0.041,0.03,0.018,-0.007,-0.046,-0.018,0.025,-0.025
-0.029,0.038,0.067,-0.005,-0.048,0.052,0.035,0.01,-0.037,-0.01,0.024,-0.021
-0.01,0.054,0.065,-0.022,-0.038,0.059,0.024,-0.001,-0.039,-0.005,0.028,-0.014
0.026,0.087,0.061,-0.057,-0.018,0.074,0.003,0.002,-0.039,0.036,0.052,-0.005
0.026,0.087,0.06,-0.056,-0.017,0.073,-0.007,-0.005,-0.045,0.037,0.049,0.002
-0.002,0.049,0.051,-0.024,-0.027,0.05,-0.022,-0.009,-0.047,0.029,0.042,0.015
0.017,0.015,-0.002,-0.016,0.01,0.006,-0.032,-0.009,-0.05,0.013,0.031,0.006
0.006,-0.012,-0.018,0.004,0.012,-0.015,-0.038,-0.038,-0.058,-0.008,0.028,-0.011
-0.026,-0.037,-0.01,0.032,-0.008,-0.023,-0.032,-0.034,-0.058,-0.026,0.012,-0.043
-0.017,-0.029,-0.012,0.023,-0.002,-0.02,-0.039,-0.061,-0.087,-0.051,0.001,-0.051
-0.022,-0.021,0.001,0.022,-0.012,-0.01,-0.031,-0.037,-0.058,-0.041,-0.015,-0.049
-0.028,-0.019,0.009,0.024,-0.018,-0.006,-0.037,-0.069,-0.08,-0.055,-0.042,-0.051
-0.037,-0.002,0.035,0.019,-0.036,0.016,-0.033,-0.059,-0.04,-0.028,-0.025,-0.038
-0.027,-0.018,0.009,0.022,-0.017,-0.005,-0.045,-0.056,-0.068,-0.055,-0.049,-0.058
0.021,-0.054,-0.074,0.017,0.048,-0.064,0.025,0.161,0.044,0.011,-0.008,-0.051
0.108,-0.004,-0.112,-0.052,0.11,-0.058,0.144,0.597,0.502,0.246,0.123,0.015
0.371,0.711,0.34,-0.541,0.015,0.526,-0.29,-0.403,0.814,1.07,0.911,0.693
0.304,1.19,0.886,-0.747,-0.292,1.038,-0.727,-1.692,0.712,1.593,1.467,1.198
-0.117,0.53,0.647,-0.207,-0.383,0.589,-0.657,-1.723,-0.337,0.389,0.561,0.527
-0.202,0.033,0.235,0.084,-0.218,0.133,-0.492,-1.165,-0.795,-0.35,-0.077,0.008
-0.133,-0.048,0.085,0.09,-0.109,0.018,-0.24,-0.445,-0.288,-0.137,-0.042,-0.049
-0.086,-0.065,0.021,0.075,-0.053,-0.022,-0.09,-0.139,-0.155,-0.127,-0.047,-0.078
-0.047,-0.035,0.012,0.041,-0.03,-0.011,-0.047,-0.044,-0.065,-0.047,-0.012,-0.051
-0.046,-0.048,-0.002,0.046,-0.022,-0.024,-0.019,0.015,-0.06,-0.063,-0.034,-0.066
-0.034,-0.018,0.017,0.026,-0.025,0.0,-0.022,0.035,-0.053,-0.051,-0.021,-0.051
-0.047,-0.012,0.035,0.029,-0.041,0.011,-0.008,0.063,-0.031,-0.047,-0.027,-0.056
-0.035,-0.001,0.035,0.017,-0.035,0.017,-0.007,0.049,-0.042,-0.052,-0.025,-0.047
-0.023,0.013,0.036,0.004,-0.03,0.024,0.004,0.059,-0.018,-0.039,-0.018,-0.04
-0.022,0.011,0.034,0.005,-0.028,0.022,0.011,0.053,-0.025,-0.047,-0.015,-0.036
-0.005,0.032,0.037,-0.014,-0.021,0.035,0.011,0.056,-0.009,-0.03,-0.006,-0.026
0.002,0.031,0.029,-0.017,-0.014,0.03,0.008,0.055,-0.009,-0.033,-0.003,-0.022
0.01,0.027,0.017,-0.019,-0.004,0.022,0.005,0.058,0.007,-0.021,0.006,-0.015
0.028,0.074,0.046,-0.051,-0.009,0.06,0.002,0.06,0.031,-0.01,0.014,-0.01
0.016,0.093,0.077,-0.055,-0.031,0.085,0.0,0.083,0.055,0.013,0.042,-0.004
0.014,0.097,0.083,-0.056,-0.034,0.09,-0.002,0.103,0.073,0.033,0.057,0.002
0.047,0.123,0.076,-0.085,-0.015,0.099,-0.013,0.123,0.092,0.049,0.072,0.03
0.067,0.137,0.07,-0.102,-0.002,0.103,-0.021,0.166,0.135,0.089,0.101,0.051
0.076,0.146,0.069,-0.111,0.003,0.107,-0.03,0.215,0.198,0.146,0.151,0.084
0.102,0.182,0.08,-0.142,0.011,0.131,-0.038,0.257,0.25,0.199,0.196,0.123
0.133,0.271,0.138,-0.202,-0.003,0.204,-0.052,0.278,0.302,0.251,0.235,0.155
0.178,0.347,0.169,-0.263,0.004,0.258,-0.066,0.304,0.359,0.311,0.289,0.201
0.197,0.37,0.173,-0.284,0.012,0.271,-0.062,0.324,0.402,0.357,0.324,0.23
0.173,0.391,0.218,-0.282,-0.023,0.304,-0.059,0.33,0.438,0.394,0.361,0.259
0.193,0.425,0.232,-0.309,-0.02,0.328,-0.057,0.32,0.439,0.409,0.379,0.272
0.186,0.423,0.237,-0.305,-0.026,0.33,-0.049,0.303,0.42,0.401,0.364,0.256
0.144,0.372,0.228,-0.258,-0.042,0.299,-0.028,0.282,0.403,0.368,0.335,0.238
0.13,0.3,0.17,-0.215,-0.02,0.235,-0.007,0.243,0.342,0.307,0.284,0.193
0.085,0.216,0.13,-0.151,-0.023,0.173,0.014,0.191,0.255,0.23,0.21,0.136
0.044,0.145,0.101,-0.095,-0.029,0.123,0.043,0.132,0.171,0.14,0.142,0.086
0.035,0.099,0.064,-0.067,-0.015,0.081,0.055,0.084,0.102,0.078,0.09,0.045
0.013,0.046,0.034,-0.03,-0.011,0.04,0.055,0.048,0.05,0.035,0.061,0.03
-0.007,0.021,0.028,-0.007,-0.017,0.024,0.054,0.024,0.028,0.022,0.059,0.02
-0.012,0.014,0.026,-0.002,-0.019,0.02,0.059,0.019,0.031,0.026,0.056,0.01
-0.009,0.003,0.013,0.003,-0.011,0.008,0.07,0.02,0.03,0.024,0.054,0.008
0.005,-0.002,-0.007,-0.002,0.007,-0.004,0.07,0.019,0.034,0.026,0.049,0.012
-0.002,-0.029,-0.028,0.016,0.013,-0.028,0.07,0.025,0.036,0.025,0.053,0.02
-0.014,-0.044,-0.03,0.029,0.009,-0.037,0.07,0.025,0.033,0.023,0.062,0.022
-0.005,-0.028,-0.023,0.016,0.009,-0.025,0.07,0.018,0.027,0.017,0.059,0.019
-0.003,-0.022,-0.019,0.013,0.008,-0.02,0.07,0.015,0.018,0.012,0.06,0.016
0.019,0.007,-0.011,-0.013,0.015,-0.002,0.064,0.01,0.013,0.009,0.055,0.013
0.052,0.048,-0.004,-0.05,0.028,0.022,0.057,0.006,0.005,0.003,0.055,0.01
0.025,0.033,0.009,-0.029,0.008,0.021,0.051,0.001,-0.003,0.0,0.054,0.009
0.006,0.022,0.016,-0.014,-0.005,0.019,0.044,-0.005,-0.009,-0.007,0.045,0.004
0.016,0.043,0.026,-0.03,-0.005,0.034,0.038,-0.01,-0.017,-0.015,0.039,0.001
-0.011,0.04,0.051,-0.015,-0.031,0.045,0.031,-0.016,-0.024,-0.021,0.032,-0.002
-0.022,0.036,0.057,-0.008,-0.04,0.046,0.024,-0.021,-0.031,-0.03,0.024,-0.007
-0.028,0.025,0.053,0.001,-0.041,0.039,0.017,-0.027,-0.037,-0.036,0.017,-0.009
-0.02,0.036,0.055,-0.008,-0.038,0.045,0.011,-0.033,-0.048,-0.043,0.009,-0.016
-0.013,0.053,0.067,-0.02,-0.04,0.059,0.005,-0.039,-0.059,-0.052,-0.004,-0.028
-0.015,0.051,0.066,-0.018,-0.041,0.059,0.005,-0.046,-0.06,-0.051,-0.013,-0.04
0.009,0.065,0.056,-0.037,-0.024,0.06,0.006,-0.043,-0.068,-0.049,-0.01,-0.048
0.008,0.06,0.052,-0.034,-0.022,0.056,-0.001,-0.04,-0.072,-0.05,-0.01,-0.045
0.0,0.043,0.043,-0.022,-0.022,0.043,0.0,-0.038,-0.067,-0.05,-0.008,-0.045
-0.005,0.037,0.042,-0.016,-0.023,0.039,0.019,-0.034,-0.065,-0.05,-0.004,-0.045
-0.019,0.027,0.045,-0.004,-0.032,0.036,0.037,-0.038,-0.061,-0.053,-0.005,-0.045
-0.029,0.02,0.049,0.005,-0.039,0.034,0.036,-0.047,-0.06,-0.056,-0.008,-0.045
-0.011,0.045,0.056,-0.017,-0.033,0.05,0.026,-0.051,-0.069,-0.054,-0.013,-0.045
-0.024,0.027,0.05,-0.002,-0.037,0.038,0.022,-0.05,-0.071,-0.055,-0.015,-0.045
-0.009,0.028,0.037,-0.01,-0.023,0.032,0.012,-0.051,-0.07,-0.055,-0.02,-0.045
0.017,0.058,0.041,-0.038,-0.012,0.049,0.014,-0.049,-0.071,-0.055,-0.024,-0.045
-0.024,0.04,0.064,-0.008,-0.044,0.051,0.033,-0.051,-0.07,-0.064,-0.025,-0.046
-0.024,0.049,0.073,-0.013,-0.049,0.061,0.036,-0.043,-0.071,-0.062,-0.015,-0.044
-0.035,0.032,0.068,0.001,-0.051,0.05,0.034,-0.019,-0.051,-0.052,-0.007,-0.036
-0.009,0.062,0.071,-0.027,-0.041,0.067,0.041,0.011,-0.029,-0.045,0.001,-0.027
0.005,0.095,0.09,-0.05,-0.043,0.092,0.072,0.032,-0.022,-0.037,0.021,-0.018
-0.016,0.073,0.089,-0.029,-0.053,0.081,0.08,0.012,-0.021,-0.035,0.031,-0.01
0.042,0.122,0.08,-0.083,-0.019,0.101,0.039,0.004,-0.015,-0.034,0.048,0.0
0.043,0.117,0.073,-0.081,-0.015,0.095,0.017,-0.008,-0.014,-0.036,0.046,0.009
0.019,0.063,0.044,-0.041,-0.013,0.053,0.021,-0.018,-0.009,-0.034,0.033,0.02
0.013,0.017,0.004,-0.015,0.004,0.01,0.021,-0.025,-0.018,-0.035,0.018,0.008
0.015,-0.006,-0.021,-0.004,0.019,-0.013,0.017,-0.049,-0.04,-0.037,0.006,0.002
0.007,-0.032,-0.038,0.012,0.023,-0.035,0.026,-0.034,-0.049,-0.053,-0.008,-0.011
-0.021,-0.067,-0.047,0.044,0.013,-0.057,0.037,-0.062,-0.075,-0.068,-0.015,-0.027
-0.037,-0.083,-0.046,0.06,0.005,-0.065,0.039,-0.045,-0.05,-0.059,-0.016,-0.035
-0.048,-0.067,-0.02,0.058,-0.014,-0.043,0.012,-0.087,-0.09,-0.074,-0.031,-0.046
-0.02,-0.029,-0.01,0.025,-0.005,-0.019,0.02,-0.044,-0.059,-0.055,-0.02,-0.039
-0.01,-0.027,-0.017,0.018,0.003,-0.021,-0.002,-0.072,-0.075,-0.081,-0.05,-0.065
0.006,-0.029,-0.035,0.011,0.021,-0.032,0.087,0.179,0.057,-0.022,-0.038,-0.077
0.118,0.027,-0.091,-0.073,0.104,-0.032,0.209,0.571,0.505,0.223,0.119,0.018
0.377,0.775,0.398,-0.576,-0.011,0.586,-0.284,-0.634,0.794,1.051,0.9,0.698
0.321,1.277,0.956,-0.799,-0.318,1.116,-0.781,-1.887,0.689,1.542,1.442,1.208
-0.102,0.602,0.704,-0.25,-0.404,0.653,-0.749,-1.837,-0.349,0.385,0.582,0.577
-0.175,0.124,0.299,0.026,-0.237,0.211,-0.525,-1.207,-0.779,-0.349,-0.076,0.027
-0.082,0.026,0.108,0.028,-0.095,0.067,-0.215,-0.441,-0.274,-0.162,-0.063,-0.043
-0.082,-0.029,0.053,0.055,-0.067,0.012,-0.045,-0.15,-0.162,-0.149,-0.087,-0.065
-0.054,-0.028,0.026,0.041,-0.04,-0.001,0.012,-0.036,-0.069,-0.09,-0.049,-0.043
-0.058,-0.07,-0.012,0.064,-0.023,-0.041,0.029,-0.008,-0.062,-0.103,-0.055,-0.054
-0.028,-0.058,-0.03,0.043,0.001,-0.044,0.023,0.009,-0.054,-0.09,-0.049,-0.041
0.011,-0.06,-0.071,0.025,0.041,-0.065,0.026,0.035,-0.032,-0.084,-0.048,-0.048
-0.006,-0.051,-0.046,0.029,0.02,-0.048,0.019,0.018,-0.044,-0.087,-0.047,-0.051
-0.03,-0.036,-0.005,0.033,-0.012,-0.02,0.021,0.03,-0.023,-0.073,-0.043,-0.053
-0.017,0.003,0.02,0.007,-0.019,0.011,0.019,0.022,-0.032,-0.078,-0.046,-0.062
-0.032,0.019,0.05,0.006,-0.041,0.035,0.028,0.053,-0.018,-0.064,-0.035,-0.057
-0.043,0.013,0.055,0.014,-0.049,0.034,0.028,0.057,-0.018,-0.063,-0.035,-0.051
-0.021,0.035,0.056,-0.008,-0.039,0.045,0.018,0.053,0.002,-0.053,-0.027,-0.044
-0.004,0.048,0.053,-0.023,-0.028,0.05,0.014,0.059,0.015,-0.048,-0.025,-0.037
0.012,0.081,0.07,-0.047,-0.029,0.075,0.005,0.077,0.03,-0.038,-0.018,-0.032
0.0,0.105,0.105,-0.052,-0.053,0.105,0.0,0.105,0.054,-0.016,-0.006,-0.019
0.002,0.115,0.113,-0.058,-0.056,0.114,0.008,0.14,0.088,0.01,0.023,0.004
0.034,0.141,0.108,-0.088,-0.037,0.124,0.013,0.184,0.124,0.041,0.051,0.021
0.069,0.183,0.113,-0.126,-0.022,0.148,0.008,0.212,0.168,0.083,0.074,0.043
0.102,0.245,0.143,-0.174,-0.021,0.194,0.002,0.249,0.22,0.128,0.117,0.073
0.133,0.288,0.155,-0.211,-0.011,0.221,-0.001,0.299,0.279,0.186,0.164,0.116
0.15,0.327,0.177,-0.239,-0.014,0.251,-0.007,0.33,0.344,0.252,0.223,0.163
0.169,0.365,0.196,-0.267,-0.014,0.28,-0.01,0.341,0.39,0.299,0.265,0.199
0.18,0.392,0.211,-0.287,-0.016,0.301,-0.004,0.335,0.42,0.335,0.294,0.233
0.183,0.421,0.238,-0.302,-0.027,0.329,0.005,0.325,0.413,0.334,0.318,0.234
0.185,0.405,0.221,-0.295,-0.018,0.313,0.01,0.305,0.402,0.322,0.301,0.222
0.169,0.38,0.211,-0.275,-0.021,0.295,0.019,0.264,0.366,0.293,0.264,0.196
0.141,0.34,0.199,-0.241,-0.029,0.269,0.037,0.215,0.285,0.21,0.198,0.142
0.099,0.256,0.157,-0.178,-0.029,0.206,0.047,0.176,0.195,0.131,0.125,0.091
0.05,0.173,0.123,-0.111,-0.037,0.148,0.045,0.134,0.105,0.057,0.062,0.035
0.011,0.123,0.112,-0.067,-0.051,0.117,0.042,0.089,0.05,0.002,0.01,-0.007
0.01,0.111,0.101,-0.06,-0.046,0.105,0.039,0.052,0.011,-0.027,-0.003,-0.033
0.006,0.095,0.089,-0.051,-0.042,0.092,0.036,0.019,-0.022,-0.059,-0.022,-0.043
0.003,0.087,0.084,-0.046,-0.04,0.085,0.035,0.002,-0.038,-0.073,-0.036,-0.038
0.009,0.087,0.078,-0.048,-0.035,0.083,0.039,-0.005,-0.049,-0.075,-0.04,-0.042
0.007,0.081,0.075,-0.044,-0.034,0.078,0.043,-0.013,-0.05,-0.075,-0.046,-0.037
0.01,0.08,0.07,-0.045,-0.03,0.075,0.045,-0.022,-0.05,-0.075,-0.038,-0.048
0.009,0.074,0.065,-0.042,-0.028,0.069,0.05,-0.023,-0.048,-0.075,-0.035,-0.064
-0.001,0.069,0.07,-0.034,-0.036,0.069,0.047,-0.016,-0.045,-0.075,-0.03,-0.052
-0.008,0.063,0.071,-0.027,-0.04,0.067,0.045,-0.011,-0.045,-0.073,-0.025,-0.043
-0.004,0.057,0.061,-0.027,-0.033,0.059,0.045,-0.006,-0.041,-0.07,-0.022,-0.038
-0.002,0.053,0.055,-0.025,-0.029,0.054,0.041,0.0,-0.038,-0.07,-0.019,-0.035
0.005,0.042,0.037,-0.024,-0.016,0.039,0.039,0.004,-0.034,-0.07,-0.021,-0.032
0.005,0.033,0.028,-0.019,-0.012,0.03,0.04,0.0,-0.032,-0.07,-0.02,-0.027
-0.008,0.022,0.03,-0.007,-0.019,0.025,0.046,-0.005,-0.025,-0.071,-0.02,-0.024
-0.002,0.011,0.013,-0.004,-0.008,0.012,0.046,-0.009,-0.027,-0.075,-0.019,-0.026
0.007,-0.006,-0.013,0.0,0.01,-0.009,0.044,-0.014,-0.031,-0.075,-0.013,-0.024
-0.004,-0.032,-0.028,0.018,0.013,-0.03,0.046,-0.019,-0.036,-0.075,-0.028,-0.025
-0.023,-0.046,-0.022,0.035,0.0,-0.034,0.044,-0.023,-0.062,-0.075,-0.05,-0.043
-0.013,-0.045,-0.032,0.029,0.01,-0.039,0.046,-0.025,-0.067,-0.074,-0.05,-0.046
0.012,-0.044,-0.056,0.017,0.034,-0.05,0.042,-0.029,-0.064,-0.078,-0.05,-0.039
0.008,-0.046,-0.054,0.02,0.031,-0.05,0.04,-0.031,-0.071,-0.08,-0.051,-0.04
0.014,-0.043,-0.056,0.015,0.035,-0.05,0.04,-0.035,-0.069,-0.081,-0.049,-0.033
0.001,-0.05,-0.051,0.024,0.027,-0.051,0.037,-0.035,-0.072,-0.084,-0.052,-0.037
0.01,-0.042,-0.052,0.016,0.032,-0.046,0.034,-0.03,-0.075,-0.088,-0.055,-0.047
0.033,-0.042,-0.076,0.005,0.055,-0.059,0.035,-0.027,-0.075,-0.09,-0.055,-0.046
0.011,-0.072,-0.083,0.031,0.047,-0.077,0.05,-0.023,-0.075,-0.09,-0.055,-0.045
-0.005,-0.088,-0.084,0.047,0.04,-0.086,0.056,-0.02,-0.075,-0.093,-0.055,-0.045
-0.024,-0.11,-0.086,0.068,0.031,-0.098,0.054,-0.014,-0.075,-0.096,-0.055,-0.045
-0.03,-0.118,-0.088,0.074,0.029,-0.103,0.059,-0.025,-0.071,-0.094,-0.051,-0.045
-0.016,-0.112,-0.096,0.065,0.04,-0.104,0.06,-0.037,-0.069,-0.091,-0.05,-0.049
-0.002,-0.118,-0.116,0.06,0.057,-0.117,0.059,-0.034,-0.07,-0.09,-0.05,-0.05
-0.012,-0.132,-0.121,0.072,0.055,-0.126,0.055,-0.035,-0.07,-0.09,-0.046,-0.05
0.009,-0.101,-0.11,0.046,0.06,-0.105,0.055,-0.035,-0.07,-0.09,-0.044,-0.054
0.029,-0.074,-0.104,0.023,0.067,-0.089,0.053,-0.035,-0.071,-0.09,-0.049,-0.055
-0.003,-0.098,-0.095,0.051,0.046,-0.097,0.05,-0.031,-0.075,-0.09,-0.056,-0.054
-0.001,-0.091,-0.09,0.046,0.045,-0.09,0.049,-0.023,-0.08,-0.09,-0.055,-0.048
0.003,-0.08,-0.083,0.039,0.043,-0.081,0.052,-0.017,-0.076,-0.091,-0.055,-0.041
0.001,-0.075,-0.076,0.037,0.039,-0.075,0.048,-0.01,-0.064,-0.092,-0.056,-0.034
0.004,-0.065,-0.069,0.031,0.037,-0.067,0.064,-0.003,-0.056,-0.084,-0.052,-0.028
0.02,-0.034,-0.054,0.007,0.037,-0.044,0.089,-0.001,-0.055,-0.076,-0.043,-0.021
0.024,0.003,-0.021,-0.014,0.023,-0.009,0.085,-0.008,-0.054,-0.068,-0.034,-0.016
0.019,0.036,0.017,-0.027,0.001,0.026,0.077,-0.019,-0.052,-0.061,-0.027,-0.015
0.06,0.082,0.022,-0.071,0.019,0.052,0.047,-0.023,-0.048,-0.054,-0.028,-0.013
0.07,0.085,0.016,-0.078,0.027,0.05,0.018,-0.035,-0.053,-0.056,-0.033,-0.01
0.054,0.072,0.018,-0.063,0.018,0.044,0.018,-0.039,-0.053,-0.055,-0.032,-0.01
0.034,0.041,0.007,-0.038,0.013,0.024,0.01,-0.057,-0.061,-0.076,-0.04,-0.029
-0.002,0.004,0.005,-0.001,-0.004,0.004,0.007,-0.063,-0.083,-0.101,-0.059,-0.044
0.001,-0.012,-0.013,0.006,0.007,-0.012,0.004,-0.048,-0.099,-0.122,-0.088,-0.075
-0.013,-0.019,-0.006,0.016,-0.003,-0.012,-0.003,-0.085,-0.114,-0.128,-0.094,-0.092
-0.037,-0.034,0.002,0.035,-0.019,-0.016,0.015,-0.061,-0.089,-0.12,-0.093,-0.096
-0.027,-0.031,-0.004,0.029,-0.012,-0.017,0.01,-0.09,-0.114,-0.132,-0.091,-0.097
-0.034,-0.047,-0.013,0.041,-0.01,-0.03,0.035,-0.05,-0.077,-0.108,-0.08,-0.1
0.0,-0.038,-0.039,0.019,0.02,-0.038,0.019,-0.074,-0.1,-0.136,-0.103,-0.104
0.026,-0.041,-0.067,0.008,0.047,-0.054,0.103,0.234,0.06,-0.084,-0.101,-0.109
0.15,0.088,-0.062,-0.119,0.106,0.013,0.147,0.438,0.465,0.183,0.075,0.007
0.438,0.906,0.467,-0.673,-0.015,0.686,-0.389,-0.923,0.733,1.027,0.893,0.741
0.312,1.293,0.98,-0.802,-0.334,1.136,-0.88,-2.034,0.529,1.349,1.296,1.146
-0.087,0.612,0.698,-0.263,-0.393,0.655,-0.822,-1.853,-0.498,0.194,0.433,0.501
-0.116,0.152,0.268,-0.018,-0.193,0.21,-0.509,-1.127,-0.741,-0.358,-0.122,0.014
-0.06,0.066,0.126,-0.003,-0.093,0.095,-0.198,-0.384,-0.26,-0.204,-0.127,-0.085
-0.041,0.029,0.07,0.006,-0.056,0.049,-0.054,-0.159,-0.183,-0.224,-0.148,-0.112
0.01,0.022,0.012,-0.016,-0.002,0.017,-0.01,-0.049,-0.094,-0.149,-0.125,-0.099
-0.021,0.001,0.022,0.01,-0.022,0.011,0.003,-0.019,-0.102,-0.167,-0.135,-0.11
0.008,-0.008,-0.016,0.0,0.013,-0.012,0.018,-0.002,-0.086,-0.152,-0.122,-0.101
0.018,-0.03,-0.048,0.006,0.033,-0.039,0.021,0.017,-0.074,-0.151,-0.124,-0.108
-0.025,-0.038,-0.013,0.032,-0.005,-0.026,0.019,0.011,-0.081,-0.15,-0.118,-0.103
-0.028,-0.022,0.006,0.025,-0.017,-0.008,0.021,0.029,-0.063,-0.14,-0.111,-0.1
-0.048,-0.004,0.044,0.026,-0.046,0.02,0.019,0.023,-0.072,-0.145,-0.11,-0.101
-0.032,0.021,0.052,0.005,-0.042,0.036,0.021,0.049,-0.055,-0.133,-0.102,-0.099
-0.005,0.043,0.048,-0.019,-0.027,0.045,0.016,0.06,-0.054,-0.137,-0.101,-0.101
-0.006,0.047,0.053,-0.02,-0.03,0.049,0.011,0.068,-0.041,-0.127,-0.093,-0.099
-0.009,0.06,0.069,-0.026,-0.039,0.064,0.007,0.07,-0.034,-0.128,-0.088,-0.097
0.0,0.104,0.104,-0.052,-0.052,0.103,0.004,0.083,-0.022,-0.118,-0.08,-0.089
0.01,0.145,0.135,-0.078,-0.063,0.14,-0.002,0.107,-0.003,-0.098,-0.075,-0.085
0.001,0.159,0.158,-0.08,-0.079,0.159,-0.008,0.135,0.023,-0.06,-0.063,-0.077
0.026,0.198,0.172,-0.112,-0.073,0.185,-0.013,0.181,0.064,-0.021,-0.031,-0.057
0.037,0.212,0.175,-0.125,-0.069,0.193,-0.019,0.231,0.116,0.01,0.001,-0.021
0.057,0.237,0.18,-0.147,-0.062,0.208,-0.023,0.279,0.177,0.063,0.043,0.03
0.093,0.286,0.193,-0.19,-0.05,0.239,-0.029,0.315,0.247,0.131,0.103,0.07
0.112,0.334,0.222,-0.223,-0.055,0.278,-0.031,0.336,0.304,0.195,0.153,0.113
0.149,0.388,0.239,-0.269,-0.046,0.313,-0.034,0.343,0.342,0.237,0.195,0.152
0.155,0.406,0.251,-0.281,-0.048,0.328,-0.034,0.339,0.372,0.275,0.231,0.183
0.164,0.44,0.275,-0.302,-0.056,0.357,-0.025,0.337,0.386,0.288,0.243,0.188
0.168,0.441,0.273,-0.304,-0.053,0.356,-0.015,0.315,0.379,0.279,0.24,0.171
0.131,0.388,0.257,-0.26,-0.063,0.322,-0.005,0.258,0.325,0.241,0.205,0.152
0.095,0.324,0.229,-0.209,-0.067,0.276,0.004,0.198,0.245,0.166,0.132,0.096
0.065,0.249,0.184,-0.157,-0.059,0.216,0.007,0.139,0.154,0.086,0.054,0.038
0.03,0.173,0.143,-0.102,-0.056,0.157,0.012,0.068,0.06,0.0,0.0,-0.009
-0.012,0.111,0.123,-0.049,-0.068,0.117,0.015,0.019,-0.007,-0.062,-0.05,-0.054
-0.025,0.091,0.116,-0.033,-0.071,0.103,0.018,-0.019,-0.055,-0.101,-0.09,-0.078
-0.022,0.077,0.099,-0.027,-0.06,0.087,0.02,-0.049,-0.077,-0.121,-0.091,-0.082
-0.029,0.048,0.077,-0.01,-0.053,0.062,0.023,-0.05,-0.083,-0.12,-0.087,-0.074
-0.038,0.028,0.065,0.005,-0.052,0.046,0.025,-0.05,-0.085,-0.12,-0.084,-0.07
-0.038,0.018,0.057,0.01,-0.048,0.037,0.025,-0.048,-0.07,-0.119,-0.08,-0.065
-0.034,0.014,0.048,0.01,-0.042,0.031,0.025,-0.044,-0.081,-0.115,-0.076,-0.058
-0.038,0.01,0.047,0.014,-0.042,0.028,0.025,-0.045,-0.102,-0.115,-0.075,-0.056
-0.047,0.004,0.051,0.021,-0.05,0.028,0.025,-0.045,-0.096,-0.117,-0.083,-0.07
-0.052,0.002,0.054,0.025,-0.053,0.027,0.025,-0.045,-0.091,-0.12,-0.089,-0.075
-0.06,-0.006,0.054,0.032,-0.057,0.024,0.025,-0.045,-0.088,-0.123,-0.09,-0.077
-0.079,-0.015,0.064,0.047,-0.071,0.024,0.025,-0.045,-0.082,-0.126,-0.09,-0.081
-0.071,-0.016,0.055,0.043,-0.062,0.019,0.025,-0.046,-0.08,-0.129,-0.095,-0.083
-0.046,-0.012,0.033,0.029,-0.039,0.01,0.025,-0.044,-0.08,-0.13,-0.095,-0.086
-0.038,-0.012,0.026,0.025,-0.032,0.006,0.025,-0.04,-0.08,-0.13,-0.096,-0.081
-0.019,-0.007,0.012,0.012,-0.015,0.002,0.025,-0.04,-0.08,-0.13,-0.1,-0.08
-0.023,-0.021,0.003,0.022,-0.013,-0.009,0.021,-0.038,-0.079,-0.13,-0.1,-0.079
-0.036,-0.037,-0.001,0.037,-0.018,-0.018,0.02,-0.035,-0.091,-0.131,-0.105,-0.081
-0.012,-0.012,0.0,0.012,-0.006,-0.006,0.02,-0.035,-0.106,-0.128,-0.105,-0.078
-0.001,0.016,0.017,-0.007,-0.009,0.016,0.015,-0.042,-0.121,-0.139,-0.109,-0.089
-0.014,0.018,0.032,-0.003,-0.023,0.025,0.015,-0.051,-0.132,-0.151,-0.116,-0.112
-0.025,-0.003,0.022,0.014,-0.023,0.01,0.014,-0.049,-0.129,-0.149,-0.121,-0.108
-0.041,-0.028,0.012,0.034,-0.026,-0.008,0.009,-0.052,-0.13,-0.152,-0.125,-0.105
-0.047,-0.048,-0.001,0.047,-0.023,-0.024,0.006,-0.056,-0.13,-0.156,-0.127,-0.104
-0.027,-0.052,-0.025,0.04,-0.001,-0.038,0.003,-0.053,-0.129,-0.154,-0.13,-0.098
-0.038,-0.04,-0.001,0.039,-0.018,-0.02,-0.002,-0.067,-0.137,-0.159,-0.134,-0.105
-0.057,-0.028,0.03,0.042,-0.043,0.001,-0.005,-0.079,-0.139,-0.163,-0.135,-0.117
-0.067,-0.01,0.057,0.038,-0.062,0.023,-0.008,-0.09,-0.148,-0.167,-0.14,-0.122
-0.086,0.0,0.086,0.042,-0.086,0.043,-0.012,-0.106,-0.166,-0.179,-0.149,-0.125
-0.076,0.009,0.085,0.033,-0.08,0.047,-0.015,-0.105,-0.17,-0.186,-0.15,-0.126
-0.049,0.036,0.085,0.006,-0.067,0.06,-0.019,-0.105,-0.17,-0.184,-0.15,-0.124
-0.032,0.048,0.079,-0.008,-0.056,0.063,-0.019,-0.106,-0.172,-0.185,-0.15,-0.122
-0.039,0.043,0.082,-0.002,-0.061,0.062,-0.012,-0.104,-0.175,-0.185,-0.15,-0.118
-0.029,0.047,0.076,-0.009,-0.053,0.061,-0.008,-0.108,-0.175,-0.181,-0.15,-0.123
-0.038,0.022,0.06,0.008,-0.049,0.041,-0.002,-0.11,-0.172,-0.179,-0.146,-0.134
-0.042,-0.007,0.035,0.024,-0.038,0.013,0.004,-0.11,-0.169,-0.18,-0.145,-0.136
-0.063,-0.027,0.036,0.045,-0.049,0.004,0.009,-0.113,-0.166,-0.18,-0.145,-0.134
-0.111,-0.04,0.071,0.075,-0.091,0.016,0.014,-0.116,-0.163,-0.18,-0.145,-0.131
-0.062,0.001,0.063,0.03,-0.062,0.032,0.015,-0.114,-0.16,-0.18,-0.145,-0.129
-0.038,0.016,0.054,0.011,-0.047,0.035,0.015,-0.111,-0.16,-0.18,-0.146,-0.132
-0.051,0.0,0.051,0.025,-0.051,0.025,0.015,-0.108,-0.16,-0.18,-0.15,-0.135
-0.042,-0.003,0.039,0.022,-0.041,0.018,0.015,-0.105,-0.16,-0.179,-0.15,-0.135
-0.066,-0.017,0.049,0.042,-0.058,0.016,0.014,-0.103,-0.16,-0.181,-0.15,-0.135
-0.081,-0.016,0.065,0.048,-0.073,0.024,-0.001,-0.099,-0.159,-0.179,-0.15,-0.135
-0.072,-0.004,0.068,0.038,-0.07,0.032,-0.019,-0.106,-0.163,-0.182,-0.146,-0.135
-0.066,0.018,0.084,0.023,-0.075,0.05,-0.026,-0.109,-0.165,-0.19,-0.142,-0.131
-0.062,0.03,0.092,0.016,-0.077,0.061,-0.02,-0.097,-0.159,-0.184,-0.138,-0.125
-0.042,0.015,0.057,0.014,-0.05,0.035,-0.013,-0.091,-0.153,-0.178,-0.133,-0.119
-0.039,-0.001,0.038,0.019,-0.038,0.019,-0.009,-0.078,-0.145,-0.171,-0.129,-0.114
-0.046,0.009,0.056,0.018,-0.051,0.032,0.017,-0.054,-0.132,-0.156,-0.121,-0.105
-0.049,0.034,0.083,0.007,-0.067,0.058,0.032,-0.038,-0.118,-0.144,-0.112,-0.095
-0.067,0.035,0.102,0.016,-0.084,0.068,0.043,-0.041,-0.115,-0.128,-0.106,-0.085
-0.04,0.065,0.105,-0.013,-0.073,0.085,0.023,-0.039,-0.114,-0.108,-0.096,-0.079
-0.005,0.094,0.1,-0.045,-0.053,0.097,-0.018,-0.033,-0.115,-0.105,-0.099,-0.081
-0.001,0.092,0.093,-0.046,-0.047,0.092,-0.021,-0.038,-0.115,-0.104,-0.101,-0.079
-0.004,0.079,0.083,-0.038,-0.044,0.081,-0.049,-0.033,-0.12,-0.126,-0.109,-0.082
-0.03,0.041,0.071,-0.006,-0.051,0.056,-0.057,-0.046,-0.148,-0.154,-0.125,-0.096
-0.07,-0.013,0.057,0.042,-0.063,0.021,-0.036,-0.036,-0.141,-0.158,-0.134,-0.112
-0.077,-0.039,0.038,0.058,-0.057,-0.001,-0.042,-0.052,-0.153,-0.171,-0.141,-0.118
-0.067,-0.052,0.015,0.059,-0.041,-0.019,-0.031,-0.053,-0.139,-0.158,-0.139,-0.118
-0.093,-0.098,-0.005,0.096,-0.044,-0.051,-0.033,-0.088,-0.149,-0.172,-0.15,-0.125
-0.106,-0.109,-0.003,0.108,-0.052,-0.056,-0.026,-0.086,-0.145,-0.158,-0.14,-0.119
-0.077,-0.115,-0.038,0.096,-0.019,-0.076,-0.02,-0.077,-0.137,-0.169,-0.156,-0.133
-0.035,-0.085,-0.05,0.06,0.008,-0.067,0.017,0.018,-0.089,-0.145,-0.145,-0.12
0.021,-0.087,-0.108,0.033,0.064,-0.097,0.156,0.496,0.279,0.024,-0.076,-0.102
0.302,0.454,0.152,-0.378,0.075,0.303,-0.155,-0.254,0.613,0.626,0.502,0.404
0.392,1.16,0.767,-0.777,-0.188,0.963,-0.747,-1.733,0.668,1.348,1.265,1.121
-0.024,0.75,0.774,-0.363,-0.399,0.761,-0.862,-1.975,-0.141,0.629,0.768,0.777
-0.224,0.13,0.354,0.047,-0.289,0.242,-0.615,-1.4,-0.818,-0.314,-0.041,0.122
-0.166,-0.039,0.127,0.102,-0.146,0.044,-0.284,-0.592,-0.408,-0.253,-0.145,-0.057
-0.128,-0.081,0.047,0.104,-0.087,-0.017,-0.093,-0.202,-0.214,-0.215,-0.166,-0.114
-0.094,-0.092,0.002,0.093,-0.048,-0.045,-0.043,-0.098,-0.171,-0.176,-0.158,-0.103
-0.095,-0.137,-0.042,0.117,-0.027,-0.089,-0.016,-0.026,-0.125,-0.169,-0.163,-0.116
-0.067,-0.114,-0.046,0.091,-0.01,-0.08,-0.015,-0.021,-0.145,-0.183,-0.168,-0.121
-0.072,-0.08,-0.008,0.076,-0.031,-0.044,-0.009,0.013,-0.112,-0.166,-0.161,-0.122
-0.084,-0.047,0.037,0.065,-0.06,-0.005,-0.007,0.002,-0.127,-0.177,-0.163,-0.122
-0.083,-0.05,0.033,0.066,-0.058,-0.008,-0.003,0.02,-0.104,-0.157,-0.151,-0.115
-0.092,-0.056,0.036,0.073,-0.064,-0.01,0.003,0.021,-0.109,-0.164,-0.15,-0.117
-0.077,-0.044,0.034,0.06,-0.055,-0.005,0.014,0.029,-0.097,-0.149,-0.141,-0.11
-0.078,-0.041,0.038,0.059,-0.058,-0.001,0.016,0.037,-0.093,-0.149,-0.138,-0.111
-0.085,-0.031,0.053,0.058,-0.069,0.011,0.014,0.056,-0.087,-0.14,-0.128,-0.105
-0.071,-0.026,0.045,0.049,-0.058,0.01,0.011,0.068,-0.067,-0.129,-0.122,-0.095
-0.051,-0.016,0.035,0.033,-0.043,0.009,0.01,0.083,-0.041,-0.106,-0.1,-0.085
-0.036,-0.008,0.028,0.021,-0.032,0.01,0.009,0.121,-0.011,-0.077,-0.09,-0.067
-0.036,0.051,0.087,-0.008,-0.062,0.069,0.003,0.142,0.006,-0.076,-0.086,-0.05
-0.012,0.086,0.098,-0.037,-0.055,0.091,0.0,0.182,0.039,-0.046,-0.054,-0.039
0.012,0.105,0.093,-0.059,-0.041,0.098,-0.006,0.228,0.083,0.001,-0.018,-0.013
0.022,0.184,0.162,-0.103,-0.07,0.173,-0.007,0.262,0.138,0.04,0.019,0.017
0.062,0.237,0.175,-0.15,-0.057,0.206,-0.023,0.293,0.195,0.095,0.062,0.049
0.076,0.272,0.197,-0.174,-0.061,0.234,-0.037,0.328,0.267,0.167,0.119,0.105
0.081,0.303,0.222,-0.193,-0.07,0.262,-0.029,0.355,0.323,0.229,0.177,0.157
0.124,0.339,0.215,-0.231,-0.046,0.277,-0.025,0.349,0.356,0.274,0.213,0.186
0.145,0.373,0.228,-0.259,-0.042,0.3,-0.019,0.342,0.383,0.305,0.244,0.207
0.134,0.383,0.249,-0.259,-0.058,0.316,-0.014,0.336,0.38,0.309,0.254,0.221
0.115,0.368,0.253,-0.242,-0.069,0.31,-0.009,0.307,0.353,0.284,0.23,0.202
0.096,0.331,0.236,-0.214,-0.07,0.283,-0.005,0.253,0.289,0.225,0.178,0.149
0.061,0.276,0.215,-0.169,-0.077,0.245,-0.003,0.194,0.201,0.143,0.1,0.088
0.028,0.206,0.178,-0.117,-0.075,0.192,0.0,0.128,0.109,0.053,0.022,0.028
0.014,0.155,0.141,-0.085,-0.064,0.148,0.003,0.054,0.022,-0.026,-0.044,-0.025
-0.019,0.109,0.128,-0.045,-0.074,0.118,0.006,-0.003,-0.04,-0.081,-0.088,-0.069
-0.054,0.072,0.126,-0.009,-0.09,0.099,0.001,-0.029,-0.069,-0.114,-0.102,-0.089
-0.056,0.064,0.12,-0.004,-0.088,0.092,0.0,-0.04,-0.087,-0.128,-0.114,-0.096
-0.049,0.065,0.114,-0.008,-0.082,0.089,0.0,-0.061,-0.102,-0.135,-0.121,-0.099
-0.044,0.065,0.109,-0.011,-0.077,0.087,0.0,-0.076,-0.108,-0.135,-0.119,-0.095
-0.039,0.065,0.103,-0.013,-0.071,0.084,0.001,-0.075,-0.11,-0.135,-0.12,-0.095
-0.031,0.066,0.097,-0.018,-0.064,0.081,-0.001,-0.075,-0.11,-0.134,-0.119,-0.093
-0.022,0.06,0.082,-0.019,-0.052,0.071,-0.007,-0.075,-0.11,-0.136,-0.121,-0.089
-0.033,0.061,0.095,-0.014,-0.064,0.078,-0.013,-0.075,-0.108,-0.134,-0.115,-0.091
-0.053,0.076,0.129,-0.012,-0.091,0.103,-0.018,-0.077,-0.127,-0.136,-0.118,-0.093
-0.054,0.107,0.161,-0.027,-0.108,0.134,-0.024,-0.081,-0.137,-0.156,-0.139,-0.103
-0.045,0.135,0.18,-0.045,-0.113,0.157,-0.026,-0.084,-0.147,-0.162,-0.154,-0.118
-0.04,0.124,0.164,-0.042,-0.102,0.144,-0.025,-0.085,-0.163,-0.159,-0.161,-0.12
-0.039,0.109,0.148,-0.035,-0.094,0.128,-0.025,-0.085,-0.159,-0.161,-0.16,-0.12
-0.037,0.105,0.142,-0.034,-0.09,0.123,-0.022,-0.085,-0.16,-0.159,-0.16,-0.125
-0.027,0.104,0.132,-0.039,-0.08,0.118,-0.019,-0.087,-0.16,-0.161,-0.16,-0.125
-0.014,0.109,0.123,-0.048,-0.069,0.116,-0.021,-0.093,-0.159,-0.17,-0.16,-0.125
-0.013,0.11,0.123,-0.049,-0.068,0.116,-0.024,-0.102,-0.165,-0.177,-0.164,-0.125
-0.012,0.115,0.127,-0.052,-0.07,0.121,-0.025,-0.112,-0.164,-0.18,-0.169,-0.125
-0.024,0.114,0.138,-0.045,-0.081,0.126,-0.024,-0.123,-0.168,-0.186,-0.172,-0.125
-0.029,0.103,0.132,-0.037,-0.081,0.117,-0.028,-0.132,-0.183,-0.204,-0.177,-0.124
-0.035,0.092,0.127,-0.029,-0.081,0.109,-0.038,-0.14,-0.186,-0.216,-0.18,-0.131
-0.066,0.079,0.145,-0.007,-0.106,0.112,-0.045,-0.144,-0.184,-0.214,-0.18,-0.136
-0.055,0.072,0.127,-0.009,-0.091,0.099,-0.044,-0.147,-0.185,-0.218,-0.185,-0.135
-0.034,0.068,0.102,-0.017,-0.068,0.085,-0.047,-0.15,-0.185,-0.22,-0.185,-0.134
-0.054,0.077,0.13,-0.012,-0.092,0.103,-0.05,-0.152,-0.185,-0.22,-0.182,-0.142
-0.071,0.091,0.162,-0.01,-0.116,0.126,-0.05,-0.156,-0.185,-0.216,-0.179,-0.151
-0.066,0.09,0.156,-0.012,-0.111,0.123,-0.047,-0.153,-0.187,-0.214,-0.182,-0.149
-0.065,0.089,0.153,-0.012,-0.109,0.12,-0.045,-0.149,-0.198,-0.215,-0.186,-0.15
-0.064,0.085,0.149,-0.01,-0.107,0.117,-0.045,-0.15,-0.204,-0.21,-0.185,-0.15
-0.061,0.085,0.146,-0.012,-0.104,0.116,-0.041,-0.15,-0.195,-0.21,-0.185,-0.147
-0.055,0.08,0.136,-0.013,-0.096,0.108,-0.04,-0.15,-0.189,-0.209,-0.18,-0.142
-0.042,0.052,0.094,-0.005,-0.069,0.073,-0.04,-0.15,-0.183,-0.202,-0.18,-0.139
-0.037,0.034,0.071,0.001,-0.054,0.052,-0.035,-0.144,-0.174,-0.198,-0.179,-0.135
-0.049,0.015,0.064,0.017,-0.057,0.039,-0.032,-0.137,-0.187,-0.192,-0.175,-0.131
-0.044,0.01,0.054,0.016,-0.049,0.032,-0.029,-0.131,-0.196,-0.186,-0.173,-0.129
-0.009,0.037,0.046,-0.015,-0.028,0.042,-0.024,-0.124,-0.187,-0.181,-0.169,-0.124
-0.019,0.017,0.036,0.001,-0.028,0.026,-0.021,-0.116,-0.185,-0.176,-0.167,-0.126
-0.057,-0.022,0.035,0.039,-0.045,0.006,-0.017,-0.121,-0.179,-0.174,-0.164,-0.122
-0.057,-0.026,0.031,0.041,-0.043,0.002,-0.014,-0.126,-0.176,-0.176,-0.166,-0.12
-0.054,-0.028,0.027,0.041,-0.041,0.0,-0.015,-0.124,-0.171,-0.174,-0.164,-0.12
-0.07,-0.044,0.026,0.057,-0.048,-0.008,-0.011,-0.125,-0.171,-0.176,-0.166,-0.117
-0.057,-0.053,0.003,0.055,-0.03,-0.025,-0.009,-0.124,-0.167,-0.174,-0.165,-0.115
-0.05,-0.047,0.004,0.048,-0.027,-0.021,-0.011,-0.125,-0.164,-0.165,-0.165,-0.115
-0.058,-0.05,0.008,0.054,-0.033,-0.021,0.002,-0.12,-0.164,-0.157,-0.164,-0.114
-0.059,-0.019,0.04,0.039,-0.049,0.011,0.014,-0.114,-0.14,-0.147,-0.14,-0.1
-0.061,0.009,0.07,0.026,-0.065,0.039,0.031,-0.108,-0.139,-0.152,-0.139,-0.102
-0.05,0.024,0.074,0.013,-0.062,0.049,0.029,-0.099,-0.13,-0.145,-0.132,-0.09
-0.032,0.087,0.119,-0.028,-0.076,0.103,-0.006,-0.108,-0.107,-0.13,-0.115,-0.07
-0.015,0.11,0.124,-0.048,-0.07,0.117,-0.032,-0.136,-0.111,-0.138,-0.123,-0.079
-0.008,0.105,0.113,-0.049,-0.061,0.109,-0.036,-0.151,-0.109,-0.137,-0.124,-0.077
-0.008,0.053,0.06,-0.023,-0.034,0.056,-0.034,-0.148,-0.121,-0.143,-0.129,-0.086
-0.031,-0.035,-0.005,0.033,-0.013,-0.02,-0.033,-0.163,-0.143,-0.145,-0.131,-0.084
-0.051,-0.074,-0.023,0.063,-0.014,-0.049,-0.027,-0.151,-0.138,-0.154,-0.144,-0.096
-0.05,-0.064,-0.014,0.057,-0.018,-0.039,-0.034,-0.181,-0.164,-0.179,-0.162,-0.116
-0.046,-0.071,-0.025,0.059,-0.01,-0.048,-0.031,-0.17,-0.153,-0.172,-0.171,-0.125
-0.07,-0.097,-0.028,0.084,-0.021,-0.063,-0.049,-0.188,-0.166,-0.191,-0.179,-0.13
-0.116,-0.098,0.018,0.107,-0.067,-0.04,-0.037,-0.176,-0.15,-0.183,-0.168,-0.124
-0.098,-0.106,-0.008,0.102,-0.045,-0.056,-0.034,-0.17,-0.147,-0.194,-0.172,-0.144
-0.045,-0.09,-0.044,0.068,0.0,-0.067,0.021,-0.008,-0.072,-0.143,-0.15,-0.117
0.057,-0.064,-0.121,0.004,0.089,-0.093,0.146,0.456,0.312,0.047,-0.078,-0.08
0.344,0.563,0.219,-0.454,0.062,0.391,-0.236,-0.419,0.645,0.723,0.579,0.495
0.346,1.189,0.844,-0.768,-0.249,1.016,-0.77,-1.807,0.594,1.312,1.23,1.122
-0.095,0.679,0.774,-0.292,-0.435,0.727,-0.827,-1.959,-0.313,0.423,0.585,0.65
-0.232,0.108,0.34,0.062,-0.287,0.224,-0.578,-1.358,-0.82,-0.358,-0.12,0.058
-0.133,-0.002,0.131,0.067,-0.132,0.064,-0.256,-0.553,-0.368,-0.243,-0.167,-0.079
-0.137,-0.059,0.078,0.098,-0.107,0.009,-0.093,-0.211,-0.219,-0.233,-0.187,-0.117
-0.099,-0.073,0.026,0.086,-0.062,-0.024,-0.049,-0.106,-0.159,-0.179,-0.169,-0.104
-0.089,-0.109,-0.02,0.099,-0.035,-0.064,-0.027,-0.041,-0.131,-0.182,-0.173,-0.112
-0.08,-0.133,-0.053,0.107,-0.013,-0.093,-0.015,-0.023,-0.137,-0.181,-0.167,-0.102
-0.062,-0.132,-0.07,0.098,0.004,-0.101,0.001,0.02,-0.108,-0.169,-0.162,-0.102
-0.065,-0.126,-0.062,0.096,-0.001,-0.094,0.014,0.01,-0.115,-0.164,-0.16,-0.1
-0.037,-0.12,-0.083,0.079,0.023,-0.102,0.03,0.035,-0.081,-0.135,-0.148,-0.095
-0.04,-0.115,-0.076,0.078,0.018,-0.095,0.031,0.05,-0.077,-0.139,-0.147,-0.091
-0.045,-0.109,-0.064,0.077,0.01,-0.086,0.026,0.063,-0.063,-0.124,-0.135,-0.084
-0.057,-0.115,-0.058,0.086,0.001,-0.086,0.021,0.069,-0.058,-0.123,-0.133,-0.08
-0.056,-0.106,-0.05,0.081,-0.003,-0.077,0.018,0.078,-0.049,-0.113,-0.124,-0.073
-0.024,-0.071,-0.047,0.048,0.012,-0.059,0.011,0.087,-0.038,-0.108,-0.117,-0.069
-0.021,-0.063,-0.041,0.042,0.01,-0.052,0.013,0.115,-0.005,-0.083,-0.109,-0.057
-0.012,-0.051,-0.039,0.031,0.014,-0.044,0.026,0.141,0.015,-0.058,-0.093,-0.046
-0.016,-0.03,-0.014,0.023,0.0,-0.022,0.019,0.167,0.034,-0.044,-0.067,-0.032
-0.023,-0.016,0.007,0.019,-0.015,-0.004,0.013,0.211,0.077,-0.012,-0.038,-0.012
0.002,0.031,0.029,-0.017,-0.013,0.029,0.006,0.251,0.117,0.032,-0.001,0.014
0.035,0.085,0.049,-0.06,-0.007,0.067,-0.001,0.304,0.184,0.09,0.046,0.054
0.081,0.134,0.053,-0.107,0.014,0.093,-0.006,0.34,0.244,0.143,0.09,0.1
0.103,0.19,0.086,-0.146,0.008,0.138,-0.022,0.363,0.298,0.203,0.145,0.145
0.113,0.217,0.104,-0.165,0.004,0.16,-0.027,0.387,0.363,0.266,0.202,0.191
0.117,0.214,0.097,-0.166,0.009,0.155,-0.019,0.409,0.407,0.313,0.246,0.232
0.123,0.225,0.102,-0.174,0.01,0.163,-0.015,0.408,0.421,0.344,0.27,0.25
0.143,0.246,0.104,-0.195,0.02,0.175,-0.008,0.391,0.412,0.348,0.26,0.258
0.103,0.217,0.114,-0.16,-0.006,0.165,0.024,0.373,0.388,0.325,0.244,0.245
0.1,0.142,0.042,-0.121,0.029,0.092,0.051,0.337,0.341,0.274,0.214,0.198
0.101,0.057,-0.044,-0.079,0.072,0.006,0.056,0.283,0.261,0.19,0.145,0.144
0.007,-0.051,-0.058,0.022,0.033,-0.054,0.067,0.213,0.167,0.105,0.076,0.08
-0.01,-0.096,-0.087,0.053,0.039,-0.091,0.081,0.155,0.088,0.045,0.021,0.034
-0.015,-0.114,-0.099,0.065,0.042,-0.107,0.083,0.116,0.037,0.001,-0.029,0.014
-0.041,-0.152,-0.111,0.097,0.035,-0.132,0.076,0.091,0.01,-0.019,-0.04,0.002
-0.022,-0.153,-0.131,0.088,0.055,-0.142,0.071,0.081,0.0,-0.027,-0.047,-0.005
-0.024,-0.15,-0.126,0.087,0.051,-0.138,0.065,0.074,-0.01,-0.041,-0.067,-0.013
-0.043,-0.147,-0.104,0.095,0.031,-0.125,0.06,0.067,-0.032,-0.064,-0.07,-0.028
-0.037,-0.142,-0.104,0.09,0.034,-0.122,0.056,0.061,-0.035,-0.07,-0.07,-0.038
-0.039,-0.14,-0.101,0.09,0.031,-0.12,0.053,0.054,-0.028,-0.061,-0.07,-0.031
-0.061,-0.133,-0.072,0.098,0.005,-0.102,0.051,0.05,-0.047,-0.06,-0.07,-0.023
-0.054,-0.13,-0.076,0.092,0.011,-0.102,0.047,0.05,-0.056,-0.053,-0.07,-0.019
-0.048,-0.123,-0.074,0.086,0.013,-0.098,0.045,0.048,-0.05,-0.05,-0.07,-0.009
-0.042,-0.119,-0.076,0.081,0.017,-0.097,0.043,0.044,-0.048,-0.05,-0.075,-0.008
-0.022,-0.111,-0.09,0.067,0.034,-0.1,0.036,0.045,-0.043,-0.05,-0.075,-0.022
-0.029,-0.11,-0.081,0.07,0.026,-0.095,0.029,0.04,-0.04,-0.051,-0.075,-0.027
-0.052,-0.129,-0.077,0.091,0.012,-0.103,0.023,0.03,-0.044,-0.048,-0.076,-0.023
-0.041,-0.12,-0.08,0.08,0.02,-0.1,0.015,0.022,-0.051,-0.059,-0.074,-0.028
-0.028,-0.109,-0.081,0.068,0.026,-0.095,0.011,0.012,-0.06,-0.076,-0.078,-0.044
-0.032,-0.111,-0.079,0.071,0.024,-0.095,0.015,0.006,-0.068,-0.085,-0.083,-0.049
-0.028,-0.11,-0.082,0.069,0.027,-0.096,0.022,0.011,-0.067,-0.093,-0.081,-0.042
-0.035,-0.111,-0.077,0.073,0.021,-0.094,0.026,0.014,-0.065,-0.086,-0.078,-0.036
-0.038,-0.132,-0.094,0.085,0.028,-0.112,0.032,0.017,-0.065,-0.074,-0.075,-0.029
-0.045,-0.17,-0.126,0.108,0.041,-0.148,0.038,0.022,-0.06,-0.07,-0.073,-0.023
-0.057,-0.179,-0.122,0.118,0.032,-0.15,0.038,0.025,-0.06,-0.07,-0.069,-0.015
-0.07,-0.185,-0.115,0.128,0.023,-0.15,0.033,0.021,-0.061,-0.07,-0.068,-0.021
-0.079,-0.193,-0.114,0.137,0.018,-0.154,0.03,0.014,-0.059,-0.07,-0.063,-0.025
-0.078,-0.183,-0.105,0.131,0.014,-0.143,0.027,0.007,-0.068,-0.07,-0.068,-0.031
-0.06,-0.171,-0.111,0.116,0.026,-0.141,0.022,0.001,-0.076,-0.07,-0.084,-0.036
-0.05,-0.165,-0.115,0.108,0.033,-0.14,0.02,-0.006,-0.075,-0.07,-0.081,-0.034
-0.058,-0.148,-0.09,0.103,0.016,-0.119,0.015,-0.009,-0.075,-0.078,-0.074,-0.035
-0.06,-0.166,-0.106,0.113,0.023,-0.136,0.018,-0.004,-0.075,-0.077,-0.07,-0.035
-0.058,-0.215,-0.157,0.136,0.05,-0.185,0.037,-0.001,-0.075,-0.068,-0.063,-0.035
-0.05,-0.22,-0.17,0.135,0.06,-0.195,0.041,0.002,-0.072,-0.063,-0.06,-0.032
-0.035,-0.204,-0.169,0.12,0.067,-0.187,0.036,0.007,-0.069,-0.059,-0.06,-0.029
-0.032,-0.203,-0.171,0.117,0.07,-0.187,0.034,0.01,-0.066,-0.06,-0.06,-0.026
-0.064,-0.233,-0.169,0.148,0.052,-0.201,0.03,0.007,-0.063,-0.06,-0.06,-0.023
-0.07,-0.242,-0.172,0.156,0.051,-0.207,0.025,0.004,-0.06,-0.06,-0.06,-0.021
-0.067,-0.233,-0.166,0.15,0.05,-0.199,0.027,0.006,-0.059,-0.06,-0.06,-0.018
-0.071,-0.236,-0.164,0.154,0.047,-0.2,0.031,0.004,-0.054,-0.059,-0.056,-0.016
-0.06,-0.243,-0.182,0.152,0.061,-0.212,0.034,0.008,-0.048,-0.052,-0.05,-0.013
-0.066,-0.245,-0.179,0.155,0.057,-0.211,0.038,0.019,-0.045,-0.043,-0.045,-0.01
-0.056,-0.226,-0.17,0.141,0.057,-0.198,0.041,0.035,-0.039,-0.035,-0.038,-0.006
-0.045,-0.209,-0.164,0.127,0.06,-0.186,0.057,0.053,-0.036,-0.027,-0.031,-0.005
-0.046,-0.185,-0.139,0.116,0.047,-0.162,0.071,0.063,-0.031,-0.02,-0.024,-0.001
-0.038,-0.158,-0.12,0.098,0.041,-0.139,0.077,0.065,-0.03,-0.01,-0.018,0.01
-0.027,-0.137,-0.11,0.083,0.042,-0.123,0.064,0.057,-0.03,-0.001,-0.009,0.02
-0.029,-0.129,-0.099,0.079,0.035,-0.114,0.042,0.051,-0.029,0.015,0.017,0.03
-0.039,-0.131,-0.093,0.085,0.027,-0.112,0.025,0.037,-0.033,0.024,0.034,0.044
-0.032,-0.127,-0.095,0.08,0.031,-0.111,0.015,0.036,-0.027,-0.002,0.002,0.029
-0.025,-0.126,-0.101,0.076,0.038,-0.113,0.014,0.013,-0.06,-0.035,-0.027,0.003
-0.05,-0.173,-0.123,0.112,0.037,-0.148,0.03,0.014,-0.065,-0.051,-0.042,-0.022
-0.076,-0.221,-0.145,0.148,0.035,-0.182,0.029,0.005,-0.07,-0.069,-0.057,-0.044
-0.087,-0.24,-0.153,0.164,0.033,-0.196,0.03,0.016,-0.056,-0.05,-0.05,-0.047
-0.079,-0.269,-0.19,0.174,0.056,-0.229,0.032,0.023,-0.057,-0.06,-0.062,-0.058
-0.072,-0.243,-0.171,0.158,0.05,-0.207,0.025,0.012,-0.056,-0.039,-0.044,-0.048
-0.079,-0.278,-0.199,0.179,0.06,-0.239,0.038,0.049,-0.031,-0.046,-0.057,-0.068
-0.04,-0.293,-0.253,0.166,0.107,-0.273,0.041,0.078,-0.021,-0.024,-0.045,-0.049
-0.003,-0.286,-0.283,0.144,0.14,-0.284,0.188,0.608,0.342,0.119,-0.006,-0.051
0.254,0.204,-0.05,-0.229,0.152,0.077,-0.032,0.222,0.738,0.673,0.499,0.383
0.382,0.982,0.6,-0.682,-0.109,0.791,-0.58,-1.275,0.855,1.524,1.351,1.129
-0.056,0.642,0.698,-0.294,-0.377,0.67,-0.668,-1.746,0.062,0.851,0.886,0.813
-0.267,-0.021,0.245,0.144,-0.256,0.112,-0.53,-1.351,-0.805,-0.266,-0.032,0.115
-0.19,-0.18,0.01,0.185,-0.099,-0.085,-0.303,-0.616,-0.46,-0.214,-0.112,-0.051
-0.156,-0.217,-0.062,0.187,-0.047,-0.139,-0.102,-0.127,-0.179,-0.137,-0.098,-0.072
-0.073,-0.189,-0.116,0.131,0.022,-0.153,-0.042,-0.014,-0.121,-0.092,-0.082,-0.041
-0.06,-0.199,-0.139,0.13,0.04,-0.169,-0.009,0.068,-0.058,-0.063,-0.073,-0.046
-0.065,-0.187,-0.121,0.126,0.028,-0.154,-0.005,0.069,-0.077,-0.078,-0.074,-0.042
-0.079,-0.214,-0.135,0.147,0.029,-0.174,0.012,0.102,-0.041,-0.051,-0.057,-0.037
-0.069,-0.225,-0.156,0.148,0.043,-0.19,0.019,0.104,-0.057,-0.064,-0.062,-0.038
-0.057,-0.21,-0.153,0.134,0.048,-0.181,0.028,0.115,-0.035,-0.039,-0.046,-0.031
-0.08,-0.205,-0.124,0.143,0.022,-0.164,0.025,0.122,-0.036,-0.042,-0.044,-0.03
-0.068,-0.181,-0.113,0.125,0.023,-0.147,0.024,0.132,-0.012,-0.026,-0.03,-0.019
-0.038,-0.174,-0.136,0.106,0.049,-0.155,0.024,0.145,0.009,-0.018,-0.025,-0.016
-0.042,-0.172,-0.13,0.108,0.044,-0.151,0.019,0.146,0.024,-0.007,-0.015,-0.006
-0.037,-0.154,-0.118,0.096,0.04,-0.136,0.021,0.161,0.042,0.01,-0.004,-0.003
0.001,-0.118,-0.119,0.058,0.06,-0.118,0.016,0.173,0.049,0.02,0.004,0.009
-0.007,-0.131,-0.124,0.07,0.059,-0.128,0.015,0.191,0.068,0.042,0.022,0.024
0.002,-0.119,-0.122,0.059,0.062,-0.12,0.011,0.212,0.095,0.063,0.039,0.043
0.027,-0.079,-0.106,0.026,0.067,-0.092,0.008,0.22,0.133,0.098,0.062,0.067
0.051,-0.043,-0.094,-0.004,0.073,-0.068,0.005,0.248,0.18,0.138,0.099,0.089
0.082,0.012,-0.07,-0.047,0.076,-0.029,0.004,0.294,0.232,0.182,0.14,0.127
0.087,0.043,-0.044,-0.065,0.065,0.0,0.008,0.327,0.288,0.246,0.192,0.164
0.132,0.094,-0.038,-0.113,0.084,0.028,-0.022,0.359,0.359,0.312,0.26,0.216
0.146,0.11,-0.036,-0.127,0.09,0.037,-0.036,0.38,0.417,0.376,0.313,0.266
0.142,0.141,0.0,-0.141,0.071,0.07,-0.025,0.378,0.451,0.416,0.348,0.292
0.166,0.223,0.057,-0.195,0.054,0.14,-0.024,0.37,0.456,0.43,0.364,0.306
0.156,0.25,0.094,-0.203,0.031,0.171,-0.015,0.365,0.44,0.435,0.368,0.306
0.143,0.26,0.117,-0.201,0.013,0.188,-0.013,0.361,0.425,0.402,0.339,0.287
0.135,0.254,0.12,-0.195,0.007,0.187,0.002,0.32,0.356,0.335,0.265,0.233
0.106,0.196,0.09,-0.151,0.008,0.142,0.022,0.261,0.268,0.252,0.192,0.162
0.065,0.106,0.041,-0.086,0.011,0.074,0.042,0.213,0.191,0.168,0.127,0.1
0.043,0.046,0.003,-0.045,0.02,0.024,0.067,0.158,0.114,0.108,0.075,0.057
0.014,-0.01,-0.024,-0.002,0.019,-0.017,0.071,0.118,0.069,0.058,0.044,0.029
-0.008,-0.062,-0.054,0.036,0.023,-0.058,0.069,0.094,0.037,0.035,0.025,0.017
-0.007,-0.065,-0.058,0.036,0.026,-0.061,0.07,0.089,0.019,0.027,0.012,0.013
-0.009,-0.059,-0.05,0.034,0.02,-0.054,0.07,0.091,0.011,0.014,0.001,0.007
-0.029,-0.075,-0.046,0.053,0.008,-0.06,0.069,0.086,0.004,0.011,-0.001,0.001
-0.032,-0.069,-0.038,0.051,0.003,-0.053,0.064,0.085,-0.002,0.005,-0.004,-0.004
-0.019,-0.05,-0.031,0.035,0.006,-0.04,0.061,0.085,-0.01,0.0,-0.007,-0.002
-0.023,-0.044,-0.021,0.034,0.0,-0.032,0.058,0.078,-0.014,-0.007,-0.01,0.002
-0.021,-0.038,-0.018,0.03,-0.001,-0.028,0.053,0.071,-0.017,-0.009,-0.01,0.004
-0.02,-0.03,-0.009,0.025,-0.005,-0.019,0.05,0.064,-0.02,-0.002,-0.002,0.009
-0.017,-0.026,-0.009,0.022,-0.004,-0.017,0.046,0.056,-0.023,0.004,0.004,0.009
-0.02,-0.016,0.004,0.018,-0.012,-0.006,0.041,0.049,-0.025,0.002,0.002,0.001
0.003,0.001,-0.002,-0.003,0.002,0.0,0.036,0.043,-0.028,-0.007,-0.007,-0.006
-0.005,-0.019,-0.015,0.012,0.005,-0.017,0.033,0.036,-0.034,-0.012,-0.012,-0.013
-0.053,-0.023,0.029,0.038,-0.041,0.003,0.027,0.029,-0.046,-0.02,-0.02,-0.021
-0.046,-0.01,0.036,0.028,-0.041,0.013,0.026,0.022,-0.045,-0.026,-0.026,-0.027
-0.03,-0.005,0.025,0.017,-0.028,0.01,0.03,0.016,-0.05,-0.031,-0.029,-0.034
-0.01,0.017,0.027,-0.004,-0.019,0.021,0.03,0.01,-0.078,-0.052,-0.047,-0.035
-0.004,0.014,0.019,-0.005,-0.012,0.016,0.03,0.005,-0.087,-0.062,-0.057,-0.035
-0.016,0.004,0.019,0.006,-0.018,0.011,0.03,0.005,-0.088,-0.059,-0.058,-0.04
-0.016,-0.003,0.013,0.009,-0.014,0.005,0.03,0.005,-0.093,-0.064,-0.061,-0.04
-0.025,-0.014,0.012,0.02,-0.018,-0.001,0.027,0.005,-0.095,-0.065,-0.064,-0.041
-0.026,-0.019,0.007,0.022,-0.016,-0.006,0.022,0.004,-0.099,-0.065,-0.065,-0.045
-0.019,-0.021,-0.002,0.02,-0.008,-0.011,0.019,0.008,-0.102,-0.06,-0.061,-0.045
-0.006,-0.019,-0.013,0.013,0.003,-0.016,0.016,0.017,-0.105,-0.06,-0.059,-0.047
0.009,-0.021,-0.03,0.006,0.02,-0.025,0.011,0.016,-0.108,-0.059,-0.055,-0.05
0.007,-0.019,-0.026,0.006,0.017,-0.022,0.011,0.011,-0.11,-0.055,-0.053,-0.05
0.0,-0.021,-0.021,0.011,0.011,-0.021,0.02,0.009,-0.113,-0.055,-0.048,-0.047
-0.014,-0.031,-0.016,0.023,0.001,-0.023,0.029,0.005,-0.115,-0.059,-0.057,-0.044
-0.018,-0.026,-0.008,0.022,-0.004,-0.017,0.03,0.0,-0.115,-0.061,-0.072,-0.045
-0.011,-0.02,-0.008,0.016,-0.001,-0.014,0.031,0.002,-0.115,-0.06,-0.068,-0.045
0.005,-0.012,-0.017,0.004,0.011,-0.014,0.029,0.006,-0.115,-0.061,-0.066,-0.046
0.028,-0.008,-0.036,-0.01,0.033,-0.022,0.031,0.005,-0.115,-0.06,-0.062,-0.044
0.0,0.007,0.007,-0.003,-0.004,0.007,0.028,0.013,-0.106,-0.06,-0.06,-0.038
0.008,0.054,0.046,-0.032,-0.019,0.05,0.026,0.019,-0.093,-0.053,-0.057,-0.032
0.026,0.089,0.062,-0.058,-0.018,0.075,0.054,0.026,-0.082,-0.038,-0.038,-0.026
0.003,0.094,0.091,-0.049,-0.044,0.092,0.069,0.029,-0.068,-0.025,-0.028,-0.022
0.015,0.097,0.082,-0.056,-0.034,0.089,0.045,0.015,-0.059,-0.02,-0.017,-0.016
0.017,0.088,0.071,-0.053,-0.027,0.079,0.008,0.012,-0.053,-0.019,-0.013,-0.015
0.02,0.092,0.072,-0.056,-0.026,0.081,-0.004,-0.004,-0.048,-0.022,-0.009,-0.015
0.043,0.09,0.048,-0.067,-0.003,0.069,0.015,-0.005,-0.054,-0.017,-0.004,-0.014
0.045,0.058,0.013,-0.052,0.015,0.035,0.01,-0.021,-0.089,-0.031,-0.023,-0.018
-0.016,0.003,0.019,0.006,-0.017,0.011,0.007,-0.023,-0.093,-0.054,-0.042,-0.036
-0.045,-0.048,-0.003,0.047,-0.02,-0.026,0.001,-0.032,-0.113,-0.087,-0.07,-0.057
-0.019,-0.023,-0.004,0.021,-0.007,-0.013,-0.007,-0.041,-0.116,-0.085,-0.075,-0.057
-0.037,-0.029,0.008,0.033,-0.022,-0.01,-0.006,-0.027,-0.109,-0.095,-0.095,-0.079
-0.044,-0.022,0.022,0.033,-0.033,0.0,-0.017,-0.062,-0.129,-0.089,-0.086,-0.069
-0.014,-0.023,-0.008,0.019,-0.003,-0.015,0.001,-0.016,-0.09,-0.084,-0.091,-0.083
0.013,-0.021,-0.033,0.004,0.023,-0.027,-0.021,-0.021,-0.114,-0.101,-0.097,-0.082
0.036,-0.063,-0.098,0.014,0.067,-0.08,0.152,0.477,0.217,0.038,-0.058,-0.082
0.24,0.258,0.018,-0.249,0.111,0.138,0.048,0.313,0.62,0.481,0.309,0.206
0.435,1.171,0.736,-0.803,-0.151,0.953,-0.574,-1.233,0.807,1.428,1.232,1.015
0.123,1.088,0.965,-0.606,-0.421,1.027,-0.794,-1.899,0.272,1.137,1.099,0.971
-0.181,0.316,0.497,-0.067,-0.339,0.406,-0.659,-1.553,-0.763,-0.151,0.08,0.197
-0.115,0.089,0.203,0.012,-0.159,0.146,-0.405,-0.822,-0.612,-0.275,-0.164,-0.059
-0.075,0.034,0.109,0.02,-0.092,0.071,-0.147,-0.24,-0.233,-0.161,-0.142,-0.103
-0.047,0.063,0.11,-0.009,-0.079,0.086,-0.063,-0.1,-0.189,-0.163,-0.141,-0.107
-0.033,0.055,0.088,-0.011,-0.061,0.071,-0.024,-0.004,-0.104,-0.117,-0.13,-0.104
-0.032,0.073,0.106,-0.021,-0.069,0.089,-0.031,-0.01,-0.143,-0.152,-0.151,-0.115
-0.017,0.104,0.121,-0.044,-0.069,0.112,-0.025,0.012,-0.109,-0.117,-0.137,-0.102
-0.027,0.083,0.11,-0.029,-0.069,0.096,-0.019,0.016,-0.122,-0.136,-0.141,-0.109
-0.002,0.116,0.118,-0.057,-0.06,0.116,-0.018,0.021,-0.11,-0.118,-0.121,-0.102
-0.012,0.117,0.128,-0.053,-0.07,0.122,-0.009,0.037,-0.103,-0.119,-0.117,-0.102
-0.035,0.101,0.136,-0.033,-0.086,0.118,-0.014,0.049,-0.085,-0.108,-0.105,-0.099
-0.009,0.12,0.129,-0.056,-0.069,0.124,-0.015,0.066,-0.064,-0.099,-0.1,-0.099
0.011,0.138,0.127,-0.075,-0.058,0.132,-0.015,0.066,-0.061,-0.094,-0.096,-0.091
0.018,0.141,0.123,-0.08,-0.052,0.132,-0.019,0.072,-0.043,-0.084,-0.088,-0.083
0.067,0.185,0.118,-0.126,-0.026,0.152,-0.02,0.094,-0.031,-0.075,-0.084,-0.079
0.076,0.192,0.116,-0.135,-0.02,0.154,-0.021,0.12,-0.001,-0.053,-0.077,-0.064
0.06,0.188,0.129,-0.124,-0.035,0.158,-0.024,0.146,0.026,-0.025,-0.054,-0.042
0.065,0.19,0.125,-0.128,-0.03,0.158,-0.027,0.192,0.066,0.014,-0.021,-0.023
0.056,0.193,0.137,-0.125,-0.041,0.165,-0.029,0.228,0.104,0.043,0.012,0.002
0.087,0.249,0.162,-0.168,-0.038,0.205,-0.031,0.275,0.144,0.087,0.049,0.032
0.12,0.308,0.188,-0.214,-0.035,0.248,-0.055,0.319,0.211,0.153,0.087,0.068
0.137,0.377,0.24,-0.258,-0.052,0.308,-0.067,0.337,0.274,0.209,0.139,0.111
0.166,0.427,0.261,-0.297,-0.048,0.344,-0.064,0.364,0.322,0.262,0.185,0.149
0.188,0.448,0.26,-0.318,-0.037,0.354,-0.065,0.374,0.359,0.313,0.227,0.188
0.191,0.489,0.297,-0.34,-0.053,0.393,-0.07,0.37,0.371,0.327,0.261,0.213
0.193,0.527,0.334,-0.36,-0.071,0.43,-0.079,0.357,0.357,0.312,0.26,0.204
0.187,0.539,0.352,-0.363,-0.083,0.445,-0.064,0.31,0.337,0.293,0.231,0.174
0.149,0.484,0.335,-0.317,-0.093,0.409,-0.038,0.267,0.289,0.252,0.181,0.137
0.117,0.397,0.28,-0.257,-0.081,0.338,-0.022,0.217,0.208,0.174,0.107,0.082
0.091,0.329,0.238,-0.211,-0.073,0.283,-0.012,0.148,0.116,0.082,0.032,0.02
0.045,0.253,0.207,-0.149,-0.081,0.23,-0.003,0.093,0.035,0.01,-0.023,-0.024
0.01,0.2,0.19,-0.105,-0.09,0.194,0.011,0.052,-0.019,-0.034,-0.059,-0.052
0.018,0.189,0.171,-0.103,-0.077,0.18,0.016,0.022,-0.055,-0.06,-0.086,-0.073
0.021,0.19,0.169,-0.106,-0.074,0.18,0.014,0.005,-0.08,-0.082,-0.11,-0.09
0.011,0.189,0.179,-0.1,-0.084,0.184,0.015,-0.011,-0.091,-0.096,-0.114,-0.089
0.01,0.19,0.18,-0.1,-0.085,0.185,0.015,-0.027,-0.105,-0.103,-0.114,-0.096
0.01,0.19,0.18,-0.1,-0.085,0.185,0.015,-0.031,-0.115,-0.108,-0.116,-0.107
0.011,0.19,0.179,-0.1,-0.084,0.184,0.013,-0.029,-0.115,-0.111,-0.114,-0.104
-0.006,0.211,0.217,-0.103,-0.112,0.213,0.006,-0.03,-0.117,-0.12,-0.116,-0.108
-0.022,0.217,0.239,-0.098,-0.131,0.228,0.002,-0.024,-0.126,-0.129,-0.114,-0.11
-0.008,0.233,0.242,-0.113,-0.125,0.237,-0.005,-0.026,-0.145,-0.13,-0.116,-0.11
0.019,0.265,0.246,-0.142,-0.113,0.255,-0.009,-0.024,-0.145,-0.13,-0.122,-0.114
0.0,0.266,0.267,-0.133,-0.134,0.266,-0.017,-0.027,-0.144,-0.135,-0.128,-0.115
-0.039,0.261,0.3,-0.111,-0.17,0.28,-0.034,-0.047,-0.146,-0.135,-0.146,-0.115
-0.033,0.254,0.287,-0.111,-0.16,0.27,-0.033,-0.051,-0.143,-0.136,-0.153,-0.116
-0.027,0.247,0.274,-0.111,-0.151,0.261,-0.028,-0.049,-0.15,-0.141,-0.154,-0.121
-0.005,0.241,0.245,-0.118,-0.125,0.243,-0.026,-0.051,-0.144,-0.143,-0.159,-0.124
0.009,0.235,0.226,-0.122,-0.109,0.23,-0.02,-0.061,-0.156,-0.153,-0.161,-0.126
0.008,0.236,0.227,-0.122,-0.11,0.231,-0.021,-0.064,-0.17,-0.164,-0.168,-0.124
0.022,0.234,0.212,-0.128,-0.095,0.222,-0.029,-0.07,-0.18,-0.168,-0.174,-0.129
0.005,0.241,0.236,-0.124,-0.116,0.238,-0.038,-0.081,-0.201,-0.17,-0.171,-0.14
0.001,0.249,0.248,-0.125,-0.124,0.249,-0.036,-0.08,-0.2,-0.17,-0.17,-0.139
0.003,0.238,0.235,-0.121,-0.116,0.236,-0.03,-0.08,-0.2,-0.17,-0.17,-0.143
0.013,0.231,0.218,-0.122,-0.103,0.224,-0.025,-0.08,-0.2,-0.17,-0.165,-0.147
0.018,0.218,0.2,-0.118,-0.092,0.209,-0.019,-0.08,-0.199,-0.17,-0.164,-0.143
-0.001,0.18,0.181,-0.09,-0.091,0.181,-0.013,-0.08,-0.203,-0.169,-0.167,-0.141
0.007,0.164,0.157,-0.085,-0.076,0.16,-0.01,-0.08,-0.205,-0.174,-0.171,-0.137
0.0,0.16,0.16,-0.08,-0.08,0.16,-0.01,-0.08,-0.205,-0.178,-0.169,-0.134
-0.003,0.157,0.16,-0.077,-0.082,0.158,-0.01,-0.08,-0.205,-0.183,-0.17,-0.137
-0.012,0.148,0.16,-0.068,-0.087,0.154,-0.01,-0.08,-0.204,-0.184,-0.171,-0.141
