-0.029,-0.079,-0.049,0.054,0.011,-0.064,0.005,-0.051,-0.116,-0.103,-0.076,-0.066
-0.035,-0.07,-0.035,0.052,0.0,-0.052,0.013,-0.047,-0.12,-0.104,-0.079,-0.068
-0.054,-0.057,-0.003,0.056,-0.025,-0.03,0.019,-0.048,-0.105,-0.078,-0.066,-0.054
-0.078,-0.12,-0.042,0.1,-0.018,-0.081,0.03,-0.005,-0.093,-0.098,-0.088,-0.071
-0.088,-0.061,0.027,0.074,-0.057,-0.017,0.059,0.082,-0.008,-0.028,-0.021,-0.018
-0.022,-0.017,0.005,0.019,-0.013,-0.006,0.082,0.139,0.205,0.156,0.097,0.063
0.346,0.251,-0.095,-0.298,0.22,0.078,-0.008,0.283,0.57,0.514,0.389,0.314
0.784,0.572,-0.212,-0.678,0.498,0.179,-0.454,-0.202,0.818,0.901,0.696,0.59
0.426,0.248,-0.178,-0.337,0.302,0.034,-0.744,-1.031,-0.226,0.161,0.182,0.239
-0.076,-0.035,0.041,0.055,-0.058,0.003,-0.388,-0.669,-0.752,-0.358,-0.175,-0.062
-0.043,-0.092,-0.049,0.068,0.003,-0.07,-0.033,-0.016,-0.168,-0.118,-0.068,-0.042
-0.05,-0.122,-0.072,0.087,0.011,-0.097,0.007,0.008,-0.124,-0.104,-0.099,-0.036
-0.067,-0.09,-0.023,0.079,-0.022,-0.056,0.023,0.016,-0.102,-0.051,-0.066,-0.022
-0.029,-0.09,-0.061,0.06,0.016,-0.075,0.04,0.01,-0.085,-0.079,-0.074,-0.064
-0.044,-0.075,-0.031,0.06,-0.006,-0.053,0.039,0.005,-0.084,-0.073,-0.061,-0.055
-0.064,-0.104,-0.04,0.084,-0.012,-0.072,0.036,0.006,-0.051,-0.061,-0.054,-0.053
-0.043,-0.067,-0.024,0.055,-0.009,-0.046,0.033,-0.005,-0.067,-0.069,-0.058,-0.05
-0.034,-0.056,-0.022,0.046,-0.006,-0.039,0.03,0.014,-0.04,-0.051,-0.052,-0.042
-0.047,-0.096,-0.049,0.072,0.001,-0.072,0.031,0.014,-0.049,-0.059,-0.058,-0.042
-0.044,-0.096,-0.052,0.07,0.005,-0.074,0.049,0.038,-0.032,-0.046,-0.052,-0.034
-0.058,-0.073,-0.015,0.065,-0.021,-0.043,0.049,0.047,-0.031,-0.05,-0.057,-0.036
-0.043,-0.03,0.013,0.036,-0.027,-0.009,0.04,0.042,-0.022,-0.043,-0.052,-0.033
-0.039,-0.025,0.014,0.031,-0.026,-0.005,0.035,0.042,-0.015,-0.042,-0.051,-0.03
-0.05,-0.032,0.018,0.04,-0.033,-0.007,0.026,0.036,-0.011,-0.04,-0.047,-0.03
-0.03,-0.02,0.011,0.024,-0.02,-0.004,0.023,0.036,-0.004,-0.036,-0.045,-0.029
-0.022,0.004,0.026,0.009,-0.024,0.015,0.014,0.033,-0.002,-0.03,-0.042,-0.031
-0.02,0.015,0.034,0.002,-0.027,0.024,0.009,0.038,0.004,-0.022,-0.04,-0.036
-0.006,0.037,0.043,-0.015,-0.025,0.039,-0.004,0.053,0.008,-0.016,-0.037,-0.033
0.009,0.089,0.08,-0.049,-0.036,0.084,-0.018,0.056,0.023,-0.009,-0.029,-0.028
0.013,0.094,0.081,-0.054,-0.034,0.088,-0.023,0.075,0.045,-0.003,-0.022,-0.024
0.017,0.095,0.078,-0.056,-0.031,0.086,-0.048,0.089,0.057,0.001,-0.016,-0.02
0.031,0.113,0.082,-0.072,-0.026,0.097,-0.058,0.087,0.081,0.007,-0.009,-0.013
0.066,0.145,0.078,-0.105,-0.006,0.111,-0.087,0.086,0.097,0.01,-0.004,-0.004
0.101,0.182,0.081,-0.142,0.01,0.131,-0.13,0.082,0.106,0.015,0.001,0.005
0.107,0.187,0.08,-0.147,0.013,0.133,-0.145,0.08,0.119,0.02,0.004,0.013
0.145,0.224,0.079,-0.185,0.033,0.151,-0.168,0.076,0.111,0.017,0.007,0.022
0.172,0.244,0.071,-0.208,0.05,0.157,-0.18,0.075,0.104,0.014,0.012,0.033
0.2,0.242,0.042,-0.221,0.079,0.141,-0.195,0.071,0.095,0.016,0.015,0.029
0.193,0.249,0.056,-0.222,0.068,0.153,-0.189,0.064,0.09,0.015,0.012,0.024
0.116,0.205,0.088,-0.161,0.014,0.146,-0.14,0.058,0.077,0.015,0.01,0.018
0.072,0.156,0.085,-0.114,-0.007,0.12,-0.1,0.051,0.043,0.014,0.008,0.012
0.026,0.115,0.089,-0.071,-0.031,0.102,-0.064,0.045,-0.007,-0.02,-0.02,-0.008
-0.018,0.073,0.091,-0.027,-0.055,0.082,-0.038,0.027,-0.05,-0.045,-0.052,-0.039
-0.037,0.055,0.092,-0.009,-0.065,0.073,-0.028,0.009,-0.073,-0.057,-0.055,-0.05
-0.034,0.062,0.096,-0.015,-0.065,0.079,-0.017,-0.018,-0.099,-0.079,-0.078,-0.064
-0.045,0.06,0.105,-0.008,-0.075,0.083,-0.01,-0.037,-0.116,-0.091,-0.101,-0.076
-0.056,0.047,0.104,0.004,-0.08,0.075,-0.003,-0.034,-0.132,-0.095,-0.099,-0.079
-0.035,0.055,0.09,-0.011,-0.063,0.072,0.001,-0.035,-0.136,-0.095,-0.1,-0.08
-0.08,0.008,0.088,0.035,-0.084,0.048,0.01,-0.035,-0.134,-0.1,-0.1,-0.08
-0.089,0.0,0.088,0.045,-0.088,0.044,0.025,-0.035,-0.136,-0.099,-0.1,-0.079
-0.073,0.04,0.113,0.016,-0.093,0.077,0.027,-0.033,-0.135,-0.109,-0.098,-0.083
-0.097,0.033,0.13,0.031,-0.113,0.081,0.023,-0.029,-0.134,-0.119,-0.094,-0.088
-0.063,0.027,0.091,0.018,-0.077,0.059,0.021,-0.026,-0.126,-0.107,-0.092,-0.081
-0.059,0.008,0.068,0.025,-0.063,0.038,0.017,-0.022,-0.118,-0.101,-0.089,-0.074
-0.071,0.012,0.083,0.029,-0.077,0.047,0.015,-0.019,-0.11,-0.094,-0.086,-0.068
-0.074,0.006,0.08,0.034,-0.077,0.043,0.017,-0.016,-0.102,-0.087,-0.084,-0.061
-0.091,-0.021,0.07,0.056,-0.08,0.024,0.027,-0.011,-0.096,-0.081,-0.08,-0.055
-0.094,-0.029,0.065,0.061,-0.079,0.018,0.034,-0.009,-0.093,-0.075,-0.08,-0.051
-0.089,-0.031,0.058,0.06,-0.073,0.013,0.043,-0.005,-0.089,-0.074,-0.079,-0.048
-0.074,-0.025,0.049,0.049,-0.061,0.012,0.049,0.0,-0.087,-0.07,-0.075,-0.045
-0.065,-0.024,0.041,0.044,-0.053,0.009,0.045,-0.002,-0.08,-0.068,-0.075,-0.043
-0.096,-0.046,0.049,0.071,-0.073,0.001,0.037,-0.008,-0.083,-0.064,-0.077,-0.039
-0.097,-0.057,0.04,0.077,-0.068,-0.008,0.031,-0.011,-0.094,-0.068,-0.08,-0.043
-0.079,-0.046,0.033,0.062,-0.056,-0.007,0.025,-0.016,-0.095,-0.075,-0.08,-0.05
-0.083,-0.063,0.02,0.073,-0.052,-0.021,0.016,-0.02,-0.095,-0.074,-0.084,-0.05
-0.069,-0.09,-0.021,0.079,-0.024,-0.055,0.022,-0.02,-0.093,-0.077,-0.085,-0.05
-0.071,-0.092,-0.02,0.081,-0.025,-0.056,0.032,-0.02,-0.111,-0.082,-0.085,-0.051
-0.063,-0.078,-0.016,0.071,-0.023,-0.047,0.027,-0.02,-0.117,-0.087,-0.085,-0.049
-0.07,-0.086,-0.016,0.079,-0.027,-0.051,0.024,-0.022,-0.113,-0.09,-0.085,-0.053
-0.071,-0.075,-0.004,0.073,-0.033,-0.039,0.021,-0.027,-0.11,-0.086,-0.085,-0.055
-0.064,-0.055,0.009,0.059,-0.036,-0.022,0.017,-0.028,-0.11,-0.081,-0.085,-0.055
-0.077,-0.052,0.024,0.064,-0.05,-0.014,0.014,-0.039,-0.131,-0.079,-0.086,-0.067
-0.074,-0.034,0.039,0.054,-0.056,0.003,0.009,-0.035,-0.125,-0.074,-0.082,-0.071
-0.074,-0.061,0.013,0.068,-0.043,-0.024,0.023,-0.024,-0.114,-0.07,-0.08,-0.069
-0.046,-0.08,-0.034,0.064,-0.006,-0.057,0.033,-0.026,-0.115,-0.072,-0.08,-0.067
-0.07,-0.059,0.012,0.064,-0.041,-0.023,0.029,-0.023,-0.109,-0.079,-0.076,-0.064
-0.104,-0.067,0.036,0.085,-0.07,-0.015,0.031,-0.021,-0.109,-0.085,-0.075,-0.065
-0.089,-0.069,0.021,0.079,-0.055,-0.024,0.026,-0.019,-0.103,-0.085,-0.075,-0.065
-0.095,-0.073,0.022,0.084,-0.058,-0.025,0.025,-0.024,-0.11,-0.085,-0.08,-0.065
-0.074,-0.066,0.007,0.07,-0.04,-0.029,0.024,-0.03,-0.131,-0.084,-0.079,-0.065
-0.071,-0.053,0.017,0.062,-0.044,-0.018,0.021,-0.036,-0.136,-0.089,-0.086,-0.065
-0.099,-0.049,0.05,0.074,-0.074,0.0,0.014,-0.047,-0.134,-0.1,-0.101,-0.065
-0.113,-0.034,0.079,0.073,-0.095,0.022,0.011,-0.044,-0.136,-0.1,-0.099,-0.062
-0.119,-0.045,0.074,0.081,-0.096,0.014,0.006,-0.048,-0.135,-0.101,-0.102,-0.06
-0.119,-0.044,0.075,0.081,-0.097,0.015,0.002,-0.05,-0.136,-0.105,-0.105,-0.061
-0.102,-0.025,0.077,0.063,-0.089,0.026,-0.003,-0.049,-0.141,-0.105,-0.106,-0.069
-0.076,-0.015,0.062,0.045,-0.069,0.023,-0.024,-0.052,-0.143,-0.102,-0.102,-0.079
-0.095,-0.011,0.085,0.053,-0.09,0.037,-0.018,-0.04,-0.132,-0.093,-0.093,-0.079
-0.077,0.011,0.088,0.032,-0.082,0.049,-0.007,-0.027,-0.125,-0.084,-0.084,-0.072
-0.039,0.054,0.093,-0.008,-0.066,0.074,0.017,-0.009,-0.116,-0.077,-0.077,-0.071
-0.029,0.095,0.124,-0.033,-0.077,0.109,0.044,0.014,-0.093,-0.073,-0.078,-0.074
0.025,0.123,0.098,-0.074,-0.037,0.11,0.045,0.021,-0.067,-0.076,-0.083,-0.075
0.01,0.098,0.089,-0.054,-0.04,0.093,0.037,-0.007,-0.072,-0.074,-0.086,-0.075
-0.005,0.063,0.067,-0.029,-0.036,0.065,-0.022,-0.063,-0.108,-0.081,-0.088,-0.074
0.01,0.057,0.048,-0.034,-0.019,0.052,-0.047,-0.08,-0.13,-0.098,-0.095,-0.08
-0.053,0.064,0.117,-0.006,-0.085,0.09,-0.041,-0.08,-0.132,-0.093,-0.096,-0.094
-0.092,0.055,0.147,0.018,-0.119,0.1,-0.037,-0.088,-0.165,-0.132,-0.12,-0.128
-0.083,0.056,0.138,0.013,-0.111,0.097,-0.031,-0.093,-0.149,-0.125,-0.106,-0.125
-0.086,0.029,0.114,0.028,-0.1,0.071,-0.025,-0.079,-0.142,-0.125,-0.111,-0.125
-0.089,0.024,0.113,0.032,-0.101,0.068,-0.019,-0.068,-0.143,-0.121,-0.1,-0.111
-0.069,-0.003,0.066,0.036,-0.068,0.032,-0.013,-0.067,-0.111,-0.106,-0.096,-0.104
-0.093,-0.03,0.062,0.061,-0.078,0.016,0.041,0.037,-0.098,-0.102,-0.101,-0.105
-0.068,0.033,0.1,0.017,-0.084,0.066,0.076,0.101,0.088,0.07,0.023,-0.03
0.134,0.159,0.025,-0.146,0.054,0.092,0.048,0.222,0.333,0.29,0.195,0.116
0.64,0.542,-0.098,-0.59,0.368,0.222,-0.259,0.091,0.782,0.79,0.603,0.457
0.661,0.493,-0.168,-0.577,0.414,0.162,-0.711,-0.785,0.3,0.559,0.46,0.388
0.054,0.103,0.049,-0.078,0.002,0.076,-0.622,-1.013,-0.764,-0.283,-0.122,-0.034
-0.079,0.031,0.11,0.024,-0.095,0.07,-0.165,-0.24,-0.453,-0.244,-0.142,-0.112
-0.026,-0.021,0.005,0.023,-0.015,-0.008,0.006,0.057,-0.099,-0.105,-0.098,-0.101
-0.065,-0.028,0.037,0.046,-0.051,0.005,-0.006,0.007,-0.132,-0.097,-0.094,-0.094
-0.077,-0.058,0.018,0.067,-0.047,-0.02,0.009,0.023,-0.074,-0.064,-0.076,-0.093
-0.081,-0.062,0.02,0.071,-0.05,-0.021,0.009,-0.005,-0.114,-0.094,-0.088,-0.097
-0.053,-0.03,0.023,0.042,-0.038,-0.003,0.018,0.01,-0.075,-0.069,-0.068,-0.098
-0.086,-0.047,0.039,0.066,-0.062,-0.004,0.021,0.009,-0.096,-0.088,-0.076,-0.107
-0.082,-0.034,0.047,0.058,-0.064,0.006,0.027,0.017,-0.067,-0.074,-0.08,-0.094
-0.074,-0.048,0.027,0.061,-0.051,-0.01,0.035,0.023,-0.064,-0.075,-0.084,-0.09
-0.062,-0.055,0.006,0.058,-0.033,-0.024,0.031,0.026,-0.069,-0.067,-0.065,-0.066
-0.051,-0.051,0.0,0.051,-0.025,-0.026,0.035,0.032,-0.04,-0.06,-0.061,-0.059
-0.049,-0.049,-0.001,0.049,-0.024,-0.025,0.033,0.028,-0.036,-0.057,-0.055,-0.061
-0.061,-0.043,0.018,0.052,-0.039,-0.013,0.027,0.031,-0.024,-0.05,-0.05,-0.057
-0.079,-0.042,0.038,0.06,-0.059,-0.002,0.024,0.04,-0.018,-0.051,-0.047,-0.055
-0.06,-0.036,0.025,0.048,-0.042,-0.005,0.019,0.047,-0.011,-0.05,-0.039,-0.055
-0.033,-0.019,0.014,0.025,-0.023,-0.002,0.014,0.051,-0.002,-0.049,-0.049,-0.06
-0.039,-0.027,0.011,0.033,-0.025,-0.008,0.009,0.052,0.006,-0.036,-0.047,-0.057
-0.032,-0.002,0.03,0.017,-0.031,0.014,0.002,0.069,0.022,-0.021,-0.031,-0.049
0.013,0.033,0.02,-0.023,-0.004,0.026,-0.004,0.087,0.045,-0.011,-0.019,-0.043
0.007,0.018,0.011,-0.012,-0.002,0.014,-0.011,0.085,0.058,0.002,-0.003,-0.035
0.028,0.024,-0.003,-0.026,0.016,0.01,-0.018,0.094,0.073,0.023,0.01,-0.025
0.045,0.026,-0.019,-0.036,0.032,0.003,-0.022,0.112,0.103,0.039,0.022,-0.009
0.031,0.009,-0.022,-0.019,0.026,-0.007,-0.033,0.133,0.128,0.046,0.035,0.003
0.073,0.004,-0.068,-0.038,0.07,-0.032,-0.029,0.144,0.154,0.059,0.046,0.017
0.121,0.022,-0.099,-0.071,0.11,-0.039,-0.029,0.148,0.188,0.091,0.073,0.051
0.176,0.029,-0.147,-0.102,0.161,-0.059,-0.068,0.143,0.198,0.104,0.081,0.07
0.181,0.005,-0.177,-0.093,0.179,-0.086,-0.09,0.133,0.191,0.097,0.087,0.084
0.155,-0.007,-0.162,-0.074,0.159,-0.084,-0.097,0.127,0.186,0.095,0.1,0.092
0.156,0.015,-0.142,-0.085,0.149,-0.063,-0.106,0.118,0.18,0.092,0.087,0.079
0.149,0.045,-0.104,-0.096,0.126,-0.029,-0.089,0.111,0.157,0.086,0.078,0.068
0.122,0.035,-0.087,-0.078,0.104,-0.026,-0.046,0.101,0.115,0.086,0.064,0.054
0.072,-0.002,-0.074,-0.034,0.073,-0.038,-0.006,0.094,0.076,0.061,0.042,0.032
0.037,-0.037,-0.074,0.001,0.056,-0.056,0.03,0.079,0.026,0.026,0.017,0.008
0.012,-0.067,-0.079,0.028,0.046,-0.073,0.052,0.057,-0.015,0.015,-0.007,-0.013
-0.016,-0.096,-0.08,0.056,0.032,-0.088,0.054,0.049,-0.028,0.003,-0.01,-0.031
-0.038,-0.123,-0.085,0.081,0.024,-0.104,0.075,0.046,-0.037,-0.007,-0.01,-0.036
-0.043,-0.129,-0.085,0.087,0.021,-0.106,0.082,0.043,-0.048,-0.023,-0.014,-0.034
-0.058,-0.148,-0.09,0.103,0.016,-0.119,0.078,0.038,-0.058,-0.033,-0.016,-0.039
-0.083,-0.173,-0.09,0.128,0.004,-0.132,0.081,0.035,-0.06,-0.029,-0.014,-0.04
-0.082,-0.172,-0.09,0.127,0.004,-0.13,0.079,0.038,-0.06,-0.031,-0.011,-0.04
-0.085,-0.175,-0.09,0.13,0.003,-0.132,0.081,0.042,-0.06,-0.03,-0.008,-0.034
-0.077,-0.167,-0.09,0.122,0.007,-0.128,0.076,0.045,-0.06,-0.03,-0.005,-0.028
-0.047,-0.137,-0.09,0.092,0.022,-0.113,0.075,0.049,-0.059,-0.029,-0.002,-0.024
-0.05,-0.14,-0.09,0.095,0.021,-0.115,0.075,0.051,-0.046,-0.026,0.0,-0.018
-0.074,-0.164,-0.09,0.119,0.008,-0.126,0.074,0.056,-0.031,-0.023,0.0,-0.012
-0.07,-0.161,-0.09,0.115,0.01,-0.125,0.076,0.06,-0.025,-0.02,0.0,-0.012
-0.061,-0.15,-0.089,0.105,0.015,-0.119,0.073,0.057,-0.025,-0.018,0.0,-0.016
-0.065,-0.15,-0.085,0.108,0.01,-0.118,0.069,0.051,-0.025,-0.014,0.0,-0.015
-0.055,-0.14,-0.085,0.098,0.016,-0.112,0.063,0.047,-0.025,-0.018,0.0,-0.016
-0.058,-0.139,-0.081,0.099,0.012,-0.109,0.06,0.042,-0.024,-0.026,0.0,-0.019
-0.068,-0.149,-0.08,0.108,0.007,-0.114,0.055,0.038,-0.027,-0.032,-0.009,-0.023
-0.037,-0.113,-0.076,0.075,0.02,-0.094,0.05,0.033,-0.037,-0.039,-0.023,-0.028
-0.047,-0.106,-0.059,0.077,0.006,-0.082,0.062,0.029,-0.052,-0.045,-0.025,-0.034
-0.078,-0.125,-0.047,0.102,-0.015,-0.086,0.065,0.026,-0.06,-0.045,-0.025,-0.04
-0.072,-0.117,-0.044,0.095,-0.014,-0.08,0.059,0.023,-0.063,-0.045,-0.025,-0.039
-0.081,-0.117,-0.036,0.1,-0.022,-0.076,0.057,0.018,-0.065,-0.045,-0.024,-0.042
-0.08,-0.114,-0.034,0.097,-0.022,-0.074,0.053,0.015,-0.069,-0.045,-0.026,-0.045
-0.085,-0.112,-0.027,0.098,-0.029,-0.069,0.049,0.011,-0.069,-0.047,-0.029,-0.045
-0.083,-0.107,-0.024,0.096,-0.029,-0.066,0.052,0.002,-0.072,-0.05,-0.032,-0.045
-0.056,-0.105,-0.049,0.081,-0.003,-0.076,0.064,-0.004,-0.076,-0.053,-0.034,-0.045
-0.06,-0.117,-0.057,0.089,-0.001,-0.087,0.059,-0.012,-0.072,-0.056,-0.038,-0.045
-0.06,-0.106,-0.045,0.083,-0.007,-0.075,0.054,-0.019,-0.09,-0.059,-0.04,-0.043
-0.082,-0.068,0.015,0.075,-0.048,-0.026,0.038,-0.025,-0.105,-0.06,-0.043,-0.062
-0.108,-0.057,0.051,0.082,-0.08,-0.003,0.02,-0.037,-0.114,-0.055,-0.061,-0.073
-0.095,-0.053,0.042,0.074,-0.068,-0.005,0.02,-0.038,-0.119,-0.055,-0.063,-0.069
-0.09,-0.045,0.046,0.067,-0.068,0.001,0.02,-0.03,-0.107,-0.055,-0.053,-0.069
-0.082,-0.043,0.039,0.063,-0.06,-0.002,0.02,-0.027,-0.104,-0.056,-0.049,-0.065
-0.077,-0.036,0.041,0.057,-0.059,0.003,0.02,-0.019,-0.095,-0.06,-0.04,-0.065
-0.086,-0.049,0.037,0.067,-0.061,-0.006,0.02,-0.016,-0.091,-0.06,-0.035,-0.068
-0.078,-0.044,0.033,0.061,-0.055,-0.005,0.01,-0.038,-0.098,-0.06,-0.044,-0.07
-0.069,-0.043,0.026,0.056,-0.048,-0.008,0.026,-0.047,-0.101,-0.061,-0.051,-0.07
-0.099,-0.074,0.025,0.086,-0.062,-0.024,0.044,-0.047,-0.104,-0.059,-0.05,-0.073
-0.095,-0.078,0.017,0.086,-0.056,-0.03,0.027,-0.052,-0.107,-0.062,-0.05,-0.076
-0.069,-0.052,0.017,0.06,-0.043,-0.017,0.015,-0.054,-0.11,-0.065,-0.05,-0.074
-0.07,-0.008,0.062,0.038,-0.065,0.027,0.009,-0.055,-0.111,-0.065,-0.05,-0.072
-0.069,0.003,0.072,0.033,-0.071,0.037,0.011,-0.049,-0.106,-0.073,-0.055,-0.068
-0.088,-0.025,0.063,0.056,-0.075,0.019,0.01,-0.043,-0.099,-0.07,-0.059,-0.066
-0.085,-0.023,0.062,0.054,-0.073,0.019,0.011,-0.038,-0.092,-0.061,-0.05,-0.062
-0.044,0.015,0.059,0.014,-0.051,0.036,0.012,-0.032,-0.086,-0.057,-0.04,-0.06
-0.037,0.013,0.05,0.012,-0.043,0.031,0.021,-0.025,-0.079,-0.042,-0.03,-0.056
-0.04,0.029,0.069,0.005,-0.054,0.048,0.04,-0.001,-0.072,-0.026,-0.02,-0.045
-0.016,0.083,0.099,-0.034,-0.058,0.091,0.058,0.04,-0.05,-0.008,-0.005,-0.032
-0.002,0.067,0.069,-0.033,-0.036,0.068,0.063,0.059,-0.016,0.006,0.008,-0.024
0.037,0.06,0.024,-0.049,0.007,0.042,0.006,0.015,-0.047,-0.012,0.006,-0.034
0.036,0.033,-0.003,-0.035,0.019,0.015,-0.024,-0.033,-0.093,-0.053,-0.029,-0.058
-0.027,0.006,0.034,0.01,-0.031,0.02,-0.012,-0.043,-0.088,-0.056,-0.04,-0.064
-0.076,-0.02,0.056,0.047,-0.066,0.018,-0.009,-0.052,-0.105,-0.068,-0.044,-0.077
-0.101,-0.046,0.055,0.073,-0.078,0.004,0.009,-0.056,-0.117,-0.083,-0.062,-0.075
-0.077,-0.02,0.057,0.048,-0.066,0.018,0.008,-0.065,-0.097,-0.07,-0.061,-0.072
-0.102,-0.021,0.081,0.061,-0.091,0.03,0.012,-0.053,-0.115,-0.089,-0.074,-0.082
-0.091,-0.014,0.077,0.052,-0.084,0.031,-0.009,-0.071,-0.088,-0.057,-0.051,-0.063
-0.087,-0.058,0.029,0.072,-0.058,-0.014,0.008,-0.025,-0.111,-0.092,-0.085,-0.099
-0.09,0.033,0.123,0.028,-0.107,0.078,0.057,0.072,0.011,0.015,-0.001,-0.04
-0.006,0.127,0.133,-0.061,-0.069,0.129,0.062,0.136,0.213,0.173,0.116,0.042
0.361,0.39,0.029,-0.375,0.166,0.209,-0.061,0.247,0.589,0.559,0.427,0.309
0.799,0.639,-0.16,-0.719,0.479,0.239,-0.495,-0.311,0.759,0.887,0.69,0.548
0.348,0.264,-0.085,-0.306,0.216,0.089,-0.744,-1.065,-0.336,0.1,0.154,0.178
-0.105,0.016,0.12,0.044,-0.113,0.068,-0.373,-0.615,-0.712,-0.32,-0.135,-0.085
-0.012,-0.018,-0.006,0.015,-0.002,-0.012,-0.006,0.03,-0.126,-0.073,-0.037,-0.067
-0.081,-0.062,0.018,0.071,-0.049,-0.022,0.003,0.046,-0.103,-0.071,-0.072,-0.069
-0.094,-0.043,0.051,0.068,-0.072,0.005,-0.003,0.035,-0.061,-0.025,-0.039,-0.052
-0.088,-0.059,0.03,0.073,-0.059,-0.014,0.018,0.026,-0.058,-0.059,-0.054,-0.066
-0.084,-0.036,0.048,0.06,-0.066,0.006,0.014,0.015,-0.059,-0.055,-0.041,-0.057
-0.066,-0.031,0.035,0.049,-0.051,0.002,0.017,0.014,-0.042,-0.049,-0.04,-0.061
-0.074,-0.034,0.04,0.054,-0.057,0.003,0.013,0.0,-0.056,-0.054,-0.038,-0.055
-0.056,0.003,0.059,0.026,-0.057,0.031,0.017,-0.002,-0.034,-0.041,-0.028,-0.055
-0.048,0.035,0.083,0.006,-0.066,0.059,0.012,-0.011,-0.046,-0.049,-0.029,-0.055
-0.063,-0.016,0.046,0.039,-0.054,0.015,0.025,0.009,-0.03,-0.036,-0.02,-0.049
-0.081,-0.042,0.039,0.061,-0.059,-0.001,0.036,0.025,-0.03,-0.036,-0.019,-0.051
-0.059,-0.028,0.032,0.043,-0.045,0.002,0.028,0.035,-0.02,-0.028,-0.012,-0.047
-0.053,-0.024,0.029,0.039,-0.041,0.002,0.025,0.043,-0.006,-0.023,-0.01,-0.044
-0.045,-0.012,0.033,0.028,-0.039,0.011,0.017,0.044,0.006,-0.018,-0.006,-0.04
-0.054,0.007,0.061,0.023,-0.058,0.034,0.013,0.051,0.018,-0.012,-0.003,-0.037
-0.035,0.033,0.068,0.001,-0.052,0.05,0.007,0.045,0.02,-0.004,0.001,-0.032
0.001,0.035,0.034,-0.018,-0.017,0.034,0.001,0.048,0.031,0.004,0.005,-0.03
-0.016,0.036,0.052,-0.01,-0.035,0.044,-0.004,0.079,0.055,0.014,0.009,-0.024
-0.012,0.04,0.052,-0.014,-0.032,0.046,-0.011,0.087,0.073,0.027,0.018,-0.018
-0.002,0.041,0.043,-0.02,-0.022,0.042,-0.013,0.088,0.087,0.038,0.026,-0.01
0.038,0.079,0.041,-0.058,-0.002,0.06,-0.035,0.091,0.103,0.044,0.034,-0.005
0.078,0.11,0.032,-0.094,0.023,0.071,-0.052,0.096,0.118,0.052,0.042,0.004
0.088,0.117,0.029,-0.103,0.029,0.073,-0.069,0.109,0.135,0.063,0.044,0.015
0.097,0.112,0.015,-0.105,0.041,0.063,-0.09,0.112,0.165,0.073,0.058,0.028
0.116,0.096,-0.019,-0.106,0.067,0.038,-0.098,0.108,0.181,0.091,0.075,0.046
0.169,0.132,-0.036,-0.15,0.102,0.047,-0.126,0.102,0.174,0.097,0.08,0.054
0.201,0.148,-0.053,-0.174,0.127,0.047,-0.143,0.099,0.165,0.09,0.093,0.074
0.192,0.144,-0.048,-0.168,0.119,0.048,-0.138,0.094,0.159,0.09,0.092,0.08
0.142,0.156,0.014,-0.149,0.064,0.085,-0.143,0.09,0.149,0.083,0.078,0.067
0.121,0.138,0.017,-0.13,0.052,0.078,-0.12,0.079,0.136,0.082,0.072,0.054
0.085,0.127,0.042,-0.106,0.021,0.084,-0.071,0.062,0.1,0.07,0.051,0.025
-0.022,0.083,0.105,-0.031,-0.064,0.094,-0.036,0.046,0.033,0.027,0.019,-0.008
-0.029,0.07,0.099,-0.021,-0.064,0.084,-0.016,0.029,-0.005,0.0,-0.003,-0.036
0.008,0.094,0.086,-0.051,-0.039,0.089,-0.009,0.013,-0.039,-0.005,-0.017,-0.048
-0.01,0.087,0.098,-0.039,-0.054,0.092,-0.003,-0.003,-0.066,-0.023,-0.034,-0.056
-0.036,0.084,0.12,-0.024,-0.079,0.101,0.005,-0.018,-0.068,-0.04,-0.05,-0.068
-0.059,0.084,0.143,-0.013,-0.101,0.113,0.008,-0.027,-0.084,-0.049,-0.056,-0.068
-0.067,0.076,0.143,-0.005,-0.105,0.11,0.003,-0.031,-0.081,-0.057,-0.059,-0.076
-0.078,0.08,0.158,-0.001,-0.118,0.118,-0.003,-0.036,-0.093,-0.061,-0.064,-0.098
-0.083,0.126,0.209,-0.022,-0.146,0.167,-0.007,-0.045,-0.112,-0.081,-0.077,-0.107
-0.08,0.139,0.219,-0.03,-0.15,0.179,-0.014,-0.044,-0.105,-0.089,-0.087,-0.105
-0.079,0.132,0.211,-0.027,-0.146,0.172,-0.019,-0.041,-0.1,-0.081,-0.084,-0.105
-0.082,0.136,0.218,-0.028,-0.151,0.177,-0.017,-0.038,-0.095,-0.08,-0.081,-0.105
-0.077,0.135,0.211,-0.03,-0.144,0.173,-0.015,-0.035,-0.087,-0.075,-0.078,-0.105
-0.069,0.154,0.222,-0.043,-0.146,0.188,-0.015,-0.034,-0.087,-0.072,-0.075,-0.105
-0.083,0.159,0.241,-0.038,-0.162,0.2,-0.016,-0.03,-0.106,-0.068,-0.074,-0.103
-0.087,0.141,0.228,-0.028,-0.158,0.184,-0.013,-0.03,-0.106,-0.065,-0.07,-0.099
-0.089,0.127,0.216,-0.02,-0.153,0.172,-0.02,-0.03,-0.094,-0.065,-0.068,-0.097
-0.093,0.121,0.215,-0.015,-0.154,0.168,-0.031,-0.029,-0.089,-0.063,-0.065,-0.094
-0.094,0.115,0.21,-0.011,-0.152,0.162,-0.025,-0.031,-0.08,-0.059,-0.062,-0.091
-0.083,0.112,0.196,-0.015,-0.14,0.154,-0.02,-0.028,-0.086,-0.06,-0.06,-0.089
-0.081,0.102,0.183,-0.011,-0.132,0.142,-0.017,-0.036,-0.091,-0.065,-0.06,-0.086
-0.081,0.106,0.187,-0.013,-0.134,0.146,-0.011,-0.051,-0.09,-0.066,-0.06,-0.085
-0.074,0.099,0.174,-0.013,-0.124,0.136,-0.008,-0.046,-0.09,-0.065,-0.06,-0.085
-0.08,0.061,0.14,0.009,-0.111,0.1,-0.004,-0.043,-0.087,-0.063,-0.06,-0.085
-0.066,0.06,0.126,0.002,-0.096,0.093,-0.002,-0.04,-0.085,-0.06,-0.059,-0.085
-0.074,0.082,0.157,-0.004,-0.116,0.119,0.002,-0.034,-0.083,-0.059,-0.062,-0.087
-0.079,0.076,0.155,0.001,-0.117,0.115,0.015,-0.041,-0.1,-0.069,-0.065,-0.09
-0.071,0.062,0.134,0.004,-0.103,0.098,0.013,-0.046,-0.112,-0.077,-0.068,-0.09
-0.051,0.066,0.117,-0.008,-0.084,0.091,0.009,-0.045,-0.109,-0.072,-0.07,-0.09
-0.05,0.069,0.119,-0.009,-0.085,0.094,0.006,-0.042,-0.109,-0.07,-0.073,-0.09
-0.093,0.071,0.164,0.011,-0.129,0.117,0.002,-0.04,-0.113,-0.066,-0.076,-0.09
-0.088,0.077,0.165,0.005,-0.127,0.121,-0.001,-0.039,-0.121,-0.065,-0.071,-0.09
-0.08,0.084,0.164,-0.002,-0.123,0.124,-0.017,-0.047,-0.12,-0.068,-0.07,-0.09
-0.069,0.097,0.165,-0.015,-0.117,0.131,-0.023,-0.06,-0.12,-0.071,-0.07,-0.09
-0.064,0.101,0.165,-0.019,-0.115,0.132,-0.016,-0.062,-0.12,-0.074,-0.065,-0.09
-0.071,0.093,0.164,-0.012,-0.118,0.128,-0.014,-0.065,-0.119,-0.077,-0.064,-0.089
-0.059,0.093,0.152,-0.017,-0.106,0.123,-0.012,-0.068,-0.122,-0.08,-0.067,-0.093
-0.056,0.086,0.142,-0.015,-0.1,0.114,-0.004,-0.07,-0.126,-0.08,-0.07,-0.095
-0.042,0.085,0.127,-0.022,-0.085,0.106,-0.012,-0.07,-0.129,-0.08,-0.072,-0.096
-0.07,0.096,0.166,-0.013,-0.118,0.131,-0.006,-0.07,-0.133,-0.08,-0.075,-0.1
-0.099,0.085,0.184,0.007,-0.142,0.134,-0.006,-0.069,-0.135,-0.084,-0.075,-0.1
-0.068,0.109,0.177,-0.021,-0.123,0.143,-0.023,-0.066,-0.131,-0.086,-0.075,-0.095
-0.047,0.128,0.175,-0.041,-0.112,0.152,-0.028,-0.064,-0.126,-0.085,-0.076,-0.092
-0.051,0.126,0.176,-0.038,-0.114,0.151,-0.035,-0.065,-0.124,-0.085,-0.074,-0.088
-0.069,0.134,0.203,-0.033,-0.137,0.168,-0.025,-0.065,-0.119,-0.085,-0.076,-0.085
-0.073,0.132,0.204,-0.03,-0.139,0.168,-0.019,-0.065,-0.116,-0.085,-0.073,-0.08
-0.062,0.144,0.207,-0.042,-0.135,0.175,-0.013,-0.063,-0.112,-0.067,-0.063,-0.082
-0.039,0.162,0.201,-0.062,-0.12,0.181,-0.004,-0.04,-0.092,-0.052,-0.05,-0.086
0.0,0.22,0.22,-0.111,-0.11,0.22,0.004,-0.026,-0.076,-0.049,-0.041,-0.083
0.02,0.257,0.237,-0.139,-0.109,0.247,0.013,0.001,-0.061,-0.046,-0.04,-0.09
0.02,0.234,0.214,-0.127,-0.098,0.224,-0.035,-0.023,-0.065,-0.045,-0.042,-0.089
-0.02,0.183,0.204,-0.082,-0.112,0.193,-0.069,-0.091,-0.111,-0.067,-0.06,-0.091
-0.06,0.144,0.204,-0.042,-0.132,0.174,-0.042,-0.09,-0.138,-0.091,-0.063,-0.095
-0.067,0.127,0.194,-0.03,-0.131,0.16,-0.031,-0.086,-0.135,-0.084,-0.069,-0.098
-0.078,0.112,0.19,-0.017,-0.134,0.151,-0.026,-0.085,-0.152,-0.092,-0.089,-0.108
-0.063,0.125,0.188,-0.031,-0.126,0.157,-0.029,-0.081,-0.129,-0.072,-0.075,-0.097
-0.096,0.071,0.167,0.012,-0.131,0.119,-0.017,-0.078,-0.14,-0.089,-0.091,-0.101
-0.09,0.084,0.173,0.003,-0.131,0.128,-0.028,-0.079,-0.121,-0.061,-0.06,-0.071
-0.085,0.034,0.119,0.025,-0.103,0.076,0.002,-0.055,-0.107,-0.08,-0.083,-0.102
-0.106,0.052,0.158,0.027,-0.132,0.105,0.04,-0.005,-0.033,-0.025,-0.035,-0.063
-0.042,0.156,0.198,-0.057,-0.12,0.177,0.033,0.071,0.158,0.14,0.088,0.024
0.253,0.355,0.102,-0.304,0.075,0.228,-0.018,0.24,0.481,0.447,0.33,0.231
0.757,0.701,-0.056,-0.729,0.406,0.322,-0.412,-0.148,0.821,0.9,0.693,0.558
0.476,0.452,-0.024,-0.464,0.25,0.214,-0.758,-1.01,-0.096,0.298,0.269,0.277
-0.09,0.122,0.212,-0.016,-0.151,0.167,-0.49,-0.818,-0.791,-0.332,-0.168,-0.077
-0.059,0.072,0.131,-0.007,-0.095,0.102,-0.09,-0.082,-0.244,-0.123,-0.078,-0.075
-0.039,0.07,0.109,-0.015,-0.074,0.089,-0.022,-0.004,-0.124,-0.089,-0.085,-0.077
-0.08,0.088,0.168,-0.004,-0.124,0.128,-0.033,-0.043,-0.099,-0.065,-0.056,-0.06
-0.077,0.054,0.131,0.011,-0.104,0.092,-0.015,-0.025,-0.067,-0.062,-0.064,-0.075
-0.059,0.093,0.153,-0.017,-0.106,0.123,-0.014,-0.032,-0.09,-0.064,-0.06,-0.065
-0.07,0.073,0.143,-0.002,-0.106,0.108,0.0,-0.015,-0.053,-0.047,-0.053,-0.063
-0.09,0.063,0.153,0.013,-0.122,0.108,0.003,-0.019,-0.073,-0.056,-0.058,-0.061
-0.066,0.058,0.124,0.003,-0.095,0.091,0.018,-0.007,-0.045,-0.039,-0.046,-0.054
-0.059,0.053,0.111,0.002,-0.085,0.082,0.019,-0.007,-0.054,-0.045,-0.048,-0.055
-0.065,0.055,0.12,0.004,-0.093,0.088,0.011,0.0,-0.04,-0.033,-0.038,-0.048
-0.035,0.079,0.113,-0.023,-0.074,0.096,0.01,0.004,-0.036,-0.036,-0.038,-0.048
-0.037,0.104,0.141,-0.034,-0.089,0.122,0.003,0.007,-0.047,-0.034,-0.029,-0.044
-0.061,0.1,0.162,-0.02,-0.112,0.131,0.001,0.014,-0.044,-0.03,-0.034,-0.04
-0.02,0.13,0.15,-0.055,-0.085,0.14,-0.007,0.019,-0.028,-0.03,-0.04,-0.041
-0.036,0.124,0.16,-0.044,-0.098,0.141,-0.006,0.029,-0.017,-0.029,-0.04,-0.045
-0.026,0.119,0.144,-0.047,-0.085,0.131,0.011,0.032,-0.004,-0.015,-0.036,-0.035
0.002,0.11,0.108,-0.057,-0.053,0.109,0.012,0.032,0.021,-0.003,-0.019,-0.022
-0.026,0.104,0.129,-0.039,-0.078,0.116,0.009,0.059,0.051,0.014,0.003,-0.015
-0.022,0.094,0.116,-0.036,-0.069,0.105,0.01,0.078,0.061,0.021,0.026,-0.009
-0.012,0.087,0.099,-0.038,-0.056,0.093,-0.004,0.078,0.064,0.017,0.031,-0.003
0.024,0.121,0.097,-0.072,-0.037,0.108,-0.005,0.086,0.098,0.046,0.029,0.002
0.053,0.141,0.088,-0.097,-0.018,0.114,-0.037,0.087,0.113,0.057,0.031,0.009
0.064,0.152,0.088,-0.108,-0.013,0.12,-0.06,0.096,0.127,0.054,0.039,0.026
0.093,0.128,0.034,-0.111,0.029,0.081,-0.046,0.123,0.158,0.074,0.068,0.062
0.124,0.133,0.009,-0.129,0.057,0.071,-0.097,0.128,0.177,0.09,0.09,0.087
0.159,0.169,0.009,-0.164,0.075,0.089,-0.118,0.118,0.183,0.096,0.092,0.085
0.169,0.165,-0.004,-0.167,0.087,0.08,-0.119,0.113,0.173,0.095,0.096,0.084
0.186,0.184,-0.003,-0.185,0.094,0.09,-0.14,0.105,0.165,0.093,0.1,0.092
0.192,0.175,-0.017,-0.183,0.104,0.079,-0.116,0.101,0.158,0.089,0.097,0.094
0.13,0.139,0.009,-0.135,0.06,0.074,-0.099,0.089,0.142,0.091,0.084,0.085
0.057,0.109,0.052,-0.083,0.002,0.081,-0.063,0.072,0.107,0.078,0.073,0.075
0.02,0.06,0.04,-0.04,-0.01,0.05,-0.009,0.057,0.071,0.048,0.05,0.06
-0.004,0.051,0.055,-0.024,-0.03,0.053,0.031,0.038,0.025,0.032,0.023,0.032
-0.047,0.026,0.073,0.01,-0.06,0.049,0.051,0.03,-0.017,0.022,0.014,0.004
-0.079,-0.03,0.049,0.054,-0.063,0.009,0.054,0.027,-0.02,0.009,0.008,-0.001
-0.094,-0.049,0.045,0.071,-0.069,-0.002,0.071,0.022,-0.03,0.002,0.0,0.001
-0.097,-0.057,0.04,0.077,-0.068,-0.008,0.068,0.019,-0.047,-0.003,-0.008,-0.001
-0.091,-0.059,0.032,0.075,-0.061,-0.013,0.064,0.015,-0.046,-0.006,-0.014,0.001
-0.102,-0.069,0.033,0.085,-0.067,-0.018,0.086,0.012,-0.045,-0.009,-0.011,-0.001
-0.106,-0.07,0.036,0.088,-0.071,-0.017,0.094,0.007,-0.045,-0.014,-0.01,-0.004
-0.117,-0.072,0.045,0.094,-0.081,-0.013,0.086,0.005,-0.045,-0.015,-0.01,-0.005
-0.115,-0.059,0.056,0.086,-0.085,-0.001,0.079,0.011,-0.045,-0.015,-0.01,-0.005
-0.079,-0.022,0.058,0.05,-0.068,0.018,0.073,0.021,-0.045,-0.015,-0.01,-0.005
-0.092,-0.018,0.074,0.054,-0.083,0.028,0.066,0.023,-0.045,-0.015,-0.012,-0.005
-0.091,-0.001,0.09,0.045,-0.09,0.044,0.065,0.019,-0.045,-0.015,-0.016,-0.005
-0.048,0.03,0.078,0.008,-0.063,0.054,0.077,0.015,-0.045,-0.015,-0.015,-0.005
-0.045,0.036,0.082,0.004,-0.064,0.059,0.079,0.012,-0.045,-0.019,-0.015,-0.005
-0.06,0.033,0.093,0.014,-0.077,0.063,0.072,0.007,-0.045,-0.02,-0.015,-0.005
-0.042,0.028,0.071,0.007,-0.056,0.049,0.069,0.006,-0.049,-0.02,-0.016,-0.005
-0.026,0.028,0.055,-0.001,-0.041,0.041,0.063,0.019,-0.051,-0.025,-0.019,-0.005
-0.07,0.012,0.082,0.029,-0.076,0.047,0.06,0.019,-0.05,-0.025,-0.022,-0.005
-0.089,0.018,0.107,0.035,-0.098,0.063,0.055,0.012,-0.056,-0.026,-0.025,-0.005
-0.081,0.013,0.094,0.034,-0.088,0.054,0.052,0.009,-0.054,-0.031,-0.028,-0.005
-0.09,0.004,0.094,0.043,-0.092,0.049,0.048,0.003,-0.059,-0.034,-0.03,-0.005
-0.055,0.013,0.068,0.021,-0.062,0.04,0.045,0.0,-0.066,-0.039,-0.03,-0.005
-0.034,-0.014,0.02,0.024,-0.026,0.003,0.039,-0.009,-0.065,-0.04,-0.03,-0.008
-0.073,-0.033,0.04,0.053,-0.056,0.003,0.043,-0.023,-0.065,-0.041,-0.03,-0.01
-0.098,-0.043,0.055,0.07,-0.076,0.005,0.061,-0.025,-0.065,-0.044,-0.03,-0.01
-0.073,-0.011,0.062,0.042,-0.067,0.025,0.061,-0.026,-0.08,-0.046,-0.03,-0.013
-0.072,-0.005,0.067,0.038,-0.069,0.031,0.051,-0.029,-0.087,-0.044,-0.029,-0.016
-0.071,-0.022,0.049,0.046,-0.06,0.014,0.047,-0.032,-0.084,-0.04,-0.026,-0.014
-0.073,-0.011,0.062,0.042,-0.067,0.025,0.036,-0.035,-0.082,-0.04,-0.021,-0.011
-0.094,-0.042,0.052,0.068,-0.073,0.005,0.032,-0.037,-0.079,-0.038,-0.019,-0.008
-0.089,-0.042,0.048,0.065,-0.068,0.003,0.058,-0.041,-0.08,-0.034,-0.014,-0.006
-0.076,-0.03,0.047,0.053,-0.061,0.008,0.067,-0.037,-0.075,-0.035,-0.01,-0.002
-0.058,-0.029,0.029,0.044,-0.043,-0.001,0.058,-0.031,-0.073,-0.035,-0.012,0.0
-0.045,-0.014,0.031,0.029,-0.038,0.008,0.058,-0.026,-0.07,-0.035,-0.019,0.001
-0.027,-0.023,0.005,0.025,-0.015,-0.009,0.051,-0.021,-0.067,-0.035,-0.026,-0.001
-0.027,-0.025,0.001,0.026,-0.014,-0.012,0.05,-0.015,-0.065,-0.035,-0.028,-0.014
-0.018,-0.034,-0.016,0.026,-0.001,-0.024,0.067,-0.01,-0.063,-0.035,-0.024,-0.015
-0.021,-0.035,-0.014,0.028,-0.003,-0.024,0.069,-0.029,-0.07,-0.034,-0.022,-0.009
-0.043,-0.036,0.007,0.04,-0.025,-0.015,0.061,-0.037,-0.069,-0.029,-0.02,-0.007
-0.029,-0.061,-0.031,0.045,0.001,-0.046,0.06,-0.029,-0.066,-0.026,-0.015,-0.002
-0.032,-0.06,-0.028,0.046,-0.002,-0.044,0.053,-0.025,-0.063,-0.023,-0.016,0.0
-0.032,-0.051,-0.019,0.042,-0.006,-0.035,0.051,-0.021,-0.06,-0.018,-0.014,-0.005
-0.034,-0.051,-0.017,0.043,-0.009,-0.033,0.048,-0.016,-0.059,-0.016,-0.017,-0.002
-0.034,-0.044,-0.01,0.039,-0.012,-0.026,0.057,-0.012,-0.044,-0.005,-0.008,0.015
-0.036,-0.034,0.002,0.034,-0.019,-0.015,0.071,-0.004,-0.026,0.019,0.011,0.024
-0.026,-0.01,0.015,0.018,-0.021,0.002,0.081,0.026,-0.01,0.029,0.014,0.037
0.044,0.055,0.011,-0.05,0.017,0.033,0.086,0.052,0.003,0.038,0.033,0.053
0.025,0.068,0.043,-0.047,-0.009,0.055,0.076,0.066,0.015,0.033,0.031,0.051
0.027,0.049,0.022,-0.038,0.003,0.035,0.064,0.01,0.004,0.01,0.02,0.045
0.076,0.019,-0.057,-0.047,0.066,-0.019,0.058,-0.027,-0.045,-0.016,0.005,0.025
-0.013,-0.029,-0.016,0.021,0.002,-0.022,0.05,-0.003,-0.042,-0.005,0.001,0.021
-0.07,-0.045,0.025,0.057,-0.047,-0.01,0.044,-0.036,-0.061,-0.019,-0.026,0.002
-0.071,-0.028,0.044,0.049,-0.057,0.008,0.04,-0.061,-0.113,-0.055,-0.042,-0.024
-0.078,-0.033,0.045,0.055,-0.061,0.006,0.033,-0.062,-0.102,-0.054,-0.037,-0.031
-0.053,-0.009,0.044,0.03,-0.048,0.017,0.036,-0.056,-0.122,-0.058,-0.045,-0.032
-0.032,0.035,0.067,-0.002,-0.05,0.051,0.022,-0.066,-0.096,-0.025,-0.023,-0.018
-0.099,-0.04,0.058,0.069,-0.078,0.009,0.05,-0.001,-0.081,-0.046,-0.054,-0.033
-0.075,0.018,0.093,0.028,-0.084,0.055,0.079,0.084,0.071,0.085,0.047,0.042
0.064,0.097,0.034,-0.08,0.015,0.065,0.094,0.175,0.283,0.252,0.177,0.132
0.495,0.425,-0.07,-0.46,0.282,0.177,-0.064,0.253,0.714,0.692,0.534,0.442
0.809,0.621,-0.189,-0.715,0.499,0.216,-0.545,-0.437,0.685,0.849,0.66,0.585
0.253,0.21,-0.043,-0.232,0.148,0.084,-0.682,-1.088,-0.477,0.0,0.075,0.16
-0.11,0.015,0.124,0.047,-0.117,0.069,-0.265,-0.501,-0.609,-0.245,-0.111,-0.009
-0.028,-0.023,0.005,0.025,-0.016,-0.009,0.012,0.001,-0.089,-0.047,-0.041,-0.005
-0.032,0.022,0.053,0.005,-0.043,0.037,0.019,-0.029,-0.122,-0.055,-0.058,-0.032
-0.011,0.076,0.087,-0.033,-0.049,0.082,0.029,0.002,-0.055,-0.004,-0.024,-0.011
-0.069,0.004,0.073,0.033,-0.072,0.038,0.038,-0.009,-0.072,-0.052,-0.044,-0.026
-0.054,0.02,0.074,0.017,-0.064,0.046,0.043,0.001,-0.054,-0.026,-0.024,-0.01
-0.034,0.023,0.056,0.005,-0.045,0.039,0.046,0.004,-0.048,-0.026,-0.03,-0.018
-0.053,0.006,0.059,0.024,-0.056,0.032,0.044,0.005,-0.051,-0.017,-0.023,-0.012
-0.033,0.001,0.034,0.015,-0.033,0.017,0.046,0.013,-0.02,-0.006,-0.015,-0.006
-0.053,-0.03,0.022,0.041,-0.037,-0.004,0.041,0.026,-0.01,-0.001,-0.006,-0.002
-0.038,-0.051,-0.012,0.044,-0.013,-0.032,0.051,0.039,0.013,0.018,0.006,0.006
-0.022,-0.051,-0.03,0.037,0.004,-0.04,0.057,0.034,0.007,0.022,0.014,0.011
-0.02,-0.084,-0.064,0.052,0.022,-0.073,0.072,0.063,0.04,0.036,0.025,0.022
0.035,-0.084,-0.119,0.025,0.077,-0.101,0.077,0.071,0.064,0.035,0.032,0.028
0.028,-0.096,-0.124,0.034,0.076,-0.109,0.072,0.075,0.079,0.051,0.041,0.043
-0.015,-0.134,-0.118,0.075,0.052,-0.126,0.073,0.086,0.1,0.059,0.05,0.062
0.011,-0.129,-0.14,0.059,0.076,-0.134,0.067,0.092,0.111,0.073,0.059,0.063
0.039,-0.128,-0.167,0.045,0.103,-0.147,0.077,0.112,0.132,0.088,0.065,0.072
0.029,-0.145,-0.174,0.058,0.102,-0.159,0.09,0.116,0.14,0.08,0.075,0.096
0.047,-0.128,-0.175,0.04,0.111,-0.151,0.083,0.137,0.164,0.105,0.084,0.099
0.053,-0.093,-0.146,0.02,0.1,-0.119,0.073,0.163,0.189,0.127,0.092,0.103
0.064,-0.085,-0.15,0.011,0.107,-0.117,0.042,0.162,0.195,0.127,0.094,0.108
0.082,-0.075,-0.158,-0.003,0.12,-0.116,0.015,0.164,0.219,0.128,0.1,0.116
0.087,-0.065,-0.152,-0.011,0.12,-0.108,0.006,0.176,0.24,0.146,0.126,0.131
0.134,-0.066,-0.2,-0.033,0.167,-0.133,-0.026,0.184,0.262,0.162,0.139,0.134
0.122,-0.06,-0.182,-0.031,0.152,-0.121,-0.041,0.175,0.273,0.159,0.143,0.146
0.128,-0.059,-0.186,-0.034,0.157,-0.122,-0.059,0.169,0.265,0.161,0.151,0.157
0.183,-0.052,-0.235,-0.065,0.21,-0.143,-0.081,0.163,0.257,0.159,0.157,0.163
0.199,-0.023,-0.222,-0.088,0.211,-0.122,-0.087,0.156,0.249,0.173,0.156,0.174
0.194,-0.024,-0.218,-0.085,0.207,-0.121,-0.077,0.15,0.241,0.178,0.151,0.169
0.14,-0.066,-0.206,-0.036,0.173,-0.136,-0.027,0.141,0.229,0.168,0.152,0.161
0.079,-0.076,-0.155,-0.001,0.118,-0.115,0.027,0.133,0.194,0.153,0.135,0.138
0.058,-0.079,-0.137,0.01,0.098,-0.108,0.069,0.123,0.142,0.123,0.098,0.107
0.015,-0.129,-0.143,0.057,0.079,-0.136,0.069,0.097,0.092,0.091,0.069,0.098
-0.032,-0.15,-0.118,0.091,0.043,-0.133,0.086,0.079,0.067,0.071,0.055,0.09
-0.032,-0.168,-0.136,0.1,0.052,-0.151,0.116,0.081,0.064,0.069,0.055,0.081
-0.032,-0.187,-0.155,0.109,0.062,-0.171,0.106,0.079,0.058,0.067,0.055,0.075
-0.061,-0.195,-0.133,0.128,0.036,-0.164,0.11,0.08,0.053,0.063,0.054,0.071
-0.064,-0.226,-0.162,0.145,0.05,-0.194,0.112,0.08,0.047,0.061,0.056,0.069
-0.052,-0.226,-0.174,0.139,0.062,-0.2,0.133,0.081,0.047,0.058,0.053,0.064
-0.08,-0.221,-0.141,0.151,0.031,-0.181,0.139,0.088,0.051,0.055,0.049,0.061
-0.08,-0.257,-0.177,0.169,0.049,-0.217,0.124,0.093,0.057,0.055,0.043,0.058
-0.071,-0.258,-0.187,0.165,0.059,-0.222,0.134,0.108,0.041,0.053,0.04,0.069
-0.049,-0.204,-0.154,0.126,0.053,-0.179,0.131,0.109,0.04,0.049,0.035,0.075
-0.04,-0.191,-0.15,0.115,0.055,-0.17,0.124,0.102,0.072,0.05,0.03,0.068
-0.046,-0.17,-0.124,0.108,0.039,-0.146,0.126,0.099,0.076,0.053,0.035,0.065
-0.037,-0.163,-0.126,0.1,0.045,-0.144,0.124,0.093,0.074,0.055,0.036,0.059
-0.062,-0.211,-0.149,0.137,0.044,-0.18,0.125,0.09,0.075,0.057,0.035,0.056
-0.051,-0.208,-0.157,0.13,0.054,-0.182,0.125,0.085,0.075,0.061,0.033,0.053
-0.008,-0.165,-0.157,0.087,0.075,-0.161,0.124,0.085,0.075,0.059,0.029,0.061
-0.025,-0.173,-0.148,0.099,0.062,-0.161,0.119,0.083,0.07,0.053,0.031,0.076
-0.067,-0.21,-0.143,0.139,0.038,-0.176,0.113,0.08,0.068,0.049,0.026,0.069
-0.058,-0.199,-0.141,0.129,0.042,-0.17,0.11,0.079,0.063,0.044,0.025,0.066
-0.076,-0.206,-0.129,0.141,0.026,-0.167,0.104,0.079,0.062,0.041,0.025,0.061
-0.07,-0.217,-0.148,0.144,0.039,-0.182,0.101,0.071,0.056,0.034,0.02,0.057
-0.039,-0.204,-0.166,0.122,0.064,-0.185,0.104,0.074,0.049,0.036,0.02,0.052
-0.022,-0.16,-0.139,0.091,0.059,-0.149,0.105,0.09,0.037,0.052,0.021,0.044
-0.004,-0.135,-0.131,0.07,0.064,-0.133,0.106,0.079,0.035,0.042,0.026,0.038
-0.052,-0.177,-0.125,0.115,0.037,-0.151,0.12,0.069,0.025,0.031,0.024,0.03
-0.084,-0.2,-0.116,0.143,0.016,-0.158,0.132,0.079,0.021,0.038,0.015,0.023
-0.092,-0.204,-0.112,0.149,0.01,-0.158,0.088,0.083,0.037,0.036,0.024,0.015
-0.092,-0.201,-0.109,0.146,0.009,-0.155,0.067,0.06,0.004,0.035,0.024,0.024
-0.084,-0.193,-0.109,0.139,0.013,-0.151,0.082,0.047,-0.015,0.035,0.018,0.025
-0.071,-0.192,-0.121,0.131,0.025,-0.156,0.086,0.052,-0.007,0.03,0.016,0.033
-0.055,-0.185,-0.13,0.12,0.038,-0.157,0.103,0.047,-0.011,0.03,0.011,0.053
-0.062,-0.183,-0.12,0.123,0.029,-0.151,0.095,0.062,-0.003,0.029,0.009,0.049
-0.062,-0.176,-0.114,0.119,0.026,-0.145,0.092,0.071,-0.007,0.024,0.005,0.05
-0.061,-0.17,-0.108,0.116,0.024,-0.139,0.089,0.065,0.0,0.021,0.002,0.05
-0.063,-0.162,-0.1,0.113,0.019,-0.131,0.083,0.063,0.006,0.017,0.0,0.049
-0.053,-0.155,-0.102,0.104,0.025,-0.128,0.103,0.058,-0.013,0.013,-0.004,0.054
-0.043,-0.161,-0.117,0.102,0.037,-0.139,0.111,0.055,-0.015,0.009,-0.006,0.054
-0.059,-0.172,-0.113,0.116,0.027,-0.142,0.11,0.059,-0.003,0.015,0.0,0.058
-0.055,-0.16,-0.105,0.108,0.025,-0.132,0.11,0.06,-0.002,0.02,0.007,0.059
-0.013,-0.128,-0.115,0.071,0.051,-0.122,0.11,0.061,0.012,0.029,0.018,0.064
-0.022,-0.147,-0.124,0.085,0.051,-0.135,0.123,0.081,0.022,0.045,0.036,0.077
-0.021,-0.151,-0.131,0.086,0.055,-0.141,0.128,0.101,0.046,0.068,0.059,0.096
0.015,-0.136,-0.151,0.061,0.083,-0.144,0.151,0.123,0.084,0.084,0.064,0.1
0.01,-0.132,-0.142,0.062,0.076,-0.137,0.154,0.132,0.08,0.077,0.055,0.09
0.006,-0.135,-0.141,0.064,0.074,-0.138,0.115,0.086,0.056,0.06,0.048,0.083
0.001,-0.157,-0.158,0.078,0.08,-0.157,0.107,0.054,0.026,0.04,0.035,0.071
-0.033,-0.177,-0.144,0.105,0.055,-0.16,0.092,0.055,0.026,0.033,0.034,0.067
-0.081,-0.228,-0.147,0.155,0.034,-0.188,0.09,0.055,0.007,0.003,0.014,0.051
-0.085,-0.235,-0.15,0.16,0.033,-0.192,0.088,0.046,0.012,0.021,0.023,0.056
-0.112,-0.253,-0.141,0.183,0.015,-0.196,0.086,0.044,-0.01,-0.004,-0.003,0.034
-0.075,-0.202,-0.127,0.139,0.026,-0.164,0.071,0.04,-0.008,0.016,0.009,0.042
-0.056,-0.199,-0.144,0.128,0.044,-0.171,0.055,0.027,-0.008,-0.003,-0.016,0.02
-0.075,-0.188,-0.113,0.132,0.019,-0.15,0.092,0.097,0.057,0.032,0.012,0.039
0.005,-0.067,-0.072,0.031,0.038,-0.069,0.105,0.161,0.279,0.252,0.169,0.145
0.177,0.089,-0.088,-0.133,0.132,0.001,0.086,0.309,0.525,0.49,0.369,0.313
0.565,0.399,-0.166,-0.482,0.365,0.116,-0.127,0.212,0.964,1.03,0.778,0.662
0.351,0.251,-0.099,-0.301,0.225,0.076,-0.397,-0.496,0.222,0.565,0.445,0.438
-0.164,-0.039,0.125,0.101,-0.145,0.043,-0.357,-0.673,-0.738,-0.258,-0.103,0.052
-0.089,-0.099,-0.01,0.094,-0.039,-0.054,-0.069,-0.104,-0.276,-0.093,-0.034,0.092
-0.036,-0.187,-0.152,0.112,0.058,-0.169,0.091,0.109,-0.029,-0.025,-0.023,0.064
-0.074,-0.16,-0.086,0.117,0.006,-0.122,0.073,0.063,-0.024,0.005,0.031,0.071
-0.055,-0.17,-0.116,0.113,0.031,-0.143,0.074,0.075,0.031,0.022,0.04,0.068
-0.049,-0.159,-0.111,0.104,0.032,-0.135,0.074,0.061,0.011,0.011,0.025,0.06
-0.034,-0.122,-0.088,0.078,0.027,-0.105,0.099,0.062,0.039,0.035,0.037,0.066
-0.03,-0.114,-0.083,0.072,0.027,-0.098,0.096,0.054,0.012,0.017,0.019,0.053
-0.075,-0.139,-0.064,0.107,-0.005,-0.101,0.077,0.052,0.026,0.047,0.031,0.059
-0.078,-0.155,-0.077,0.117,0.0,-0.116,0.075,0.05,0.013,0.036,0.017,0.05
-0.022,-0.132,-0.11,0.077,0.045,-0.12,0.072,0.048,0.015,0.042,0.023,0.051
-0.021,-0.133,-0.111,0.077,0.045,-0.122,0.079,0.043,0.021,0.035,0.018,0.053
-0.021,-0.129,-0.108,0.075,0.043,-0.118,0.079,0.053,0.048,0.035,0.025,0.068
-0.011,-0.123,-0.113,0.067,0.052,-0.117,0.084,0.071,0.064,0.035,0.047,0.074
-0.015,-0.122,-0.106,0.069,0.045,-0.114,0.086,0.071,0.069,0.039,0.052,0.079
-0.007,-0.126,-0.119,0.067,0.056,-0.123,0.078,0.068,0.079,0.049,0.056,0.081
0.02,-0.112,-0.131,0.046,0.076,-0.121,0.061,0.077,0.084,0.058,0.059,0.079
0.023,-0.095,-0.118,0.037,0.07,-0.106,0.045,0.1,0.095,0.08,0.062,0.081
0.028,-0.084,-0.112,0.028,0.07,-0.098,0.032,0.101,0.103,0.081,0.066,0.078
0.04,-0.075,-0.114,0.018,0.077,-0.094,0.023,0.099,0.117,0.077,0.062,0.091
0.045,-0.074,-0.119,0.015,0.083,-0.097,0.008,0.102,0.132,0.086,0.073,0.109
0.05,-0.077,-0.127,0.013,0.089,-0.102,0.003,0.098,0.162,0.093,0.079,0.113
0.077,-0.068,-0.145,-0.005,0.112,-0.106,-0.007,0.105,0.179,0.103,0.085,0.118
0.118,-0.048,-0.166,-0.034,0.142,-0.107,-0.037,0.12,0.199,0.122,0.101,0.133
0.156,-0.028,-0.185,-0.064,0.171,-0.106,-0.052,0.12,0.22,0.131,0.111,0.143
0.173,-0.02,-0.194,-0.076,0.184,-0.107,-0.073,0.116,0.227,0.141,0.13,0.155
0.181,0.0,-0.182,-0.09,0.181,-0.091,-0.119,0.115,0.218,0.137,0.13,0.169
0.231,0.042,-0.189,-0.136,0.209,-0.073,-0.151,0.108,0.207,0.133,0.13,0.174
0.233,0.043,-0.191,-0.138,0.212,-0.074,-0.152,0.101,0.197,0.13,0.13,0.171
0.211,0.051,-0.16,-0.13,0.185,-0.054,-0.153,0.094,0.181,0.125,0.13,0.161
0.179,0.027,-0.151,-0.102,0.165,-0.062,-0.138,0.086,0.17,0.123,0.128,0.153
0.114,-0.029,-0.143,-0.042,0.129,-0.086,-0.072,0.078,0.14,0.107,0.108,0.143
0.069,-0.059,-0.129,-0.005,0.099,-0.094,-0.004,0.078,0.103,0.101,0.097,0.114
0.035,-0.09,-0.125,0.028,0.081,-0.108,0.018,0.079,0.084,0.061,0.061,0.087
0.004,-0.115,-0.119,0.056,0.062,-0.117,0.064,0.081,0.07,0.046,0.046,0.074
-0.005,-0.132,-0.127,0.069,0.061,-0.129,0.094,0.055,0.033,0.043,0.044,0.06
-0.008,-0.132,-0.124,0.071,0.058,-0.127,0.066,0.019,-0.005,0.003,0.013,0.055
-0.017,-0.142,-0.125,0.08,0.055,-0.134,0.073,0.014,-0.012,-0.001,0.008,0.055
-0.027,-0.153,-0.126,0.09,0.05,-0.139,0.094,0.016,-0.014,0.001,0.012,0.055
-0.037,-0.159,-0.122,0.099,0.042,-0.14,0.094,0.029,-0.01,0.006,0.019,0.055
-0.032,-0.178,-0.146,0.105,0.057,-0.161,0.091,0.03,-0.002,0.022,0.022,0.055
-0.052,-0.183,-0.131,0.118,0.04,-0.157,0.088,0.03,0.004,0.029,0.031,0.059
-0.057,-0.175,-0.119,0.116,0.031,-0.147,0.086,0.041,0.011,0.031,0.037,0.06
-0.044,-0.17,-0.126,0.107,0.041,-0.147,0.083,0.04,0.017,0.029,0.033,0.06
-0.055,-0.166,-0.11,0.111,0.028,-0.138,0.091,0.055,0.023,0.03,0.036,0.064
-0.075,-0.169,-0.095,0.122,0.01,-0.132,0.1,0.061,0.026,0.03,0.034,0.065
-0.064,-0.172,-0.108,0.118,0.022,-0.14,0.094,0.06,0.03,0.03,0.036,0.065
-0.048,-0.176,-0.128,0.112,0.041,-0.152,0.088,0.066,0.029,0.029,0.039,0.065
-0.068,-0.179,-0.11,0.124,0.021,-0.144,0.084,0.064,0.031,0.031,0.041,0.065
-0.038,-0.183,-0.144,0.111,0.053,-0.163,0.074,0.061,0.028,0.028,0.045,0.065
-0.03,-0.193,-0.163,0.112,0.067,-0.177,0.082,0.054,0.036,0.038,0.043,0.067
-0.042,-0.2,-0.158,0.121,0.058,-0.179,0.098,0.051,0.048,0.05,0.037,0.065
-0.029,-0.213,-0.184,0.121,0.078,-0.198,0.088,0.046,0.037,0.042,0.032,0.065
-0.038,-0.192,-0.154,0.115,0.059,-0.173,0.076,0.042,0.028,0.036,0.029,0.063
-0.013,-0.166,-0.153,0.09,0.07,-0.159,0.074,0.037,0.024,0.03,0.023,0.059
-0.008,-0.176,-0.168,0.092,0.081,-0.172,0.073,0.035,0.02,0.021,0.02,0.06
-0.04,-0.192,-0.152,0.116,0.056,-0.172,0.086,0.035,0.017,0.023,0.026,0.06
-0.048,-0.205,-0.157,0.127,0.054,-0.181,0.101,0.032,0.012,0.025,0.027,0.06
-0.055,-0.195,-0.139,0.126,0.042,-0.167,0.095,0.029,0.009,0.025,0.023,0.06
-0.055,-0.209,-0.154,0.132,0.05,-0.181,0.09,0.031,0.006,0.025,0.021,0.06
-0.048,-0.238,-0.19,0.143,0.072,-0.214,0.087,0.038,0.003,0.025,0.017,0.061
-0.046,-0.231,-0.185,0.139,0.07,-0.207,0.081,0.041,0.001,0.024,0.015,0.058
-0.029,-0.213,-0.184,0.121,0.078,-0.198,0.08,0.04,-0.003,0.021,0.016,0.056
-0.035,-0.204,-0.169,0.12,0.067,-0.187,0.08,0.04,-0.005,0.02,0.013,0.053
-0.047,-0.228,-0.18,0.138,0.067,-0.204,0.08,0.04,-0.003,0.02,0.028,0.065
-0.033,-0.222,-0.189,0.128,0.079,-0.205,0.081,0.04,0.002,0.02,0.043,0.077
-0.021,-0.21,-0.189,0.115,0.084,-0.199,0.079,0.035,0.003,0.02,0.036,0.074
-0.009,-0.206,-0.197,0.107,0.095,-0.201,0.082,0.03,0.008,0.022,0.036,0.075
-0.019,-0.198,-0.178,0.109,0.08,-0.188,0.094,0.025,0.01,0.026,0.031,0.072
-0.008,-0.184,-0.175,0.096,0.083,-0.179,0.096,0.022,0.003,0.024,0.029,0.069
-0.019,-0.189,-0.17,0.104,0.076,-0.179,0.094,0.014,0.003,0.025,0.047,0.066
-0.086,-0.249,-0.163,0.168,0.039,-0.206,0.096,0.023,0.003,0.024,0.057,0.063
-0.089,-0.249,-0.159,0.169,0.035,-0.204,0.094,0.041,0.018,0.026,0.058,0.06
-0.071,-0.225,-0.154,0.149,0.042,-0.189,0.096,0.044,0.007,0.029,0.061,0.061
-0.048,-0.203,-0.155,0.126,0.054,-0.179,0.095,0.049,-0.002,0.031,0.065,0.064
-0.011,-0.167,-0.156,0.09,0.072,-0.161,0.095,0.051,0.029,0.032,0.065,0.073
0.021,-0.132,-0.153,0.056,0.087,-0.143,0.108,0.062,0.049,0.05,0.071,0.099
0.038,-0.119,-0.157,0.041,0.098,-0.138,0.108,0.085,0.071,0.072,0.076,0.102
0.035,-0.126,-0.16,0.046,0.098,-0.143,0.107,0.093,0.068,0.069,0.068,0.093
0.053,-0.15,-0.204,0.049,0.129,-0.177,0.072,0.058,0.059,0.064,0.065,0.089
0.049,-0.183,-0.232,0.067,0.141,-0.207,0.036,0.031,0.042,0.045,0.052,0.077
0.01,-0.192,-0.202,0.091,0.106,-0.197,0.056,0.027,0.033,0.041,0.054,0.076
-0.041,-0.256,-0.215,0.149,0.087,-0.235,0.075,0.028,0.014,0.015,0.037,0.061
-0.02,-0.249,-0.228,0.135,0.104,-0.238,0.064,0.023,0.015,0.027,0.047,0.065
-0.019,-0.244,-0.225,0.132,0.103,-0.235,0.069,0.026,0.009,0.014,0.03,0.048
-0.046,-0.256,-0.21,0.151,0.083,-0.233,0.058,0.026,-0.001,0.015,0.038,0.052
-0.048,-0.268,-0.22,0.159,0.086,-0.244,0.061,0.018,0.01,0.022,0.03,0.04
-0.06,-0.241,-0.182,0.151,0.061,-0.211,0.107,0.095,0.034,0.018,0.021,0.038
-0.007,-0.174,-0.167,0.091,0.081,-0.171,0.124,0.136,0.23,0.201,0.162,0.137
0.17,-0.04,-0.211,-0.065,0.19,-0.125,0.117,0.279,0.512,0.473,0.382,0.309
0.635,0.326,-0.309,-0.48,0.472,0.008,-0.192,0.139,1.0,1.082,0.851,0.705
0.625,0.225,-0.4,-0.424,0.512,-0.088,-0.646,-0.673,0.416,0.753,0.624,0.586
0.079,-0.12,-0.2,0.02,0.14,-0.159,-0.527,-0.791,-0.666,-0.218,-0.019,0.112
-0.04,-0.198,-0.158,0.119,0.059,-0.177,-0.071,-0.098,-0.282,-0.113,0.011,0.064
0.003,-0.235,-0.238,0.117,0.12,-0.236,0.08,0.109,0.036,0.031,0.044,0.054
0.006,-0.206,-0.213,0.1,0.11,-0.21,0.064,0.045,-0.007,0.017,0.045,0.052
0.027,-0.211,-0.237,0.092,0.132,-0.224,0.074,0.064,0.063,0.044,0.058,0.055
-0.021,-0.201,-0.18,0.111,0.08,-0.19,0.068,0.057,0.024,0.01,0.043,0.044
-0.025,-0.193,-0.168,0.11,0.071,-0.18,0.07,0.062,0.06,0.035,0.064,0.049
-0.012,-0.192,-0.18,0.102,0.084,-0.185,0.065,0.059,0.035,0.01,0.048,0.042
-0.015,-0.181,-0.166,0.098,0.075,-0.173,0.065,0.061,0.054,0.028,0.056,0.058
-0.015,-0.181,-0.166,0.099,0.075,-0.173,0.065,0.06,0.061,0.03,0.047,0.057
-0.018,-0.171,-0.152,0.095,0.067,-0.161,0.069,0.075,0.064,0.04,0.051,0.065
-0.016,-0.168,-0.153,0.092,0.069,-0.16,0.071,0.087,0.071,0.043,0.045,0.065
-0.019,-0.162,-0.143,0.091,0.062,-0.152,0.067,0.083,0.067,0.044,0.044,0.065
-0.018,-0.159,-0.141,0.089,0.062,-0.15,0.065,0.086,0.08,0.05,0.047,0.065
-0.021,-0.154,-0.133,0.088,0.056,-0.143,0.062,0.084,0.086,0.049,0.051,0.065
-0.034,-0.164,-0.13,0.099,0.049,-0.147,0.058,0.085,0.099,0.058,0.064,0.065
0.004,-0.162,-0.166,0.079,0.085,-0.164,0.063,0.101,0.115,0.067,0.073,0.065
0.021,-0.13,-0.151,0.055,0.087,-0.14,0.07,0.112,0.122,0.074,0.078,0.07
0.024,-0.116,-0.139,0.046,0.082,-0.127,0.051,0.112,0.131,0.081,0.081,0.078
0.049,-0.101,-0.15,0.026,0.1,-0.125,0.042,0.117,0.147,0.084,0.086,0.077
0.046,-0.069,-0.115,0.011,0.081,-0.092,0.039,0.125,0.17,0.088,0.088,0.074
0.049,-0.073,-0.122,0.012,0.086,-0.097,0.026,0.136,0.201,0.111,0.102,0.096
0.084,-0.073,-0.157,-0.006,0.121,-0.115,0.019,0.157,0.224,0.127,0.12,0.106
0.111,-0.032,-0.143,-0.039,0.127,-0.087,0.003,0.165,0.25,0.127,0.126,0.109
0.148,-0.005,-0.153,-0.071,0.151,-0.078,-0.02,0.157,0.27,0.136,0.129,0.118
0.175,0.001,-0.173,-0.088,0.174,-0.086,-0.049,0.151,0.291,0.152,0.134,0.131
0.183,0.024,-0.159,-0.103,0.171,-0.067,-0.061,0.144,0.305,0.157,0.146,0.151
0.212,0.052,-0.16,-0.132,0.186,-0.053,-0.075,0.137,0.296,0.154,0.151,0.155
0.21,0.06,-0.149,-0.135,0.179,-0.044,-0.117,0.131,0.293,0.146,0.144,0.155
0.222,0.074,-0.148,-0.148,0.185,-0.036,-0.117,0.125,0.276,0.136,0.137,0.159
0.204,0.072,-0.132,-0.137,0.167,-0.03,-0.085,0.116,0.234,0.128,0.131,0.15
0.127,0.038,-0.088,-0.082,0.107,-0.025,-0.049,0.108,0.188,0.117,0.123,0.12
0.089,-0.014,-0.103,-0.037,0.096,-0.059,-0.011,0.098,0.14,0.087,0.095,0.084
0.052,-0.048,-0.1,-0.002,0.076,-0.074,0.021,0.073,0.095,0.049,0.062,0.062
0.007,-0.06,-0.068,0.027,0.038,-0.064,0.053,0.046,0.046,0.019,0.034,0.042
0.003,-0.067,-0.071,0.032,0.037,-0.069,0.055,0.029,0.014,0.006,0.023,0.023
0.006,-0.065,-0.071,0.03,0.038,-0.068,0.055,0.024,0.008,0.002,0.021,0.019
-0.037,-0.104,-0.067,0.071,0.015,-0.085,0.06,0.025,0.001,-0.006,0.017,0.021
-0.042,-0.132,-0.09,0.087,0.024,-0.111,0.06,0.025,-0.007,-0.012,0.014,0.016
-0.009,-0.121,-0.113,0.065,0.052,-0.117,0.062,0.025,-0.015,-0.019,0.009,0.015
-0.014,-0.123,-0.109,0.069,0.048,-0.116,0.065,0.025,-0.019,-0.02,0.014,0.015
-0.034,-0.143,-0.11,0.089,0.038,-0.126,0.071,0.024,-0.014,-0.02,0.02,0.01
-0.035,-0.146,-0.111,0.09,0.038,-0.128,0.061,0.029,-0.009,-0.02,0.026,0.01
-0.021,-0.131,-0.109,0.076,0.044,-0.12,0.075,0.036,-0.005,-0.02,0.029,0.01
-0.018,-0.124,-0.106,0.071,0.044,-0.115,0.087,0.035,0.0,-0.02,0.024,0.01
-0.027,-0.123,-0.096,0.076,0.035,-0.109,0.068,0.035,0.005,-0.019,0.026,0.01
-0.036,-0.128,-0.091,0.082,0.028,-0.109,0.07,0.035,0.001,-0.015,0.022,0.012
-0.035,-0.131,-0.096,0.084,0.03,-0.113,0.069,0.034,-0.009,-0.015,0.019,0.016
-0.04,-0.134,-0.094,0.087,0.028,-0.114,0.065,0.038,-0.013,-0.015,0.02,0.015
-0.045,-0.138,-0.093,0.092,0.024,-0.115,0.066,0.04,-0.01,-0.015,0.02,0.015
-0.053,-0.14,-0.087,0.097,0.017,-0.114,0.062,0.04,-0.005,-0.015,0.02,0.015
-0.062,-0.14,-0.078,0.101,0.008,-0.109,0.06,0.04,-0.003,-0.011,0.02,0.015
-0.069,-0.14,-0.071,0.105,0.001,-0.105,0.058,0.04,0.002,-0.01,0.02,0.02
-0.054,-0.14,-0.086,0.097,0.016,-0.113,0.073,0.04,0.005,-0.01,0.02,0.018
-0.028,-0.14,-0.112,0.084,0.042,-0.126,0.077,0.033,0.0,-0.006,0.019,0.011
-0.032,-0.133,-0.1,0.083,0.034,-0.116,0.064,0.023,-0.009,-0.004,0.013,0.004
-0.025,-0.122,-0.097,0.073,0.036,-0.109,0.056,0.015,-0.017,-0.006,0.006,-0.003
-0.039,-0.102,-0.063,0.071,0.012,-0.082,0.045,0.005,-0.027,-0.017,-0.001,-0.009
-0.057,-0.087,-0.03,0.072,-0.013,-0.058,0.037,-0.003,-0.038,-0.03,-0.008,-0.015
-0.05,-0.082,-0.032,0.066,-0.009,-0.057,0.031,-0.011,-0.034,-0.036,-0.013,-0.021
-0.052,-0.069,-0.017,0.061,-0.017,-0.043,0.023,-0.018,-0.038,-0.034,-0.021,-0.026
-0.052,-0.067,-0.015,0.06,-0.018,-0.041,0.016,-0.024,-0.056,-0.039,-0.033,-0.032
-0.029,-0.032,-0.003,0.031,-0.013,-0.017,0.009,-0.033,-0.066,-0.055,-0.046,-0.038
-0.026,-0.026,0.0,0.026,-0.013,-0.013,0.004,-0.038,-0.064,-0.055,-0.05,-0.041
-0.055,-0.035,0.02,0.045,-0.037,-0.007,-0.002,-0.047,-0.067,-0.056,-0.052,-0.039
-0.058,0.006,0.064,0.025,-0.061,0.035,-0.005,-0.063,-0.082,-0.073,-0.055,-0.041
-0.056,0.009,0.065,0.023,-0.061,0.037,-0.01,-0.066,-0.087,-0.075,-0.058,-0.039
-0.048,0.017,0.065,0.015,-0.057,0.04,-0.015,-0.064,-0.083,-0.076,-0.061,-0.043
-0.036,0.029,0.065,0.003,-0.051,0.047,-0.012,-0.065,-0.08,-0.08,-0.056,-0.059
-0.049,0.018,0.067,0.015,-0.058,0.042,-0.008,-0.065,-0.085,-0.08,-0.055,-0.061
-0.059,0.019,0.077,0.019,-0.068,0.048,-0.004,-0.064,-0.085,-0.08,-0.055,-0.059
-0.06,0.014,0.074,0.023,-0.067,0.044,-0.001,-0.06,-0.086,-0.08,-0.055,-0.056
-0.064,0.007,0.071,0.029,-0.067,0.039,0.005,-0.054,-0.085,-0.08,-0.055,-0.055
-0.041,0.028,0.069,0.006,-0.056,0.049,0.003,-0.054,-0.085,-0.076,-0.054,-0.054
-0.057,0.005,0.062,0.026,-0.06,0.033,-0.009,-0.047,-0.1,-0.07,-0.049,-0.047
-0.061,0.016,0.077,0.022,-0.069,0.046,-0.01,-0.046,-0.096,-0.064,-0.044,-0.042
-0.03,0.077,0.107,-0.024,-0.068,0.092,0.0,-0.051,-0.083,-0.059,-0.041,-0.036
-0.043,0.085,0.128,-0.021,-0.085,0.106,0.002,-0.038,-0.056,-0.043,-0.035,-0.031
-0.003,0.119,0.122,-0.059,-0.062,0.12,0.011,-0.012,-0.027,-0.028,-0.026,-0.027
0.041,0.159,0.117,-0.1,-0.038,0.138,-0.006,-0.016,-0.038,-0.034,-0.023,-0.025
0.031,0.138,0.108,-0.085,-0.039,0.122,-0.08,-0.085,-0.078,-0.067,-0.052,-0.049
-0.02,0.085,0.105,-0.033,-0.063,0.095,-0.082,-0.113,-0.116,-0.098,-0.077,-0.066
-0.041,0.064,0.105,-0.012,-0.073,0.084,-0.053,-0.098,-0.105,-0.08,-0.062,-0.053
-0.054,0.04,0.094,0.007,-0.074,0.067,-0.051,-0.099,-0.124,-0.106,-0.081,-0.076
-0.083,0.041,0.124,0.02,-0.104,0.083,-0.042,-0.089,-0.121,-0.11,-0.078,-0.085
-0.087,0.007,0.094,0.04,-0.091,0.05,-0.035,-0.086,-0.112,-0.108,-0.092,-0.096
-0.104,-0.015,0.089,0.06,-0.096,0.037,-0.03,-0.079,-0.113,-0.09,-0.08,-0.084
-0.112,-0.046,0.066,0.079,-0.089,0.009,-0.019,-0.063,-0.075,-0.085,-0.085,-0.095
-0.113,-0.006,0.107,0.059,-0.11,0.05,-0.009,-0.033,-0.069,-0.091,-0.09,-0.079
-0.061,0.1,0.161,-0.02,-0.111,0.13,0.003,0.013,0.103,0.077,0.048,0.015
0.133,0.205,0.072,-0.169,0.03,0.138,0.01,0.175,0.377,0.335,0.254,0.169
0.633,0.599,-0.035,-0.616,0.334,0.282,-0.309,-0.016,0.83,0.907,0.699,0.557
0.64,0.521,-0.118,-0.58,0.379,0.201,-0.784,-0.867,0.286,0.606,0.5,0.446
0.067,0.132,0.065,-0.099,0.001,0.098,-0.641,-0.962,-0.758,-0.299,-0.116,-0.004
-0.064,0.073,0.136,-0.004,-0.101,0.104,-0.169,-0.208,-0.387,-0.213,-0.108,-0.07
-0.064,0.015,0.079,0.024,-0.071,0.047,-0.039,-0.001,-0.067,-0.077,-0.075,-0.087
-0.083,0.038,0.121,0.022,-0.102,0.079,-0.047,-0.069,-0.119,-0.093,-0.075,-0.076
-0.061,0.05,0.112,0.005,-0.087,0.081,-0.035,-0.051,-0.052,-0.066,-0.055,-0.069
-0.085,0.047,0.131,0.018,-0.108,0.089,-0.043,-0.062,-0.088,-0.089,-0.065,-0.068
-0.068,0.055,0.122,0.006,-0.095,0.088,-0.032,-0.048,-0.045,-0.064,-0.04,-0.056
-0.079,0.046,0.125,0.016,-0.102,0.085,-0.03,-0.052,-0.062,-0.083,-0.055,-0.069
-0.054,0.073,0.127,-0.01,-0.091,0.1,-0.023,-0.043,-0.045,-0.065,-0.057,-0.063
-0.037,0.084,0.121,-0.024,-0.079,0.102,-0.018,-0.042,-0.043,-0.069,-0.059,-0.063
-0.037,0.085,0.122,-0.024,-0.08,0.103,-0.012,-0.034,-0.039,-0.063,-0.05,-0.055
-0.03,0.087,0.117,-0.029,-0.074,0.102,-0.01,-0.027,-0.029,-0.058,-0.048,-0.053
-0.028,0.089,0.117,-0.031,-0.072,0.103,-0.025,-0.022,-0.027,-0.057,-0.042,-0.047
-0.021,0.093,0.114,-0.036,-0.068,0.103,-0.026,-0.013,-0.014,-0.051,-0.038,-0.043
-0.035,0.075,0.111,-0.02,-0.073,0.093,-0.019,-0.009,-0.013,-0.047,-0.03,-0.04
-0.035,0.065,0.1,-0.015,-0.068,0.082,-0.007,0.007,-0.001,-0.039,-0.021,-0.035
-0.004,0.084,0.088,-0.04,-0.046,0.085,0.001,0.025,0.006,-0.038,-0.018,-0.033
-0.012,0.097,0.11,-0.043,-0.062,0.103,-0.009,0.024,0.021,-0.031,-0.014,-0.028
-0.037,0.102,0.139,-0.033,-0.088,0.12,-0.032,0.027,0.048,-0.017,-0.011,-0.025
-0.015,0.117,0.132,-0.051,-0.073,0.124,-0.059,0.038,0.061,-0.004,-0.007,-0.021
0.022,0.143,0.121,-0.082,-0.05,0.132,-0.061,0.041,0.072,0.008,-0.003,-0.012
0.031,0.148,0.117,-0.089,-0.043,0.132,-0.059,0.055,0.096,0.017,0.007,-0.006
0.038,0.157,0.119,-0.097,-0.041,0.138,-0.063,0.073,0.131,0.031,0.02,0.001
0.062,0.183,0.121,-0.122,-0.03,0.151,-0.075,0.086,0.158,0.052,0.032,0.012
0.086,0.205,0.119,-0.145,-0.017,0.162,-0.101,0.101,0.174,0.061,0.046,0.025
0.096,0.216,0.12,-0.156,-0.012,0.168,-0.13,0.096,0.192,0.067,0.054,0.035
0.134,0.255,0.121,-0.195,0.006,0.188,-0.155,0.093,0.197,0.074,0.056,0.04
0.171,0.278,0.107,-0.225,0.032,0.192,-0.167,0.087,0.193,0.068,0.065,0.053
0.189,0.283,0.093,-0.236,0.048,0.188,-0.186,0.05,0.186,0.06,0.066,0.057
0.2,0.318,0.119,-0.259,0.04,0.218,-0.197,0.031,0.173,0.052,0.054,0.055
0.135,0.295,0.16,-0.216,-0.013,0.228,-0.171,0.027,0.154,0.045,0.046,0.053
0.078,0.245,0.167,-0.161,-0.045,0.206,-0.119,0.012,0.097,0.034,0.034,0.022
0.05,0.203,0.152,-0.127,-0.051,0.178,-0.083,0.003,0.043,0.008,0.011,-0.015
0.021,0.169,0.148,-0.095,-0.064,0.158,-0.063,-0.011,0.004,-0.017,-0.018,-0.037
-0.011,0.164,0.174,-0.077,-0.093,0.169,-0.044,-0.036,-0.041,-0.053,-0.047,-0.065
-0.029,0.168,0.196,-0.07,-0.113,0.182,-0.04,-0.057,-0.064,-0.075,-0.058,-0.083
-0.033,0.17,0.203,-0.069,-0.118,0.186,-0.035,-0.064,-0.091,-0.079,-0.067,-0.083
-0.053,0.176,0.228,-0.062,-0.141,0.202,-0.033,-0.078,-0.096,-0.09,-0.08,-0.093
-0.039,0.172,0.211,-0.067,-0.125,0.191,-0.028,-0.089,-0.096,-0.1,-0.08,-0.105
-0.046,0.163,0.209,-0.058,-0.128,0.185,-0.026,-0.083,-0.115,-0.105,-0.08,-0.105
-0.083,0.153,0.236,-0.035,-0.16,0.194,-0.027,-0.079,-0.113,-0.105,-0.08,-0.106
-0.072,0.14,0.212,-0.034,-0.142,0.175,-0.033,-0.074,-0.108,-0.107,-0.08,-0.109
-0.03,0.181,0.211,-0.076,-0.121,0.196,-0.042,-0.071,-0.107,-0.111,-0.08,-0.111
-0.016,0.205,0.221,-0.095,-0.118,0.213,-0.038,-0.064,-0.1,-0.11,-0.079,-0.108
-0.034,0.197,0.23,-0.082,-0.132,0.213,-0.032,-0.066,-0.102,-0.107,-0.084,-0.105
-0.052,0.205,0.258,-0.077,-0.156,0.231,-0.024,-0.088,-0.113,-0.102,-0.088,-0.105
-0.04,0.204,0.244,-0.082,-0.143,0.224,-0.046,-0.083,-0.111,-0.099,-0.093,-0.105
-0.034,0.206,0.24,-0.086,-0.138,0.223,-0.056,-0.073,-0.101,-0.096,-0.094,-0.105
-0.068,0.193,0.261,-0.062,-0.165,0.227,-0.038,-0.066,-0.097,-0.091,-0.09,-0.105
-0.05,0.177,0.228,-0.063,-0.139,0.202,-0.035,-0.06,-0.088,-0.091,-0.09,-0.109
-0.031,0.161,0.192,-0.065,-0.111,0.176,-0.035,-0.068,-0.087,-0.095,-0.088,-0.11
-0.051,0.168,0.219,-0.059,-0.135,0.193,-0.034,-0.073,-0.099,-0.095,-0.084,-0.11
-0.03,0.207,0.237,-0.089,-0.133,0.222,-0.036,-0.078,-0.108,-0.098,-0.085,-0.11
-0.021,0.207,0.228,-0.093,-0.125,0.217,-0.049,-0.081,-0.113,-0.101,-0.088,-0.11
-0.033,0.192,0.226,-0.08,-0.13,0.208,-0.051,-0.087,-0.119,-0.104,-0.091,-0.108
-0.037,0.183,0.22,-0.073,-0.129,0.201,-0.049,-0.091,-0.12,-0.107,-0.09,-0.105
-0.042,0.174,0.216,-0.066,-0.129,0.195,-0.05,-0.089,-0.12,-0.11,-0.09,-0.105
-0.039,0.171,0.21,-0.066,-0.125,0.19,-0.05,-0.091,-0.125,-0.11,-0.09,-0.105
-0.04,0.164,0.205,-0.062,-0.123,0.184,-0.049,-0.088,-0.125,-0.11,-0.09,-0.105
-0.038,0.162,0.2,-0.062,-0.119,0.181,-0.043,-0.096,-0.126,-0.11,-0.09,-0.105
-0.037,0.155,0.192,-0.06,-0.115,0.174,-0.035,-0.111,-0.13,-0.11,-0.09,-0.109
-0.038,0.153,0.191,-0.058,-0.115,0.172,-0.03,-0.11,-0.129,-0.106,-0.09,-0.11
-0.043,0.145,0.188,-0.051,-0.116,0.167,-0.022,-0.11,-0.132,-0.105,-0.09,-0.11
-0.051,0.141,0.192,-0.045,-0.121,0.166,-0.016,-0.11,-0.136,-0.104,-0.09,-0.11
-0.033,0.163,0.196,-0.065,-0.115,0.179,-0.03,-0.109,-0.134,-0.101,-0.086,-0.11
-0.038,0.158,0.196,-0.06,-0.117,0.176,-0.035,-0.113,-0.139,-0.099,-0.085,-0.109
-0.031,0.148,0.179,-0.059,-0.105,0.163,-0.025,-0.115,-0.14,-0.101,-0.079,-0.105
-0.031,0.139,0.169,-0.054,-0.1,0.154,-0.025,-0.115,-0.14,-0.11,-0.083,-0.105
-0.068,0.136,0.204,-0.034,-0.136,0.17,-0.017,-0.115,-0.144,-0.112,-0.096,-0.102
-0.046,0.167,0.213,-0.061,-0.129,0.19,-0.016,-0.115,-0.146,-0.109,-0.095,-0.099
-0.04,0.168,0.208,-0.064,-0.124,0.187,-0.045,-0.115,-0.144,-0.111,-0.095,-0.1
-0.052,0.16,0.212,-0.054,-0.132,0.185,-0.05,-0.11,-0.139,-0.11,-0.095,-0.097
-0.05,0.159,0.209,-0.054,-0.13,0.184,-0.04,-0.105,-0.134,-0.11,-0.095,-0.091
-0.059,0.151,0.21,-0.046,-0.134,0.18,-0.041,-0.101,-0.13,-0.109,-0.094,-0.087
-0.052,0.15,0.202,-0.05,-0.127,0.176,-0.031,-0.096,-0.125,-0.095,-0.082,-0.082
-0.038,0.158,0.196,-0.06,-0.117,0.177,-0.033,-0.089,-0.118,-0.082,-0.071,-0.078
-0.017,0.173,0.19,-0.078,-0.103,0.181,-0.019,-0.064,-0.098,-0.062,-0.053,-0.072
0.003,0.184,0.182,-0.094,-0.09,0.183,-0.017,-0.04,-0.07,-0.04,-0.03,-0.054
0.022,0.199,0.177,-0.111,-0.078,0.188,0.01,-0.026,-0.037,-0.039,-0.029,-0.033
0.041,0.206,0.165,-0.123,-0.063,0.185,0.025,0.002,-0.021,-0.046,-0.037,-0.03
0.037,0.173,0.136,-0.106,-0.05,0.154,-0.048,-0.045,-0.063,-0.059,-0.036,-0.052
-0.015,0.111,0.126,-0.048,-0.071,0.118,-0.052,-0.089,-0.091,-0.075,-0.046,-0.073
-0.032,0.103,0.135,-0.035,-0.084,0.118,-0.037,-0.083,-0.077,-0.067,-0.044,-0.069
-0.054,0.07,0.124,-0.008,-0.09,0.097,-0.038,-0.084,-0.111,-0.089,-0.068,-0.084
-0.084,0.053,0.137,0.015,-0.111,0.094,-0.028,-0.074,-0.125,-0.098,-0.072,-0.085
-0.053,0.068,0.122,-0.007,-0.088,0.095,-0.029,-0.097,-0.122,-0.094,-0.076,-0.085
-0.062,0.08,0.142,-0.009,-0.102,0.111,-0.018,-0.103,-0.14,-0.105,-0.092,-0.088
-0.069,0.097,0.166,-0.014,-0.117,0.131,-0.029,-0.114,-0.107,-0.079,-0.07,-0.077
-0.113,0.043,0.156,0.035,-0.135,0.099,-0.015,-0.033,-0.106,-0.108,-0.089,-0.1
-0.086,0.104,0.19,-0.009,-0.138,0.147,0.004,0.051,0.053,0.029,0.01,-0.03
0.08,0.212,0.132,-0.146,-0.026,0.172,0.033,0.133,0.265,0.217,0.154,0.083
0.537,0.524,-0.012,-0.53,0.274,0.256,-0.158,0.155,0.722,0.712,0.552,0.423
0.787,0.648,-0.139,-0.717,0.463,0.254,-0.661,-0.596,0.602,0.793,0.619,0.518
0.234,0.298,0.064,-0.266,0.085,0.181,-0.741,-1.121,-0.583,-0.128,0.002,0.069
-0.092,0.132,0.224,-0.02,-0.158,0.178,-0.288,-0.443,-0.6,-0.311,-0.148,-0.088
-0.035,0.089,0.124,-0.027,-0.08,0.106,-0.049,0.016,-0.085,-0.088,-0.065,-0.074
-0.05,0.086,0.136,-0.018,-0.093,0.111,-0.044,-0.047,-0.121,-0.1,-0.072,-0.086
-0.035,0.078,0.112,-0.022,-0.074,0.095,-0.017,-0.027,-0.056,-0.044,-0.042,-0.066
-0.057,0.047,0.104,0.004,-0.081,0.075,-0.008,-0.032,-0.08,-0.089,-0.058,-0.075
-0.026,0.072,0.098,-0.024,-0.062,0.085,0.005,-0.019,-0.053,-0.067,-0.036,-0.06
-0.03,0.052,0.082,-0.011,-0.056,0.067,0.006,-0.014,-0.047,-0.065,-0.041,-0.063
-0.04,0.043,0.084,-0.002,-0.062,0.063,0.009,-0.009,-0.041,-0.053,-0.031,-0.053
-0.02,0.048,0.068,-0.014,-0.044,0.058,0.01,0.0,-0.023,-0.042,-0.028,-0.051
-0.026,0.042,0.067,-0.008,-0.047,0.054,0.004,0.002,-0.026,-0.043,-0.023,-0.047
0.024,0.078,0.054,-0.051,-0.015,0.065,0.004,0.013,-0.007,-0.032,-0.017,-0.04
0.027,0.097,0.07,-0.063,-0.022,0.083,-0.001,0.016,-0.008,-0.034,-0.015,-0.039
0.0,0.088,0.088,-0.045,-0.044,0.088,-0.002,0.026,0.006,-0.024,-0.008,-0.032
0.005,0.088,0.083,-0.047,-0.039,0.085,-0.007,0.029,0.009,-0.024,-0.006,-0.031
-0.002,0.085,0.087,-0.042,-0.045,0.086,0.003,0.035,0.018,-0.015,0.001,-0.026
0.009,0.092,0.083,-0.051,-0.037,0.087,0.006,0.04,0.023,-0.009,0.004,-0.022
0.014,0.095,0.081,-0.055,-0.034,0.088,-0.006,0.043,0.036,-0.003,0.009,-0.02
0.018,0.113,0.095,-0.066,-0.039,0.104,-0.015,0.048,0.051,0.005,0.014,-0.013
0.034,0.101,0.067,-0.068,-0.017,0.084,-0.023,0.053,0.068,0.009,0.018,-0.005
0.041,0.066,0.025,-0.054,0.008,0.045,-0.012,0.08,0.105,0.028,0.037,0.003
0.05,0.064,0.015,-0.057,0.017,0.039,-0.008,0.101,0.127,0.047,0.05,0.011
0.07,0.081,0.011,-0.076,0.029,0.046,-0.022,0.108,0.147,0.061,0.052,0.02
0.117,0.103,-0.014,-0.11,0.065,0.045,-0.023,0.135,0.178,0.087,0.074,0.04
0.16,0.106,-0.055,-0.133,0.107,0.025,-0.048,0.144,0.208,0.108,0.095,0.062
0.191,0.109,-0.083,-0.15,0.137,0.013,-0.079,0.138,0.232,0.115,0.101,0.076
0.197,0.115,-0.082,-0.156,0.139,0.017,-0.09,0.137,0.236,0.122,0.111,0.08
0.183,0.119,-0.063,-0.151,0.123,0.028,-0.113,0.132,0.233,0.133,0.117,0.098
0.224,0.138,-0.086,-0.181,0.155,0.026,-0.119,0.131,0.239,0.139,0.112,0.105
0.239,0.141,-0.098,-0.19,0.168,0.021,-0.112,0.129,0.234,0.135,0.104,0.091
0.208,0.138,-0.07,-0.173,0.139,0.033,-0.102,0.121,0.209,0.127,0.098,0.085
0.199,0.118,-0.081,-0.158,0.14,0.018,-0.057,0.112,0.17,0.118,0.089,0.075
0.149,0.066,-0.083,-0.107,0.116,-0.009,-0.015,0.103,0.125,0.093,0.083,0.066
0.076,-0.003,-0.079,-0.036,0.077,-0.041,0.02,0.094,0.085,0.067,0.073,0.053
0.018,-0.045,-0.062,0.014,0.04,-0.053,0.056,0.08,0.044,0.047,0.06,0.033
-0.034,-0.046,-0.011,0.04,-0.011,-0.028,0.06,0.065,0.021,0.03,0.052,0.012
-0.038,-0.068,-0.031,0.053,-0.003,-0.049,0.061,0.051,0.016,0.016,0.046,0.0
-0.02,-0.079,-0.059,0.05,0.02,-0.069,0.058,0.041,0.006,0.006,0.039,-0.001
-0.045,-0.091,-0.047,0.068,0.002,-0.069,0.065,0.038,-0.001,0.001,0.033,-0.005
-0.055,-0.097,-0.042,0.076,-0.006,-0.069,0.084,0.034,-0.008,-0.004,0.025,-0.008
-0.025,-0.075,-0.05,0.05,0.013,-0.063,0.081,0.032,-0.014,-0.007,0.017,-0.01
-0.014,-0.076,-0.062,0.045,0.025,-0.069,0.074,0.025,-0.01,-0.013,0.011,-0.01
-0.018,-0.074,-0.057,0.046,0.02,-0.065,0.071,0.028,-0.01,-0.014,0.003,-0.01
-0.02,-0.075,-0.055,0.048,0.018,-0.065,0.062,0.045,-0.009,-0.01,-0.005,-0.01
-0.023,-0.075,-0.052,0.049,0.015,-0.063,0.062,0.043,-0.005,-0.008,-0.009,-0.01
-0.029,-0.075,-0.046,0.052,0.009,-0.06,0.074,0.038,-0.006,-0.005,-0.003,-0.01
-0.031,-0.073,-0.042,0.052,0.006,-0.057,0.074,0.037,-0.003,-0.001,0.004,-0.01
-0.023,-0.062,-0.039,0.043,0.008,-0.05,0.068,0.03,0.0,0.0,0.011,-0.005
-0.049,-0.059,-0.011,0.054,-0.019,-0.035,0.067,0.032,0.0,-0.003,0.018,-0.005
-0.055,-0.061,-0.006,0.058,-0.024,-0.033,0.059,0.045,0.0,-0.008,0.024,-0.004
-0.023,-0.059,-0.036,0.041,0.007,-0.048,0.064,0.043,0.0,-0.009,0.022,0.0
-0.021,-0.061,-0.04,0.041,0.01,-0.05,0.07,0.039,0.0,-0.005,0.017,0.0
-0.004,-0.06,-0.055,0.032,0.025,-0.057,0.063,0.036,-0.005,-0.005,0.015,-0.002
0.003,-0.058,-0.061,0.028,0.032,-0.06,0.055,0.031,-0.01,-0.004,0.01,-0.006
-0.002,-0.055,-0.053,0.029,0.026,-0.054,0.05,0.029,-0.014,-0.012,0.007,-0.009
-0.002,-0.054,-0.052,0.028,0.025,-0.052,0.043,0.025,-0.019,-0.025,0.003,-0.013
-0.015,-0.065,-0.049,0.04,0.017,-0.056,0.048,0.023,-0.023,-0.024,0.0,-0.015
-0.01,-0.057,-0.047,0.034,0.019,-0.052,0.064,0.02,-0.026,-0.026,0.0,-0.01
-0.028,-0.072,-0.044,0.051,0.008,-0.058,0.06,0.017,-0.024,-0.029,-0.003,-0.01
-0.05,-0.094,-0.044,0.072,-0.003,-0.068,0.051,0.014,-0.026,-0.03,-0.005,-0.01
-0.047,-0.082,-0.035,0.065,-0.006,-0.058,0.047,0.012,-0.033,-0.03,-0.005,-0.01
-0.051,-0.081,-0.03,0.067,-0.011,-0.056,0.038,0.009,-0.036,-0.03,-0.008,-0.01
-0.055,-0.077,-0.022,0.066,-0.016,-0.049,0.036,0.006,-0.042,-0.03,-0.014,-0.012
-0.054,-0.071,-0.016,0.063,-0.019,-0.043,0.042,0.003,-0.046,-0.03,-0.018,-0.019
-0.061,-0.071,-0.009,0.066,-0.026,-0.04,0.049,0.0,-0.05,-0.031,-0.023,-0.025
-0.024,-0.017,0.007,0.021,-0.015,-0.005,0.047,-0.001,-0.058,-0.028,-0.027,-0.023
0.009,0.015,0.005,-0.012,0.002,0.01,0.042,-0.017,-0.063,-0.046,-0.032,-0.034
-0.043,-0.019,0.024,0.031,-0.033,0.002,0.04,-0.035,-0.065,-0.063,-0.035,-0.046
-0.056,-0.021,0.035,0.038,-0.045,0.007,0.035,-0.034,-0.065,-0.059,-0.035,-0.047
-0.048,-0.014,0.034,0.031,-0.041,0.01,0.032,-0.036,-0.065,-0.063,-0.037,-0.05
-0.053,-0.011,0.042,0.032,-0.048,0.016,0.028,-0.04,-0.065,-0.066,-0.041,-0.054
-0.02,0.017,0.036,0.001,-0.028,0.026,0.021,-0.04,-0.07,-0.064,-0.039,-0.055
-0.022,0.033,0.055,-0.006,-0.039,0.044,0.011,-0.039,-0.069,-0.07,-0.038,-0.056
-0.037,0.035,0.071,0.001,-0.054,0.053,0.004,-0.032,-0.076,-0.069,-0.033,-0.054
-0.039,0.056,0.094,-0.009,-0.067,0.075,-0.008,-0.049,-0.091,-0.072,-0.032,-0.056
-0.025,0.103,0.127,-0.04,-0.076,0.115,-0.025,-0.059,-0.082,-0.083,-0.028,-0.054
0.004,0.144,0.14,-0.075,-0.068,0.142,-0.016,-0.043,-0.077,-0.067,-0.025,-0.055
0.006,0.148,0.142,-0.077,-0.069,0.145,0.012,-0.03,-0.059,-0.028,-0.024,-0.054
0.028,0.137,0.109,-0.083,-0.041,0.123,0.046,0.004,-0.01,-0.003,0.011,-0.019
0.059,0.135,0.076,-0.097,-0.009,0.105,0.071,0.037,0.007,-0.013,0.026,-0.006
0.077,0.127,0.05,-0.102,0.013,0.088,0.037,0.011,-0.017,-0.022,0.015,-0.024
0.058,0.087,0.029,-0.073,0.014,0.058,0.002,-0.038,-0.064,-0.049,-0.017,-0.04
0.009,0.069,0.06,-0.039,-0.026,0.065,-0.007,-0.063,-0.089,-0.058,-0.039,-0.046
-0.03,0.045,0.075,-0.008,-0.053,0.06,-0.013,-0.067,-0.088,-0.06,-0.041,-0.066
-0.05,0.013,0.063,0.018,-0.057,0.038,-0.008,-0.062,-0.105,-0.079,-0.049,-0.074
-0.045,0.023,0.068,0.011,-0.057,0.045,-0.007,-0.069,-0.092,-0.065,-0.047,-0.064
-0.056,0.045,0.102,0.005,-0.079,0.073,-0.006,-0.061,-0.113,-0.091,-0.067,-0.084
-0.025,0.079,0.104,-0.027,-0.065,0.091,-0.031,-0.08,-0.088,-0.049,-0.05,-0.061
-0.031,0.047,0.078,-0.008,-0.055,0.062,-0.003,-0.049,-0.105,-0.085,-0.086,-0.096
-0.066,0.097,0.163,-0.016,-0.115,0.13,0.049,0.046,-0.006,-0.018,-0.004,-0.036
-0.011,0.132,0.144,-0.061,-0.078,0.138,0.062,0.108,0.211,0.155,0.116,0.062
0.371,0.384,0.013,-0.377,0.178,0.198,-0.046,0.229,0.568,0.521,0.406,0.306
0.827,0.715,-0.111,-0.771,0.469,0.302,-0.492,-0.283,0.794,0.892,0.7,0.577
0.443,0.422,-0.021,-0.432,0.232,0.2,-0.77,-1.086,-0.258,0.138,0.178,0.213
-0.066,0.151,0.217,-0.043,-0.142,0.184,-0.421,-0.687,-0.746,-0.363,-0.174,-0.084
-0.038,0.115,0.153,-0.039,-0.095,0.133,-0.051,-0.052,-0.173,-0.125,-0.078,-0.059
-0.019,0.083,0.102,-0.032,-0.061,0.093,-0.016,-0.048,-0.121,-0.112,-0.098,-0.066
-0.012,0.11,0.122,-0.049,-0.067,0.116,-0.023,-0.034,-0.074,-0.061,-0.064,-0.05
-0.019,0.093,0.112,-0.038,-0.065,0.102,-0.017,-0.031,-0.076,-0.086,-0.073,-0.066
-0.046,0.104,0.15,-0.029,-0.098,0.127,-0.022,-0.026,-0.086,-0.079,-0.059,-0.057
-0.053,0.098,0.15,-0.023,-0.101,0.124,-0.018,-0.019,-0.061,-0.071,-0.053,-0.061
-0.039,0.108,0.147,-0.035,-0.093,0.128,-0.017,-0.038,-0.079,-0.078,-0.051,-0.06
-0.02,0.121,0.14,-0.051,-0.08,0.13,-0.009,-0.027,-0.054,-0.064,-0.042,-0.059
-0.022,0.112,0.135,-0.045,-0.079,0.123,-0.005,-0.024,-0.063,-0.073,-0.048,-0.059
-0.021,0.109,0.13,-0.044,-0.076,0.12,0.001,-0.015,-0.04,-0.06,-0.042,-0.053
-0.041,0.103,0.144,-0.031,-0.093,0.124,0.008,-0.009,-0.038,-0.065,-0.047,-0.053
-0.052,0.094,0.147,-0.021,-0.1,0.12,0.025,0.005,-0.026,-0.058,-0.044,-0.048
-0.028,0.108,0.136,-0.04,-0.082,0.121,0.023,0.006,-0.021,-0.056,-0.042,-0.046
-0.007,0.124,0.132,-0.059,-0.07,0.128,0.012,0.003,-0.014,-0.055,-0.036,-0.044
-0.009,0.113,0.123,-0.052,-0.066,0.118,0.01,0.012,-0.002,-0.048,-0.032,-0.038
-0.009,0.106,0.115,-0.048,-0.062,0.11,-0.01,0.022,0.008,-0.038,-0.029,-0.027
-0.016,0.096,0.112,-0.041,-0.064,0.104,-0.021,0.038,0.028,-0.027,-0.023,-0.018
-0.022,0.094,0.116,-0.036,-0.069,0.104,-0.017,0.054,0.055,-0.019,-0.018,-0.008
-0.007,0.108,0.115,-0.051,-0.061,0.111,-0.01,0.062,0.075,-0.013,-0.011,-0.001
0.039,0.152,0.113,-0.096,-0.038,0.133,-0.013,0.068,0.081,-0.006,-0.007,0.004
0.056,0.182,0.126,-0.119,-0.035,0.153,-0.033,0.074,0.101,0.001,0.0,0.009
0.065,0.201,0.136,-0.133,-0.035,0.168,-0.054,0.078,0.117,0.007,0.009,0.015
0.122,0.21,0.089,-0.166,0.016,0.149,-0.074,0.083,0.138,0.014,0.017,0.02
0.146,0.233,0.087,-0.19,0.03,0.16,-0.104,0.083,0.147,0.021,0.027,0.014
0.177,0.318,0.141,-0.248,0.018,0.229,-0.15,0.074,0.149,0.027,0.029,0.02
0.216,0.337,0.121,-0.277,0.048,0.229,-0.171,0.065,0.164,0.033,0.035,0.035
0.192,0.316,0.124,-0.254,0.033,0.22,-0.178,0.057,0.159,0.039,0.038,0.05
0.174,0.319,0.144,-0.247,0.015,0.231,-0.177,0.049,0.163,0.046,0.045,0.055
0.165,0.305,0.141,-0.235,0.012,0.223,-0.163,0.043,0.149,0.033,0.044,0.04
0.143,0.308,0.165,-0.226,-0.011,0.236,-0.134,0.036,0.1,0.018,0.027,0.024
0.103,0.289,0.186,-0.196,-0.042,0.237,-0.098,0.026,0.046,-0.003,0.008,0.002
0.036,0.24,0.204,-0.138,-0.085,0.222,-0.074,0.012,0.002,-0.039,-0.024,-0.017
0.007,0.215,0.209,-0.111,-0.101,0.212,-0.034,0.003,-0.023,-0.051,-0.037,-0.038
-0.002,0.188,0.19,-0.093,-0.096,0.189,-0.008,-0.021,-0.053,-0.07,-0.045,-0.053
-0.028,0.163,0.191,-0.068,-0.11,0.177,-0.003,-0.048,-0.073,-0.087,-0.063,-0.056
-0.045,0.157,0.202,-0.056,-0.124,0.179,0.002,-0.052,-0.094,-0.092,-0.076,-0.072
-0.054,0.146,0.2,-0.046,-0.127,0.173,0.006,-0.048,-0.103,-0.096,-0.082,-0.076
-0.057,0.141,0.198,-0.042,-0.128,0.17,0.01,-0.053,-0.098,-0.097,-0.079,-0.075
-0.052,0.146,0.198,-0.047,-0.125,0.172,0.021,-0.069,-0.101,-0.101,-0.086,-0.08
-0.039,0.149,0.188,-0.055,-0.114,0.168,0.025,-0.068,-0.099,-0.101,-0.084,-0.08
-0.042,0.155,0.197,-0.057,-0.12,0.176,0.01,-0.062,-0.1,-0.108,-0.086,-0.079
-0.059,0.156,0.215,-0.049,-0.138,0.186,-0.005,-0.058,-0.095,-0.107,-0.101,-0.073
-0.045,0.149,0.194,-0.052,-0.12,0.171,-0.003,-0.055,-0.09,-0.102,-0.096,-0.067
-0.041,0.14,0.181,-0.05,-0.111,0.16,0.014,-0.062,-0.086,-0.1,-0.081,-0.063
-0.046,0.131,0.177,-0.043,-0.112,0.154,0.017,-0.053,-0.081,-0.095,-0.075,-0.056
-0.048,0.123,0.171,-0.038,-0.11,0.146,0.015,-0.032,-0.077,-0.092,-0.07,-0.051
-0.056,0.112,0.168,-0.028,-0.112,0.139,0.012,-0.024,-0.072,-0.088,-0.066,-0.065
-0.058,0.107,0.164,-0.025,-0.111,0.135,0.01,-0.025,-0.07,-0.085,-0.062,-0.07
-0.058,0.103,0.16,-0.023,-0.109,0.131,0.027,-0.025,-0.07,-0.085,-0.056,-0.061
-0.056,0.101,0.157,-0.023,-0.106,0.128,0.036,-0.025,-0.07,-0.083,-0.057,-0.06
-0.057,0.096,0.153,-0.02,-0.105,0.124,0.034,-0.025,-0.07,-0.079,-0.061,-0.053
-0.033,0.094,0.127,-0.031,-0.081,0.111,0.035,-0.028,-0.07,-0.08,-0.06,-0.05
-0.038,0.082,0.12,-0.022,-0.079,0.101,0.035,-0.033,-0.075,-0.083,-0.06,-0.055
-0.05,0.071,0.122,-0.011,-0.086,0.096,0.035,-0.036,-0.08,-0.086,-0.06,-0.055
-0.05,0.061,0.111,-0.006,-0.081,0.086,0.033,-0.043,-0.084,-0.084,-0.06,-0.056
-0.062,0.044,0.106,0.009,-0.084,0.074,0.029,-0.049,-0.085,-0.085,-0.06,-0.06
-0.016,0.082,0.097,-0.033,-0.057,0.089,0.03,-0.047,-0.085,-0.098,-0.06,-0.06
-0.023,0.067,0.09,-0.023,-0.057,0.078,0.03,-0.044,-0.085,-0.096,-0.06,-0.057
-0.064,0.021,0.085,0.021,-0.075,0.053,0.03,-0.041,-0.085,-0.089,-0.06,-0.053
-0.048,0.027,0.076,0.01,-0.062,0.051,0.03,-0.038,-0.085,-0.085,-0.06,-0.047
-0.051,0.024,0.075,0.014,-0.063,0.049,0.025,-0.035,-0.085,-0.078,-0.06,-0.044
-0.04,0.026,0.065,0.007,-0.053,0.045,0.026,-0.036,-0.089,-0.076,-0.065,-0.038
-0.047,0.024,0.071,0.011,-0.059,0.047,0.023,-0.042,-0.09,-0.082,-0.065,-0.037
-0.081,0.03,0.111,0.025,-0.097,0.07,0.02,-0.05,-0.09,-0.09,-0.065,-0.05
-0.076,0.041,0.117,0.017,-0.096,0.079,0.02,-0.052,-0.09,-0.092,-0.065,-0.05
-0.075,0.039,0.113,0.017,-0.094,0.076,0.018,-0.049,-0.09,-0.089,-0.065,-0.045
-0.082,0.034,0.116,0.024,-0.1,0.075,0.013,-0.051,-0.088,-0.091,-0.063,-0.044
-0.078,0.035,0.113,0.021,-0.095,0.074,0.017,-0.05,-0.084,-0.089,-0.059,-0.04
-0.069,0.019,0.088,0.025,-0.079,0.053,0.041,-0.051,-0.086,-0.091,-0.06,-0.039
-0.046,0.017,0.063,0.014,-0.055,0.04,0.045,-0.049,-0.081,-0.089,-0.056,-0.035
-0.084,-0.006,0.078,0.045,-0.081,0.036,0.039,-0.045,-0.08,-0.085,-0.055,-0.035
-0.103,-0.029,0.074,0.065,-0.088,0.022,0.038,-0.045,-0.08,-0.086,-0.056,-0.036
-0.035,0.022,0.057,0.007,-0.046,0.039,0.032,-0.044,-0.075,-0.079,-0.049,-0.034
-0.052,-0.006,0.046,0.029,-0.049,0.02,0.029,-0.047,-0.068,-0.083,-0.048,-0.037
-0.063,-0.031,0.032,0.046,-0.047,0.0,0.033,-0.03,-0.064,-0.064,-0.038,-0.023
-0.036,-0.012,0.024,0.023,-0.03,0.006,0.05,0.006,-0.052,-0.029,-0.014,0.007
-0.014,0.002,0.016,0.006,-0.015,0.009,0.073,0.026,-0.017,-0.013,0.015,0.02
0.045,0.052,0.007,-0.049,0.018,0.029,0.081,0.041,0.014,0.003,0.032,0.031
0.021,0.023,0.002,-0.022,0.009,0.012,0.081,0.059,0.012,-0.01,0.022,0.029
0.0,-0.034,-0.034,0.017,0.018,-0.034,0.049,0.021,-0.014,-0.013,0.019,0.017
0.03,-0.047,-0.077,0.009,0.054,-0.062,0.012,-0.015,-0.046,-0.027,0.005,0.003
0.01,-0.05,-0.059,0.02,0.035,-0.054,0.036,0.002,-0.051,-0.033,0.004,-0.001
-0.06,-0.11,-0.05,0.085,-0.005,-0.08,0.063,-0.007,-0.062,-0.051,-0.024,-0.009
-0.082,-0.118,-0.036,0.1,-0.022,-0.077,0.048,-0.021,-0.091,-0.077,-0.047,-0.012
-0.067,-0.093,-0.025,0.08,-0.021,-0.059,0.035,-0.041,-0.078,-0.066,-0.041,-0.017
-0.079,-0.118,-0.038,0.099,-0.021,-0.078,0.034,-0.03,-0.088,-0.08,-0.052,-0.028
-0.027,-0.098,-0.071,0.062,0.022,-0.084,0.012,-0.042,-0.058,-0.046,-0.033,-0.022
-0.071,-0.13,-0.059,0.101,-0.006,-0.094,0.056,0.008,-0.062,-0.083,-0.063,-0.05
-0.106,-0.06,0.045,0.083,-0.075,-0.007,0.077,0.103,0.066,0.033,0.038,0.024
0.032,0.036,0.004,-0.034,0.014,0.02,0.086,0.173,0.266,0.203,0.155,0.107
0.454,0.313,-0.141,-0.384,0.298,0.086,-0.043,0.254,0.686,0.636,0.507,0.409
0.785,0.492,-0.293,-0.638,0.539,0.099,-0.51,-0.384,0.747,0.875,0.698,0.604
0.329,0.133,-0.196,-0.231,0.262,-0.031,-0.668,-1.057,-0.393,0.027,0.123,0.187
-0.058,-0.079,-0.021,0.069,-0.019,-0.05,-0.281,-0.514,-0.626,-0.295,-0.113,-0.023
-0.029,-0.122,-0.093,0.076,0.032,-0.107,0.029,0.056,-0.08,-0.06,-0.03,-0.01
-0.042,-0.145,-0.104,0.094,0.031,-0.124,0.058,0.057,-0.081,-0.076,-0.04,-0.025
-0.055,-0.163,-0.108,0.109,0.026,-0.135,0.06,0.063,-0.004,-0.026,0.0,0.012
-0.078,-0.203,-0.125,0.14,0.024,-0.164,0.085,0.053,-0.003,-0.043,-0.009,-0.003
-0.049,-0.201,-0.153,0.125,0.052,-0.177,0.087,0.05,0.021,-0.025,0.01,0.014
-0.066,-0.22,-0.154,0.143,0.044,-0.186,0.086,0.046,0.036,-0.026,0.007,0.018
-0.08,-0.202,-0.123,0.141,0.022,-0.162,0.085,0.048,0.022,-0.025,0.016,0.02
-0.068,-0.205,-0.137,0.137,0.035,-0.171,0.083,0.051,0.038,-0.016,0.022,0.021
-0.067,-0.207,-0.14,0.137,0.037,-0.173,0.079,0.054,0.022,-0.018,0.025,0.017
-0.037,-0.202,-0.165,0.12,0.065,-0.183,0.081,0.077,0.038,-0.005,0.032,0.028
-0.026,-0.211,-0.185,0.119,0.08,-0.198,0.081,0.074,0.037,-0.005,0.033,0.039
-0.044,-0.212,-0.168,0.128,0.062,-0.19,0.08,0.076,0.059,0.004,0.04,0.041
-0.078,-0.206,-0.128,0.143,0.025,-0.167,0.076,0.073,0.07,0.008,0.039,0.038
-0.05,-0.196,-0.146,0.123,0.048,-0.171,0.074,0.085,0.075,0.016,0.041,0.045
0.002,-0.19,-0.191,0.094,0.097,-0.19,0.071,0.103,0.079,0.023,0.048,0.054
0.006,-0.182,-0.188,0.088,0.097,-0.185,0.068,0.097,0.087,0.027,0.053,0.057
0.011,-0.179,-0.191,0.084,0.101,-0.185,0.085,0.108,0.109,0.036,0.059,0.059
0.01,-0.181,-0.19,0.086,0.1,-0.186,0.08,0.127,0.115,0.048,0.062,0.063
0.026,-0.162,-0.188,0.068,0.107,-0.175,0.058,0.131,0.14,0.054,0.067,0.071
0.054,-0.138,-0.191,0.042,0.123,-0.164,0.048,0.142,0.157,0.068,0.08,0.082
0.035,-0.124,-0.159,0.044,0.097,-0.141,0.039,0.145,0.178,0.078,0.085,0.075
0.064,-0.113,-0.177,0.025,0.121,-0.145,0.031,0.157,0.208,0.087,0.095,0.086
0.111,-0.099,-0.21,-0.005,0.161,-0.154,0.019,0.184,0.233,0.107,0.111,0.112
0.112,-0.09,-0.202,-0.011,0.158,-0.146,0.008,0.179,0.252,0.121,0.117,0.116
0.145,-0.072,-0.217,-0.036,0.181,-0.144,-0.04,0.169,0.242,0.121,0.12,0.128
0.177,-0.036,-0.213,-0.07,0.195,-0.124,-0.067,0.162,0.239,0.114,0.12,0.131
0.178,-0.032,-0.21,-0.073,0.194,-0.121,-0.077,0.154,0.232,0.11,0.118,0.131
0.187,-0.02,-0.207,-0.083,0.197,-0.113,-0.1,0.152,0.228,0.104,0.133,0.142
0.178,-0.016,-0.193,-0.081,0.186,-0.104,-0.076,0.145,0.218,0.099,0.137,0.141
0.129,-0.055,-0.184,-0.037,0.156,-0.119,-0.034,0.143,0.181,0.093,0.122,0.129
0.07,-0.09,-0.16,0.01,0.115,-0.124,0.021,0.132,0.139,0.079,0.103,0.106
0.046,-0.088,-0.133,0.021,0.09,-0.11,0.06,0.102,0.095,0.051,0.076,0.074
0.025,-0.098,-0.123,0.037,0.074,-0.111,0.08,0.066,0.06,0.019,0.045,0.048
-0.006,-0.125,-0.119,0.066,0.057,-0.122,0.086,0.044,0.03,0.005,0.04,0.037
-0.04,-0.147,-0.107,0.094,0.033,-0.127,0.086,0.045,0.006,-0.002,0.022,0.025
-0.054,-0.182,-0.128,0.118,0.038,-0.155,0.104,0.045,0.021,-0.012,0.02,0.025
-0.04,-0.186,-0.146,0.113,0.053,-0.165,0.106,0.048,0.019,-0.023,0.021,0.025
-0.051,-0.202,-0.151,0.127,0.05,-0.176,0.104,0.051,0.011,-0.009,0.007,0.025
-0.026,-0.208,-0.182,0.117,0.078,-0.195,0.106,0.049,0.017,0.002,0.024,0.025
-0.032,-0.228,-0.196,0.13,0.082,-0.212,0.104,0.056,-0.004,-0.009,-0.01,0.025
-0.052,-0.251,-0.199,0.152,0.074,-0.225,0.107,0.053,0.02,-0.001,0.041,0.023
-0.039,-0.24,-0.2,0.14,0.081,-0.22,0.113,0.061,-0.005,0.001,-0.013,0.01
-0.034,-0.234,-0.2,0.134,0.083,-0.217,0.12,0.066,0.048,-0.001,0.095,0.031
-0.029,-0.226,-0.198,0.127,0.085,-0.212,0.119,0.062,-0.07,0.001,0.229,0.018
-0.048,-0.266,-0.218,0.158,0.085,-0.242,0.12,0.078,-0.209,-0.001,0.021,-0.008
-0.049,-0.288,-0.239,0.169,0.095,-0.263,0.129,0.071,-0.038,0.001,-0.018,0.006
