-0.09,-0.02,0.07,0.055,-0.08,0.025,0.045,-0.045,-0.07,-0.025,0.02,-0.005
-0.09,-0.02,0.07,0.055,-0.08,0.025,0.045,-0.043,-0.07,-0.028,0.02,-0.005
-0.09,-0.02,0.07,0.055,-0.08,0.025,0.048,-0.037,-0.071,-0.038,0.02,-0.005
-0.094,-0.02,0.074,0.056,-0.084,0.026,0.051,-0.035,-0.069,-0.047,0.02,-0.005
-0.095,-0.02,0.075,0.057,-0.085,0.027,0.054,-0.028,-0.071,-0.05,0.02,-0.005
-0.105,-0.031,0.074,0.067,-0.089,0.022,0.055,-0.027,-0.041,-0.053,0.02,-0.005
-0.107,-0.036,0.071,0.071,-0.088,0.017,0.055,-0.047,-0.003,-0.056,0.015,-0.01
-0.101,-0.034,0.066,0.067,-0.083,0.016,0.055,-0.052,0.011,-0.06,0.015,-0.01
-0.099,-0.035,0.064,0.067,-0.081,0.014,0.055,-0.064,0.058,-0.06,0.014,-0.01
-0.094,-0.035,0.059,0.065,-0.076,0.012,0.055,-0.083,0.085,-0.056,0.01,-0.01
-0.091,-0.035,0.056,0.062,-0.073,0.01,0.055,-0.079,0.075,-0.053,0.01,-0.009
-0.083,-0.03,0.052,0.056,-0.067,0.011,0.053,-0.071,0.074,-0.05,0.008,-0.013
-0.076,-0.026,0.05,0.051,-0.063,0.011,0.049,-0.059,0.071,-0.047,0.004,-0.015
-0.074,-0.024,0.05,0.049,-0.061,0.013,0.05,-0.052,0.061,-0.045,0.005,-0.015
-0.069,-0.019,0.05,0.044,-0.06,0.015,0.05,-0.055,0.082,-0.045,0.005,-0.019
-0.066,-0.016,0.05,0.041,-0.057,0.016,0.05,-0.055,0.12,-0.045,0.005,-0.02
-0.063,-0.012,0.05,0.037,-0.056,0.019,0.05,-0.054,0.134,-0.045,0.005,-0.02
-0.064,-0.01,0.054,0.037,-0.059,0.022,0.045,-0.066,0.143,-0.045,0.005,-0.02
-0.065,-0.01,0.055,0.037,-0.06,0.022,0.045,-0.086,0.133,-0.045,0.005,-0.02
-0.066,-0.01,0.056,0.038,-0.061,0.023,0.045,-0.091,0.127,-0.045,0.004,-0.021
-0.071,-0.01,0.06,0.041,-0.066,0.025,0.046,-0.094,0.129,-0.038,0.006,-0.02
-0.07,-0.009,0.061,0.04,-0.066,0.026,0.045,-0.101,0.13,-0.027,0.004,-0.021
-0.06,-0.004,0.057,0.032,-0.059,0.026,0.048,-0.091,0.136,-0.018,0.011,-0.015
-0.041,0.009,0.05,0.016,-0.045,0.029,0.057,-0.077,0.134,-0.006,0.037,0.009
-0.028,0.012,0.04,0.008,-0.034,0.026,0.055,-0.055,0.158,0.011,0.053,0.024
-0.031,0.004,0.036,0.013,-0.034,0.02,0.048,-0.052,0.174,0.033,0.062,0.038
-0.032,-0.002,0.029,0.017,-0.03,0.013,0.043,-0.048,0.148,0.043,0.055,0.042
-0.037,-0.01,0.027,0.023,-0.032,0.008,0.038,-0.054,0.098,0.011,0.036,0.024
-0.036,-0.017,0.019,0.026,-0.028,0.001,0.028,-0.089,0.049,-0.023,0.022,0.011
-0.014,-0.025,-0.011,0.02,-0.001,-0.018,0.008,-0.097,0.016,-0.052,0.008,-0.016
-0.005,-0.019,-0.013,0.012,0.004,-0.016,0.004,-0.128,0.005,-0.075,-0.007,-0.029
-0.023,-0.022,0.001,0.022,-0.012,-0.01,0.02,-0.132,0.017,-0.071,-0.022,-0.033
-0.059,-0.017,0.042,0.037,-0.05,0.012,0.02,-0.142,-0.006,-0.075,-0.017,-0.024
-0.082,-0.016,0.066,0.048,-0.073,0.025,0.036,-0.11,0.019,-0.06,-0.009,-0.027
-0.095,-0.016,0.079,0.055,-0.086,0.032,0.026,-0.125,-0.021,-0.07,-0.009,-0.019
-0.09,-0.01,0.079,0.05,-0.084,0.034,0.03,-0.073,-0.014,-0.052,0.006,-0.019
-0.118,-0.007,0.111,0.062,-0.115,0.052,0.075,-0.01,-0.004,-0.04,0.012,-0.024
-0.207,0.081,0.288,0.063,-0.248,0.184,0.18,0.138,0.189,0.193,0.226,0.131
0.186,0.314,0.128,-0.25,0.029,0.22,0.063,0.371,0.578,0.725,0.859,0.674
1.118,0.718,-0.4,-0.918,0.759,0.159,-0.57,-0.248,0.264,0.93,1.465,1.434
1.697,0.564,-1.133,-1.13,1.414,-0.284,-0.934,-0.833,-0.397,0.246,0.764,0.952
1.348,-0.084,-1.432,-0.632,1.39,-0.758,-0.8,-1.002,-1.033,-0.93,-0.623,-0.289
0.359,-0.255,-0.615,-0.052,0.487,-0.435,-0.41,-0.93,-1.03,-1.049,-0.767,-0.503
-0.131,-0.179,-0.048,0.156,-0.042,-0.113,-0.058,-0.364,-0.391,-0.467,-0.344,-0.288
-0.061,-0.097,-0.036,0.079,-0.012,-0.066,-0.019,-0.063,-0.101,-0.2,-0.144,-0.153
-0.107,-0.054,0.053,0.08,-0.08,0.0,0.054,0.052,0.016,-0.059,-0.031,-0.077
-0.114,-0.071,0.043,0.092,-0.078,-0.013,0.079,0.067,0.02,-0.057,-0.025,-0.079
-0.109,-0.054,0.055,0.082,-0.082,0.0,0.07,0.047,0.029,-0.04,0.002,-0.046
-0.125,-0.06,0.064,0.092,-0.094,0.002,0.081,0.057,0.06,-0.033,-0.008,-0.053
-0.114,-0.053,0.062,0.083,-0.088,0.004,0.069,0.021,0.05,-0.034,-0.004,-0.047
-0.114,-0.053,0.061,0.083,-0.087,0.004,0.08,0.031,0.058,-0.02,-0.004,-0.051
-0.101,-0.047,0.053,0.073,-0.077,0.003,0.072,0.021,0.048,-0.023,-0.007,-0.05
-0.097,-0.044,0.053,0.07,-0.075,0.004,0.077,0.025,0.05,-0.01,0.0,-0.049
-0.09,-0.041,0.049,0.065,-0.069,0.004,0.074,0.018,0.056,-0.01,-0.002,-0.051
-0.088,-0.036,0.052,0.062,-0.07,0.008,0.074,0.02,0.094,0.0,0.001,-0.044
-0.082,-0.034,0.048,0.058,-0.065,0.007,0.093,0.04,0.127,0.003,0.002,-0.041
-0.081,-0.03,0.051,0.055,-0.066,0.011,0.101,0.065,0.136,0.009,0.006,-0.035
-0.087,-0.038,0.049,0.063,-0.068,0.005,0.099,0.105,0.134,0.016,0.004,-0.032
-0.089,-0.038,0.051,0.064,-0.07,0.006,0.1,0.117,0.136,0.03,0.012,-0.026
-0.076,-0.03,0.046,0.052,-0.06,0.008,0.1,0.13,0.133,0.052,0.022,-0.023
-0.057,-0.026,0.03,0.041,-0.043,0.002,0.1,0.159,0.156,0.069,0.03,-0.012
-0.034,-0.019,0.015,0.026,-0.024,-0.002,0.093,0.19,0.181,0.087,0.045,-0.003
-0.01,-0.014,-0.004,0.012,-0.003,-0.009,0.082,0.208,0.23,0.105,0.062,0.009
0.014,0.002,-0.013,-0.007,0.013,-0.005,0.073,0.233,0.297,0.134,0.075,0.015
0.084,0.029,-0.055,-0.057,0.069,-0.013,0.059,0.275,0.292,0.157,0.088,0.027
0.135,0.047,-0.087,-0.091,0.111,-0.02,0.03,0.293,0.325,0.182,0.118,0.062
0.193,0.077,-0.116,-0.135,0.154,-0.02,0.008,0.295,0.339,0.204,0.14,0.081
0.262,0.093,-0.169,-0.177,0.215,-0.037,-0.016,0.281,0.292,0.201,0.155,0.106
0.264,0.097,-0.167,-0.18,0.215,-0.035,-0.049,0.27,0.253,0.195,0.172,0.134
0.263,0.109,-0.155,-0.186,0.209,-0.022,-0.056,0.24,0.22,0.187,0.17,0.14
0.247,0.102,-0.146,-0.174,0.196,-0.022,-0.047,0.173,0.199,0.182,0.162,0.134
0.181,0.092,-0.089,-0.136,0.134,0.002,-0.044,0.118,0.149,0.156,0.156,0.121
0.123,0.084,-0.039,-0.103,0.081,0.022,-0.032,0.068,0.117,0.116,0.148,0.114
0.089,0.072,-0.017,-0.081,0.053,0.027,-0.002,0.028,0.086,0.088,0.12,0.088
0.047,0.061,0.014,-0.055,0.016,0.038,0.024,0.01,0.039,0.063,0.091,0.058
0.002,0.044,0.042,-0.023,-0.02,0.043,0.039,0.0,0.005,0.042,0.076,0.048
-0.03,0.022,0.052,0.004,-0.041,0.037,0.04,-0.02,0.01,0.027,0.06,0.037
-0.036,0.013,0.049,0.011,-0.043,0.031,0.042,-0.04,0.019,0.013,0.05,0.027
-0.038,0.009,0.047,0.014,-0.042,0.028,0.059,-0.037,-0.023,0.004,0.04,0.018
-0.04,0.004,0.045,0.017,-0.043,0.024,0.057,-0.03,-0.048,-0.001,0.03,0.007
-0.045,0.0,0.045,0.022,-0.045,0.022,0.051,-0.029,-0.067,-0.006,0.02,-0.002
-0.056,-0.005,0.051,0.03,-0.053,0.022,0.048,-0.021,-0.061,-0.012,0.012,-0.013
-0.058,-0.001,0.057,0.03,-0.058,0.028,0.042,-0.021,-0.041,-0.018,0.006,-0.022
-0.063,0.0,0.063,0.031,-0.063,0.031,0.04,-0.044,-0.044,-0.018,-0.001,-0.031
-0.065,0.0,0.065,0.032,-0.065,0.032,0.04,-0.038,-0.032,-0.014,-0.009,-0.038
-0.06,0.005,0.065,0.027,-0.063,0.035,0.04,0.008,-0.049,-0.012,-0.016,-0.036
-0.06,0.005,0.065,0.027,-0.063,0.035,0.04,0.027,-0.07,-0.009,-0.023,-0.03
-0.059,0.006,0.065,0.026,-0.062,0.035,0.04,0.024,-0.061,-0.006,-0.02,-0.026
-0.054,0.011,0.065,0.021,-0.06,0.038,0.04,0.026,-0.053,-0.004,-0.006,-0.021
-0.051,0.014,0.065,0.018,-0.058,0.039,0.04,0.024,-0.045,-0.001,0.005,-0.016
-0.048,0.017,0.066,0.015,-0.057,0.041,0.04,0.026,-0.037,0.003,0.01,-0.013
-0.041,0.022,0.063,0.009,-0.052,0.042,0.041,0.024,-0.039,0.006,0.012,-0.009
-0.035,0.025,0.059,0.005,-0.048,0.042,0.039,0.008,-0.04,0.01,0.015,-0.005
-0.032,0.029,0.061,0.002,-0.046,0.045,0.042,-0.012,-0.04,0.008,0.019,-0.002
-0.026,0.03,0.056,-0.003,-0.041,0.043,0.055,-0.049,-0.063,0.002,0.02,0.003
-0.025,0.03,0.055,-0.003,-0.04,0.042,0.053,-0.063,-0.072,-0.002,0.017,0.004
-0.02,0.034,0.054,-0.008,-0.037,0.044,0.049,-0.058,-0.068,-0.007,0.014,0.001
-0.029,0.035,0.064,-0.004,-0.047,0.049,0.046,-0.065,-0.072,-0.011,0.011,-0.002
-0.046,0.034,0.08,0.006,-0.063,0.057,0.041,-0.064,-0.083,-0.016,0.008,-0.004
-0.051,0.029,0.08,0.011,-0.066,0.054,0.04,-0.066,-0.111,-0.019,0.005,-0.008
-0.056,0.023,0.079,0.016,-0.068,0.051,0.04,-0.069,-0.128,-0.02,0.005,-0.01
-0.056,0.02,0.075,0.018,-0.066,0.047,0.052,-0.075,-0.135,-0.02,0.005,-0.012
-0.06,0.015,0.075,0.022,-0.068,0.045,0.055,-0.071,-0.123,-0.02,0.005,-0.016
-0.064,0.01,0.074,0.026,-0.069,0.042,0.049,-0.054,-0.099,-0.019,0.005,-0.015
-0.061,0.006,0.068,0.027,-0.065,0.037,0.047,-0.054,-0.104,-0.023,0.005,-0.019
-0.058,0.005,0.062,0.026,-0.06,0.033,0.042,-0.056,-0.111,-0.025,0.005,-0.02
-0.053,0.005,0.058,0.024,-0.056,0.031,0.04,-0.054,-0.109,-0.025,0.001,-0.02
-0.046,0.005,0.051,0.02,-0.049,0.028,0.035,-0.055,-0.109,-0.029,0.0,-0.025
-0.041,0.005,0.046,0.018,-0.044,0.025,0.035,-0.055,-0.115,-0.03,0.0,-0.025
-0.05,0.006,0.056,0.022,-0.054,0.031,0.035,-0.057,-0.104,-0.03,-0.005,-0.026
-0.051,0.01,0.061,0.021,-0.056,0.036,0.035,-0.065,-0.088,-0.023,-0.005,-0.03
-0.049,0.01,0.059,0.02,-0.054,0.035,0.034,-0.069,-0.091,-0.023,-0.006,-0.03
-0.047,0.01,0.057,0.018,-0.052,0.033,0.038,-0.071,-0.089,-0.031,-0.01,-0.028
-0.044,0.01,0.055,0.016,-0.049,0.032,0.047,-0.069,-0.09,-0.03,-0.01,-0.021
-0.046,0.009,0.055,0.018,-0.051,0.032,0.046,-0.073,-0.091,-0.03,-0.011,-0.017
-0.047,0.014,0.061,0.016,-0.055,0.038,0.044,-0.083,-0.087,-0.026,-0.01,-0.012
-0.052,0.016,0.067,0.018,-0.06,0.042,0.046,-0.08,-0.085,-0.025,-0.011,-0.004
-0.046,0.027,0.073,0.01,-0.06,0.05,0.044,-0.071,-0.084,-0.023,0.001,-0.001
-0.035,0.046,0.081,-0.006,-0.058,0.063,0.051,-0.052,-0.083,-0.013,0.028,0.011
-0.018,0.045,0.063,-0.014,-0.041,0.054,0.071,-0.028,-0.078,0.009,0.038,0.025
-0.005,0.045,0.049,-0.02,-0.028,0.047,0.07,-0.029,-0.083,0.034,0.044,0.037
-0.002,0.042,0.045,-0.02,-0.024,0.043,0.057,-0.021,-0.082,0.055,0.049,0.068
0.007,0.038,0.032,-0.023,-0.012,0.035,0.054,-0.024,-0.093,0.025,0.018,0.065
0.018,0.041,0.023,-0.03,-0.003,0.032,0.024,-0.079,-0.138,-0.034,-0.004,0.04
0.026,0.033,0.007,-0.03,0.009,0.019,0.012,-0.086,-0.168,-0.05,-0.013,0.013
0.042,0.029,-0.014,-0.035,0.028,0.007,0.007,-0.088,-0.202,-0.075,-0.038,-0.001
0.051,0.02,-0.031,-0.035,0.041,-0.005,-0.004,-0.07,-0.197,-0.073,-0.04,-0.006
-0.008,0.014,0.022,-0.003,-0.015,0.018,0.001,-0.075,-0.205,-0.076,-0.036,-0.013
-0.07,0.011,0.081,0.029,-0.076,0.046,0.035,-0.059,-0.189,-0.067,-0.031,-0.013
-0.06,0.007,0.068,0.026,-0.064,0.037,0.039,-0.059,-0.185,-0.068,-0.031,-0.019
-0.068,0.015,0.082,0.026,-0.075,0.048,0.024,-0.083,-0.186,-0.066,-0.021,-0.008
-0.069,0.004,0.073,0.032,-0.071,0.038,0.083,-0.032,-0.151,-0.041,-0.025,-0.026
-0.172,0.062,0.233,0.055,-0.203,0.147,0.155,0.013,-0.093,0.055,0.066,0.043
-0.057,0.211,0.268,-0.077,-0.163,0.239,0.169,0.319,0.318,0.529,0.56,0.423
0.759,0.613,-0.146,-0.686,0.452,0.233,-0.331,-0.035,0.288,0.965,1.372,1.272
1.542,0.746,-0.796,-1.144,1.169,-0.025,-0.865,-0.739,-0.297,0.641,1.246,1.375
1.568,0.132,-1.436,-0.85,1.502,-0.652,-0.863,-0.935,-0.964,-0.527,-0.185,0.148
0.734,-0.232,-0.965,-0.25,0.85,-0.598,-0.564,-1.036,-1.323,-1.131,-0.865,-0.495
-0.028,-0.174,-0.147,0.102,0.059,-0.16,-0.118,-0.57,-0.769,-0.625,-0.481,-0.316
-0.053,-0.101,-0.048,0.077,-0.002,-0.074,0.011,-0.14,-0.278,-0.233,-0.195,-0.156
-0.064,-0.02,0.044,0.042,-0.054,0.012,0.055,-0.044,-0.14,-0.09,-0.066,-0.052
-0.076,-0.014,0.062,0.045,-0.069,0.024,0.1,0.021,-0.08,-0.053,-0.057,-0.051
-0.051,-0.002,0.049,0.026,-0.049,0.023,0.073,0.022,-0.076,-0.055,-0.055,-0.036
-0.094,-0.006,0.088,0.05,-0.091,0.04,0.109,0.061,-0.023,-0.033,-0.053,-0.041
-0.087,-0.002,0.085,0.045,-0.086,0.042,0.101,0.041,-0.046,-0.041,-0.058,-0.037
-0.093,0.002,0.095,0.046,-0.094,0.048,0.108,0.043,-0.04,-0.023,-0.052,-0.033
-0.088,-0.002,0.086,0.045,-0.087,0.042,0.104,0.037,-0.035,-0.024,-0.058,-0.037
-0.086,0.007,0.093,0.04,-0.09,0.05,0.105,0.027,-0.061,-0.013,-0.047,-0.029
-0.079,0.008,0.087,0.035,-0.083,0.047,0.105,0.028,-0.065,-0.01,-0.044,-0.03
-0.084,0.015,0.099,0.034,-0.092,0.057,0.099,0.035,-0.041,-0.004,-0.035,-0.024
-0.089,0.012,0.102,0.038,-0.096,0.057,0.1,0.051,0.002,0.003,-0.029,-0.023
-0.079,0.01,0.089,0.035,-0.084,0.049,0.094,0.063,0.012,0.006,-0.023,-0.02
-0.074,0.01,0.085,0.032,-0.079,0.047,0.093,0.095,0.037,0.015,-0.017,-0.018
-0.065,0.009,0.074,0.027,-0.069,0.042,0.089,0.139,0.091,0.027,-0.012,-0.015
-0.06,0.01,0.071,0.025,-0.066,0.04,0.093,0.146,0.103,0.042,-0.005,-0.011
-0.049,0.009,0.059,0.02,-0.054,0.034,0.096,0.184,0.098,0.056,-0.001,-0.008
-0.02,0.017,0.038,0.001,-0.029,0.027,0.094,0.243,0.101,0.078,0.017,-0.005
0.012,0.025,0.013,-0.018,-0.001,0.019,0.105,0.292,0.14,0.111,0.036,0.007
0.046,0.031,-0.015,-0.039,0.031,0.008,0.105,0.358,0.184,0.139,0.051,0.027
0.08,0.048,-0.032,-0.064,0.056,0.008,0.077,0.384,0.209,0.167,0.075,0.051
0.131,0.077,-0.054,-0.104,0.092,0.011,0.046,0.389,0.225,0.192,0.095,0.07
0.185,0.108,-0.078,-0.146,0.131,0.015,0.021,0.388,0.238,0.21,0.121,0.099
0.229,0.122,-0.107,-0.176,0.168,0.008,-0.001,0.375,0.228,0.212,0.142,0.125
0.269,0.142,-0.128,-0.205,0.198,0.007,-0.025,0.335,0.193,0.2,0.153,0.14
0.282,0.148,-0.134,-0.215,0.208,0.007,-0.04,0.275,0.164,0.194,0.165,0.154
0.265,0.139,-0.127,-0.202,0.196,0.006,-0.034,0.228,0.118,0.186,0.157,0.144
0.219,0.135,-0.084,-0.177,0.151,0.025,-0.024,0.172,0.082,0.162,0.141,0.13
0.162,0.128,-0.034,-0.145,0.098,0.046,-0.017,0.102,0.037,0.123,0.124,0.115
0.111,0.115,0.004,-0.113,0.054,0.059,0.003,0.054,-0.008,0.086,0.1,0.084
0.069,0.097,0.028,-0.083,0.02,0.062,0.027,0.025,-0.042,0.057,0.077,0.065
0.04,0.083,0.043,-0.062,-0.002,0.063,0.032,0.002,-0.061,0.037,0.057,0.054
0.025,0.072,0.047,-0.049,-0.011,0.059,0.035,-0.014,-0.041,0.022,0.04,0.041
0.016,0.06,0.045,-0.039,-0.015,0.052,0.045,-0.03,-0.064,0.008,0.026,0.03
0.005,0.05,0.045,-0.028,-0.02,0.047,0.046,-0.039,-0.092,0.0,0.016,0.017
-0.003,0.042,0.045,-0.02,-0.024,0.043,0.041,-0.04,-0.094,-0.005,0.009,0.008
-0.007,0.038,0.045,-0.016,-0.026,0.041,0.039,-0.04,-0.11,-0.01,0.002,0.001
-0.013,0.032,0.045,-0.01,-0.029,0.039,0.035,-0.04,-0.103,-0.013,-0.004,-0.006
-0.024,0.026,0.05,-0.001,-0.037,0.038,0.03,-0.04,-0.095,-0.019,-0.011,-0.014
-0.028,0.021,0.049,0.004,-0.039,0.035,0.032,-0.041,-0.09,-0.018,-0.014,-0.021
-0.029,0.024,0.053,0.002,-0.041,0.039,0.035,-0.035,-0.047,-0.014,-0.01,-0.023
-0.018,0.035,0.053,-0.009,-0.036,0.044,0.035,-0.027,-0.034,-0.016,-0.01,-0.018
-0.023,0.042,0.065,-0.01,-0.044,0.053,0.038,-0.021,-0.048,-0.011,-0.01,-0.015
-0.027,0.049,0.077,-0.011,-0.052,0.063,0.041,-0.014,-0.055,-0.01,-0.01,-0.012
-0.018,0.055,0.074,-0.019,-0.046,0.064,0.039,-0.006,-0.082,-0.01,-0.01,-0.007
-0.03,0.062,0.092,-0.016,-0.061,0.077,0.036,0.007,-0.086,-0.005,-0.007,-0.004
-0.033,0.069,0.103,-0.018,-0.068,0.086,0.035,0.017,-0.087,0.0,-0.002,0.0
-0.041,0.07,0.112,-0.015,-0.076,0.09,0.035,0.035,-0.091,0.004,0.001,0.0
-0.044,0.073,0.117,-0.015,-0.08,0.095,0.035,0.039,-0.092,0.009,0.004,0.001
-0.038,0.076,0.114,-0.02,-0.077,0.095,0.035,0.018,-0.109,0.014,0.009,0.005
-0.049,0.072,0.121,-0.012,-0.085,0.096,0.038,0.011,-0.111,0.013,0.009,0.005
-0.049,0.07,0.119,-0.01,-0.084,0.095,0.04,0.007,-0.109,0.007,0.004,0.003
-0.052,0.07,0.122,-0.009,-0.087,0.096,0.04,0.0,-0.114,0.003,-0.001,0.0
-0.058,0.067,0.125,-0.005,-0.092,0.096,0.04,-0.005,-0.12,-0.001,-0.005,0.0
-0.063,0.064,0.127,-0.001,-0.096,0.096,0.04,-0.01,-0.116,-0.006,-0.01,0.0
-0.065,0.065,0.131,0.0,-0.098,0.097,0.04,-0.016,-0.111,-0.01,-0.015,0.0
-0.058,0.075,0.133,-0.009,-0.096,0.104,0.035,-0.025,-0.108,-0.017,-0.019,-0.001
-0.06,0.076,0.136,-0.009,-0.098,0.106,0.035,-0.033,-0.097,-0.025,-0.02,-0.004
-0.061,0.069,0.13,-0.004,-0.096,0.1,0.035,-0.038,-0.088,-0.033,-0.02,-0.007
-0.059,0.066,0.125,-0.004,-0.093,0.096,0.035,-0.046,-0.09,-0.041,-0.02,-0.01
-0.058,0.061,0.119,-0.002,-0.089,0.09,0.034,-0.058,-0.098,-0.043,-0.02,-0.013
-0.057,0.057,0.114,0.0,-0.086,0.085,0.038,-0.067,-0.103,-0.039,-0.019,-0.015
-0.057,0.052,0.109,0.002,-0.083,0.08,0.047,-0.065,-0.106,-0.037,-0.015,-0.015
-0.056,0.046,0.102,0.005,-0.079,0.074,0.046,-0.061,-0.105,-0.034,-0.016,-0.015
-0.057,0.039,0.096,0.009,-0.077,0.067,0.045,-0.059,-0.104,-0.031,-0.012,-0.015
-0.055,0.033,0.088,0.011,-0.072,0.06,0.044,-0.055,-0.118,-0.029,-0.01,-0.015
-0.059,0.025,0.084,0.016,-0.072,0.055,0.04,-0.055,-0.127,-0.026,-0.01,-0.015
-0.052,0.02,0.073,0.016,-0.063,0.046,0.039,-0.048,-0.124,-0.021,-0.007,-0.015
-0.06,0.02,0.08,0.019,-0.07,0.049,0.048,-0.037,-0.125,-0.019,-0.004,-0.01
-0.077,0.02,0.096,0.028,-0.086,0.058,0.057,-0.029,-0.127,-0.015,-0.001,-0.006
-0.075,0.02,0.095,0.027,-0.085,0.057,0.052,-0.021,-0.115,-0.01,0.002,-0.004
-0.086,0.019,0.105,0.033,-0.096,0.062,0.05,-0.002,-0.073,-0.012,0.005,0.001
-0.072,0.023,0.095,0.025,-0.084,0.059,0.047,0.034,-0.019,-0.016,0.006,0.004
-0.049,0.025,0.074,0.012,-0.062,0.049,0.044,0.03,0.015,-0.015,0.01,0.007
-0.049,0.025,0.074,0.012,-0.062,0.049,0.05,0.013,0.032,-0.016,0.012,0.01
-0.036,0.025,0.061,0.005,-0.049,0.042,0.05,-0.009,0.019,-0.015,0.015,0.013
-0.049,0.025,0.074,0.012,-0.062,0.049,0.053,-0.04,-0.005,-0.015,0.019,0.016
-0.066,0.036,0.102,0.015,-0.084,0.069,0.055,-0.031,-0.002,-0.004,0.02,0.02
-0.033,0.055,0.088,-0.011,-0.061,0.072,0.055,-0.023,0.017,0.022,0.025,0.02
-0.031,0.061,0.092,-0.015,-0.061,0.076,0.066,0.006,0.058,0.041,0.033,0.03
-0.009,0.061,0.07,-0.026,-0.039,0.065,0.062,0.04,0.077,0.063,0.052,0.047
0.057,0.083,0.026,-0.07,0.015,0.055,0.047,0.047,0.078,0.067,0.05,0.04
0.029,0.065,0.036,-0.047,-0.004,0.05,0.039,0.01,0.062,0.039,0.02,0.024
-0.019,0.026,0.045,-0.004,-0.032,0.035,0.026,-0.055,0.019,0.01,0.006,0.013
0.001,0.021,0.021,-0.011,-0.01,0.021,0.019,-0.077,-0.008,-0.022,-0.012,-0.008
0.034,0.019,-0.014,-0.026,0.024,0.002,0.006,-0.093,-0.047,-0.047,-0.027,-0.026
0.0,0.003,0.003,-0.002,-0.001,0.003,-0.001,-0.074,-0.057,-0.042,-0.03,-0.044
-0.037,0.023,0.06,0.007,-0.049,0.041,0.016,-0.082,-0.069,-0.045,-0.023,-0.038
-0.042,0.038,0.08,0.001,-0.061,0.059,0.044,-0.056,-0.045,-0.032,-0.014,-0.041
-0.065,0.028,0.092,0.018,-0.079,0.06,0.038,-0.065,-0.057,-0.039,-0.013,-0.038
-0.071,0.017,0.089,0.027,-0.08,0.053,0.037,-0.04,-0.039,-0.025,0.004,-0.03
-0.083,0.018,0.102,0.032,-0.092,0.06,0.06,-0.004,-0.024,-0.024,-0.01,-0.044
-0.2,0.1,0.301,0.05,-0.251,0.2,0.154,0.079,0.104,0.138,0.131,0.074
0.05,0.284,0.234,-0.168,-0.092,0.259,0.112,0.325,0.522,0.645,0.693,0.537
0.954,0.722,-0.232,-0.838,0.593,0.245,-0.47,-0.213,0.325,0.982,1.43,1.362
1.644,0.681,-0.963,-1.162,1.304,-0.141,-0.915,-0.812,-0.322,0.444,0.968,1.131
1.491,0.001,-1.49,-0.745,1.491,-0.745,-0.859,-1.002,-1.003,-0.803,-0.531,-0.167
0.546,-0.254,-0.8,-0.146,0.673,-0.526,-0.512,-1.041,-1.174,-1.113,-0.881,-0.547
-0.093,-0.168,-0.075,0.131,-0.009,-0.121,-0.097,-0.451,-0.524,-0.5,-0.406,-0.301
-0.052,-0.067,-0.016,0.059,-0.017,-0.041,-0.016,-0.082,-0.157,-0.181,-0.168,-0.142
-0.089,-0.002,0.087,0.045,-0.088,0.043,0.04,-0.01,-0.066,-0.049,-0.068,-0.062
-0.076,0.021,0.098,0.027,-0.087,0.059,0.081,0.038,-0.03,-0.028,-0.071,-0.081
-0.073,0.027,0.101,0.023,-0.087,0.064,0.061,0.026,-0.037,-0.022,-0.044,-0.054
-0.103,-0.003,0.1,0.053,-0.102,0.048,0.077,0.066,-0.018,-0.011,-0.036,-0.061
-0.096,0.009,0.104,0.043,-0.101,0.056,0.065,0.06,-0.025,-0.015,-0.03,-0.053
-0.118,0.006,0.124,0.056,-0.121,0.064,0.074,0.068,-0.009,-0.002,-0.029,-0.05
-0.097,0.011,0.108,0.043,-0.102,0.059,0.064,0.064,-0.011,-0.005,-0.03,-0.048
-0.101,0.01,0.111,0.046,-0.106,0.06,0.066,0.069,0.037,0.005,-0.022,-0.041
-0.096,0.003,0.099,0.046,-0.098,0.051,0.065,0.085,0.063,0.004,-0.027,-0.042
-0.09,0.007,0.097,0.041,-0.094,0.052,0.065,0.093,0.056,0.01,-0.02,-0.039
-0.09,0.001,0.091,0.045,-0.091,0.046,0.065,0.111,0.052,0.013,-0.017,-0.039
-0.085,0.001,0.086,0.041,-0.085,0.043,0.066,0.133,0.053,0.014,-0.011,-0.034
-0.085,-0.002,0.083,0.043,-0.084,0.04,0.078,0.133,0.086,0.032,-0.008,-0.036
-0.069,0.008,0.077,0.03,-0.073,0.042,0.081,0.133,0.111,0.05,-0.003,-0.032
-0.051,0.023,0.074,0.013,-0.063,0.049,0.081,0.159,0.119,0.057,0.001,-0.026
-0.059,0.007,0.065,0.026,-0.062,0.036,0.073,0.184,0.129,0.072,0.006,-0.022
-0.045,0.01,0.055,0.018,-0.05,0.032,0.064,0.211,0.164,0.094,0.013,-0.017
-0.008,0.039,0.047,-0.016,-0.028,0.042,0.056,0.265,0.223,0.116,0.018,-0.013
0.03,0.051,0.022,-0.041,0.004,0.036,0.046,0.324,0.254,0.14,0.034,-0.008
0.094,0.07,-0.024,-0.082,0.059,0.023,0.034,0.362,0.262,0.169,0.054,0.006
0.147,0.089,-0.058,-0.117,0.102,0.015,0.021,0.376,0.272,0.19,0.077,0.033
0.171,0.081,-0.09,-0.126,0.13,-0.005,0.003,0.373,0.281,0.207,0.094,0.053
0.236,0.1,-0.136,-0.168,0.186,-0.018,-0.022,0.377,0.29,0.221,0.115,0.082
0.276,0.135,-0.141,-0.205,0.208,-0.003,-0.054,0.365,0.28,0.218,0.138,0.119
0.259,0.132,-0.127,-0.196,0.193,0.002,-0.073,0.318,0.245,0.211,0.135,0.124
0.251,0.127,-0.124,-0.189,0.187,0.001,-0.069,0.267,0.196,0.197,0.127,0.116
0.206,0.123,-0.083,-0.164,0.144,0.02,-0.072,0.206,0.149,0.167,0.122,0.109
0.158,0.117,-0.041,-0.138,0.1,0.038,-0.057,0.146,0.097,0.129,0.112,0.103
0.114,0.093,-0.021,-0.103,0.067,0.036,-0.023,0.106,0.045,0.097,0.093,0.089
0.046,0.068,0.022,-0.058,0.012,0.045,-0.013,0.064,0.002,0.078,0.072,0.067
0.01,0.061,0.052,-0.036,-0.021,0.056,-0.01,0.026,-0.021,0.057,0.053,0.055
0.002,0.048,0.047,-0.025,-0.023,0.047,-0.004,0.02,-0.016,0.042,0.036,0.045
-0.008,0.037,0.045,-0.015,-0.027,0.041,-0.002,0.032,-0.026,0.033,0.026,0.035
-0.021,0.019,0.04,0.001,-0.031,0.029,0.012,0.032,-0.037,0.025,0.019,0.027
-0.012,0.025,0.037,-0.007,-0.025,0.031,0.03,0.03,-0.053,0.016,0.013,0.019
0.006,0.039,0.033,-0.023,-0.014,0.036,0.03,0.026,-0.063,0.01,0.003,0.01
-0.003,0.027,0.03,-0.012,-0.016,0.028,0.03,0.024,-0.055,0.01,-0.009,0.001
-0.032,0.017,0.049,0.007,-0.041,0.033,0.028,0.021,-0.055,0.009,-0.02,-0.007
-0.048,0.008,0.056,0.02,-0.052,0.032,0.024,0.019,-0.05,0.005,-0.022,-0.017
-0.046,0.002,0.048,0.022,-0.048,0.025,0.026,0.036,-0.05,0.005,-0.019,-0.017
-0.05,-0.002,0.048,0.026,-0.049,0.023,0.027,0.041,-0.056,0.007,-0.016,-0.014
-0.048,-0.007,0.042,0.027,-0.045,0.017,0.039,0.036,-0.051,0.012,-0.013,-0.011
-0.051,-0.011,0.039,0.031,-0.045,0.014,0.046,0.034,-0.046,0.018,-0.011,-0.008
-0.073,-0.015,0.058,0.043,-0.065,0.021,0.045,0.03,-0.041,0.021,-0.008,-0.006
-0.078,-0.011,0.067,0.044,-0.073,0.028,0.044,0.029,-0.034,0.027,-0.005,-0.004
-0.071,-0.008,0.064,0.039,-0.067,0.028,0.041,0.024,-0.031,0.03,-0.002,0.0
-0.073,-0.007,0.066,0.039,-0.069,0.03,0.039,0.017,-0.024,0.025,0.0,0.004
-0.065,0.0,0.064,0.032,-0.064,0.032,0.042,0.011,-0.026,0.025,0.004,0.007
-0.069,-0.003,0.066,0.036,-0.068,0.031,0.045,0.004,-0.021,0.025,0.005,0.012
-0.057,0.013,0.071,0.022,-0.064,0.042,0.045,-0.003,-0.009,0.025,0.002,0.015
-0.036,0.034,0.069,0.001,-0.053,0.051,0.047,-0.002,0.001,0.026,-0.003,0.012
-0.058,0.012,0.07,0.023,-0.065,0.041,0.05,0.006,0.047,0.022,-0.006,0.006
-0.067,0.003,0.069,0.032,-0.069,0.036,0.05,0.013,0.039,0.013,-0.009,0.002
-0.071,0.0,0.071,0.036,-0.071,0.035,0.046,0.019,-0.006,0.002,-0.014,-0.003
-0.075,-0.006,0.069,0.041,-0.071,0.031,0.039,0.014,-0.006,-0.008,-0.016,-0.007
-0.072,-0.009,0.063,0.04,-0.068,0.027,0.032,0.001,-0.035,-0.016,-0.021,-0.012
-0.076,-0.015,0.06,0.046,-0.068,0.022,0.027,-0.011,-0.076,-0.025,-0.026,-0.015
-0.067,-0.015,0.053,0.041,-0.059,0.019,0.018,-0.009,-0.088,-0.033,-0.029,-0.015
-0.085,-0.015,0.07,0.05,-0.077,0.027,0.016,0.004,-0.094,-0.042,-0.034,-0.015
-0.101,-0.015,0.086,0.058,-0.093,0.035,0.021,0.006,-0.09,-0.046,-0.035,-0.015
-0.09,-0.015,0.075,0.052,-0.082,0.03,0.024,-0.01,-0.085,-0.044,-0.035,-0.015
-0.084,-0.015,0.069,0.05,-0.076,0.026,0.045,-0.026,-0.079,-0.046,-0.035,-0.011
-0.077,-0.013,0.064,0.045,-0.07,0.025,0.058,-0.026,-0.075,-0.044,-0.035,-0.01
-0.063,-0.01,0.053,0.036,-0.058,0.021,0.057,-0.022,-0.067,-0.05,-0.034,-0.01
-0.072,-0.01,0.062,0.04,-0.067,0.026,0.062,-0.019,-0.069,-0.061,-0.03,-0.006
-0.092,-0.01,0.081,0.051,-0.087,0.036,0.064,-0.015,-0.093,-0.057,-0.027,-0.005
-0.089,-0.01,0.08,0.049,-0.085,0.035,0.065,-0.017,-0.095,-0.054,-0.025,-0.006
-0.094,-0.011,0.083,0.052,-0.088,0.036,0.061,-0.02,-0.089,-0.051,-0.021,-0.015
-0.098,-0.006,0.092,0.052,-0.095,0.043,0.056,-0.02,-0.088,-0.046,-0.021,-0.018
-0.094,0.0,0.094,0.047,-0.094,0.047,0.057,-0.013,-0.084,-0.044,-0.019,-0.012
-0.091,0.005,0.096,0.042,-0.094,0.051,0.061,-0.005,-0.082,-0.038,-0.026,-0.01
-0.088,0.011,0.1,0.038,-0.094,0.055,0.06,0.004,-0.079,-0.033,-0.031,-0.005
-0.085,0.016,0.101,0.034,-0.093,0.058,0.064,0.01,-0.074,-0.027,-0.018,-0.001
-0.068,0.029,0.097,0.019,-0.082,0.063,0.066,0.021,-0.056,-0.021,-0.006,0.001
-0.063,0.031,0.094,0.015,-0.079,0.063,0.064,0.029,-0.047,-0.016,0.008,0.01
-0.072,0.021,0.094,0.025,-0.083,0.057,0.059,0.031,-0.037,-0.009,0.022,0.019
-0.034,0.014,0.049,0.01,-0.042,0.031,0.047,0.057,-0.041,0.004,0.032,0.031
-0.012,0.006,0.018,0.002,-0.015,0.012,0.041,0.073,-0.031,0.013,0.025,0.028
-0.044,-0.001,0.043,0.023,-0.043,0.02,0.029,0.037,-0.036,-0.017,0.001,0.013
-0.029,-0.011,0.018,0.02,-0.023,0.003,0.023,-0.001,-0.081,-0.042,-0.01,0.0
-0.004,-0.025,-0.02,0.014,0.008,-0.022,0.02,-0.037,-0.136,-0.063,-0.036,-0.01
-0.011,-0.034,-0.023,0.023,0.006,-0.028,0.018,-0.065,-0.165,-0.072,-0.045,-0.015
-0.047,-0.039,0.008,0.043,-0.027,-0.015,0.023,-0.059,-0.154,-0.068,-0.045,-0.024
-0.109,-0.027,0.082,0.067,-0.096,0.028,0.009,-0.08,-0.142,-0.073,-0.046,-0.024
-0.124,-0.028,0.096,0.076,-0.109,0.034,0.015,-0.058,-0.093,-0.057,-0.042,-0.043
-0.119,-0.017,0.102,0.068,-0.11,0.042,-0.006,-0.098,-0.135,-0.075,-0.052,-0.037
-0.116,-0.015,0.101,0.065,-0.108,0.043,0.013,-0.041,-0.057,-0.05,-0.027,-0.042
-0.163,-0.005,0.158,0.084,-0.16,0.076,0.057,0.001,-0.026,-0.033,-0.001,-0.03
-0.221,0.092,0.313,0.064,-0.267,0.202,0.158,0.199,0.246,0.275,0.267,0.181
0.28,0.362,0.082,-0.321,0.099,0.222,-0.02,0.369,0.665,0.835,0.992,0.841
1.201,0.74,-0.461,-0.97,0.831,0.139,-0.666,-0.32,0.212,0.935,1.498,1.527
1.625,0.47,-1.155,-1.048,1.39,-0.343,-0.931,-0.805,-0.496,0.133,0.595,0.828
1.115,-0.138,-1.252,-0.488,1.184,-0.695,-0.745,-0.944,-1.092,-0.973,-0.722,-0.348
0.157,-0.253,-0.41,0.048,0.284,-0.331,-0.338,-0.821,-1.013,-0.951,-0.738,-0.47
-0.162,-0.193,-0.03,0.178,-0.066,-0.111,-0.04,-0.298,-0.415,-0.416,-0.34,-0.272
-0.08,-0.109,-0.029,0.095,-0.025,-0.069,-0.024,-0.061,-0.181,-0.195,-0.161,-0.138
-0.118,-0.065,0.053,0.091,-0.085,-0.006,0.044,0.064,-0.064,-0.069,-0.071,-0.082
-0.123,-0.069,0.055,0.096,-0.089,-0.007,0.057,0.077,-0.058,-0.066,-0.083,-0.089
-0.137,-0.047,0.089,0.092,-0.113,0.02,0.064,0.071,-0.049,-0.042,-0.061,-0.072
-0.122,-0.046,0.076,0.084,-0.099,0.015,0.068,0.079,-0.044,-0.047,-0.071,-0.081
-0.111,-0.03,0.081,0.07,-0.095,0.025,0.061,0.065,-0.047,-0.043,-0.061,-0.069
-0.114,-0.024,0.09,0.069,-0.102,0.033,0.069,0.072,-0.036,-0.035,-0.06,-0.072
-0.13,-0.028,0.103,0.079,-0.116,0.037,0.062,0.08,-0.042,-0.037,-0.06,-0.067
-0.13,-0.03,0.1,0.08,-0.115,0.035,0.068,0.112,-0.033,-0.027,-0.053,-0.064
-0.121,-0.033,0.089,0.077,-0.105,0.028,0.069,0.113,-0.03,-0.031,-0.052,-0.062
-0.12,-0.035,0.085,0.077,-0.102,0.025,0.076,0.113,-0.037,-0.021,-0.046,-0.058
-0.111,-0.036,0.074,0.073,-0.092,0.019,0.071,0.12,-0.051,-0.023,-0.044,-0.057
-0.11,-0.041,0.07,0.075,-0.09,0.015,0.07,0.138,-0.049,-0.013,-0.04,-0.054
-0.093,-0.039,0.054,0.065,-0.073,0.007,0.07,0.145,-0.052,0.011,-0.035,-0.051
-0.086,-0.049,0.038,0.067,-0.062,-0.005,0.065,0.146,0.012,0.027,-0.026,-0.046
-0.078,-0.053,0.025,0.065,-0.051,-0.014,0.065,0.161,0.082,0.039,-0.018,-0.045
-0.06,-0.042,0.018,0.051,-0.039,-0.012,0.064,0.198,0.118,0.054,-0.009,-0.039
-0.047,-0.036,0.011,0.041,-0.029,-0.012,0.053,0.224,0.181,0.076,-0.001,-0.037
-0.031,-0.027,0.004,0.029,-0.017,-0.011,0.042,0.258,0.242,0.101,0.017,-0.028
0.009,-0.021,-0.03,0.006,0.02,-0.025,0.03,0.309,0.262,0.13,0.044,-0.008
0.063,-0.009,-0.072,-0.027,0.068,-0.04,0.013,0.338,0.259,0.147,0.068,0.018
0.098,0.002,-0.096,-0.049,0.097,-0.047,-0.013,0.35,0.273,0.168,0.082,0.037
0.166,0.026,-0.14,-0.096,0.153,-0.057,-0.044,0.361,0.313,0.19,0.099,0.059
0.227,0.061,-0.166,-0.144,0.196,-0.052,-0.068,0.361,0.34,0.187,0.118,0.09
0.225,0.073,-0.151,-0.149,0.188,-0.039,-0.097,0.329,0.299,0.181,0.126,0.104
0.227,0.079,-0.148,-0.153,0.188,-0.035,-0.108,0.29,0.254,0.179,0.125,0.116
0.202,0.076,-0.126,-0.139,0.163,-0.024,-0.093,0.23,0.204,0.171,0.121,0.118
0.135,0.063,-0.072,-0.099,0.103,-0.004,-0.08,0.163,0.128,0.137,0.12,0.109
0.082,0.034,-0.047,-0.058,0.064,-0.006,-0.057,0.117,0.08,0.094,0.102,0.094
0.02,0.01,-0.01,-0.014,0.015,0.0,-0.04,0.059,0.044,0.058,0.069,0.063
-0.014,0.011,0.025,0.001,-0.019,0.017,-0.029,0.025,0.005,0.031,0.036,0.031
-0.029,0.008,0.036,0.01,-0.032,0.022,-0.017,0.025,-0.03,0.015,0.016,0.011
-0.065,-0.013,0.052,0.038,-0.058,0.019,-0.013,0.02,-0.043,0.006,0.009,0.003
-0.076,-0.029,0.047,0.052,-0.061,0.008,-0.007,0.02,-0.052,-0.002,0.0,-0.005
-0.067,-0.03,0.038,0.048,-0.053,0.004,-0.004,0.013,-0.078,-0.011,-0.009,-0.015
-0.065,-0.032,0.032,0.048,-0.048,0.0,0.001,0.024,-0.09,-0.017,-0.02,-0.023
-0.058,-0.035,0.023,0.046,-0.04,-0.006,0.005,0.041,-0.072,-0.022,-0.032,-0.033
-0.053,-0.036,0.017,0.044,-0.035,-0.009,0.01,0.02,-0.042,-0.028,-0.042,-0.042
-0.076,-0.037,0.039,0.056,-0.057,0.0,0.013,0.012,-0.02,-0.033,-0.041,-0.041
-0.082,-0.034,0.048,0.057,-0.064,0.007,0.017,0.017,-0.037,-0.04,-0.04,-0.036
-0.071,-0.031,0.039,0.051,-0.055,0.004,0.021,0.017,-0.058,-0.035,-0.039,-0.034
-0.068,-0.028,0.04,0.048,-0.054,0.006,0.024,0.042,-0.052,-0.026,-0.035,-0.029
-0.058,-0.025,0.032,0.041,-0.045,0.003,0.028,0.055,-0.071,-0.018,-0.035,-0.026
-0.073,-0.023,0.049,0.048,-0.061,0.013,0.029,0.059,-0.089,-0.008,-0.033,-0.023
-0.091,-0.02,0.071,0.055,-0.081,0.025,0.043,0.077,-0.07,-0.005,-0.029,-0.017
-0.085,-0.02,0.065,0.052,-0.075,0.022,0.05,0.076,-0.066,-0.003,-0.027,-0.013
-0.08,-0.02,0.06,0.05,-0.07,0.02,0.042,0.062,-0.054,0.0,-0.024,-0.008
-0.078,-0.02,0.058,0.049,-0.068,0.019,0.038,0.044,-0.007,0.003,-0.021,-0.004
-0.069,-0.02,0.049,0.044,-0.059,0.014,0.031,0.027,0.015,0.006,-0.019,0.001
-0.077,-0.024,0.054,0.05,-0.065,0.015,0.027,0.02,0.021,0.001,-0.016,0.004
-0.094,-0.025,0.069,0.059,-0.081,0.021,0.021,-0.001,0.018,-0.001,-0.015,0.006
-0.089,-0.025,0.064,0.057,-0.076,0.019,0.02,-0.001,0.01,0.0,-0.015,0.01
-0.084,-0.03,0.054,0.057,-0.069,0.012,0.019,0.025,-0.013,-0.005,-0.016,0.008
-0.081,-0.03,0.051,0.055,-0.066,0.01,0.016,0.019,-0.052,-0.004,-0.014,0.004
-0.071,-0.031,0.04,0.051,-0.055,0.004,0.014,0.009,-0.081,-0.007,-0.02,0.005
-0.078,-0.035,0.042,0.056,-0.059,0.003,0.017,0.002,-0.076,-0.031,-0.031,0.005
-0.094,-0.034,0.06,0.064,-0.077,0.012,0.029,-0.01,-0.044,-0.041,-0.03,0.005
-0.095,-0.038,0.057,0.066,-0.076,0.009,0.03,-0.02,-0.045,-0.042,-0.03,0.005
-0.093,-0.04,0.053,0.066,-0.073,0.006,0.023,-0.034,-0.046,-0.046,-0.03,0.005
-0.09,-0.04,0.05,0.065,-0.07,0.005,0.02,-0.037,-0.047,-0.048,-0.03,0.005
-0.087,-0.043,0.044,0.065,-0.065,0.001,0.015,-0.035,-0.052,-0.051,-0.03,0.005
-0.096,-0.048,0.048,0.072,-0.072,0.0,0.009,-0.035,-0.048,-0.046,-0.03,0.005
-0.098,-0.049,0.05,0.074,-0.074,0.0,0.027,-0.035,-0.047,-0.044,-0.03,0.005
-0.096,-0.045,0.051,0.071,-0.073,0.003,0.042,-0.035,-0.041,-0.041,-0.029,0.002
-0.098,-0.042,0.055,0.069,-0.076,0.006,0.039,-0.035,-0.041,-0.039,-0.031,0.0
-0.094,-0.04,0.055,0.067,-0.075,0.007,0.04,-0.041,-0.034,-0.034,-0.028,0.0
-0.087,-0.036,0.05,0.062,-0.068,0.006,0.04,-0.047,-0.039,-0.038,-0.035,0.0
-0.085,-0.034,0.05,0.06,-0.067,0.007,0.04,-0.052,-0.051,-0.046,-0.046,0.0
-0.088,-0.039,0.049,0.063,-0.068,0.005,0.037,-0.055,-0.05,-0.044,-0.041,0.0
-0.085,-0.04,0.045,0.062,-0.065,0.002,0.031,-0.049,-0.05,-0.045,-0.039,0.004
-0.085,-0.04,0.045,0.062,-0.065,0.002,0.026,-0.044,-0.05,-0.045,-0.035,0.005
-0.088,-0.04,0.047,0.064,-0.068,0.003,0.023,-0.039,-0.051,-0.045,-0.031,0.004
-0.098,-0.04,0.058,0.069,-0.078,0.008,0.017,-0.032,-0.043,-0.043,-0.028,0.005
-0.103,-0.039,0.064,0.071,-0.084,0.013,0.017,-0.027,-0.02,-0.035,-0.02,0.004
-0.09,-0.03,0.059,0.06,-0.074,0.014,0.038,-0.019,0.005,-0.03,-0.015,0.009
-0.074,-0.02,0.054,0.047,-0.064,0.017,0.046,0.007,0.01,-0.018,-0.006,0.023
-0.057,-0.009,0.047,0.033,-0.052,0.019,0.04,0.027,0.04,0.0,-0.002,0.038
-0.051,-0.009,0.042,0.029,-0.046,0.017,0.032,0.039,0.089,0.012,0.013,0.042
-0.048,-0.015,0.032,0.031,-0.04,0.008,0.024,0.058,0.08,0.029,0.024,0.03
-0.046,-0.024,0.022,0.035,-0.034,-0.001,0.017,0.019,-0.013,0.001,-0.002,0.018
-0.04,-0.027,0.013,0.033,-0.026,-0.007,0.008,-0.042,-0.099,-0.035,-0.022,0.008
-0.041,-0.043,-0.002,0.042,-0.019,-0.022,0.005,-0.067,-0.099,-0.055,-0.042,-0.002
-0.04,-0.054,-0.014,0.048,-0.012,-0.034,-0.003,-0.101,-0.088,-0.084,-0.056,0.002
-0.026,-0.057,-0.031,0.041,0.003,-0.044,-0.003,-0.1,-0.048,-0.077,-0.056,-0.003
-0.062,-0.053,0.01,0.057,-0.035,-0.021,0.006,-0.114,-0.045,-0.085,-0.056,-0.004
-0.097,-0.05,0.047,0.073,-0.072,-0.001,0.031,-0.068,-0.021,-0.071,-0.052,-0.005
-0.076,-0.051,0.025,0.063,-0.05,-0.013,0.011,-0.091,-0.031,-0.081,-0.054,-0.009
-0.08,-0.045,0.035,0.062,-0.058,-0.004,0.009,-0.101,-0.008,-0.068,-0.044,-0.011
-0.123,-0.046,0.077,0.084,-0.099,0.015,0.063,-0.052,-0.003,-0.049,-0.06,-0.026
-0.236,0.011,0.247,0.112,-0.241,0.128,0.159,-0.003,0.114,0.084,0.067,0.064
-0.001,0.203,0.204,-0.101,-0.103,0.203,0.126,0.237,0.551,0.592,0.634,0.516
0.848,0.658,-0.191,-0.753,0.519,0.233,-0.461,-0.277,0.367,0.971,1.452,1.411
1.535,0.662,-0.874,-1.098,1.204,-0.106,-0.923,-0.896,-0.255,0.497,1.087,1.286
1.43,-0.009,-1.439,-0.71,1.434,-0.723,-0.875,-1.047,-0.941,-0.733,-0.414,-0.01
0.539,-0.305,-0.843,-0.117,0.692,-0.574,-0.544,-1.095,-1.131,-1.123,-0.851,-0.479
-0.099,-0.245,-0.146,0.173,0.024,-0.195,-0.117,-0.532,-0.467,-0.536,-0.426,-0.277
-0.072,-0.169,-0.097,0.121,0.013,-0.133,-0.01,-0.146,-0.077,-0.202,-0.172,-0.124
-0.078,-0.104,-0.026,0.091,-0.026,-0.065,0.036,-0.072,0.016,-0.079,-0.068,-0.047
-0.099,-0.103,-0.004,0.101,-0.048,-0.053,0.066,-0.022,0.055,-0.056,-0.086,-0.069
-0.11,-0.09,0.02,0.1,-0.065,-0.035,0.065,-0.034,0.061,-0.048,-0.066,-0.036
-0.125,-0.092,0.033,0.108,-0.079,-0.029,0.088,-0.006,0.087,-0.035,-0.068,-0.035
-0.12,-0.084,0.036,0.102,-0.078,-0.024,0.074,-0.012,0.087,-0.037,-0.063,-0.029
-0.116,-0.08,0.036,0.098,-0.076,-0.022,0.079,0.006,0.107,-0.022,-0.055,-0.03
-0.107,-0.083,0.024,0.095,-0.065,-0.03,0.072,0.008,0.132,-0.023,-0.056,-0.032
-0.113,-0.088,0.025,0.1,-0.069,-0.031,0.069,0.016,0.148,-0.01,-0.047,-0.028
-0.102,-0.089,0.012,0.095,-0.057,-0.038,0.076,0.024,0.143,-0.008,-0.048,-0.032
-0.116,-0.085,0.031,0.1,-0.073,-0.026,0.091,0.042,0.154,0.002,-0.041,-0.025
-0.117,-0.083,0.034,0.1,-0.075,-0.024,0.09,0.053,0.156,0.007,-0.039,-0.025
-0.106,-0.08,0.026,0.093,-0.066,-0.026,0.089,0.051,0.154,0.013,-0.035,-0.021
-0.1,-0.076,0.024,0.088,-0.061,-0.026,0.09,0.057,0.155,0.033,-0.031,-0.018
-0.089,-0.075,0.014,0.082,-0.051,-0.03,0.09,0.067,0.168,0.046,-0.028,-0.016
-0.085,-0.072,0.013,0.078,-0.049,-0.029,0.088,0.103,0.198,0.061,-0.023,-0.014
-0.069,-0.067,0.002,0.068,-0.035,-0.032,0.084,0.134,0.239,0.081,-0.018,-0.007
-0.057,-0.062,-0.006,0.06,-0.025,-0.034,0.081,0.181,0.266,0.103,0.006,0.002
-0.031,-0.057,-0.026,0.045,-0.003,-0.042,0.077,0.251,0.293,0.135,0.041,0.012
0.001,-0.053,-0.054,0.027,0.028,-0.053,0.075,0.29,0.342,0.16,0.054,0.032
0.028,-0.039,-0.067,0.005,0.048,-0.053,0.058,0.32,0.383,0.182,0.067,0.055
0.085,-0.021,-0.106,-0.032,0.096,-0.064,0.03,0.343,0.432,0.211,0.1,0.077
0.141,-0.004,-0.145,-0.068,0.144,-0.074,0.004,0.343,0.466,0.225,0.126,0.101
0.204,0.018,-0.186,-0.111,0.194,-0.084,-0.028,0.32,0.435,0.219,0.137,0.123
0.239,0.037,-0.202,-0.138,0.22,-0.082,-0.057,0.285,0.399,0.212,0.152,0.149
0.24,0.051,-0.188,-0.145,0.214,-0.068,-0.063,0.245,0.388,0.208,0.153,0.161
0.231,0.049,-0.182,-0.14,0.207,-0.066,-0.072,0.186,0.351,0.199,0.145,0.15
0.175,0.037,-0.138,-0.106,0.156,-0.051,-0.071,0.118,0.296,0.174,0.141,0.138
0.11,0.026,-0.084,-0.068,0.097,-0.029,-0.043,0.059,0.234,0.136,0.121,0.127
0.075,0.014,-0.06,-0.044,0.067,-0.023,-0.029,0.021,0.159,0.095,0.09,0.108
0.039,0.003,-0.036,-0.021,0.037,-0.017,-0.018,-0.027,0.103,0.061,0.067,0.087
-0.003,-0.01,-0.007,0.006,0.002,-0.008,-0.008,-0.064,0.071,0.037,0.047,0.067
-0.035,-0.02,0.015,0.027,-0.024,-0.002,-0.004,-0.082,0.058,0.022,0.032,0.052
-0.044,-0.03,0.014,0.037,-0.029,-0.008,0.002,-0.116,0.054,0.012,0.023,0.046
-0.046,-0.04,0.007,0.043,-0.026,-0.016,0.007,-0.115,0.051,0.004,0.012,0.039
-0.053,-0.05,0.003,0.052,-0.028,-0.024,0.013,-0.102,0.046,-0.005,0.002,0.031
-0.051,-0.055,-0.004,0.054,-0.023,-0.03,0.018,-0.081,0.044,-0.014,-0.005,0.024
-0.046,-0.055,-0.009,0.051,-0.018,-0.031,0.024,-0.055,0.039,-0.01,-0.009,0.017
-0.048,-0.055,-0.007,0.052,-0.02,-0.031,0.029,-0.056,0.036,-0.005,-0.014,0.015
-0.054,-0.055,-0.001,0.055,-0.026,-0.028,0.034,-0.055,0.029,-0.001,-0.015,0.015
-0.063,-0.06,0.003,0.061,-0.033,-0.028,0.04,-0.055,-0.001,0.004,-0.015,0.011
-0.068,-0.061,0.008,0.064,-0.038,-0.026,0.045,-0.056,0.008,0.008,-0.015,0.009
-0.072,-0.06,0.012,0.066,-0.042,-0.024,0.044,-0.054,0.052,0.013,-0.015,0.01
-0.075,-0.058,0.017,0.066,-0.045,-0.02,0.054,-0.051,0.061,0.017,-0.015,0.015
-0.074,-0.054,0.02,0.064,-0.046,-0.017,0.059,-0.044,0.06,0.023,-0.015,0.022
-0.078,-0.055,0.023,0.066,-0.05,-0.016,0.05,-0.041,0.059,0.026,-0.011,0.026
-0.077,-0.052,0.025,0.064,-0.051,-0.013,0.044,-0.036,0.067,0.032,-0.006,0.032
-0.075,-0.046,0.029,0.06,-0.051,-0.008,0.037,-0.031,0.092,0.035,-0.004,0.038
-0.072,-0.042,0.03,0.057,-0.051,-0.006,0.031,-0.032,0.096,0.03,0.0,0.038
-0.071,-0.037,0.033,0.053,-0.052,-0.002,0.027,-0.036,0.093,0.025,0.005,0.034
-0.072,-0.033,0.039,0.052,-0.055,0.003,0.024,-0.04,0.089,0.021,0.003,0.032
-0.07,-0.028,0.042,0.049,-0.056,0.007,0.021,-0.042,0.086,0.016,-0.003,0.029
-0.072,-0.025,0.047,0.048,-0.059,0.011,0.018,-0.048,0.079,0.011,-0.007,0.026
-0.074,-0.025,0.05,0.05,-0.062,0.012,0.015,-0.058,0.057,0.007,-0.012,0.025
-0.078,-0.025,0.053,0.051,-0.065,0.014,0.015,-0.051,0.042,0.001,-0.016,0.025
-0.08,-0.025,0.055,0.052,-0.067,0.015,0.015,-0.039,0.033,-0.006,-0.021,0.025
-0.083,-0.025,0.059,0.054,-0.071,0.017,0.015,-0.031,0.022,-0.012,-0.025,0.025
-0.089,-0.029,0.06,0.059,-0.074,0.016,0.015,-0.03,0.012,-0.019,-0.028,0.025
-0.087,-0.03,0.057,0.058,-0.072,0.013,0.015,-0.03,-0.007,-0.025,-0.033,0.025
-0.084,-0.031,0.054,0.057,-0.069,0.011,0.015,-0.03,-0.038,-0.03,-0.035,0.022
-0.092,-0.04,0.051,0.066,-0.071,0.005,0.015,-0.038,-0.043,-0.03,-0.035,0.02
-0.093,-0.045,0.048,0.069,-0.07,0.001,0.015,-0.041,-0.027,-0.03,-0.035,0.02
-0.09,-0.045,0.046,0.067,-0.067,0.0,0.015,-0.039,-0.018,-0.03,-0.036,0.02
-0.089,-0.045,0.044,0.067,-0.066,-0.001,0.015,-0.037,-0.014,-0.03,-0.034,0.02
-0.083,-0.045,0.038,0.064,-0.06,-0.003,0.016,-0.034,-0.016,-0.032,-0.037,0.021
-0.077,-0.045,0.032,0.061,-0.054,-0.006,0.013,-0.036,-0.011,-0.036,-0.05,0.024
-0.072,-0.045,0.027,0.058,-0.049,-0.009,0.01,-0.039,-0.009,-0.035,-0.05,0.025
-0.067,-0.045,0.022,0.055,-0.044,-0.011,0.01,-0.04,-0.011,-0.035,-0.045,0.025
-0.06,-0.045,0.015,0.052,-0.037,-0.015,0.01,-0.041,-0.004,-0.035,-0.044,0.025
-0.068,-0.045,0.023,0.056,-0.045,-0.011,0.01,-0.045,-0.03,-0.035,-0.04,0.025
-0.083,-0.045,0.038,0.064,-0.06,-0.003,0.009,-0.045,-0.061,-0.041,-0.039,0.023
-0.08,-0.045,0.035,0.062,-0.057,-0.005,0.014,-0.043,-0.075,-0.043,-0.035,0.018
-0.08,-0.048,0.032,0.064,-0.056,-0.008,0.02,-0.04,-0.074,-0.039,-0.035,0.012
-0.093,-0.063,0.03,0.078,-0.061,-0.016,0.026,-0.039,-0.053,-0.037,-0.036,0.009
-0.09,-0.064,0.026,0.077,-0.058,-0.018,0.029,-0.035,-0.05,-0.035,-0.035,0.003
-0.082,-0.057,0.025,0.069,-0.053,-0.015,0.024,-0.034,-0.046,-0.03,-0.036,0.0
-0.076,-0.054,0.022,0.065,-0.048,-0.016,0.026,-0.052,-0.043,-0.03,-0.03,0.01
-0.063,-0.048,0.015,0.055,-0.039,-0.016,0.023,-0.039,-0.039,-0.017,-0.02,0.026
-0.056,-0.046,0.01,0.05,-0.032,-0.017,0.036,-0.007,-0.029,0.002,-0.01,0.035
-0.051,-0.049,0.002,0.05,-0.027,-0.023,0.051,0.002,-0.015,0.013,0.006,0.036
-0.058,-0.053,0.005,0.056,-0.032,-0.024,0.045,0.013,0.0,0.031,0.017,0.05
-0.053,-0.055,-0.003,0.054,-0.024,-0.028,0.041,0.023,0.014,0.043,0.034,0.064
-0.022,-0.06,-0.038,0.041,0.008,-0.049,0.038,0.042,0.044,0.036,0.029,0.054
-0.03,-0.058,-0.027,0.044,-0.001,-0.042,0.028,0.012,-0.025,0.001,-0.002,0.039
-0.031,-0.054,-0.023,0.043,-0.003,-0.038,0.008,-0.042,-0.08,-0.023,-0.022,0.028
0.002,-0.082,-0.084,0.04,0.044,-0.083,-0.024,-0.048,-0.066,-0.05,-0.041,0.021
0.0,-0.1,-0.101,0.05,0.05,-0.1,-0.035,-0.049,-0.067,-0.061,-0.039,0.019
-0.038,-0.098,-0.06,0.068,0.011,-0.079,-0.012,-0.066,-0.053,-0.058,-0.041,0.011
-0.086,-0.093,-0.006,0.09,-0.039,-0.049,-0.015,-0.089,-0.06,-0.063,-0.04,0.012
-0.078,-0.092,-0.014,0.085,-0.032,-0.053,0.006,-0.054,-0.037,-0.048,-0.039,0.002
-0.072,-0.085,-0.014,0.079,-0.029,-0.049,0.011,-0.093,-0.052,-0.066,-0.043,0.007
-0.104,-0.081,0.022,0.092,-0.062,-0.03,0.021,-0.038,-0.009,-0.034,-0.03,0.004
-0.148,-0.049,0.099,0.098,-0.123,0.025,0.081,0.006,0.014,-0.017,-0.011,0.008
-0.214,0.026,0.24,0.094,-0.227,0.132,0.204,0.208,0.287,0.275,0.254,0.196
0.305,0.298,-0.007,-0.301,0.156,0.145,-0.03,0.285,0.559,0.818,0.97,0.858
1.262,0.674,-0.588,-0.967,0.925,0.043,-0.675,-0.43,0.169,0.883,1.412,1.482
1.669,0.327,-1.342,-0.998,1.505,-0.507,-0.901,-0.878,-0.531,-0.024,0.385,0.677
1.159,-0.265,-1.425,-0.447,1.292,-0.845,-0.738,-1.057,-1.202,-1.093,-0.853,-0.438
0.197,-0.304,-0.501,0.054,0.349,-0.402,-0.318,-0.863,-1.016,-0.924,-0.727,-0.438
-0.139,-0.236,-0.097,0.188,-0.021,-0.166,-0.003,-0.268,-0.373,-0.363,-0.306,-0.219
-0.055,-0.14,-0.085,0.098,0.015,-0.112,0.01,-0.065,-0.11,-0.15,-0.139,-0.087
-0.087,-0.091,-0.004,0.089,-0.041,-0.048,0.066,0.031,-0.006,-0.042,-0.069,-0.046
-0.108,-0.126,-0.019,0.117,-0.044,-0.072,0.051,0.042,0.008,-0.055,-0.077,-0.06
-0.134,-0.105,0.028,0.119,-0.081,-0.038,0.055,0.042,0.037,-0.026,-0.057,-0.032
-0.126,-0.101,0.025,0.113,-0.076,-0.037,0.057,0.049,0.03,-0.028,-0.064,-0.041
-0.13,-0.097,0.033,0.114,-0.082,-0.032,0.052,0.049,0.056,-0.025,-0.052,-0.031
-0.125,-0.095,0.03,0.11,-0.077,-0.032,0.056,0.058,0.06,-0.022,-0.051,-0.036
-0.119,-0.092,0.027,0.105,-0.073,-0.032,0.043,0.049,0.045,-0.022,-0.05,-0.029
-0.117,-0.089,0.028,0.102,-0.072,-0.03,0.043,0.087,0.046,-0.018,-0.049,-0.03
-0.109,-0.088,0.021,0.098,-0.065,-0.033,0.035,0.093,0.033,-0.019,-0.051,-0.028
-0.115,-0.083,0.032,0.099,-0.073,-0.026,0.03,0.093,0.031,-0.007,-0.049,-0.023
-0.122,-0.082,0.04,0.102,-0.081,-0.021,0.027,0.102,0.021,-0.002,-0.051,-0.026
-0.117,-0.078,0.039,0.097,-0.078,-0.019,0.052,0.095,0.019,0.008,-0.048,-0.02
-0.11,-0.075,0.035,0.092,-0.072,-0.02,0.055,0.119,-0.005,0.014,-0.043,-0.02
-0.106,-0.074,0.032,0.09,-0.069,-0.021,0.06,0.158,0.058,0.026,-0.036,-0.02
-0.098,-0.068,0.031,0.083,-0.064,-0.018,0.077,0.165,0.134,0.047,-0.03,-0.015
-0.089,-0.061,0.027,0.075,-0.058,-0.016,0.067,0.207,0.142,0.058,-0.023,-0.011
-0.072,-0.053,0.018,0.062,-0.045,-0.017,0.062,0.248,0.18,0.072,-0.014,-0.006
-0.056,-0.049,0.007,0.052,-0.031,-0.02,0.054,0.279,0.212,0.093,-0.001,-0.002
-0.007,-0.031,-0.024,0.019,0.009,-0.027,0.048,0.326,0.239,0.119,0.011,0.006
0.069,0.002,-0.067,-0.035,0.068,-0.032,0.04,0.334,0.28,0.153,0.035,0.031
0.119,0.016,-0.104,-0.067,0.111,-0.044,0.016,0.326,0.282,0.172,0.062,0.055
0.159,0.022,-0.136,-0.09,0.147,-0.057,-0.007,0.313,0.266,0.189,0.082,0.084
0.204,0.033,-0.171,-0.119,0.188,-0.069,-0.051,0.303,0.248,0.2,0.103,0.105
0.217,0.031,-0.186,-0.124,0.201,-0.077,-0.095,0.269,0.217,0.187,0.107,0.118
0.207,0.022,-0.186,-0.115,0.196,-0.082,-0.098,0.217,0.193,0.182,0.101,0.133
0.179,0.017,-0.162,-0.097,0.17,-0.073,-0.088,0.167,0.162,0.167,0.098,0.127
0.127,0.007,-0.119,-0.067,0.123,-0.056,-0.077,0.111,0.114,0.131,0.092,0.122
0.082,0.002,-0.08,-0.041,0.081,-0.039,-0.061,0.07,0.064,0.107,0.089,0.109
0.033,-0.008,-0.041,-0.012,0.037,-0.024,-0.048,0.031,0.027,0.085,0.073,0.082
-0.011,-0.028,-0.017,0.02,0.003,-0.022,-0.038,0.006,0.009,0.062,0.049,0.065
-0.025,-0.031,-0.006,0.028,-0.009,-0.018,-0.03,0.005,0.0,0.038,0.027,0.052
-0.029,-0.03,-0.001,0.03,-0.014,-0.015,-0.022,0.005,-0.04,0.017,0.01,0.038
-0.051,-0.047,0.004,0.048,-0.027,-0.022,-0.014,0.005,-0.078,0.004,-0.003,0.023
-0.071,-0.063,0.007,0.067,-0.039,-0.028,-0.008,0.01,-0.073,-0.007,-0.015,0.01
-0.085,-0.072,0.013,0.078,-0.049,-0.029,-0.002,0.01,-0.07,-0.006,-0.025,0.002
-0.087,-0.074,0.013,0.08,-0.05,-0.03,0.002,0.01,-0.067,-0.005,-0.031,-0.004
-0.071,-0.07,0.001,0.07,-0.036,-0.034,0.007,0.01,-0.063,-0.005,-0.029,-0.011
-0.05,-0.065,-0.015,0.058,-0.017,-0.04,0.01,0.01,-0.06,-0.008,-0.035,-0.017
-0.048,-0.063,-0.015,0.056,-0.016,-0.039,0.018,0.008,-0.053,-0.022,-0.034,-0.024
-0.053,-0.058,-0.005,0.056,-0.024,-0.031,0.034,0.005,-0.05,-0.02,-0.038,-0.028
-0.061,-0.055,0.006,0.058,-0.033,-0.024,0.036,0.016,-0.045,-0.012,-0.054,-0.025
-0.086,-0.059,0.028,0.072,-0.057,-0.015,0.034,0.014,-0.04,-0.006,-0.047,-0.021
-0.096,-0.06,0.036,0.078,-0.066,-0.012,0.036,0.009,-0.037,0.001,-0.039,-0.018
-0.092,-0.06,0.032,0.076,-0.062,-0.014,0.034,0.038,-0.028,0.007,-0.031,-0.013
-0.086,-0.059,0.027,0.073,-0.056,-0.016,0.036,0.053,-0.023,0.013,-0.024,-0.01
-0.093,-0.054,0.039,0.073,-0.065,-0.007,0.045,0.049,-0.015,0.022,-0.018,-0.006
-0.103,-0.051,0.053,0.077,-0.078,0.001,0.046,0.043,-0.01,0.032,-0.011,-0.005
-0.11,-0.047,0.063,0.079,-0.086,0.007,0.037,0.056,-0.003,0.031,-0.01,-0.005
-0.102,-0.044,0.058,0.073,-0.08,0.007,0.031,0.052,0.001,0.026,-0.005,-0.005
-0.083,-0.039,0.044,0.061,-0.063,0.003,0.023,0.017,-0.04,0.024,-0.006,-0.005
-0.102,-0.048,0.054,0.075,-0.078,0.003,0.015,0.012,-0.068,0.019,-0.013,-0.006
-0.104,-0.056,0.048,0.08,-0.076,-0.003,0.012,0.006,-0.058,0.016,-0.019,-0.01
-0.094,-0.055,0.039,0.074,-0.066,-0.008,0.014,-0.001,-0.053,0.012,-0.026,-0.01
-0.091,-0.055,0.036,0.073,-0.063,-0.009,0.018,-0.003,-0.046,0.003,-0.032,-0.012
-0.079,-0.055,0.024,0.067,-0.051,-0.015,0.02,-0.014,-0.038,-0.006,-0.039,-0.016
-0.093,-0.058,0.035,0.075,-0.064,-0.011,0.024,-0.017,-0.035,-0.013,-0.044,-0.015
-0.114,-0.062,0.052,0.088,-0.083,-0.005,0.025,-0.038,-0.023,-0.027,-0.045,-0.015
-0.115,-0.071,0.044,0.093,-0.08,-0.013,0.025,-0.057,-0.035,-0.036,-0.045,-0.015
-0.116,-0.073,0.042,0.094,-0.079,-0.015,0.025,-0.054,-0.097,-0.034,-0.045,-0.015
-0.105,-0.069,0.036,0.087,-0.071,-0.017,0.025,-0.055,-0.122,-0.036,-0.045,-0.015
-0.092,-0.067,0.025,0.079,-0.058,-0.021,0.025,-0.048,-0.112,-0.034,-0.046,-0.015
-0.078,-0.064,0.014,0.071,-0.045,-0.025,0.025,-0.052,-0.109,-0.036,-0.055,-0.016
-0.062,-0.061,0.001,0.061,-0.032,-0.029,0.025,-0.046,-0.103,-0.032,-0.057,-0.02
-0.091,-0.06,0.03,0.075,-0.06,-0.015,0.028,-0.045,-0.095,-0.028,-0.054,-0.02
-0.113,-0.065,0.048,0.088,-0.08,-0.008,0.031,-0.056,-0.104,-0.039,-0.055,-0.02
-0.107,-0.069,0.038,0.087,-0.072,-0.015,0.029,-0.033,-0.119,-0.036,-0.05,-0.02
-0.109,-0.072,0.036,0.09,-0.072,-0.018,0.03,-0.023,-0.11,-0.029,-0.051,-0.02
-0.102,-0.071,0.031,0.086,-0.066,-0.02,0.03,-0.023,-0.103,-0.026,-0.049,-0.017
-0.091,-0.065,0.027,0.078,-0.059,-0.019,0.028,-0.018,-0.108,-0.017,-0.056,-0.012
-0.084,-0.061,0.023,0.072,-0.053,-0.019,0.05,-0.013,-0.113,-0.017,-0.064,-0.01
-0.076,-0.056,0.019,0.066,-0.047,-0.018,0.057,-0.028,-0.106,-0.027,-0.055,-0.005
-0.067,-0.051,0.016,0.058,-0.041,-0.017,0.055,-0.052,-0.09,-0.032,-0.046,-0.002
-0.064,-0.052,0.012,0.058,-0.038,-0.019,0.06,-0.039,-0.075,-0.018,-0.032,0.002
-0.065,-0.055,0.01,0.06,-0.037,-0.022,0.06,-0.004,-0.046,0.013,-0.017,0.01
-0.049,-0.055,-0.006,0.052,-0.021,-0.03,0.06,0.027,0.004,0.039,-0.009,0.017
-0.025,-0.057,-0.033,0.041,0.004,-0.045,0.06,0.036,0.01,0.043,0.003,0.029
-0.02,-0.063,-0.042,0.042,0.011,-0.052,0.069,0.023,-0.007,0.021,-0.002,0.022
-0.023,-0.056,-0.033,0.04,0.005,-0.044,0.035,-0.02,-0.029,-0.015,-0.023,0.005
-0.025,-0.071,-0.046,0.048,0.011,-0.058,0.01,-0.038,-0.072,-0.046,-0.052,-0.021
-0.022,-0.096,-0.074,0.059,0.026,-0.084,-0.004,-0.077,-0.102,-0.073,-0.081,-0.04
-0.039,-0.093,-0.054,0.066,0.008,-0.073,-0.015,-0.072,-0.084,-0.061,-0.08,-0.042
-0.102,-0.089,0.014,0.095,-0.058,-0.037,-0.016,-0.048,-0.09,-0.064,-0.079,-0.04
-0.134,-0.086,0.048,0.11,-0.09,-0.018,-0.008,-0.04,-0.081,-0.052,-0.073,-0.038
-0.114,-0.082,0.033,0.098,-0.073,-0.024,-0.001,-0.03,-0.071,-0.052,-0.074,-0.044
-0.126,-0.08,0.047,0.103,-0.086,-0.016,-0.001,-0.046,-0.092,-0.049,-0.066,-0.033
-0.127,-0.088,0.039,0.107,-0.082,-0.024,0.056,0.01,-0.053,-0.028,-0.069,-0.052
-0.202,-0.04,0.162,0.121,-0.182,0.061,0.14,0.061,0.019,0.072,0.036,0.025
-0.063,0.111,0.174,-0.024,-0.119,0.142,0.168,0.387,0.455,0.585,0.556,0.423
0.709,0.511,-0.198,-0.61,0.453,0.156,-0.301,0.133,0.476,1.035,1.373,1.294
1.427,0.646,-0.781,-1.036,1.104,-0.068,-0.833,-0.618,-0.134,0.741,1.297,1.439
1.406,0.087,-1.319,-0.746,1.363,-0.615,-0.806,-0.849,-0.72,-0.383,-0.094,0.228
0.568,-0.293,-0.861,-0.138,0.715,-0.577,-0.497,-0.921,-1.063,-1.066,-0.853,-0.476
-0.147,-0.281,-0.134,0.214,-0.006,-0.208,-0.116,-0.567,-0.649,-0.655,-0.542,-0.362
-0.14,-0.189,-0.049,0.165,-0.046,-0.119,-0.02,-0.167,-0.208,-0.273,-0.273,-0.215
-0.133,-0.102,0.031,0.117,-0.082,-0.035,-0.012,-0.027,-0.059,-0.104,-0.132,-0.093
-0.166,-0.105,0.061,0.135,-0.113,-0.022,0.05,0.049,0.022,-0.045,-0.105,-0.089
-0.15,-0.088,0.063,0.119,-0.106,-0.012,0.043,0.03,0.01,-0.043,-0.1,-0.077
-0.153,-0.083,0.07,0.117,-0.111,-0.006,0.058,0.046,0.021,-0.027,-0.1,-0.081
-0.135,-0.077,0.058,0.105,-0.096,-0.009,0.052,0.042,0.007,-0.042,-0.109,-0.081
-0.15,-0.068,0.082,0.109,-0.116,0.007,0.06,0.053,0.043,-0.03,-0.105,-0.078
-0.143,-0.064,0.079,0.103,-0.111,0.007,0.06,0.049,0.053,-0.039,-0.114,-0.082
-0.131,-0.055,0.076,0.093,-0.103,0.01,0.059,0.05,0.054,-0.031,-0.104,-0.073
-0.121,-0.055,0.066,0.088,-0.093,0.005,0.061,0.049,0.062,-0.026,-0.106,-0.072
-0.116,-0.056,0.06,0.086,-0.087,0.002,0.059,0.064,0.062,-0.019,-0.104,-0.064
-0.114,-0.062,0.052,0.088,-0.083,-0.005,0.06,0.095,0.067,-0.012,-0.1,-0.062
-0.111,-0.057,0.054,0.084,-0.083,-0.002,0.054,0.098,0.069,-0.006,-0.1,-0.056
-0.109,-0.054,0.055,0.081,-0.082,0.001,0.056,0.102,0.071,0.0,-0.099,-0.053
-0.099,-0.051,0.048,0.075,-0.074,-0.001,0.052,0.11,0.084,0.011,-0.091,-0.048
-0.092,-0.046,0.046,0.069,-0.069,0.0,0.05,0.149,0.066,0.03,-0.083,-0.043
-0.084,-0.044,0.04,0.064,-0.062,-0.002,0.051,0.196,0.061,0.043,-0.075,-0.039
-0.071,-0.036,0.035,0.053,-0.053,0.0,0.046,0.233,0.123,0.059,-0.068,-0.034
-0.05,-0.029,0.022,0.039,-0.036,-0.003,0.035,0.268,0.176,0.076,-0.058,-0.03
-0.025,-0.014,0.011,0.019,-0.018,-0.001,0.025,0.291,0.21,0.098,-0.037,-0.019
0.009,0.008,-0.001,-0.009,0.005,0.003,0.015,0.317,0.21,0.126,-0.018,0.002
0.058,0.027,-0.031,-0.042,0.044,-0.002,-0.011,0.349,0.223,0.145,0.002,0.022
0.107,0.052,-0.055,-0.079,0.081,-0.002,-0.03,0.364,0.274,0.161,0.027,0.041
0.15,0.072,-0.078,-0.111,0.114,-0.003,-0.057,0.344,0.29,0.166,0.048,0.075
0.179,0.088,-0.092,-0.133,0.135,-0.002,-0.09,0.308,0.273,0.159,0.064,0.101
0.201,0.092,-0.108,-0.146,0.154,-0.008,-0.102,0.268,0.244,0.152,0.065,0.107
0.191,0.083,-0.108,-0.137,0.15,-0.012,-0.103,0.207,0.223,0.146,0.059,0.106
0.137,0.074,-0.062,-0.105,0.099,0.006,-0.075,0.159,0.208,0.138,0.055,0.095
0.085,0.067,-0.019,-0.076,0.052,0.024,-0.038,0.12,0.144,0.11,0.051,0.085
0.038,0.047,0.009,-0.042,0.014,0.027,-0.017,0.082,0.068,0.077,0.039,0.074
-0.01,0.023,0.033,-0.007,-0.022,0.028,-0.003,0.045,0.035,0.049,0.007,0.05
-0.043,0.012,0.055,0.015,-0.049,0.033,0.001,0.011,0.01,0.028,-0.01,0.027
-0.067,0.003,0.07,0.031,-0.068,0.036,0.007,-0.005,-0.003,0.013,-0.023,0.011
-0.092,-0.008,0.084,0.05,-0.088,0.038,0.012,-0.034,-0.045,0.001,-0.047,-0.005
-0.104,-0.017,0.087,0.06,-0.095,0.035,0.018,-0.046,-0.044,-0.004,-0.057,-0.013
-0.106,-0.025,0.082,0.065,-0.094,0.028,0.023,-0.035,-0.002,-0.009,-0.058,-0.019
-0.115,-0.036,0.08,0.075,-0.097,0.022,0.036,-0.025,0.003,-0.013,-0.061,-0.026
-0.115,-0.04,0.075,0.077,-0.095,0.017,0.058,-0.018,0.024,-0.017,-0.066,-0.033
-0.113,-0.04,0.073,0.077,-0.093,0.016,0.061,-0.003,-0.004,-0.022,-0.066,-0.032
-0.107,-0.039,0.068,0.073,-0.087,0.014,0.059,0.027,-0.029,-0.025,-0.064,-0.029
-0.108,-0.042,0.066,0.074,-0.087,0.011,0.056,0.036,-0.02,-0.025,-0.065,-0.03
-0.115,-0.054,0.061,0.085,-0.088,0.003,0.055,0.035,-0.019,-0.025,-0.065,-0.025
-0.108,-0.05,0.058,0.079,-0.083,0.004,0.054,0.035,-0.012,-0.025,-0.065,-0.025
-0.095,-0.042,0.053,0.068,-0.074,0.006,0.049,0.035,-0.008,-0.025,-0.063,-0.024
-0.101,-0.037,0.065,0.069,-0.083,0.014,0.043,0.035,0.013,-0.022,-0.057,-0.018
-0.12,-0.029,0.091,0.074,-0.105,0.031,0.04,0.032,0.022,-0.016,-0.052,-0.011
-0.122,-0.025,0.097,0.073,-0.109,0.036,0.035,0.026,0.011,-0.012,-0.049,-0.004
-0.133,-0.025,0.107,0.079,-0.12,0.041,0.03,0.026,0.007,-0.008,-0.044,0.002
-0.124,-0.023,0.101,0.073,-0.112,0.039,0.042,0.045,0.049,-0.002,-0.04,0.009
-0.109,-0.02,0.089,0.064,-0.099,0.035,0.043,0.035,0.059,-0.001,-0.045,0.006
-0.101,-0.02,0.08,0.06,-0.09,0.03,0.035,0.016,0.014,-0.005,-0.045,0.005
-0.088,-0.016,0.072,0.052,-0.08,0.027,0.032,0.012,-0.007,-0.007,-0.044,0.005
-0.083,-0.015,0.068,0.048,-0.075,0.026,0.024,0.0,-0.028,-0.01,-0.046,0.0
-0.075,-0.015,0.059,0.045,-0.067,0.022,0.021,-0.004,-0.048,-0.014,-0.044,0.0
-0.106,-0.015,0.091,0.06,-0.098,0.038,0.024,-0.017,-0.049,-0.014,-0.051,-0.001
-0.124,-0.015,0.109,0.069,-0.116,0.047,0.026,-0.036,-0.042,-0.032,-0.061,-0.006
-0.118,-0.016,0.102,0.067,-0.11,0.043,0.024,-0.042,-0.041,-0.049,-0.06,-0.009
-0.13,-0.024,0.107,0.077,-0.118,0.041,0.028,-0.044,-0.032,-0.045,-0.06,-0.012
-0.136,-0.032,0.104,0.084,-0.12,0.036,0.03,-0.041,-0.023,-0.045,-0.06,-0.017
-0.132,-0.032,0.1,0.082,-0.116,0.033,0.03,-0.039,-0.009,-0.045,-0.06,-0.02
-0.121,-0.027,0.094,0.074,-0.107,0.033,0.03,-0.041,0.017,-0.045,-0.062,-0.02
-0.111,-0.025,0.087,0.068,-0.099,0.031,0.03,-0.039,-0.003,-0.044,-0.066,-0.02
-0.108,-0.02,0.087,0.064,-0.098,0.033,0.03,-0.04,-0.011,-0.051,-0.064,-0.02
-0.107,-0.017,0.09,0.062,-0.098,0.036,0.03,-0.042,-0.019,-0.061,-0.066,-0.02
-0.103,-0.013,0.09,0.058,-0.096,0.038,0.03,-0.046,-0.072,-0.059,-0.069,-0.02
-0.099,-0.01,0.089,0.055,-0.094,0.04,0.03,-0.043,-0.086,-0.06,-0.072,-0.019
-0.102,-0.01,0.092,0.056,-0.097,0.041,0.03,-0.047,-0.083,-0.06,-0.074,-0.015
-0.117,-0.008,0.109,0.062,-0.113,0.05,0.03,-0.079,-0.107,-0.059,-0.078,-0.015
-0.115,-0.004,0.111,0.06,-0.112,0.053,0.028,-0.087,-0.115,-0.066,-0.08,-0.015
-0.112,-0.005,0.107,0.058,-0.109,0.051,0.023,-0.08,-0.101,-0.071,-0.08,-0.015
-0.114,-0.009,0.106,0.061,-0.11,0.048,0.02,-0.081,-0.098,-0.07,-0.084,-0.015
-0.111,-0.01,0.1,0.06,-0.105,0.044,0.017,-0.074,-0.101,-0.068,-0.086,-0.012
-0.14,-0.016,0.124,0.077,-0.132,0.054,0.012,-0.076,-0.103,-0.066,-0.085,-0.008
-0.149,-0.013,0.136,0.081,-0.142,0.061,0.011,-0.078,-0.106,-0.064,-0.078,-0.005
-0.139,-0.012,0.128,0.075,-0.134,0.058,0.016,-0.082,-0.081,-0.067,-0.067,0.0
-0.119,0.005,0.124,0.057,-0.122,0.064,0.023,-0.068,-0.045,-0.056,-0.058,0.004
-0.079,0.041,0.12,0.019,-0.1,0.08,0.029,-0.017,-0.036,-0.029,-0.047,0.006
-0.062,0.046,0.108,0.007,-0.085,0.077,0.036,0.014,-0.021,-0.008,-0.038,0.014
-0.048,0.043,0.091,0.002,-0.07,0.067,0.039,0.043,-0.009,0.002,-0.017,0.02
-0.036,0.048,0.083,-0.006,-0.06,0.065,0.031,0.077,0.013,0.008,-0.004,0.029
-0.041,0.03,0.071,0.005,-0.057,0.051,0.033,0.045,0.026,0.001,-0.021,0.018
-0.064,0.0,0.064,0.032,-0.064,0.031,0.003,-0.021,-0.032,-0.037,-0.044,-0.012
-0.067,-0.016,0.051,0.041,-0.059,0.017,-0.022,-0.038,-0.077,-0.069,-0.065,-0.029
-0.067,-0.019,0.048,0.043,-0.057,0.014,-0.03,-0.071,-0.13,-0.094,-0.078,-0.045
-0.065,-0.029,0.036,0.047,-0.051,0.003,-0.034,-0.074,-0.139,-0.094,-0.086,-0.062
-0.071,-0.026,0.045,0.048,-0.058,0.009,-0.02,-0.086,-0.142,-0.092,-0.088,-0.064
-0.119,-0.024,0.095,0.071,-0.107,0.035,-0.008,-0.09,-0.131,-0.086,-0.076,-0.065
-0.129,-0.025,0.104,0.077,-0.117,0.039,-0.009,-0.098,-0.123,-0.084,-0.08,-0.066
-0.12,-0.016,0.104,0.068,-0.112,0.043,-0.016,-0.115,-0.133,-0.081,-0.066,-0.062
-0.119,-0.022,0.097,0.07,-0.108,0.037,0.023,-0.054,-0.079,-0.07,-0.074,-0.075
-0.222,0.038,0.259,0.092,-0.241,0.149,0.094,-0.007,-0.058,-0.003,-0.02,-0.031
-0.15,0.181,0.332,-0.016,-0.241,0.257,0.134,0.279,0.318,0.442,0.43,0.296
0.598,0.608,0.01,-0.603,0.294,0.309,-0.333,-0.058,0.3,0.936,1.316,1.193
1.378,0.788,-0.59,-1.083,0.984,0.099,-0.878,-0.769,-0.298,0.689,1.335,1.431
1.482,0.18,-1.302,-0.831,1.392,-0.561,-0.914,-0.944,-0.92,-0.488,-0.113,0.223
0.738,-0.234,-0.973,-0.252,0.856,-0.603,-0.641,-1.053,-1.301,-1.178,-0.907,-0.537
-0.054,-0.202,-0.148,0.128,0.047,-0.175,-0.19,-0.598,-0.782,-0.687,-0.548,-0.39
-0.105,-0.109,-0.004,0.107,-0.05,-0.056,-0.038,-0.122,-0.28,-0.251,-0.259,-0.237
-0.104,-0.028,0.076,0.066,-0.09,0.024,-0.007,-0.05,-0.123,-0.118,-0.136,-0.141
-0.125,-0.039,0.086,0.082,-0.105,0.023,0.04,0.012,-0.065,-0.074,-0.121,-0.125
-0.116,-0.033,0.083,0.074,-0.099,0.025,0.016,0.007,-0.104,-0.074,-0.108,-0.113
-0.167,-0.036,0.132,0.101,-0.149,0.047,0.038,0.042,-0.068,-0.052,-0.093,-0.107
-0.143,-0.035,0.107,0.089,-0.125,0.036,0.028,0.03,-0.071,-0.052,-0.097,-0.103
-0.152,-0.034,0.118,0.093,-0.134,0.042,0.042,0.028,-0.04,-0.037,-0.088,-0.091
-0.139,-0.035,0.104,0.087,-0.121,0.034,0.044,0.028,-0.033,-0.039,-0.091,-0.093
-0.132,-0.028,0.104,0.08,-0.118,0.038,0.055,0.017,-0.025,-0.033,-0.083,-0.093
-0.131,-0.032,0.099,0.081,-0.115,0.034,0.064,0.026,-0.031,-0.029,-0.086,-0.096
-0.126,-0.026,0.099,0.076,-0.112,0.036,0.063,0.034,-0.03,-0.026,-0.085,-0.094
-0.127,-0.025,0.101,0.076,-0.113,0.037,0.067,0.043,-0.016,-0.022,-0.085,-0.095
-0.123,-0.024,0.098,0.073,-0.11,0.037,0.064,0.058,-0.014,-0.014,-0.086,-0.1
-0.132,-0.03,0.102,0.081,-0.116,0.035,0.066,0.06,-0.001,-0.007,-0.084,-0.098
-0.13,-0.038,0.092,0.084,-0.111,0.027,0.064,0.089,-0.001,-0.001,-0.086,-0.09
-0.105,-0.031,0.075,0.068,-0.09,0.022,0.06,0.161,0.02,0.015,-0.075,-0.085
-0.087,-0.022,0.066,0.054,-0.076,0.022,0.055,0.203,0.036,0.04,-0.052,-0.077
-0.069,-0.014,0.055,0.041,-0.062,0.02,0.05,0.233,0.088,0.069,-0.04,-0.072
-0.047,-0.004,0.043,0.026,-0.045,0.019,0.047,0.27,0.169,0.094,-0.029,-0.063
-0.018,0.004,0.023,0.007,-0.021,0.013,0.04,0.314,0.213,0.12,-0.018,-0.052
0.015,0.017,0.002,-0.016,0.006,0.009,0.043,0.35,0.263,0.15,0.004,-0.038
0.048,0.04,-0.008,-0.044,0.028,0.016,0.045,0.37,0.297,0.184,0.039,-0.01
0.109,0.054,-0.055,-0.082,0.082,0.0,0.022,0.37,0.297,0.203,0.07,0.023
0.149,0.058,-0.091,-0.103,0.12,-0.016,-0.02,0.345,0.291,0.209,0.09,0.051
0.207,0.073,-0.134,-0.14,0.17,-0.03,-0.06,0.314,0.285,0.206,0.097,0.071
0.252,0.081,-0.172,-0.166,0.212,-0.045,-0.08,0.275,0.246,0.199,0.111,0.083
0.216,0.074,-0.141,-0.145,0.178,-0.033,-0.098,0.213,0.168,0.193,0.114,0.08
0.172,0.067,-0.104,-0.119,0.138,-0.018,-0.097,0.141,0.108,0.166,0.101,0.065
0.111,0.061,-0.05,-0.086,0.081,0.005,-0.081,0.095,0.063,0.125,0.091,0.056
0.062,0.053,-0.009,-0.058,0.035,0.022,-0.064,0.053,0.013,0.085,0.065,0.039
0.02,0.03,0.01,-0.025,0.005,0.02,-0.043,0.006,-0.042,0.051,0.038,0.017
-0.023,0.011,0.033,0.006,-0.028,0.022,-0.038,-0.008,-0.064,0.028,0.026,-0.001
-0.029,0.008,0.036,0.01,-0.033,0.022,-0.035,-0.003,-0.053,0.017,0.003,-0.017
-0.05,0.004,0.055,0.023,-0.053,0.029,-0.025,-0.008,-0.064,0.006,-0.02,-0.026
-0.064,0.001,0.065,0.032,-0.065,0.033,-0.013,-0.013,-0.071,-0.005,-0.023,-0.024
-0.055,-0.003,0.052,0.029,-0.053,0.024,-0.009,0.001,-0.066,-0.014,-0.026,-0.026
-0.055,-0.007,0.048,0.03,-0.051,0.02,-0.007,0.023,-0.064,-0.022,-0.04,-0.043
-0.052,-0.011,0.041,0.031,-0.046,0.015,-0.004,0.031,-0.058,-0.03,-0.046,-0.051
-0.049,-0.017,0.032,0.032,-0.041,0.008,-0.001,0.031,-0.077,-0.038,-0.044,-0.049
-0.065,-0.02,0.045,0.042,-0.055,0.012,0.0,0.029,-0.095,-0.036,-0.045,-0.05
-0.083,-0.025,0.058,0.054,-0.07,0.016,-0.004,0.03,-0.087,-0.027,-0.045,-0.05
-0.083,-0.03,0.053,0.056,-0.068,0.011,-0.007,0.03,-0.079,-0.019,-0.045,-0.05
-0.084,-0.026,0.057,0.054,-0.07,0.015,-0.01,0.03,-0.075,-0.011,-0.041,-0.045
-0.071,-0.02,0.052,0.045,-0.061,0.016,-0.013,0.03,-0.074,-0.004,-0.036,-0.045
-0.074,-0.015,0.059,0.045,-0.066,0.021,-0.015,0.029,-0.077,0.002,-0.034,-0.044
-0.088,-0.009,0.079,0.048,-0.083,0.035,-0.015,0.039,-0.072,0.009,-0.03,-0.04
-0.089,-0.004,0.085,0.046,-0.087,0.04,-0.015,0.042,-0.086,0.016,-0.025,-0.04
-0.094,0.001,0.096,0.046,-0.095,0.048,-0.015,0.029,-0.114,0.022,-0.027,-0.042
-0.09,0.005,0.095,0.042,-0.093,0.05,-0.015,0.022,-0.107,0.029,-0.031,-0.046
-0.09,0.005,0.095,0.042,-0.093,0.05,-0.015,0.016,-0.099,0.026,-0.03,-0.045
-0.085,0.007,0.092,0.038,-0.088,0.049,-0.016,0.012,-0.101,0.017,-0.03,-0.045
-0.079,0.011,0.089,0.034,-0.084,0.05,-0.019,0.008,-0.098,0.011,-0.03,-0.045
-0.08,0.01,0.09,0.035,-0.085,0.05,-0.031,0.002,-0.11,0.003,-0.031,-0.045
-0.078,0.007,0.085,0.035,-0.082,0.046,-0.042,-0.001,-0.115,-0.004,-0.034,-0.05
-0.08,0.004,0.084,0.038,-0.082,0.044,-0.036,-0.016,-0.115,-0.011,-0.037,-0.05
-0.079,0.001,0.08,0.039,-0.08,0.041,-0.031,-0.032,-0.114,-0.019,-0.04,-0.05
-0.079,-0.002,0.077,0.04,-0.078,0.038,-0.028,-0.046,-0.122,-0.026,-0.042,-0.05
-0.079,-0.004,0.075,0.041,-0.077,0.035,-0.022,-0.054,-0.134,-0.033,-0.046,-0.05
-0.079,-0.007,0.073,0.043,-0.076,0.033,-0.019,-0.055,-0.14,-0.032,-0.049,-0.048
-0.079,-0.01,0.068,0.044,-0.074,0.029,-0.014,-0.06,-0.162,-0.029,-0.053,-0.044
-0.074,-0.01,0.065,0.041,-0.07,0.027,-0.009,-0.059,-0.166,-0.026,-0.055,-0.055
-0.075,-0.012,0.062,0.043,-0.068,0.024,-0.005,-0.055,-0.163,-0.023,-0.055,-0.061
-0.072,-0.016,0.056,0.044,-0.064,0.02,0.0,-0.053,-0.141,-0.02,-0.055,-0.059
-0.071,-0.015,0.056,0.042,-0.063,0.021,0.005,-0.049,-0.124,-0.02,-0.055,-0.06
-0.074,-0.015,0.059,0.044,-0.066,0.021,0.008,-0.047,-0.166,-0.028,-0.055,-0.06
-0.078,-0.015,0.063,0.046,-0.07,0.024,0.013,-0.044,-0.164,-0.033,-0.055,-0.06
-0.079,-0.015,0.065,0.047,-0.071,0.025,0.016,-0.05,-0.137,-0.037,-0.057,-0.063
-0.081,-0.015,0.066,0.048,-0.073,0.025,0.019,-0.053,-0.134,-0.048,-0.061,-0.067
-0.079,-0.015,0.064,0.046,-0.071,0.025,0.024,-0.05,-0.126,-0.051,-0.06,-0.07
-0.082,-0.016,0.066,0.049,-0.074,0.024,0.024,-0.05,-0.116,-0.05,-0.06,-0.074
-0.102,-0.02,0.082,0.061,-0.092,0.03,0.019,-0.048,-0.138,-0.05,-0.065,-0.074
-0.089,-0.02,0.069,0.054,-0.079,0.024,0.013,-0.045,-0.166,-0.05,-0.065,-0.07
-0.073,-0.02,0.053,0.046,-0.063,0.016,0.01,-0.044,-0.153,-0.049,-0.066,-0.07
-0.077,-0.02,0.057,0.048,-0.067,0.018,0.005,-0.051,-0.153,-0.043,-0.07,-0.068
-0.073,-0.02,0.053,0.046,-0.063,0.016,0.001,-0.051,-0.141,-0.038,-0.071,-0.065
-0.068,-0.017,0.051,0.042,-0.059,0.017,0.003,-0.045,-0.148,-0.032,-0.068,-0.066
-0.061,-0.012,0.049,0.037,-0.055,0.018,0.006,-0.038,-0.172,-0.026,-0.057,-0.06
-0.067,-0.009,0.058,0.038,-0.063,0.025,0.006,-0.034,-0.151,-0.021,-0.048,-0.05
-0.06,0.0,0.06,0.03,-0.06,0.03,0.006,-0.026,-0.126,-0.009,-0.033,-0.04
-0.036,0.008,0.043,0.014,-0.04,0.025,0.022,-0.009,-0.093,0.014,-0.015,-0.029
-0.018,0.018,0.036,0.0,-0.027,0.027,0.03,0.024,-0.074,0.04,-0.003,-0.025
-0.012,0.014,0.026,-0.001,-0.02,0.02,0.037,0.061,-0.08,0.047,0.014,-0.023
-0.03,-0.009,0.021,0.02,-0.026,0.005,0.03,-0.007,-0.087,0.019,-0.009,-0.038
-0.029,-0.015,0.014,0.022,-0.021,0.0,0.006,-0.073,-0.073,-0.004,-0.046,-0.058
-0.014,-0.035,-0.021,0.024,0.004,-0.027,0.0,-0.065,-0.111,-0.032,-0.059,-0.069
-0.005,-0.054,-0.049,0.03,0.022,-0.051,-0.018,-0.092,-0.181,-0.068,-0.066,-0.08
-0.024,-0.056,-0.032,0.04,0.005,-0.044,-0.02,-0.092,-0.165,-0.07,-0.064,-0.093
-0.077,-0.047,0.03,0.062,-0.054,-0.009,-0.019,-0.11,-0.168,-0.07,-0.062,-0.087
-0.1,-0.049,0.051,0.074,-0.075,0.0,-0.001,-0.097,-0.132,-0.056,-0.055,-0.092
-0.105,-0.042,0.063,0.074,-0.084,0.01,0.003,-0.123,-0.118,-0.066,-0.06,-0.089
-0.097,-0.032,0.065,0.064,-0.081,0.016,0.012,-0.097,-0.059,-0.043,-0.045,-0.089
-0.116,-0.014,0.102,0.065,-0.109,0.043,0.068,-0.053,-0.061,-0.037,-0.025,-0.096
-0.226,0.067,0.293,0.079,-0.26,0.18,0.173,0.101,0.118,0.162,0.138,0.04
0.136,0.279,0.143,-0.207,-0.004,0.21,0.047,0.306,0.526,0.676,0.744,0.56
1.065,0.703,-0.362,-0.883,0.714,0.17,-0.582,-0.324,0.211,0.909,1.386,1.329
1.656,0.564,-1.093,-1.11,1.374,-0.264,-0.941,-0.877,-0.493,0.235,0.707,0.884
1.363,-0.099,-1.462,-0.631,1.412,-0.78,-0.832,-1.056,-1.188,-0.956,-0.713,-0.372
0.378,-0.28,-0.658,-0.049,0.518,-0.468,-0.456,-1.023,-1.223,-1.073,-0.87,-0.594
-0.123,-0.179,-0.056,0.151,-0.033,-0.117,-0.079,-0.429,-0.547,-0.459,-0.405,-0.342
-0.055,-0.087,-0.032,0.071,-0.011,-0.059,-0.037,-0.104,-0.212,-0.189,-0.197,-0.194
-0.106,-0.035,0.072,0.07,-0.089,0.018,0.031,-0.015,-0.115,-0.072,-0.094,-0.129
-0.118,-0.039,0.079,0.078,-0.098,0.02,0.05,0.011,-0.096,-0.067,-0.108,-0.147
-0.145,-0.036,0.109,0.09,-0.127,0.036,0.038,0.019,-0.062,-0.048,-0.089,-0.121
-0.134,-0.04,0.095,0.087,-0.114,0.028,0.052,0.032,-0.041,-0.039,-0.094,-0.127
-0.118,-0.03,0.087,0.074,-0.102,0.028,0.039,0.013,-0.048,-0.035,-0.089,-0.113
-0.116,-0.03,0.086,0.073,-0.101,0.027,0.05,0.024,-0.028,-0.02,-0.084,-0.11
-0.105,-0.025,0.08,0.065,-0.092,0.027,0.042,0.008,-0.033,-0.019,-0.086,-0.104
-0.114,-0.021,0.093,0.067,-0.103,0.036,0.047,0.033,-0.013,-0.008,-0.078,-0.099
-0.1,-0.02,0.08,0.06,-0.09,0.029,0.061,0.052,0.0,-0.007,-0.078,-0.101
-0.112,-0.034,0.078,0.073,-0.094,0.021,0.066,0.048,0.042,0.001,-0.072,-0.099
-0.111,-0.043,0.069,0.077,-0.09,0.013,0.061,0.056,0.075,0.006,-0.07,-0.101
-0.099,-0.037,0.062,0.068,-0.081,0.012,0.059,0.096,0.106,0.01,-0.065,-0.1
-0.093,-0.036,0.057,0.064,-0.074,0.01,0.056,0.11,0.182,0.009,-0.063,-0.096
-0.084,-0.032,0.053,0.058,-0.068,0.01,0.055,0.128,0.199,0.018,-0.056,-0.09
-0.078,-0.031,0.047,0.054,-0.062,0.008,0.049,0.17,0.215,0.032,-0.049,-0.086
-0.065,-0.027,0.038,0.046,-0.051,0.005,0.061,0.187,0.273,0.053,-0.043,-0.079
-0.052,-0.022,0.03,0.037,-0.041,0.004,0.066,0.218,0.291,0.073,-0.036,-0.074
-0.036,-0.015,0.021,0.026,-0.028,0.002,0.05,0.269,0.3,0.089,-0.017,-0.068
0.007,-0.01,-0.017,0.001,0.012,-0.013,0.041,0.295,0.291,0.11,0.009,-0.064
0.056,-0.006,-0.061,-0.025,0.059,-0.033,0.028,0.326,0.355,0.143,0.026,-0.046
0.102,0.007,-0.094,-0.054,0.098,-0.043,0.007,0.366,0.417,0.17,0.042,-0.014
0.145,0.021,-0.125,-0.083,0.135,-0.052,-0.02,0.354,0.368,0.187,0.064,0.009
0.203,0.047,-0.156,-0.125,0.179,-0.054,-0.042,0.336,0.328,0.192,0.075,0.024
0.261,0.068,-0.193,-0.164,0.227,-0.062,-0.067,0.317,0.277,0.179,0.086,0.043
0.27,0.075,-0.194,-0.172,0.232,-0.059,-0.077,0.27,0.252,0.17,0.091,0.058
0.223,0.072,-0.151,-0.147,0.187,-0.039,-0.069,0.22,0.234,0.159,0.085,0.054
0.176,0.056,-0.12,-0.116,0.148,-0.032,-0.068,0.156,0.179,0.144,0.081,0.051
0.122,0.043,-0.08,-0.082,0.101,-0.018,-0.059,0.094,0.151,0.111,0.077,0.048
0.051,0.025,-0.026,-0.038,0.038,0.0,-0.037,0.048,0.105,0.077,0.069,0.02
0.031,0.012,-0.019,-0.022,0.025,-0.003,-0.019,0.019,0.065,0.058,0.04,-0.009
0.011,0.001,-0.011,-0.006,0.011,-0.005,-0.004,0.006,0.051,0.037,0.018,-0.024
-0.004,-0.01,-0.006,0.008,0.001,-0.008,0.007,-0.004,0.04,0.018,0.006,-0.04
-0.021,-0.02,0.001,0.02,-0.01,-0.009,0.012,-0.016,0.034,-0.003,-0.009,-0.047
-0.058,-0.029,0.029,0.043,-0.043,-0.001,0.015,-0.013,0.025,-0.013,-0.023,-0.057
-0.066,-0.03,0.036,0.047,-0.051,0.002,0.019,0.008,0.025,-0.019,-0.037,-0.069
-0.065,-0.03,0.035,0.047,-0.05,0.002,0.023,0.018,0.024,-0.026,-0.04,-0.071
-0.064,-0.03,0.034,0.047,-0.049,0.002,0.026,0.022,0.02,-0.033,-0.04,-0.077
-0.066,-0.03,0.036,0.048,-0.051,0.002,0.03,0.029,0.02,-0.032,-0.04,-0.084
-0.063,-0.03,0.033,0.046,-0.048,0.001,0.03,0.034,0.019,-0.024,-0.04,-0.081
-0.066,-0.027,0.039,0.046,-0.052,0.006,0.031,0.036,0.013,-0.021,-0.039,-0.08
-0.083,-0.024,0.059,0.053,-0.07,0.017,0.035,0.04,0.005,-0.014,-0.044,-0.08
-0.074,-0.021,0.052,0.047,-0.063,0.015,0.035,0.043,0.0,-0.009,-0.045,-0.075
-0.039,-0.018,0.021,0.028,-0.03,0.002,0.033,0.047,-0.01,-0.004,-0.038,-0.075
-0.044,-0.016,0.028,0.029,-0.035,0.006,0.03,0.059,0.005,0.0,-0.034,-0.075
-0.081,-0.013,0.068,0.047,-0.074,0.027,0.03,0.061,0.042,-0.001,-0.027,-0.075
-0.08,-0.01,0.07,0.045,-0.075,0.03,0.026,0.06,0.066,0.003,-0.023,-0.075
-0.071,-0.01,0.06,0.04,-0.065,0.025,0.025,0.057,0.07,0.005,-0.017,-0.075
-0.068,-0.008,0.061,0.038,-0.064,0.026,0.025,0.054,0.071,0.005,-0.015,-0.075
-0.056,-0.004,0.052,0.03,-0.054,0.024,0.021,0.055,0.069,0.001,-0.015,-0.075
-0.056,-0.005,0.051,0.031,-0.053,0.022,0.019,0.048,0.072,-0.005,-0.011,-0.079
-0.074,-0.008,0.066,0.041,-0.07,0.029,0.015,0.041,0.093,-0.01,-0.01,-0.08
-0.088,-0.017,0.072,0.053,-0.08,0.027,0.013,0.034,0.068,-0.016,-0.01,-0.08
-0.085,-0.02,0.065,0.052,-0.075,0.022,0.009,0.026,0.038,-0.021,-0.022,-0.08
-0.084,-0.02,0.065,0.051,-0.075,0.022,0.013,0.019,0.039,-0.026,-0.038,-0.08
-0.089,-0.028,0.061,0.059,-0.075,0.016,0.026,0.012,0.025,-0.031,-0.04,-0.081
-0.09,-0.031,0.059,0.06,-0.074,0.014,0.026,0.01,0.042,-0.034,-0.04,-0.085
-0.096,-0.025,0.071,0.06,-0.083,0.023,0.025,0.01,0.082,-0.039,-0.04,-0.085
-0.099,-0.023,0.076,0.061,-0.088,0.026,0.024,0.006,0.078,-0.04,-0.039,-0.085
-0.089,-0.018,0.071,0.053,-0.08,0.026,0.019,0.005,0.058,-0.04,-0.041,-0.085
-0.084,-0.015,0.07,0.05,-0.076,0.027,0.021,0.005,0.038,-0.04,-0.044,-0.084
-0.084,-0.019,0.065,0.051,-0.074,0.023,0.017,-0.001,0.027,-0.04,-0.044,-0.092
-0.085,-0.02,0.066,0.052,-0.075,0.022,0.015,-0.006,0.019,-0.04,-0.048,-0.098
-0.086,-0.021,0.066,0.053,-0.076,0.022,0.015,-0.012,0.008,-0.057,-0.051,-0.093
-0.084,-0.019,0.065,0.051,-0.074,0.023,0.012,-0.017,0.016,-0.067,-0.049,-0.091
-0.089,-0.025,0.065,0.057,-0.077,0.019,0.009,-0.023,0.051,-0.061,-0.05,-0.088
-0.097,-0.036,0.06,0.066,-0.078,0.012,0.011,-0.025,0.154,-0.06,-0.05,-0.085
-0.091,-0.031,0.06,0.061,-0.075,0.014,0.026,-0.026,0.177,-0.056,-0.049,-0.087
-0.088,-0.029,0.059,0.058,-0.073,0.015,0.031,-0.04,0.138,-0.055,-0.044,-0.086
-0.079,-0.024,0.055,0.051,-0.066,0.015,0.029,-0.036,0.157,-0.051,-0.041,-0.085
-0.077,-0.021,0.055,0.048,-0.066,0.016,0.031,-0.031,0.154,-0.044,-0.038,-0.085
-0.085,-0.014,0.071,0.049,-0.078,0.028,0.029,-0.028,0.156,-0.037,-0.034,-0.081
-0.062,0.012,0.074,0.025,-0.068,0.043,0.032,-0.021,0.154,-0.031,-0.029,-0.079
-0.043,0.021,0.065,0.011,-0.054,0.043,0.035,-0.018,0.16,-0.023,-0.027,-0.082
-0.041,0.02,0.061,0.011,-0.051,0.04,0.026,0.026,0.148,-0.018,-0.023,-0.084
-0.033,0.02,0.054,0.006,-0.044,0.037,0.018,0.071,0.124,-0.009,-0.021,-0.086
-0.028,0.02,0.048,0.004,-0.038,0.034,0.008,0.074,0.128,-0.003,-0.016,-0.086
-0.02,0.02,0.041,0.0,-0.031,0.03,-0.004,0.037,0.138,-0.034,-0.017,-0.092
-0.017,0.017,0.034,0.0,-0.026,0.025,-0.018,0.011,0.139,-0.06,-0.042,-0.088
-0.022,0.003,0.025,0.009,-0.024,0.014,-0.038,0.007,0.139,-0.069,-0.068,-0.094
-0.004,-0.007,-0.002,0.006,-0.001,-0.005,-0.041,-0.046,0.134,-0.094,-0.089,-0.118
-0.015,-0.011,0.005,0.013,-0.01,-0.003,-0.025,-0.056,0.134,-0.09,-0.088,-0.119
-0.065,-0.022,0.043,0.043,-0.053,0.01,-0.01,-0.038,0.139,-0.088,-0.083,-0.122
-0.092,-0.022,0.069,0.057,-0.08,0.023,-0.008,-0.057,0.128,-0.093,-0.078,-0.122
-0.101,-0.037,0.064,0.068,-0.082,0.013,0.009,-0.024,0.145,-0.076,-0.073,-0.128
-0.091,-0.028,0.063,0.059,-0.077,0.017,0.008,-0.059,0.104,-0.099,-0.071,-0.121
-0.108,-0.036,0.072,0.071,-0.09,0.018,0.037,0.001,0.119,-0.052,-0.063,-0.128
-0.15,-0.024,0.126,0.087,-0.138,0.051,0.091,0.009,0.12,-0.031,-0.049,-0.111
-0.162,0.084,0.246,0.039,-0.204,0.165,0.179,0.204,0.424,0.266,0.249,0.087
0.342,0.366,0.024,-0.355,0.159,0.195,-0.051,0.364,0.776,0.828,0.987,0.76
1.243,0.729,-0.514,-0.985,0.878,0.107,-0.679,-0.322,0.345,0.907,1.463,1.434
1.633,0.432,-1.201,-1.033,1.416,-0.384,-0.906,-0.798,-0.347,0.083,0.528,0.698
1.095,-0.148,-1.243,-0.473,1.169,-0.696,-0.694,-0.932,-0.915,-0.991,-0.747,-0.442
0.148,-0.261,-0.408,0.057,0.278,-0.334,-0.291,-0.789,-0.821,-0.951,-0.757,-0.557
-0.147,-0.193,-0.046,0.17,-0.05,-0.12,-0.025,-0.3,-0.318,-0.433,-0.38,-0.372
-0.081,-0.093,-0.013,0.087,-0.034,-0.053,-0.015,-0.089,-0.055,-0.213,-0.187,-0.227
-0.114,-0.053,0.061,0.083,-0.087,0.004,0.028,-0.001,0.103,-0.094,-0.096,-0.184
-0.1,-0.049,0.051,0.074,-0.075,0.001,0.03,0.0,0.095,-0.092,-0.109,-0.192
-0.125,-0.041,0.083,0.083,-0.103,0.021,0.046,0.011,0.094,-0.065,-0.093,-0.17
-0.116,-0.047,0.069,0.081,-0.092,0.011,0.055,0.026,0.083,-0.07,-0.105,-0.176
-0.108,-0.037,0.071,0.073,-0.09,0.017,0.053,0.048,0.081,-0.064,-0.098,-0.16
-0.106,-0.042,0.064,0.074,-0.085,0.01,0.057,0.072,0.09,-0.057,-0.101,-0.159
-0.096,-0.037,0.059,0.066,-0.077,0.011,0.053,0.06,0.092,-0.057,-0.099,-0.156
-0.09,-0.033,0.057,0.061,-0.073,0.012,0.055,0.069,0.143,-0.048,-0.093,-0.161
-0.084,-0.027,0.056,0.055,-0.07,0.014,0.049,0.063,0.152,-0.052,-0.09,-0.16
-0.088,-0.023,0.065,0.056,-0.076,0.02,0.051,0.066,0.155,-0.047,-0.084,-0.159
-0.082,-0.019,0.063,0.05,-0.072,0.021,0.047,0.068,0.159,-0.045,-0.081,-0.161
-0.071,-0.014,0.057,0.042,-0.063,0.021,0.044,0.078,0.156,-0.045,-0.075,-0.159
-0.059,-0.011,0.048,0.035,-0.054,0.019,0.045,0.086,0.154,-0.042,-0.071,-0.154
-0.049,-0.006,0.043,0.027,-0.045,0.018,0.05,0.107,0.158,-0.029,-0.062,-0.145
-0.038,-0.004,0.034,0.021,-0.035,0.015,0.047,0.139,0.17,-0.015,-0.055,-0.137
-0.027,0.001,0.028,0.013,-0.028,0.014,0.038,0.17,0.192,-0.004,-0.046,-0.13
-0.017,0.003,0.019,0.007,-0.018,0.011,0.03,0.205,0.22,0.012,-0.039,-0.121
0.012,0.016,0.004,-0.014,0.003,0.009,0.023,0.235,0.235,0.039,-0.026,-0.104
0.043,0.026,-0.017,-0.034,0.03,0.004,0.012,0.282,0.258,0.066,-0.017,-0.087
0.083,0.043,-0.04,-0.063,0.062,0.001,-0.004,0.306,0.295,0.089,0.003,-0.069
0.139,0.067,-0.072,-0.102,0.105,-0.003,-0.02,0.312,0.339,0.112,0.031,-0.043
0.191,0.08,-0.11,-0.135,0.15,-0.015,-0.044,0.315,0.36,0.121,0.051,-0.016
0.237,0.101,-0.136,-0.169,0.186,-0.017,-0.073,0.3,0.35,0.119,0.071,0.008
0.265,0.109,-0.156,-0.187,0.21,-0.023,-0.095,0.291,0.338,0.114,0.083,0.028
0.26,0.103,-0.157,-0.181,0.208,-0.027,-0.092,0.273,0.311,0.112,0.091,0.027
0.22,0.096,-0.125,-0.158,0.172,-0.014,-0.083,0.241,0.264,0.106,0.081,0.013
0.165,0.086,-0.079,-0.126,0.122,0.004,-0.069,0.188,0.23,0.071,0.066,0.004
0.114,0.08,-0.034,-0.097,0.073,0.023,-0.047,0.12,0.19,0.032,0.049,-0.009
0.07,0.069,-0.001,-0.069,0.035,0.034,-0.036,0.06,0.142,0.008,0.022,-0.026
0.025,0.047,0.022,-0.036,0.001,0.034,-0.028,0.038,0.123,-0.012,0.003,-0.052
-0.012,0.033,0.045,-0.011,-0.029,0.039,-0.02,0.033,0.121,-0.034,-0.017,-0.075
-0.017,0.028,0.045,-0.006,-0.031,0.036,-0.012,0.022,0.095,-0.056,-0.032,-0.087
-0.02,0.021,0.04,-0.001,-0.03,0.03,-0.006,0.015,0.054,-0.064,-0.045,-0.1
-0.037,0.014,0.051,0.012,-0.045,0.032,-0.004,0.006,0.048,-0.071,-0.051,-0.105
-0.041,0.008,0.048,0.016,-0.045,0.028,-0.001,-0.002,0.054,-0.074,-0.054,-0.109
-0.043,0.002,0.045,0.02,-0.044,0.023,0.002,-0.011,0.054,-0.069,-0.059,-0.114
-0.043,0.0,0.043,0.021,-0.043,0.021,0.004,-0.02,0.06,-0.071,-0.06,-0.115
-0.04,-0.001,0.039,0.021,-0.04,0.019,0.007,-0.022,0.058,-0.067,-0.06,-0.115
-0.044,-0.005,0.039,0.024,-0.041,0.016,0.017,-0.019,0.063,-0.065,-0.06,-0.115
-0.038,-0.005,0.033,0.021,-0.035,0.014,0.03,-0.016,0.076,-0.066,-0.06,-0.115
-0.041,0.002,0.043,0.02,-0.042,0.022,0.039,-0.014,0.074,-0.061,-0.059,-0.115
-0.055,0.012,0.066,0.021,-0.061,0.039,0.04,-0.006,0.07,-0.055,-0.054,-0.115
-0.051,0.019,0.069,0.016,-0.06,0.044,0.041,0.002,0.068,-0.047,-0.049,-0.109
-0.05,0.03,0.08,0.01,-0.065,0.055,0.044,0.01,0.063,-0.042,-0.044,-0.102
-0.052,0.037,0.09,0.007,-0.071,0.063,0.046,0.019,0.068,-0.032,-0.04,-0.096
-0.042,0.035,0.076,0.003,-0.059,0.055,0.042,0.023,0.07,-0.037,-0.035,-0.089
-0.04,0.035,0.076,0.002,-0.059,0.055,0.023,0.02,0.07,-0.06,-0.032,-0.082
-0.025,0.031,0.056,-0.003,-0.041,0.043,0.005,0.017,0.088,-0.06,-0.029,-0.082
-0.017,0.03,0.047,-0.007,-0.032,0.038,0.002,0.015,0.097,-0.06,-0.025,-0.086
-0.053,0.03,0.083,0.012,-0.068,0.056,0.017,0.011,0.097,-0.06,-0.024,-0.085
-0.053,0.025,0.078,0.014,-0.066,0.051,0.023,0.01,0.102,-0.06,-0.018,-0.085
-0.053,0.02,0.073,0.016,-0.063,0.046,0.018,0.006,0.103,-0.06,-0.026,-0.085
-0.064,0.015,0.079,0.024,-0.072,0.047,0.02,0.002,0.107,-0.06,-0.041,-0.085
-0.034,0.011,0.045,0.011,-0.04,0.028,0.012,-0.004,0.103,-0.06,-0.039,-0.09
-0.044,0.006,0.05,0.019,-0.048,0.028,0.023,-0.002,0.107,-0.06,-0.04,-0.09
-0.071,0.007,0.078,0.032,-0.075,0.042,0.041,0.025,0.098,-0.075,-0.04,-0.091
-0.055,0.017,0.072,0.019,-0.064,0.044,0.035,0.028,0.06,-0.081,-0.04,-0.095
-0.039,0.023,0.062,0.008,-0.051,0.043,0.03,0.013,0.064,-0.079,-0.042,-0.095
-0.037,0.021,0.058,0.008,-0.048,0.039,0.026,0.007,0.06,-0.086,-0.046,-0.097
-0.026,0.019,0.046,0.003,-0.036,0.032,0.021,-0.009,0.025,-0.092,-0.051,-0.1
-0.029,0.02,0.05,0.004,-0.039,0.035,0.018,-0.024,0.01,-0.098,-0.049,-0.103
-0.054,0.02,0.074,0.017,-0.064,0.046,0.013,-0.025,-0.009,-0.1,-0.056,-0.106
-0.055,0.021,0.076,0.017,-0.065,0.048,0.008,-0.03,0.009,-0.103,-0.061,-0.109
-0.06,0.018,0.078,0.021,-0.069,0.047,0.006,-0.041,0.047,-0.106,-0.06,-0.11
-0.07,0.011,0.081,0.03,-0.076,0.046,0.013,-0.033,0.025,-0.11,-0.059,-0.105
-0.07,0.006,0.077,0.032,-0.074,0.041,0.029,-0.028,-0.007,-0.11,-0.054,-0.1
-0.069,0.001,0.069,0.034,-0.069,0.035,0.032,-0.02,-0.026,-0.106,-0.055,-0.096
-0.067,-0.005,0.062,0.036,-0.064,0.028,0.028,-0.015,-0.024,-0.103,-0.053,-0.091
-0.066,-0.009,0.057,0.038,-0.061,0.023,0.022,-0.009,-0.027,-0.1,-0.049,-0.086
-0.053,-0.004,0.048,0.029,-0.05,0.022,0.018,-0.01,-0.023,-0.097,-0.05,-0.082
-0.05,0.002,0.052,0.024,-0.051,0.027,0.015,-0.012,-0.026,-0.095,-0.05,-0.076
-0.034,0.006,0.04,0.014,-0.037,0.023,0.007,-0.006,-0.034,-0.093,-0.05,-0.071
-0.044,0.013,0.057,0.015,-0.051,0.035,0.022,-0.017,-0.022,-0.082,-0.05,-0.065
-0.051,0.016,0.067,0.017,-0.06,0.041,0.021,0.005,0.002,-0.073,-0.039,-0.06
-0.029,0.031,0.06,-0.002,-0.045,0.045,0.046,-0.003,0.064,-0.06,-0.016,-0.051
-0.014,0.039,0.053,-0.013,-0.034,0.045,0.047,0.036,0.061,-0.047,-0.005,-0.038
-0.003,0.026,0.029,-0.011,-0.017,0.027,0.048,0.053,0.08,-0.041,0.012,-0.032
0.004,0.036,0.032,-0.02,-0.014,0.034,0.029,0.087,0.034,-0.035,0.012,-0.036
0.044,0.049,0.005,-0.047,0.019,0.027,0.02,0.026,0.042,-0.059,-0.023,-0.05
0.014,0.04,0.025,-0.027,-0.006,0.032,0.136,-0.028,-0.045,-0.09,-0.048,-0.063
0.089,0.03,-0.059,-0.059,0.074,-0.014,0.049,0.277,-0.041,-0.117,-0.06,-0.08
-0.028,0.02,0.048,0.005,-0.038,0.034,-0.026,0.134,0.256,-0.127,-0.075,-0.094
-0.143,0.004,0.147,0.069,-0.145,0.076,0.02,-0.077,0.111,-0.123,-0.086,-0.094
0.03,-0.001,-0.031,-0.014,0.031,-0.016,-0.017,0.061,-0.077,-0.122,-0.084,-0.095
