-0.145,-0.097,0.049,0.121,-0.096,-0.024,-0.579,-0.818,-0.647,-0.452,-0.269,-0.032
-0.115,-0.083,0.032,0.099,-0.073,-0.025,-0.369,-0.523,-0.454,-0.339,-0.246,-0.041
-0.064,-0.06,0.005,0.062,-0.034,-0.027,-0.088,-0.147,-0.196,-0.188,-0.199,-0.04
-0.093,-0.101,-0.008,0.097,-0.042,-0.054,-0.006,-0.052,-0.136,-0.146,-0.164,-0.037
-0.081,-0.108,-0.027,0.095,-0.027,-0.067,0.028,-0.001,-0.098,-0.097,-0.148,-0.034
-0.045,-0.096,-0.051,0.071,0.004,-0.074,0.073,0.035,-0.072,-0.065,-0.138,-0.031
-0.069,-0.097,-0.028,0.083,-0.02,-0.063,0.082,0.047,-0.067,-0.055,-0.122,-0.03
-0.076,-0.087,-0.011,0.081,-0.032,-0.049,0.086,0.056,-0.051,-0.035,-0.103,-0.024
-0.048,-0.079,-0.031,0.064,-0.008,-0.055,0.092,0.066,-0.032,-0.025,-0.092,-0.019
-0.034,-0.058,-0.024,0.046,-0.004,-0.041,0.102,0.086,-0.007,-0.008,-0.083,-0.013
-0.047,-0.039,0.008,0.043,-0.027,-0.015,0.104,0.1,-0.003,0.005,-0.072,-0.008
-0.032,-0.046,-0.015,0.039,-0.008,-0.03,0.106,0.114,0.008,0.03,-0.059,0.0
-0.007,-0.043,-0.036,0.025,0.015,-0.04,0.112,0.132,0.04,0.053,-0.044,0.024
0.029,0.003,-0.026,-0.016,0.027,-0.011,0.124,0.162,0.058,0.06,-0.031,0.037
0.051,0.046,-0.005,-0.049,0.028,0.02,0.142,0.18,0.091,0.098,-0.013,0.053
0.071,0.068,-0.003,-0.069,0.037,0.032,0.15,0.223,0.135,0.137,0.015,0.072
0.112,0.085,-0.027,-0.098,0.069,0.029,0.143,0.258,0.16,0.156,0.044,0.079
0.119,0.113,-0.006,-0.116,0.062,0.054,0.149,0.285,0.209,0.205,0.085,0.109
0.147,0.143,-0.004,-0.145,0.075,0.069,0.163,0.337,0.267,0.25,0.126,0.149
0.19,0.175,-0.015,-0.182,0.102,0.08,0.158,0.362,0.311,0.292,0.16,0.172
0.217,0.209,-0.007,-0.213,0.112,0.101,0.148,0.384,0.348,0.34,0.198,0.192
0.201,0.217,0.016,-0.209,0.093,0.116,0.142,0.381,0.382,0.381,0.247,0.231
0.186,0.235,0.049,-0.211,0.068,0.142,0.134,0.373,0.402,0.406,0.278,0.257
0.202,0.254,0.052,-0.228,0.075,0.153,0.127,0.367,0.404,0.391,0.268,0.247
0.198,0.245,0.047,-0.222,0.076,0.145,0.128,0.302,0.372,0.373,0.255,0.237
0.16,0.228,0.069,-0.194,0.045,0.148,0.13,0.266,0.314,0.349,0.244,0.228
0.106,0.203,0.097,-0.154,0.004,0.149,0.13,0.22,0.242,0.269,0.193,0.194
0.098,0.172,0.074,-0.135,0.012,0.123,0.129,0.156,0.151,0.159,0.113,0.144
0.067,0.125,0.058,-0.096,0.004,0.092,0.122,0.132,0.082,0.092,0.047,0.105
0.024,0.08,0.056,-0.052,-0.017,0.068,0.117,0.088,0.028,0.048,-0.004,0.067
0.004,0.049,0.045,-0.027,-0.021,0.047,0.112,0.045,-0.022,0.0,-0.046,0.038
-0.01,0.03,0.04,-0.01,-0.026,0.035,0.106,0.015,-0.056,-0.028,-0.077,0.025
-0.007,0.024,0.031,-0.009,-0.02,0.028,0.101,0.001,-0.071,-0.044,-0.101,0.012
-0.055,-0.01,0.045,0.033,-0.05,0.017,0.096,-0.001,-0.07,-0.045,-0.105,0.005
-0.087,-0.034,0.053,0.06,-0.07,0.01,0.093,-0.009,-0.069,-0.045,-0.105,0.005
-0.058,-0.015,0.043,0.036,-0.05,0.014,0.089,-0.013,-0.065,-0.045,-0.105,0.004
-0.054,-0.005,0.049,0.029,-0.051,0.021,0.086,-0.019,-0.065,-0.045,-0.105,-0.001
-0.043,-0.022,0.022,0.032,-0.032,0.0,0.08,-0.024,-0.063,-0.046,-0.106,0.001
-0.054,-0.031,0.023,0.042,-0.039,-0.004,0.081,-0.034,-0.059,-0.037,-0.103,-0.003
-0.104,-0.031,0.072,0.067,-0.088,0.02,0.085,-0.039,-0.057,-0.046,-0.116,-0.017
-0.075,-0.016,0.059,0.045,-0.067,0.021,0.085,-0.023,-0.054,-0.057,-0.118,-0.012
-0.027,0.025,0.052,0.001,-0.039,0.038,0.085,-0.009,-0.051,-0.052,-0.1,0.002
-0.024,0.036,0.06,-0.006,-0.042,0.047,0.083,-0.011,-0.05,-0.05,-0.095,0.012
-0.024,0.035,0.059,-0.006,-0.042,0.046,0.099,-0.01,-0.055,-0.047,-0.095,0.022
-0.033,0.033,0.066,-0.001,-0.05,0.05,0.105,-0.011,-0.055,-0.044,-0.095,0.021
-0.021,0.041,0.062,-0.01,-0.042,0.051,0.097,-0.01,-0.054,-0.046,-0.096,0.018
-0.026,0.032,0.058,-0.003,-0.042,0.045,0.096,-0.011,-0.059,-0.044,-0.094,0.016
-0.061,-0.008,0.053,0.034,-0.057,0.022,0.088,-0.024,-0.073,-0.046,-0.097,0.012
-0.073,-0.023,0.05,0.048,-0.062,0.013,0.081,-0.033,-0.079,-0.068,-0.108,0.01
-0.092,-0.037,0.055,0.064,-0.073,0.009,0.074,-0.039,-0.075,-0.077,-0.111,0.007
-0.082,-0.024,0.058,0.053,-0.07,0.016,0.066,-0.04,-0.075,-0.074,-0.109,0.005
-0.065,-0.002,0.063,0.033,-0.064,0.03,0.059,-0.04,-0.074,-0.076,-0.112,0.005
-0.059,0.006,0.065,0.026,-0.062,0.035,0.053,-0.041,-0.07,-0.075,-0.115,0.001
-0.035,0.03,0.065,0.002,-0.05,0.048,0.048,-0.038,-0.07,-0.075,-0.115,-0.001
-0.033,0.031,0.064,0.001,-0.049,0.048,0.045,-0.035,-0.072,-0.075,-0.117,0.001
-0.039,0.02,0.06,0.009,-0.05,0.04,0.042,-0.034,-0.075,-0.075,-0.12,0.005
-0.048,0.005,0.052,0.021,-0.05,0.028,0.037,-0.046,-0.075,-0.075,-0.12,0.013
-0.032,0.014,0.047,0.009,-0.04,0.03,0.034,-0.056,-0.075,-0.075,-0.116,0.013
0.008,0.042,0.034,-0.025,-0.013,0.038,0.031,-0.055,-0.075,-0.075,-0.114,0.008
0.027,0.039,0.012,-0.033,0.007,0.026,0.03,-0.06,-0.075,-0.077,-0.115,0.005
0.009,0.041,0.033,-0.025,-0.012,0.037,0.03,-0.06,-0.075,-0.081,-0.114,0.002
-0.013,0.046,0.058,-0.017,-0.036,0.052,0.03,-0.056,-0.075,-0.084,-0.116,-0.003
-0.006,0.045,0.051,-0.019,-0.029,0.048,0.03,-0.055,-0.075,-0.088,-0.113,-0.005
-0.005,0.043,0.048,-0.019,-0.027,0.045,0.032,-0.055,-0.074,-0.09,-0.109,-0.001
-0.002,0.04,0.042,-0.019,-0.022,0.041,0.044,-0.05,-0.084,-0.09,-0.103,0.0
0.0,0.038,0.038,-0.019,-0.019,0.038,0.049,-0.051,-0.083,-0.091,-0.1,-0.001
0.001,0.036,0.035,-0.019,-0.017,0.035,0.052,-0.049,-0.066,-0.087,-0.095,0.003
0.005,0.032,0.027,-0.018,-0.011,0.029,0.068,-0.04,-0.055,-0.071,-0.091,0.023
0.004,0.046,0.042,-0.025,-0.019,0.043,0.074,-0.033,-0.045,-0.059,-0.101,0.034
0.007,0.06,0.053,-0.034,-0.023,0.056,0.081,-0.028,-0.034,-0.041,-0.089,0.039
0.012,0.052,0.039,-0.032,-0.014,0.045,0.079,-0.019,-0.03,-0.032,-0.082,0.048
0.008,0.046,0.039,-0.027,-0.016,0.042,0.052,-0.014,-0.029,-0.04,-0.086,0.042
0.032,0.042,0.01,-0.037,0.011,0.025,0.029,-0.033,-0.026,-0.044,-0.084,0.037
0.06,0.035,-0.025,-0.047,0.042,0.005,0.016,-0.058,-0.024,-0.056,-0.086,0.034
0.034,0.025,-0.009,-0.029,0.021,0.008,0.007,-0.053,-0.035,-0.064,-0.083,0.028
0.031,0.009,-0.021,-0.02,0.026,-0.006,-0.007,-0.082,-0.057,-0.071,-0.092,0.025
0.042,-0.007,-0.049,-0.017,0.045,-0.028,-0.017,-0.094,-0.072,-0.08,-0.106,0.018
0.006,-0.028,-0.034,0.011,0.02,-0.031,-0.028,-0.102,-0.087,-0.097,-0.113,0.01
-0.051,-0.077,-0.025,0.064,-0.013,-0.051,-0.042,-0.117,-0.091,-0.104,-0.121,0.005
-0.072,-0.112,-0.04,0.092,-0.016,-0.075,-0.039,-0.109,-0.102,-0.111,-0.134,-0.005
-0.094,-0.111,-0.017,0.103,-0.038,-0.064,-0.043,-0.131,-0.105,-0.114,-0.138,-0.01
-0.133,-0.117,0.016,0.125,-0.074,-0.05,-0.029,-0.084,-0.089,-0.12,-0.142,-0.019
-0.152,-0.117,0.036,0.134,-0.094,-0.04,-0.046,-0.135,-0.097,-0.12,-0.136,-0.018
-0.132,-0.135,-0.003,0.133,-0.064,-0.069,0.053,0.028,-0.073,-0.13,-0.16,-0.038
-0.088,-0.051,0.036,0.07,-0.062,-0.007,0.229,0.407,0.18,-0.006,-0.116,-0.03
0.09,0.236,0.146,-0.163,-0.029,0.191,0.365,1.231,1.237,0.795,0.405,0.302
0.209,0.418,0.209,-0.314,0.0,0.313,0.379,1.175,1.438,1.206,0.851,0.642
-0.075,0.357,0.432,-0.141,-0.253,0.394,-0.336,-1.144,-0.35,0.251,0.503,0.543
-0.268,0.127,0.395,0.07,-0.332,0.261,-1.076,-2.108,-1.25,-0.538,-0.039,0.252
-0.218,-0.127,0.091,0.172,-0.154,-0.018,-0.951,-1.252,-0.877,-0.607,-0.282,0.033
-0.171,-0.151,0.02,0.161,-0.095,-0.066,-0.557,-0.722,-0.55,-0.466,-0.286,-0.013
-0.117,-0.11,0.008,0.113,-0.062,-0.051,-0.251,-0.269,-0.234,-0.265,-0.203,-0.003
-0.117,-0.119,-0.002,0.118,-0.057,-0.06,-0.111,-0.121,-0.138,-0.196,-0.164,-0.015
-0.102,-0.112,-0.01,0.108,-0.046,-0.061,-0.073,-0.07,-0.088,-0.155,-0.147,-0.013
-0.094,-0.121,-0.027,0.108,-0.033,-0.073,-0.038,-0.011,-0.062,-0.12,-0.136,-0.013
-0.085,-0.119,-0.034,0.102,-0.026,-0.076,-0.029,0.002,-0.054,-0.102,-0.125,-0.004
-0.073,-0.121,-0.048,0.097,-0.012,-0.084,-0.005,0.024,-0.023,-0.088,-0.115,0.003
-0.064,-0.107,-0.044,0.086,-0.01,-0.075,0.007,0.026,-0.016,-0.08,-0.106,0.009
-0.052,-0.096,-0.044,0.074,-0.004,-0.069,0.015,0.048,-0.004,-0.064,-0.098,0.017
-0.064,-0.103,-0.039,0.083,-0.012,-0.071,0.023,0.056,0.012,-0.054,-0.088,0.019
-0.052,-0.093,-0.041,0.072,-0.005,-0.067,0.03,0.078,0.037,-0.03,-0.075,0.006
-0.052,-0.094,-0.042,0.073,-0.005,-0.067,0.038,0.09,0.05,0.001,-0.063,0.006
-0.022,-0.081,-0.059,0.052,0.019,-0.07,0.041,0.109,0.071,0.026,-0.044,0.022
0.001,-0.048,-0.049,0.024,0.025,-0.048,0.045,0.129,0.088,0.035,-0.033,0.035
-0.009,-0.04,-0.031,0.025,0.012,-0.035,0.055,0.149,0.115,0.045,-0.01,0.043
0.012,-0.031,-0.043,0.01,0.028,-0.037,0.064,0.19,0.154,0.083,0.028,0.069
0.022,0.002,-0.02,-0.012,0.021,-0.009,0.073,0.233,0.197,0.129,0.059,0.098
0.042,0.018,-0.025,-0.03,0.033,-0.003,0.081,0.276,0.256,0.181,0.091,0.112
0.074,0.039,-0.035,-0.056,0.054,0.002,0.08,0.321,0.31,0.23,0.125,0.14
0.093,0.082,-0.011,-0.087,0.052,0.035,0.076,0.349,0.359,0.284,0.183,0.175
0.109,0.095,-0.014,-0.101,0.061,0.04,0.073,0.36,0.401,0.332,0.225,0.206
0.121,0.114,-0.007,-0.117,0.064,0.054,0.069,0.351,0.42,0.349,0.255,0.219
0.138,0.159,0.02,-0.149,0.059,0.089,0.066,0.348,0.431,0.381,0.287,0.241
0.146,0.176,0.03,-0.161,0.058,0.102,0.065,0.326,0.423,0.373,0.286,0.257
0.076,0.146,0.071,-0.111,0.002,0.108,0.064,0.275,0.363,0.326,0.269,0.241
0.031,0.121,0.09,-0.077,-0.029,0.105,0.06,0.219,0.273,0.256,0.212,0.207
0.018,0.093,0.076,-0.056,-0.029,0.084,0.06,0.15,0.185,0.156,0.143,0.158
-0.048,0.029,0.077,0.009,-0.063,0.053,0.058,0.09,0.1,0.064,0.066,0.106
-0.083,-0.018,0.065,0.051,-0.074,0.023,0.052,0.048,0.036,-0.009,0.006,0.058
-0.084,-0.035,0.049,0.059,-0.066,0.007,0.048,0.022,-0.001,-0.031,-0.018,0.03
-0.094,-0.054,0.04,0.074,-0.067,-0.007,0.043,-0.009,-0.02,-0.053,-0.054,0.02
-0.119,-0.083,0.037,0.101,-0.078,-0.023,0.039,-0.028,-0.029,-0.072,-0.065,0.01
-0.121,-0.088,0.033,0.104,-0.076,-0.028,0.034,-0.045,-0.054,-0.087,-0.074,0.005
-0.103,-0.075,0.027,0.089,-0.065,-0.024,0.028,-0.062,-0.067,-0.103,-0.087,0.003
-0.112,-0.09,0.023,0.101,-0.067,-0.033,0.044,-0.059,-0.062,-0.094,-0.084,-0.001
-0.136,-0.118,0.019,0.127,-0.077,-0.049,0.047,-0.06,-0.06,-0.093,-0.086,-0.003
-0.129,-0.116,0.013,0.122,-0.071,-0.051,0.036,-0.06,-0.056,-0.088,-0.085,-0.005
-0.125,-0.113,0.011,0.119,-0.068,-0.051,0.031,-0.06,-0.055,-0.085,-0.085,-0.015
-0.136,-0.122,0.015,0.129,-0.075,-0.053,0.022,-0.057,-0.052,-0.081,-0.081,-0.018
-0.117,-0.104,0.014,0.11,-0.065,-0.045,0.017,-0.049,-0.046,-0.069,-0.074,-0.005
-0.067,-0.064,0.003,0.066,-0.035,-0.03,0.021,-0.043,-0.042,-0.061,-0.071,0.0
-0.055,-0.052,0.003,0.054,-0.029,-0.024,0.031,-0.036,-0.038,-0.049,-0.064,0.012
-0.041,-0.049,-0.008,0.046,-0.017,-0.028,0.033,-0.029,-0.033,-0.045,-0.058,0.015
-0.049,-0.04,0.009,0.044,-0.029,-0.015,0.029,-0.025,-0.029,-0.045,-0.056,0.017
-0.072,-0.035,0.037,0.053,-0.054,0.001,0.027,-0.026,-0.032,-0.045,-0.061,0.034
-0.038,-0.029,0.008,0.033,-0.023,-0.01,0.024,-0.023,-0.027,-0.045,-0.065,0.031
-0.048,-0.031,0.017,0.039,-0.032,-0.007,0.021,-0.02,-0.041,-0.044,-0.062,0.024
-0.052,-0.027,0.025,0.039,-0.038,-0.001,0.019,-0.019,-0.057,-0.049,-0.058,0.02
-0.037,-0.025,0.012,0.03,-0.024,-0.006,0.015,-0.028,-0.054,-0.055,-0.054,0.013
-0.033,-0.025,0.008,0.029,-0.02,-0.008,0.007,-0.038,-0.057,-0.055,-0.051,0.009
-0.027,-0.025,0.002,0.026,-0.014,-0.011,0.001,-0.034,-0.061,-0.055,-0.045,0.005
-0.016,-0.025,-0.009,0.021,-0.003,-0.017,-0.006,-0.037,-0.06,-0.055,-0.047,0.005
-0.018,-0.025,-0.007,0.022,-0.005,-0.016,-0.013,-0.052,-0.06,-0.063,-0.063,0.005
-0.047,-0.024,0.023,0.035,-0.034,-0.001,-0.012,-0.056,-0.072,-0.066,-0.066,0.004
-0.054,-0.029,0.025,0.041,-0.039,-0.002,0.002,-0.054,-0.075,-0.064,-0.064,0.006
-0.057,-0.042,0.015,0.049,-0.036,-0.013,0.01,-0.055,-0.069,-0.065,-0.062,0.0
-0.04,-0.038,0.002,0.039,-0.021,-0.018,0.013,-0.055,-0.067,-0.065,-0.059,0.003
-0.033,-0.038,-0.005,0.036,-0.014,-0.021,0.017,-0.055,-0.062,-0.065,-0.061,0.023
-0.022,-0.033,-0.011,0.027,-0.005,-0.022,0.02,-0.059,-0.06,-0.061,-0.064,0.025
-0.009,-0.038,-0.029,0.024,0.011,-0.033,0.025,-0.06,-0.055,-0.06,-0.067,0.018
-0.04,-0.053,-0.014,0.047,-0.013,-0.033,0.023,-0.06,-0.055,-0.059,-0.07,0.015
-0.047,-0.025,0.023,0.036,-0.035,-0.001,0.02,-0.06,-0.054,-0.056,-0.071,0.01
-0.045,-0.019,0.026,0.032,-0.035,0.003,0.017,-0.059,-0.05,-0.055,-0.084,0.006
-0.046,-0.034,0.011,0.04,-0.029,-0.011,0.014,-0.063,-0.049,-0.055,-0.091,0.001
-0.038,-0.028,0.011,0.033,-0.024,-0.009,0.011,-0.065,-0.053,-0.055,-0.09,-0.004
-0.042,-0.03,0.012,0.036,-0.027,-0.009,0.01,-0.065,-0.062,-0.055,-0.088,-0.009
-0.019,-0.043,-0.024,0.031,0.003,-0.033,0.016,-0.065,-0.061,-0.067,-0.084,-0.012
-0.023,-0.054,-0.031,0.038,0.005,-0.042,0.021,-0.066,-0.055,-0.069,-0.086,-0.018
-0.046,-0.044,0.002,0.045,-0.023,-0.021,0.028,-0.065,-0.051,-0.06,-0.081,-0.019
-0.046,-0.035,0.011,0.04,-0.029,-0.012,0.032,-0.055,-0.046,-0.057,-0.075,-0.01
-0.086,-0.059,0.028,0.072,-0.057,-0.015,0.04,-0.043,-0.041,-0.048,-0.067,-0.002
-0.08,-0.061,0.019,0.07,-0.049,-0.021,0.047,-0.032,-0.042,-0.046,-0.061,0.007
-0.049,-0.046,0.003,0.047,-0.026,-0.021,0.03,-0.03,-0.046,-0.049,-0.054,0.007
-0.043,-0.056,-0.013,0.05,-0.015,-0.034,0.013,-0.03,-0.044,-0.05,-0.05,0.002
-0.022,-0.055,-0.033,0.039,0.006,-0.044,0.004,-0.04,-0.045,-0.055,-0.057,-0.001
-0.027,-0.064,-0.037,0.046,0.005,-0.05,-0.003,-0.062,-0.052,-0.053,-0.057,-0.004
0.001,-0.062,-0.063,0.031,0.033,-0.063,-0.008,-0.071,-0.069,-0.065,-0.073,-0.009
-0.002,-0.078,-0.076,0.04,0.037,-0.077,-0.017,-0.087,-0.085,-0.067,-0.075,-0.011
-0.014,-0.085,-0.071,0.05,0.029,-0.077,-0.021,-0.077,-0.082,-0.078,-0.083,-0.019
-0.025,-0.087,-0.062,0.056,0.019,-0.075,-0.025,-0.106,-0.094,-0.103,-0.102,-0.028
-0.089,-0.148,-0.059,0.119,-0.015,-0.103,-0.018,-0.103,-0.108,-0.098,-0.099,-0.03
-0.079,-0.13,-0.051,0.105,-0.014,-0.09,-0.021,-0.11,-0.121,-0.102,-0.107,-0.031
-0.067,-0.105,-0.038,0.087,-0.014,-0.072,-0.021,-0.105,-0.103,-0.103,-0.106,-0.029
-0.086,-0.104,-0.018,0.095,-0.034,-0.061,-0.017,-0.086,-0.112,-0.111,-0.114,-0.032
-0.108,-0.107,0.001,0.108,-0.055,-0.053,-0.026,-0.115,-0.096,-0.088,-0.104,-0.028
-0.109,-0.162,-0.053,0.136,-0.027,-0.108,0.115,0.132,-0.044,-0.115,-0.139,-0.078
-0.047,-0.011,0.036,0.029,-0.041,0.013,0.284,0.613,0.41,0.188,0.027,0.013
0.178,0.308,0.13,-0.243,0.024,0.219,0.432,1.499,1.498,1.054,0.618,0.399
0.224,0.462,0.238,-0.344,-0.007,0.35,0.243,0.674,1.03,1.032,0.84,0.612
-0.106,0.341,0.448,-0.118,-0.277,0.394,-0.649,-1.741,-0.772,0.014,0.42,0.482
-0.211,0.047,0.257,0.082,-0.234,0.152,-1.141,-1.918,-1.145,-0.521,-0.036,0.21
-0.159,-0.129,0.03,0.144,-0.094,-0.05,-0.811,-1.024,-0.73,-0.523,-0.219,0.022
-0.146,-0.126,0.021,0.136,-0.083,-0.052,-0.414,-0.549,-0.427,-0.353,-0.194,0.013
-0.105,-0.111,-0.006,0.108,-0.049,-0.058,-0.157,-0.152,-0.176,-0.202,-0.153,-0.005
-0.08,-0.106,-0.026,0.093,-0.027,-0.066,-0.069,-0.087,-0.115,-0.156,-0.115,-0.03
-0.033,-0.099,-0.066,0.066,0.016,-0.082,-0.042,-0.01,-0.06,-0.109,-0.097,-0.035
-0.053,-0.096,-0.043,0.075,-0.005,-0.069,-0.015,0.018,-0.041,-0.084,-0.09,-0.037
-0.076,-0.092,-0.016,0.084,-0.03,-0.054,-0.006,0.048,-0.028,-0.066,-0.076,-0.033
-0.048,-0.085,-0.037,0.066,-0.005,-0.061,0.012,0.057,-0.021,-0.053,-0.069,-0.033
-0.046,-0.096,-0.05,0.071,0.002,-0.073,0.022,0.058,-0.021,-0.043,-0.057,-0.027
-0.06,-0.107,-0.047,0.084,-0.006,-0.077,0.036,0.088,-0.013,-0.032,-0.051,-0.037
-0.059,-0.1,-0.041,0.079,-0.009,-0.07,0.034,0.084,0.0,-0.02,-0.045,-0.039
-0.056,-0.096,-0.04,0.076,-0.008,-0.068,0.036,0.109,0.03,0.003,-0.033,-0.018
-0.055,-0.089,-0.033,0.073,-0.011,-0.061,0.045,0.122,0.049,0.023,-0.012,-0.009
-0.043,-0.084,-0.041,0.064,-0.001,-0.062,0.055,0.142,0.063,0.04,0.003,-0.002
-0.021,-0.079,-0.057,0.05,0.018,-0.068,0.064,0.162,0.092,0.062,0.019,0.009
-0.019,-0.077,-0.058,0.048,0.02,-0.067,0.064,0.187,0.124,0.086,0.033,0.012
-0.005,-0.061,-0.056,0.033,0.025,-0.058,0.071,0.231,0.162,0.118,0.067,0.042
0.025,-0.028,-0.054,0.002,0.04,-0.041,0.066,0.261,0.207,0.156,0.096,0.067
0.036,-0.001,-0.037,-0.017,0.036,-0.018,0.077,0.302,0.25,0.198,0.126,0.078
0.057,0.025,-0.033,-0.041,0.045,-0.004,0.102,0.355,0.314,0.266,0.185,0.115
0.086,0.082,-0.004,-0.084,0.044,0.039,0.1,0.387,0.379,0.322,0.225,0.148
0.099,0.113,0.014,-0.106,0.042,0.063,0.1,0.395,0.409,0.364,0.271,0.174
0.123,0.114,-0.009,-0.118,0.066,0.053,0.1,0.386,0.429,0.392,0.311,0.207
0.139,0.169,0.031,-0.154,0.054,0.1,0.063,0.374,0.433,0.397,0.322,0.223
0.128,0.167,0.039,-0.148,0.044,0.103,0.047,0.34,0.4,0.39,0.319,0.219
0.123,0.149,0.026,-0.136,0.048,0.088,0.06,0.283,0.349,0.337,0.291,0.202
0.097,0.128,0.031,-0.113,0.033,0.079,0.058,0.215,0.264,0.254,0.231,0.166
0.036,0.059,0.022,-0.048,0.007,0.04,0.074,0.144,0.177,0.173,0.162,0.117
-0.001,0.023,0.024,-0.012,-0.013,0.023,0.079,0.093,0.102,0.093,0.102,0.063
-0.041,-0.024,0.016,0.032,-0.028,-0.004,0.067,0.057,0.035,0.031,0.042,0.021
-0.059,-0.039,0.02,0.049,-0.039,-0.01,0.064,0.023,-0.004,-0.01,0.0,-0.007
-0.067,-0.058,0.009,0.062,-0.038,-0.024,0.055,0.004,-0.033,-0.035,-0.023,-0.024
-0.119,-0.091,0.028,0.105,-0.073,-0.031,0.05,-0.012,-0.051,-0.052,-0.038,-0.037
-0.085,-0.071,0.013,0.078,-0.049,-0.029,0.046,-0.028,-0.056,-0.056,-0.047,-0.045
-0.076,-0.092,-0.016,0.084,-0.03,-0.053,0.043,-0.036,-0.059,-0.054,-0.051,-0.045
-0.106,-0.109,-0.003,0.108,-0.051,-0.056,0.04,-0.035,-0.062,-0.055,-0.05,-0.045
-0.067,-0.103,-0.035,0.085,-0.016,-0.068,0.037,-0.035,-0.066,-0.055,-0.05,-0.045
-0.095,-0.107,-0.011,0.101,-0.041,-0.059,0.034,-0.035,-0.069,-0.054,-0.05,-0.045
-0.133,-0.104,0.029,0.118,-0.081,-0.037,0.037,-0.035,-0.072,-0.049,-0.05,-0.045
-0.131,-0.105,0.026,0.118,-0.078,-0.039,0.041,-0.04,-0.075,-0.046,-0.046,-0.041
-0.093,-0.099,-0.006,0.096,-0.043,-0.053,0.04,-0.04,-0.078,-0.043,-0.045,-0.04
-0.068,-0.092,-0.024,0.08,-0.022,-0.058,0.04,-0.035,-0.08,-0.038,-0.045,-0.04
-0.087,-0.087,0.0,0.087,-0.043,-0.043,0.04,-0.033,-0.078,-0.035,-0.045,-0.04
-0.056,-0.078,-0.022,0.067,-0.017,-0.05,0.04,-0.028,-0.073,-0.035,-0.046,-0.04
-0.05,-0.074,-0.023,0.062,-0.013,-0.048,0.04,-0.025,-0.071,-0.036,-0.042,-0.042
-0.063,-0.068,-0.005,0.065,-0.029,-0.037,0.04,-0.028,-0.075,-0.034,-0.04,-0.045
-0.062,-0.073,-0.011,0.068,-0.025,-0.042,0.04,-0.031,-0.075,-0.036,-0.04,-0.048
-0.104,-0.096,0.008,0.099,-0.056,-0.043,0.04,-0.029,-0.076,-0.034,-0.04,-0.051
-0.097,-0.102,-0.005,0.1,-0.046,-0.054,0.04,-0.033,-0.081,-0.037,-0.04,-0.054
-0.063,-0.103,-0.04,0.083,-0.011,-0.071,0.038,-0.043,-0.079,-0.043,-0.04,-0.055
-0.068,-0.107,-0.039,0.088,-0.014,-0.073,0.032,-0.047,-0.082,-0.047,-0.04,-0.055
-0.076,-0.11,-0.034,0.093,-0.021,-0.071,0.027,-0.054,-0.089,-0.053,-0.043,-0.055
-0.079,-0.109,-0.03,0.094,-0.025,-0.069,0.024,-0.054,-0.095,-0.055,-0.05,-0.054
-0.08,-0.105,-0.025,0.093,-0.027,-0.065,0.019,-0.07,-0.1,-0.07,-0.049,-0.056
-0.082,-0.103,-0.021,0.093,-0.03,-0.062,0.015,-0.083,-0.104,-0.076,-0.053,-0.053
-0.084,-0.099,-0.015,0.092,-0.034,-0.057,0.015,-0.079,-0.109,-0.068,-0.062,-0.065
-0.081,-0.097,-0.016,0.089,-0.032,-0.056,0.015,-0.078,-0.108,-0.068,-0.057,-0.081
-0.082,-0.095,-0.013,0.089,-0.034,-0.054,0.015,-0.074,-0.105,-0.061,-0.054,-0.073
-0.068,-0.091,-0.022,0.08,-0.023,-0.056,0.015,-0.075,-0.105,-0.06,-0.051,-0.069
-0.047,-0.082,-0.035,0.065,-0.006,-0.058,0.015,-0.075,-0.105,-0.06,-0.046,-0.063
-0.048,-0.076,-0.028,0.062,-0.01,-0.052,0.017,-0.075,-0.105,-0.059,-0.046,-0.057
-0.05,-0.07,-0.02,0.06,-0.015,-0.045,0.021,-0.075,-0.105,-0.064,-0.05,-0.055
-0.047,-0.062,-0.015,0.055,-0.015,-0.039,0.019,-0.075,-0.11,-0.065,-0.052,-0.055
-0.074,-0.08,-0.006,0.077,-0.034,-0.043,0.015,-0.075,-0.11,-0.065,-0.055,-0.055
-0.092,-0.097,-0.005,0.095,-0.043,-0.051,0.01,-0.074,-0.111,-0.065,-0.058,-0.055
-0.072,-0.094,-0.022,0.084,-0.024,-0.058,0.005,-0.085,-0.115,-0.065,-0.061,-0.055
-0.071,-0.094,-0.023,0.083,-0.023,-0.059,0.002,-0.091,-0.115,-0.064,-0.06,-0.054
-0.075,-0.09,-0.015,0.083,-0.03,-0.052,-0.004,-0.09,-0.113,-0.07,-0.06,-0.063
-0.076,-0.09,-0.014,0.083,-0.031,-0.052,-0.003,-0.09,-0.106,-0.078,-0.06,-0.068
-0.084,-0.09,-0.006,0.087,-0.039,-0.048,0.004,-0.09,-0.101,-0.074,-0.06,-0.063
-0.082,-0.09,-0.008,0.086,-0.037,-0.048,0.011,-0.09,-0.096,-0.071,-0.061,-0.057
-0.065,-0.091,-0.026,0.078,-0.019,-0.058,0.017,-0.084,-0.09,-0.068,-0.058,-0.054
-0.059,-0.089,-0.031,0.074,-0.014,-0.06,0.024,-0.073,-0.086,-0.064,-0.056,-0.049
-0.061,-0.091,-0.03,0.076,-0.016,-0.06,0.032,-0.062,-0.079,-0.06,-0.051,-0.045
-0.038,-0.068,-0.031,0.053,-0.003,-0.049,0.036,-0.051,-0.081,-0.056,-0.052,-0.056
-0.005,-0.035,-0.029,0.02,0.012,-0.032,0.052,-0.032,-0.073,-0.048,-0.036,-0.044
0.022,-0.009,-0.031,-0.007,0.026,-0.02,0.055,-0.024,-0.034,-0.045,-0.006,-0.027
0.029,-0.006,-0.035,-0.011,0.033,-0.02,0.032,-0.025,-0.031,-0.045,-0.008,-0.031
0.024,-0.029,-0.053,0.003,0.039,-0.041,0.013,-0.033,-0.065,-0.042,-0.016,-0.033
0.024,-0.031,-0.056,0.004,0.04,-0.043,-0.004,-0.066,-0.075,-0.041,-0.022,-0.036
0.028,-0.049,-0.077,0.011,0.053,-0.063,-0.013,-0.064,-0.08,-0.038,-0.031,-0.034
0.016,-0.078,-0.093,0.031,0.055,-0.085,-0.026,-0.081,-0.088,-0.05,-0.038,-0.036
-0.009,-0.074,-0.064,0.042,0.028,-0.069,-0.027,-0.102,-0.081,-0.066,-0.043,-0.052
-0.016,-0.072,-0.056,0.045,0.02,-0.064,-0.02,-0.103,-0.103,-0.08,-0.05,-0.056
-0.026,-0.069,-0.043,0.047,0.009,-0.055,-0.02,-0.113,-0.112,-0.084,-0.051,-0.056
-0.033,-0.071,-0.038,0.052,0.002,-0.054,-0.009,-0.1,-0.105,-0.086,-0.058,-0.062
-0.047,-0.093,-0.046,0.07,0.0,-0.069,-0.013,-0.125,-0.107,-0.085,-0.067,-0.057
-0.058,-0.113,-0.054,0.086,-0.002,-0.083,0.005,-0.077,-0.095,-0.085,-0.075,-0.057
-0.088,-0.106,-0.018,0.097,-0.035,-0.062,-0.003,-0.122,-0.102,-0.085,-0.076,-0.046
-0.086,-0.123,-0.037,0.105,-0.024,-0.08,0.067,0.014,-0.087,-0.097,-0.09,-0.081
-0.041,-0.045,-0.004,0.043,-0.018,-0.024,0.246,0.358,0.106,-0.022,-0.064,-0.093
0.131,0.244,0.113,-0.187,0.009,0.178,0.4,1.182,1.093,0.717,0.408,0.223
0.311,0.449,0.137,-0.38,0.087,0.293,0.441,1.368,1.481,1.24,0.892,0.563
0.067,0.45,0.383,-0.259,-0.158,0.416,-0.221,-0.906,-0.128,0.434,0.665,0.553
-0.155,0.248,0.403,-0.047,-0.279,0.325,-1.035,-2.168,-1.164,-0.38,0.18,0.34
-0.102,-0.02,0.082,0.06,-0.092,0.031,-0.949,-1.317,-0.853,-0.518,-0.121,0.08
-0.088,-0.089,-0.001,0.089,-0.043,-0.045,-0.513,-0.718,-0.529,-0.418,-0.171,-0.023
-0.073,-0.077,-0.004,0.075,-0.034,-0.04,-0.213,-0.274,-0.241,-0.241,-0.117,-0.034
-0.052,-0.074,-0.022,0.063,-0.014,-0.048,-0.069,-0.095,-0.131,-0.169,-0.107,-0.057
-0.06,-0.064,-0.004,0.062,-0.028,-0.034,-0.032,-0.048,-0.09,-0.117,-0.072,-0.041
-0.046,-0.06,-0.014,0.053,-0.016,-0.037,0.004,0.003,-0.07,-0.091,-0.058,-0.051
-0.007,-0.053,-0.046,0.03,0.02,-0.049,0.022,0.017,-0.066,-0.078,-0.049,-0.056
-0.003,-0.049,-0.046,0.027,0.022,-0.047,0.044,0.059,-0.018,-0.045,-0.028,-0.039
0.0,-0.043,-0.043,0.022,0.022,-0.043,0.046,0.055,-0.016,-0.033,-0.024,-0.028
0.002,-0.04,-0.042,0.019,0.022,-0.041,0.059,0.067,-0.004,-0.018,-0.013,-0.022
0.004,-0.035,-0.039,0.016,0.022,-0.037,0.067,0.085,-0.001,-0.004,-0.003,-0.019
0.01,-0.03,-0.04,0.01,0.025,-0.035,0.075,0.111,0.018,0.01,0.009,-0.015
0.008,-0.026,-0.034,0.01,0.021,-0.03,0.084,0.126,0.054,0.024,0.029,-0.007
0.017,-0.014,-0.031,-0.001,0.024,-0.022,0.077,0.145,0.07,0.047,0.034,0.0
0.022,-0.006,-0.028,-0.008,0.025,-0.016,0.092,0.16,0.088,0.067,0.054,0.011
0.029,0.005,-0.023,-0.016,0.026,-0.009,0.095,0.185,0.105,0.081,0.067,0.017
0.035,0.015,-0.02,-0.025,0.027,-0.002,0.095,0.211,0.136,0.098,0.07,0.022
0.056,0.028,-0.028,-0.042,0.042,0.0,0.107,0.252,0.185,0.146,0.112,0.045
0.091,0.066,-0.025,-0.078,0.058,0.02,0.11,0.304,0.24,0.206,0.156,0.073
0.113,0.096,-0.017,-0.104,0.065,0.039,0.105,0.343,0.288,0.244,0.186,0.093
0.141,0.13,-0.011,-0.135,0.076,0.059,0.101,0.385,0.334,0.294,0.233,0.126
0.171,0.171,0.0,-0.171,0.085,0.085,0.097,0.402,0.384,0.35,0.288,0.17
0.194,0.204,0.01,-0.199,0.092,0.107,0.091,0.396,0.406,0.382,0.313,0.187
0.206,0.217,0.01,-0.211,0.098,0.113,0.092,0.394,0.415,0.407,0.351,0.21
0.212,0.221,0.009,-0.216,0.102,0.115,0.095,0.385,0.41,0.416,0.368,0.237
0.181,0.233,0.053,-0.207,0.064,0.143,0.095,0.334,0.365,0.38,0.332,0.226
0.146,0.221,0.076,-0.184,0.035,0.148,0.095,0.265,0.289,0.303,0.295,0.191
0.125,0.18,0.055,-0.152,0.034,0.117,0.096,0.2,0.208,0.206,0.223,0.146
0.061,0.114,0.054,-0.088,0.003,0.084,0.097,0.143,0.131,0.121,0.149,0.104
0.012,0.067,0.055,-0.04,-0.022,0.061,0.095,0.101,0.066,0.058,0.098,0.054
-0.004,0.051,0.055,-0.024,-0.03,0.052,0.095,0.068,0.022,0.004,0.042,0.013
-0.009,0.046,0.055,-0.019,-0.032,0.05,0.091,0.049,-0.012,-0.03,0.016,-0.007
0.004,0.043,0.039,-0.024,-0.018,0.04,0.089,0.033,-0.019,-0.036,0.008,-0.018
0.027,0.029,0.002,-0.028,0.012,0.015,0.09,0.02,-0.033,-0.035,-0.002,-0.023
0.029,0.018,-0.011,-0.023,0.02,0.004,0.084,0.015,-0.053,-0.043,-0.017,-0.034
0.002,0.004,0.001,-0.003,0.0,0.002,0.077,0.01,-0.049,-0.051,-0.027,-0.036
-0.028,-0.024,0.004,0.025,-0.016,-0.009,0.071,0.004,-0.053,-0.053,-0.023,-0.034
-0.052,-0.037,0.015,0.044,-0.033,-0.011,0.064,-0.001,-0.056,-0.057,-0.021,-0.036
-0.042,-0.035,0.008,0.038,-0.025,-0.013,0.058,-0.007,-0.055,-0.06,-0.017,-0.035
-0.032,-0.034,-0.002,0.033,-0.015,-0.018,0.052,-0.012,-0.052,-0.057,-0.016,-0.035
-0.031,-0.046,-0.015,0.039,-0.007,-0.03,0.048,-0.011,-0.045,-0.054,-0.01,-0.038
-0.025,-0.049,-0.023,0.037,-0.001,-0.036,0.045,-0.009,-0.04,-0.051,-0.023,-0.041
-0.091,-0.059,0.032,0.075,-0.061,-0.013,0.042,-0.006,-0.035,-0.049,-0.043,-0.04
-0.118,-0.077,0.041,0.097,-0.079,-0.018,0.037,-0.004,-0.027,-0.044,-0.039,-0.04
-0.07,-0.075,-0.005,0.072,-0.032,-0.04,0.034,-0.002,-0.03,-0.05,-0.041,-0.041
-0.099,-0.08,0.019,0.089,-0.059,-0.03,0.039,0.001,-0.034,-0.06,-0.04,-0.046
-0.094,-0.08,0.014,0.087,-0.054,-0.033,0.04,-0.002,-0.043,-0.061,-0.04,-0.051
-0.083,-0.083,0.0,0.083,-0.042,-0.041,0.033,-0.008,-0.065,-0.059,-0.04,-0.053
-0.117,-0.092,0.025,0.104,-0.071,-0.033,0.03,-0.017,-0.066,-0.062,-0.04,-0.066
-0.08,-0.095,-0.014,0.088,-0.032,-0.054,0.025,-0.021,-0.064,-0.074,-0.04,-0.076
-0.076,-0.096,-0.02,0.086,-0.027,-0.058,0.02,-0.03,-0.07,-0.076,-0.042,-0.074
-0.1,-0.094,0.006,0.097,-0.053,-0.044,0.016,-0.055,-0.075,-0.074,-0.067,-0.079
-0.125,-0.096,0.029,0.111,-0.077,-0.033,0.015,-0.061,-0.075,-0.076,-0.077,-0.08
-0.138,-0.094,0.044,0.116,-0.091,-0.025,0.015,-0.062,-0.074,-0.074,-0.071,-0.08
-0.123,-0.097,0.027,0.11,-0.075,-0.035,0.015,-0.067,-0.076,-0.076,-0.071,-0.08
-0.128,-0.096,0.032,0.112,-0.08,-0.032,0.015,-0.069,-0.074,-0.085,-0.066,-0.08
-0.117,-0.106,0.011,0.111,-0.064,-0.047,0.013,-0.071,-0.079,-0.094,-0.065,-0.08
-0.132,-0.116,0.017,0.124,-0.074,-0.049,0.007,-0.069,-0.081,-0.095,-0.065,-0.08
-0.147,-0.094,0.053,0.12,-0.099,-0.021,-0.004,-0.07,-0.08,-0.095,-0.067,-0.08
-0.118,-0.08,0.038,0.099,-0.078,-0.021,0.003,-0.07,-0.079,-0.095,-0.071,-0.08
-0.105,-0.078,0.027,0.092,-0.066,-0.025,0.018,-0.07,-0.075,-0.095,-0.068,-0.08
-0.083,-0.063,0.02,0.073,-0.051,-0.021,0.015,-0.07,-0.075,-0.094,-0.065,-0.08
-0.047,-0.037,0.01,0.042,-0.028,-0.014,0.014,-0.068,-0.073,-0.09,-0.063,-0.077
-0.059,-0.03,0.029,0.044,-0.044,0.0,0.016,-0.063,-0.067,-0.087,-0.059,-0.072
-0.065,-0.028,0.037,0.046,-0.051,0.004,0.013,-0.06,-0.062,-0.085,-0.063,-0.069
-0.071,-0.04,0.031,0.056,-0.051,-0.005,0.022,-0.057,-0.059,-0.081,-0.065,-0.066
-0.081,-0.051,0.029,0.066,-0.055,-0.011,0.036,-0.052,-0.054,-0.08,-0.068,-0.061
-0.057,-0.033,0.023,0.044,-0.04,-0.005,0.035,-0.05,-0.05,-0.077,-0.071,-0.061
-0.049,-0.026,0.023,0.038,-0.036,-0.002,0.033,-0.055,-0.056,-0.071,-0.074,-0.065
-0.029,-0.016,0.014,0.022,-0.021,-0.001,0.03,-0.053,-0.058,-0.066,-0.076,-0.065
-0.017,-0.013,0.004,0.015,-0.011,-0.004,0.03,-0.049,-0.054,-0.062,-0.065,-0.065
-0.026,-0.033,-0.007,0.03,-0.009,-0.02,0.032,-0.051,-0.055,-0.058,-0.057,-0.065
-0.028,-0.025,0.003,0.026,-0.015,-0.011,0.036,-0.049,-0.055,-0.054,-0.062,-0.065
-0.025,0.004,0.029,0.011,-0.027,0.016,0.034,-0.05,-0.055,-0.069,-0.064,-0.061
-0.007,0.011,0.018,-0.002,-0.013,0.014,0.035,-0.05,-0.055,-0.079,-0.061,-0.054
-0.019,-0.003,0.016,0.011,-0.017,0.006,0.035,-0.04,-0.045,-0.07,-0.057,-0.048
-0.015,-0.007,0.007,0.011,-0.011,0.0,0.034,-0.024,-0.029,-0.062,-0.054,-0.04
0.02,0.028,0.008,-0.025,0.006,0.018,0.058,-0.011,-0.02,-0.053,-0.049,-0.037
0.032,0.064,0.032,-0.049,0.0,0.048,0.062,-0.004,-0.02,-0.041,-0.046,-0.04
0.055,0.055,0.0,-0.055,0.027,0.027,0.044,0.015,-0.012,-0.035,-0.045,-0.04
0.065,0.043,-0.022,-0.054,0.043,0.01,0.032,0.018,-0.008,-0.034,-0.045,-0.042
0.037,0.021,-0.017,-0.029,0.027,0.002,0.02,-0.004,-0.024,-0.028,-0.045,-0.046
0.029,-0.007,-0.036,-0.01,0.033,-0.021,0.008,-0.031,-0.037,-0.038,-0.045,-0.044
0.034,-0.017,-0.051,-0.009,0.043,-0.034,-0.002,-0.039,-0.052,-0.061,-0.055,-0.05
0.013,-0.035,-0.048,0.011,0.031,-0.041,-0.024,-0.066,-0.075,-0.086,-0.066,-0.061
0.003,-0.033,-0.037,0.015,0.021,-0.035,-0.032,-0.084,-0.074,-0.091,-0.069,-0.066
-0.01,-0.039,-0.029,0.024,0.01,-0.034,-0.02,-0.075,-0.075,-0.089,-0.07,-0.064
-0.046,-0.063,-0.017,0.055,-0.014,-0.039,-0.018,-0.087,-0.076,-0.097,-0.078,-0.073
-0.048,-0.065,-0.017,0.057,-0.016,-0.041,-0.006,-0.063,-0.073,-0.106,-0.087,-0.087
-0.051,-0.057,-0.005,0.054,-0.023,-0.031,-0.006,-0.091,-0.078,-0.105,-0.084,-0.083
-0.052,-0.059,-0.007,0.056,-0.022,-0.032,0.009,-0.054,-0.064,-0.103,-0.086,-0.083
-0.055,-0.048,0.007,0.051,-0.031,-0.02,-0.003,-0.091,-0.078,-0.107,-0.084,-0.076
-0.05,-0.055,-0.005,0.053,-0.023,-0.03,0.042,-0.007,-0.051,-0.107,-0.101,-0.094
-0.043,-0.047,-0.004,0.045,-0.019,-0.025,0.211,0.312,0.073,-0.08,-0.122,-0.116
0.085,0.19,0.105,-0.138,-0.01,0.147,0.347,1.02,0.937,0.554,0.278,0.132
0.327,0.474,0.147,-0.401,0.09,0.31,0.446,1.489,1.61,1.236,0.836,0.518
0.137,0.5,0.363,-0.318,-0.114,0.431,-0.031,-0.441,0.208,0.588,0.707,0.568
-0.175,0.281,0.456,-0.053,-0.316,0.368,-0.89,-2.086,-1.109,-0.365,0.166,0.316
-0.133,0.005,0.138,0.063,-0.136,0.072,-1.003,-1.439,-0.922,-0.59,-0.177,0.058
-0.082,-0.059,0.023,0.07,-0.052,-0.018,-0.612,-0.795,-0.57,-0.478,-0.23,-0.046
-0.058,-0.032,0.025,0.045,-0.041,-0.003,-0.284,-0.322,-0.257,-0.284,-0.17,-0.053
-0.018,-0.032,-0.014,0.025,-0.002,-0.022,-0.097,-0.083,-0.102,-0.188,-0.137,-0.057
0.006,-0.013,-0.019,0.004,0.013,-0.016,-0.044,-0.052,-0.061,-0.141,-0.108,-0.054
-0.006,-0.053,-0.046,0.03,0.02,-0.049,0.002,0.031,-0.016,-0.1,-0.099,-0.055
-0.034,-0.042,-0.008,0.038,-0.012,-0.025,0.017,0.037,-0.009,-0.075,-0.087,-0.055
-0.025,-0.012,0.013,0.018,-0.019,0.001,0.024,0.066,0.012,-0.055,-0.079,-0.054
-0.009,-0.022,-0.013,0.016,0.002,-0.017,0.034,0.062,0.015,-0.051,-0.073,-0.048
0.026,-0.012,-0.038,-0.007,0.032,-0.025,0.04,0.077,0.038,-0.039,-0.066,-0.04
0.039,-0.009,-0.049,-0.015,0.044,-0.029,0.046,0.086,0.04,-0.031,-0.044,-0.035
0.033,0.0,-0.033,-0.016,0.033,-0.016,0.044,0.112,0.066,-0.013,-0.012,-0.027
0.017,-0.011,-0.027,-0.003,0.022,-0.019,0.045,0.126,0.092,0.005,-0.007,-0.024
0.029,0.007,-0.022,-0.018,0.026,-0.007,0.045,0.131,0.098,0.009,0.0,-0.026
0.077,0.039,-0.038,-0.057,0.057,0.0,0.045,0.153,0.117,0.033,0.004,-0.022
0.079,0.032,-0.047,-0.055,0.063,-0.008,0.045,0.175,0.141,0.07,0.029,-0.004
0.088,0.053,-0.035,-0.07,0.061,0.009,0.058,0.218,0.189,0.105,0.067,0.019
0.114,0.066,-0.048,-0.09,0.081,0.009,0.06,0.247,0.228,0.134,0.074,0.025
0.124,0.078,-0.047,-0.101,0.085,0.015,0.061,0.284,0.268,0.169,0.104,0.048
0.128,0.111,-0.017,-0.119,0.072,0.047,0.071,0.331,0.327,0.231,0.155,0.086
0.165,0.151,-0.014,-0.158,0.089,0.068,0.07,0.358,0.376,0.285,0.201,0.119
0.197,0.195,-0.002,-0.196,0.099,0.096,0.071,0.382,0.425,0.335,0.25,0.155
0.168,0.195,0.027,-0.182,0.07,0.111,0.069,0.383,0.449,0.369,0.278,0.177
0.199,0.224,0.025,-0.212,0.087,0.124,0.055,0.373,0.437,0.384,0.305,0.207
0.214,0.259,0.045,-0.237,0.084,0.152,0.037,0.358,0.425,0.4,0.324,0.208
0.18,0.234,0.054,-0.207,0.063,0.144,0.034,0.32,0.414,0.372,0.303,0.193
0.158,0.223,0.065,-0.191,0.046,0.144,0.04,0.263,0.359,0.303,0.26,0.18
0.095,0.176,0.081,-0.135,0.007,0.128,0.049,0.207,0.265,0.217,0.202,0.145
0.072,0.13,0.059,-0.101,0.006,0.095,0.056,0.157,0.185,0.129,0.135,0.102
0.059,0.11,0.051,-0.085,0.004,0.08,0.05,0.103,0.105,0.05,0.061,0.049
0.02,0.062,0.042,-0.041,-0.011,0.052,0.045,0.063,0.047,-0.014,0.004,0.002
0.002,0.037,0.035,-0.02,-0.017,0.036,0.04,0.038,0.015,-0.053,-0.033,-0.035
-0.006,0.026,0.031,-0.01,-0.019,0.028,0.033,0.024,-0.009,-0.075,-0.062,-0.047
-0.012,0.024,0.036,-0.006,-0.024,0.03,0.032,0.013,-0.015,-0.076,-0.067,-0.045
-0.008,0.025,0.034,-0.009,-0.021,0.029,0.035,0.004,-0.02,-0.074,-0.064,-0.045
-0.016,0.018,0.034,-0.002,-0.025,0.026,0.035,0.006,-0.023,-0.076,-0.067,-0.046
-0.026,0.021,0.046,0.002,-0.036,0.033,0.037,0.004,-0.026,-0.074,-0.078,-0.051
-0.015,0.018,0.033,-0.002,-0.024,0.025,0.04,-0.001,-0.029,-0.074,-0.081,-0.05
-0.042,-0.017,0.024,0.029,-0.033,0.004,0.04,0.001,-0.031,-0.069,-0.072,-0.05
-0.057,-0.031,0.026,0.043,-0.041,-0.002,0.035,-0.009,-0.035,-0.065,-0.07,-0.05
-0.039,-0.015,0.024,0.027,-0.031,0.004,0.026,-0.016,-0.034,-0.077,-0.065,-0.05
-0.023,0.003,0.026,0.01,-0.025,0.014,0.018,-0.008,-0.029,-0.08,-0.061,-0.05
-0.003,0.021,0.024,-0.009,-0.014,0.022,0.009,-0.005,-0.024,-0.074,-0.063,-0.05
-0.006,0.02,0.026,-0.007,-0.016,0.022,0.004,0.0,-0.02,-0.073,-0.066,-0.05
-0.01,0.02,0.03,-0.005,-0.02,0.025,0.001,0.005,-0.015,-0.066,-0.069,-0.05
-0.01,0.02,0.03,-0.005,-0.02,0.025,-0.002,0.001,-0.01,-0.066,-0.072,-0.05
-0.008,0.02,0.028,-0.006,-0.018,0.024,-0.007,-0.005,-0.017,-0.063,-0.074,-0.05
-0.004,0.019,0.023,-0.008,-0.014,0.021,-0.01,-0.01,-0.036,-0.079,-0.077,-0.052
-0.016,0.011,0.027,0.002,-0.022,0.019,-0.006,-0.016,-0.036,-0.097,-0.08,-0.057
-0.019,0.002,0.021,0.008,-0.02,0.011,-0.005,-0.021,-0.034,-0.094,-0.08,-0.06
-0.008,0.007,0.015,0.0,-0.011,0.011,-0.005,-0.027,-0.045,-0.098,-0.083,-0.065
-0.006,0.018,0.024,-0.006,-0.016,0.021,-0.005,-0.03,-0.039,-0.1,-0.085,-0.065
-0.006,0.012,0.018,-0.003,-0.013,0.015,-0.005,-0.031,-0.049,-0.1,-0.085,-0.066
0.003,0.011,0.008,-0.008,-0.002,0.009,-0.006,-0.029,-0.068,-0.1,-0.08,-0.07
0.017,0.006,-0.011,-0.011,0.014,-0.003,-0.004,-0.033,-0.061,-0.1,-0.083,-0.07
0.004,0.006,0.003,-0.005,0.0,0.004,-0.013,-0.052,-0.058,-0.1,-0.099,-0.067
-0.005,0.02,0.025,-0.008,-0.015,0.022,-0.029,-0.056,-0.055,-0.1,-0.1,-0.065
0.016,0.017,0.001,-0.017,0.008,0.009,-0.03,-0.054,-0.049,-0.099,-0.099,-0.065
0.013,0.007,-0.006,-0.01,0.009,0.0,-0.029,-0.056,-0.057,-0.102,-0.101,-0.065
-0.002,0.0,0.002,0.001,-0.002,0.001,-0.031,-0.055,-0.081,-0.104,-0.099,-0.065
-0.023,-0.008,0.016,0.015,-0.019,0.004,-0.029,-0.055,-0.086,-0.106,-0.102,-0.066
-0.051,-0.024,0.027,0.037,-0.039,0.001,-0.032,-0.06,-0.084,-0.109,-0.105,-0.07
-0.049,-0.032,0.017,0.04,-0.033,-0.007,-0.035,-0.068,-0.089,-0.11,-0.11,-0.078
-0.044,-0.029,0.015,0.036,-0.029,-0.006,-0.037,-0.07,-0.09,-0.124,-0.113,-0.082
-0.048,-0.038,0.01,0.043,-0.029,-0.013,-0.041,-0.07,-0.091,-0.132,-0.118,-0.085
-0.052,-0.048,0.004,0.049,-0.027,-0.022,-0.039,-0.069,-0.094,-0.13,-0.126,-0.095
-0.075,-0.055,0.02,0.065,-0.047,-0.017,-0.045,-0.081,-0.095,-0.129,-0.126,-0.096
-0.093,-0.069,0.025,0.081,-0.059,-0.022,-0.056,-0.091,-0.095,-0.14,-0.122,-0.095
-0.09,-0.076,0.014,0.083,-0.052,-0.031,-0.055,-0.089,-0.095,-0.152,-0.12,-0.094
-0.086,-0.075,0.011,0.08,-0.048,-0.032,-0.054,-0.09,-0.093,-0.149,-0.116,-0.09
-0.072,-0.072,0.0,0.072,-0.035,-0.036,-0.056,-0.09,-0.089,-0.15,-0.114,-0.089
-0.086,-0.07,0.016,0.078,-0.051,-0.027,-0.053,-0.09,-0.091,-0.15,-0.128,-0.096
-0.101,-0.069,0.033,0.085,-0.067,-0.018,-0.06,-0.088,-0.095,-0.15,-0.136,-0.102
-0.105,-0.076,0.028,0.09,-0.066,-0.024,-0.067,-0.084,-0.096,-0.146,-0.129,-0.098
-0.099,-0.074,0.024,0.086,-0.061,-0.025,-0.058,-0.082,-0.094,-0.137,-0.127,-0.096
-0.1,-0.077,0.023,0.088,-0.061,-0.027,-0.05,-0.076,-0.09,-0.129,-0.123,-0.093
-0.092,-0.076,0.016,0.084,-0.054,-0.03,-0.04,-0.075,-0.091,-0.121,-0.12,-0.089
-0.032,-0.035,-0.003,0.033,-0.014,-0.018,-0.034,-0.061,-0.077,-0.113,-0.115,-0.092
-0.033,-0.031,0.002,0.032,-0.018,-0.015,-0.022,-0.052,-0.063,-0.107,-0.113,-0.095
-0.043,-0.038,0.005,0.041,-0.024,-0.016,-0.032,-0.054,-0.066,-0.095,-0.109,-0.095
-0.051,-0.066,-0.015,0.059,-0.018,-0.04,-0.066,-0.058,-0.072,-0.104,-0.112,-0.095
-0.076,-0.11,-0.034,0.093,-0.021,-0.071,-0.091,-0.088,-0.096,-0.138,-0.133,-0.096
-0.059,-0.104,-0.044,0.082,-0.007,-0.074,-0.102,-0.102,-0.108,-0.141,-0.135,-0.093
-0.073,-0.128,-0.055,0.101,-0.009,-0.091,-0.105,-0.096,-0.112,-0.138,-0.135,-0.093
-0.096,-0.147,-0.051,0.122,-0.022,-0.099,-0.114,-0.121,-0.126,-0.144,-0.134,-0.082
-0.099,-0.144,-0.045,0.122,-0.026,-0.095,-0.107,-0.114,-0.124,-0.157,-0.14,-0.1
-0.139,-0.142,-0.003,0.141,-0.068,-0.073,-0.103,-0.129,-0.141,-0.173,-0.151,-0.123
-0.167,-0.139,0.028,0.152,-0.098,-0.055,-0.097,-0.126,-0.153,-0.17,-0.144,-0.117
-0.153,-0.142,0.011,0.147,-0.082,-0.065,-0.09,-0.12,-0.154,-0.173,-0.142,-0.116
-0.129,-0.137,-0.009,0.133,-0.06,-0.073,-0.088,-0.122,-0.143,-0.166,-0.134,-0.11
-0.107,-0.144,-0.037,0.126,-0.035,-0.09,-0.085,-0.091,-0.135,-0.17,-0.134,-0.113
-0.114,-0.132,-0.018,0.123,-0.048,-0.074,-0.105,-0.125,-0.121,-0.158,-0.126,-0.1
-0.106,-0.15,-0.044,0.128,-0.031,-0.096,0.026,0.089,-0.094,-0.189,-0.186,-0.156
-0.074,-0.024,0.05,0.049,-0.062,0.013,0.193,0.517,0.294,0.046,-0.067,-0.086
0.133,0.287,0.154,-0.21,-0.011,0.22,0.344,1.399,1.426,0.928,0.526,0.306
0.192,0.419,0.227,-0.306,-0.017,0.323,0.242,0.842,1.192,1.071,0.832,0.558
-0.155,0.297,0.452,-0.071,-0.304,0.374,-0.585,-1.556,-0.675,0.008,0.383,0.407
-0.267,0.025,0.292,0.121,-0.279,0.159,-1.161,-1.982,-1.237,-0.645,-0.132,0.101
-0.177,-0.15,0.027,0.163,-0.102,-0.061,-0.918,-1.108,-0.818,-0.628,-0.286,-0.077
-0.157,-0.132,0.025,0.145,-0.091,-0.053,-0.526,-0.626,-0.498,-0.457,-0.261,-0.098
-0.108,-0.103,0.005,0.105,-0.056,-0.049,-0.248,-0.2,-0.216,-0.292,-0.206,-0.093
-0.087,-0.098,-0.011,0.093,-0.038,-0.054,-0.146,-0.099,-0.151,-0.227,-0.166,-0.087
-0.08,-0.111,-0.031,0.096,-0.024,-0.071,-0.114,-0.029,-0.096,-0.183,-0.156,-0.084
-0.06,-0.097,-0.037,0.078,-0.011,-0.067,-0.076,-0.006,-0.069,-0.162,-0.142,-0.078
-0.055,-0.095,-0.039,0.075,-0.007,-0.067,-0.063,0.017,-0.049,-0.144,-0.132,-0.077
-0.094,-0.128,-0.033,0.111,-0.03,-0.08,-0.048,0.037,-0.032,-0.129,-0.123,-0.089
-0.076,-0.118,-0.042,0.098,-0.017,-0.08,-0.042,0.039,-0.028,-0.115,-0.109,-0.091
-0.048,-0.106,-0.058,0.077,0.006,-0.082,-0.039,0.058,-0.012,-0.091,-0.095,-0.087
-0.051,-0.099,-0.049,0.075,-0.001,-0.074,-0.041,0.056,-0.011,-0.074,-0.081,-0.086
-0.044,-0.085,-0.041,0.065,-0.001,-0.063,-0.035,0.09,0.005,-0.059,-0.066,-0.082
-0.078,-0.08,-0.001,0.079,-0.038,-0.04,-0.024,0.094,0.021,-0.046,-0.053,-0.063
-0.08,-0.069,0.011,0.074,-0.046,-0.029,-0.019,0.118,0.047,-0.029,-0.038,-0.044
-0.066,-0.066,0.0,0.066,-0.033,-0.032,-0.021,0.141,0.079,-0.002,-0.018,-0.036
-0.039,-0.054,-0.015,0.047,-0.012,-0.034,-0.013,0.161,0.104,0.028,-0.012,-0.023
-0.016,-0.028,-0.011,0.022,-0.002,-0.019,0.001,0.206,0.138,0.06,0.014,-0.01
-0.022,-0.028,-0.007,0.025,-0.007,-0.017,0.017,0.237,0.18,0.094,0.054,0.016
0.02,-0.015,-0.035,-0.002,0.027,-0.025,0.03,0.285,0.242,0.152,0.093,0.053
0.052,0.033,-0.019,-0.042,0.035,0.007,0.022,0.327,0.299,0.211,0.141,0.08
0.065,0.066,0.001,-0.065,0.032,0.034,0.016,0.36,0.349,0.258,0.181,0.111
0.069,0.101,0.032,-0.085,0.018,0.066,0.008,0.367,0.397,0.312,0.228,0.141
0.084,0.14,0.056,-0.112,0.014,0.098,0.0,0.359,0.409,0.335,0.26,0.169
0.105,0.149,0.044,-0.127,0.03,0.096,-0.005,0.353,0.409,0.351,0.278,0.19
0.084,0.142,0.058,-0.113,0.013,0.099,-0.023,0.322,0.394,0.349,0.288,0.18
0.092,0.134,0.043,-0.113,0.024,0.088,-0.027,0.279,0.347,0.301,0.257,0.17
0.072,0.134,0.062,-0.103,0.005,0.098,-0.025,0.206,0.26,0.218,0.202,0.147
0.003,0.086,0.083,-0.045,-0.04,0.084,-0.025,0.139,0.157,0.117,0.133,0.088
-0.038,0.017,0.055,0.01,-0.047,0.036,-0.021,0.088,0.073,0.035,0.054,0.033
-0.065,-0.016,0.049,0.04,-0.057,0.016,-0.019,0.033,0.004,-0.039,-0.02,-0.011
-0.079,-0.054,0.025,0.066,-0.052,-0.014,-0.022,-0.001,-0.042,-0.089,-0.071,-0.042
-0.097,-0.074,0.023,0.085,-0.06,-0.025,-0.025,-0.02,-0.062,-0.1,-0.083,-0.053
-0.098,-0.07,0.028,0.084,-0.062,-0.021,-0.026,-0.034,-0.075,-0.105,-0.077,-0.06
-0.08,-0.06,0.02,0.07,-0.05,-0.02,-0.029,-0.044,-0.082,-0.11,-0.087,-0.062
-0.085,-0.062,0.022,0.074,-0.053,-0.02,-0.03,-0.051,-0.08,-0.109,-0.101,-0.065
-0.107,-0.09,0.017,0.099,-0.062,-0.037,-0.033,-0.055,-0.088,-0.119,-0.102,-0.07
-0.122,-0.101,0.021,0.111,-0.071,-0.04,-0.039,-0.055,-0.091,-0.125,-0.105,-0.067
-0.129,-0.095,0.034,0.112,-0.081,-0.03,-0.043,-0.055,-0.089,-0.118,-0.109,-0.065
-0.113,-0.092,0.02,0.102,-0.066,-0.036,-0.044,-0.052,-0.091,-0.115,-0.11,-0.065
-0.094,-0.089,0.005,0.092,-0.05,-0.042,-0.04,-0.046,-0.09,-0.11,-0.107,-0.066
-0.106,-0.084,0.022,0.095,-0.063,-0.031,-0.04,-0.041,-0.091,-0.106,-0.102,-0.064
-0.079,-0.083,-0.004,0.081,-0.038,-0.043,-0.038,-0.039,-0.086,-0.101,-0.099,-0.067
-0.045,-0.076,-0.031,0.06,-0.007,-0.053,-0.034,-0.03,-0.085,-0.1,-0.096,-0.079
-0.063,-0.078,-0.015,0.071,-0.023,-0.047,-0.035,-0.036,-0.085,-0.1,-0.091,-0.08
-0.088,-0.098,-0.01,0.094,-0.039,-0.054,-0.038,-0.055,-0.08,-0.096,-0.09,-0.08
-0.103,-0.098,0.005,0.101,-0.054,-0.046,-0.041,-0.055,-0.08,-0.095,-0.091,-0.08
-0.107,-0.09,0.018,0.098,-0.062,-0.035,-0.044,-0.055,-0.081,-0.096,-0.089,-0.08
-0.103,-0.089,0.013,0.096,-0.058,-0.038,-0.047,-0.056,-0.087,-0.105,-0.095,-0.079
-0.065,-0.08,-0.015,0.073,-0.024,-0.048,-0.049,-0.054,-0.095,-0.114,-0.095,-0.075
-0.056,-0.082,-0.027,0.069,-0.015,-0.054,-0.053,-0.058,-0.089,-0.122,-0.095,-0.075
-0.066,-0.092,-0.026,0.079,-0.02,-0.059,-0.055,-0.067,-0.097,-0.124,-0.107,-0.075
-0.086,-0.088,-0.001,0.087,-0.042,-0.044,-0.058,-0.072,-0.111,-0.12,-0.108,-0.075
-0.137,-0.103,0.034,0.12,-0.085,-0.034,-0.061,-0.075,-0.114,-0.117,-0.1,-0.074
-0.127,-0.109,0.017,0.118,-0.072,-0.046,-0.059,-0.085,-0.115,-0.115,-0.096,-0.08
-0.101,-0.096,0.005,0.099,-0.053,-0.045,-0.061,-0.087,-0.116,-0.111,-0.09,-0.09
-0.05,-0.095,-0.044,0.073,-0.003,-0.069,-0.059,-0.083,-0.113,-0.109,-0.084,-0.09
-0.035,-0.083,-0.048,0.059,0.007,-0.065,-0.062,-0.089,-0.123,-0.123,-0.108,-0.09
-0.076,-0.083,-0.007,0.08,-0.035,-0.045,-0.074,-0.106,-0.146,-0.132,-0.123,-0.091
-0.071,-0.096,-0.025,0.084,-0.023,-0.061,-0.075,-0.111,-0.144,-0.129,-0.119,-0.088
-0.069,-0.104,-0.035,0.087,-0.017,-0.069,-0.075,-0.109,-0.141,-0.131,-0.119,-0.097
-0.081,-0.117,-0.037,0.1,-0.022,-0.076,-0.075,-0.11,-0.139,-0.134,-0.114,-0.106
-0.088,-0.122,-0.034,0.105,-0.027,-0.078,-0.075,-0.11,-0.135,-0.135,-0.115,-0.105
-0.082,-0.118,-0.036,0.101,-0.023,-0.076,-0.074,-0.11,-0.134,-0.136,-0.113,-0.105
-0.089,-0.123,-0.034,0.106,-0.028,-0.078,-0.07,-0.105,-0.13,-0.14,-0.109,-0.105
-0.097,-0.134,-0.037,0.116,-0.03,-0.085,-0.068,-0.105,-0.13,-0.14,-0.107,-0.105
-0.101,-0.13,-0.029,0.116,-0.035,-0.079,-0.065,-0.104,-0.13,-0.138,-0.104,-0.103
-0.104,-0.122,-0.018,0.113,-0.043,-0.07,-0.061,-0.1,-0.13,-0.133,-0.101,-0.097
-0.078,-0.116,-0.038,0.097,-0.02,-0.077,-0.06,-0.1,-0.13,-0.13,-0.099,-0.092
-0.091,-0.111,-0.021,0.101,-0.035,-0.065,-0.064,-0.1,-0.134,-0.126,-0.108,-0.089
-0.111,-0.115,-0.004,0.113,-0.053,-0.059,-0.071,-0.104,-0.134,-0.123,-0.113,-0.083
-0.09,-0.118,-0.029,0.104,-0.03,-0.073,-0.075,-0.105,-0.13,-0.118,-0.108,-0.08
-0.095,-0.121,-0.026,0.109,-0.034,-0.074,-0.075,-0.109,-0.13,-0.124,-0.102,-0.085
-0.114,-0.125,-0.011,0.12,-0.051,-0.068,-0.075,-0.111,-0.127,-0.131,-0.099,-0.09
-0.095,-0.13,-0.034,0.113,-0.03,-0.082,-0.075,-0.11,-0.125,-0.13,-0.093,-0.093
-0.086,-0.127,-0.04,0.107,-0.023,-0.083,-0.076,-0.108,-0.124,-0.128,-0.091,-0.098
-0.103,-0.12,-0.017,0.112,-0.043,-0.069,-0.07,-0.104,-0.135,-0.124,-0.1,-0.107
-0.104,-0.115,-0.011,0.11,-0.046,-0.063,-0.061,-0.106,-0.137,-0.126,-0.097,-0.104
-0.104,-0.108,-0.004,0.106,-0.049,-0.056,-0.052,-0.099,-0.124,-0.121,-0.089,-0.094
-0.1,-0.097,0.003,0.099,-0.051,-0.047,-0.045,-0.086,-0.116,-0.12,-0.084,-0.088
-0.095,-0.087,0.008,0.091,-0.051,-0.039,-0.044,-0.073,-0.102,-0.118,-0.075,-0.078
-0.083,-0.067,0.016,0.075,-0.049,-0.025,-0.045,-0.052,-0.084,-0.092,-0.071,-0.077
-0.038,-0.055,-0.017,0.046,-0.01,-0.035,-0.045,-0.035,-0.08,-0.069,-0.073,-0.08
-0.03,-0.088,-0.058,0.059,0.014,-0.073,-0.044,-0.038,-0.079,-0.072,-0.077,-0.08
-0.033,-0.081,-0.048,0.057,0.008,-0.064,-0.057,-0.066,-0.091,-0.089,-0.079,-0.08
-0.031,-0.079,-0.048,0.055,0.009,-0.063,-0.076,-0.094,-0.115,-0.103,-0.083,-0.08
-0.087,-0.119,-0.032,0.103,-0.027,-0.075,-0.078,-0.097,-0.115,-0.101,-0.084,-0.081
-0.068,-0.109,-0.041,0.089,-0.013,-0.075,-0.082,-0.107,-0.131,-0.11,-0.088,-0.083
-0.048,-0.137,-0.088,0.092,0.02,-0.112,-0.095,-0.138,-0.143,-0.122,-0.097,-0.091
-0.081,-0.167,-0.086,0.124,0.003,-0.127,-0.089,-0.127,-0.138,-0.127,-0.1,-0.108
-0.08,-0.154,-0.074,0.117,-0.003,-0.114,-0.087,-0.145,-0.163,-0.139,-0.1,-0.118
-0.08,-0.165,-0.085,0.122,0.002,-0.125,-0.078,-0.125,-0.155,-0.14,-0.102,-0.119
-0.078,-0.156,-0.078,0.117,0.0,-0.117,-0.075,-0.143,-0.165,-0.147,-0.108,-0.121
-0.108,-0.164,-0.056,0.136,-0.026,-0.11,-0.069,-0.132,-0.155,-0.142,-0.102,-0.122
-0.123,-0.153,-0.03,0.138,-0.046,-0.091,-0.063,-0.127,-0.163,-0.153,-0.108,-0.128
-0.136,-0.147,-0.011,0.142,-0.062,-0.079,-0.053,-0.136,-0.159,-0.146,-0.103,-0.121
-0.125,-0.17,-0.045,0.147,-0.039,-0.107,0.093,0.141,-0.097,-0.154,-0.143,-0.151
-0.04,0.016,0.056,0.012,-0.048,0.036,0.252,0.661,0.458,0.212,0.059,-0.029
0.183,0.29,0.107,-0.237,0.038,0.198,0.427,1.536,1.538,1.089,0.672,0.383
0.184,0.422,0.238,-0.303,-0.027,0.33,0.137,0.418,0.846,0.947,0.827,0.569
-0.15,0.301,0.451,-0.075,-0.301,0.375,-0.809,-1.922,-0.933,-0.108,0.37,0.393
-0.213,-0.007,0.205,0.11,-0.209,0.099,-1.179,-1.829,-1.152,-0.572,-0.063,0.122
-0.145,-0.149,-0.004,0.147,-0.07,-0.076,-0.811,-0.989,-0.75,-0.555,-0.24,-0.068
-0.116,-0.14,-0.024,0.128,-0.046,-0.081,-0.422,-0.526,-0.435,-0.373,-0.186,-0.081
-0.048,-0.098,-0.05,0.073,0.001,-0.074,-0.183,-0.164,-0.207,-0.226,-0.129,-0.078
-0.066,-0.098,-0.032,0.082,-0.017,-0.065,-0.105,-0.115,-0.173,-0.187,-0.112,-0.082
-0.088,-0.146,-0.059,0.117,-0.014,-0.102,-0.066,-0.028,-0.109,-0.145,-0.097,-0.08
-0.081,-0.145,-0.064,0.113,-0.008,-0.104,-0.044,-0.015,-0.096,-0.114,-0.089,-0.082
-0.076,-0.143,-0.068,0.11,-0.003,-0.105,-0.036,0.015,-0.075,-0.089,-0.076,-0.074
-0.086,-0.134,-0.047,0.11,-0.019,-0.09,-0.024,0.033,-0.069,-0.084,-0.068,-0.074
-0.062,-0.119,-0.057,0.091,-0.003,-0.087,-0.017,0.037,-0.062,-0.061,-0.057,-0.067
-0.018,-0.112,-0.093,0.065,0.038,-0.102,-0.008,0.047,-0.049,-0.047,-0.048,-0.066
-0.018,-0.104,-0.086,0.061,0.034,-0.095,-0.003,0.055,-0.039,-0.038,-0.038,-0.06
-0.017,-0.1,-0.083,0.059,0.034,-0.091,0.006,0.066,-0.021,-0.026,-0.027,-0.052
-0.013,-0.093,-0.08,0.053,0.034,-0.086,0.014,0.089,-0.011,-0.009,-0.021,-0.044
-0.013,-0.088,-0.075,0.051,0.031,-0.081,0.023,0.111,0.019,0.012,-0.007,-0.036
0.012,-0.06,-0.072,0.024,0.042,-0.065,0.03,0.125,0.048,0.033,0.028,-0.029
0.028,-0.052,-0.08,0.012,0.054,-0.066,0.05,0.169,0.082,0.076,0.055,-0.017
0.038,-0.05,-0.089,0.006,0.064,-0.069,0.066,0.197,0.117,0.095,0.068,-0.006
0.094,0.021,-0.073,-0.058,0.084,-0.026,0.065,0.23,0.158,0.132,0.097,0.012
0.099,0.034,-0.065,-0.066,0.082,-0.016,0.064,0.277,0.221,0.19,0.142,0.043
0.087,0.014,-0.072,-0.05,0.079,-0.029,0.06,0.323,0.283,0.242,0.187,0.075
0.119,0.061,-0.058,-0.09,0.088,0.002,0.061,0.356,0.333,0.295,0.231,0.113
0.151,0.109,-0.043,-0.13,0.097,0.033,0.057,0.36,0.37,0.333,0.265,0.137
0.187,0.153,-0.034,-0.17,0.111,0.059,0.049,0.356,0.393,0.368,0.303,0.158
0.187,0.16,-0.028,-0.173,0.107,0.066,0.042,0.351,0.385,0.385,0.327,0.184
0.151,0.146,-0.005,-0.148,0.078,0.071,0.036,0.314,0.37,0.381,0.327,0.185
0.105,0.137,0.033,-0.121,0.036,0.085,0.026,0.26,0.325,0.327,0.305,0.169
0.089,0.115,0.026,-0.102,0.031,0.07,0.025,0.197,0.237,0.235,0.245,0.137
0.056,0.074,0.019,-0.065,0.018,0.046,0.048,0.122,0.138,0.14,0.167,0.09
0.018,0.02,0.002,-0.019,0.007,0.011,0.049,0.076,0.052,0.055,0.099,0.041
0.004,-0.011,-0.015,0.004,0.01,-0.013,0.043,0.041,-0.005,0.0,0.047,-0.004
-0.032,-0.049,-0.017,0.04,-0.007,-0.033,0.042,0.01,-0.047,-0.039,0.006,-0.037
-0.04,-0.074,-0.034,0.057,-0.003,-0.054,0.036,-0.019,-0.066,-0.063,-0.021,-0.053
-0.055,-0.072,-0.017,0.064,-0.019,-0.044,0.034,-0.047,-0.075,-0.08,-0.037,-0.065
-0.038,-0.074,-0.036,0.056,-0.001,-0.055,0.029,-0.051,-0.075,-0.086,-0.046,-0.071
-0.006,-0.066,-0.06,0.036,0.027,-0.063,0.026,-0.05,-0.085,-0.084,-0.045,-0.07
-0.031,-0.078,-0.047,0.055,0.008,-0.062,0.022,-0.049,-0.097,-0.085,-0.045,-0.073
-0.023,-0.084,-0.061,0.054,0.02,-0.073,0.019,-0.045,-0.094,-0.085,-0.045,-0.076
-0.033,-0.079,-0.046,0.056,0.007,-0.063,0.014,-0.045,-0.098,-0.085,-0.045,-0.074
-0.048,-0.092,-0.043,0.07,-0.002,-0.067,0.019,-0.043,-0.1,-0.082,-0.042,-0.071
-0.029,-0.088,-0.059,0.059,0.015,-0.073,0.022,-0.038,-0.1,-0.077,-0.036,-0.068
-0.017,-0.085,-0.068,0.051,0.026,-0.076,0.027,-0.032,-0.097,-0.075,-0.032,-0.066
-0.016,-0.083,-0.068,0.05,0.026,-0.075,0.044,-0.029,-0.095,-0.07,-0.028,-0.062
-0.029,-0.077,-0.048,0.053,0.009,-0.062,0.044,-0.023,-0.095,-0.067,-0.022,-0.06
-0.02,-0.073,-0.053,0.047,0.017,-0.063,0.038,-0.021,-0.095,-0.063,-0.021,-0.06
-0.016,-0.068,-0.051,0.042,0.018,-0.059,0.036,-0.024,-0.095,-0.06,-0.026,-0.06
-0.016,-0.065,-0.049,0.04,0.017,-0.056,0.031,-0.027,-0.096,-0.06,-0.029,-0.06
-0.007,-0.058,-0.051,0.032,0.022,-0.055,0.029,-0.03,-0.1,-0.06,-0.034,-0.06
-0.02,-0.069,-0.049,0.045,0.014,-0.059,0.025,-0.03,-0.1,-0.06,-0.035,-0.06
-0.025,-0.076,-0.051,0.051,0.014,-0.063,0.022,-0.03,-0.1,-0.06,-0.035,-0.06
-0.021,-0.068,-0.047,0.045,0.013,-0.057,0.02,-0.03,-0.1,-0.064,-0.035,-0.066
-0.041,-0.086,-0.045,0.064,0.002,-0.065,0.016,-0.042,-0.099,-0.076,-0.036,-0.072
-0.048,-0.093,-0.045,0.071,-0.002,-0.069,0.015,-0.056,-0.107,-0.087,-0.044,-0.076
-0.04,-0.082,-0.042,0.061,0.001,-0.062,0.015,-0.068,-0.112,-0.085,-0.045,-0.08
-0.036,-0.076,-0.039,0.056,0.002,-0.057,0.015,-0.076,-0.109,-0.084,-0.045,-0.08
-0.029,-0.071,-0.041,0.05,0.006,-0.056,0.015,-0.067,-0.106,-0.085,-0.05,-0.08
-0.018,-0.064,-0.046,0.041,0.014,-0.054,0.015,-0.065,-0.104,-0.085,-0.05,-0.077
-0.016,-0.061,-0.045,0.039,0.015,-0.053,0.015,-0.06,-0.099,-0.085,-0.05,-0.074
-0.006,-0.051,-0.045,0.029,0.02,-0.048,0.013,-0.055,-0.101,-0.088,-0.05,-0.076
-0.01,-0.054,-0.045,0.033,0.017,-0.049,0.01,-0.063,-0.109,-0.09,-0.05,-0.079
-0.045,-0.091,-0.046,0.068,0.001,-0.068,0.007,-0.066,-0.11,-0.09,-0.05,-0.08
-0.054,-0.097,-0.043,0.076,-0.005,-0.07,0.005,-0.064,-0.11,-0.09,-0.05,-0.082
-0.054,-0.093,-0.039,0.073,-0.007,-0.065,0.001,-0.065,-0.11,-0.09,-0.05,-0.085
-0.057,-0.092,-0.034,0.075,-0.012,-0.063,0.0,-0.065,-0.114,-0.088,-0.046,-0.085
-0.059,-0.089,-0.03,0.074,-0.014,-0.06,0.003,-0.065,-0.116,-0.085,-0.045,-0.085
-0.041,-0.089,-0.049,0.065,0.004,-0.069,0.008,-0.069,-0.114,-0.085,-0.044,-0.085
-0.027,-0.084,-0.057,0.056,0.016,-0.071,0.011,-0.07,-0.115,-0.085,-0.048,-0.085
-0.027,-0.081,-0.053,0.055,0.013,-0.067,0.014,-0.07,-0.115,-0.085,-0.056,-0.08
-0.022,-0.078,-0.056,0.05,0.017,-0.067,0.019,-0.075,-0.115,-0.085,-0.053,-0.08
-0.019,-0.073,-0.054,0.047,0.018,-0.064,0.02,-0.075,-0.119,-0.089,-0.05,-0.078
-0.013,-0.069,-0.056,0.042,0.021,-0.062,0.02,-0.076,-0.12,-0.09,-0.048,-0.075
-0.027,-0.087,-0.06,0.057,0.017,-0.073,0.02,-0.08,-0.12,-0.09,-0.044,-0.074
-0.04,-0.097,-0.058,0.069,0.01,-0.077,0.02,-0.08,-0.124,-0.09,-0.048,-0.08
-0.039,-0.094,-0.054,0.067,0.008,-0.074,0.02,-0.08,-0.125,-0.09,-0.05,-0.088
-0.044,-0.096,-0.052,0.07,0.004,-0.073,0.019,-0.08,-0.123,-0.089,-0.05,-0.085
-0.046,-0.094,-0.049,0.07,0.002,-0.071,0.024,-0.08,-0.12,-0.085,-0.05,-0.085
-0.049,-0.095,-0.046,0.073,-0.001,-0.071,0.025,-0.076,-0.117,-0.085,-0.05,-0.085
-0.042,-0.085,-0.043,0.064,0.001,-0.064,0.025,-0.07,-0.115,-0.082,-0.05,-0.085
-0.018,-0.072,-0.054,0.045,0.018,-0.063,0.025,-0.065,-0.112,-0.08,-0.044,-0.085
0.002,-0.064,-0.066,0.032,0.035,-0.065,0.023,-0.059,-0.11,-0.081,-0.039,-0.078
0.009,-0.056,-0.065,0.024,0.037,-0.06,0.036,-0.054,-0.105,-0.076,-0.034,-0.07
0.017,-0.048,-0.065,0.016,0.041,-0.057,0.051,-0.04,-0.09,-0.069,-0.028,-0.062
0.025,-0.04,-0.065,0.008,0.045,-0.052,0.06,-0.026,-0.082,-0.063,-0.022,-0.053
0.024,-0.04,-0.064,0.009,0.044,-0.052,0.058,-0.015,-0.085,-0.06,-0.022,-0.052
0.04,-0.039,-0.078,0.0,0.059,-0.058,0.043,-0.016,-0.085,-0.059,-0.026,-0.058
0.041,-0.049,-0.09,0.004,0.066,-0.069,0.032,-0.041,-0.085,-0.056,-0.028,-0.061
0.02,-0.075,-0.095,0.028,0.058,-0.085,0.017,-0.057,-0.083,-0.054,-0.031,-0.066
0.036,-0.073,-0.109,0.019,0.073,-0.091,0.003,-0.066,-0.098,-0.064,-0.04,-0.069
0.051,-0.07,-0.121,0.01,0.086,-0.096,-0.012,-0.09,-0.127,-0.082,-0.052,-0.074
0.029,-0.094,-0.123,0.033,0.076,-0.108,-0.025,-0.11,-0.133,-0.095,-0.057,-0.077
0.005,-0.111,-0.116,0.053,0.061,-0.113,-0.014,-0.092,-0.13,-0.104,-0.063,-0.084
-0.003,-0.097,-0.094,0.05,0.045,-0.095,-0.014,-0.106,-0.143,-0.107,-0.069,-0.09
-0.011,-0.103,-0.092,0.057,0.04,-0.097,-0.005,-0.087,-0.14,-0.102,-0.069,-0.085
-0.041,-0.12,-0.08,0.081,0.02,-0.1,0.0,-0.097,-0.142,-0.108,-0.071,-0.08
-0.044,-0.117,-0.072,0.081,0.014,-0.094,0.002,-0.089,-0.124,-0.101,-0.069,-0.077
-0.036,-0.105,-0.069,0.071,0.017,-0.087,0.023,-0.079,-0.125,-0.109,-0.072,-0.07
-0.041,-0.092,-0.05,0.067,0.005,-0.071,0.019,-0.099,-0.11,-0.101,-0.072,-0.076
-0.029,-0.114,-0.085,0.072,0.028,-0.099,0.162,0.161,-0.061,-0.113,-0.114,-0.127
0.024,0.061,0.037,-0.042,-0.007,0.049,0.328,0.67,0.448,0.222,0.081,-0.006
0.262,0.362,0.101,-0.313,0.08,0.231,0.47,1.538,1.504,1.077,0.676,0.392
0.275,0.47,0.195,-0.372,0.04,0.332,0.244,0.516,0.885,0.983,0.85,0.591
-0.073,0.363,0.436,-0.146,-0.255,0.399,-0.676,-1.855,-0.869,-0.06,0.397,0.419
-0.154,0.067,0.221,0.043,-0.188,0.144,-1.099,-1.845,-1.119,-0.531,-0.022,0.163
-0.068,-0.115,-0.047,0.091,-0.01,-0.081,-0.725,-0.967,-0.717,-0.505,-0.181,-0.007
-0.009,-0.079,-0.07,0.044,0.031,-0.074,-0.357,-0.511,-0.428,-0.341,-0.163,-0.051
0.038,-0.044,-0.082,0.003,0.06,-0.063,-0.127,-0.14,-0.186,-0.211,-0.136,-0.061
-0.004,-0.069,-0.065,0.037,0.031,-0.067,-0.042,-0.085,-0.137,-0.181,-0.111,-0.061
-0.03,-0.097,-0.067,0.063,0.019,-0.082,-0.011,0.004,-0.089,-0.111,-0.074,-0.059
-0.027,-0.085,-0.057,0.056,0.015,-0.071,0.012,0.03,-0.072,-0.082,-0.059,-0.061
-0.024,-0.079,-0.055,0.052,0.015,-0.066,0.017,0.045,-0.048,-0.071,-0.049,-0.059
0.005,-0.075,-0.08,0.035,0.043,-0.078,0.047,0.063,-0.039,-0.056,-0.043,-0.058
0.02,-0.074,-0.094,0.027,0.058,-0.084,0.058,0.077,-0.028,-0.044,-0.034,-0.051
0.009,-0.076,-0.085,0.034,0.047,-0.08,0.062,0.089,-0.007,-0.027,-0.028,-0.046
0.003,-0.074,-0.077,0.036,0.04,-0.075,0.065,0.097,0.01,-0.008,-0.021,-0.039
0.006,-0.069,-0.075,0.032,0.041,-0.072,0.056,0.116,0.034,0.009,-0.015,-0.036
0.013,-0.059,-0.072,0.023,0.043,-0.065,0.043,0.127,0.042,0.021,0.001,-0.023
0.018,-0.05,-0.068,0.016,0.044,-0.059,0.037,0.161,0.063,0.042,0.023,-0.007
0.045,-0.023,-0.067,-0.011,0.056,-0.045,0.041,0.181,0.091,0.059,0.039,0.002
0.055,-0.008,-0.062,-0.023,0.059,-0.035,0.039,0.202,0.108,0.087,0.056,0.012
0.069,0.006,-0.063,-0.037,0.066,-0.029,0.041,0.236,0.147,0.126,0.074,0.023
0.097,0.04,-0.057,-0.068,0.076,-0.008,0.037,0.272,0.192,0.157,0.102,0.04
0.122,0.061,-0.062,-0.091,0.092,-0.001,0.048,0.327,0.245,0.214,0.157,0.08
0.15,0.082,-0.068,-0.116,0.109,0.007,0.073,0.373,0.304,0.277,0.209,0.121
0.165,0.121,-0.044,-0.143,0.104,0.038,0.061,0.393,0.35,0.322,0.245,0.143
0.225,0.169,-0.056,-0.197,0.14,0.056,0.043,0.408,0.388,0.364,0.282,0.168
0.245,0.194,-0.051,-0.219,0.148,0.071,0.034,0.404,0.406,0.401,0.321,0.194
0.226,0.193,-0.033,-0.209,0.129,0.08,0.027,0.391,0.408,0.414,0.337,0.208
0.216,0.193,-0.023,-0.204,0.119,0.085,0.021,0.361,0.389,0.399,0.322,0.201
0.193,0.182,-0.011,-0.187,0.102,0.086,0.014,0.3,0.335,0.36,0.312,0.195
0.154,0.163,0.009,-0.159,0.073,0.086,0.007,0.234,0.255,0.275,0.263,0.169
0.098,0.136,0.039,-0.117,0.03,0.087,0.007,0.169,0.162,0.18,0.184,0.114
0.088,0.092,0.004,-0.09,0.042,0.048,0.017,0.109,0.079,0.099,0.118,0.07
0.056,0.043,-0.013,-0.049,0.035,0.014,0.016,0.064,0.028,0.034,0.056,0.021
0.018,0.009,-0.009,-0.013,0.013,0.0,0.009,0.037,-0.024,-0.003,0.023,-0.013
0.033,-0.004,-0.037,-0.014,0.035,-0.021,0.006,0.018,-0.05,-0.028,0.004,-0.029
-0.003,-0.028,-0.025,0.016,0.011,-0.027,0.001,0.0,-0.069,-0.048,-0.014,-0.044
-0.023,-0.032,-0.01,0.028,-0.006,-0.021,-0.003,-0.016,-0.087,-0.056,-0.031,-0.045
0.002,-0.029,-0.03,0.014,0.016,-0.029,-0.008,-0.021,-0.084,-0.055,-0.036,-0.045
-0.006,-0.061,-0.055,0.034,0.025,-0.058,-0.013,-0.02,-0.089,-0.055,-0.034,-0.045
0.003,-0.066,-0.069,0.032,0.036,-0.067,-0.02,-0.019,-0.09,-0.056,-0.036,-0.045
-0.02,-0.058,-0.038,0.04,0.009,-0.048,-0.024,-0.026,-0.092,-0.054,-0.035,-0.05
-0.03,-0.059,-0.029,0.045,0.0,-0.044,-0.02,-0.03,-0.09,-0.051,-0.035,-0.051
-0.004,-0.054,-0.05,0.029,0.023,-0.052,-0.014,-0.023,-0.083,-0.046,-0.031,-0.047
-0.006,-0.052,-0.046,0.029,0.02,-0.049,-0.011,-0.018,-0.079,-0.044,-0.03,-0.045
0.003,-0.049,-0.052,0.023,0.027,-0.051,-0.006,-0.013,-0.073,-0.04,-0.025,-0.042
0.007,-0.047,-0.054,0.02,0.031,-0.05,-0.001,-0.007,-0.066,-0.034,-0.028,-0.04
0.013,-0.043,-0.056,0.015,0.035,-0.049,-0.002,-0.005,-0.075,-0.046,-0.037,-0.04
0.02,-0.039,-0.059,0.009,0.04,-0.049,-0.006,-0.005,-0.087,-0.045,-0.032,-0.04
0.025,-0.036,-0.061,0.006,0.044,-0.049,-0.008,-0.002,-0.084,-0.036,-0.029,-0.04
0.035,-0.031,-0.065,-0.001,0.05,-0.048,-0.011,0.0,-0.085,-0.042,-0.026,-0.04
0.033,-0.03,-0.063,-0.001,0.048,-0.046,-0.014,0.0,-0.085,-0.043,-0.02,-0.04
0.01,-0.049,-0.059,0.02,0.035,-0.054,-0.016,-0.006,-0.085,-0.047,-0.022,-0.042
-0.005,-0.057,-0.052,0.031,0.024,-0.054,-0.019,-0.012,-0.09,-0.05,-0.026,-0.047
0.012,-0.05,-0.062,0.019,0.037,-0.056,-0.02,-0.016,-0.1,-0.051,-0.039,-0.058
0.021,-0.048,-0.069,0.013,0.045,-0.058,-0.02,-0.023,-0.106,-0.055,-0.051,-0.066
0.012,-0.045,-0.057,0.017,0.035,-0.051,-0.02,-0.027,-0.104,-0.055,-0.05,-0.064
0.011,-0.043,-0.054,0.016,0.033,-0.048,-0.02,-0.031,-0.108,-0.057,-0.05,-0.068
-0.012,-0.057,-0.045,0.035,0.017,-0.051,-0.02,-0.028,-0.11,-0.061,-0.05,-0.07
-0.033,-0.072,-0.039,0.052,0.003,-0.056,-0.02,-0.033,-0.11,-0.06,-0.05,-0.07
-0.011,-0.069,-0.058,0.04,0.024,-0.063,-0.019,-0.046,-0.11,-0.057,-0.048,-0.066
-0.007,-0.07,-0.063,0.039,0.028,-0.067,-0.023,-0.041,-0.11,-0.054,-0.045,-0.065
-0.013,-0.067,-0.054,0.04,0.021,-0.06,-0.036,-0.038,-0.11,-0.051,-0.045,-0.065
-0.014,-0.064,-0.05,0.039,0.019,-0.057,-0.037,-0.035,-0.11,-0.048,-0.045,-0.061
-0.02,-0.066,-0.046,0.043,0.013,-0.056,-0.032,-0.03,-0.109,-0.045,-0.045,-0.059
-0.023,-0.063,-0.041,0.043,0.009,-0.052,-0.029,-0.033,-0.112,-0.046,-0.045,-0.062
-0.023,-0.06,-0.037,0.042,0.007,-0.048,-0.026,-0.035,-0.115,-0.051,-0.05,-0.065
-0.025,-0.06,-0.035,0.043,0.005,-0.047,-0.021,-0.038,-0.115,-0.055,-0.05,-0.065
-0.016,-0.06,-0.044,0.038,0.014,-0.052,-0.021,-0.041,-0.115,-0.057,-0.051,-0.065
-0.019,-0.06,-0.041,0.04,0.011,-0.05,-0.025,-0.042,-0.111,-0.073,-0.055,-0.065
-0.012,-0.06,-0.049,0.036,0.019,-0.054,-0.025,-0.04,-0.109,-0.078,-0.055,-0.065
0.004,-0.056,-0.06,0.026,0.032,-0.058,-0.025,-0.036,-0.106,-0.067,-0.053,-0.061
-0.018,-0.055,-0.037,0.037,0.01,-0.046,-0.025,-0.034,-0.104,-0.06,-0.049,-0.06
-0.005,-0.054,-0.049,0.03,0.023,-0.052,-0.025,-0.031,-0.099,-0.052,-0.05,-0.06
0.004,-0.051,-0.055,0.024,0.029,-0.053,-0.029,-0.029,-0.101,-0.053,-0.046,-0.06
-0.005,-0.049,-0.044,0.027,0.019,-0.046,-0.03,-0.041,-0.118,-0.055,-0.045,-0.06
-0.006,-0.05,-0.044,0.029,0.019,-0.047,-0.03,-0.046,-0.119,-0.057,-0.045,-0.061
-0.005,-0.041,-0.036,0.023,0.016,-0.038,-0.034,-0.045,-0.111,-0.061,-0.04,-0.065
-0.001,-0.037,-0.036,0.02,0.018,-0.036,-0.035,-0.049,-0.108,-0.058,-0.044,-0.065
-0.009,-0.052,-0.043,0.031,0.017,-0.047,-0.033,-0.05,-0.101,-0.055,-0.046,-0.065
-0.014,-0.063,-0.049,0.039,0.018,-0.056,-0.03,-0.05,-0.096,-0.055,-0.045,-0.065
-0.013,-0.052,-0.039,0.032,0.014,-0.045,-0.028,-0.044,-0.099,-0.053,-0.043,-0.065
0.004,-0.036,-0.04,0.016,0.022,-0.038,-0.025,-0.039,-0.096,-0.049,-0.039,-0.065
-0.009,-0.053,-0.044,0.031,0.018,-0.048,-0.022,-0.033,-0.088,-0.051,-0.041,-0.064
0.003,-0.036,-0.039,0.017,0.021,-0.037,-0.02,-0.028,-0.081,-0.045,-0.035,-0.058
0.038,-0.002,-0.04,-0.018,0.039,-0.021,-0.016,-0.02,-0.075,-0.035,-0.025,-0.052
0.033,-0.001,-0.034,-0.015,0.033,-0.018,-0.015,-0.01,-0.075,-0.025,-0.015,-0.046
0.05,0.015,-0.035,-0.032,0.042,-0.009,-0.013,0.01,-0.074,-0.016,-0.007,-0.041
0.071,0.013,-0.058,-0.042,0.065,-0.022,-0.009,0.016,-0.076,-0.025,-0.015,-0.043
0.052,-0.027,-0.078,-0.012,0.065,-0.052,-0.011,-0.002,-0.073,-0.034,-0.024,-0.047
0.044,-0.029,-0.073,-0.007,0.059,-0.051,-0.026,-0.027,-0.086,-0.043,-0.032,-0.052
0.049,-0.026,-0.075,-0.011,0.062,-0.05,-0.048,-0.048,-0.099,-0.052,-0.042,-0.063
0.041,-0.05,-0.091,0.005,0.066,-0.071,-0.059,-0.05,-0.099,-0.056,-0.049,-0.067
0.012,-0.076,-0.087,0.032,0.05,-0.081,-0.063,-0.077,-0.109,-0.054,-0.052,-0.068
-0.001,-0.082,-0.081,0.042,0.04,-0.081,-0.055,-0.08,-0.108,-0.057,-0.056,-0.073
0.005,-0.064,-0.069,0.03,0.037,-0.067,-0.056,-0.093,-0.114,-0.073,-0.06,-0.074
-0.005,-0.075,-0.07,0.04,0.033,-0.072,-0.049,-0.076,-0.123,-0.084,-0.064,-0.081
-0.016,-0.07,-0.054,0.043,0.02,-0.062,-0.047,-0.094,-0.133,-0.094,-0.066,-0.082
-0.025,-0.082,-0.057,0.053,0.017,-0.069,-0.044,-0.08,-0.114,-0.091,-0.064,-0.087
-0.035,-0.073,-0.039,0.054,0.002,-0.055,-0.027,-0.078,-0.121,-0.101,-0.066,-0.083
-0.041,-0.067,-0.026,0.054,-0.007,-0.046,-0.006,-0.064,-0.106,-0.099,-0.086,-0.09
-0.042,-0.097,-0.055,0.07,0.007,-0.076,0.137,0.209,-0.049,-0.105,-0.131,-0.139
0.042,0.108,0.066,-0.075,-0.012,0.087,0.298,0.783,0.591,0.348,0.152,0.043
0.305,0.394,0.09,-0.35,0.107,0.242,0.435,1.57,1.582,1.193,0.757,0.444
0.24,0.485,0.245,-0.363,-0.003,0.365,0.138,0.241,0.687,0.909,0.836,0.594
-0.121,0.326,0.447,-0.102,-0.284,0.386,-0.758,-1.945,-0.967,-0.139,0.332,0.386
-0.128,0.057,0.185,0.035,-0.157,0.121,-1.096,-1.711,-1.067,-0.545,-0.095,0.1
-0.064,-0.068,-0.004,0.066,-0.03,-0.036,-0.73,-0.92,-0.678,-0.49,-0.207,-0.047
-0.084,-0.086,-0.001,0.085,-0.041,-0.043,-0.371,-0.457,-0.374,-0.311,-0.158,-0.071
-0.038,-0.069,-0.031,0.054,-0.004,-0.049,-0.134,-0.112,-0.159,-0.185,-0.128,-0.078
-0.018,-0.068,-0.05,0.043,0.016,-0.059,-0.057,-0.057,-0.115,-0.135,-0.099,-0.078
-0.015,-0.076,-0.062,0.046,0.024,-0.069,-0.026,0.02,-0.072,-0.087,-0.075,-0.067
-0.023,-0.068,-0.045,0.045,0.011,-0.056,-0.006,0.022,-0.061,-0.059,-0.053,-0.058
-0.021,-0.067,-0.045,0.044,0.012,-0.055,0.01,0.071,-0.025,-0.033,-0.034,-0.049
-0.026,-0.06,-0.034,0.043,0.004,-0.047,0.033,0.078,-0.005,-0.026,-0.028,-0.044
-0.021,-0.051,-0.031,0.036,0.005,-0.041,0.036,0.087,0.005,-0.015,-0.018,-0.039
0.017,-0.045,-0.062,0.014,0.04,-0.053,0.062,0.111,0.015,-0.004,-0.011,-0.033
0.037,-0.034,-0.071,-0.001,0.054,-0.052,0.067,0.109,0.026,0.007,-0.004,-0.027
0.035,-0.026,-0.061,-0.004,0.048,-0.043,0.069,0.139,0.046,0.028,0.005,-0.022
0.045,-0.015,-0.059,-0.015,0.052,-0.037,0.075,0.151,0.074,0.051,0.011,-0.014
0.044,-0.009,-0.054,-0.017,0.049,-0.031,0.072,0.163,0.092,0.067,0.027,-0.008
0.044,-0.004,-0.048,-0.02,0.046,-0.025,0.091,0.195,0.116,0.094,0.052,-0.001
0.092,0.032,-0.06,-0.062,0.075,-0.013,0.102,0.223,0.153,0.122,0.061,0.012
0.101,0.042,-0.059,-0.071,0.079,-0.008,0.099,0.25,0.179,0.143,0.076,0.029
0.107,0.06,-0.048,-0.083,0.077,0.006,0.1,0.292,0.233,0.195,0.126,0.06
0.128,0.092,-0.036,-0.11,0.082,0.028,0.094,0.337,0.279,0.243,0.165,0.078
0.149,0.116,-0.033,-0.132,0.091,0.041,0.088,0.376,0.327,0.28,0.19,0.102
0.19,0.142,-0.048,-0.166,0.118,0.047,0.081,0.404,0.388,0.344,0.244,0.145
0.208,0.166,-0.041,-0.187,0.124,0.062,0.074,0.402,0.429,0.389,0.284,0.165
0.242,0.213,-0.029,-0.227,0.136,0.091,0.067,0.39,0.447,0.417,0.311,0.193
0.249,0.224,-0.024,-0.236,0.136,0.1,0.066,0.385,0.436,0.432,0.338,0.217
0.227,0.216,-0.012,-0.221,0.119,0.102,0.072,0.361,0.425,0.427,0.348,0.204
0.202,0.208,0.006,-0.206,0.098,0.107,0.073,0.309,0.371,0.373,0.316,0.194
0.161,0.188,0.028,-0.175,0.067,0.108,0.079,0.237,0.283,0.271,0.242,0.163
0.121,0.156,0.036,-0.139,0.042,0.096,0.079,0.175,0.203,0.178,0.169,0.105
0.105,0.111,0.006,-0.108,0.049,0.058,0.083,0.13,0.114,0.096,0.1,0.061
0.068,0.066,-0.003,-0.067,0.035,0.031,0.098,0.093,0.058,0.034,0.051,0.019
0.013,0.021,0.008,-0.018,0.003,0.014,0.091,0.062,0.025,-0.001,0.014,-0.012
0.013,0.007,-0.006,-0.01,0.01,0.0,0.081,0.037,0.002,-0.009,-0.014,-0.023
0.021,0.006,-0.014,-0.013,0.017,-0.004,0.073,0.023,-0.025,-0.025,-0.03,-0.035
0.029,-0.002,-0.031,-0.013,0.03,-0.016,0.063,0.01,-0.047,-0.046,-0.044,-0.052
0.014,-0.002,-0.016,-0.006,0.016,-0.009,0.061,0.004,-0.044,-0.045,-0.048,-0.056
0.0,-0.02,-0.02,0.01,0.01,-0.02,0.057,0.006,-0.046,-0.045,-0.053,-0.055
-0.017,-0.048,-0.031,0.033,0.007,-0.04,0.055,0.002,-0.041,-0.045,-0.054,-0.055
-0.035,-0.051,-0.016,0.043,-0.009,-0.033,0.051,0.0,-0.04,-0.045,-0.05,-0.055
0.006,-0.042,-0.048,0.018,0.028,-0.045,0.049,0.0,-0.04,-0.043,-0.05,-0.055
0.008,-0.041,-0.049,0.017,0.028,-0.045,0.054,0.004,-0.035,-0.039,-0.05,-0.05
0.006,-0.034,-0.04,0.015,0.023,-0.037,0.055,0.005,-0.032,-0.041,-0.05,-0.047
0.01,-0.031,-0.041,0.01,0.025,-0.035,0.055,0.005,-0.028,-0.04,-0.05,-0.043
-0.012,-0.041,-0.03,0.027,0.009,-0.035,0.055,0.009,-0.025,-0.04,-0.046,-0.04
0.0,-0.028,-0.028,0.014,0.014,-0.027,0.055,0.01,-0.02,-0.04,-0.045,-0.034
-0.024,-0.027,-0.003,0.026,-0.01,-0.015,0.054,0.009,-0.024,-0.035,-0.045,-0.042
-0.002,-0.037,-0.035,0.02,0.017,-0.036,0.049,0.002,-0.037,-0.035,-0.046,-0.056
0.024,-0.033,-0.056,0.005,0.04,-0.044,0.044,-0.004,-0.045,-0.034,-0.044,-0.054
-0.008,-0.028,-0.02,0.018,0.006,-0.024,0.039,-0.011,-0.046,-0.03,-0.047,-0.056
0.004,-0.039,-0.043,0.018,0.023,-0.04,0.035,-0.017,-0.045,-0.029,-0.049,-0.053
-0.009,-0.067,-0.058,0.039,0.025,-0.062,0.03,-0.025,-0.045,-0.036,-0.056,-0.063
-0.008,-0.062,-0.053,0.036,0.023,-0.057,0.027,-0.019,-0.045,-0.048,-0.06,-0.081
0.008,-0.048,-0.056,0.021,0.032,-0.052,0.024,-0.02,-0.044,-0.054,-0.06,-0.08
0.006,-0.043,-0.049,0.019,0.028,-0.046,0.021,-0.048,-0.042,-0.058,-0.081,-0.08
0.004,-0.046,-0.05,0.021,0.028,-0.048,0.019,-0.051,-0.037,-0.063,-0.09,-0.08
-0.004,-0.055,-0.051,0.03,0.023,-0.053,0.015,-0.049,-0.054,-0.065,-0.091,-0.08
0.006,-0.054,-0.06,0.025,0.034,-0.057,0.016,-0.051,-0.072,-0.065,-0.095,-0.078
0.007,-0.055,-0.062,0.024,0.035,-0.058,0.02,-0.049,-0.069,-0.065,-0.097,-0.075
0.002,-0.055,-0.057,0.027,0.03,-0.055,0.02,-0.052,-0.073,-0.065,-0.101,-0.072
0.0,-0.055,-0.055,0.028,0.028,-0.055,0.022,-0.054,-0.076,-0.065,-0.097,-0.069
-0.005,-0.055,-0.05,0.03,0.023,-0.052,0.026,-0.058,-0.074,-0.065,-0.095,-0.066
-0.007,-0.054,-0.047,0.031,0.02,-0.05,0.025,-0.06,-0.072,-0.068,-0.095,-0.065
-0.006,-0.049,-0.043,0.028,0.019,-0.045,0.022,-0.063,-0.068,-0.07,-0.091,-0.075
-0.004,-0.044,-0.04,0.024,0.019,-0.042,0.019,-0.066,-0.066,-0.07,-0.089,-0.076
-0.001,-0.041,-0.04,0.021,0.019,-0.04,0.016,-0.061,-0.063,-0.07,-0.091,-0.074
0.005,-0.033,-0.038,0.014,0.022,-0.035,0.013,-0.058,-0.06,-0.07,-0.094,-0.074
-0.013,-0.047,-0.034,0.031,0.011,-0.04,0.011,-0.054,-0.06,-0.07,-0.095,-0.069
-0.035,-0.07,-0.035,0.053,0.0,-0.053,0.008,-0.051,-0.06,-0.071,-0.095,-0.07
-0.021,-0.059,-0.039,0.04,0.009,-0.049,0.005,-0.046,-0.06,-0.075,-0.095,-0.072
-0.015,-0.055,-0.04,0.035,0.013,-0.047,0.005,-0.046,-0.06,-0.075,-0.095,-0.077
0.007,-0.046,-0.053,0.02,0.03,-0.05,0.005,-0.062,-0.06,-0.075,-0.097,-0.08
0.026,-0.033,-0.059,0.004,0.042,-0.045,0.005,-0.068,-0.059,-0.075,-0.101,-0.075
-0.008,-0.061,-0.053,0.035,0.023,-0.057,0.005,-0.063,-0.064,-0.074,-0.099,-0.075
-0.027,-0.072,-0.046,0.05,0.01,-0.059,0.009,-0.061,-0.069,-0.08,-0.104,-0.074
-0.025,-0.069,-0.044,0.047,0.009,-0.056,0.011,-0.058,-0.064,-0.088,-0.11,-0.07
-0.038,-0.071,-0.033,0.055,-0.003,-0.051,0.01,-0.054,-0.061,-0.084,-0.11,-0.07
-0.035,-0.069,-0.034,0.053,-0.001,-0.051,0.015,-0.057,-0.058,-0.078,-0.11,-0.07
-0.016,-0.071,-0.055,0.044,0.019,-0.063,0.014,-0.06,-0.054,-0.075,-0.11,-0.07
0.003,-0.051,-0.053,0.024,0.028,-0.052,0.016,-0.052,-0.05,-0.07,-0.111,-0.071
-0.001,-0.038,-0.037,0.02,0.018,-0.038,0.025,-0.041,-0.053,-0.065,-0.106,-0.076
0.004,-0.027,-0.031,0.012,0.018,-0.029,0.036,-0.033,-0.062,-0.061,-0.092,-0.075
0.045,0.003,-0.043,-0.024,0.044,-0.02,0.044,-0.011,-0.063,-0.059,-0.078,-0.071
0.054,0.025,-0.028,-0.039,0.041,-0.001,0.029,0.005,-0.061,-0.06,-0.075,-0.07
0.046,-0.006,-0.051,-0.02,0.049,-0.028,0.008,-0.005,-0.058,-0.06,-0.073,-0.065
0.062,-0.03,-0.093,-0.016,0.077,-0.061,-0.002,-0.031,-0.076,-0.059,-0.083,-0.066
0.056,-0.032,-0.088,-0.011,0.072,-0.06,-0.015,-0.06,-0.096,-0.062,-0.091,-0.057
0.028,-0.074,-0.102,0.023,0.065,-0.088,-0.025,-0.053,-0.095,-0.066,-0.089,-0.061
0.023,-0.08,-0.103,0.029,0.063,-0.091,-0.038,-0.09,-0.113,-0.079,-0.103,-0.078
0.017,-0.072,-0.089,0.028,0.054,-0.08,-0.035,-0.104,-0.113,-0.092,-0.115,-0.083
-0.002,-0.071,-0.069,0.037,0.033,-0.07,-0.027,-0.106,-0.11,-0.103,-0.119,-0.091
-0.022,-0.08,-0.059,0.051,0.019,-0.069,-0.027,-0.116,-0.105,-0.1,-0.115,-0.092
-0.028,-0.087,-0.058,0.058,0.015,-0.072,-0.016,-0.098,-0.099,-0.099,-0.115,-0.086
-0.03,-0.071,-0.041,0.051,0.006,-0.056,-0.021,-0.122,-0.099,-0.095,-0.114,-0.086
-0.026,-0.075,-0.05,0.051,0.012,-0.063,-0.018,-0.077,-0.08,-0.092,-0.116,-0.082
-0.029,-0.052,-0.023,0.041,-0.003,-0.037,-0.033,-0.13,-0.086,-0.09,-0.111,-0.077
-0.026,-0.091,-0.064,0.059,0.019,-0.077,0.057,0.051,-0.057,-0.1,-0.138,-0.114
-0.023,-0.033,-0.01,0.028,-0.007,-0.021,0.229,0.436,0.201,0.024,-0.093,-0.091
0.15,0.255,0.105,-0.202,0.023,0.179,0.375,1.255,1.264,0.825,0.423,0.241
0.304,0.445,0.141,-0.375,0.081,0.293,0.371,1.159,1.466,1.248,0.874,0.575
0.001,0.408,0.407,-0.204,-0.203,0.407,-0.343,-1.178,-0.337,0.286,0.532,0.482
-0.194,0.155,0.35,0.019,-0.272,0.252,-1.062,-2.081,-1.231,-0.513,-0.015,0.18
-0.133,-0.089,0.044,0.111,-0.089,-0.022,-0.937,-1.229,-0.849,-0.575,-0.253,-0.042
-0.094,-0.116,-0.023,0.105,-0.035,-0.069,-0.541,-0.704,-0.528,-0.426,-0.244,-0.089
-0.03,-0.096,-0.066,0.063,0.018,-0.081,-0.243,-0.24,-0.213,-0.225,-0.174,-0.074
-0.025,-0.084,-0.058,0.055,0.017,-0.071,-0.099,-0.105,-0.119,-0.168,-0.159,-0.084
-0.015,-0.072,-0.057,0.044,0.021,-0.064,-0.056,-0.038,-0.07,-0.121,-0.119,-0.078
-0.024,-0.08,-0.056,0.052,0.016,-0.068,-0.025,0.011,-0.04,-0.079,-0.094,-0.082
-0.027,-0.08,-0.053,0.054,0.013,-0.066,-0.01,0.019,-0.028,-0.064,-0.091,-0.076
-0.008,-0.078,-0.07,0.043,0.031,-0.073,0.004,0.056,-0.008,-0.041,-0.082,-0.069
-0.004,-0.074,-0.069,0.039,0.033,-0.071,0.012,0.053,-0.005,-0.02,-0.07,-0.066
-0.002,-0.07,-0.067,0.036,0.033,-0.068,0.032,0.075,0.015,-0.002,-0.054,-0.058
-0.001,-0.063,-0.062,0.033,0.031,-0.063,0.037,0.074,0.018,-0.002,-0.05,-0.055
0.003,-0.053,-0.056,0.026,0.03,-0.054,0.032,0.089,0.046,0.016,-0.043,-0.048
0.003,-0.046,-0.049,0.022,0.026,-0.047,0.047,0.113,0.066,0.025,-0.029,-0.038
0.007,-0.036,-0.043,0.015,0.025,-0.039,0.063,0.134,0.078,0.04,-0.007,-0.025
0.016,-0.019,-0.035,0.001,0.026,-0.027,0.065,0.156,0.103,0.07,0.014,-0.015
0.046,-0.004,-0.051,-0.021,0.049,-0.027,0.07,0.174,0.128,0.097,0.033,-0.005
0.069,0.012,-0.058,-0.04,0.063,-0.023,0.073,0.212,0.162,0.132,0.061,0.021
0.062,0.016,-0.047,-0.039,0.054,-0.015,0.076,0.255,0.218,0.171,0.087,0.038
0.067,0.031,-0.036,-0.049,0.052,-0.003,0.085,0.29,0.272,0.224,0.128,0.062
0.123,0.081,-0.042,-0.101,0.082,0.019,0.087,0.337,0.323,0.272,0.173,0.096
0.177,0.128,-0.049,-0.152,0.112,0.039,0.085,0.373,0.378,0.317,0.203,0.119
0.18,0.15,-0.03,-0.165,0.105,0.06,0.086,0.398,0.432,0.376,0.261,0.159
0.193,0.174,-0.019,-0.183,0.105,0.077,0.084,0.399,0.466,0.428,0.323,0.198
0.21,0.215,0.005,-0.212,0.102,0.11,0.067,0.383,0.455,0.44,0.344,0.214
0.169,0.211,0.042,-0.19,0.063,0.126,0.063,0.368,0.444,0.434,0.349,0.217
0.187,0.232,0.045,-0.21,0.071,0.138,0.072,0.329,0.432,0.412,0.338,0.233
0.213,0.255,0.042,-0.234,0.085,0.148,0.075,0.273,0.369,0.346,0.3,0.219
0.172,0.209,0.037,-0.191,0.067,0.122,0.075,0.209,0.27,0.254,0.233,0.157
0.147,0.184,0.037,-0.166,0.055,0.111,0.075,0.146,0.173,0.154,0.148,0.099
0.093,0.141,0.048,-0.118,0.022,0.094,0.087,0.097,0.107,0.078,0.08,0.047
0.059,0.089,0.029,-0.074,0.014,0.059,0.086,0.068,0.053,0.023,0.032,0.012
0.041,0.057,0.016,-0.049,0.013,0.036,0.077,0.039,0.022,-0.008,0.009,-0.007
0.024,0.036,0.013,-0.03,0.005,0.024,0.071,0.02,0.011,-0.022,-0.003,-0.022
0.038,0.034,-0.004,-0.036,0.021,0.015,0.064,0.011,-0.003,-0.031,-0.016,-0.031
0.018,0.024,0.007,-0.021,0.005,0.015,0.06,0.003,-0.006,-0.035,-0.022,-0.032
-0.014,0.02,0.034,-0.003,-0.024,0.027,0.055,-0.007,-0.01,-0.035,-0.029,-0.028
-0.01,0.012,0.022,-0.001,-0.016,0.017,0.051,-0.02,-0.013,-0.035,-0.035,-0.026
-0.002,0.007,0.009,-0.003,-0.006,0.008,0.046,-0.019,-0.018,-0.035,-0.033,-0.022
-0.02,0.0,0.02,0.01,-0.02,0.01,0.044,-0.01,-0.02,-0.035,-0.027,-0.02
-0.028,-0.011,0.017,0.019,-0.022,0.002,0.046,-0.005,-0.015,-0.035,-0.023,-0.018
-0.006,0.006,0.012,0.0,-0.01,0.009,0.044,0.003,-0.015,-0.031,-0.016,-0.015
-0.004,0.004,0.008,0.0,-0.006,0.005,0.045,0.009,-0.015,-0.028,-0.012,-0.015
0.002,0.007,0.005,-0.005,-0.002,0.006,0.045,0.007,-0.015,-0.024,-0.006,-0.015
0.012,0.028,0.016,-0.02,-0.002,0.022,0.045,0.004,-0.016,-0.021,0.0,-0.015
0.01,0.024,0.014,-0.017,-0.002,0.019,0.05,0.005,-0.012,-0.018,0.005,-0.015
0.004,0.006,0.002,-0.005,0.001,0.004,0.048,0.006,-0.003,-0.013,0.01,-0.01
0.047,0.038,-0.009,-0.042,0.028,0.014,0.063,0.012,0.008,-0.008,0.017,-0.01
0.112,0.093,-0.019,-0.102,0.065,0.037,0.077,0.019,0.017,-0.004,0.019,-0.009
0.108,0.115,0.006,-0.112,0.051,0.06,0.074,0.016,0.015,0.001,0.014,-0.005
0.097,0.108,0.01,-0.103,0.043,0.059,0.075,0.01,0.008,0.006,0.016,-0.006
0.087,0.075,-0.012,-0.081,0.049,0.032,0.075,0.004,0.004,0.009,0.012,-0.002
0.068,0.085,0.017,-0.077,0.025,0.051,0.075,-0.001,-0.002,0.012,0.01,0.0
0.058,0.089,0.031,-0.074,0.013,0.06,0.072,-0.007,-0.008,0.015,0.01,0.0
0.051,0.076,0.025,-0.064,0.013,0.05,0.069,-0.019,-0.012,0.018,0.007,0.004
0.056,0.075,0.018,-0.066,0.019,0.046,0.071,-0.021,-0.017,0.021,0.004,0.005
0.047,0.064,0.017,-0.056,0.014,0.041,0.069,-0.019,-0.02,0.018,0.007,0.005
0.016,0.061,0.045,-0.039,-0.015,0.053,0.071,-0.021,-0.023,0.013,0.019,0.005
0.008,0.06,0.052,-0.034,-0.022,0.056,0.069,-0.02,-0.028,0.01,0.021,0.005
0.01,0.06,0.049,-0.035,-0.02,0.055,0.064,-0.021,-0.03,0.007,0.015,0.005
0.016,0.065,0.049,-0.04,-0.017,0.057,0.086,-0.016,-0.026,0.002,0.013,0.005
0.03,0.089,0.059,-0.06,-0.015,0.074,0.097,-0.01,-0.023,0.0,0.008,0.005
0.033,0.104,0.072,-0.069,-0.02,0.088,0.094,-0.005,-0.02,0.007,0.004,0.007
0.034,0.101,0.067,-0.068,-0.017,0.083,0.099,0.001,-0.017,0.018,0.016,0.011
0.035,0.094,0.06,-0.064,-0.013,0.077,0.1,0.007,-0.015,0.023,0.028,0.014
0.03,0.09,0.06,-0.06,-0.015,0.075,0.099,0.009,-0.015,0.018,0.023,0.018
0.033,0.082,0.049,-0.058,-0.009,0.066,0.096,0.004,-0.015,0.015,0.021,0.02
0.03,0.083,0.053,-0.056,-0.011,0.067,0.093,-0.002,-0.015,0.012,0.018,0.015
0.03,0.091,0.062,-0.061,-0.016,0.076,0.09,-0.005,-0.015,0.007,0.015,0.015
0.027,0.086,0.059,-0.056,-0.016,0.072,0.088,-0.01,-0.015,0.005,0.015,0.014
0.026,0.104,0.077,-0.065,-0.025,0.09,0.084,-0.015,-0.016,0.009,0.015,0.009
0.047,0.109,0.062,-0.078,-0.008,0.086,0.088,-0.011,-0.019,0.01,0.015,0.011
0.048,0.102,0.053,-0.075,-0.003,0.077,0.09,-0.01,-0.02,0.01,0.015,0.006
0.029,0.099,0.07,-0.064,-0.021,0.084,0.09,-0.01,-0.018,0.01,0.015,-0.006
0.022,0.093,0.071,-0.057,-0.025,0.082,0.09,-0.006,-0.012,0.009,0.015,-0.006
0.04,0.091,0.051,-0.065,-0.006,0.071,0.088,-0.005,-0.008,0.012,0.018,-0.001
0.03,0.077,0.047,-0.054,-0.009,0.062,0.11,-0.005,-0.004,0.019,0.021,0.001
0.027,0.106,0.08,-0.067,-0.027,0.093,0.124,0.006,0.001,0.026,0.026,0.006
0.021,0.105,0.084,-0.064,-0.031,0.094,0.124,0.015,0.006,0.032,0.028,0.009
0.045,0.116,0.071,-0.081,-0.013,0.093,0.136,0.025,0.015,0.039,0.037,0.013
0.083,0.143,0.06,-0.113,0.011,0.101,0.131,0.044,0.032,0.05,0.058,0.021
0.059,0.107,0.048,-0.083,0.005,0.077,0.114,0.037,0.034,0.051,0.061,0.029
0.064,0.094,0.03,-0.079,0.017,0.062,0.104,0.029,0.009,0.044,0.056,0.035
0.06,0.077,0.017,-0.069,0.021,0.046,0.098,0.019,-0.008,0.04,0.054,0.035
0.105,0.104,-0.001,-0.104,0.052,0.051,0.095,0.016,-0.009,0.037,0.051,0.035
0.16,0.146,-0.015,-0.153,0.087,0.065,0.092,0.006,-0.02,0.03,0.048,0.035
0.14,0.133,-0.007,-0.136,0.073,0.063,0.086,0.003,-0.019,0.029,0.047,0.036
0.117,0.131,0.014,-0.125,0.051,0.072,0.086,0.01,-0.02,0.023,0.042,0.032
0.15,0.14,-0.009,-0.145,0.079,0.065,0.089,-0.007,-0.021,0.026,0.041,0.03
0.207,0.167,-0.039,-0.186,0.123,0.064,0.094,0.013,-0.017,0.024,0.037,0.027
0.176,0.178,0.002,-0.177,0.087,0.09,0.103,-0.019,-0.025,0.025,0.035,0.024
0.183,0.155,-0.029,-0.169,0.106,0.063,0.122,0.019,-0.013,0.026,0.033,0.021
0.174,0.159,-0.016,-0.166,0.095,0.072,0.082,-0.035,-0.034,0.023,0.014,0.019
0.128,0.112,-0.016,-0.119,0.071,0.048,0.146,0.071,-0.008,0.026,0.005,-0.009
0.122,0.126,0.005,-0.124,0.059,0.065,0.332,0.42,0.155,0.068,0.017,-0.03
0.227,0.37,0.143,-0.299,0.042,0.256,0.49,1.176,1.071,0.72,0.42,0.241
0.437,0.617,0.18,-0.527,0.128,0.398,0.569,1.566,1.684,1.36,0.96,0.625
0.229,0.647,0.418,-0.438,-0.095,0.532,-0.065,-0.545,0.168,0.666,0.803,0.64
-0.037,0.415,0.452,-0.189,-0.245,0.433,-0.929,-2.071,-1.085,-0.244,0.284,0.399
0.019,0.149,0.13,-0.085,-0.055,0.139,-0.918,-1.303,-0.83,-0.419,-0.031,0.14
0.018,0.072,0.054,-0.045,-0.018,0.063,-0.487,-0.69,-0.509,-0.332,-0.091,0.04
0.054,0.104,0.05,-0.079,0.002,0.077,-0.164,-0.237,-0.205,-0.154,-0.036,0.045
0.079,0.114,0.035,-0.097,0.022,0.074,0.015,-0.023,-0.071,-0.058,-0.012,0.024
0.068,0.099,0.031,-0.084,0.018,0.065,0.073,0.027,-0.036,-0.022,0.011,0.018
0.084,0.098,0.014,-0.091,0.035,0.055,0.103,0.1,0.012,0.01,0.02,-0.002
0.072,0.084,0.012,-0.078,0.03,0.048,0.123,0.096,0.012,0.019,0.037,0.002
0.096,0.085,-0.011,-0.09,0.053,0.036,0.143,0.124,0.031,0.033,0.039,0.013
0.101,0.085,-0.016,-0.092,0.058,0.034,0.144,0.12,0.042,0.05,0.054,0.023
0.088,0.072,-0.016,-0.079,0.052,0.028,0.145,0.153,0.071,0.081,0.077,0.049
0.114,0.099,-0.014,-0.106,0.064,0.042,0.146,0.15,0.072,0.089,0.075,0.053
0.131,0.116,-0.015,-0.123,0.073,0.05,0.157,0.164,0.086,0.101,0.093,0.058
0.148,0.133,-0.015,-0.14,0.082,0.059,0.174,0.193,0.119,0.125,0.108,0.061
0.171,0.158,-0.014,-0.164,0.092,0.072,0.175,0.208,0.141,0.14,0.126,0.067
0.166,0.137,-0.029,-0.151,0.097,0.054,0.174,0.233,0.164,0.158,0.141,0.076
0.155,0.164,0.01,-0.16,0.072,0.087,0.187,0.257,0.192,0.183,0.149,0.082
0.176,0.2,0.024,-0.188,0.076,0.112,0.21,0.293,0.223,0.215,0.181,0.106
0.199,0.168,-0.031,-0.183,0.115,0.068,0.213,0.335,0.265,0.256,0.22,0.124
0.202,0.2,-0.003,-0.201,0.103,0.098,0.21,0.367,0.313,0.305,0.246,0.143
0.216,0.232,0.016,-0.224,0.1,0.124,0.208,0.405,0.354,0.332,0.267,0.156
0.233,0.241,0.008,-0.237,0.112,0.124,0.205,0.447,0.41,0.392,0.311,0.183
0.23,0.292,0.063,-0.261,0.083,0.177,0.202,0.471,0.461,0.443,0.362,0.222
0.251,0.319,0.067,-0.285,0.091,0.193,0.199,0.477,0.5,0.498,0.405,0.261
0.338,0.361,0.023,-0.35,0.157,0.191,0.197,0.473,0.531,0.515,0.447,0.299
