-0.032,-0.239,-0.208,0.135,0.088,-0.223,-0.599,0.079,0.02,0.12,-0.015,-0.035
-0.018,-0.234,-0.216,0.126,0.099,-0.224,-0.603,0.081,0.026,0.12,-0.015,-0.067
0.02,-0.228,-0.248,0.104,0.134,-0.237,-0.618,0.095,0.035,0.125,-0.015,-0.064
0.021,-0.222,-0.243,0.101,0.133,-0.233,-0.62,0.101,0.041,0.127,-0.019,-0.047
0.03,-0.216,-0.246,0.093,0.138,-0.231,-0.621,0.121,0.057,0.131,-0.02,-0.04
0.036,-0.209,-0.245,0.087,0.14,-0.226,-0.624,0.136,0.08,0.136,-0.02,-0.04
0.042,-0.202,-0.245,0.081,0.144,-0.223,-0.627,0.15,0.087,0.149,-0.008,-0.037
0.052,-0.196,-0.247,0.072,0.15,-0.221,-0.629,0.184,0.096,0.175,0.009,-0.031
0.061,-0.189,-0.25,0.064,0.156,-0.219,-0.634,0.208,0.125,0.194,0.02,-0.024
0.082,-0.184,-0.266,0.051,0.174,-0.225,-0.657,0.239,0.167,0.216,0.032,-0.007
0.095,-0.177,-0.272,0.041,0.184,-0.224,-0.673,0.279,0.212,0.237,0.049,0.024
0.125,-0.173,-0.298,0.024,0.212,-0.236,-0.684,0.331,0.271,0.269,0.07,0.03
0.171,-0.163,-0.334,-0.003,0.252,-0.248,-0.709,0.389,0.329,0.303,0.1,0.049
0.22,-0.143,-0.363,-0.039,0.292,-0.253,-0.714,0.439,0.37,0.335,0.135,0.089
0.28,-0.115,-0.396,-0.082,0.338,-0.255,-0.714,0.464,0.395,0.352,0.162,0.108
0.298,-0.098,-0.396,-0.1,0.347,-0.247,-0.703,0.459,0.392,0.343,0.178,0.16
0.289,-0.1,-0.389,-0.094,0.339,-0.244,-0.703,0.451,0.362,0.338,0.179,0.186
0.282,-0.1,-0.382,-0.091,0.332,-0.241,-0.674,0.423,0.313,0.31,0.173,0.166
0.237,-0.1,-0.337,-0.068,0.287,-0.218,-0.539,0.374,0.26,0.277,0.163,0.156
0.178,-0.1,-0.277,-0.039,0.227,-0.188,-0.438,0.309,0.204,0.263,0.136,0.128
0.116,-0.1,-0.216,-0.007,0.166,-0.158,-0.406,0.231,0.131,0.241,0.102,0.096
0.067,-0.106,-0.174,0.02,0.121,-0.14,-0.355,0.159,0.077,0.208,0.07,0.056
0.024,-0.129,-0.153,0.053,0.089,-0.141,-0.342,0.094,0.03,0.172,0.043,0.014
-0.024,-0.158,-0.133,0.091,0.054,-0.145,-0.281,0.041,-0.016,0.14,0.015,-0.019
-0.033,-0.162,-0.129,0.097,0.048,-0.145,-0.103,0.006,-0.019,0.112,-0.012,-0.043
-0.039,-0.165,-0.126,0.103,0.044,-0.145,-0.004,-0.019,-0.012,0.12,-0.021,-0.042
-0.048,-0.17,-0.122,0.109,0.037,-0.146,0.008,-0.028,-0.008,0.124,-0.028,-0.037
-0.047,-0.167,-0.12,0.107,0.037,-0.143,0.022,-0.022,0.0,0.106,-0.034,-0.045
-0.049,-0.164,-0.115,0.107,0.034,-0.139,0.028,-0.018,0.003,0.093,-0.03,-0.046
-0.046,-0.161,-0.115,0.104,0.034,-0.137,0.044,-0.014,0.011,0.082,-0.022,-0.044
-0.044,-0.158,-0.115,0.102,0.036,-0.136,0.05,-0.009,0.019,0.085,-0.016,-0.041
-0.04,-0.155,-0.115,0.098,0.038,-0.135,0.051,-0.005,0.021,0.084,-0.009,-0.039
-0.041,-0.156,-0.115,0.099,0.037,-0.135,0.049,0.0,0.036,0.095,-0.002,-0.041
-0.047,-0.16,-0.113,0.104,0.033,-0.136,0.059,0.005,0.048,0.1,-0.002,-0.03
-0.051,-0.16,-0.109,0.106,0.029,-0.135,0.079,0.009,0.044,0.089,-0.006,-0.03
-0.052,-0.159,-0.107,0.106,0.028,-0.133,0.082,0.013,0.039,0.082,-0.005,-0.01
-0.058,-0.161,-0.103,0.11,0.023,-0.132,0.078,0.019,0.033,0.074,-0.009,-0.002
-0.044,-0.158,-0.114,0.101,0.035,-0.135,0.082,0.018,0.027,0.066,-0.011,-0.021
-0.034,-0.164,-0.131,0.099,0.049,-0.147,0.078,0.011,0.022,0.05,-0.009,-0.006
-0.054,-0.181,-0.126,0.118,0.036,-0.153,0.083,0.006,0.013,0.034,-0.02,-0.031
-0.051,-0.175,-0.123,0.113,0.036,-0.149,0.093,0.001,0.002,0.024,-0.028,-0.054
-0.051,-0.17,-0.12,0.111,0.034,-0.145,0.086,-0.006,-0.006,0.025,-0.024,-0.042
-0.051,-0.166,-0.115,0.109,0.033,-0.141,0.079,-0.009,-0.012,0.018,-0.026,-0.041
-0.049,-0.163,-0.113,0.106,0.032,-0.138,0.065,-0.005,-0.016,0.024,-0.025,-0.037
-0.043,-0.151,-0.108,0.097,0.033,-0.129,0.067,0.003,-0.024,0.043,-0.025,-0.028
-0.001,-0.106,-0.105,0.054,0.053,-0.105,-0.022,0.007,-0.018,0.046,-0.025,-0.029
0.005,-0.058,-0.063,0.027,0.034,-0.06,-0.086,0.014,0.009,0.073,-0.008,-0.004
-0.009,-0.013,-0.005,0.011,-0.002,-0.009,-0.069,0.033,0.029,0.093,0.021,0.045
0.03,0.032,0.002,-0.031,0.014,0.017,-0.156,0.022,0.047,0.108,0.047,0.066
0.042,0.025,-0.017,-0.033,0.029,0.004,-0.197,0.0,0.047,0.118,0.048,0.071
0.029,-0.01,-0.039,-0.009,0.035,-0.025,-0.181,-0.018,0.028,0.113,0.039,0.067
0.035,-0.033,-0.068,-0.001,0.052,-0.05,-0.183,-0.03,0.002,0.129,0.02,0.059
-0.02,-0.107,-0.088,0.064,0.034,-0.097,-0.181,-0.037,-0.043,0.103,-0.021,0.016
-0.059,-0.174,-0.115,0.117,0.028,-0.144,-0.185,-0.042,-0.075,0.048,-0.062,-0.039
-0.068,-0.162,-0.094,0.115,0.014,-0.128,-0.19,-0.066,-0.101,0.028,-0.055,-0.051
-0.073,-0.192,-0.119,0.133,0.023,-0.155,-0.188,-0.058,-0.103,-0.01,-0.065,-0.078
-0.062,-0.186,-0.124,0.124,0.031,-0.155,-0.197,-0.06,-0.104,-0.013,-0.066,-0.065
-0.057,-0.191,-0.133,0.124,0.038,-0.162,-0.192,-0.064,-0.126,-0.053,-0.104,-0.071
-0.048,-0.19,-0.142,0.119,0.048,-0.166,-0.191,-0.048,-0.122,-0.081,-0.117,-0.075
-0.05,-0.171,-0.121,0.111,0.036,-0.146,-0.181,-0.083,-0.129,-0.062,-0.095,-0.057
-0.046,-0.238,-0.192,0.142,0.073,-0.215,-0.163,0.098,-0.031,-0.055,-0.155,-0.126
-0.056,-0.143,-0.087,0.1,0.016,-0.115,-0.229,0.379,0.247,0.144,-0.048,-0.091
0.162,0.038,-0.124,-0.1,0.143,-0.043,-0.412,0.261,0.508,0.465,0.26,0.185
0.455,0.758,0.303,-0.606,0.075,0.531,-1.181,-1.052,0.247,1.156,1.206,1.119
0.233,0.926,0.692,-0.58,-0.23,0.809,-1.693,-2.315,-0.778,0.859,1.168,1.31
-0.223,-0.106,0.117,0.164,-0.17,0.005,-1.088,-1.764,-1.364,-0.487,-0.245,0.126
-0.279,-0.44,-0.161,0.36,-0.059,-0.3,-0.614,-0.748,-0.776,-0.512,-0.444,-0.258
-0.104,-0.283,-0.178,0.194,0.037,-0.23,-0.551,-0.212,-0.221,-0.115,-0.172,-0.098
-0.057,-0.225,-0.168,0.142,0.055,-0.196,-0.503,-0.026,-0.112,-0.112,-0.177,-0.105
-0.034,-0.167,-0.134,0.101,0.05,-0.15,-0.493,0.006,-0.049,-0.076,-0.116,-0.06
-0.019,-0.183,-0.164,0.101,0.073,-0.173,-0.479,0.056,-0.053,-0.071,-0.151,-0.085
-0.021,-0.161,-0.139,0.091,0.059,-0.15,-0.494,0.06,-0.041,0.019,-0.113,-0.063
-0.012,-0.169,-0.157,0.09,0.073,-0.163,-0.484,0.085,-0.035,0.032,-0.124,-0.072
-0.01,-0.157,-0.147,0.083,0.068,-0.152,-0.475,0.082,-0.031,0.062,-0.107,-0.057
-0.006,-0.155,-0.15,0.08,0.072,-0.152,-0.466,0.1,-0.021,0.075,-0.102,-0.051
0.009,-0.148,-0.157,0.07,0.083,-0.152,-0.455,0.124,-0.011,0.071,-0.1,-0.044
0.033,-0.139,-0.173,0.054,0.103,-0.156,-0.462,0.133,0.019,0.079,-0.09,-0.034
0.044,-0.136,-0.18,0.046,0.112,-0.157,-0.458,0.151,0.036,0.072,-0.093,-0.056
0.05,-0.126,-0.176,0.038,0.113,-0.151,-0.466,0.181,0.078,0.077,-0.076,-0.037
0.068,-0.118,-0.187,0.025,0.128,-0.152,-0.465,0.217,0.114,0.077,-0.059,-0.013
0.102,-0.107,-0.209,0.003,0.155,-0.157,-0.473,0.263,0.161,0.107,-0.038,-0.005
0.14,-0.098,-0.238,-0.021,0.189,-0.168,-0.514,0.326,0.252,0.142,-0.004,0.01
0.175,-0.084,-0.259,-0.045,0.217,-0.171,-0.389,0.388,0.322,0.17,0.026,0.026
0.21,-0.069,-0.279,-0.07,0.245,-0.174,-0.26,0.442,0.382,0.201,0.039,0.057
0.263,-0.061,-0.323,-0.101,0.293,-0.192,-0.273,0.481,0.408,0.231,0.072,0.106
0.277,-0.06,-0.337,-0.109,0.307,-0.198,-0.27,0.487,0.397,0.241,0.091,0.133
0.264,-0.06,-0.324,-0.101,0.294,-0.192,-0.271,0.479,0.384,0.235,0.082,0.143
0.266,-0.059,-0.325,-0.103,0.295,-0.192,-0.271,0.459,0.349,0.226,0.073,0.139
0.236,-0.061,-0.297,-0.087,0.267,-0.179,-0.265,0.408,0.294,0.191,0.062,0.134
0.176,-0.064,-0.24,-0.056,0.208,-0.151,-0.232,0.328,0.212,0.15,0.05,0.12
0.106,-0.066,-0.172,-0.02,0.139,-0.119,-0.191,0.245,0.131,0.11,0.024,0.068
0.063,-0.063,-0.126,0.0,0.095,-0.094,-0.169,0.162,0.067,0.074,-0.012,0.029
0.035,-0.074,-0.109,0.019,0.073,-0.091,-0.158,0.085,0.016,0.037,-0.042,0.0
-0.009,-0.096,-0.087,0.053,0.039,-0.091,-0.161,0.035,-0.03,-0.012,-0.065,-0.034
-0.029,-0.1,-0.071,0.064,0.021,-0.085,-0.159,0.0,-0.056,-0.054,-0.088,-0.048
-0.04,-0.106,-0.066,0.073,0.013,-0.086,-0.16,-0.029,-0.056,-0.104,-0.101,-0.041
-0.049,-0.111,-0.061,0.08,0.006,-0.086,-0.16,-0.052,-0.061,-0.137,-0.1,-0.058
-0.047,-0.105,-0.058,0.076,0.006,-0.081,-0.156,-0.056,-0.058,-0.137,-0.1,-0.08
-0.05,-0.102,-0.052,0.076,0.002,-0.077,-0.155,-0.049,-0.051,-0.133,-0.101,-0.066
-0.05,-0.098,-0.048,0.074,-0.001,-0.073,-0.155,-0.043,-0.046,-0.125,-0.098,-0.059
-0.05,-0.094,-0.045,0.073,-0.002,-0.07,-0.154,-0.037,-0.039,-0.119,-0.092,-0.044
-0.048,-0.091,-0.043,0.069,-0.002,-0.067,-0.156,-0.036,-0.036,-0.112,-0.089,-0.047
-0.049,-0.088,-0.039,0.068,-0.005,-0.063,-0.154,-0.023,-0.028,-0.106,-0.083,-0.068
-0.045,-0.082,-0.037,0.064,-0.004,-0.059,-0.165,-0.006,-0.017,-0.108,-0.081,-0.063
-0.044,-0.077,-0.033,0.061,-0.005,-0.055,-0.167,-0.005,-0.012,-0.112,-0.083,-0.066
-0.038,-0.073,-0.036,0.056,-0.001,-0.054,-0.183,-0.005,-0.018,-0.115,-0.088,-0.061
-0.01,-0.069,-0.059,0.039,0.024,-0.064,-0.183,-0.005,-0.023,-0.118,-0.099,-0.057
-0.002,-0.064,-0.063,0.033,0.031,-0.063,-0.185,-0.005,-0.026,-0.122,-0.101,-0.056
-0.007,-0.059,-0.052,0.033,0.023,-0.055,-0.187,-0.006,-0.032,-0.129,-0.099,-0.048
-0.005,-0.05,-0.045,0.028,0.02,-0.047,-0.178,-0.009,-0.035,-0.141,-0.096,-0.052
-0.008,-0.045,-0.037,0.027,0.015,-0.041,-0.203,-0.011,-0.028,-0.148,-0.096,-0.034
-0.003,-0.034,-0.031,0.019,0.014,-0.033,-0.003,-0.015,-0.019,-0.141,-0.093,-0.057
0.023,-0.004,-0.027,-0.009,0.025,-0.015,0.206,-0.012,-0.012,-0.129,-0.089,-0.062
0.024,0.034,0.009,-0.029,0.007,0.021,0.229,-0.003,0.003,-0.12,-0.066,-0.022
0.039,0.103,0.064,-0.071,-0.013,0.083,0.227,0.003,0.014,-0.114,-0.026,-0.007
0.081,0.135,0.054,-0.108,0.013,0.095,0.163,-0.003,0.028,-0.115,-0.011,0.043
0.067,0.089,0.022,-0.078,0.022,0.055,0.152,-0.017,0.029,-0.116,-0.032,0.052
0.066,0.059,-0.007,-0.062,0.036,0.025,0.158,-0.026,0.008,-0.112,-0.053,0.03
0.044,0.018,-0.026,-0.031,0.035,-0.004,0.153,-0.049,-0.034,-0.139,-0.062,0.012
-0.013,-0.052,-0.039,0.033,0.013,-0.045,0.156,-0.078,-0.086,-0.197,-0.112,-0.043
-0.018,-0.09,-0.072,0.054,0.028,-0.081,0.155,-0.073,-0.115,-0.25,-0.147,-0.087
-0.04,-0.097,-0.057,0.069,0.009,-0.077,0.154,-0.087,-0.137,-0.263,-0.131,-0.086
-0.045,-0.114,-0.069,0.08,0.013,-0.091,0.157,-0.073,-0.133,-0.267,-0.155,-0.095
-0.031,-0.099,-0.068,0.065,0.019,-0.083,0.152,-0.086,-0.139,-0.24,-0.134,-0.092
-0.024,-0.129,-0.105,0.076,0.041,-0.116,0.158,-0.076,-0.158,-0.256,-0.155,-0.116
-0.025,-0.103,-0.078,0.064,0.027,-0.09,0.154,-0.079,-0.148,-0.244,-0.137,-0.098
-0.029,-0.126,-0.097,0.077,0.034,-0.111,0.155,-0.089,-0.146,-0.262,-0.15,-0.098
-0.044,-0.155,-0.11,0.1,0.033,-0.132,0.254,0.143,-0.014,-0.231,-0.187,-0.163
-0.007,-0.032,-0.025,0.02,0.009,-0.029,0.356,0.425,0.312,0.016,-0.043,-0.104
0.311,0.257,-0.053,-0.284,0.182,0.102,0.088,0.027,0.514,0.373,0.403,0.322
0.515,1.031,0.516,-0.773,-0.001,0.773,-0.796,-1.57,0.07,0.971,1.339,1.283
0.174,0.784,0.61,-0.48,-0.218,0.697,-1.017,-2.419,-0.988,0.304,0.81,1.042
-0.226,-0.241,-0.015,0.233,-0.105,-0.128,-0.297,-1.537,-1.313,-0.86,-0.473,-0.127
-0.19,-0.329,-0.139,0.26,-0.026,-0.233,0.117,-0.592,-0.586,-0.562,-0.356,-0.234
-0.047,-0.21,-0.163,0.129,0.058,-0.186,0.21,-0.134,-0.159,-0.251,-0.187,-0.114
-0.043,-0.157,-0.114,0.1,0.035,-0.135,0.206,-0.018,-0.096,-0.228,-0.164,-0.128
-0.011,-0.116,-0.104,0.063,0.047,-0.11,0.202,0.018,-0.029,-0.171,-0.131,-0.093
0.001,-0.116,-0.118,0.058,0.06,-0.117,0.206,0.055,-0.027,-0.198,-0.178,-0.106
0.016,-0.087,-0.103,0.036,0.06,-0.095,0.206,0.063,-0.002,-0.197,-0.14,-0.081
0.043,-0.094,-0.137,0.025,0.09,-0.115,0.199,0.082,-0.003,-0.227,-0.161,-0.094
0.047,-0.078,-0.124,0.016,0.086,-0.101,0.265,0.083,0.011,-0.199,-0.139,-0.081
0.053,-0.08,-0.133,0.014,0.093,-0.107,0.429,0.106,0.017,-0.189,-0.144,-0.083
0.054,-0.07,-0.123,0.008,0.089,-0.096,0.454,0.126,0.027,-0.148,-0.133,-0.074
0.059,-0.067,-0.125,0.005,0.092,-0.096,0.454,0.141,0.04,-0.112,-0.127,-0.067
0.065,-0.061,-0.127,-0.002,0.096,-0.094,0.456,0.158,0.054,-0.095,-0.115,-0.062
0.077,-0.053,-0.131,-0.012,0.104,-0.092,0.418,0.191,0.088,-0.067,-0.089,-0.053
0.096,-0.049,-0.145,-0.023,0.121,-0.097,0.39,0.223,0.115,-0.034,-0.077,-0.05
0.122,-0.037,-0.159,-0.042,0.141,-0.098,0.375,0.276,0.165,-0.005,-0.056,-0.036
0.148,-0.026,-0.174,-0.06,0.161,-0.1,0.366,0.342,0.221,0.014,-0.038,-0.025
0.193,-0.012,-0.205,-0.09,0.199,-0.108,0.347,0.402,0.271,0.052,-0.016,-0.014
0.252,0.0,-0.252,-0.126,0.252,-0.126,0.33,0.462,0.324,0.071,0.03,0.018
0.288,0.02,-0.269,-0.154,0.278,-0.124,0.3,0.485,0.328,0.085,0.066,0.056
0.304,0.036,-0.267,-0.17,0.285,-0.115,0.294,0.478,0.318,0.11,0.064,0.082
0.296,0.035,-0.261,-0.165,0.278,-0.113,0.28,0.469,0.302,0.102,0.06,0.097
0.281,0.034,-0.247,-0.157,0.264,-0.106,0.284,0.431,0.246,0.083,0.055,0.097
0.241,0.03,-0.211,-0.135,0.226,-0.091,0.261,0.376,0.179,0.052,0.051,0.082
0.177,0.031,-0.146,-0.104,0.162,-0.058,0.146,0.301,0.103,0.001,0.033,0.06
0.119,0.025,-0.094,-0.072,0.106,-0.035,0.099,0.199,0.038,-0.04,-0.012,0.021
0.06,0.001,-0.059,-0.031,0.06,-0.028,0.097,0.113,-0.015,-0.063,-0.043,-0.023
0.024,-0.012,-0.037,-0.006,0.031,-0.024,0.088,0.049,-0.06,-0.086,-0.063,-0.04
0.003,-0.02,-0.023,0.009,0.013,-0.021,0.089,0.003,-0.096,-0.112,-0.092,-0.063
-0.016,-0.028,-0.012,0.022,-0.002,-0.02,0.082,-0.029,-0.126,-0.124,-0.11,-0.094
-0.024,-0.03,-0.007,0.027,-0.009,-0.018,0.08,-0.047,-0.152,-0.14,-0.11,-0.106
-0.029,-0.03,-0.001,0.03,-0.014,-0.015,0.076,-0.05,-0.179,-0.148,-0.11,-0.115
-0.034,-0.03,0.004,0.031,-0.019,-0.013,0.074,-0.045,-0.174,-0.147,-0.11,-0.111
-0.041,-0.03,0.011,0.035,-0.026,-0.01,0.071,-0.04,-0.16,-0.144,-0.11,-0.105
-0.044,-0.03,0.014,0.036,-0.029,-0.007,0.068,-0.037,-0.151,-0.141,-0.11,-0.102
-0.036,-0.025,0.01,0.031,-0.023,-0.007,0.065,-0.031,-0.141,-0.138,-0.106,-0.097
-0.035,-0.025,0.01,0.03,-0.022,-0.007,0.063,-0.028,-0.134,-0.135,-0.101,-0.093
-0.034,-0.025,0.009,0.029,-0.021,-0.008,0.033,-0.023,-0.1,-0.134,-0.096,-0.088
-0.03,-0.025,0.005,0.027,-0.017,-0.01,0.02,-0.02,-0.07,-0.129,-0.093,-0.084
-0.029,-0.025,0.004,0.027,-0.016,-0.011,0.038,-0.017,-0.071,-0.123,-0.087,-0.08
-0.035,-0.023,0.012,0.028,-0.023,-0.005,0.049,-0.012,-0.07,-0.12,-0.086,-0.075
-0.042,-0.019,0.022,0.03,-0.032,0.001,0.065,-0.01,-0.066,-0.115,-0.095,-0.076
-0.038,-0.02,0.018,0.029,-0.028,-0.001,0.071,-0.02,-0.065,-0.11,-0.103,-0.073
-0.035,-0.02,0.015,0.027,-0.025,-0.002,0.075,-0.031,-0.066,-0.107,-0.108,-0.07
-0.032,-0.02,0.013,0.026,-0.023,-0.003,0.078,-0.029,-0.073,-0.101,-0.108,-0.07
-0.03,-0.021,0.009,0.025,-0.019,-0.006,0.082,-0.041,-0.079,-0.097,-0.102,-0.066
-0.023,-0.01,0.013,0.016,-0.017,0.001,0.083,-0.049,-0.076,-0.092,-0.114,-0.072
-0.023,-0.001,0.022,0.012,-0.023,0.01,0.089,-0.044,-0.064,-0.088,-0.113,-0.067
-0.011,0.021,0.032,-0.006,-0.022,0.027,0.092,-0.034,-0.055,-0.082,-0.088,-0.054
0.01,0.063,0.053,-0.037,-0.022,0.058,0.119,-0.008,-0.044,-0.07,-0.078,-0.045
0.024,0.122,0.098,-0.073,-0.037,0.11,0.136,-0.006,-0.02,-0.043,-0.053,-0.01
0.054,0.181,0.127,-0.118,-0.037,0.154,0.067,-0.018,0.0,-0.009,-0.022,0.02
0.082,0.186,0.103,-0.134,-0.011,0.144,0.001,-0.027,0.0,-0.003,-0.017,0.013
0.09,0.153,0.064,-0.122,0.013,0.108,-0.001,-0.038,0.0,-0.019,-0.025,0.002
0.059,0.091,0.033,-0.075,0.013,0.062,-0.009,-0.045,-0.002,-0.061,-0.048,-0.01
0.004,0.036,0.032,-0.02,-0.014,0.034,-0.145,-0.077,-0.03,-0.11,-0.089,-0.036
-0.033,-0.016,0.017,0.024,-0.025,0.001,-0.237,-0.082,-0.062,-0.137,-0.136,-0.073
-0.046,-0.035,0.011,0.04,-0.028,-0.012,-0.244,-0.082,-0.08,-0.134,-0.141,-0.09
-0.046,-0.041,0.005,0.043,-0.025,-0.018,-0.266,-0.09,-0.106,-0.134,-0.144,-0.096
-0.048,-0.059,-0.011,0.054,-0.019,-0.034,-0.266,-0.084,-0.119,-0.138,-0.15,-0.098
-0.056,-0.055,0.001,0.056,-0.028,-0.027,-0.279,-0.099,-0.111,-0.138,-0.135,-0.089
-0.045,-0.081,-0.036,0.063,-0.004,-0.058,-0.275,-0.077,-0.123,-0.165,-0.16,-0.106
-0.044,-0.043,0.001,0.044,-0.022,-0.021,-0.289,-0.108,-0.158,-0.117,-0.124,-0.08
-0.056,-0.12,-0.064,0.088,0.004,-0.092,-0.243,-0.026,-0.144,-0.133,-0.183,-0.131
-0.076,-0.072,0.005,0.074,-0.04,-0.033,-0.148,0.278,0.07,-0.011,-0.123,-0.142
0.067,0.078,0.011,-0.073,0.028,0.044,-0.102,0.434,0.403,0.234,0.068,-0.017
0.431,0.61,0.179,-0.521,0.126,0.394,-0.646,-0.549,0.419,0.752,0.804,0.73
0.437,1.188,0.751,-0.812,-0.157,0.969,-1.427,-2.18,-0.321,1.0,1.395,1.423
-0.048,0.349,0.397,-0.15,-0.223,0.373,-1.143,-2.225,-1.248,-0.2,0.191,0.511
-0.295,-0.357,-0.062,0.326,-0.116,-0.209,-0.479,-1.143,-1.028,-0.771,-0.557,-0.284
-0.15,-0.211,-0.061,0.181,-0.044,-0.135,-0.269,-0.377,-0.283,-0.251,-0.214,-0.149
-0.062,-0.15,-0.089,0.106,0.014,-0.119,-0.232,-0.069,-0.085,-0.15,-0.172,-0.117
-0.042,-0.069,-0.027,0.056,-0.007,-0.048,-0.217,-0.015,-0.019,-0.092,-0.112,-0.09
-0.014,-0.073,-0.059,0.044,0.022,-0.066,-0.194,0.039,0.022,-0.083,-0.129,-0.1
-0.015,-0.059,-0.044,0.037,0.015,-0.052,-0.202,0.047,0.042,-0.077,-0.11,-0.093
-0.009,-0.053,-0.043,0.032,0.017,-0.048,-0.2,0.069,0.063,-0.056,-0.093,-0.088
-0.007,-0.051,-0.044,0.029,0.019,-0.047,-0.204,0.085,0.067,-0.061,-0.095,-0.094
-0.006,-0.038,-0.032,0.022,0.013,-0.034,-0.205,0.087,0.096,-0.04,-0.075,-0.082
0.002,-0.038,-0.04,0.019,0.021,-0.039,-0.205,0.105,0.103,-0.043,-0.076,-0.078
0.031,-0.024,-0.055,-0.003,0.043,-0.039,-0.21,0.114,0.111,-0.027,-0.053,-0.062
0.053,-0.018,-0.071,-0.017,0.062,-0.044,-0.21,0.14,0.126,-0.022,-0.05,-0.059
0.054,-0.014,-0.068,-0.019,0.061,-0.041,-0.209,0.168,0.161,-0.005,-0.036,-0.051
0.063,-0.02,-0.083,-0.021,0.073,-0.051,-0.218,0.196,0.183,0.012,-0.028,-0.046
0.098,0.002,-0.096,-0.05,0.097,-0.047,-0.26,0.236,0.207,0.038,-0.008,-0.042
0.132,0.013,-0.119,-0.072,0.125,-0.052,-0.28,0.287,0.26,0.064,0.021,-0.029
0.163,0.02,-0.143,-0.091,0.153,-0.061,-0.289,0.343,0.323,0.098,0.046,-0.001
0.22,0.041,-0.178,-0.13,0.199,-0.068,-0.316,0.405,0.376,0.135,0.062,0.024
0.264,0.054,-0.211,-0.159,0.237,-0.078,-0.335,0.455,0.417,0.156,0.089,0.053
0.289,0.068,-0.22,-0.178,0.255,-0.076,-0.337,0.462,0.429,0.16,0.11,0.098
0.303,0.07,-0.232,-0.186,0.267,-0.081,-0.331,0.455,0.406,0.162,0.114,0.107
0.292,0.065,-0.227,-0.179,0.259,-0.081,-0.326,0.447,0.365,0.151,0.124,0.114
0.273,0.064,-0.209,-0.168,0.24,-0.072,-0.32,0.399,0.307,0.105,0.11,0.125
0.228,0.06,-0.168,-0.144,0.198,-0.054,-0.298,0.336,0.242,0.072,0.098,0.097
0.163,0.059,-0.105,-0.111,0.134,-0.023,-0.254,0.26,0.185,0.053,0.075,0.055
0.1,0.046,-0.054,-0.073,0.076,-0.004,-0.21,0.173,0.128,0.043,0.037,0.014
0.051,0.031,-0.02,-0.041,0.035,0.005,-0.174,0.097,0.079,0.017,0.02,-0.02
0.018,0.021,0.003,-0.019,0.007,0.012,-0.169,0.034,0.04,-0.029,-0.005,-0.036
-0.001,0.015,0.016,-0.007,-0.009,0.015,-0.149,-0.008,0.0,-0.053,-0.026,-0.05
-0.01,0.01,0.02,0.0,-0.015,0.015,-0.153,-0.044,-0.034,-0.079,-0.044,-0.07
-0.02,0.004,0.024,0.008,-0.023,0.014,-0.148,-0.063,-0.047,-0.087,-0.055,-0.076
-0.031,-0.002,0.029,0.016,-0.03,0.013,-0.143,-0.071,-0.039,-0.078,-0.063,-0.068
-0.037,-0.004,0.033,0.02,-0.035,0.014,-0.153,-0.078,-0.033,-0.073,-0.075,-0.064
-0.038,0.0,0.038,0.018,-0.038,0.019,0.061,-0.067,-0.026,-0.065,-0.065,-0.058
-0.04,0.0,0.04,0.02,-0.04,0.02,0.244,-0.057,-0.019,-0.06,-0.057,-0.051
-0.04,0.0,0.04,0.02,-0.04,0.02,0.253,-0.048,-0.014,-0.052,-0.049,-0.059
-0.043,0.001,0.043,0.021,-0.043,0.022,0.274,-0.04,-0.01,-0.047,-0.042,-0.066
-0.047,-0.001,0.046,0.024,-0.046,0.022,0.269,-0.035,-0.008,-0.041,-0.04,-0.065
-0.036,0.008,0.044,0.014,-0.04,0.026,0.271,-0.027,-0.005,-0.036,-0.036,-0.063
-0.024,0.017,0.041,0.003,-0.033,0.029,0.27,-0.022,-0.002,-0.03,-0.034,-0.059
-0.027,0.012,0.04,0.008,-0.034,0.026,0.269,-0.024,0.001,-0.025,-0.03,-0.06
-0.031,0.009,0.04,0.011,-0.036,0.025,0.272,-0.028,-0.007,-0.045,-0.03,-0.06
-0.034,0.006,0.04,0.014,-0.037,0.022,0.268,-0.031,-0.025,-0.068,-0.035,-0.06
-0.04,0.001,0.04,0.02,-0.04,0.02,0.265,-0.034,-0.039,-0.086,-0.035,-0.06
-0.041,0.001,0.042,0.019,-0.041,0.022,0.257,-0.037,-0.051,-0.108,-0.035,-0.062
-0.041,0.005,0.046,0.018,-0.044,0.025,0.256,-0.044,-0.059,-0.113,-0.036,-0.07
-0.042,0.007,0.049,0.017,-0.046,0.028,0.249,-0.051,-0.066,-0.123,-0.033,-0.07
-0.042,0.01,0.052,0.016,-0.047,0.031,0.246,-0.058,-0.071,-0.132,-0.043,-0.07
-0.043,0.013,0.056,0.014,-0.05,0.034,0.238,-0.067,-0.076,-0.136,-0.062,-0.07
-0.044,0.015,0.059,0.015,-0.052,0.037,0.221,-0.063,-0.08,-0.141,-0.058,-0.071
-0.043,0.027,0.07,0.008,-0.057,0.048,0.23,-0.053,-0.073,-0.138,-0.053,-0.068
-0.01,0.075,0.085,-0.033,-0.048,0.08,0.231,-0.052,-0.053,-0.135,-0.051,-0.048
-0.009,0.12,0.128,-0.056,-0.069,0.124,0.247,-0.055,-0.02,-0.083,-0.03,-0.023
-0.002,0.177,0.179,-0.088,-0.091,0.178,0.237,-0.058,-0.001,0.007,-0.003,0.002
0.058,0.228,0.17,-0.143,-0.056,0.199,0.154,-0.061,-0.008,0.043,0.019,0.024
0.053,0.196,0.143,-0.125,-0.045,0.169,0.119,-0.064,-0.008,0.031,0.017,0.032
0.045,0.169,0.124,-0.107,-0.04,0.146,0.12,-0.067,-0.014,0.032,0.013,0.028
0.032,0.135,0.104,-0.084,-0.036,0.119,0.129,-0.073,-0.05,0.006,-0.012,-0.004
-0.033,0.073,0.106,-0.02,-0.07,0.089,0.125,-0.084,-0.101,-0.049,-0.079,-0.056
-0.054,0.028,0.082,0.013,-0.069,0.055,0.128,-0.076,-0.131,-0.07,-0.116,-0.081
-0.075,-0.001,0.074,0.038,-0.074,0.036,0.073,-0.084,-0.136,-0.06,-0.106,-0.085
-0.086,-0.043,0.043,0.064,-0.065,0.0,-0.044,-0.077,-0.134,-0.07,-0.122,-0.098
-0.089,-0.045,0.045,0.067,-0.067,0.0,-0.087,-0.081,-0.136,-0.062,-0.111,-0.081
-0.092,-0.065,0.027,0.078,-0.059,-0.019,-0.087,-0.083,-0.135,-0.064,-0.121,-0.084
-0.071,-0.06,0.011,0.065,-0.041,-0.024,-0.112,-0.071,-0.134,-0.075,-0.125,-0.074
-0.082,-0.063,0.019,0.072,-0.05,-0.022,-0.112,-0.1,-0.135,-0.079,-0.107,-0.067
-0.067,-0.125,-0.058,0.096,-0.004,-0.091,-0.002,0.067,-0.056,-0.092,-0.137,-0.105
-0.055,-0.018,0.037,0.037,-0.046,0.01,0.294,0.417,0.22,0.119,-0.016,-0.079
0.174,0.171,-0.003,-0.173,0.089,0.083,0.225,0.299,0.52,0.41,0.248,0.15
0.503,0.89,0.387,-0.697,0.058,0.638,-0.588,-1.194,0.319,0.97,1.118,1.082
0.28,1.008,0.728,-0.644,-0.225,0.868,-0.616,-2.491,-0.598,0.731,1.107,1.27
-0.23,-0.024,0.207,0.127,-0.219,0.091,0.263,-1.906,-1.253,-0.493,-0.224,0.115
-0.308,-0.341,-0.032,0.325,-0.138,-0.186,0.763,-0.847,-0.788,-0.523,-0.416,-0.266
-0.109,-0.174,-0.064,0.142,-0.022,-0.119,0.947,-0.236,-0.218,-0.119,-0.141,-0.099
-0.074,-0.114,-0.04,0.094,-0.016,-0.077,0.942,-0.034,-0.125,-0.112,-0.142,-0.108
-0.063,-0.073,-0.01,0.068,-0.026,-0.041,0.934,0.008,-0.066,-0.043,-0.075,-0.071
-0.027,-0.082,-0.055,0.055,0.014,-0.068,0.947,0.053,-0.053,-0.061,-0.1,-0.083
-0.029,-0.055,-0.026,0.043,-0.002,-0.04,0.933,0.053,-0.042,-0.034,-0.065,-0.07
-0.017,-0.057,-0.041,0.038,0.012,-0.049,0.945,0.081,-0.025,-0.031,-0.074,-0.077
-0.016,-0.042,-0.026,0.029,0.006,-0.034,0.948,0.092,-0.016,-0.01,-0.063,-0.075
-0.018,-0.043,-0.025,0.031,0.004,-0.033,0.95,0.12,0.003,0.023,-0.059,-0.07
-0.007,-0.039,-0.032,0.023,0.013,-0.035,0.971,0.13,0.014,0.053,-0.058,-0.056
0.015,-0.033,-0.048,0.009,0.032,-0.04,1.01,0.146,0.034,0.088,-0.047,-0.04
0.021,-0.032,-0.054,0.005,0.038,-0.043,1.001,0.166,0.054,0.109,-0.042,-0.035
0.019,-0.026,-0.045,0.004,0.032,-0.036,1.008,0.185,0.076,0.138,-0.025,-0.019
0.038,-0.021,-0.059,-0.008,0.049,-0.04,1.011,0.226,0.105,0.154,-0.018,-0.016
0.066,-0.015,-0.081,-0.025,0.074,-0.048,1.032,0.273,0.143,0.172,-0.001,-0.006
0.097,0.002,-0.095,-0.049,0.096,-0.046,1.068,0.323,0.191,0.195,0.018,0.002
0.149,0.022,-0.127,-0.085,0.138,-0.052,1.053,0.381,0.248,0.229,0.053,0.033
0.191,0.042,-0.149,-0.116,0.17,-0.053,1.039,0.44,0.269,0.242,0.087,0.062
0.232,0.06,-0.172,-0.146,0.202,-0.056,1.009,0.461,0.27,0.233,0.106,0.083
0.276,0.081,-0.195,-0.178,0.235,-0.057,0.984,0.454,0.268,0.228,0.125,0.116
0.291,0.106,-0.185,-0.198,0.237,-0.039,0.985,0.441,0.228,0.221,0.127,0.131
0.288,0.101,-0.187,-0.194,0.237,-0.043,0.984,0.421,0.182,0.215,0.124,0.148
0.254,0.086,-0.168,-0.17,0.211,-0.041,0.984,0.377,0.139,0.208,0.124,0.124
0.193,0.077,-0.117,-0.135,0.155,-0.02,0.986,0.318,0.102,0.195,0.108,0.107
0.122,0.064,-0.058,-0.092,0.09,0.002,1.014,0.249,0.058,0.164,0.08,0.087
0.053,0.054,0.0,-0.054,0.026,0.026,1.032,0.166,0.015,0.129,0.04,0.035
-0.005,0.039,0.044,-0.017,-0.025,0.041,1.028,0.096,0.015,0.107,0.011,0.018
-0.053,0.01,0.063,0.022,-0.058,0.036,1.031,0.041,0.014,0.089,-0.004,-0.013
-0.064,-0.006,0.058,0.035,-0.061,0.026,1.022,0.001,0.006,0.074,-0.014,-0.031
-0.066,-0.005,0.061,0.035,-0.063,0.028,1.002,-0.024,0.002,0.05,-0.017,-0.033
-0.067,-0.008,0.059,0.038,-0.063,0.026,0.984,-0.032,-0.004,0.037,-0.029,-0.037
-0.07,-0.012,0.058,0.041,-0.064,0.023,0.971,-0.03,-0.007,0.041,-0.027,-0.024
-0.079,-0.003,0.077,0.041,-0.078,0.037,0.961,-0.03,-0.011,0.039,-0.034,-0.048
-0.07,0.012,0.082,0.029,-0.076,0.046,0.957,-0.025,-0.014,0.04,-0.049,-0.074
-0.072,0.007,0.079,0.033,-0.076,0.042,0.954,-0.025,-0.019,0.04,-0.037,-0.062
-0.08,0.001,0.081,0.04,-0.08,0.04,0.949,-0.024,-0.019,0.041,-0.028,-0.051
-0.085,-0.005,0.08,0.045,-0.082,0.037,0.947,-0.019,-0.015,0.048,-0.021,-0.048
-0.088,-0.009,0.079,0.049,-0.083,0.035,0.94,-0.014,-0.015,0.054,-0.014,-0.05
-0.081,-0.006,0.075,0.043,-0.077,0.035,0.903,-0.01,-0.015,0.052,-0.008,-0.05
-0.076,-0.003,0.073,0.039,-0.074,0.034,0.85,-0.005,-0.015,0.047,-0.001,-0.053
-0.07,-0.001,0.07,0.035,-0.07,0.035,0.822,0.0,-0.015,0.045,0.005,-0.056
-0.064,0.003,0.066,0.03,-0.065,0.034,0.796,-0.004,-0.02,0.04,0.01,-0.054
-0.06,0.005,0.065,0.027,-0.063,0.035,0.797,-0.011,-0.03,0.037,0.003,-0.052
-0.06,0.005,0.065,0.027,-0.063,0.035,0.77,-0.014,-0.04,0.033,-0.004,-0.048
-0.061,0.005,0.065,0.027,-0.063,0.035,0.661,-0.021,-0.049,0.026,-0.011,-0.046
-0.059,0.005,0.065,0.026,-0.063,0.035,0.611,-0.026,-0.067,0.018,-0.019,-0.042
-0.061,0.005,0.065,0.027,-0.063,0.035,0.604,-0.033,-0.084,0.01,-0.026,-0.04
-0.06,0.005,0.065,0.027,-0.063,0.035,0.593,-0.049,-0.085,0.002,-0.033,-0.042
-0.061,0.005,0.066,0.028,-0.064,0.035,0.591,-0.05,-0.085,-0.004,-0.036,-0.046
-0.071,0.0,0.071,0.036,-0.071,0.035,0.581,-0.05,-0.085,-0.01,-0.034,-0.054
-0.068,0.001,0.069,0.034,-0.069,0.035,0.576,-0.055,-0.085,-0.015,-0.036,-0.055
-0.073,-0.002,0.071,0.038,-0.072,0.034,0.578,-0.055,-0.086,-0.02,-0.04,-0.055
-0.073,-0.004,0.069,0.038,-0.071,0.032,0.58,-0.054,-0.08,-0.027,-0.048,-0.055
-0.079,-0.008,0.07,0.043,-0.074,0.031,0.581,-0.044,-0.072,-0.029,-0.056,-0.056
-0.065,0.009,0.073,0.028,-0.069,0.041,0.578,-0.035,-0.066,-0.021,-0.062,-0.053
-0.025,0.063,0.089,-0.019,-0.057,0.076,0.583,-0.018,-0.058,-0.003,-0.047,-0.033
-0.034,0.104,0.138,-0.036,-0.086,0.121,0.596,0.006,-0.037,0.03,-0.021,-0.009
-0.008,0.163,0.17,-0.078,-0.089,0.166,0.567,0.001,-0.021,0.059,0.003,0.019
0.032,0.188,0.156,-0.11,-0.062,0.171,0.52,-0.006,-0.016,0.068,0.027,0.041
0.045,0.166,0.121,-0.106,-0.038,0.143,0.48,-0.013,-0.013,0.063,0.032,0.041
0.05,0.147,0.098,-0.099,-0.024,0.122,0.442,-0.022,-0.007,0.056,0.021,0.021
-0.001,0.092,0.093,-0.046,-0.047,0.092,0.427,-0.026,-0.008,0.047,-0.004,0.01
-0.059,0.032,0.091,0.013,-0.075,0.061,0.44,-0.049,-0.045,0.007,-0.042,-0.021
-0.09,-0.013,0.077,0.051,-0.083,0.032,0.452,-0.058,-0.076,-0.035,-0.076,-0.07
-0.106,-0.023,0.084,0.064,-0.095,0.03,0.447,-0.068,-0.074,-0.027,-0.076,-0.06
-0.105,-0.042,0.063,0.073,-0.083,0.01,0.453,-0.061,-0.076,-0.044,-0.097,-0.066
-0.107,-0.034,0.073,0.07,-0.089,0.019,0.447,-0.07,-0.083,-0.034,-0.078,-0.054
-0.109,-0.055,0.055,0.082,-0.082,-0.001,0.452,-0.062,-0.09,-0.037,-0.088,-0.059
-0.101,-0.04,0.061,0.07,-0.08,0.01,0.453,-0.066,-0.082,-0.029,-0.073,-0.054
-0.112,-0.044,0.067,0.078,-0.089,0.011,0.464,-0.068,-0.076,-0.022,-0.075,-0.059
-0.121,-0.082,0.039,0.102,-0.08,-0.022,0.537,0.124,0.001,-0.017,-0.118,-0.104
-0.077,0.031,0.108,0.023,-0.093,0.07,0.666,0.501,0.328,0.22,0.021,-0.065
0.226,0.259,0.033,-0.243,0.096,0.146,0.493,0.215,0.572,0.514,0.336,0.237
0.506,1.011,0.505,-0.759,0.0,0.758,-0.354,-1.488,0.279,1.028,1.201,1.197
0.199,0.929,0.73,-0.564,-0.266,0.829,-0.664,-2.516,-0.628,0.587,0.957,1.155
-0.272,-0.104,0.168,0.188,-0.22,0.032,-0.066,-1.756,-1.178,-0.574,-0.329,-0.014
-0.33,-0.282,0.049,0.306,-0.189,-0.116,0.297,-0.737,-0.61,-0.432,-0.355,-0.21
-0.163,-0.125,0.038,0.144,-0.1,-0.043,0.381,-0.156,-0.12,-0.066,-0.117,-0.079
-0.079,-0.057,0.022,0.068,-0.05,-0.018,0.358,-0.022,-0.05,-0.053,-0.115,-0.097
-0.07,-0.035,0.035,0.052,-0.052,0.0,0.31,0.031,0.022,0.006,-0.058,-0.055
-0.055,-0.048,0.007,0.051,-0.031,-0.02,0.298,0.073,0.023,-0.014,-0.084,-0.074
-0.046,-0.022,0.024,0.033,-0.035,0.002,0.272,0.08,0.044,0.023,-0.054,-0.044
-0.051,-0.032,0.019,0.041,-0.035,-0.006,0.266,0.107,0.043,0.025,-0.067,-0.052
-0.046,-0.013,0.033,0.03,-0.039,0.009,0.253,0.105,0.045,0.041,-0.05,-0.042
-0.034,-0.016,0.018,0.024,-0.025,0.001,0.253,0.129,0.049,0.053,-0.05,-0.046
-0.023,-0.006,0.017,0.014,-0.02,0.005,0.245,0.14,0.058,0.054,-0.041,-0.044
-0.013,-0.003,0.01,0.008,-0.011,0.004,0.24,0.159,0.086,0.073,-0.031,-0.029
0.0,0.003,0.003,-0.002,-0.002,0.003,0.235,0.183,0.114,0.088,-0.027,-0.018
0.011,0.009,-0.002,-0.01,0.006,0.004,0.225,0.219,0.153,0.099,-0.016,-0.002
0.037,0.018,-0.019,-0.027,0.028,-0.001,0.214,0.255,0.197,0.128,-0.005,0.012
0.067,0.044,-0.023,-0.055,0.045,0.01,0.203,0.291,0.225,0.149,0.03,0.025
0.095,0.051,-0.044,-0.073,0.07,0.003,0.189,0.349,0.244,0.173,0.05,0.032
0.133,0.058,-0.075,-0.095,0.104,-0.008,0.164,0.404,0.28,0.212,0.075,0.048
0.167,0.081,-0.086,-0.124,0.126,-0.003,0.131,0.455,0.317,0.249,0.11,0.082
0.227,0.106,-0.121,-0.166,0.174,-0.008,0.108,0.48,0.354,0.267,0.135,0.123
0.254,0.121,-0.133,-0.187,0.193,-0.006,0.111,0.473,0.359,0.259,0.149,0.143
0.249,0.121,-0.128,-0.185,0.189,-0.003,0.113,0.463,0.334,0.257,0.144,0.156
0.249,0.118,-0.132,-0.183,0.19,-0.007,0.116,0.433,0.293,0.249,0.133,0.158
0.204,0.114,-0.09,-0.158,0.146,0.012,0.119,0.378,0.234,0.226,0.126,0.149
0.149,0.112,-0.038,-0.13,0.094,0.037,0.12,0.318,0.182,0.211,0.115,0.14
0.09,0.103,0.013,-0.097,0.038,0.058,0.151,0.257,0.145,0.193,0.097,0.114
0.018,0.083,0.065,-0.051,-0.024,0.074,0.185,0.182,0.113,0.155,0.061,0.075
-0.033,0.054,0.087,-0.011,-0.06,0.071,0.193,0.109,0.077,0.131,0.012,0.041
-0.065,0.029,0.094,0.018,-0.08,0.061,0.196,0.056,0.039,0.124,-0.014,-0.002
-0.086,0.022,0.108,0.032,-0.097,0.065,0.195,0.017,0.004,0.112,-0.019,-0.039
-0.093,0.018,0.111,0.038,-0.102,0.064,0.194,-0.011,-0.018,0.103,-0.029,-0.04
-0.096,0.013,0.109,0.041,-0.103,0.061,0.219,-0.033,-0.025,0.091,-0.035,-0.041
-0.101,0.009,0.11,0.046,-0.106,0.059,0.244,-0.036,-0.015,0.086,-0.043,-0.038
-0.105,0.005,0.11,0.05,-0.108,0.057,0.246,-0.026,-0.003,0.084,-0.045,-0.046
-0.099,0.01,0.109,0.045,-0.104,0.059,0.251,-0.019,0.012,0.08,-0.04,-0.067
-0.102,0.013,0.115,0.044,-0.109,0.064,0.253,-0.011,0.033,0.078,-0.039,-0.066
-0.11,0.016,0.126,0.046,-0.118,0.071,0.254,-0.004,0.051,0.073,-0.035,-0.065
-0.101,0.021,0.121,0.04,-0.111,0.071,0.287,0.002,0.056,0.079,-0.033,-0.065
-0.094,0.024,0.118,0.035,-0.107,0.071,0.303,0.009,0.051,0.086,-0.03,-0.06
-0.087,0.028,0.115,0.029,-0.101,0.071,0.291,0.015,0.049,0.097,-0.028,-0.06
-0.08,0.03,0.11,0.025,-0.095,0.07,0.291,0.023,0.044,0.092,-0.025,-0.061
-0.078,0.03,0.108,0.024,-0.093,0.069,0.284,0.021,0.041,0.102,-0.025,-0.065
-0.072,0.03,0.102,0.021,-0.087,0.065,0.282,0.014,0.036,0.155,-0.026,-0.065
-0.068,0.03,0.098,0.019,-0.083,0.064,0.266,0.007,0.02,0.163,-0.023,-0.068
-0.064,0.029,0.093,0.017,-0.078,0.061,0.225,0.001,0.004,0.172,-0.042,-0.07
-0.064,0.025,0.089,0.019,-0.077,0.057,0.214,-0.006,-0.008,0.181,-0.06,-0.07
-0.065,0.02,0.084,0.022,-0.075,0.052,0.216,-0.012,-0.016,0.166,-0.054,-0.073
-0.065,0.015,0.08,0.025,-0.073,0.047,0.212,-0.019,-0.024,0.162,-0.045,-0.076
-0.069,0.012,0.081,0.029,-0.075,0.046,0.21,-0.026,-0.04,0.151,-0.058,-0.074
-0.072,0.006,0.078,0.033,-0.075,0.041,0.209,-0.033,-0.046,0.144,-0.08,-0.076
-0.087,0.007,0.094,0.039,-0.091,0.05,0.214,-0.039,-0.045,0.134,-0.079,-0.075
-0.098,0.014,0.112,0.042,-0.105,0.062,0.215,-0.037,-0.043,0.127,-0.083,-0.074
-0.097,0.016,0.113,0.04,-0.106,0.064,0.215,-0.031,-0.039,0.112,-0.091,-0.068
-0.103,0.013,0.116,0.045,-0.11,0.064,0.214,-0.027,-0.041,0.097,-0.08,-0.059
-0.097,0.024,0.121,0.037,-0.109,0.072,0.216,-0.022,-0.032,0.102,-0.071,-0.082
-0.052,0.066,0.118,-0.007,-0.085,0.092,0.216,-0.018,-0.012,0.105,-0.059,-0.068
-0.033,0.103,0.136,-0.035,-0.085,0.119,0.245,-0.008,0.023,0.117,-0.032,-0.031
-0.029,0.157,0.186,-0.065,-0.108,0.172,0.265,0.005,0.042,0.151,-0.004,-0.021
0.019,0.205,0.187,-0.112,-0.084,0.196,0.197,0.006,0.06,0.17,0.028,-0.009
0.027,0.188,0.16,-0.108,-0.067,0.174,0.158,-0.005,0.078,0.161,0.021,-0.001
0.023,0.164,0.141,-0.094,-0.059,0.152,0.168,-0.016,0.068,0.144,-0.011,0.012
0.018,0.135,0.118,-0.077,-0.05,0.126,0.163,-0.024,0.063,0.109,-0.018,0.0
-0.043,0.073,0.116,-0.015,-0.08,0.094,0.165,-0.043,0.031,0.064,-0.037,-0.04
-0.081,0.011,0.092,0.034,-0.087,0.052,0.166,-0.051,-0.004,0.005,-0.089,-0.102
-0.087,0.006,0.093,0.04,-0.09,0.049,0.167,-0.069,-0.015,0.0,-0.097,-0.112
-0.081,-0.013,0.068,0.047,-0.075,0.028,0.173,-0.07,-0.032,0.01,-0.115,-0.121
-0.08,-0.01,0.07,0.045,-0.075,0.03,0.167,-0.078,-0.046,0.024,-0.109,-0.118
-0.084,-0.025,0.059,0.054,-0.071,0.017,0.176,-0.074,-0.054,0.032,-0.111,-0.123
-0.082,-0.035,0.046,0.058,-0.064,0.005,0.175,-0.071,-0.062,0.024,-0.115,-0.132
-0.084,-0.028,0.056,0.056,-0.07,0.014,0.172,-0.087,-0.045,0.046,-0.096,-0.104
-0.044,-0.065,-0.021,0.054,-0.011,-0.043,0.234,0.072,0.023,0.04,-0.148,-0.159
-0.038,0.036,0.075,0.001,-0.057,0.056,0.366,0.436,0.296,0.221,-0.036,-0.11
0.179,0.211,0.032,-0.195,0.073,0.121,0.276,0.342,0.587,0.497,0.219,0.111
0.527,0.924,0.397,-0.726,0.065,0.66,-0.519,-1.223,0.397,1.012,1.044,0.993
0.3,1.04,0.74,-0.67,-0.22,0.889,-0.964,-2.514,-0.46,0.762,1.053,1.207
-0.212,0.013,0.225,0.099,-0.218,0.119,-0.39,-1.917,-1.148,-0.434,-0.228,0.044
-0.31,-0.292,0.018,0.301,-0.163,-0.137,0.116,-0.866,-0.696,-0.479,-0.428,-0.313
-0.133,-0.13,0.003,0.131,-0.068,-0.063,0.263,-0.22,-0.123,-0.066,-0.15,-0.151
-0.038,-0.069,-0.031,0.054,-0.003,-0.05,0.265,-0.03,-0.033,-0.05,-0.135,-0.173
-0.022,-0.022,0.0,0.023,-0.011,-0.011,0.289,0.014,0.042,0.012,-0.086,-0.121
-0.015,-0.038,-0.023,0.026,0.004,-0.03,0.311,0.065,0.047,-0.007,-0.121,-0.136
-0.016,-0.016,0.001,0.016,-0.008,-0.007,0.278,0.063,0.062,0.015,-0.085,-0.116
-0.013,-0.024,-0.011,0.019,-0.001,-0.017,0.281,0.088,0.065,0.013,-0.096,-0.133
-0.008,-0.012,-0.003,0.011,-0.002,-0.007,0.269,0.092,0.073,0.019,-0.084,-0.13
0.009,-0.009,-0.018,0.0,0.013,-0.013,0.271,0.115,0.084,0.034,-0.081,-0.12
0.034,0.002,-0.032,-0.018,0.033,-0.014,0.265,0.124,0.081,0.037,-0.075,-0.115
0.046,0.014,-0.033,-0.03,0.039,-0.009,0.261,0.145,0.094,0.046,-0.059,-0.101
0.059,0.021,-0.038,-0.039,0.048,-0.009,0.259,0.169,0.113,0.047,-0.056,-0.093
0.062,0.031,-0.032,-0.046,0.047,0.0,0.245,0.192,0.148,0.065,-0.039,-0.08
0.074,0.036,-0.038,-0.055,0.056,-0.001,0.232,0.224,0.172,0.078,-0.036,-0.08
0.102,0.046,-0.055,-0.074,0.078,-0.004,0.211,0.262,0.206,0.095,-0.017,-0.082
0.14,0.058,-0.082,-0.099,0.11,-0.011,0.177,0.314,0.244,0.125,0.006,-0.06
0.178,0.073,-0.106,-0.125,0.142,-0.017,0.141,0.374,0.282,0.152,0.033,-0.023
0.227,0.097,-0.13,-0.162,0.178,-0.017,0.098,0.425,0.322,0.205,0.063,-0.017
0.332,0.122,-0.211,-0.227,0.271,-0.044,0.047,0.431,0.335,0.251,0.069,-0.002
0.323,0.133,-0.189,-0.228,0.256,-0.028,0.034,0.457,0.337,0.239,0.097,0.056
0.287,0.145,-0.141,-0.215,0.214,0.002,0.034,0.459,0.326,0.23,0.116,0.095
0.308,0.144,-0.163,-0.226,0.235,-0.01,0.031,0.412,0.265,0.219,0.101,0.092
0.266,0.146,-0.121,-0.206,0.193,0.012,0.027,0.37,0.198,0.189,0.093,0.073
0.236,0.153,-0.082,-0.194,0.159,0.035,0.041,0.312,0.151,0.158,0.072,0.054
0.168,0.132,-0.037,-0.15,0.102,0.047,0.09,0.24,0.112,0.127,0.034,0.021
0.088,0.106,0.018,-0.097,0.035,0.062,0.118,0.163,0.079,0.122,0.004,-0.023
0.037,0.088,0.051,-0.063,-0.007,0.069,0.129,0.093,0.041,0.1,-0.021,-0.06
0.005,0.071,0.066,-0.038,-0.031,0.068,0.131,0.038,0.001,0.046,-0.057,-0.093
-0.006,0.058,0.065,-0.027,-0.036,0.061,0.129,-0.001,-0.039,0.023,-0.074,-0.11
-0.015,0.049,0.064,-0.018,-0.04,0.056,0.131,-0.028,-0.065,0.008,-0.082,-0.115
-0.02,0.051,0.071,-0.015,-0.046,0.06,0.129,-0.039,-0.061,-0.005,-0.089,-0.124
-0.033,0.049,0.081,-0.008,-0.057,0.065,0.131,-0.033,-0.053,-0.004,-0.09,-0.107
-0.034,0.045,0.079,-0.005,-0.057,0.062,0.134,-0.03,-0.045,-0.006,-0.094,-0.103
-0.036,0.045,0.081,-0.004,-0.059,0.062,0.136,-0.027,-0.038,-0.003,-0.097,-0.145
-0.032,0.048,0.079,-0.008,-0.056,0.063,0.134,-0.022,-0.024,0.002,-0.101,-0.142
-0.029,0.053,0.082,-0.012,-0.056,0.067,0.136,-0.02,0.003,0.01,-0.1,-0.121
-0.03,0.064,0.094,-0.017,-0.062,0.078,0.134,-0.016,0.012,0.015,-0.1,-0.124
-0.023,0.064,0.087,-0.021,-0.055,0.076,0.136,-0.012,0.016,0.023,-0.1,-0.116
-0.029,0.049,0.079,-0.01,-0.054,0.064,0.145,-0.008,0.021,0.028,-0.1,-0.116
-0.03,0.041,0.071,-0.006,-0.051,0.056,0.145,-0.005,0.024,0.035,-0.098,-0.11
-0.028,0.036,0.064,-0.004,-0.046,0.05,0.161,0.0,0.031,0.059,-0.095,-0.107
-0.028,0.031,0.059,-0.002,-0.043,0.045,0.176,-0.002,0.025,0.06,-0.095,-0.092
-0.026,0.028,0.054,-0.001,-0.04,0.04,0.185,-0.009,0.015,0.047,-0.092,-0.077
-0.027,0.022,0.05,0.002,-0.039,0.036,0.191,-0.013,0.005,0.041,-0.089,-0.112
-0.026,0.018,0.045,0.004,-0.036,0.031,0.189,-0.02,-0.004,0.03,-0.091,-0.127
-0.028,0.013,0.041,0.007,-0.035,0.027,0.193,-0.025,-0.004,0.028,-0.089,-0.118
-0.03,0.005,0.036,0.012,-0.033,0.021,0.195,-0.031,-0.012,0.04,-0.094,-0.118
-0.031,-0.001,0.03,0.015,-0.03,0.015,0.195,-0.034,-0.025,0.031,-0.11,-0.112
-0.032,-0.008,0.024,0.02,-0.028,0.008,0.189,-0.037,-0.046,0.06,-0.107,-0.109
-0.035,-0.014,0.021,0.024,-0.028,0.003,0.177,-0.04,-0.073,0.098,-0.101,-0.106
-0.021,-0.011,0.011,0.016,-0.016,0.0,0.165,-0.038,-0.074,0.094,-0.098,-0.12
-0.019,-0.001,0.018,0.01,-0.018,0.008,0.155,-0.035,-0.077,0.094,-0.092,-0.113
-0.034,0.007,0.041,0.014,-0.038,0.024,0.148,-0.03,-0.085,0.096,-0.09,-0.1
-0.022,0.017,0.039,0.003,-0.031,0.027,0.148,-0.03,-0.079,0.093,-0.082,-0.112
0.004,0.049,0.046,-0.027,-0.022,0.047,0.138,-0.007,-0.05,0.099,-0.077,-0.09
0.001,0.099,0.097,-0.05,-0.048,0.098,0.135,0.018,-0.016,0.122,-0.061,-0.082
0.003,0.154,0.151,-0.079,-0.074,0.153,0.113,0.008,-0.005,0.133,-0.028,-0.07
0.056,0.179,0.123,-0.118,-0.034,0.151,0.029,0.002,0.012,0.134,-0.015,-0.032
0.069,0.156,0.087,-0.113,-0.009,0.121,-0.013,-0.008,0.013,0.108,-0.011,-0.021
0.064,0.131,0.068,-0.098,-0.002,0.099,0.003,-0.014,-0.007,0.07,0.001,-0.02
0.058,0.088,0.03,-0.073,0.013,0.059,0.022,-0.026,-0.035,0.052,-0.022,-0.057
-0.014,0.02,0.034,-0.003,-0.024,0.027,0.054,-0.037,-0.073,0.028,-0.07,-0.063
-0.048,-0.017,0.031,0.032,-0.039,0.007,0.063,-0.038,-0.091,0.005,-0.085,-0.109
-0.051,-0.025,0.026,0.038,-0.038,0.001,0.053,-0.052,-0.111,-0.008,-0.089,-0.145
-0.044,-0.043,0.001,0.043,-0.022,-0.02,0.058,-0.049,-0.119,-0.036,-0.117,-0.121
-0.051,-0.028,0.022,0.04,-0.036,-0.003,0.045,-0.066,-0.11,-0.024,-0.093,-0.121
-0.052,-0.057,-0.005,0.054,-0.023,-0.031,0.056,-0.048,-0.112,-0.032,-0.117,-0.141
-0.05,-0.033,0.017,0.041,-0.033,-0.008,0.049,-0.061,-0.105,-0.013,-0.094,-0.119
-0.054,-0.06,-0.005,0.057,-0.024,-0.032,0.061,-0.05,-0.11,-0.016,-0.111,-0.142
-0.031,-0.066,-0.035,0.049,0.002,-0.051,0.146,0.168,-0.017,0.026,-0.111,-0.183
0.014,0.049,0.035,-0.032,-0.01,0.042,0.267,0.534,0.322,0.251,0.043,-0.117
0.339,0.375,0.036,-0.357,0.151,0.205,-0.024,0.043,0.54,0.598,0.463,0.309
0.554,1.127,0.573,-0.84,-0.01,0.85,-0.891,-1.76,0.141,1.071,1.298,1.24
0.145,0.772,0.627,-0.459,-0.241,0.699,-1.0,-2.492,-0.834,0.376,0.732,0.896
-0.272,-0.193,0.079,0.232,-0.175,-0.057,-0.342,-1.566,-1.199,-0.612,-0.407,-0.2
-0.207,-0.23,-0.024,0.219,-0.091,-0.127,0.025,-0.617,-0.528,-0.296,-0.268,-0.246
-0.059,-0.134,-0.076,0.097,0.009,-0.104,0.136,-0.109,-0.125,-0.014,-0.115,-0.15
-0.026,-0.073,-0.047,0.049,0.011,-0.06,0.124,-0.003,-0.09,0.006,-0.094,-0.117
0.005,-0.042,-0.048,0.018,0.027,-0.045,0.129,0.042,-0.037,0.041,-0.054,-0.094
0.004,-0.052,-0.055,0.024,0.03,-0.053,0.135,0.074,-0.04,0.029,-0.053,-0.121
0.008,-0.031,-0.039,0.012,0.023,-0.035,0.139,0.081,-0.013,0.063,-0.023,-0.094
0.012,-0.039,-0.051,0.014,0.032,-0.045,0.151,0.108,-0.007,0.058,-0.037,-0.099
0.018,-0.022,-0.04,0.003,0.029,-0.031,0.138,0.118,0.017,0.077,-0.018,-0.074
0.023,-0.026,-0.048,0.002,0.036,-0.037,0.136,0.132,0.029,0.068,-0.024,-0.076
0.031,-0.011,-0.042,-0.01,0.036,-0.026,0.126,0.14,0.049,0.069,-0.014,-0.064
0.062,-0.006,-0.068,-0.028,0.065,-0.037,0.121,0.165,0.088,0.083,-0.009,-0.059
0.075,0.004,-0.071,-0.04,0.073,-0.033,0.115,0.191,0.118,0.103,0.007,-0.053
0.084,0.015,-0.069,-0.049,0.076,-0.027,0.106,0.216,0.15,0.108,0.02,-0.046
0.098,0.026,-0.072,-0.062,0.085,-0.023,0.095,0.243,0.171,0.125,0.031,-0.043
0.122,0.038,-0.083,-0.08,0.102,-0.022,0.083,0.29,0.208,0.166,0.036,-0.037
0.158,0.043,-0.115,-0.1,0.136,-0.036,0.069,0.341,0.25,0.182,0.057,-0.017
0.193,0.065,-0.129,-0.129,0.161,-0.032,0.045,0.403,0.296,0.212,0.095,0.014
0.244,0.082,-0.161,-0.163,0.202,-0.039,0.009,0.452,0.321,0.232,0.114,0.033
0.299,0.111,-0.188,-0.205,0.243,-0.039,0.017,0.463,0.318,0.224,0.145,0.093
0.31,0.128,-0.183,-0.218,0.246,-0.028,0.045,0.464,0.313,0.22,0.158,0.127
0.301,0.119,-0.182,-0.21,0.242,-0.031,0.046,0.436,0.283,0.214,0.154,0.126
0.295,0.119,-0.176,-0.207,0.235,-0.029,0.044,0.392,0.24,0.208,0.155,0.139
0.252,0.113,-0.14,-0.182,0.195,-0.013,0.047,0.349,0.195,0.194,0.156,0.103
0.2,0.111,-0.089,-0.155,0.145,0.01,0.076,0.301,0.148,0.172,0.137,0.065
0.149,0.103,-0.046,-0.126,0.097,0.028,0.128,0.243,0.118,0.147,0.094,0.05
0.086,0.081,-0.004,-0.084,0.045,0.038,0.15,0.166,0.099,0.119,0.062,0.009
0.031,0.055,0.024,-0.043,0.004,0.039,0.168,0.103,0.073,0.094,0.037,-0.026
-0.003,0.035,0.038,-0.016,-0.021,0.036,0.155,0.06,0.043,0.072,0.017,-0.047
-0.005,0.03,0.035,-0.013,-0.02,0.032,0.037,0.025,0.022,0.052,0.002,-0.07
-0.004,0.025,0.029,-0.01,-0.017,0.027,-0.044,-0.001,0.014,0.04,-0.009,-0.076
-0.035,0.019,0.054,0.007,-0.045,0.037,-0.054,-0.019,0.015,0.039,-0.027,-0.075
-0.055,0.013,0.068,0.02,-0.062,0.04,-0.063,-0.022,0.015,0.043,-0.037,-0.075
-0.053,0.011,0.063,0.02,-0.058,0.037,-0.057,-0.016,0.015,0.045,-0.029,-0.075
-0.048,0.017,0.066,0.015,-0.057,0.041,-0.062,-0.009,0.014,0.046,-0.026,-0.074
-0.041,0.024,0.065,0.008,-0.053,0.044,-0.059,-0.003,0.021,0.043,-0.019,-0.071
-0.033,0.031,0.063,0.001,-0.048,0.047,-0.059,0.004,0.035,0.05,-0.014,-0.069
-0.036,0.038,0.074,-0.001,-0.055,0.056,-0.053,0.015,0.045,0.069,-0.009,-0.064
-0.039,0.043,0.082,-0.002,-0.061,0.062,-0.045,0.029,0.056,0.07,0.0,-0.066
-0.027,0.049,0.076,-0.012,-0.051,0.062,-0.045,0.032,0.056,0.069,0.006,-0.063
-0.025,0.05,0.075,-0.013,-0.05,0.062,-0.05,0.026,0.047,0.07,0.019,-0.062
-0.02,0.05,0.071,-0.015,-0.046,0.06,-0.172,0.019,0.041,0.07,0.026,-0.058
-0.015,0.055,0.069,-0.02,-0.042,0.062,-0.289,0.013,0.034,0.069,0.019,-0.062
-0.023,0.055,0.078,-0.016,-0.051,0.066,-0.297,0.006,0.017,0.058,0.012,-0.053
-0.025,0.055,0.08,-0.015,-0.053,0.067,-0.299,0.0,0.008,0.045,0.006,-0.021
-0.033,0.047,0.08,-0.007,-0.057,0.064,-0.307,-0.006,0.014,0.036,-0.001,-0.057
-0.033,0.046,0.079,-0.006,-0.057,0.062,-0.319,-0.013,0.018,0.034,-0.009,-0.081
-0.042,0.038,0.081,0.002,-0.062,0.059,-0.327,-0.019,0.018,0.031,-0.017,-0.071
-0.033,0.046,0.079,-0.006,-0.056,0.063,-0.339,-0.026,-0.004,0.028,-0.032,-0.077
-0.002,0.078,0.08,-0.038,-0.041,0.079,-0.337,-0.033,-0.027,0.025,-0.035,-0.073
-0.026,0.072,0.098,-0.023,-0.063,0.085,-0.328,-0.033,-0.029,0.026,-0.029,-0.076
-0.035,0.064,0.099,-0.015,-0.067,0.081,-0.326,-0.028,-0.034,0.031,-0.028,-0.071
-0.037,0.055,0.093,-0.01,-0.065,0.074,-0.317,-0.025,-0.04,0.029,-0.021,-0.065
-0.041,0.052,0.093,-0.005,-0.067,0.072,-0.314,-0.021,-0.042,0.032,-0.022,-0.06
-0.03,0.053,0.083,-0.012,-0.057,0.068,-0.299,-0.016,-0.045,0.036,-0.03,-0.053
-0.02,0.07,0.09,-0.026,-0.055,0.08,-0.273,-0.014,-0.039,0.033,-0.013,-0.05
0.02,0.126,0.106,-0.073,-0.043,0.115,-0.247,-0.008,-0.004,0.045,0.014,-0.032
0.011,0.17,0.158,-0.091,-0.074,0.164,-0.204,0.0,0.026,0.066,0.04,-0.01
0.036,0.223,0.187,-0.129,-0.076,0.205,-0.243,0.006,0.027,0.084,0.066,0.015
0.086,0.229,0.143,-0.158,-0.029,0.186,-0.306,0.009,0.021,0.077,0.066,0.035
0.072,0.2,0.128,-0.136,-0.029,0.164,-0.295,-0.004,0.018,0.06,0.057,0.035
0.061,0.175,0.114,-0.118,-0.027,0.144,-0.29,-0.011,0.012,0.035,0.048,0.017
0.011,0.117,0.107,-0.064,-0.048,0.112,-0.275,-0.023,-0.033,-0.029,0.027,-0.024
-0.035,0.059,0.094,-0.012,-0.064,0.076,-0.251,-0.037,-0.076,-0.083,-0.025,-0.068
-0.039,0.041,0.08,-0.001,-0.06,0.06,-0.251,-0.051,-0.071,-0.087,-0.041,-0.084
-0.048,0.02,0.069,0.014,-0.059,0.044,-0.25,-0.059,-0.062,-0.09,-0.046,-0.1
-0.04,0.01,0.05,0.014,-0.045,0.03,-0.227,-0.058,-0.057,-0.098,-0.056,-0.105
-0.031,0.034,0.064,-0.002,-0.048,0.049,-0.202,-0.073,-0.045,-0.097,-0.039,-0.091
-0.027,0.009,0.036,0.009,-0.031,0.022,-0.196,-0.053,-0.051,-0.137,-0.072,-0.114
-0.042,0.027,0.069,0.008,-0.056,0.047,-0.206,-0.083,-0.045,-0.132,-0.049,-0.081
-0.052,-0.032,0.02,0.042,-0.036,-0.007,-0.156,-0.005,-0.014,-0.155,-0.099,-0.132
-0.059,0.018,0.077,0.02,-0.068,0.048,-0.047,0.299,0.137,-0.011,-0.015,-0.135
0.075,0.136,0.061,-0.105,0.006,0.098,-0.005,0.516,0.466,0.213,0.165,-0.016
0.45,0.648,0.198,-0.549,0.126,0.423,-0.531,-0.417,0.54,0.666,0.812,0.658
0.452,1.211,0.759,-0.832,-0.153,0.984,-1.268,-2.087,-0.153,0.92,1.388,1.368
-0.055,0.448,0.503,-0.197,-0.279,0.475,-1.024,-2.2,-1.108,-0.166,0.291,0.498
-0.32,-0.247,0.073,0.283,-0.196,-0.087,-0.388,-1.165,-1.011,-0.748,-0.448,-0.306
-0.189,-0.148,0.04,0.168,-0.114,-0.054,-0.225,-0.399,-0.334,-0.296,-0.141,-0.17
-0.038,-0.056,-0.018,0.047,-0.01,-0.037,-0.114,-0.067,-0.12,-0.145,-0.093,-0.135
-0.015,0.01,0.025,0.002,-0.02,0.018,0.107,0.003,-0.037,-0.07,-0.025,-0.09
-0.023,-0.003,0.02,0.013,-0.022,0.008,0.183,0.053,0.013,-0.059,-0.016,-0.098
-0.01,0.016,0.026,-0.003,-0.018,0.021,0.177,0.065,0.035,-0.052,0.003,-0.088
-0.002,0.01,0.013,-0.004,-0.007,0.011,0.182,0.098,0.052,-0.033,0.014,-0.078
0.007,0.008,0.0,-0.008,0.004,0.004,0.17,0.117,0.067,-0.048,0.009,-0.079
0.016,0.013,-0.003,-0.014,0.01,0.004,0.168,0.127,0.106,-0.025,0.027,-0.063
0.022,0.007,-0.015,-0.014,0.018,-0.004,0.162,0.138,0.106,0.007,0.021,-0.065
0.03,0.011,-0.018,-0.02,0.024,-0.003,0.147,0.149,0.122,0.031,0.035,-0.05
0.053,0.025,-0.028,-0.039,0.04,-0.002,0.112,0.174,0.122,0.032,0.027,-0.051
0.079,0.044,-0.036,-0.061,0.058,0.004,0.075,0.19,0.129,0.046,0.032,-0.042
0.094,0.038,-0.056,-0.066,0.075,-0.009,0.029,0.224,0.152,0.044,0.035,-0.042
0.117,0.041,-0.076,-0.079,0.096,-0.017,-0.006,0.267,0.188,0.079,0.063,-0.032
0.136,0.039,-0.097,-0.087,0.116,-0.028,-0.034,0.315,0.241,0.134,0.096,-0.018
0.172,0.04,-0.131,-0.106,0.152,-0.045,-0.087,0.367,0.282,0.149,0.099,-0.005
0.22,0.048,-0.171,-0.134,0.195,-0.061,-0.117,0.423,0.328,0.174,0.134,0.023
0.26,0.075,-0.184,-0.167,0.222,-0.054,-0.147,0.473,0.369,0.173,0.16,0.056
0.295,0.099,-0.197,-0.197,0.246,-0.049,-0.183,0.488,0.367,0.185,0.186,0.104
0.313,0.093,-0.22,-0.203,0.266,-0.063,-0.195,0.475,0.329,0.2,0.212,0.127
0.328,0.087,-0.241,-0.207,0.284,-0.076,-0.184,0.459,0.281,0.169,0.202,0.138
0.304,0.082,-0.222,-0.193,0.263,-0.07,-0.176,0.432,0.239,0.144,0.195,0.129
0.242,0.073,-0.169,-0.158,0.205,-0.047,-0.161,0.382,0.194,0.123,0.191,0.09
0.189,0.062,-0.127,-0.125,0.157,-0.032,-0.11,0.314,0.148,0.099,0.175,0.069
0.121,0.049,-0.072,-0.085,0.096,-0.011,-0.096,0.237,0.1,0.061,0.136,0.029
0.053,0.026,-0.028,-0.039,0.04,-0.001,-0.103,0.164,0.051,0.044,0.106,-0.002
0.018,0.002,-0.017,-0.01,0.017,-0.007,-0.102,0.108,0.021,0.04,0.092,-0.022
-0.009,-0.013,-0.005,0.011,-0.002,-0.009,-0.107,0.068,0.007,-0.001,0.076,-0.073
-0.032,-0.031,0.002,0.031,-0.017,-0.014,-0.102,0.042,0.002,-0.044,0.064,-0.088
-0.04,-0.035,0.005,0.037,-0.022,-0.015,-0.121,0.034,-0.001,-0.051,0.052,-0.083
-0.049,-0.039,0.01,0.044,-0.029,-0.014,-0.136,0.033,-0.004,-0.053,0.046,-0.086
-0.054,-0.044,0.01,0.049,-0.031,-0.017,-0.133,0.029,-0.009,-0.057,0.039,-0.084
-0.05,-0.04,0.01,0.045,-0.03,-0.015,-0.137,0.027,-0.009,-0.035,0.031,-0.085
-0.05,-0.04,0.01,0.045,-0.03,-0.015,-0.132,0.024,-0.005,-0.011,0.024,-0.08
-0.05,-0.04,0.009,0.045,-0.029,-0.015,-0.14,0.025,-0.003,-0.009,0.021,-0.08
-0.051,-0.04,0.011,0.046,-0.031,-0.014,-0.141,0.038,0.0,-0.025,0.031,-0.08
-0.047,-0.04,0.007,0.043,-0.027,-0.017,-0.154,0.051,0.003,-0.036,0.04,-0.08
-0.056,-0.043,0.013,0.049,-0.034,-0.015,-0.144,0.054,0.005,-0.036,0.04,-0.08
-0.072,-0.046,0.025,0.059,-0.048,-0.01,-0.169,0.055,0.001,-0.033,0.04,-0.078
-0.055,-0.049,0.006,0.052,-0.03,-0.021,-0.317,0.055,-0.004,-0.038,0.037,-0.073
-0.047,-0.051,-0.004,0.049,-0.022,-0.027,-0.375,0.055,-0.007,-0.012,0.034,-0.07
-0.056,-0.049,0.006,0.052,-0.031,-0.021,-0.367,0.055,-0.013,0.043,0.036,-0.075
-0.043,-0.055,-0.012,0.049,-0.015,-0.033,-0.378,0.052,-0.014,0.033,0.04,-0.08
-0.034,-0.061,-0.027,0.048,-0.003,-0.043,-0.379,0.043,-0.01,0.005,0.045,-0.084
-0.038,-0.062,-0.024,0.051,-0.007,-0.043,-0.397,0.034,-0.01,-0.011,0.045,-0.083
-0.047,-0.073,-0.026,0.061,-0.01,-0.049,-0.391,0.027,-0.016,-0.04,0.044,-0.076
-0.048,-0.072,-0.024,0.061,-0.012,-0.048,-0.384,0.029,-0.03,-0.053,0.046,-0.071
-0.046,-0.073,-0.027,0.06,-0.009,-0.05,-0.377,0.032,-0.037,-0.056,0.042,-0.065
-0.041,-0.051,-0.01,0.046,-0.015,-0.031,-0.37,0.029,-0.024,-0.033,0.052,-0.058
-0.036,-0.006,0.029,0.021,-0.032,0.011,-0.338,0.046,-0.006,0.003,0.071,-0.044
-0.037,0.038,0.075,-0.001,-0.056,0.056,-0.291,0.06,0.009,0.029,0.085,-0.018
0.008,0.108,0.099,-0.058,-0.045,0.103,-0.332,0.049,0.019,0.049,0.124,0.001
0.048,0.117,0.069,-0.082,-0.011,0.093,-0.384,0.046,0.01,0.041,0.138,0.016
0.055,0.086,0.031,-0.071,0.012,0.058,-0.378,0.036,-0.015,0.028,0.125,0.023
0.048,0.045,-0.003,-0.047,0.026,0.021,-0.374,0.028,-0.041,0.005,0.098,0.016
-0.01,-0.023,-0.013,0.017,0.002,-0.018,-0.374,0.017,-0.079,-0.027,0.072,-0.017
-0.072,-0.095,-0.023,0.084,-0.024,-0.058,-0.368,0.007,-0.106,-0.07,0.038,-0.079
-0.083,-0.126,-0.042,0.105,-0.02,-0.083,-0.375,0.003,-0.102,-0.087,0.013,-0.092
-0.068,-0.122,-0.054,0.095,-0.007,-0.087,-0.387,-0.011,-0.097,-0.092,0.009,-0.101
-0.075,-0.148,-0.073,0.111,-0.001,-0.11,-0.391,-0.007,-0.087,-0.113,-0.005,-0.125
-0.084,-0.153,-0.07,0.119,-0.007,-0.111,-0.41,-0.031,-0.086,-0.104,0.006,-0.103
-0.07,-0.172,-0.102,0.121,0.016,-0.137,-0.399,-0.015,-0.072,-0.128,-0.024,-0.124
-0.094,-0.144,-0.051,0.119,-0.022,-0.097,-0.399,-0.047,-0.092,-0.099,0.002,-0.093
-0.091,-0.202,-0.11,0.147,0.01,-0.156,-0.38,0.019,-0.085,-0.135,-0.04,-0.126
-0.092,-0.158,-0.066,0.126,-0.013,-0.112,-0.279,0.305,0.128,-0.029,0.018,-0.147
0.012,-0.031,-0.043,0.01,0.028,-0.037,-0.233,0.486,0.449,0.215,0.197,-0.051
0.357,0.422,0.065,-0.39,0.146,0.244,-0.709,-0.263,0.522,0.71,0.873,0.607
0.379,1.059,0.68,-0.719,-0.15,0.869,-1.502,-1.879,-0.189,1.066,1.576,1.408
-0.078,0.387,0.465,-0.155,-0.271,0.426,-1.332,-2.16,-1.184,-0.084,0.494,0.617
-0.348,-0.399,-0.05,0.373,-0.149,-0.224,-0.648,-1.13,-1.069,-0.816,-0.375,-0.273
-0.216,-0.319,-0.103,0.268,-0.057,-0.211,-0.444,-0.367,-0.326,-0.332,-0.069,-0.192
-0.103,-0.233,-0.13,0.169,0.013,-0.181,-0.392,-0.03,-0.063,-0.214,-0.022,-0.156
-0.085,-0.158,-0.072,0.122,-0.006,-0.115,-0.382,0.04,0.01,-0.169,0.046,-0.096
-0.046,-0.154,-0.108,0.1,0.031,-0.131,-0.382,0.081,0.04,-0.139,0.056,-0.103
-0.049,-0.144,-0.095,0.097,0.023,-0.119,-0.371,0.101,0.035,-0.13,0.059,-0.097
-0.047,-0.138,-0.091,0.093,0.022,-0.115,-0.375,0.115,0.065,-0.104,0.073,-0.082
-0.046,-0.14,-0.094,0.093,0.024,-0.116,-0.351,0.13,0.053,-0.11,0.056,-0.088
-0.047,-0.128,-0.08,0.088,0.017,-0.104,-0.323,0.139,0.068,-0.086,0.073,-0.076
-0.039,-0.131,-0.091,0.085,0.026,-0.111,-0.317,0.151,0.094,-0.083,0.058,-0.091
-0.024,-0.118,-0.095,0.071,0.036,-0.106,-0.324,0.162,0.124,-0.058,0.07,-0.083
-0.011,-0.118,-0.107,0.065,0.048,-0.112,-0.324,0.184,0.16,-0.044,0.073,-0.093
0.001,-0.11,-0.111,0.054,0.057,-0.11,-0.329,0.201,0.191,-0.017,0.075,-0.087
0.028,-0.105,-0.133,0.039,0.081,-0.119,-0.329,0.242,0.24,0.002,0.094,-0.054
0.04,-0.1,-0.141,0.031,0.091,-0.12,-0.339,0.276,0.283,0.011,0.11,-0.049
0.064,-0.093,-0.157,0.014,0.111,-0.125,-0.372,0.315,0.317,0.044,0.127,-0.048
0.106,-0.082,-0.188,-0.012,0.147,-0.134,-0.394,0.38,0.364,0.082,0.152,-0.009
0.147,-0.062,-0.209,-0.042,0.178,-0.135,-0.41,0.442,0.429,0.117,0.182,0.013
0.204,-0.045,-0.249,-0.079,0.226,-0.147,-0.432,0.491,0.482,0.151,0.225,0.039
0.239,-0.03,-0.269,-0.104,0.255,-0.149,-0.452,0.505,0.51,0.158,0.237,0.083
0.266,-0.006,-0.272,-0.13,0.269,-0.139,-0.465,0.496,0.499,0.158,0.229,0.085
0.278,0.005,-0.273,-0.141,0.275,-0.133,-0.464,0.483,0.422,0.145,0.223,0.093
0.232,0.005,-0.228,-0.118,0.229,-0.111,-0.461,0.438,0.342,0.102,0.216,0.11
0.184,0.003,-0.181,-0.093,0.182,-0.089,-0.443,0.379,0.273,0.052,0.191,0.085
0.116,-0.017,-0.133,-0.049,0.125,-0.075,-0.395,0.31,0.188,0.005,0.153,0.041
0.044,-0.027,-0.071,-0.008,0.058,-0.049,-0.355,0.221,0.116,-0.034,0.115,-0.004
-0.014,-0.044,-0.03,0.029,0.008,-0.036,-0.344,0.135,0.06,-0.068,0.08,-0.03
-0.057,-0.071,-0.014,0.064,-0.021,-0.042,-0.339,0.077,0.009,-0.085,0.047,-0.053
-0.064,-0.079,-0.015,0.072,-0.024,-0.047,-0.36,0.044,-0.017,-0.105,0.0,-0.09
-0.076,-0.091,-0.015,0.084,-0.03,-0.053,-0.394,0.017,-0.033,-0.123,-0.026,-0.102
-0.079,-0.093,-0.014,0.086,-0.032,-0.054,-0.397,0.009,-0.053,-0.125,-0.037,-0.099
-0.073,-0.089,-0.016,0.082,-0.029,-0.052,-0.396,0.006,-0.07,-0.13,-0.043,-0.096
-0.079,-0.091,-0.012,0.085,-0.033,-0.051,-0.387,0.002,-0.088,-0.127,-0.039,-0.09
-0.076,-0.086,-0.01,0.081,-0.033,-0.048,-0.384,-0.001,-0.088,-0.122,-0.04,-0.084
-0.074,-0.085,-0.01,0.08,-0.032,-0.047,-0.374,-0.006,-0.08,-0.12,-0.04,-0.08
-0.079,-0.086,-0.006,0.083,-0.036,-0.046,-0.347,-0.001,-0.075,-0.115,-0.04,-0.071
-0.084,-0.089,-0.005,0.087,-0.04,-0.046,-0.336,0.008,-0.071,-0.111,-0.041,-0.076
-0.087,-0.092,-0.004,0.09,-0.041,-0.048,-0.331,0.013,-0.053,-0.11,-0.044,-0.092
-0.077,-0.094,-0.017,0.086,-0.03,-0.056,-0.34,0.023,-0.033,-0.11,-0.045,-0.084
-0.067,-0.098,-0.031,0.082,-0.018,-0.064,-0.32,0.031,-0.03,-0.11,-0.045,-0.096
-0.071,-0.1,-0.029,0.085,-0.021,-0.065,-0.346,0.027,-0.029,-0.11,-0.045,-0.105
-0.069,-0.1,-0.032,0.085,-0.018,-0.066,-0.277,0.024,-0.026,-0.11,-0.047,-0.094
-0.065,-0.099,-0.035,0.082,-0.015,-0.066,-0.101,0.021,-0.023,-0.109,-0.054,-0.09
-0.065,-0.101,-0.036,0.084,-0.015,-0.068,-0.078,0.016,-0.067,-0.115,-0.06,-0.082
-0.067,-0.098,-0.031,0.083,-0.018,-0.064,-0.076,0.015,-0.103,-0.124,-0.06,-0.076
-0.066,-0.086,-0.02,0.076,-0.023,-0.053,-0.058,0.024,-0.109,-0.116,-0.061,-0.079
-0.04,-0.047,-0.007,0.044,-0.016,-0.027,-0.05,0.028,-0.123,-0.109,-0.06,-0.084
-0.017,-0.001,0.017,0.009,-0.017,0.008,-0.023,0.042,-0.116,-0.093,-0.041,-0.068
-0.007,0.057,0.064,-0.026,-0.036,0.06,0.017,0.058,-0.084,-0.075,-0.01,-0.038
0.01,0.111,0.101,-0.061,-0.046,0.106,-0.021,0.034,-0.048,-0.074,0.022,0.011
0.028,0.11,0.082,-0.069,-0.027,0.095,-0.108,0.016,-0.038,-0.079,0.018,0.038
0.028,0.081,0.052,-0.055,-0.012,0.066,-0.101,0.01,-0.041,-0.081,0.002,0.001
0.018,0.028,0.011,-0.023,0.003,0.019,-0.096,0.004,-0.059,-0.084,-0.019,-0.028
-0.011,-0.013,-0.002,0.012,-0.005,-0.007,-0.082,-0.001,-0.083,-0.105,-0.053,-0.046
-0.063,-0.081,-0.019,0.072,-0.022,-0.05,-0.04,-0.008,-0.108,-0.131,-0.095,-0.086
-0.066,-0.12,-0.054,0.094,-0.006,-0.087,-0.036,-0.009,-0.132,-0.159,-0.113,-0.092
-0.062,-0.112,-0.05,0.087,-0.005,-0.081,-0.034,-0.023,-0.156,-0.174,-0.108,-0.107
-0.076,-0.14,-0.064,0.109,-0.006,-0.101,-0.034,-0.014,-0.16,-0.18,-0.13,-0.134
-0.08,-0.122,-0.042,0.101,-0.019,-0.082,-0.037,-0.039,-0.167,-0.169,-0.109,-0.114
-0.08,-0.152,-0.072,0.116,-0.003,-0.112,-0.03,-0.022,-0.189,-0.192,-0.135,-0.121
-0.086,-0.121,-0.035,0.104,-0.025,-0.078,-0.037,-0.045,-0.193,-0.167,-0.101,-0.097
-0.073,-0.166,-0.093,0.12,0.01,-0.129,0.011,-0.004,-0.182,-0.196,-0.154,-0.158
-0.064,-0.136,-0.072,0.1,0.005,-0.104,-0.032,0.258,-0.028,-0.108,-0.146,-0.163
0.023,-0.005,-0.028,-0.008,0.025,-0.016,-0.082,0.476,0.308,0.152,0.021,-0.074
0.35,0.386,0.036,-0.368,0.156,0.211,-0.508,-0.191,0.418,0.602,0.613,0.499
0.458,1.09,0.632,-0.774,-0.087,0.861,-1.366,-1.843,-0.216,1.024,1.408,1.388
0.032,0.513,0.482,-0.273,-0.225,0.497,-1.278,-2.259,-1.231,0.0,0.465,0.729
-0.297,-0.356,-0.059,0.326,-0.119,-0.207,-0.573,-1.256,-1.251,-0.879,-0.544,-0.257
-0.186,-0.294,-0.108,0.24,-0.039,-0.2,-0.277,-0.419,-0.48,-0.416,-0.266,-0.213
-0.065,-0.194,-0.129,0.13,0.032,-0.161,-0.229,-0.04,-0.181,-0.213,-0.183,-0.173
-0.052,-0.121,-0.069,0.087,0.009,-0.095,-0.252,0.016,-0.123,-0.156,-0.127,-0.129
-0.016,-0.116,-0.1,0.066,0.042,-0.108,-0.241,0.061,-0.068,-0.118,-0.113,-0.127
-0.01,-0.111,-0.101,0.06,0.046,-0.106,-0.247,0.058,-0.063,-0.129,-0.12,-0.133
-0.009,-0.1,-0.09,0.055,0.041,-0.095,-0.261,0.07,-0.036,-0.103,-0.098,-0.111
-0.002,-0.103,-0.101,0.053,0.05,-0.101,-0.267,0.097,-0.027,-0.114,-0.11,-0.12
0.002,-0.088,-0.089,0.043,0.046,-0.088,-0.278,0.093,-0.007,-0.092,-0.089,-0.1
0.009,-0.091,-0.1,0.042,0.054,-0.095,-0.278,0.121,0.0,-0.098,-0.096,-0.109
0.017,-0.075,-0.091,0.029,0.054,-0.083,-0.284,0.133,0.025,-0.085,-0.078,-0.104
0.028,-0.069,-0.097,0.021,0.063,-0.083,-0.285,0.155,0.046,-0.083,-0.076,-0.097
0.035,-0.057,-0.092,0.011,0.064,-0.074,-0.288,0.179,0.054,-0.076,-0.065,-0.081
0.041,-0.048,-0.089,0.003,0.065,-0.068,-0.291,0.207,0.092,-0.072,-0.059,-0.069
0.065,-0.041,-0.105,-0.012,0.085,-0.073,-0.292,0.252,0.151,-0.056,-0.044,-0.062
0.099,-0.031,-0.13,-0.034,0.115,-0.08,-0.297,0.3,0.193,-0.017,-0.021,-0.047
0.132,-0.025,-0.157,-0.053,0.145,-0.09,-0.301,0.359,0.249,0.019,-0.004,-0.025
0.174,-0.016,-0.19,-0.079,0.183,-0.103,-0.312,0.425,0.304,0.062,0.035,0.015
0.227,0.001,-0.226,-0.114,0.226,-0.112,-0.332,0.474,0.318,0.095,0.068,0.051
0.258,0.014,-0.244,-0.136,0.251,-0.115,-0.343,0.497,0.309,0.103,0.08,0.055
0.275,0.027,-0.248,-0.151,0.262,-0.11,-0.349,0.489,0.296,0.103,0.082,0.075
0.283,0.033,-0.25,-0.158,0.266,-0.108,-0.329,0.471,0.275,0.093,0.076,0.091
0.252,0.025,-0.226,-0.138,0.239,-0.1,-0.295,0.43,0.223,0.056,0.073,0.093
0.197,0.02,-0.178,-0.108,0.187,-0.079,-0.262,0.364,0.174,0.016,0.067,0.093
0.127,0.012,-0.114,-0.069,0.12,-0.051,-0.217,0.289,0.124,-0.012,0.047,0.05
0.069,0.007,-0.063,-0.038,0.066,-0.028,-0.174,0.2,0.058,-0.032,0.01,0.001
0.026,-0.007,-0.033,-0.009,0.03,-0.02,-0.136,0.119,0.002,-0.056,-0.029,-0.033
-0.015,-0.027,-0.012,0.021,-0.001,-0.019,-0.121,0.058,-0.043,-0.071,-0.06,-0.064
-0.027,-0.031,-0.003,0.029,-0.012,-0.017,-0.118,0.007,-0.092,-0.079,-0.076,-0.082
-0.036,-0.035,0.001,0.036,-0.019,-0.017,-0.112,-0.018,-0.123,-0.091,-0.085,-0.09
-0.049,-0.043,0.005,0.046,-0.027,-0.019,-0.107,-0.033,-0.117,-0.088,-0.101,-0.075
-0.053,-0.043,0.01,0.048,-0.031,-0.016,-0.1,-0.043,-0.112,-0.099,-0.099,-0.069
-0.053,-0.038,0.015,0.045,-0.034,-0.012,-0.105,-0.037,-0.109,-0.111,-0.095,-0.1
-0.055,-0.035,0.019,0.044,-0.036,-0.008,-0.107,-0.033,-0.103,-0.112,-0.093,-0.106
-0.062,-0.032,0.031,0.047,-0.046,-0.001,-0.104,-0.029,-0.1,-0.116,-0.089,-0.098
-0.063,-0.027,0.035,0.044,-0.049,0.004,-0.105,-0.024,-0.094,-0.119,-0.093,-0.098
-0.059,-0.024,0.035,0.041,-0.046,0.005,-0.1,-0.02,-0.089,-0.121,-0.095,-0.091
-0.058,-0.02,0.039,0.039,-0.048,0.009,-0.1,-0.015,-0.083,-0.12,-0.095,-0.09
-0.056,-0.012,0.044,0.034,-0.049,0.015,-0.099,-0.01,-0.077,-0.12,-0.095,-0.095
-0.054,-0.006,0.048,0.029,-0.05,0.021,-0.095,-0.005,-0.073,-0.12,-0.095,-0.094
-0.05,0.001,0.05,0.025,-0.05,0.025,-0.093,-0.002,-0.066,-0.12,-0.095,-0.097
-0.042,0.008,0.05,0.017,-0.046,0.029,-0.089,0.004,-0.059,-0.123,-0.095,-0.1
-0.042,0.008,0.05,0.017,-0.046,0.029,-0.087,0.002,-0.053,-0.128,-0.095,-0.101
-0.049,0.001,0.051,0.024,-0.05,0.026,-0.084,-0.007,-0.045,-0.131,-0.095,-0.098
-0.053,-0.004,0.049,0.029,-0.051,0.022,-0.082,-0.018,-0.041,-0.137,-0.094,-0.091
-0.059,-0.008,0.051,0.034,-0.055,0.021,-0.076,-0.027,-0.044,-0.144,-0.096,-0.087
-0.069,-0.016,0.052,0.042,-0.06,0.018,-0.072,-0.038,-0.063,-0.141,-0.092,-0.077
-0.077,-0.018,0.059,0.048,-0.068,0.02,-0.067,-0.042,-0.074,-0.132,-0.086,-0.101
-0.063,-0.006,0.058,0.034,-0.061,0.026,-0.062,-0.028,-0.064,-0.126,-0.079,-0.116
-0.027,0.03,0.057,-0.002,-0.043,0.043,-0.058,-0.018,-0.061,-0.118,-0.072,-0.1
-0.03,0.078,0.109,-0.024,-0.07,0.093,-0.018,-0.001,-0.048,-0.088,-0.067,-0.082
-0.029,0.13,0.159,-0.051,-0.094,0.144,-0.003,0.011,-0.027,-0.072,-0.041,-0.035
0.016,0.175,0.159,-0.096,-0.072,0.167,-0.071,-0.001,-0.014,-0.077,-0.006,-0.013
0.037,0.17,0.134,-0.104,-0.049,0.152,-0.134,-0.011,-0.002,-0.08,0.011,-0.016
0.037,0.144,0.107,-0.09,-0.035,0.125,-0.056,-0.028,-0.022,-0.082,-0.005,-0.007
0.025,0.104,0.08,-0.065,-0.028,0.092,0.072,-0.043,-0.067,-0.089,-0.04,-0.02
-0.035,0.039,0.074,-0.003,-0.055,0.056,0.112,-0.062,-0.126,-0.125,-0.072,-0.068
-0.084,-0.031,0.053,0.058,-0.068,0.01,0.146,-0.057,-0.169,-0.171,-0.118,-0.102
-0.09,-0.05,0.04,0.07,-0.065,-0.005,0.142,-0.067,-0.184,-0.171,-0.121,-0.105
-0.088,-0.065,0.023,0.076,-0.055,-0.021,0.143,-0.083,-0.201,-0.184,-0.136,-0.143
-0.093,-0.079,0.014,0.086,-0.054,-0.032,0.167,-0.074,-0.217,-0.197,-0.143,-0.139
-0.1,-0.081,0.02,0.09,-0.06,-0.03,0.171,-0.083,-0.215,-0.191,-0.133,-0.131
-0.082,-0.094,-0.012,0.088,-0.034,-0.053,0.193,-0.06,-0.218,-0.215,-0.158,-0.14
-0.092,-0.069,0.023,0.081,-0.057,-0.023,0.184,-0.092,-0.226,-0.195,-0.125,-0.115
-0.069,-0.115,-0.045,0.092,-0.012,-0.08,0.241,0.005,-0.176,-0.226,-0.18,-0.159
-0.071,-0.033,0.039,0.052,-0.055,0.003,0.363,0.321,0.062,-0.063,-0.095,-0.122
0.073,0.098,0.025,-0.086,0.024,0.062,0.341,0.386,0.394,0.233,0.108,-0.009
0.442,0.717,0.275,-0.58,0.083,0.496,-0.343,-0.792,0.327,0.781,0.907,0.815
0.364,1.134,0.77,-0.749,-0.203,0.952,-1.022,-2.316,-0.483,0.843,1.297,1.372
-0.122,0.195,0.317,-0.036,-0.22,0.256,-0.614,-2.107,-1.333,-0.43,-0.005,0.308
-0.313,-0.353,-0.04,0.333,-0.136,-0.197,0.021,-1.021,-1.055,-0.806,-0.536,-0.319
-0.16,-0.183,-0.023,0.172,-0.069,-0.103,0.237,-0.315,-0.371,-0.294,-0.203,-0.166
-0.082,-0.121,-0.039,0.102,-0.021,-0.08,0.274,-0.06,-0.211,-0.236,-0.194,-0.158
-0.064,-0.061,0.002,0.063,-0.032,-0.029,0.365,-0.023,-0.152,-0.171,-0.123,-0.11
-0.029,-0.071,-0.042,0.051,0.006,-0.056,0.447,0.034,-0.136,-0.179,-0.145,-0.129
-0.039,-0.055,-0.016,0.048,-0.011,-0.035,0.428,0.039,-0.134,-0.175,-0.126,-0.108
-0.028,-0.057,-0.029,0.043,0.001,-0.043,0.449,0.064,-0.113,-0.166,-0.124,-0.107
-0.026,-0.051,-0.025,0.039,0.0,-0.038,0.451,0.074,-0.092,-0.176,-0.122,-0.101
-0.022,-0.044,-0.022,0.034,0.0,-0.033,0.454,0.084,-0.044,-0.153,-0.109,-0.091
-0.012,-0.042,-0.03,0.028,0.009,-0.036,0.452,0.102,-0.022,-0.142,-0.11,-0.091
-0.022,-0.032,-0.009,0.027,-0.006,-0.02,0.448,0.117,0.008,-0.12,-0.092,-0.078
-0.014,-0.031,-0.016,0.023,0.001,-0.023,0.451,0.142,0.02,-0.119,-0.092,-0.077
0.02,-0.022,-0.043,0.001,0.032,-0.032,0.443,0.167,0.039,-0.09,-0.075,-0.065
0.042,-0.017,-0.059,-0.013,0.051,-0.038,0.447,0.205,0.078,-0.046,-0.065,-0.063
0.069,-0.005,-0.074,-0.031,0.072,-0.04,0.437,0.25,0.098,-0.023,-0.049,-0.054
0.095,0.0,-0.095,-0.047,0.095,-0.048,0.401,0.3,0.135,0.009,-0.034,-0.052
0.13,0.021,-0.11,-0.075,0.119,-0.044,0.379,0.359,0.194,0.054,-0.005,-0.017
0.188,0.056,-0.132,-0.122,0.159,-0.038,0.364,0.43,0.256,0.081,0.034,0.023
0.238,0.072,-0.167,-0.155,0.202,-0.047,0.331,0.464,0.275,0.096,0.057,0.041
0.254,0.075,-0.179,-0.164,0.216,-0.052,0.324,0.466,0.257,0.096,0.081,0.087
0.263,0.075,-0.188,-0.169,0.225,-0.056,0.325,0.467,0.23,0.085,0.098,0.1
0.263,0.075,-0.188,-0.169,0.225,-0.056,0.329,0.447,0.19,0.076,0.094,0.087
0.236,0.075,-0.161,-0.155,0.198,-0.043,0.329,0.397,0.153,0.064,0.08,0.08
0.189,0.075,-0.114,-0.132,0.151,-0.019,0.336,0.329,0.101,0.032,0.064,0.071
0.125,0.072,-0.054,-0.098,0.089,0.009,0.376,0.249,0.044,-0.006,0.035,0.055
0.067,0.059,-0.008,-0.063,0.037,0.026,0.407,0.16,-0.009,-0.042,0.007,0.01
0.009,0.047,0.039,-0.028,-0.015,0.043,0.43,0.086,-0.065,-0.066,-0.021,-0.039
-0.009,0.039,0.048,-0.015,-0.028,0.043,0.443,0.035,-0.109,-0.076,-0.055,-0.061
-0.039,0.033,0.072,0.002,-0.056,0.052,0.44,-0.005,-0.143,-0.103,-0.073,-0.076
-0.069,0.029,0.099,0.02,-0.084,0.064,0.438,-0.039,-0.171,-0.113,-0.071,-0.084
-0.066,0.022,0.088,0.022,-0.078,0.055,0.435,-0.06,-0.19,-0.121,-0.059,-0.089
-0.091,0.018,0.109,0.037,-0.1,0.063,0.432,-0.064,-0.204,-0.146,-0.079,-0.103
-0.104,0.014,0.118,0.044,-0.111,0.066,0.43,-0.058,-0.217,-0.145,-0.097,-0.101
-0.097,0.016,0.113,0.04,-0.105,0.064,0.427,-0.051,-0.212,-0.137,-0.087,-0.091
-0.079,0.038,0.117,0.02,-0.098,0.077,0.424,-0.044,-0.203,-0.131,-0.085,-0.088
-0.087,0.047,0.134,0.02,-0.111,0.09,0.425,-0.038,-0.199,-0.124,-0.08,-0.078
-0.096,0.043,0.139,0.026,-0.118,0.091,0.425,-0.031,-0.188,-0.118,-0.075,-0.075
-0.083,0.046,0.13,0.018,-0.107,0.088,0.425,-0.027,-0.174,-0.112,-0.072,-0.093
-0.083,0.044,0.127,0.02,-0.106,0.085,0.425,-0.023,-0.132,-0.109,-0.067,-0.092
-0.073,0.047,0.119,0.013,-0.096,0.083,0.425,-0.019,-0.1,-0.105,-0.064,-0.076
-0.06,0.055,0.115,0.003,-0.088,0.085,0.425,-0.016,-0.097,-0.102,-0.061,-0.069
-0.062,0.048,0.11,0.006,-0.086,0.079,0.425,-0.011,-0.091,-0.097,-0.056,-0.064
-0.067,0.038,0.105,0.014,-0.086,0.071,0.425,-0.011,-0.088,-0.095,-0.056,-0.058
-0.07,0.031,0.101,0.019,-0.085,0.066,0.424,-0.019,-0.082,-0.102,-0.06,-0.055
-0.076,0.02,0.096,0.028,-0.087,0.058,0.428,-0.027,-0.081,-0.112,-0.06,-0.043
-0.081,0.009,0.091,0.036,-0.086,0.05,0.428,-0.035,-0.094,-0.12,-0.06,-0.055
-0.109,-0.017,0.092,0.063,-0.1,0.037,0.433,-0.042,-0.092,-0.122,-0.06,-0.066
-0.106,-0.011,0.096,0.058,-0.101,0.042,0.441,-0.049,-0.082,-0.12,-0.063,-0.052
-0.063,0.032,0.094,0.015,-0.079,0.063,0.443,-0.05,-0.075,-0.119,-0.072,-0.067
-0.087,0.013,0.099,0.037,-0.093,0.055,0.43,-0.05,-0.067,-0.138,-0.074,-0.067
-0.113,-0.014,0.1,0.064,-0.106,0.043,0.433,-0.049,-0.061,-0.156,-0.067,-0.058
-0.099,0.002,0.101,0.049,-0.1,0.051,0.42,-0.04,-0.052,-0.15,-0.061,-0.056
-0.093,0.011,0.104,0.041,-0.099,0.057,0.421,-0.031,-0.046,-0.142,-0.054,-0.048
-0.057,0.049,0.106,0.004,-0.082,0.078,0.437,-0.022,-0.037,-0.137,-0.048,-0.045
-0.038,0.102,0.14,-0.032,-0.089,0.121,0.474,-0.023,-0.016,-0.122,-0.037,-0.029
-0.052,0.138,0.19,-0.043,-0.121,0.164,0.727,-0.025,0.013,-0.104,-0.018,-0.018
0.003,0.184,0.182,-0.094,-0.09,0.183,0.876,-0.026,0.039,-0.099,-0.004,0.005
0.037,0.171,0.134,-0.104,-0.049,0.152,0.837,-0.03,0.042,-0.1,0.004,0.034
0.01,0.121,0.11,-0.066,-0.051,0.115,0.855,-0.031,0.026,-0.093,0.007,0.03
-0.019,0.067,0.085,-0.024,-0.053,0.076,0.849,-0.033,-0.016,-0.097,-0.016,0.014
-0.064,0.014,0.078,0.025,-0.071,0.046,0.85,-0.042,-0.067,-0.12,-0.046,-0.006
-0.093,-0.035,0.058,0.063,-0.075,0.011,0.884,-0.057,-0.094,-0.161,-0.086,-0.061
-0.118,-0.071,0.047,0.094,-0.082,-0.012,0.8,-0.074,-0.122,-0.166,-0.083,-0.054
-0.114,-0.085,0.029,0.099,-0.071,-0.028,0.68,-0.068,-0.124,-0.165,-0.09,-0.058
-0.106,-0.091,0.015,0.098,-0.06,-0.038,0.645,-0.069,-0.132,-0.166,-0.12,-0.097
-0.123,-0.101,0.022,0.112,-0.072,-0.039,0.605,-0.075,-0.143,-0.153,-0.114,-0.085
-0.109,-0.115,-0.006,0.112,-0.051,-0.06,0.573,-0.06,-0.134,-0.167,-0.131,-0.099
-0.112,-0.087,0.025,0.099,-0.068,-0.031,0.529,-0.085,-0.126,-0.14,-0.104,-0.065
-0.105,-0.14,-0.035,0.123,-0.035,-0.087,0.552,0.018,-0.101,-0.164,-0.141,-0.109
-0.109,-0.063,0.047,0.086,-0.078,-0.008,0.646,0.348,0.135,-0.011,-0.051,-0.088
0.052,0.081,0.029,-0.067,0.012,0.055,0.648,0.457,0.521,0.267,0.139,0.066
0.429,0.681,0.251,-0.555,0.089,0.466,-0.041,-0.807,0.465,0.771,0.879,0.846
0.363,1.092,0.729,-0.728,-0.184,0.91,-0.737,-2.378,-0.292,0.834,1.268,1.41
-0.157,0.154,0.311,0.001,-0.234,0.233,-0.35,-2.134,-1.13,-0.361,0.022,0.384
-0.353,-0.393,-0.04,0.373,-0.156,-0.216,0.104,-1.036,-0.898,-0.734,-0.512,-0.255
-0.206,-0.218,-0.012,0.213,-0.097,-0.115,0.217,-0.296,-0.207,-0.236,-0.179,-0.097
-0.134,-0.16,-0.026,0.147,-0.054,-0.093,0.251,-0.033,-0.071,-0.162,-0.167,-0.108
-0.113,-0.095,0.018,0.104,-0.066,-0.038,0.214,0.019,-0.024,-0.098,-0.097,-0.062
-0.091,-0.106,-0.015,0.099,-0.038,-0.061,0.23,0.077,-0.006,-0.099,-0.124,-0.078
-0.089,-0.088,0.002,0.089,-0.045,-0.043,0.208,0.074,-0.008,-0.089,-0.108,-0.057
-0.083,-0.088,-0.005,0.086,-0.039,-0.046,0.213,0.102,0.01,-0.075,-0.104,-0.052
-0.082,-0.082,0.0,0.082,-0.041,-0.041,0.217,0.107,0.005,-0.071,-0.1,-0.045
-0.077,-0.074,0.004,0.075,-0.04,-0.035,0.201,0.117,0.024,-0.049,-0.082,-0.032
-0.075,-0.072,0.003,0.073,-0.039,-0.034,0.208,0.135,0.033,-0.05,-0.084,-0.033
-0.069,-0.063,0.006,0.066,-0.038,-0.028,0.071,0.148,0.049,-0.033,-0.066,-0.019
-0.054,-0.061,-0.007,0.058,-0.023,-0.034,-0.125,0.173,0.045,-0.031,-0.063,-0.018
-0.044,-0.052,-0.008,0.048,-0.018,-0.03,-0.184,0.2,0.059,-0.016,-0.048,-0.008
-0.029,-0.049,-0.02,0.04,-0.005,-0.034,-0.216,0.238,0.092,0.003,-0.041,-0.004
-0.004,-0.035,-0.032,0.019,0.014,-0.033,-0.235,0.279,0.126,0.032,-0.029,0.012
0.031,-0.021,-0.052,-0.005,0.042,-0.036,-0.253,0.332,0.163,0.059,-0.014,0.028
0.069,-0.009,-0.078,-0.03,0.074,-0.043,-0.284,0.393,0.22,0.087,0.014,0.046
0.108,0.005,-0.103,-0.057,0.106,-0.049,-0.325,0.452,0.279,0.123,0.045,0.074
0.16,0.032,-0.128,-0.096,0.144,-0.047,-0.395,0.473,0.299,0.144,0.077,0.112
0.2,0.056,-0.144,-0.127,0.172,-0.044,-0.43,0.464,0.299,0.147,0.107,0.143
0.219,0.057,-0.162,-0.138,0.19,-0.052,-0.43,0.464,0.268,0.138,0.118,0.161
0.201,0.051,-0.15,-0.126,0.175,-0.049,-0.431,0.45,0.224,0.113,0.113,0.161
0.155,0.047,-0.108,-0.101,0.131,-0.03,-0.426,0.404,0.182,0.08,0.106,0.154
0.109,0.042,-0.066,-0.075,0.087,-0.012,-0.39,0.34,0.134,0.045,0.092,0.158
0.061,0.038,-0.023,-0.049,0.042,0.007,-0.331,0.277,0.097,0.028,0.062,0.125
0.025,0.033,0.008,-0.029,0.008,0.02,-0.253,0.207,0.049,0.013,0.018,0.071
-0.047,0.001,0.048,0.023,-0.048,0.024,-0.204,0.13,0.001,-0.012,-0.021,0.035
-0.106,-0.027,0.079,0.066,-0.092,0.026,-0.206,0.074,-0.037,-0.033,-0.032,0.017
-0.114,-0.033,0.081,0.074,-0.097,0.023,-0.2,0.037,-0.076,-0.053,-0.045,0.004
-0.128,-0.049,0.08,0.088,-0.104,0.015,-0.199,0.011,-0.103,-0.071,-0.067,-0.012
-0.132,-0.055,0.077,0.093,-0.104,0.011,-0.224,-0.001,-0.124,-0.106,-0.088,-0.038
-0.134,-0.06,0.074,0.096,-0.104,0.007,-0.246,-0.007,-0.132,-0.128,-0.098,-0.053
-0.135,-0.06,0.076,0.097,-0.105,0.007,-0.26,-0.012,-0.128,-0.13,-0.095,-0.046
-0.144,-0.053,0.092,0.098,-0.118,0.019,-0.262,-0.019,-0.125,-0.127,-0.093,-0.045
-0.145,-0.05,0.095,0.097,-0.12,0.022,-0.259,-0.018,-0.126,-0.123,-0.09,-0.041
-0.133,-0.045,0.089,0.089,-0.111,0.022,-0.259,-0.008,-0.101,-0.12,-0.086,-0.04
-0.128,-0.041,0.088,0.084,-0.108,0.023,-0.254,0.0,-0.07,-0.115,-0.085,-0.037
-0.118,-0.036,0.082,0.077,-0.099,0.022,-0.255,0.009,-0.071,-0.115,-0.089,-0.032
-0.115,-0.035,0.08,0.075,-0.097,0.022,-0.252,0.016,-0.07,-0.115,-0.091,-0.029
-0.107,-0.035,0.073,0.071,-0.09,0.019,-0.235,0.021,-0.07,-0.115,-0.09,-0.027
-0.109,-0.031,0.078,0.07,-0.093,0.024,-0.225,0.028,-0.071,-0.115,-0.09,-0.019
-0.116,-0.029,0.087,0.072,-0.102,0.028,-0.194,0.028,-0.069,-0.115,-0.09,-0.027
-0.116,-0.032,0.084,0.073,-0.1,0.026,-0.162,0.019,-0.082,-0.115,-0.09,-0.051
-0.121,-0.035,0.086,0.078,-0.103,0.025,-0.159,0.011,-0.098,-0.12,-0.09,-0.05
-0.119,-0.035,0.085,0.076,-0.101,0.025,-0.16,0.003,-0.107,-0.125,-0.09,-0.05
-0.123,-0.037,0.085,0.08,-0.104,0.024,-0.167,-0.004,-0.11,-0.128,-0.09,-0.051
-0.129,-0.04,0.088,0.084,-0.108,0.024,-0.181,-0.012,-0.11,-0.133,-0.09,-0.049
-0.127,-0.04,0.087,0.083,-0.107,0.024,-0.211,-0.022,-0.11,-0.135,-0.095,-0.053
-0.121,-0.043,0.078,0.082,-0.099,0.017,-0.23,-0.03,-0.11,-0.135,-0.096,-0.055
-0.12,-0.046,0.074,0.083,-0.097,0.014,-0.229,-0.04,-0.11,-0.135,-0.092,-0.059
-0.107,-0.043,0.064,0.075,-0.085,0.01,-0.231,-0.043,-0.115,-0.14,-0.09,-0.061
-0.11,-0.049,0.061,0.079,-0.085,0.006,-0.228,-0.038,-0.123,-0.143,-0.086,-0.064
-0.111,-0.062,0.049,0.086,-0.08,-0.006,-0.231,-0.035,-0.123,-0.147,-0.085,-0.065
-0.095,-0.072,0.023,0.083,-0.059,-0.024,-0.227,-0.032,-0.117,-0.152,-0.081,-0.058
-0.147,-0.086,0.061,0.116,-0.103,-0.012,-0.218,-0.027,-0.114,-0.155,-0.071,-0.051
-0.152,-0.073,0.079,0.112,-0.115,0.003,-0.195,-0.025,-0.108,-0.162,-0.063,-0.041
-0.108,-0.036,0.072,0.071,-0.089,0.017,-0.163,-0.001,-0.105,-0.149,-0.052,-0.029
-0.11,-0.002,0.109,0.056,-0.109,0.053,-0.121,0.035,-0.094,-0.098,-0.033,-0.003
-0.099,0.046,0.145,0.026,-0.123,0.096,-0.045,0.041,-0.079,-0.053,-0.009,0.029
-0.059,0.097,0.156,-0.019,-0.107,0.126,-0.101,0.03,-0.07,-0.045,0.022,0.066
-0.027,0.104,0.132,-0.039,-0.08,0.118,-0.188,0.019,-0.069,-0.046,0.034,0.097
-0.045,0.066,0.111,-0.01,-0.078,0.088,-0.171,0.006,-0.071,-0.062,0.022,0.093
-0.068,0.017,0.085,0.025,-0.077,0.051,-0.239,-0.001,-0.067,-0.084,0.013,0.091
-0.093,-0.019,0.074,0.056,-0.084,0.027,-0.319,-0.014,-0.1,-0.101,-0.007,0.046
-0.138,-0.075,0.063,0.106,-0.1,-0.006,-0.318,-0.021,-0.134,-0.155,-0.064,-0.03
-0.169,-0.111,0.057,0.14,-0.113,-0.027,-0.321,-0.033,-0.153,-0.177,-0.079,-0.024
-0.183,-0.13,0.053,0.156,-0.118,-0.038,-0.323,-0.036,-0.173,-0.179,-0.08,-0.023
-0.169,-0.133,0.035,0.151,-0.102,-0.049,-0.325,-0.032,-0.185,-0.182,-0.088,-0.028
-0.17,-0.123,0.048,0.146,-0.109,-0.037,-0.326,-0.045,-0.188,-0.157,-0.069,-0.009
-0.168,-0.142,0.026,0.155,-0.097,-0.058,-0.312,-0.031,-0.185,-0.171,-0.095,-0.036
-0.18,-0.112,0.068,0.146,-0.124,-0.022,-0.304,-0.055,-0.174,-0.133,-0.061,0.001
-0.173,-0.156,0.018,0.164,-0.096,-0.069,-0.273,0.023,-0.167,-0.16,-0.102,-0.056
-0.163,-0.086,0.077,0.124,-0.12,-0.004,-0.143,0.329,0.006,-0.038,-0.047,-0.058
-0.04,0.024,0.064,0.008,-0.052,0.043,-0.05,0.549,0.351,0.195,0.115,0.053
0.348,0.549,0.201,-0.449,0.073,0.375,-0.636,-0.531,0.38,0.624,0.746,0.723
0.362,1.11,0.749,-0.736,-0.194,0.929,-1.428,-2.258,-0.232,0.87,1.323,1.448
-0.138,0.306,0.444,-0.084,-0.291,0.375,-1.178,-2.262,-1.127,-0.22,0.238,0.56
-0.399,-0.372,0.027,0.385,-0.213,-0.172,-0.562,-1.173,-1.06,-0.797,-0.51,-0.229
-0.274,-0.237,0.037,0.255,-0.156,-0.1,-0.369,-0.357,-0.346,-0.305,-0.183,-0.083
-0.175,-0.163,0.013,0.169,-0.094,-0.075,-0.331,-0.023,-0.171,-0.182,-0.133,-0.069
-0.174,-0.096,0.077,0.135,-0.125,-0.009,-0.324,0.027,-0.141,-0.128,-0.074,-0.01
-0.15,-0.103,0.047,0.126,-0.098,-0.028,-0.305,0.087,-0.106,-0.115,-0.075,-0.024
-0.141,-0.086,0.054,0.113,-0.097,-0.016,-0.299,0.095,-0.105,-0.107,-0.068,-0.021
-0.132,-0.083,0.049,0.107,-0.09,-0.017,-0.303,0.119,-0.076,-0.087,-0.054,-0.011
-0.113,-0.075,0.038,0.093,-0.075,-0.018,-0.299,0.127,-0.076,-0.092,-0.059,-0.021
-0.098,-0.049,0.049,0.074,-0.073,0.0,-0.293,0.145,-0.048,-0.073,-0.04,-0.009
-0.096,-0.046,0.05,0.071,-0.073,0.002,-0.282,0.166,-0.035,-0.077,-0.046,-0.01
-0.084,-0.036,0.048,0.06,-0.066,0.005,-0.254,0.174,-0.01,-0.063,-0.028,0.008
-0.071,-0.036,0.034,0.053,-0.052,-0.001,-0.236,0.194,0.033,-0.055,-0.029,0.013
-0.06,-0.029,0.031,0.044,-0.045,0.001,-0.247,0.211,0.088,-0.032,-0.018,0.025
-0.047,-0.026,0.021,0.036,-0.033,-0.002,-0.252,0.248,0.131,-0.012,-0.004,0.027
-0.034,-0.02,0.014,0.027,-0.024,-0.003,-0.273,0.292,0.167,0.014,0.017,0.039
0.004,-0.01,-0.015,0.003,0.01,-0.012,-0.314,0.343,0.216,0.044,0.047,0.049
0.047,-0.003,-0.05,-0.022,0.048,-0.026,-0.334,0.403,0.254,0.06,0.061,0.056
0.093,0.007,-0.086,-0.05,0.089,-0.039,-0.367,0.458,0.307,0.088,0.09,0.096
0.147,0.028,-0.119,-0.087,0.133,-0.046,-0.407,0.496,0.353,0.114,0.132,0.139
0.179,0.044,-0.135,-0.111,0.157,-0.046,-0.431,0.5,0.356,0.107,0.156,0.17
0.212,0.06,-0.152,-0.136,0.182,-0.046,-0.449,0.488,0.343,0.101,0.168,0.2
0.22,0.065,-0.154,-0.142,0.187,-0.044,-0.434,0.473,0.306,0.093,0.158,0.196
0.177,0.05,-0.126,-0.113,0.151,-0.038,-0.423,0.436,0.26,0.055,0.145,0.193
0.125,0.041,-0.085,-0.083,0.105,-0.022,-0.387,0.377,0.221,0.022,0.134,0.187
0.066,0.028,-0.038,-0.046,0.052,-0.005,-0.308,0.324,0.18,0.005,0.111,0.148
-0.004,0.008,0.012,-0.002,-0.008,0.01,-0.248,0.253,0.134,-0.01,0.081,0.124
-0.06,-0.011,0.049,0.036,-0.055,0.019,-0.215,0.171,0.09,-0.022,0.048,0.089
-0.107,-0.038,0.068,0.072,-0.087,0.015,-0.208,0.117,0.055,-0.04,0.022,0.055
-0.14,-0.059,0.081,0.099,-0.111,0.011,-0.221,0.071,0.039,-0.059,0.006,0.041
-0.146,-0.061,0.085,0.103,-0.115,0.011,-0.239,0.046,0.041,-0.075,0.0,0.016
-0.15,-0.065,0.085,0.107,-0.117,0.01,-0.24,0.04,0.038,-0.081,-0.005,0.005
-0.163,-0.074,0.09,0.118,-0.126,0.008,-0.235,0.04,0.035,-0.086,-0.011,0.003
-0.165,-0.075,0.09,0.12,-0.127,0.007,-0.233,0.04,0.035,-0.092,-0.017,-0.002
-0.168,-0.075,0.094,0.121,-0.13,0.009,-0.228,0.04,0.037,-0.065,-0.021,-0.003
-0.17,-0.075,0.095,0.122,-0.132,0.01,-0.225,0.04,0.048,-0.048,-0.035,-0.013
-0.17,-0.075,0.095,0.122,-0.132,0.01,-0.221,0.042,0.055,-0.052,-0.048,-0.021
-0.169,-0.074,0.095,0.121,-0.132,0.01,-0.207,0.053,0.058,-0.048,-0.041,-0.02
-0.166,-0.071,0.095,0.118,-0.131,0.012,-0.168,0.059,0.063,-0.046,-0.03,-0.015
-0.163,-0.07,0.094,0.116,-0.128,0.012,-0.14,0.062,0.068,-0.044,-0.02,0.008
-0.158,-0.07,0.088,0.114,-0.123,0.008,-0.148,0.065,0.064,-0.049,-0.015,0.02
-0.152,-0.07,0.082,0.111,-0.117,0.006,-0.143,0.065,0.053,-0.063,-0.013,0.019
-0.147,-0.07,0.077,0.108,-0.112,0.003,-0.146,0.065,0.046,-0.072,-0.009,0.024
-0.144,-0.072,0.072,0.108,-0.108,0.0,-0.167,0.065,0.036,-0.075,-0.007,0.025
-0.14,-0.076,0.064,0.107,-0.101,-0.005,-0.177,0.065,0.021,-0.082,-0.004,0.027
-0.157,-0.078,0.079,0.117,-0.117,0.0,-0.191,0.058,0.01,-0.091,-0.009,0.03
-0.17,-0.081,0.089,0.125,-0.129,0.004,-0.07,0.05,-0.042,-0.097,-0.015,0.03
-0.162,-0.084,0.078,0.123,-0.12,-0.003,0.061,0.044,-0.094,-0.103,-0.021,0.03
-0.159,-0.086,0.073,0.122,-0.115,-0.006,0.072,0.036,-0.11,-0.105,-0.025,0.03
-0.155,-0.091,0.064,0.123,-0.11,-0.013,0.101,0.029,-0.133,-0.105,-0.025,0.029
-0.148,-0.091,0.057,0.119,-0.102,-0.017,0.131,0.022,-0.141,-0.114,-0.028,0.025
-0.159,-0.1,0.059,0.129,-0.109,-0.02,0.177,0.02,-0.14,-0.131,-0.025,0.016
-0.19,-0.121,0.07,0.155,-0.13,-0.025,0.227,0.02,-0.137,-0.139,-0.025,0.021
-0.181,-0.112,0.069,0.147,-0.125,-0.021,0.239,0.017,-0.135,-0.132,-0.023,0.047
-0.185,-0.11,0.076,0.147,-0.13,-0.017,0.228,0.014,-0.134,-0.126,-0.019,0.061
-0.193,-0.101,0.092,0.147,-0.142,-0.004,0.222,0.016,-0.107,-0.119,-0.022,0.059
-0.184,-0.096,0.088,0.14,-0.136,-0.004,0.205,0.023,-0.085,-0.112,-0.012,0.064
-0.153,-0.068,0.085,0.11,-0.118,0.008,0.165,0.037,-0.079,-0.103,0.0,0.065
-0.118,-0.026,0.091,0.072,-0.105,0.032,0.15,0.05,-0.073,-0.081,0.021,0.067
-0.126,0.016,0.142,0.055,-0.134,0.079,0.197,0.071,-0.041,-0.05,0.051,0.083
-0.108,0.084,0.192,0.012,-0.151,0.138,0.187,0.07,-0.013,-0.024,0.076,0.102
-0.069,0.088,0.157,-0.01,-0.113,0.122,0.105,0.056,-0.017,-0.018,0.086,0.144
-0.028,0.091,0.118,-0.032,-0.073,0.104,0.106,0.061,-0.012,-0.02,0.075,0.149
-0.105,0.001,0.106,0.052,-0.106,0.053,0.121,0.037,-0.02,-0.026,0.061,0.11
-0.08,0.012,0.091,0.033,-0.085,0.051,0.167,0.051,-0.044,-0.063,0.058,0.112
-0.213,-0.124,0.09,0.169,-0.151,-0.017,0.236,0.018,-0.091,-0.102,0.059,0.083
-0.159,-0.08,0.079,0.12,-0.119,0.0,0.239,0.033,-0.119,-0.119,0.062,0.055
-0.206,-0.13,0.075,0.168,-0.14,-0.027,0.235,-0.075,-0.143,-0.129,0.065,0.053
-0.419,-0.351,0.068,0.385,-0.243,-0.142,0.227,-0.183,-0.187,-0.15,0.065,0.024
