-0.125,0.01,0.135,0.057,-0.13,0.072,-0.03,-0.025,-0.295,-0.23,-0.19,-0.24
-0.127,0.008,0.135,0.059,-0.131,0.071,-0.03,-0.025,-0.295,-0.23,-0.19,-0.24
-0.128,0.003,0.131,0.062,-0.13,0.067,-0.033,-0.025,-0.295,-0.23,-0.19,-0.24
-0.131,-0.001,0.129,0.066,-0.13,0.064,-0.036,-0.025,-0.303,-0.23,-0.19,-0.236
-0.13,-0.005,0.125,0.067,-0.127,0.06,-0.039,-0.025,-0.308,-0.23,-0.19,-0.234
-0.123,0.002,0.125,0.06,-0.124,0.064,-0.04,-0.025,-0.304,-0.23,-0.19,-0.235
-0.105,0.013,0.118,0.046,-0.112,0.065,-0.031,-0.018,-0.302,-0.223,-0.183,-0.228
-0.097,0.021,0.119,0.038,-0.108,0.069,-0.018,-0.007,-0.299,-0.215,-0.172,-0.219
-0.091,0.039,0.129,0.026,-0.11,0.084,-0.008,0.002,-0.29,-0.208,-0.162,-0.213
-0.077,0.042,0.119,0.017,-0.099,0.081,0.0,0.017,-0.273,-0.198,-0.147,-0.203
-0.077,0.033,0.11,0.022,-0.094,0.071,-0.017,0.02,-0.268,-0.197,-0.133,-0.203
-0.07,0.028,0.099,0.021,-0.085,0.063,-0.043,0.013,-0.271,-0.2,-0.135,-0.205
-0.06,0.017,0.077,0.021,-0.069,0.047,-0.06,0.006,-0.275,-0.199,-0.142,-0.206
-0.06,0.001,0.061,0.029,-0.06,0.031,-0.068,-0.001,-0.292,-0.212,-0.15,-0.21
-0.075,-0.015,0.06,0.045,-0.067,0.022,-0.063,-0.011,-0.306,-0.219,-0.159,-0.21
-0.09,-0.03,0.06,0.06,-0.075,0.015,-0.057,-0.02,-0.314,-0.225,-0.165,-0.22
-0.11,-0.049,0.061,0.08,-0.085,0.006,-0.054,-0.028,-0.315,-0.235,-0.174,-0.226
-0.132,-0.051,0.081,0.091,-0.106,0.015,-0.049,-0.037,-0.321,-0.244,-0.178,-0.224
-0.125,-0.048,0.077,0.086,-0.1,0.014,-0.044,-0.022,-0.306,-0.235,-0.183,-0.226
-0.123,-0.039,0.084,0.081,-0.103,0.022,-0.051,-0.039,-0.318,-0.245,-0.192,-0.224
-0.121,-0.039,0.082,0.08,-0.101,0.021,-0.048,-0.013,-0.3,-0.235,-0.196,-0.226
-0.119,-0.032,0.087,0.075,-0.102,0.027,-0.052,-0.036,-0.309,-0.243,-0.205,-0.222
-0.113,-0.027,0.085,0.07,-0.099,0.029,-0.055,-0.016,-0.303,-0.233,-0.197,-0.219
-0.108,-0.027,0.081,0.067,-0.094,0.027,-0.055,-0.019,-0.28,-0.216,-0.196,-0.22
-0.102,-0.007,0.094,0.054,-0.098,0.043,-0.053,-0.025,-0.297,-0.226,-0.194,-0.212
-0.113,-0.041,0.073,0.077,-0.092,0.016,-0.035,0.04,-0.223,-0.166,-0.186,-0.219
-0.167,-0.046,0.121,0.106,-0.144,0.037,0.058,0.173,-0.207,-0.191,-0.222,-0.247
0.012,0.083,0.071,-0.047,-0.03,0.077,0.136,0.679,0.332,0.231,0.058,-0.106
0.281,0.883,0.602,-0.582,-0.16,0.742,-0.384,-0.416,0.551,1.032,0.945,0.663
0.229,1.482,1.252,-0.856,-0.512,1.367,-0.932,-1.717,0.378,1.509,1.508,1.179
-0.131,0.684,0.816,-0.277,-0.474,0.75,-0.801,-1.325,-0.019,0.662,0.569,0.415
-0.384,-0.046,0.338,0.215,-0.361,0.146,-0.613,-1.099,-1.006,-0.689,-0.486,-0.314
-0.275,-0.066,0.209,0.17,-0.242,0.071,-0.389,-0.512,-0.761,-0.56,-0.398,-0.299
-0.17,-0.006,0.164,0.088,-0.167,0.078,-0.123,0.024,-0.279,-0.262,-0.26,-0.235
-0.123,0.035,0.159,0.044,-0.142,0.097,-0.032,0.129,-0.251,-0.252,-0.242,-0.223
-0.09,0.025,0.115,0.032,-0.102,0.07,0.011,0.236,-0.122,-0.154,-0.182,-0.212
-0.094,0.033,0.127,0.03,-0.11,0.08,0.024,0.205,-0.161,-0.182,-0.181,-0.204
-0.08,0.028,0.107,0.026,-0.093,0.067,0.032,0.26,-0.095,-0.122,-0.15,-0.191
-0.076,0.032,0.108,0.022,-0.092,0.07,0.036,0.247,-0.09,-0.126,-0.151,-0.184
-0.046,0.052,0.098,-0.003,-0.072,0.075,0.034,0.278,-0.056,-0.095,-0.13,-0.171
-0.038,0.056,0.095,-0.009,-0.067,0.075,0.035,0.298,-0.026,-0.077,-0.119,-0.163
-0.049,0.066,0.115,-0.009,-0.082,0.091,0.045,0.315,-0.01,-0.056,-0.105,-0.152
-0.041,0.077,0.118,-0.018,-0.08,0.098,0.05,0.35,0.032,-0.026,-0.087,-0.142
-0.035,0.099,0.133,-0.032,-0.084,0.116,0.061,0.377,0.067,-0.007,-0.065,-0.13
-0.035,0.12,0.154,-0.043,-0.095,0.137,0.077,0.427,0.119,0.033,-0.039,-0.116
-0.002,0.149,0.151,-0.074,-0.077,0.15,0.077,0.483,0.17,0.066,-0.019,-0.099
0.034,0.172,0.138,-0.104,-0.052,0.155,0.078,0.562,0.236,0.114,0.014,-0.076
0.036,0.208,0.172,-0.123,-0.068,0.19,0.095,0.653,0.321,0.177,0.062,-0.05
0.062,0.263,0.201,-0.163,-0.07,0.232,0.112,0.756,0.411,0.248,0.116,-0.02
0.111,0.326,0.215,-0.219,-0.052,0.27,0.11,0.852,0.502,0.34,0.183,0.02
0.149,0.392,0.244,-0.271,-0.048,0.318,0.11,0.946,0.611,0.447,0.277,0.08
0.192,0.432,0.24,-0.312,-0.024,0.336,0.116,1.015,0.709,0.55,0.371,0.158
0.228,0.457,0.23,-0.343,-0.001,0.343,0.116,1.029,0.771,0.639,0.453,0.22
0.223,0.447,0.224,-0.335,-0.001,0.335,0.11,0.995,0.785,0.666,0.498,0.267
0.224,0.438,0.214,-0.331,0.005,0.326,0.105,0.877,0.723,0.636,0.475,0.268
0.183,0.389,0.206,-0.286,-0.012,0.297,0.099,0.691,0.564,0.527,0.402,0.214
0.094,0.265,0.171,-0.18,-0.039,0.218,0.093,0.502,0.366,0.341,0.273,0.134
0.037,0.149,0.112,-0.094,-0.038,0.131,0.089,0.342,0.187,0.171,0.133,0.037
-0.012,0.057,0.069,-0.023,-0.041,0.063,0.08,0.22,0.043,0.039,0.033,-0.032
-0.043,0.001,0.044,0.02,-0.043,0.023,0.07,0.149,-0.047,-0.042,-0.037,-0.084
-0.072,-0.04,0.033,0.056,-0.052,-0.003,0.06,0.109,-0.096,-0.09,-0.082,-0.115
-0.096,-0.069,0.028,0.082,-0.062,-0.02,0.051,0.088,-0.123,-0.118,-0.107,-0.128
-0.096,-0.074,0.022,0.085,-0.058,-0.026,0.045,0.09,-0.142,-0.122,-0.118,-0.147
-0.097,-0.078,0.019,0.087,-0.058,-0.029,0.04,0.09,-0.155,-0.127,-0.12,-0.15
-0.093,-0.08,0.013,0.086,-0.053,-0.033,0.034,0.09,-0.158,-0.133,-0.127,-0.15
-0.096,-0.085,0.011,0.09,-0.053,-0.037,0.029,0.09,-0.168,-0.135,-0.13,-0.15
-0.08,-0.083,-0.003,0.081,-0.038,-0.043,0.024,0.125,-0.174,-0.143,-0.13,-0.15
-0.064,-0.079,-0.016,0.072,-0.024,-0.047,0.02,0.169,-0.172,-0.146,-0.135,-0.15
-0.082,-0.081,0.001,0.081,-0.041,-0.04,0.02,0.189,-0.169,-0.144,-0.135,-0.145
-0.092,-0.076,0.016,0.084,-0.054,-0.03,0.02,0.217,-0.166,-0.145,-0.135,-0.142
-0.097,-0.075,0.022,0.086,-0.059,-0.026,0.02,0.23,-0.164,-0.145,-0.135,-0.138
-0.094,-0.075,0.02,0.085,-0.057,-0.027,0.02,0.237,-0.16,-0.145,-0.135,-0.135
-0.087,-0.07,0.016,0.078,-0.051,-0.027,0.017,0.249,-0.162,-0.145,-0.133,-0.13
-0.079,-0.065,0.014,0.072,-0.047,-0.025,0.014,0.254,-0.165,-0.145,-0.129,-0.132
-0.07,-0.06,0.01,0.065,-0.04,-0.025,0.011,0.257,-0.168,-0.145,-0.131,-0.135
-0.068,-0.057,0.01,0.062,-0.039,-0.023,0.008,0.252,-0.17,-0.145,-0.13,-0.135
-0.051,-0.049,0.002,0.05,-0.026,-0.023,0.005,0.249,-0.174,-0.145,-0.13,-0.135
-0.057,-0.06,-0.002,0.059,-0.028,-0.031,0.003,0.246,-0.175,-0.146,-0.13,-0.135
-0.079,-0.072,0.007,0.075,-0.043,-0.032,0.0,0.241,-0.179,-0.16,-0.125,-0.135
-0.088,-0.069,0.019,0.078,-0.053,-0.025,-0.003,0.238,-0.191,-0.166,-0.125,-0.132
-0.096,-0.07,0.026,0.083,-0.061,-0.022,-0.005,0.235,-0.195,-0.165,-0.125,-0.129
-0.095,-0.07,0.025,0.082,-0.06,-0.022,-0.009,0.233,-0.195,-0.165,-0.125,-0.126
-0.094,-0.07,0.024,0.082,-0.059,-0.023,-0.01,0.229,-0.195,-0.165,-0.124,-0.124
-0.088,-0.067,0.021,0.077,-0.054,-0.022,-0.014,0.227,-0.2,-0.165,-0.127,-0.119
-0.081,-0.062,0.019,0.072,-0.05,-0.021,-0.023,0.224,-0.209,-0.161,-0.13,-0.123
-0.08,-0.059,0.021,0.07,-0.051,-0.019,-0.029,0.222,-0.21,-0.16,-0.13,-0.13
-0.075,-0.056,0.019,0.065,-0.046,-0.018,-0.03,0.219,-0.21,-0.16,-0.134,-0.13
-0.072,-0.051,0.021,0.061,-0.047,-0.014,-0.03,0.216,-0.21,-0.155,-0.135,-0.13
-0.069,-0.051,0.018,0.06,-0.044,-0.017,-0.03,0.213,-0.21,-0.154,-0.135,-0.13
-0.083,-0.065,0.018,0.073,-0.05,-0.023,-0.03,0.21,-0.21,-0.157,-0.135,-0.13
-0.106,-0.071,0.035,0.088,-0.071,-0.017,-0.029,0.21,-0.206,-0.161,-0.135,-0.128
-0.105,-0.07,0.035,0.087,-0.07,-0.017,-0.025,0.218,-0.205,-0.159,-0.135,-0.124
-0.098,-0.07,0.029,0.084,-0.064,-0.02,-0.022,0.224,-0.205,-0.156,-0.135,-0.122
-0.094,-0.071,0.023,0.082,-0.058,-0.024,-0.02,0.222,-0.2,-0.153,-0.135,-0.119
-0.085,-0.068,0.017,0.076,-0.051,-0.025,-0.016,0.219,-0.2,-0.15,-0.133,-0.116
-0.09,-0.079,0.011,0.084,-0.05,-0.034,-0.015,0.216,-0.199,-0.149,-0.129,-0.114
-0.093,-0.089,0.004,0.091,-0.048,-0.042,-0.011,0.213,-0.192,-0.143,-0.127,-0.11
-0.09,-0.092,-0.002,0.091,-0.044,-0.047,-0.007,0.21,-0.188,-0.135,-0.124,-0.105
-0.072,-0.082,-0.01,0.077,-0.031,-0.046,-0.002,0.209,-0.182,-0.13,-0.12,-0.1
-0.06,-0.047,0.013,0.054,-0.036,-0.017,0.002,0.194,-0.176,-0.122,-0.12,-0.096
-0.081,-0.045,0.036,0.063,-0.058,-0.005,0.007,0.178,-0.173,-0.117,-0.121,-0.091
-0.073,-0.054,0.019,0.063,-0.046,-0.017,0.037,0.165,-0.161,-0.111,-0.12,-0.093
-0.043,-0.054,-0.011,0.049,-0.015,-0.033,0.052,0.161,-0.147,-0.107,-0.12,-0.096
-0.022,-0.059,-0.036,0.041,0.007,-0.047,0.038,0.15,-0.133,-0.112,-0.12,-0.094
-0.032,-0.062,-0.031,0.047,0.0,-0.046,-0.005,0.094,-0.157,-0.118,-0.119,-0.096
-0.046,-0.063,-0.017,0.055,-0.014,-0.04,-0.033,0.065,-0.194,-0.124,-0.121,-0.094
-0.025,-0.075,-0.051,0.05,0.013,-0.063,-0.019,0.064,-0.187,-0.127,-0.125,-0.096
-0.018,-0.089,-0.071,0.054,0.026,-0.08,-0.011,0.045,-0.192,-0.134,-0.125,-0.098
-0.037,-0.094,-0.057,0.066,0.01,-0.075,0.001,0.053,-0.188,-0.132,-0.127,-0.103
-0.051,-0.099,-0.048,0.075,-0.002,-0.073,0.005,0.045,-0.191,-0.131,-0.131,-0.114
-0.056,-0.1,-0.044,0.079,-0.006,-0.072,0.007,0.053,-0.189,-0.127,-0.129,-0.111
-0.056,-0.103,-0.047,0.08,-0.005,-0.075,0.011,0.048,-0.18,-0.124,-0.127,-0.105
-0.063,-0.105,-0.042,0.084,-0.01,-0.073,0.012,0.048,-0.182,-0.124,-0.122,-0.099
-0.053,-0.103,-0.05,0.078,-0.001,-0.076,0.017,0.056,-0.159,-0.115,-0.119,-0.094
-0.052,-0.09,-0.039,0.072,-0.006,-0.064,0.015,0.03,-0.177,-0.124,-0.117,-0.089
-0.069,-0.099,-0.03,0.085,-0.02,-0.064,0.024,0.067,-0.137,-0.098,-0.108,-0.092
-0.094,-0.075,0.018,0.085,-0.056,-0.028,0.021,0.016,-0.173,-0.116,-0.113,-0.088
-0.071,-0.106,-0.035,0.089,-0.018,-0.07,0.028,0.088,-0.114,-0.08,-0.096,-0.09
-0.064,-0.106,-0.042,0.086,-0.011,-0.074,0.074,0.097,-0.107,-0.105,-0.121,-0.105
-0.034,-0.077,-0.044,0.056,0.005,-0.06,0.229,0.575,0.168,0.061,-0.053,-0.099
0.238,0.362,0.124,-0.3,0.057,0.243,0.01,0.394,0.705,0.769,0.589,0.386
0.394,1.308,0.914,-0.851,-0.261,1.111,-0.697,-1.298,0.654,1.529,1.525,1.26
0.123,1.073,0.95,-0.598,-0.414,1.011,-0.855,-1.562,0.454,1.342,1.255,1.036
-0.282,0.062,0.344,0.11,-0.313,0.203,-0.612,-1.144,-0.449,-0.098,-0.043,0.052
-0.323,-0.178,0.145,0.25,-0.234,-0.016,-0.428,-0.804,-0.847,-0.62,-0.408,-0.212
-0.157,-0.104,0.052,0.13,-0.104,-0.026,-0.137,-0.069,-0.247,-0.194,-0.173,-0.116
-0.097,-0.069,0.028,0.083,-0.062,-0.02,0.03,0.143,-0.13,-0.146,-0.147,-0.091
-0.033,-0.072,-0.04,0.053,0.004,-0.056,0.079,0.265,-0.028,-0.062,-0.095,-0.075
-0.038,-0.079,-0.041,0.059,0.002,-0.06,0.104,0.28,-0.007,-0.059,-0.087,-0.076
-0.039,-0.062,-0.024,0.051,-0.007,-0.042,0.106,0.283,0.004,-0.043,-0.064,-0.063
-0.028,-0.061,-0.033,0.045,0.003,-0.047,0.111,0.311,0.046,-0.019,-0.06,-0.061
-0.048,-0.046,0.002,0.047,-0.025,-0.022,0.114,0.299,0.046,-0.009,-0.056,-0.051
-0.053,-0.042,0.011,0.047,-0.032,-0.015,0.118,0.334,0.086,0.023,-0.047,-0.046
-0.037,-0.029,0.008,0.033,-0.023,-0.01,0.123,0.346,0.101,0.028,-0.045,-0.037
-0.012,-0.021,-0.009,0.017,-0.001,-0.014,0.138,0.381,0.15,0.062,-0.019,-0.031
0.009,-0.008,-0.016,0.0,0.013,-0.012,0.146,0.407,0.178,0.078,0.006,-0.024
0.022,0.007,-0.015,-0.015,0.019,-0.004,0.152,0.451,0.221,0.113,0.033,-0.008
0.029,0.02,-0.008,-0.024,0.018,0.006,0.159,0.509,0.262,0.142,0.051,0.012
0.052,0.049,-0.003,-0.051,0.027,0.023,0.166,0.579,0.323,0.193,0.082,0.033
0.065,0.069,0.003,-0.067,0.031,0.036,0.183,0.662,0.395,0.249,0.121,0.051
0.092,0.103,0.011,-0.098,0.041,0.057,0.198,0.768,0.487,0.318,0.18,0.088
0.134,0.151,0.017,-0.143,0.058,0.084,0.208,0.876,0.589,0.406,0.245,0.126
0.171,0.196,0.025,-0.184,0.073,0.11,0.221,0.974,0.689,0.499,0.326,0.186
0.21,0.268,0.057,-0.239,0.076,0.162,0.221,1.056,0.788,0.605,0.418,0.256
0.25,0.334,0.084,-0.292,0.083,0.209,0.21,1.083,0.848,0.681,0.49,0.301
0.274,0.366,0.093,-0.32,0.09,0.229,0.203,1.064,0.868,0.722,0.54,0.354
0.27,0.383,0.113,-0.327,0.079,0.248,0.196,0.978,0.839,0.728,0.554,0.362
0.247,0.354,0.107,-0.3,0.07,0.23,0.187,0.807,0.731,0.661,0.516,0.343
0.171,0.263,0.091,-0.217,0.04,0.177,0.178,0.601,0.546,0.502,0.399,0.28
0.09,0.161,0.071,-0.126,0.009,0.116,0.17,0.416,0.351,0.314,0.251,0.168
0.041,0.071,0.03,-0.056,0.006,0.05,0.16,0.263,0.197,0.169,0.134,0.089
-0.018,-0.009,0.01,0.013,-0.014,0.001,0.151,0.159,0.087,0.067,0.055,0.019
-0.056,-0.058,-0.003,0.057,-0.026,-0.03,0.133,0.106,0.026,0.007,0.006,-0.026
-0.046,-0.075,-0.029,0.061,-0.008,-0.052,0.118,0.073,-0.022,-0.033,-0.029,-0.049
-0.048,-0.084,-0.036,0.067,-0.006,-0.06,0.114,0.06,-0.048,-0.059,-0.05,-0.065
-0.051,-0.085,-0.034,0.069,-0.008,-0.06,0.108,0.055,-0.059,-0.069,-0.061,-0.064
-0.05,-0.085,-0.035,0.068,-0.007,-0.06,0.103,0.046,-0.067,-0.08,-0.066,-0.066
-0.057,-0.091,-0.035,0.074,-0.011,-0.062,0.097,0.04,-0.064,-0.089,-0.065,-0.064
-0.053,-0.088,-0.036,0.071,-0.009,-0.062,0.092,0.031,-0.066,-0.09,-0.065,-0.065
-0.066,-0.095,-0.028,0.08,-0.019,-0.061,0.09,0.034,-0.064,-0.09,-0.065,-0.065
-0.063,-0.105,-0.042,0.084,-0.01,-0.073,0.087,0.044,-0.071,-0.095,-0.065,-0.066
-0.048,-0.105,-0.057,0.077,0.005,-0.081,0.084,0.044,-0.077,-0.095,-0.069,-0.07
-0.051,-0.105,-0.054,0.078,0.002,-0.08,0.081,0.047,-0.074,-0.096,-0.077,-0.072
-0.05,-0.105,-0.055,0.078,0.003,-0.08,0.08,0.05,-0.076,-0.1,-0.079,-0.076
-0.05,-0.105,-0.055,0.078,0.003,-0.08,0.08,0.05,-0.075,-0.1,-0.075,-0.071
-0.049,-0.104,-0.055,0.077,0.003,-0.08,0.08,0.06,-0.075,-0.1,-0.075,-0.07
-0.049,-0.101,-0.052,0.075,0.001,-0.076,0.08,0.061,-0.078,-0.1,-0.075,-0.071
-0.049,-0.098,-0.049,0.074,0.0,-0.074,0.08,0.054,-0.081,-0.1,-0.075,-0.07
-0.05,-0.095,-0.046,0.073,-0.001,-0.071,0.08,0.05,-0.086,-0.1,-0.075,-0.071
-0.049,-0.093,-0.044,0.071,-0.002,-0.068,0.077,0.044,-0.093,-0.1,-0.075,-0.068
-0.05,-0.089,-0.039,0.07,-0.006,-0.064,0.074,0.039,-0.103,-0.1,-0.075,-0.065
-0.051,-0.093,-0.042,0.072,-0.004,-0.068,0.075,0.034,-0.11,-0.1,-0.075,-0.065
-0.055,-0.107,-0.052,0.082,-0.001,-0.079,0.071,0.029,-0.112,-0.1,-0.075,-0.065
-0.061,-0.119,-0.059,0.09,-0.001,-0.089,0.07,0.024,-0.117,-0.101,-0.074,-0.065
-0.046,-0.121,-0.075,0.084,0.014,-0.097,0.07,0.019,-0.12,-0.105,-0.076,-0.065
-0.046,-0.119,-0.073,0.083,0.014,-0.096,0.064,0.015,-0.119,-0.109,-0.08,-0.069
-0.052,-0.121,-0.068,0.086,0.008,-0.094,0.059,0.01,-0.126,-0.11,-0.08,-0.07
-0.052,-0.119,-0.067,0.086,0.007,-0.093,0.054,0.006,-0.132,-0.11,-0.08,-0.07
-0.062,-0.122,-0.06,0.092,-0.001,-0.09,0.048,0.005,-0.127,-0.114,-0.08,-0.07
-0.063,-0.125,-0.062,0.094,0.0,-0.093,0.042,0.005,-0.125,-0.116,-0.08,-0.07
-0.059,-0.125,-0.066,0.092,0.004,-0.095,0.037,0.005,-0.122,-0.113,-0.08,-0.07
-0.044,-0.125,-0.081,0.085,0.019,-0.103,0.035,0.005,-0.119,-0.11,-0.08,-0.071
-0.039,-0.125,-0.086,0.082,0.024,-0.105,0.032,0.005,-0.124,-0.11,-0.08,-0.075
-0.045,-0.126,-0.081,0.085,0.019,-0.103,0.029,0.005,-0.125,-0.11,-0.08,-0.075
-0.044,-0.124,-0.08,0.084,0.018,-0.101,0.026,0.005,-0.126,-0.11,-0.079,-0.077
-0.054,-0.128,-0.074,0.092,0.011,-0.101,0.024,0.005,-0.129,-0.11,-0.082,-0.08
-0.059,-0.136,-0.077,0.098,0.009,-0.106,0.021,0.005,-0.131,-0.11,-0.085,-0.08
-0.075,-0.135,-0.06,0.105,-0.007,-0.097,0.016,0.005,-0.128,-0.11,-0.085,-0.076
-0.071,-0.134,-0.063,0.103,-0.004,-0.098,0.014,0.001,-0.125,-0.11,-0.089,-0.075
-0.053,-0.131,-0.078,0.093,0.012,-0.104,0.009,0.0,-0.125,-0.11,-0.09,-0.075
-0.055,-0.129,-0.074,0.093,0.009,-0.101,0.006,0.0,-0.122,-0.11,-0.09,-0.075
-0.061,-0.132,-0.071,0.096,0.005,-0.101,0.002,-0.005,-0.12,-0.11,-0.09,-0.075
-0.066,-0.135,-0.069,0.1,0.002,-0.101,0.0,-0.005,-0.119,-0.11,-0.09,-0.076
-0.039,-0.136,-0.096,0.088,0.029,-0.116,0.0,-0.006,-0.125,-0.11,-0.09,-0.08
-0.035,-0.139,-0.104,0.087,0.035,-0.122,0.0,-0.011,-0.133,-0.11,-0.09,-0.08
-0.049,-0.141,-0.092,0.095,0.022,-0.116,0.0,-0.014,-0.13,-0.11,-0.089,-0.08
-0.046,-0.135,-0.089,0.091,0.022,-0.112,-0.001,-0.017,-0.13,-0.11,-0.085,-0.08
-0.051,-0.13,-0.08,0.091,0.015,-0.105,-0.005,-0.021,-0.127,-0.106,-0.085,-0.08
-0.048,-0.124,-0.076,0.087,0.014,-0.1,-0.014,-0.026,-0.124,-0.101,-0.082,-0.08
-0.044,-0.119,-0.075,0.082,0.016,-0.096,-0.012,-0.02,-0.125,-0.096,-0.079,-0.08
-0.035,-0.11,-0.075,0.073,0.02,-0.092,-0.005,-0.011,-0.12,-0.093,-0.08,-0.08
-0.024,-0.098,-0.073,0.061,0.025,-0.085,0.005,0.001,-0.112,-0.087,-0.076,-0.08
-0.016,-0.083,-0.067,0.05,0.025,-0.075,0.021,0.015,-0.106,-0.087,-0.075,-0.081
-0.007,-0.072,-0.065,0.04,0.029,-0.068,0.039,0.036,-0.1,-0.091,-0.076,-0.079
-0.018,-0.076,-0.058,0.047,0.02,-0.066,0.03,0.038,-0.085,-0.093,-0.075,-0.075
-0.021,-0.078,-0.057,0.05,0.018,-0.067,-0.027,0.006,-0.097,-0.096,-0.075,-0.075
0.002,-0.087,-0.09,0.043,0.046,-0.088,-0.054,-0.02,-0.128,-0.1,-0.076,-0.072
0.024,-0.089,-0.113,0.033,0.068,-0.101,-0.048,-0.032,-0.132,-0.104,-0.08,-0.07
0.014,-0.092,-0.105,0.039,0.06,-0.098,-0.05,-0.037,-0.136,-0.105,-0.082,-0.069
-0.024,-0.115,-0.091,0.07,0.034,-0.103,-0.044,-0.035,-0.143,-0.107,-0.085,-0.077
-0.033,-0.118,-0.085,0.076,0.027,-0.101,-0.045,-0.049,-0.147,-0.11,-0.097,-0.082
-0.042,-0.111,-0.068,0.077,0.014,-0.089,-0.043,-0.064,-0.151,-0.112,-0.1,-0.079
-0.044,-0.113,-0.069,0.079,0.012,-0.09,-0.037,-0.059,-0.133,-0.106,-0.091,-0.081
-0.054,-0.105,-0.051,0.08,-0.001,-0.078,-0.037,-0.079,-0.143,-0.11,-0.09,-0.079
-0.068,-0.107,-0.039,0.088,-0.014,-0.073,-0.03,-0.054,-0.12,-0.1,-0.082,-0.081
-0.044,-0.107,-0.063,0.075,0.01,-0.085,-0.029,-0.073,-0.131,-0.109,-0.081,-0.077
-0.035,-0.119,-0.084,0.077,0.025,-0.102,-0.024,-0.042,-0.115,-0.094,-0.084,-0.074
-0.047,-0.115,-0.068,0.081,0.011,-0.091,-0.025,-0.058,-0.112,-0.091,-0.087,-0.076
-0.048,-0.111,-0.064,0.08,0.009,-0.087,-0.032,-0.04,-0.123,-0.09,-0.093,-0.071
-0.055,-0.124,-0.069,0.09,0.007,-0.096,-0.018,-0.001,-0.06,-0.064,-0.09,-0.084
-0.061,-0.099,-0.039,0.08,-0.011,-0.069,0.113,0.211,0.002,-0.067,-0.095,-0.12
0.151,0.087,-0.064,-0.119,0.107,0.011,0.122,0.596,0.541,0.425,0.258,0.098
0.402,0.943,0.541,-0.673,-0.07,0.742,-0.478,-0.689,0.75,1.272,1.223,0.954
0.293,1.317,1.024,-0.805,-0.365,1.17,-0.917,-1.801,0.624,1.62,1.601,1.308
-0.125,0.391,0.516,-0.133,-0.321,0.453,-0.751,-1.429,0.039,0.546,0.496,0.424
-0.322,-0.176,0.146,0.249,-0.234,-0.015,-0.576,-1.138,-0.836,-0.585,-0.368,-0.186
-0.174,-0.152,0.022,0.163,-0.097,-0.065,-0.319,-0.444,-0.45,-0.321,-0.215,-0.132
-0.082,-0.135,-0.053,0.109,-0.015,-0.093,-0.078,0.004,-0.097,-0.117,-0.112,-0.092
-0.03,-0.101,-0.071,0.066,0.02,-0.086,-0.005,0.092,-0.079,-0.107,-0.087,-0.079
-0.011,-0.1,-0.089,0.055,0.039,-0.094,0.03,0.15,0.022,-0.044,-0.062,-0.071
-0.009,-0.082,-0.073,0.045,0.032,-0.077,0.04,0.116,-0.004,-0.06,-0.063,-0.063
0.007,-0.078,-0.085,0.035,0.047,-0.081,0.051,0.158,0.052,-0.01,-0.043,-0.057
0.006,-0.071,-0.077,0.033,0.041,-0.074,0.054,0.137,0.05,-0.011,-0.04,-0.052
0.014,-0.067,-0.081,0.027,0.047,-0.074,0.06,0.164,0.091,0.022,-0.019,-0.045
0.006,-0.064,-0.07,0.029,0.038,-0.066,0.06,0.167,0.095,0.03,-0.01,-0.04
0.021,-0.039,-0.06,0.009,0.041,-0.049,0.061,0.183,0.118,0.052,0.006,-0.031
0.029,-0.018,-0.048,-0.005,0.039,-0.033,0.065,0.207,0.146,0.069,0.018,-0.027
0.035,0.004,-0.03,-0.019,0.032,-0.013,0.064,0.238,0.171,0.09,0.038,-0.018
0.067,0.038,-0.029,-0.053,0.048,0.004,0.067,0.289,0.221,0.123,0.057,-0.005
0.105,0.055,-0.05,-0.08,0.077,0.003,0.074,0.35,0.274,0.164,0.091,0.025
0.12,0.057,-0.063,-0.089,0.092,-0.003,0.089,0.434,0.351,0.222,0.132,0.056
0.124,0.066,-0.058,-0.095,0.091,0.004,0.1,0.523,0.428,0.279,0.175,0.078
0.148,0.076,-0.073,-0.112,0.11,0.001,0.121,0.638,0.53,0.363,0.245,0.126
0.191,0.11,-0.081,-0.15,0.135,0.015,0.139,0.744,0.637,0.458,0.323,0.183
0.233,0.189,-0.044,-0.21,0.138,0.072,0.128,0.83,0.723,0.553,0.397,0.235
0.259,0.268,0.009,-0.264,0.125,0.138,0.117,0.876,0.805,0.636,0.474,0.288
0.301,0.332,0.031,-0.316,0.134,0.181,0.105,0.873,0.841,0.695,0.533,0.339
0.317,0.365,0.048,-0.342,0.134,0.207,0.096,0.829,0.83,0.716,0.551,0.364
0.289,0.345,0.057,-0.317,0.115,0.201,0.089,0.706,0.781,0.69,0.548,0.36
0.247,0.287,0.04,-0.267,0.103,0.163,0.082,0.512,0.633,0.57,0.468,0.317
0.174,0.186,0.013,-0.18,0.08,0.1,0.076,0.312,0.443,0.395,0.323,0.22
0.095,0.074,-0.021,-0.084,0.058,0.026,0.069,0.142,0.276,0.236,0.196,0.129
0.055,-0.007,-0.062,-0.024,0.058,-0.034,0.058,0.012,0.142,0.107,0.094,0.059
0.023,-0.058,-0.08,0.017,0.052,-0.069,0.045,-0.069,0.064,0.031,0.022,0.01
-0.002,-0.083,-0.081,0.043,0.039,-0.082,0.036,-0.115,0.009,-0.02,-0.027,-0.024
-0.002,-0.087,-0.085,0.045,0.041,-0.085,0.032,-0.14,-0.034,-0.057,-0.053,-0.047
-0.011,-0.095,-0.084,0.053,0.037,-0.089,0.029,-0.146,-0.047,-0.066,-0.067,-0.05
-0.015,-0.121,-0.106,0.069,0.046,-0.113,0.025,-0.145,-0.044,-0.061,-0.065,-0.05
-0.041,-0.146,-0.105,0.094,0.032,-0.125,0.022,-0.145,-0.045,-0.06,-0.06,-0.05
-0.032,-0.149,-0.117,0.091,0.042,-0.133,0.018,-0.145,-0.045,-0.06,-0.058,-0.05
-0.008,-0.145,-0.137,0.076,0.065,-0.141,0.015,-0.145,-0.045,-0.06,-0.053,-0.05
-0.003,-0.142,-0.139,0.073,0.068,-0.14,0.015,-0.141,-0.046,-0.06,-0.05,-0.053
0.015,-0.137,-0.152,0.062,0.084,-0.144,0.013,-0.14,-0.053,-0.061,-0.053,-0.059
-0.01,-0.134,-0.124,0.072,0.058,-0.129,0.009,-0.14,-0.059,-0.066,-0.062,-0.062
-0.02,-0.131,-0.11,0.076,0.045,-0.12,0.01,-0.136,-0.057,-0.07,-0.065,-0.067
-0.022,-0.13,-0.108,0.076,0.043,-0.119,0.007,-0.135,-0.055,-0.074,-0.066,-0.07
-0.03,-0.127,-0.097,0.079,0.034,-0.111,0.002,-0.137,-0.055,-0.075,-0.07,-0.07
-0.03,-0.125,-0.095,0.078,0.033,-0.109,-0.001,-0.14,-0.055,-0.078,-0.07,-0.07
-0.04,-0.123,-0.084,0.082,0.022,-0.103,-0.005,-0.14,-0.055,-0.08,-0.07,-0.07
-0.025,-0.117,-0.092,0.072,0.034,-0.104,-0.008,-0.142,-0.056,-0.082,-0.07,-0.07
-0.004,-0.112,-0.109,0.058,0.053,-0.111,-0.012,-0.146,-0.061,-0.085,-0.07,-0.074
0.002,-0.109,-0.111,0.053,0.056,-0.11,-0.015,-0.145,-0.066,-0.088,-0.07,-0.075
0.006,-0.103,-0.109,0.049,0.058,-0.106,-0.015,-0.149,-0.069,-0.089,-0.07,-0.075
0.005,-0.101,-0.105,0.048,0.055,-0.103,-0.015,-0.163,-0.074,-0.094,-0.071,-0.075
0.001,-0.104,-0.105,0.052,0.053,-0.104,-0.015,-0.171,-0.081,-0.101,-0.075,-0.075
-0.003,-0.108,-0.105,0.055,0.052,-0.106,-0.015,-0.173,-0.086,-0.1,-0.077,-0.074
-0.005,-0.12,-0.115,0.062,0.055,-0.117,-0.019,-0.178,-0.084,-0.1,-0.08,-0.069
-0.002,-0.128,-0.126,0.066,0.063,-0.127,-0.02,-0.181,-0.088,-0.1,-0.083,-0.066
0.003,-0.118,-0.121,0.057,0.062,-0.12,-0.02,-0.185,-0.09,-0.099,-0.085,-0.062
-0.011,-0.129,-0.118,0.07,0.054,-0.124,-0.02,-0.184,-0.09,-0.102,-0.088,-0.059
-0.037,-0.152,-0.115,0.095,0.039,-0.133,-0.02,-0.187,-0.093,-0.106,-0.091,-0.054
-0.028,-0.138,-0.11,0.083,0.041,-0.124,-0.021,-0.191,-0.097,-0.11,-0.09,-0.06
-0.016,-0.126,-0.11,0.071,0.048,-0.117,-0.027,-0.189,-0.1,-0.115,-0.09,-0.068
-0.016,-0.125,-0.11,0.07,0.048,-0.117,-0.034,-0.194,-0.103,-0.115,-0.09,-0.065
-0.014,-0.125,-0.11,0.069,0.048,-0.117,-0.032,-0.195,-0.107,-0.118,-0.091,-0.065
-0.016,-0.125,-0.11,0.07,0.048,-0.117,-0.029,-0.195,-0.11,-0.125,-0.095,-0.065
-0.015,-0.125,-0.11,0.07,0.048,-0.117,-0.03,-0.199,-0.11,-0.125,-0.094,-0.065
-0.016,-0.125,-0.11,0.07,0.048,-0.117,-0.03,-0.201,-0.11,-0.125,-0.097,-0.065
-0.02,-0.125,-0.105,0.073,0.043,-0.115,-0.03,-0.198,-0.11,-0.125,-0.1,-0.07
-0.02,-0.125,-0.105,0.073,0.043,-0.115,-0.03,-0.195,-0.11,-0.124,-0.1,-0.079
-0.021,-0.125,-0.104,0.073,0.042,-0.114,-0.03,-0.195,-0.107,-0.127,-0.104,-0.08
-0.025,-0.125,-0.099,0.075,0.037,-0.112,-0.03,-0.195,-0.104,-0.13,-0.105,-0.08
-0.025,-0.125,-0.1,0.075,0.038,-0.112,-0.03,-0.195,-0.101,-0.13,-0.105,-0.08
-0.026,-0.124,-0.098,0.075,0.036,-0.11,-0.03,-0.194,-0.098,-0.13,-0.105,-0.08
-0.024,-0.116,-0.092,0.07,0.035,-0.104,-0.03,-0.203,-0.095,-0.13,-0.105,-0.08
-0.02,-0.108,-0.088,0.064,0.034,-0.098,-0.033,-0.207,-0.095,-0.13,-0.104,-0.08
-0.017,-0.1,-0.083,0.059,0.033,-0.091,-0.038,-0.204,-0.095,-0.135,-0.1,-0.08
-0.012,-0.091,-0.079,0.052,0.034,-0.085,-0.04,-0.205,-0.095,-0.135,-0.1,-0.08
-0.022,-0.095,-0.073,0.059,0.026,-0.084,-0.04,-0.2,-0.095,-0.138,-0.098,-0.08
-0.019,-0.103,-0.084,0.062,0.033,-0.093,-0.04,-0.199,-0.095,-0.141,-0.094,-0.08
-0.022,-0.113,-0.091,0.068,0.035,-0.102,-0.04,-0.201,-0.095,-0.137,-0.095,-0.081
-0.032,-0.121,-0.089,0.077,0.028,-0.105,-0.04,-0.205,-0.098,-0.135,-0.095,-0.085
-0.012,-0.114,-0.102,0.063,0.046,-0.108,-0.04,-0.209,-0.106,-0.131,-0.095,-0.085
-0.007,-0.114,-0.106,0.061,0.05,-0.11,-0.043,-0.214,-0.11,-0.13,-0.095,-0.085
-0.007,-0.108,-0.101,0.057,0.047,-0.104,-0.046,-0.215,-0.11,-0.133,-0.095,-0.085
-0.005,-0.105,-0.1,0.055,0.048,-0.102,-0.049,-0.215,-0.11,-0.137,-0.095,-0.085
-0.02,-0.116,-0.095,0.069,0.038,-0.105,-0.052,-0.22,-0.109,-0.14,-0.096,-0.085
-0.011,-0.105,-0.094,0.058,0.042,-0.099,-0.055,-0.22,-0.121,-0.144,-0.105,-0.085
-0.003,-0.094,-0.091,0.048,0.045,-0.092,-0.055,-0.22,-0.131,-0.144,-0.107,-0.085
-0.009,-0.095,-0.086,0.052,0.039,-0.09,-0.055,-0.22,-0.129,-0.139,-0.103,-0.085
-0.006,-0.092,-0.086,0.05,0.04,-0.089,-0.055,-0.22,-0.13,-0.14,-0.101,-0.085
-0.01,-0.087,-0.077,0.048,0.033,-0.082,-0.055,-0.22,-0.13,-0.138,-0.098,-0.084
-0.011,-0.102,-0.09,0.056,0.04,-0.096,-0.055,-0.22,-0.13,-0.134,-0.095,-0.08
-0.001,-0.109,-0.108,0.055,0.054,-0.108,-0.055,-0.22,-0.131,-0.136,-0.094,-0.078
0.006,-0.092,-0.098,0.043,0.052,-0.095,-0.05,-0.215,-0.125,-0.13,-0.089,-0.075
0.006,-0.087,-0.093,0.041,0.05,-0.09,-0.04,-0.205,-0.117,-0.122,-0.083,-0.072
0.013,-0.083,-0.095,0.035,0.054,-0.089,-0.03,-0.196,-0.11,-0.114,-0.08,-0.07
0.01,-0.079,-0.089,0.034,0.049,-0.083,-0.02,-0.183,-0.1,-0.106,-0.076,-0.067
0.018,-0.074,-0.091,0.028,0.055,-0.082,-0.015,-0.154,-0.096,-0.101,-0.07,-0.065
0.052,-0.071,-0.123,0.01,0.087,-0.096,-0.005,-0.133,-0.075,-0.1,-0.071,-0.065
0.056,-0.062,-0.118,0.003,0.087,-0.09,-0.023,-0.164,-0.077,-0.1,-0.069,-0.065
0.05,-0.072,-0.121,0.011,0.086,-0.097,-0.063,-0.197,-0.119,-0.099,-0.073,-0.065
0.051,-0.092,-0.143,0.021,0.097,-0.118,-0.063,-0.203,-0.131,-0.107,-0.089,-0.066
0.046,-0.09,-0.136,0.022,0.091,-0.112,-0.057,-0.21,-0.134,-0.12,-0.096,-0.072
0.037,-0.089,-0.126,0.027,0.081,-0.107,-0.053,-0.22,-0.143,-0.13,-0.102,-0.083
0.021,-0.091,-0.113,0.035,0.067,-0.102,-0.045,-0.224,-0.133,-0.128,-0.105,-0.088
0.011,-0.088,-0.099,0.039,0.055,-0.093,-0.043,-0.232,-0.135,-0.133,-0.105,-0.083
0.017,-0.09,-0.107,0.037,0.062,-0.098,-0.035,-0.212,-0.122,-0.132,-0.105,-0.082
0.001,-0.08,-0.081,0.04,0.041,-0.08,-0.036,-0.222,-0.126,-0.137,-0.102,-0.078
-0.017,-0.079,-0.062,0.048,0.023,-0.07,-0.033,-0.202,-0.116,-0.133,-0.097,-0.075
0.004,-0.074,-0.078,0.035,0.041,-0.075,-0.031,-0.21,-0.113,-0.123,-0.094,-0.075
0.025,-0.066,-0.091,0.021,0.058,-0.078,-0.029,-0.226,-0.13,-0.122,-0.092,-0.074
0.052,-0.07,-0.122,0.01,0.087,-0.096,-0.029,-0.195,-0.095,-0.098,-0.084,-0.076
0.039,-0.062,-0.101,0.012,0.07,-0.081,-0.018,-0.231,-0.131,-0.116,-0.089,-0.073
0.048,-0.091,-0.139,0.022,0.093,-0.115,-0.006,-0.156,-0.064,-0.07,-0.078,-0.076
0.026,-0.076,-0.101,0.025,0.064,-0.088,0.047,-0.114,-0.075,-0.11,-0.114,-0.105
0.11,-0.038,-0.147,-0.036,0.129,-0.093,0.166,0.403,0.311,0.175,0.041,-0.053
0.395,0.639,0.244,-0.517,0.075,0.441,-0.219,-0.142,0.759,1.004,0.869,0.631
0.422,1.447,1.026,-0.935,-0.302,1.236,-0.804,-1.652,0.707,1.683,1.659,1.349
0.063,0.863,0.801,-0.463,-0.369,0.832,-0.771,-1.587,0.423,1.131,0.975,0.763
-0.263,0.038,0.301,0.112,-0.282,0.169,-0.584,-1.337,-0.584,-0.317,-0.22,-0.105
-0.2,-0.092,0.108,0.146,-0.153,0.008,-0.428,-0.909,-0.72,-0.506,-0.33,-0.197
-0.057,-0.063,-0.005,0.06,-0.026,-0.034,-0.178,-0.261,-0.188,-0.155,-0.15,-0.116
0.008,-0.01,-0.018,0.001,0.013,-0.013,-0.038,-0.118,-0.15,-0.149,-0.139,-0.093
0.057,-0.006,-0.063,-0.025,0.06,-0.034,0.0,0.017,-0.03,-0.054,-0.093,-0.075
0.038,0.001,-0.037,-0.019,0.038,-0.018,0.009,-0.009,-0.031,-0.08,-0.097,-0.071
0.048,0.006,-0.042,-0.027,0.045,-0.018,0.017,0.02,-0.007,-0.044,-0.073,-0.064
0.044,0.006,-0.038,-0.025,0.041,-0.015,0.027,0.027,0.003,-0.038,-0.073,-0.06
0.05,0.031,-0.019,-0.04,0.034,0.006,0.038,0.044,0.011,-0.025,-0.064,-0.053
0.09,0.05,-0.04,-0.07,0.065,0.005,0.043,0.071,0.05,0.001,-0.049,-0.049
0.099,0.043,-0.056,-0.07,0.077,-0.007,0.047,0.071,0.067,0.023,-0.027,-0.037
0.089,0.035,-0.055,-0.062,0.072,-0.01,0.048,0.107,0.111,0.055,-0.008,-0.026
0.113,0.043,-0.07,-0.077,0.092,-0.014,0.065,0.136,0.146,0.086,0.013,-0.013
0.118,0.042,-0.076,-0.08,0.096,-0.017,0.083,0.178,0.188,0.129,0.038,0.008
0.129,0.06,-0.068,-0.095,0.098,-0.004,0.079,0.218,0.228,0.15,0.055,0.023
0.156,0.096,-0.06,-0.126,0.108,0.018,0.083,0.291,0.29,0.2,0.093,0.041
0.164,0.13,-0.034,-0.147,0.099,0.048,0.086,0.363,0.353,0.252,0.134,0.063
0.191,0.178,-0.013,-0.185,0.102,0.083,0.084,0.45,0.432,0.318,0.186,0.096
0.226,0.23,0.004,-0.228,0.111,0.117,0.09,0.547,0.525,0.401,0.255,0.144
0.283,0.292,0.009,-0.288,0.137,0.15,0.094,0.637,0.621,0.501,0.342,0.198
0.313,0.352,0.039,-0.333,0.137,0.195,0.09,0.713,0.714,0.598,0.426,0.265
0.342,0.407,0.065,-0.375,0.138,0.236,0.086,0.74,0.78,0.681,0.497,0.326
0.37,0.439,0.069,-0.405,0.15,0.254,0.083,0.731,0.798,0.73,0.553,0.361
0.336,0.428,0.092,-0.382,0.122,0.259,0.078,0.655,0.762,0.709,0.545,0.353
0.308,0.407,0.098,-0.358,0.105,0.252,0.075,0.511,0.665,0.649,0.496,0.326
0.252,0.319,0.066,-0.286,0.093,0.192,0.071,0.332,0.498,0.503,0.387,0.264
0.181,0.192,0.011,-0.186,0.085,0.101,0.065,0.155,0.309,0.32,0.242,0.161
0.122,0.112,-0.01,-0.117,0.066,0.051,0.06,0.011,0.159,0.174,0.126,0.08
0.083,0.054,-0.029,-0.068,0.056,0.012,0.054,-0.097,0.046,0.062,0.036,0.008
0.069,0.012,-0.057,-0.04,0.063,-0.022,0.049,-0.155,-0.025,0.004,-0.017,-0.03
0.04,-0.012,-0.052,-0.014,0.046,-0.032,0.044,-0.191,-0.058,-0.031,-0.053,-0.046
0.022,-0.027,-0.05,0.002,0.036,-0.038,0.04,-0.217,-0.087,-0.053,-0.068,-0.064
0.01,-0.039,-0.049,0.015,0.03,-0.044,0.038,-0.225,-0.103,-0.067,-0.073,-0.068
-0.001,-0.046,-0.045,0.024,0.022,-0.046,0.035,-0.225,-0.109,-0.078,-0.087,-0.081
-0.006,-0.049,-0.044,0.028,0.019,-0.046,0.031,-0.225,-0.115,-0.08,-0.09,-0.086
0.019,-0.047,-0.066,0.014,0.042,-0.056,0.03,-0.225,-0.11,-0.08,-0.09,-0.088
0.021,-0.044,-0.066,0.012,0.044,-0.055,0.026,-0.225,-0.11,-0.08,-0.093,-0.091
-0.001,-0.045,-0.044,0.024,0.022,-0.044,0.02,-0.225,-0.11,-0.08,-0.096,-0.094
0.006,-0.04,-0.046,0.018,0.026,-0.043,0.015,-0.225,-0.109,-0.08,-0.094,-0.095
0.004,-0.04,-0.044,0.019,0.024,-0.042,0.009,-0.225,-0.112,-0.08,-0.09,-0.09
0.007,-0.039,-0.046,0.016,0.027,-0.042,0.004,-0.225,-0.105,-0.08,-0.09,-0.089
0.018,-0.026,-0.043,0.004,0.031,-0.034,-0.001,-0.225,-0.117,-0.08,-0.089,-0.085
0.025,-0.011,-0.036,-0.007,0.031,-0.023,-0.005,-0.225,-0.132,-0.08,-0.085,-0.083
0.015,-0.009,-0.024,-0.003,0.02,-0.016,-0.007,-0.23,-0.129,-0.08,-0.085,-0.079
0.007,-0.019,-0.027,0.006,0.017,-0.023,-0.01,-0.23,-0.13,-0.081,-0.085,-0.083
0.018,-0.023,-0.041,0.003,0.03,-0.032,-0.013,-0.23,-0.13,-0.085,-0.085,-0.085
0.012,-0.018,-0.03,0.003,0.021,-0.023,-0.016,-0.232,-0.129,-0.089,-0.085,-0.085
0.033,-0.012,-0.045,-0.01,0.039,-0.028,-0.018,-0.234,-0.137,-0.093,-0.084,-0.085
0.045,-0.008,-0.053,-0.018,0.049,-0.03,-0.021,-0.257,-0.151,-0.103,-0.094,-0.085
0.025,-0.001,-0.026,-0.012,0.026,-0.013,-0.024,-0.26,-0.159,-0.11,-0.107,-0.1
0.028,0.004,-0.024,-0.016,0.026,-0.01,-0.027,-0.265,-0.166,-0.112,-0.114,-0.106
0.008,-0.001,-0.01,-0.003,0.009,-0.005,-0.03,-0.285,-0.171,-0.116,-0.12,-0.104
-0.008,-0.018,-0.01,0.013,0.001,-0.014,-0.03,-0.286,-0.169,-0.114,-0.12,-0.106
0.023,-0.027,-0.05,0.002,0.036,-0.038,-0.029,-0.289,-0.177,-0.116,-0.123,-0.104
0.028,-0.007,-0.035,-0.01,0.032,-0.021,-0.037,-0.293,-0.191,-0.13,-0.126,-0.105
0.004,0.011,0.007,-0.007,-0.002,0.009,-0.049,-0.294,-0.199,-0.138,-0.122,-0.11
0.002,0.029,0.027,-0.016,-0.013,0.028,-0.046,-0.298,-0.2,-0.139,-0.12,-0.118
0.011,0.039,0.028,-0.025,-0.009,0.033,-0.045,-0.297,-0.2,-0.14,-0.12,-0.12
0.013,0.027,0.014,-0.02,-0.001,0.02,-0.045,-0.295,-0.2,-0.14,-0.12,-0.12
0.006,0.022,0.016,-0.014,-0.005,0.019,-0.04,-0.295,-0.2,-0.14,-0.12,-0.124
0.007,0.015,0.008,-0.011,-0.001,0.011,-0.04,-0.295,-0.2,-0.14,-0.12,-0.125
0.003,0.011,0.008,-0.008,-0.003,0.009,-0.039,-0.294,-0.196,-0.14,-0.124,-0.125
-0.01,-0.01,0.0,0.01,-0.004,-0.005,-0.035,-0.295,-0.195,-0.138,-0.125,-0.125
0.015,-0.032,-0.047,0.009,0.031,-0.039,-0.036,-0.299,-0.195,-0.133,-0.125,-0.125
0.008,-0.028,-0.036,0.01,0.022,-0.032,-0.032,-0.3,-0.195,-0.13,-0.125,-0.125
0.002,-0.023,-0.024,0.011,0.014,-0.023,-0.03,-0.299,-0.195,-0.127,-0.125,-0.125
0.018,-0.021,-0.039,0.002,0.028,-0.029,-0.03,-0.3,-0.196,-0.122,-0.123,-0.125
-0.001,-0.033,-0.033,0.018,0.016,-0.033,-0.027,-0.299,-0.2,-0.12,-0.119,-0.125
-0.001,-0.036,-0.035,0.019,0.017,-0.035,-0.022,-0.302,-0.2,-0.126,-0.12,-0.125
-0.001,-0.028,-0.027,0.014,0.013,-0.027,-0.019,-0.307,-0.2,-0.128,-0.12,-0.125
0.006,-0.027,-0.033,0.01,0.02,-0.03,-0.016,-0.312,-0.2,-0.124,-0.12,-0.125
-0.01,-0.027,-0.017,0.019,0.003,-0.021,-0.011,-0.314,-0.2,-0.122,-0.12,-0.125
-0.035,-0.032,0.003,0.034,-0.019,-0.015,-0.009,-0.31,-0.2,-0.119,-0.12,-0.125
-0.022,-0.033,-0.011,0.028,-0.005,-0.021,-0.003,-0.31,-0.2,-0.116,-0.12,-0.119
-0.015,-0.038,-0.023,0.027,0.004,-0.03,0.004,-0.31,-0.2,-0.115,-0.12,-0.113
0.006,-0.051,-0.057,0.023,0.032,-0.054,0.011,-0.309,-0.199,-0.115,-0.12,-0.109
0.016,-0.042,-0.059,0.013,0.038,-0.051,0.017,-0.311,-0.201,-0.119,-0.12,-0.103
-0.008,-0.029,-0.021,0.018,0.007,-0.025,0.024,-0.307,-0.198,-0.119,-0.118,-0.096
-0.033,-0.023,0.009,0.028,-0.021,-0.007,0.031,-0.3,-0.193,-0.112,-0.113,-0.104
-0.023,-0.017,0.007,0.02,-0.015,-0.005,0.038,-0.291,-0.186,-0.108,-0.11,-0.109
0.011,-0.013,-0.025,0.001,0.018,-0.018,0.056,-0.288,-0.183,-0.101,-0.106,-0.1
0.045,-0.006,-0.05,-0.019,0.048,-0.028,0.074,-0.271,-0.172,-0.096,-0.103,-0.095
0.06,-0.003,-0.063,-0.028,0.062,-0.033,0.095,-0.261,-0.155,-0.099,-0.1,-0.087
0.07,0.011,-0.058,-0.04,0.064,-0.023,0.093,-0.266,-0.156,-0.104,-0.096,-0.085
0.094,0.031,-0.063,-0.062,0.079,-0.016,0.062,-0.263,-0.158,-0.107,-0.095,-0.085
0.085,0.02,-0.065,-0.052,0.075,-0.022,0.052,-0.296,-0.177,-0.111,-0.094,-0.085
0.072,0.008,-0.064,-0.039,0.068,-0.028,0.058,-0.319,-0.199,-0.117,-0.096,-0.085
0.071,-0.013,-0.084,-0.028,0.078,-0.048,0.059,-0.311,-0.192,-0.119,-0.093,-0.084
0.039,-0.039,-0.078,0.0,0.058,-0.058,0.059,-0.319,-0.197,-0.126,-0.105,-0.097
0.023,-0.041,-0.063,0.009,0.043,-0.052,0.071,-0.311,-0.201,-0.126,-0.12,-0.107
0.018,-0.032,-0.05,0.007,0.034,-0.04,0.076,-0.319,-0.206,-0.135,-0.12,-0.104
0.008,-0.031,-0.039,0.012,0.023,-0.034,0.074,-0.309,-0.196,-0.133,-0.12,-0.104
0.003,-0.024,-0.028,0.011,0.016,-0.026,0.075,-0.308,-0.192,-0.127,-0.119,-0.099
-0.001,-0.02,-0.019,0.011,0.009,-0.019,0.075,-0.307,-0.19,-0.125,-0.121,-0.1
0.0,-0.019,-0.018,0.01,0.009,-0.018,0.075,-0.293,-0.173,-0.112,-0.116,-0.097
-0.009,-0.009,0.0,0.009,-0.004,-0.004,0.075,-0.31,-0.189,-0.121,-0.118,-0.089
-0.006,-0.016,-0.011,0.011,0.003,-0.014,0.075,-0.274,-0.145,-0.092,-0.11,-0.091
-0.015,0.002,0.018,0.006,-0.016,0.01,0.076,-0.307,-0.18,-0.119,-0.119,-0.077
0.008,-0.018,-0.025,0.005,0.017,-0.021,0.071,-0.24,-0.116,-0.076,-0.101,-0.089
-0.004,-0.035,-0.03,0.02,0.013,-0.032,0.124,-0.212,-0.126,-0.115,-0.121,-0.116
0.06,-0.043,-0.103,-0.008,0.082,-0.073,0.265,0.217,0.176,0.096,-0.028,-0.095
0.325,0.523,0.198,-0.424,0.063,0.36,-0.01,-0.003,0.689,0.876,0.704,0.46
0.377,1.421,1.044,-0.899,-0.333,1.232,-0.57,-1.458,0.625,1.588,1.571,1.246
0.069,1.023,0.954,-0.546,-0.443,0.988,-0.572,-1.596,0.453,1.312,1.13,0.843
-0.266,0.152,0.419,0.057,-0.343,0.285,-0.374,-1.317,-0.479,-0.154,-0.136,-0.067
-0.239,-0.033,0.206,0.136,-0.222,0.086,-0.295,-1.083,-0.865,-0.617,-0.409,-0.235
-0.089,-0.005,0.084,0.047,-0.086,0.039,-0.089,-0.407,-0.286,-0.195,-0.184,-0.141
-0.019,0.072,0.091,-0.027,-0.055,0.082,0.06,-0.217,-0.185,-0.167,-0.165,-0.1
0.056,0.092,0.036,-0.074,0.01,0.063,0.11,-0.093,-0.07,-0.065,-0.098,-0.08
0.058,0.088,0.03,-0.073,0.014,0.059,0.135,-0.076,-0.053,-0.059,-0.093,-0.084
0.059,0.092,0.034,-0.075,0.012,0.063,0.137,-0.064,-0.031,-0.033,-0.07,-0.075
0.041,0.088,0.047,-0.065,-0.003,0.067,0.141,-0.044,0.007,-0.015,-0.066,-0.075
0.033,0.09,0.058,-0.062,-0.012,0.074,0.143,-0.052,-0.003,-0.014,-0.058,-0.068
0.042,0.106,0.064,-0.074,-0.011,0.084,0.146,-0.023,0.033,0.013,-0.048,-0.071
0.066,0.13,0.064,-0.098,0.0,0.097,0.149,-0.019,0.041,0.022,-0.04,-0.068
0.083,0.122,0.039,-0.103,0.022,0.08,0.15,0.031,0.098,0.069,0.002,-0.045
0.087,0.129,0.042,-0.108,0.022,0.085,0.157,0.058,0.126,0.096,0.018,-0.023
0.099,0.13,0.031,-0.115,0.034,0.08,0.167,0.102,0.166,0.127,0.039,-0.002
0.099,0.129,0.029,-0.114,0.035,0.079,0.174,0.142,0.21,0.162,0.067,0.009
0.122,0.143,0.021,-0.133,0.05,0.082,0.18,0.201,0.27,0.215,0.108,0.028
0.139,0.159,0.019,-0.149,0.059,0.089,0.18,0.28,0.346,0.271,0.152,0.056
0.156,0.198,0.042,-0.177,0.057,0.12,0.18,0.356,0.42,0.336,0.201,0.093
0.19,0.244,0.054,-0.217,0.068,0.149,0.18,0.456,0.517,0.425,0.27,0.143
0.246,0.319,0.073,-0.283,0.087,0.195,0.18,0.533,0.612,0.525,0.347,0.196
0.286,0.394,0.107,-0.34,0.089,0.25,0.181,0.608,0.7,0.625,0.434,0.268
0.313,0.444,0.131,-0.379,0.091,0.287,0.178,0.643,0.769,0.717,0.514,0.324
0.339,0.512,0.174,-0.426,0.082,0.343,0.175,0.623,0.777,0.75,0.551,0.356
0.301,0.513,0.211,-0.407,0.045,0.362,0.175,0.571,0.752,0.745,0.56,0.368
0.278,0.462,0.184,-0.371,0.047,0.323,0.175,0.441,0.658,0.687,0.525,0.337
0.235,0.401,0.166,-0.318,0.034,0.283,0.175,0.272,0.48,0.513,0.394,0.266
0.146,0.287,0.141,-0.216,0.002,0.214,0.175,0.103,0.292,0.321,0.236,0.158
0.093,0.177,0.084,-0.135,0.005,0.13,0.169,-0.037,0.13,0.167,0.112,0.063
0.054,0.116,0.062,-0.085,-0.004,0.088,0.163,-0.134,0.019,0.059,0.025,0.0
0.033,0.083,0.05,-0.058,-0.009,0.066,0.159,-0.197,-0.062,-0.012,-0.031,-0.051
-0.004,0.044,0.048,-0.02,-0.026,0.046,0.152,-0.23,-0.102,-0.055,-0.067,-0.077
-0.03,0.022,0.052,0.004,-0.041,0.037,0.147,-0.244,-0.115,-0.064,-0.084,-0.082
-0.025,0.029,0.054,-0.003,-0.04,0.041,0.142,-0.252,-0.142,-0.07,-0.091,-0.087
-0.027,0.032,0.059,-0.003,-0.043,0.045,0.136,-0.266,-0.152,-0.079,-0.098,-0.09
-0.022,0.036,0.058,-0.007,-0.041,0.047,0.131,-0.273,-0.153,-0.093,-0.114,-0.098
-0.021,0.05,0.07,-0.015,-0.046,0.06,0.126,-0.272,-0.151,-0.102,-0.119,-0.103
-0.013,0.058,0.071,-0.023,-0.042,0.064,0.12,-0.266,-0.147,-0.101,-0.115,-0.098
-0.014,0.047,0.06,-0.017,-0.037,0.053,0.115,-0.261,-0.146,-0.098,-0.113,-0.095
-0.018,0.042,0.06,-0.012,-0.039,0.051,0.109,-0.256,-0.141,-0.095,-0.11,-0.092
-0.014,0.046,0.06,-0.016,-0.038,0.052,0.104,-0.25,-0.14,-0.093,-0.107,-0.087
-0.015,0.045,0.06,-0.015,-0.038,0.052,0.099,-0.246,-0.143,-0.09,-0.104,-0.086
-0.015,0.044,0.06,-0.015,-0.038,0.052,0.093,-0.25,-0.146,-0.093,-0.109,-0.089
-0.014,0.047,0.061,-0.017,-0.037,0.053,0.087,-0.253,-0.149,-0.096,-0.111,-0.093
-0.003,0.057,0.06,-0.027,-0.032,0.058,0.082,-0.259,-0.151,-0.098,-0.12,-0.095
-0.005,0.08,0.084,-0.038,-0.045,0.082,0.079,-0.272,-0.16,-0.101,-0.129,-0.095
-0.008,0.089,0.097,-0.04,-0.053,0.093,0.077,-0.276,-0.169,-0.1,-0.13,-0.095
-0.007,0.077,0.085,-0.035,-0.046,0.081,0.074,-0.278,-0.17,-0.1,-0.13,-0.095
-0.012,0.067,0.078,-0.028,-0.045,0.073,0.071,-0.281,-0.17,-0.101,-0.13,-0.096
-0.005,0.063,0.068,-0.029,-0.037,0.065,0.069,-0.284,-0.171,-0.098,-0.13,-0.099
0.0,0.065,0.065,-0.033,-0.033,0.065,0.065,-0.287,-0.179,-0.111,-0.131,-0.101
0.001,0.065,0.064,-0.033,-0.032,0.065,0.057,-0.289,-0.19,-0.126,-0.14,-0.105
-0.001,0.065,0.066,-0.032,-0.034,0.066,0.051,-0.292,-0.198,-0.127,-0.149,-0.103
0.002,0.065,0.063,-0.034,-0.031,0.064,0.044,-0.299,-0.201,-0.13,-0.151,-0.099
-0.004,0.066,0.069,-0.031,-0.037,0.067,0.037,-0.31,-0.207,-0.134,-0.155,-0.1
-0.023,0.067,0.09,-0.023,-0.057,0.079,0.037,-0.311,-0.214,-0.136,-0.159,-0.1
-0.022,0.061,0.083,-0.02,-0.053,0.072,0.04,-0.309,-0.214,-0.135,-0.16,-0.1
-0.021,0.056,0.078,-0.018,-0.05,0.067,0.04,-0.31,-0.216,-0.135,-0.16,-0.101
-0.022,0.051,0.072,-0.015,-0.047,0.061,0.043,-0.309,-0.22,-0.135,-0.16,-0.104
-0.024,0.045,0.069,-0.01,-0.047,0.057,0.046,-0.311,-0.22,-0.135,-0.16,-0.109
-0.027,0.04,0.067,-0.007,-0.047,0.054,0.044,-0.307,-0.22,-0.139,-0.16,-0.108
-0.014,0.05,0.063,-0.018,-0.039,0.056,0.041,-0.305,-0.22,-0.146,-0.16,-0.105
-0.013,0.07,0.083,-0.028,-0.048,0.076,0.036,-0.305,-0.221,-0.15,-0.16,-0.105
-0.019,0.064,0.083,-0.023,-0.051,0.074,0.034,-0.301,-0.22,-0.149,-0.16,-0.105
-0.02,0.048,0.068,-0.014,-0.044,0.058,0.029,-0.299,-0.22,-0.152,-0.16,-0.105
-0.02,0.051,0.071,-0.016,-0.046,0.061,0.025,-0.301,-0.22,-0.155,-0.16,-0.105
-0.026,0.049,0.076,-0.012,-0.051,0.062,0.027,-0.312,-0.22,-0.155,-0.16,-0.113
-0.025,0.05,0.076,-0.013,-0.051,0.063,0.031,-0.322,-0.22,-0.155,-0.158,-0.118
-0.02,0.07,0.09,-0.026,-0.055,0.08,0.03,-0.323,-0.215,-0.155,-0.155,-0.114
-0.03,0.06,0.09,-0.015,-0.06,0.074,0.03,-0.32,-0.215,-0.155,-0.152,-0.112
-0.018,0.038,0.056,-0.01,-0.037,0.046,0.03,-0.317,-0.214,-0.155,-0.15,-0.109
-0.003,0.041,0.044,-0.02,-0.023,0.042,0.03,-0.315,-0.21,-0.155,-0.146,-0.106
-0.004,0.04,0.044,-0.018,-0.024,0.042,0.041,-0.311,-0.21,-0.154,-0.144,-0.104
0.007,0.039,0.032,-0.024,-0.012,0.035,0.05,-0.31,-0.208,-0.149,-0.148,-0.1
-0.007,0.043,0.05,-0.018,-0.029,0.046,0.054,-0.305,-0.204,-0.143,-0.151,-0.096
-0.039,0.049,0.088,-0.005,-0.063,0.068,0.054,-0.297,-0.201,-0.14,-0.148,-0.093
-0.027,0.079,0.106,-0.026,-0.066,0.092,0.059,-0.287,-0.197,-0.135,-0.145,-0.09
-0.009,0.08,0.089,-0.035,-0.049,0.084,0.073,-0.267,-0.195,-0.131,-0.145,-0.085
0.013,0.047,0.034,-0.03,-0.011,0.04,0.078,-0.25,-0.2,-0.133,-0.149,-0.087
0.031,0.045,0.014,-0.038,0.008,0.029,0.071,-0.252,-0.204,-0.139,-0.15,-0.091
0.035,0.045,0.011,-0.04,0.012,0.028,0.034,-0.289,-0.208,-0.142,-0.15,-0.089
0.05,0.045,-0.006,-0.047,0.027,0.019,0.006,-0.313,-0.213,-0.147,-0.155,-0.091
0.027,0.045,0.018,-0.036,0.004,0.031,0.005,-0.313,-0.221,-0.152,-0.154,-0.083
-0.001,0.045,0.046,-0.022,-0.024,0.045,0.001,-0.319,-0.231,-0.158,-0.157,-0.095
-0.019,0.04,0.058,-0.011,-0.039,0.049,-0.001,-0.321,-0.232,-0.167,-0.167,-0.121
-0.043,0.04,0.083,0.001,-0.063,0.062,-0.006,-0.34,-0.247,-0.181,-0.164,-0.115
-0.061,0.045,0.106,0.008,-0.084,0.076,-0.004,-0.33,-0.242,-0.168,-0.156,-0.11
-0.073,0.016,0.088,0.028,-0.081,0.052,0.011,-0.327,-0.235,-0.161,-0.152,-0.102
-0.046,-0.037,0.009,0.042,-0.027,-0.014,0.032,-0.284,-0.196,-0.151,-0.145,-0.096
-0.028,-0.041,-0.013,0.035,-0.008,-0.027,0.041,-0.265,-0.174,-0.135,-0.139,-0.088
-0.05,-0.037,0.013,0.043,-0.031,-0.012,0.039,-0.273,-0.19,-0.139,-0.133,-0.086
-0.043,-0.046,-0.003,0.045,-0.02,-0.025,0.043,-0.24,-0.157,-0.106,-0.124,-0.092
-0.037,-0.029,0.008,0.033,-0.022,-0.011,0.046,-0.279,-0.195,-0.133,-0.123,-0.088
-0.036,-0.066,-0.03,0.051,-0.003,-0.048,0.041,-0.211,-0.111,-0.086,-0.108,-0.093
-0.031,-0.03,0.0,0.031,-0.015,-0.015,0.105,-0.177,-0.126,-0.121,-0.147,-0.096
0.062,-0.005,-0.067,-0.029,0.064,-0.035,0.245,0.346,0.262,0.131,-0.007,-0.059
0.296,0.577,0.281,-0.436,0.007,0.429,-0.101,-0.158,0.689,0.916,0.76,0.552
0.337,1.416,1.079,-0.877,-0.371,1.247,-0.728,-1.739,0.561,1.577,1.591,1.318
0.032,0.905,0.873,-0.469,-0.421,0.889,-0.727,-1.691,0.34,1.158,1.038,0.833
-0.297,0.009,0.306,0.144,-0.302,0.158,-0.529,-1.386,-0.648,-0.313,-0.217,-0.07
-0.259,-0.127,0.132,0.193,-0.195,0.002,-0.387,-1.002,-0.83,-0.6,-0.391,-0.202
-0.099,-0.049,0.05,0.074,-0.075,0.0,-0.118,-0.333,-0.241,-0.189,-0.176,-0.116
-0.079,-0.023,0.056,0.051,-0.067,0.016,0.009,-0.183,-0.175,-0.192,-0.159,-0.093
-0.045,-0.03,0.015,0.038,-0.03,-0.007,0.056,-0.047,-0.049,-0.086,-0.098,-0.072
-0.037,-0.017,0.02,0.026,-0.028,0.002,0.077,-0.054,-0.057,-0.095,-0.1,-0.068
-0.016,-0.006,0.011,0.011,-0.013,0.002,0.075,-0.025,-0.02,-0.058,-0.081,-0.056
0.006,0.008,0.002,-0.007,0.002,0.005,0.086,-0.01,0.007,-0.042,-0.078,-0.051
0.011,0.017,0.006,-0.014,0.002,0.011,0.091,0.004,0.015,-0.027,-0.057,-0.042
0.026,0.014,-0.013,-0.02,0.019,0.0,0.104,0.041,0.059,0.01,-0.032,-0.033
0.023,0.016,-0.007,-0.019,0.014,0.005,0.105,0.044,0.065,0.014,-0.014,-0.018
0.026,0.014,-0.012,-0.02,0.018,0.001,0.105,0.083,0.102,0.045,0.009,-0.005
0.033,0.017,-0.016,-0.024,0.024,0.0,0.109,0.113,0.128,0.069,0.024,0.005
0.039,0.05,0.012,-0.045,0.013,0.031,0.11,0.152,0.162,0.093,0.037,0.016
0.035,0.08,0.046,-0.058,-0.006,0.063,0.11,0.194,0.203,0.118,0.051,0.024
0.048,0.095,0.048,-0.072,0.0,0.071,0.121,0.27,0.268,0.174,0.089,0.042
0.085,0.117,0.032,-0.102,0.027,0.074,0.133,0.358,0.345,0.235,0.134,0.07
0.114,0.155,0.041,-0.135,0.036,0.098,0.142,0.451,0.43,0.305,0.193,0.11
0.153,0.223,0.07,-0.188,0.041,0.146,0.149,0.556,0.525,0.389,0.254,0.15
0.182,0.28,0.098,-0.231,0.042,0.189,0.145,0.65,0.634,0.492,0.336,0.204
0.225,0.353,0.128,-0.289,0.049,0.24,0.141,0.723,0.724,0.596,0.426,0.273
0.271,0.41,0.139,-0.341,0.066,0.274,0.136,0.756,0.788,0.69,0.502,0.335
0.28,0.443,0.163,-0.362,0.059,0.302,0.132,0.734,0.812,0.735,0.556,0.378
0.277,0.474,0.197,-0.376,0.04,0.335,0.126,0.645,0.774,0.725,0.551,0.379
0.265,0.46,0.195,-0.363,0.035,0.327,0.115,0.479,0.649,0.643,0.495,0.349
0.194,0.381,0.186,-0.288,0.004,0.283,0.103,0.277,0.454,0.463,0.369,0.268
0.101,0.257,0.156,-0.179,-0.028,0.206,0.092,0.104,0.26,0.266,0.213,0.153
0.049,0.165,0.116,-0.107,-0.034,0.141,0.084,-0.037,0.097,0.111,0.088,0.073
-0.007,0.061,0.068,-0.028,-0.037,0.064,0.079,-0.124,0.0,0.015,0.013,0.015
-0.037,-0.027,0.01,0.032,-0.023,-0.008,0.074,-0.163,-0.051,-0.038,-0.026,-0.023
-0.046,-0.052,-0.006,0.049,-0.019,-0.029,0.068,-0.197,-0.085,-0.071,-0.059,-0.039
-0.046,-0.062,-0.016,0.054,-0.015,-0.039,0.062,-0.214,-0.105,-0.097,-0.079,-0.055
-0.035,-0.052,-0.017,0.044,-0.009,-0.034,0.058,-0.219,-0.123,-0.106,-0.096,-0.07
-0.039,-0.05,-0.011,0.045,-0.014,-0.03,0.053,-0.221,-0.126,-0.105,-0.106,-0.075
-0.036,-0.045,-0.009,0.041,-0.013,-0.027,0.05,-0.22,-0.139,-0.12,-0.104,-0.075
-0.035,-0.039,-0.004,0.038,-0.015,-0.021,0.047,-0.22,-0.147,-0.127,-0.107,-0.075
-0.049,-0.05,-0.001,0.05,-0.024,-0.025,0.042,-0.22,-0.144,-0.13,-0.111,-0.075
-0.058,-0.056,0.002,0.057,-0.03,-0.026,0.039,-0.22,-0.149,-0.131,-0.109,-0.075
-0.061,-0.055,0.006,0.057,-0.033,-0.024,0.036,-0.216,-0.15,-0.129,-0.115,-0.072
-0.074,-0.055,0.019,0.064,-0.046,-0.018,0.033,-0.213,-0.15,-0.126,-0.123,-0.069
-0.069,-0.055,0.014,0.061,-0.041,-0.02,0.03,-0.211,-0.146,-0.125,-0.118,-0.066
-0.061,-0.06,0.002,0.06,-0.031,-0.029,0.027,-0.208,-0.14,-0.126,-0.111,-0.063
-0.054,-0.061,-0.007,0.058,-0.024,-0.034,0.025,-0.205,-0.136,-0.125,-0.105,-0.06
-0.036,-0.057,-0.021,0.047,-0.007,-0.039,0.023,-0.208,-0.132,-0.125,-0.097,-0.062
-0.034,-0.055,-0.021,0.045,-0.006,-0.038,0.017,-0.211,-0.126,-0.125,-0.091,-0.065
-0.035,-0.052,-0.016,0.044,-0.009,-0.033,0.012,-0.21,-0.127,-0.125,-0.094,-0.068
-0.036,-0.05,-0.014,0.043,-0.011,-0.031,0.009,-0.21,-0.131,-0.125,-0.101,-0.07
-0.038,-0.047,-0.009,0.042,-0.014,-0.028,0.004,-0.216,-0.137,-0.128,-0.106,-0.073
-0.036,-0.042,-0.006,0.04,-0.015,-0.024,0.0,-0.222,-0.151,-0.133,-0.11,-0.076
-0.037,-0.039,-0.003,0.038,-0.017,-0.021,-0.005,-0.227,-0.158,-0.136,-0.113,-0.071
-0.037,-0.036,0.002,0.036,-0.019,-0.017,-0.005,-0.234,-0.161,-0.143,-0.117,-0.07
-0.036,-0.031,0.005,0.033,-0.02,-0.012,-0.006,-0.24,-0.164,-0.148,-0.12,-0.07
-0.039,-0.031,0.008,0.035,-0.024,-0.011,-0.011,-0.245,-0.167,-0.155,-0.123,-0.07
-0.048,-0.035,0.013,0.041,-0.03,-0.011,-0.009,-0.245,-0.17,-0.16,-0.126,-0.07
-0.05,-0.035,0.015,0.042,-0.032,-0.01,-0.013,-0.246,-0.17,-0.16,-0.124,-0.071
-0.046,-0.031,0.015,0.038,-0.031,-0.008,-0.015,-0.25,-0.174,-0.16,-0.125,-0.075
-0.039,-0.024,0.015,0.031,-0.026,-0.004,-0.015,-0.25,-0.175,-0.16,-0.124,-0.074
-0.033,-0.017,0.015,0.025,-0.024,-0.001,-0.019,-0.247,-0.175,-0.16,-0.127,-0.077
-0.025,-0.011,0.014,0.017,-0.019,0.001,-0.021,-0.245,-0.175,-0.16,-0.13,-0.08
-0.024,-0.004,0.02,0.014,-0.022,0.008,-0.019,-0.245,-0.175,-0.16,-0.13,-0.08
-0.046,-0.001,0.045,0.023,-0.045,0.022,-0.015,-0.241,-0.175,-0.16,-0.135,-0.08
-0.051,-0.025,0.026,0.038,-0.038,0.0,-0.015,-0.239,-0.175,-0.16,-0.135,-0.08
-0.046,-0.053,-0.007,0.05,-0.019,-0.029,-0.014,-0.241,-0.175,-0.16,-0.135,-0.08
-0.057,-0.056,0.002,0.056,-0.029,-0.027,-0.01,-0.244,-0.175,-0.16,-0.133,-0.08
-0.063,-0.055,0.008,0.059,-0.035,-0.023,-0.01,-0.247,-0.175,-0.156,-0.129,-0.08
-0.056,-0.052,0.005,0.054,-0.03,-0.023,-0.012,-0.252,-0.175,-0.155,-0.13,-0.079
-0.047,-0.05,-0.003,0.049,-0.022,-0.026,-0.015,-0.255,-0.175,-0.155,-0.126,-0.075
-0.041,-0.05,-0.009,0.045,-0.016,-0.029,-0.015,-0.25,-0.175,-0.155,-0.122,-0.075
-0.035,-0.051,-0.016,0.043,-0.01,-0.033,-0.015,-0.25,-0.172,-0.155,-0.119,-0.073
-0.025,-0.048,-0.022,0.037,-0.002,-0.035,-0.015,-0.25,-0.169,-0.156,-0.116,-0.069
-0.029,-0.058,-0.03,0.044,0.0,-0.044,-0.015,-0.25,-0.166,-0.16,-0.111,-0.07
-0.04,-0.075,-0.035,0.058,-0.003,-0.055,-0.02,-0.249,-0.163,-0.159,-0.111,-0.073
-0.04,-0.068,-0.028,0.054,-0.006,-0.048,-0.025,-0.253,-0.16,-0.162,-0.115,-0.075
-0.043,-0.06,-0.017,0.052,-0.012,-0.038,-0.028,-0.262,-0.161,-0.165,-0.117,-0.075
-0.049,-0.055,-0.007,0.052,-0.021,-0.031,-0.034,-0.261,-0.168,-0.165,-0.121,-0.075
-0.051,-0.046,0.005,0.049,-0.028,-0.02,-0.033,-0.258,-0.167,-0.161,-0.116,-0.075
-0.066,-0.048,0.018,0.057,-0.042,-0.014,-0.029,-0.256,-0.164,-0.159,-0.112,-0.075
-0.069,-0.071,-0.002,0.07,-0.033,-0.036,-0.03,-0.252,-0.161,-0.16,-0.109,-0.075
-0.052,-0.082,-0.03,0.067,-0.011,-0.056,-0.03,-0.25,-0.158,-0.155,-0.106,-0.075
-0.046,-0.076,-0.03,0.061,-0.008,-0.053,-0.03,-0.247,-0.155,-0.155,-0.101,-0.075
-0.043,-0.073,-0.03,0.058,-0.006,-0.051,-0.03,-0.245,-0.153,-0.154,-0.1,-0.075
-0.041,-0.072,-0.03,0.057,-0.006,-0.051,-0.025,-0.245,-0.15,-0.149,-0.11,-0.075
-0.033,-0.063,-0.03,0.048,-0.001,-0.046,-0.025,-0.241,-0.15,-0.15,-0.112,-0.071
-0.034,-0.064,-0.03,0.049,-0.001,-0.047,-0.025,-0.24,-0.15,-0.147,-0.109,-0.07
-0.043,-0.089,-0.046,0.066,0.002,-0.067,-0.025,-0.24,-0.15,-0.145,-0.11,-0.07
-0.033,-0.086,-0.053,0.06,0.01,-0.07,-0.024,-0.247,-0.15,-0.145,-0.11,-0.065
-0.029,-0.078,-0.049,0.053,0.011,-0.064,-0.026,-0.255,-0.146,-0.149,-0.11,-0.065
-0.028,-0.077,-0.049,0.052,0.011,-0.062,-0.035,-0.255,-0.144,-0.15,-0.109,-0.064
-0.02,-0.065,-0.045,0.043,0.012,-0.054,-0.035,-0.255,-0.145,-0.15,-0.104,-0.06
-0.027,-0.072,-0.045,0.05,0.009,-0.058,-0.034,-0.255,-0.144,-0.154,-0.101,-0.06
-0.038,-0.067,-0.029,0.053,-0.004,-0.048,-0.031,-0.255,-0.145,-0.155,-0.098,-0.06
-0.037,-0.043,-0.006,0.04,-0.015,-0.024,-0.03,-0.255,-0.144,-0.153,-0.093,-0.06
-0.041,-0.035,0.005,0.038,-0.023,-0.015,-0.029,-0.244,-0.13,-0.141,-0.091,-0.061
-0.033,-0.031,0.002,0.032,-0.017,-0.014,-0.006,-0.219,-0.118,-0.126,-0.085,-0.055
-0.024,-0.056,-0.032,0.04,0.004,-0.044,0.0,-0.197,-0.096,-0.124,-0.078,-0.048
-0.004,-0.077,-0.072,0.041,0.035,-0.074,-0.009,-0.18,-0.066,-0.125,-0.08,-0.05
0.009,-0.079,-0.087,0.035,0.048,-0.083,-0.022,-0.182,-0.069,-0.125,-0.084,-0.05
-0.011,-0.103,-0.092,0.057,0.041,-0.097,-0.051,-0.219,-0.106,-0.124,-0.086,-0.049
0.003,-0.094,-0.098,0.046,0.051,-0.096,-0.062,-0.237,-0.126,-0.127,-0.09,-0.051
0.003,-0.074,-0.077,0.035,0.041,-0.075,-0.066,-0.242,-0.129,-0.137,-0.089,-0.049
-0.04,-0.074,-0.034,0.057,-0.002,-0.054,-0.067,-0.257,-0.146,-0.148,-0.091,-0.055
-0.057,-0.08,-0.023,0.068,-0.017,-0.051,-0.061,-0.247,-0.139,-0.151,-0.104,-0.067
-0.065,-0.079,-0.014,0.072,-0.025,-0.046,-0.061,-0.249,-0.138,-0.151,-0.109,-0.061
-0.057,-0.092,-0.036,0.075,-0.01,-0.064,-0.056,-0.233,-0.13,-0.149,-0.105,-0.058
-0.046,-0.106,-0.06,0.077,0.008,-0.083,-0.055,-0.233,-0.126,-0.147,-0.103,-0.055
-0.054,-0.103,-0.049,0.079,-0.002,-0.076,-0.059,-0.225,-0.127,-0.146,-0.1,-0.049
-0.045,-0.108,-0.062,0.077,0.009,-0.085,-0.06,-0.213,-0.11,-0.141,-0.096,-0.054
-0.051,-0.096,-0.045,0.074,-0.003,-0.07,-0.061,-0.225,-0.125,-0.149,-0.096,-0.053
-0.038,-0.106,-0.067,0.072,0.014,-0.086,-0.058,-0.186,-0.085,-0.129,-0.089,-0.058
-0.056,-0.092,-0.036,0.075,-0.01,-0.063,-0.062,-0.225,-0.121,-0.152,-0.086,-0.051
-0.058,-0.08,-0.022,0.069,-0.018,-0.051,-0.059,-0.162,-0.056,-0.119,-0.077,-0.06
-0.052,-0.083,-0.031,0.067,-0.01,-0.057,0.004,-0.152,-0.058,-0.149,-0.097,-0.068
0.003,-0.098,-0.101,0.048,0.052,-0.099,0.168,0.35,0.244,0.047,-0.007,-0.032
0.269,0.407,0.138,-0.338,0.065,0.272,-0.116,0.052,0.746,0.787,0.665,0.483
0.386,1.337,0.951,-0.862,-0.282,1.144,-0.802,-1.652,0.671,1.52,1.586,1.338
0.095,1.011,0.916,-0.553,-0.411,0.963,-0.911,-1.822,0.46,1.249,1.219,1.023
-0.286,0.038,0.324,0.124,-0.305,0.181,-0.689,-1.404,-0.447,-0.178,-0.063,0.05
-0.295,-0.174,0.121,0.234,-0.208,-0.026,-0.489,-1.011,-0.761,-0.607,-0.35,-0.148
-0.13,-0.122,0.008,0.126,-0.069,-0.056,-0.199,-0.279,-0.175,-0.195,-0.13,-0.067
-0.061,-0.074,-0.013,0.068,-0.024,-0.043,-0.05,-0.103,-0.094,-0.182,-0.119,-0.042
-0.031,-0.068,-0.037,0.049,0.003,-0.052,-0.005,0.015,-0.004,-0.102,-0.07,-0.017
-0.038,-0.051,-0.013,0.045,-0.012,-0.032,0.011,0.033,0.01,-0.106,-0.076,-0.022
-0.02,-0.006,0.013,0.013,-0.016,0.004,0.014,0.051,0.037,-0.086,-0.057,-0.009
-0.032,-0.026,0.007,0.029,-0.019,-0.009,0.021,0.079,0.074,-0.055,-0.044,-0.009
-0.024,-0.035,-0.011,0.029,-0.006,-0.022,0.022,0.087,0.069,-0.04,-0.028,0.001
0.01,-0.024,-0.034,0.007,0.022,-0.029,0.031,0.118,0.112,-0.008,-0.008,0.003
0.023,-0.011,-0.034,-0.005,0.028,-0.022,0.026,0.124,0.122,-0.007,0.005,0.007
0.015,-0.008,-0.023,-0.004,0.019,-0.015,0.027,0.156,0.155,0.015,0.025,0.014
0.005,-0.021,-0.025,0.008,0.015,-0.023,0.056,0.191,0.194,0.043,0.039,0.032
0.023,-0.022,-0.046,0.0,0.035,-0.034,0.067,0.246,0.244,0.087,0.065,0.05
0.039,0.012,-0.027,-0.025,0.033,-0.007,0.07,0.29,0.284,0.111,0.085,0.055
0.049,0.049,-0.001,-0.049,0.024,0.024,0.081,0.36,0.338,0.154,0.113,0.076
0.059,0.086,0.027,-0.073,0.016,0.056,0.085,0.445,0.401,0.202,0.143,0.095
0.091,0.116,0.025,-0.104,0.033,0.07,0.106,0.551,0.49,0.273,0.206,0.131
0.132,0.142,0.01,-0.137,0.061,0.075,0.123,0.669,0.593,0.363,0.279,0.183
0.178,0.187,0.01,-0.183,0.084,0.098,0.129,0.768,0.693,0.459,0.355,0.237
0.219,0.246,0.027,-0.232,0.095,0.136,0.14,0.855,0.789,0.555,0.44,0.303
0.252,0.329,0.076,-0.291,0.088,0.202,0.127,0.888,0.858,0.639,0.511,0.355
0.272,0.39,0.117,-0.331,0.077,0.253,0.109,0.863,0.872,0.683,0.562,0.396
0.246,0.391,0.145,-0.319,0.051,0.268,0.097,0.799,0.853,0.687,0.55,0.417
0.235,0.365,0.129,-0.3,0.053,0.247,0.084,0.648,0.779,0.653,0.535,0.406
0.203,0.294,0.09,-0.249,0.056,0.192,0.076,0.445,0.609,0.514,0.467,0.344
0.13,0.18,0.05,-0.155,0.04,0.115,0.067,0.252,0.42,0.331,0.313,0.25
0.065,0.082,0.017,-0.074,0.024,0.049,0.058,0.097,0.252,0.175,0.19,0.154
-0.004,0.013,0.017,-0.005,-0.011,0.015,0.049,-0.012,0.131,0.056,0.091,0.074
-0.032,-0.041,-0.009,0.036,-0.011,-0.025,0.041,-0.083,0.06,-0.022,0.02,0.029
-0.034,-0.066,-0.032,0.05,-0.001,-0.048,0.034,-0.109,0.012,-0.062,-0.014,0.004
-0.041,-0.087,-0.046,0.065,0.003,-0.066,0.027,-0.13,-0.005,-0.078,-0.034,-0.005
-0.036,-0.107,-0.071,0.071,0.018,-0.088,0.019,-0.136,-0.01,-0.091,-0.042,-0.015
-0.026,-0.097,-0.071,0.062,0.022,-0.084,0.012,-0.134,-0.018,-0.095,-0.046,-0.03
-0.035,-0.11,-0.075,0.073,0.021,-0.093,0.006,-0.135,-0.026,-0.095,-0.045,-0.03
-0.053,-0.126,-0.073,0.089,0.01,-0.099,0.005,-0.133,-0.032,-0.098,-0.045,-0.03
-0.05,-0.118,-0.068,0.084,0.009,-0.093,0.005,-0.136,-0.04,-0.102,-0.053,-0.028
-0.049,-0.114,-0.065,0.082,0.008,-0.089,0.004,-0.132,-0.044,-0.105,-0.058,-0.024
-0.049,-0.107,-0.058,0.079,0.005,-0.083,0.006,-0.13,-0.039,-0.105,-0.055,-0.025
-0.052,-0.103,-0.05,0.078,-0.001,-0.076,0.003,-0.127,-0.034,-0.105,-0.055,-0.025
-0.053,-0.097,-0.045,0.075,-0.004,-0.07,0.0,-0.125,-0.03,-0.105,-0.051,-0.025
-0.058,-0.095,-0.037,0.077,-0.01,-0.066,-0.003,-0.122,-0.025,-0.105,-0.05,-0.025
-0.078,-0.095,-0.017,0.087,-0.03,-0.055,-0.005,-0.12,-0.021,-0.109,-0.05,-0.025
-0.044,-0.092,-0.049,0.068,0.003,-0.07,-0.001,-0.121,-0.024,-0.11,-0.045,-0.025
-0.024,-0.088,-0.064,0.056,0.02,-0.076,0.0,-0.12,-0.032,-0.11,-0.045,-0.026
-0.058,-0.092,-0.034,0.075,-0.012,-0.063,-0.001,-0.12,-0.036,-0.115,-0.045,-0.031
-0.04,-0.078,-0.038,0.059,-0.001,-0.057,-0.013,-0.121,-0.043,-0.115,-0.045,-0.029
-0.042,-0.074,-0.032,0.059,-0.005,-0.053,-0.024,-0.125,-0.048,-0.116,-0.045,-0.033
-0.08,-0.119,-0.04,0.1,-0.02,-0.079,-0.026,-0.125,-0.052,-0.12,-0.047,-0.036
-0.055,-0.127,-0.072,0.092,0.009,-0.1,-0.029,-0.125,-0.064,-0.119,-0.05,-0.035
-0.047,-0.124,-0.076,0.086,0.015,-0.1,-0.032,-0.125,-0.074,-0.122,-0.05,-0.039
-0.057,-0.131,-0.074,0.094,0.009,-0.102,-0.035,-0.124,-0.078,-0.125,-0.05,-0.04
-0.053,-0.129,-0.076,0.092,0.011,-0.102,-0.035,-0.129,-0.081,-0.125,-0.05,-0.04
-0.055,-0.13,-0.074,0.093,0.01,-0.102,-0.035,-0.13,-0.079,-0.125,-0.054,-0.04
-0.047,-0.122,-0.074,0.085,0.014,-0.098,-0.035,-0.13,-0.082,-0.125,-0.059,-0.04
-0.051,-0.117,-0.066,0.084,0.008,-0.091,-0.035,-0.134,-0.093,-0.125,-0.062,-0.039
-0.05,-0.108,-0.059,0.079,0.005,-0.083,-0.035,-0.135,-0.095,-0.125,-0.067,-0.035
-0.05,-0.104,-0.054,0.077,0.002,-0.079,-0.035,-0.134,-0.101,-0.125,-0.069,-0.035
-0.053,-0.094,-0.041,0.073,-0.006,-0.067,-0.031,-0.13,-0.106,-0.124,-0.066,-0.033
-0.055,-0.094,-0.039,0.075,-0.008,-0.067,-0.03,-0.13,-0.113,-0.12,-0.063,-0.029
-0.069,-0.125,-0.056,0.097,-0.007,-0.09,-0.03,-0.128,-0.116,-0.12,-0.06,-0.03
-0.047,-0.142,-0.094,0.095,0.024,-0.117,-0.026,-0.124,-0.11,-0.117,-0.057,-0.033
-0.026,-0.141,-0.116,0.084,0.045,-0.128,-0.024,-0.125,-0.108,-0.115,-0.055,-0.035
-0.031,-0.133,-0.103,0.082,0.036,-0.118,-0.026,-0.121,-0.103,-0.115,-0.057,-0.035
-0.029,-0.124,-0.096,0.077,0.034,-0.11,-0.034,-0.12,-0.099,-0.119,-0.065,-0.035
-0.031,-0.118,-0.087,0.075,0.029,-0.102,-0.046,-0.12,-0.105,-0.131,-0.069,-0.035
-0.028,-0.11,-0.083,0.069,0.028,-0.097,-0.05,-0.12,-0.115,-0.135,-0.072,-0.034
-0.029,-0.11,-0.081,0.07,0.026,-0.095,-0.049,-0.12,-0.117,-0.135,-0.074,-0.03
-0.043,-0.11,-0.067,0.077,0.012,-0.088,-0.053,-0.121,-0.113,-0.135,-0.078,-0.03
-0.061,-0.11,-0.049,0.086,-0.006,-0.079,-0.055,-0.122,-0.111,-0.135,-0.081,-0.03
-0.079,-0.11,-0.031,0.095,-0.024,-0.071,-0.056,-0.119,-0.108,-0.135,-0.078,-0.03
-0.055,-0.111,-0.056,0.083,0.0,-0.083,-0.048,-0.116,-0.106,-0.131,-0.074,-0.03
-0.047,-0.136,-0.089,0.092,0.021,-0.112,-0.027,-0.113,-0.103,-0.125,-0.072,-0.026
-0.065,-0.16,-0.095,0.113,0.015,-0.127,-0.017,-0.11,-0.1,-0.12,-0.069,-0.025
-0.067,-0.161,-0.094,0.114,0.014,-0.127,-0.013,-0.109,-0.095,-0.115,-0.066,-0.025
-0.065,-0.165,-0.1,0.116,0.018,-0.132,-0.007,-0.105,-0.093,-0.108,-0.065,-0.025
-0.035,-0.163,-0.128,0.099,0.047,-0.146,-0.001,-0.105,-0.088,-0.106,-0.065,-0.025
-0.032,-0.156,-0.124,0.095,0.046,-0.14,0.004,-0.103,-0.085,-0.11,-0.065,-0.025
-0.05,-0.155,-0.104,0.103,0.027,-0.13,0.002,-0.099,-0.09,-0.11,-0.065,-0.025
-0.051,-0.147,-0.097,0.099,0.023,-0.122,-0.003,-0.1,-0.096,-0.114,-0.065,-0.025
-0.054,-0.146,-0.092,0.1,0.019,-0.118,-0.006,-0.097,-0.099,-0.115,-0.065,-0.025
-0.049,-0.144,-0.094,0.097,0.023,-0.119,-0.009,-0.092,-0.096,-0.111,-0.063,-0.025
-0.05,-0.145,-0.096,0.098,0.024,-0.121,-0.014,-0.089,-0.095,-0.107,-0.06,-0.025
-0.046,-0.145,-0.099,0.096,0.027,-0.122,-0.014,-0.085,-0.095,-0.104,-0.057,-0.022
-0.039,-0.139,-0.1,0.089,0.031,-0.118,-0.009,-0.082,-0.09,-0.101,-0.054,-0.019
-0.047,-0.161,-0.115,0.104,0.034,-0.138,-0.006,-0.078,-0.09,-0.096,-0.05,-0.016
-0.051,-0.171,-0.12,0.111,0.035,-0.146,-0.003,-0.074,-0.089,-0.093,-0.05,-0.013
-0.043,-0.164,-0.121,0.103,0.04,-0.142,0.002,-0.068,-0.084,-0.09,-0.054,-0.011
-0.047,-0.142,-0.094,0.094,0.024,-0.117,0.005,-0.065,-0.081,-0.09,-0.051,-0.008
-0.038,-0.107,-0.069,0.073,0.015,-0.087,0.009,-0.06,-0.078,-0.09,-0.047,-0.005
-0.012,-0.097,-0.086,0.055,0.037,-0.091,0.015,-0.055,-0.073,-0.09,-0.044,-0.002
-0.013,-0.091,-0.078,0.052,0.033,-0.084,0.034,-0.059,-0.07,-0.091,-0.041,0.0
-0.016,-0.09,-0.074,0.053,0.029,-0.082,0.035,-0.059,-0.073,-0.087,-0.038,0.003
-0.026,-0.092,-0.066,0.059,0.02,-0.079,0.012,-0.062,-0.076,-0.085,-0.035,0.005
-0.018,-0.088,-0.07,0.053,0.026,-0.079,0.003,-0.065,-0.079,-0.085,-0.035,0.002
0.004,-0.106,-0.11,0.052,0.057,-0.108,0.0,-0.066,-0.081,-0.085,-0.035,-0.001
-0.003,-0.135,-0.133,0.069,0.065,-0.134,-0.005,-0.071,-0.094,-0.085,-0.035,-0.004
-0.009,-0.153,-0.144,0.081,0.068,-0.148,-0.009,-0.068,-0.094,-0.085,-0.035,-0.007
-0.039,-0.177,-0.138,0.108,0.05,-0.157,-0.011,-0.073,-0.096,-0.094,-0.042,-0.009
-0.055,-0.192,-0.137,0.124,0.041,-0.164,-0.009,-0.066,-0.098,-0.097,-0.052,-0.012
-0.049,-0.181,-0.132,0.115,0.042,-0.156,-0.011,-0.074,-0.108,-0.108,-0.055,-0.018
-0.047,-0.176,-0.129,0.112,0.041,-0.152,-0.009,-0.063,-0.106,-0.108,-0.058,-0.028
-0.043,-0.17,-0.127,0.107,0.042,-0.148,-0.011,-0.063,-0.102,-0.102,-0.061,-0.027
-0.037,-0.159,-0.122,0.098,0.042,-0.14,-0.009,-0.058,-0.101,-0.098,-0.064,-0.022
-0.043,-0.173,-0.13,0.108,0.043,-0.151,-0.002,-0.046,-0.084,-0.085,-0.065,-0.021
-0.071,-0.181,-0.111,0.126,0.02,-0.146,0.001,-0.06,-0.1,-0.09,-0.06,-0.014
-0.052,-0.184,-0.132,0.118,0.04,-0.158,0.01,-0.024,-0.062,-0.066,-0.052,-0.014
-0.062,-0.166,-0.103,0.114,0.021,-0.134,0.011,-0.056,-0.104,-0.085,-0.051,-0.007
-0.049,-0.177,-0.127,0.113,0.039,-0.152,0.02,0.02,-0.049,-0.048,-0.037,-0.03
-0.038,-0.154,-0.116,0.096,0.039,-0.135,0.061,0.039,-0.04,-0.077,-0.055,-0.039
-0.002,-0.136,-0.134,0.069,0.066,-0.135,0.179,0.515,0.232,0.089,0.02,-0.014
0.267,0.369,0.102,-0.318,0.082,0.235,-0.083,0.228,0.723,0.81,0.683,0.505
0.399,1.317,0.918,-0.858,-0.26,1.117,-0.734,-1.442,0.697,1.555,1.617,1.37
0.095,1.003,0.908,-0.549,-0.407,0.955,-0.85,-1.672,0.453,1.258,1.226,1.041
-0.295,0.03,0.325,0.132,-0.31,0.177,-0.62,-1.267,-0.451,-0.158,-0.064,0.071
-0.292,-0.197,0.096,0.244,-0.194,-0.05,-0.424,-0.834,-0.731,-0.555,-0.328,-0.127
-0.128,-0.175,-0.047,0.152,-0.041,-0.11,-0.148,-0.101,-0.168,-0.148,-0.104,-0.04
-0.079,-0.16,-0.081,0.12,0.001,-0.12,0.011,0.099,-0.083,-0.131,-0.082,-0.005
-0.033,-0.153,-0.12,0.093,0.044,-0.137,0.056,0.223,0.014,-0.052,-0.031,0.015
-0.04,-0.15,-0.11,0.095,0.035,-0.13,0.074,0.222,0.019,-0.047,-0.036,0.011
-0.032,-0.135,-0.102,0.084,0.035,-0.118,0.075,0.242,0.041,-0.024,-0.021,0.02
-0.014,-0.12,-0.106,0.068,0.046,-0.113,0.075,0.273,0.08,-0.004,-0.013,0.02
-0.014,-0.104,-0.091,0.059,0.039,-0.097,0.076,0.264,0.068,-0.001,-0.002,0.025
-0.004,-0.105,-0.101,0.055,0.049,-0.103,0.079,0.299,0.113,0.037,0.017,0.03
0.01,-0.096,-0.106,0.043,0.058,-0.101,0.088,0.314,0.126,0.044,0.022,0.038
0.01,-0.091,-0.102,0.041,0.056,-0.097,0.092,0.346,0.156,0.064,0.039,0.042
0.007,-0.088,-0.094,0.041,0.051,-0.091,0.09,0.377,0.186,0.083,0.061,0.062
0.017,-0.066,-0.083,0.025,0.05,-0.075,0.088,0.427,0.224,0.113,0.083,0.073
0.021,-0.025,-0.046,0.002,0.034,-0.036,0.097,0.472,0.264,0.139,0.102,0.073
0.042,0.017,-0.026,-0.029,0.034,-0.005,0.121,0.532,0.312,0.174,0.121,0.086
0.065,0.043,-0.022,-0.054,0.043,0.01,0.128,0.618,0.376,0.227,0.162,0.117
0.105,0.095,-0.011,-0.1,0.058,0.042,0.132,0.714,0.456,0.293,0.213,0.147
0.144,0.138,-0.006,-0.14,0.075,0.066,0.139,0.828,0.552,0.371,0.27,0.178
0.17,0.177,0.007,-0.173,0.081,0.092,0.134,0.939,0.658,0.474,0.356,0.239
0.213,0.258,0.044,-0.235,0.084,0.151,0.129,1.026,0.749,0.569,0.441,0.305
0.262,0.324,0.061,-0.293,0.1,0.192,0.124,1.073,0.826,0.656,0.521,0.365
0.297,0.366,0.069,-0.332,0.114,0.217,0.118,1.055,0.856,0.72,0.578,0.412
0.293,0.372,0.079,-0.333,0.107,0.225,0.113,0.989,0.841,0.722,0.592,0.435
0.283,0.35,0.068,-0.317,0.107,0.209,0.107,0.84,0.755,0.675,0.57,0.427
0.214,0.267,0.054,-0.241,0.08,0.16,0.101,0.634,0.585,0.549,0.477,0.366
0.123,0.149,0.027,-0.136,0.048,0.088,0.096,0.433,0.389,0.359,0.324,0.266
0.073,0.052,-0.021,-0.062,0.047,0.015,0.09,0.27,0.221,0.199,0.193,0.166
0.026,-0.036,-0.062,0.005,0.044,-0.049,0.085,0.169,0.107,0.093,0.11,0.103
0.007,-0.073,-0.08,0.033,0.044,-0.076,0.078,0.108,0.035,0.022,0.049,0.06
-0.026,-0.094,-0.068,0.06,0.021,-0.081,0.071,0.07,-0.01,-0.019,0.007,0.023
-0.045,-0.113,-0.068,0.079,0.012,-0.09,0.064,0.049,-0.045,-0.053,-0.016,0.013
-0.038,-0.132,-0.094,0.085,0.028,-0.112,0.056,0.041,-0.066,-0.076,-0.029,0.009
-0.042,-0.149,-0.106,0.096,0.032,-0.127,0.049,0.036,-0.069,-0.075,-0.04,0.004
-0.033,-0.142,-0.11,0.088,0.039,-0.125,0.042,0.031,-0.074,-0.075,-0.047,0.0
-0.019,-0.137,-0.119,0.078,0.05,-0.128,0.038,0.024,-0.075,-0.074,-0.048,-0.004
-0.018,-0.131,-0.113,0.075,0.048,-0.122,0.032,0.021,-0.076,-0.079,-0.057,-0.01
-0.047,-0.129,-0.083,0.088,0.018,-0.106,0.029,0.024,-0.081,-0.092,-0.062,-0.014
-0.051,-0.131,-0.08,0.091,0.015,-0.106,0.023,0.026,-0.08,-0.089,-0.072,-0.027
-0.053,-0.129,-0.076,0.091,0.011,-0.102,0.021,0.029,-0.076,-0.085,-0.085,-0.036
-0.056,-0.133,-0.077,0.095,0.011,-0.104,0.03,0.032,-0.075,-0.083,-0.079,-0.019
-0.029,-0.135,-0.106,0.082,0.039,-0.121,0.029,0.036,-0.07,-0.076,-0.074,-0.013
-0.018,-0.13,-0.111,0.074,0.047,-0.12,0.024,0.04,-0.071,-0.076,-0.068,-0.016
-0.017,-0.126,-0.108,0.072,0.046,-0.117,0.022,0.039,-0.075,-0.078,-0.062,-0.015
-0.021,-0.121,-0.1,0.072,0.04,-0.111,0.017,0.034,-0.077,-0.085,-0.058,-0.015
-0.018,-0.116,-0.098,0.067,0.04,-0.107,0.015,0.032,-0.091,-0.092,-0.055,-0.015
-0.013,-0.117,-0.104,0.065,0.046,-0.11,0.027,0.026,-0.097,-0.09,-0.056,-0.015
-0.02,-0.129,-0.109,0.074,0.045,-0.119,0.037,0.026,-0.094,-0.09,-0.051,-0.01
-0.029,-0.136,-0.107,0.082,0.039,-0.121,0.034,0.035,-0.095,-0.087,-0.05,-0.01
-0.026,-0.138,-0.113,0.082,0.044,-0.125,0.036,0.03,-0.095,-0.084,-0.05,-0.009
-0.018,-0.149,-0.131,0.083,0.057,-0.14,0.04,0.022,-0.095,-0.086,-0.05,-0.005
-0.026,-0.151,-0.125,0.089,0.05,-0.138,0.04,0.016,-0.097,-0.091,-0.05,-0.005
-0.029,-0.148,-0.119,0.089,0.045,-0.134,0.04,0.007,-0.104,-0.1,-0.053,-0.007
-0.028,-0.147,-0.118,0.088,0.046,-0.132,0.04,0.002,-0.11,-0.104,-0.057,-0.01
-0.036,-0.143,-0.108,0.09,0.037,-0.125,0.04,0.004,-0.113,-0.105,-0.053,-0.01
-0.029,-0.147,-0.118,0.088,0.045,-0.132,0.039,0.009,-0.118,-0.105,-0.05,-0.01
-0.022,-0.158,-0.136,0.09,0.057,-0.146,0.035,0.011,-0.12,-0.105,-0.047,-0.01
-0.028,-0.158,-0.13,0.093,0.051,-0.143,0.035,0.015,-0.12,-0.105,-0.044,-0.01
-0.028,-0.153,-0.125,0.091,0.049,-0.139,0.033,0.02,-0.12,-0.107,-0.047,-0.01
-0.03,-0.151,-0.122,0.091,0.046,-0.136,0.029,0.017,-0.12,-0.111,-0.058,-0.01
-0.032,-0.148,-0.116,0.09,0.042,-0.132,0.03,0.015,-0.119,-0.114,-0.065,-0.01
-0.032,-0.145,-0.113,0.089,0.041,-0.128,0.03,0.015,-0.115,-0.118,-0.065,-0.011
-0.038,-0.146,-0.108,0.092,0.035,-0.126,0.03,0.011,-0.115,-0.12,-0.065,-0.009
-0.049,-0.15,-0.102,0.1,0.027,-0.126,0.03,0.009,-0.115,-0.115,-0.064,-0.014
-0.05,-0.15,-0.099,0.1,0.025,-0.124,0.03,0.01,-0.115,-0.115,-0.069,-0.032
-0.059,-0.152,-0.093,0.106,0.017,-0.122,0.03,0.015,-0.115,-0.114,-0.07,-0.035
-0.064,-0.156,-0.092,0.11,0.014,-0.124,0.029,0.018,-0.115,-0.11,-0.065,-0.028
-0.036,-0.153,-0.117,0.094,0.041,-0.135,0.025,0.022,-0.115,-0.11,-0.063,-0.023
-0.034,-0.164,-0.13,0.099,0.048,-0.147,0.025,0.024,-0.115,-0.11,-0.058,-0.017
-0.062,-0.177,-0.115,0.12,0.027,-0.145,0.025,0.031,-0.115,-0.11,-0.055,-0.012
-0.057,-0.173,-0.117,0.115,0.031,-0.145,0.025,0.026,-0.115,-0.11,-0.055,-0.01
-0.031,-0.185,-0.154,0.108,0.062,-0.169,0.037,0.021,-0.114,-0.11,-0.055,-0.01
-0.026,-0.198,-0.172,0.112,0.073,-0.185,0.041,0.043,-0.11,-0.11,-0.055,-0.007
-0.031,-0.195,-0.163,0.113,0.067,-0.179,0.036,0.043,-0.11,-0.109,-0.055,-0.004
-0.034,-0.196,-0.161,0.115,0.064,-0.178,0.035,0.035,-0.109,-0.105,-0.055,-0.006
-0.038,-0.193,-0.155,0.116,0.059,-0.174,0.03,0.034,-0.105,-0.105,-0.055,-0.01
-0.038,-0.19,-0.152,0.114,0.057,-0.171,0.03,0.026,-0.104,-0.105,-0.055,-0.016
-0.043,-0.19,-0.147,0.116,0.052,-0.168,0.03,0.027,-0.111,-0.105,-0.055,-0.023
-0.05,-0.188,-0.138,0.119,0.044,-0.163,0.03,0.032,-0.114,-0.105,-0.055,-0.023
-0.057,-0.184,-0.127,0.121,0.036,-0.155,0.031,0.041,-0.107,-0.102,-0.055,-0.019
-0.051,-0.169,-0.118,0.111,0.033,-0.143,0.029,0.042,-0.101,-0.098,-0.055,-0.017
-0.026,-0.145,-0.119,0.085,0.047,-0.132,0.031,0.039,-0.097,-0.095,-0.051,-0.014
0.002,-0.118,-0.12,0.058,0.061,-0.119,0.024,0.069,-0.091,-0.092,-0.05,-0.011
0.015,-0.106,-0.122,0.046,0.069,-0.113,0.003,0.087,-0.09,-0.088,-0.046,-0.01
0.016,-0.101,-0.117,0.043,0.067,-0.109,-0.023,0.078,-0.084,-0.084,-0.043,-0.015
0.012,-0.125,-0.136,0.057,0.074,-0.13,-0.05,0.057,-0.088,-0.096,-0.041,-0.015
0.016,-0.157,-0.174,0.071,0.095,-0.165,-0.057,0.027,-0.111,-0.112,-0.038,-0.016
0.009,-0.166,-0.175,0.079,0.092,-0.17,-0.054,0.026,-0.112,-0.118,-0.051,-0.021
-0.005,-0.17,-0.165,0.088,0.08,-0.167,-0.054,0.025,-0.107,-0.119,-0.053,-0.018
-0.008,-0.166,-0.158,0.087,0.075,-0.161,-0.05,0.021,-0.123,-0.129,-0.07,-0.028
-0.013,-0.162,-0.149,0.088,0.068,-0.156,-0.049,0.022,-0.129,-0.135,-0.094,-0.037
-0.022,-0.158,-0.136,0.09,0.057,-0.147,-0.055,0.016,-0.131,-0.137,-0.088,-0.033
-0.028,-0.156,-0.127,0.092,0.05,-0.141,-0.062,0.033,-0.119,-0.131,-0.086,-0.052
-0.034,-0.154,-0.12,0.094,0.043,-0.136,-0.061,0.023,-0.129,-0.14,-0.084,-0.05
-0.022,-0.157,-0.135,0.089,0.057,-0.146,-0.055,0.047,-0.112,-0.13,-0.079,-0.042
-0.023,-0.156,-0.132,0.09,0.055,-0.144,-0.056,0.023,-0.123,-0.136,-0.081,-0.036
-0.031,-0.193,-0.163,0.112,0.066,-0.178,-0.048,0.059,-0.101,-0.121,-0.072,-0.026
-0.021,-0.189,-0.168,0.106,0.074,-0.178,-0.052,0.054,-0.093,-0.116,-0.071,-0.022
-0.022,-0.179,-0.157,0.101,0.068,-0.168,-0.042,0.049,-0.095,-0.118,-0.064,-0.005
0.002,-0.177,-0.179,0.088,0.09,-0.178,-0.031,0.097,-0.036,-0.087,-0.075,-0.021
-0.013,-0.159,-0.146,0.086,0.067,-0.152,0.065,0.253,-0.016,-0.114,-0.115,-0.07
0.156,-0.011,-0.167,-0.072,0.161,-0.089,0.076,0.703,0.535,0.379,0.238,0.133
0.404,0.89,0.487,-0.647,-0.042,0.688,-0.449,-0.357,0.8,1.256,1.224,0.997
0.263,1.313,1.05,-0.788,-0.393,1.181,-0.825,-1.455,0.708,1.644,1.632,1.356
-0.139,0.44,0.579,-0.15,-0.359,0.509,-0.639,-1.157,0.193,0.628,0.527,0.445
-0.332,-0.145,0.187,0.238,-0.259,0.021,-0.504,-1.013,-0.76,-0.582,-0.371,-0.162
-0.176,-0.181,-0.006,0.179,-0.084,-0.093,-0.348,-0.407,-0.492,-0.394,-0.243,-0.107
-0.064,-0.145,-0.081,0.104,0.009,-0.112,-0.123,0.072,-0.103,-0.164,-0.146,-0.067
-0.048,-0.106,-0.058,0.077,0.005,-0.081,-0.045,0.184,-0.072,-0.147,-0.116,-0.045
-0.03,-0.095,-0.065,0.063,0.018,-0.08,-0.017,0.282,0.027,-0.089,-0.091,-0.037
-0.011,-0.098,-0.087,0.055,0.038,-0.092,-0.004,0.263,0.014,-0.097,-0.094,-0.02
0.018,-0.117,-0.135,0.05,0.077,-0.126,-0.003,0.328,0.085,-0.035,-0.064,-0.011
0.019,-0.101,-0.12,0.041,0.07,-0.11,0.005,0.314,0.071,-0.046,-0.061,-0.005
0.034,-0.09,-0.124,0.028,0.079,-0.107,0.01,0.341,0.101,-0.023,-0.04,0.003
0.039,-0.067,-0.106,0.014,0.073,-0.086,0.015,0.344,0.116,-0.019,-0.03,0.009
0.041,-0.051,-0.092,0.005,0.067,-0.072,0.024,0.361,0.135,0.001,-0.014,0.016
0.04,-0.044,-0.084,0.002,0.062,-0.064,0.038,0.393,0.169,0.027,-0.002,0.023
0.043,-0.03,-0.073,-0.007,0.059,-0.051,0.04,0.416,0.193,0.047,0.013,0.039
0.054,-0.015,-0.069,-0.019,0.061,-0.041,0.041,0.464,0.237,0.076,0.031,0.051
0.067,0.01,-0.058,-0.038,0.062,-0.024,0.046,0.512,0.285,0.12,0.063,0.063
0.083,0.029,-0.053,-0.056,0.068,-0.012,0.044,0.582,0.345,0.167,0.107,0.086
0.111,0.07,-0.042,-0.09,0.076,0.014,0.041,0.666,0.417,0.223,0.152,0.118
0.16,0.129,-0.031,-0.144,0.095,0.049,0.04,0.753,0.501,0.301,0.205,0.147
0.19,0.176,-0.013,-0.183,0.101,0.081,0.039,0.845,0.596,0.384,0.277,0.2
0.232,0.257,0.025,-0.245,0.104,0.141,0.035,0.932,0.693,0.492,0.366,0.267
0.279,0.328,0.049,-0.304,0.115,0.188,0.035,0.992,0.777,0.587,0.445,0.329
0.299,0.355,0.057,-0.327,0.121,0.206,0.037,1.019,0.84,0.674,0.524,0.392
0.32,0.388,0.068,-0.355,0.126,0.228,0.04,1.003,0.845,0.701,0.566,0.416
0.297,0.381,0.084,-0.339,0.106,0.232,0.04,0.91,0.796,0.669,0.549,0.412
0.256,0.331,0.075,-0.294,0.09,0.203,0.04,0.757,0.676,0.583,0.482,0.381
0.19,0.218,0.028,-0.204,0.081,0.123,0.052,0.587,0.494,0.403,0.345,0.286
0.081,0.072,-0.009,-0.076,0.044,0.031,0.055,0.422,0.316,0.224,0.2,0.177
0.036,-0.003,-0.039,-0.016,0.037,-0.021,0.048,0.291,0.169,0.085,0.085,0.104
0.018,-0.044,-0.063,0.013,0.041,-0.053,0.044,0.201,0.067,-0.016,0.01,0.045
-0.021,-0.081,-0.061,0.051,0.02,-0.071,0.038,0.147,0.015,-0.075,-0.044,0.003
-0.041,-0.099,-0.058,0.07,0.008,-0.078,0.032,0.116,-0.028,-0.109,-0.081,-0.018
-0.046,-0.1,-0.054,0.074,0.004,-0.077,0.028,0.107,-0.059,-0.13,-0.098,-0.036
-0.05,-0.1,-0.05,0.075,0.0,-0.075,0.024,0.106,-0.06,-0.144,-0.107,-0.042
-0.053,-0.101,-0.047,0.077,-0.003,-0.074,0.022,0.101,-0.06,-0.148,-0.103,-0.037
-0.055,-0.098,-0.043,0.077,-0.006,-0.07,0.019,0.097,-0.06,-0.154,-0.114,-0.052
-0.04,-0.116,-0.076,0.078,0.018,-0.096,0.016,0.095,-0.06,-0.155,-0.121,-0.061
-0.024,-0.125,-0.101,0.075,0.039,-0.112,0.014,0.099,-0.061,-0.155,-0.12,-0.053
-0.026,-0.115,-0.089,0.071,0.032,-0.102,0.01,0.101,-0.057,-0.155,-0.118,-0.05
-0.027,-0.109,-0.082,0.068,0.028,-0.096,0.01,0.104,-0.055,-0.155,-0.115,-0.045
-0.03,-0.103,-0.073,0.067,0.022,-0.088,0.009,0.107,-0.052,-0.154,-0.115,-0.04
-0.023,-0.095,-0.072,0.059,0.025,-0.083,0.005,0.11,-0.049,-0.15,-0.112,-0.037
-0.029,-0.107,-0.078,0.068,0.025,-0.092,0.005,0.107,-0.046,-0.148,-0.109,-0.034
-0.05,-0.143,-0.093,0.096,0.022,-0.118,0.003,0.104,-0.045,-0.145,-0.107,-0.031
-0.049,-0.151,-0.102,0.1,0.027,-0.126,-0.001,0.105,-0.05,-0.142,-0.103,-0.028
-0.044,-0.142,-0.099,0.093,0.028,-0.12,-0.003,0.101,-0.052,-0.139,-0.1,-0.025
-0.04,-0.141,-0.101,0.09,0.03,-0.121,-0.006,0.1,-0.056,-0.144,-0.1,-0.025
-0.034,-0.134,-0.1,0.084,0.033,-0.117,-0.009,0.1,-0.059,-0.147,-0.099,-0.033
-0.031,-0.131,-0.1,0.081,0.034,-0.115,-0.011,0.094,-0.064,-0.152,-0.116,-0.038
-0.039,-0.133,-0.094,0.086,0.028,-0.113,-0.015,0.087,-0.076,-0.163,-0.131,-0.042
-0.054,-0.137,-0.083,0.095,0.015,-0.11,-0.013,0.081,-0.082,-0.167,-0.134,-0.052
-0.057,-0.14,-0.083,0.098,0.013,-0.111,-0.009,0.075,-0.09,-0.179,-0.14,-0.051
-0.059,-0.143,-0.084,0.102,0.013,-0.113,-0.01,0.067,-0.096,-0.186,-0.139,-0.047
-0.049,-0.147,-0.098,0.098,0.025,-0.122,-0.006,0.067,-0.095,-0.184,-0.141,-0.045
-0.029,-0.151,-0.122,0.091,0.047,-0.136,-0.004,0.073,-0.095,-0.188,-0.145,-0.041
-0.036,-0.163,-0.127,0.1,0.046,-0.145,-0.006,0.071,-0.091,-0.19,-0.145,-0.039
-0.037,-0.167,-0.129,0.102,0.046,-0.148,-0.01,0.068,-0.089,-0.19,-0.145,-0.045
-0.029,-0.165,-0.136,0.097,0.054,-0.15,-0.01,0.065,-0.091,-0.194,-0.145,-0.054
-0.035,-0.165,-0.13,0.1,0.048,-0.147,-0.011,0.062,-0.094,-0.195,-0.145,-0.058
-0.043,-0.165,-0.122,0.104,0.04,-0.143,-0.015,0.06,-0.095,-0.195,-0.145,-0.063
-0.049,-0.163,-0.114,0.106,0.033,-0.139,-0.015,0.06,-0.095,-0.199,-0.145,-0.064
-0.043,-0.14,-0.097,0.091,0.028,-0.118,-0.013,0.06,-0.109,-0.2,-0.156,-0.059
-0.034,-0.127,-0.094,0.081,0.03,-0.11,-0.01,0.059,-0.118,-0.198,-0.16,-0.054
-0.044,-0.137,-0.094,0.091,0.025,-0.115,-0.01,0.061,-0.114,-0.195,-0.155,-0.049
-0.038,-0.14,-0.102,0.089,0.032,-0.121,-0.007,0.059,-0.111,-0.192,-0.152,-0.045
-0.035,-0.149,-0.114,0.092,0.04,-0.131,-0.004,0.061,-0.108,-0.19,-0.148,-0.039
-0.047,-0.156,-0.109,0.102,0.031,-0.132,-0.006,0.064,-0.103,-0.186,-0.145,-0.048
-0.052,-0.151,-0.099,0.102,0.023,-0.125,-0.003,0.067,-0.1,-0.184,-0.14,-0.052
-0.052,-0.149,-0.097,0.101,0.023,-0.122,-0.008,0.07,-0.096,-0.182,-0.142,-0.049
-0.06,-0.144,-0.084,0.102,0.013,-0.114,0.004,0.072,-0.089,-0.179,-0.146,-0.05
-0.051,-0.141,-0.09,0.097,0.02,-0.116,0.03,0.095,-0.082,-0.176,-0.144,-0.045
-0.026,-0.134,-0.107,0.08,0.041,-0.12,0.025,0.1,-0.076,-0.173,-0.141,-0.044
-0.032,-0.106,-0.074,0.069,0.021,-0.089,0.015,0.102,-0.069,-0.17,-0.139,-0.047
0.003,-0.087,-0.09,0.043,0.047,-0.088,0.009,0.118,-0.066,-0.171,-0.136,-0.05
0.015,-0.088,-0.104,0.037,0.06,-0.096,0.0,0.107,-0.072,-0.177,-0.133,-0.05
0.007,-0.093,-0.1,0.043,0.054,-0.096,-0.008,0.095,-0.072,-0.18,-0.129,-0.05
0.027,-0.105,-0.132,0.039,0.08,-0.118,-0.023,0.078,-0.09,-0.185,-0.134,-0.05
0.013,-0.126,-0.139,0.057,0.077,-0.133,-0.027,0.065,-0.116,-0.188,-0.148,-0.05
0.008,-0.137,-0.145,0.065,0.077,-0.141,-0.023,0.065,-0.118,-0.197,-0.156,-0.055
-0.023,-0.122,-0.099,0.073,0.039,-0.11,-0.017,0.059,-0.115,-0.217,-0.167,-0.065
-0.049,-0.135,-0.087,0.092,0.019,-0.111,-0.013,0.062,-0.106,-0.218,-0.17,-0.071
-0.038,-0.158,-0.12,0.098,0.041,-0.139,-0.009,0.05,-0.11,-0.223,-0.171,-0.069
-0.037,-0.155,-0.118,0.096,0.041,-0.137,-0.004,0.061,-0.095,-0.216,-0.168,-0.071
-0.026,-0.143,-0.117,0.085,0.045,-0.129,-0.002,0.049,-0.109,-0.224,-0.166,-0.069
-0.016,-0.142,-0.126,0.079,0.055,-0.133,0.003,0.06,-0.101,-0.217,-0.164,-0.071
-0.042,-0.131,-0.089,0.087,0.024,-0.11,0.004,0.052,-0.106,-0.217,-0.164,-0.066
-0.064,-0.126,-0.062,0.095,-0.001,-0.094,0.008,0.052,-0.109,-0.209,-0.158,-0.063
-0.077,-0.13,-0.053,0.104,-0.011,-0.091,0.009,0.064,-0.087,-0.194,-0.155,-0.061
-0.075,-0.115,-0.04,0.095,-0.017,-0.077,0.013,0.056,-0.119,-0.209,-0.155,-0.055
-0.021,-0.161,-0.139,0.091,0.059,-0.15,0.017,0.133,-0.048,-0.16,-0.143,-0.058
-0.057,-0.184,-0.127,0.121,0.035,-0.155,0.106,0.23,-0.046,-0.208,-0.182,-0.088
0.066,-0.084,-0.15,0.009,0.108,-0.117,0.182,0.689,0.447,0.203,0.079,0.036
0.335,0.712,0.377,-0.524,-0.022,0.544,-0.259,-0.066,0.813,1.076,1.007,0.82
0.258,1.334,1.076,-0.796,-0.409,1.205,-0.716,-1.304,0.722,1.599,1.599,1.332
-0.113,0.555,0.669,-0.221,-0.391,0.612,-0.562,-1.074,0.354,0.798,0.67,0.558
-0.345,-0.134,0.211,0.239,-0.278,0.038,-0.409,-0.939,-0.661,-0.583,-0.393,-0.15
-0.227,-0.173,0.054,0.2,-0.14,-0.059,-0.309,-0.499,-0.597,-0.569,-0.355,-0.155
-0.107,-0.151,-0.044,0.129,-0.032,-0.097,-0.086,0.078,-0.112,-0.25,-0.196,-0.082
-0.052,-0.105,-0.053,0.079,0.001,-0.079,0.023,0.198,-0.081,-0.227,-0.169,-0.038
0.001,-0.104,-0.104,0.052,0.053,-0.104,0.063,0.317,0.033,-0.143,-0.131,-0.029
-0.014,-0.085,-0.071,0.05,0.029,-0.078,0.072,0.287,0.008,-0.167,-0.132,-0.022
-0.019,-0.084,-0.066,0.052,0.024,-0.075,0.075,0.329,0.056,-0.115,-0.107,-0.012
0.003,-0.075,-0.078,0.037,0.041,-0.076,0.082,0.327,0.06,-0.116,-0.105,-0.007
0.028,-0.069,-0.096,0.021,0.062,-0.082,0.083,0.351,0.082,-0.092,-0.081,0.003
0.032,-0.064,-0.095,0.016,0.064,-0.079,0.09,0.374,0.11,-0.071,-0.058,0.011
0.04,-0.056,-0.096,0.008,0.068,-0.075,0.09,0.382,0.125,-0.05,-0.041,0.024
0.05,-0.053,-0.102,0.001,0.076,-0.077,0.094,0.422,0.165,-0.016,-0.031,0.037
0.055,-0.044,-0.099,-0.005,0.077,-0.071,0.097,0.442,0.188,0.008,-0.011,0.048
0.053,-0.042,-0.095,-0.005,0.074,-0.068,0.099,0.488,0.233,0.039,0.022,0.06
0.065,-0.014,-0.079,-0.025,0.072,-0.046,0.104,0.538,0.282,0.081,0.049,0.087
0.074,0.022,-0.052,-0.047,0.063,-0.015,0.104,0.597,0.335,0.12,0.074,0.104
0.116,0.082,-0.034,-0.099,0.075,0.024,0.11,0.666,0.396,0.173,0.114,0.117
0.168,0.134,-0.034,-0.15,0.101,0.049,0.11,0.756,0.481,0.257,0.172,0.155
0.188,0.15,-0.038,-0.168,0.113,0.055,0.105,0.861,0.583,0.352,0.25,0.22
0.241,0.202,-0.039,-0.221,0.14,0.081,0.093,0.954,0.696,0.469,0.35,0.288
0.274,0.273,-0.001,-0.273,0.137,0.136,0.08,1.021,0.786,0.566,0.44,0.353
0.301,0.336,0.035,-0.319,0.133,0.186,0.073,1.035,0.837,0.645,0.514,0.418
0.321,0.366,0.045,-0.344,0.138,0.205,0.059,1.01,0.852,0.669,0.546,0.444
0.287,0.359,0.072,-0.323,0.107,0.215,0.065,0.94,0.801,0.641,0.526,0.432
0.247,0.325,0.078,-0.286,0.084,0.202,0.047,0.779,0.662,0.55,0.459,0.392
0.181,0.235,0.053,-0.208,0.064,0.144,0.06,0.599,0.469,0.356,0.318,0.299
0.117,0.136,0.019,-0.127,0.048,0.078,0.035,0.443,0.276,0.167,0.156,0.186
0.056,0.049,-0.006,-0.052,0.03,0.022,0.058,0.308,0.128,0.021,0.042,0.107
0.013,-0.041,-0.054,0.015,0.033,-0.047,0.011,0.23,0.079,-0.057,-0.022,0.06
