-0.091,-0.039,0.052,0.065,-0.071,0.006,-0.111,-0.138,-0.164,-0.029,0.02,-0.019
-0.06,-0.05,0.01,0.055,-0.035,-0.02,-0.066,-0.048,-0.143,-0.012,0.028,-0.036
-0.077,-0.072,0.006,0.074,-0.042,-0.033,-0.017,0.034,-0.113,0.007,0.042,-0.029
-0.041,-0.066,-0.025,0.054,-0.008,-0.045,0.003,0.037,-0.108,0.004,0.038,-0.025
-0.016,-0.064,-0.048,0.04,0.017,-0.056,0.009,0.067,-0.105,0.005,0.043,-0.018
-0.039,-0.059,-0.021,0.049,-0.009,-0.04,0.016,0.071,-0.101,0.005,0.045,-0.013
-0.075,-0.056,0.019,0.065,-0.046,-0.018,0.02,0.069,-0.098,0.004,0.045,-0.008
-0.092,-0.053,0.039,0.072,-0.065,-0.006,0.02,0.072,-0.094,0.01,0.046,-0.002
-0.051,-0.046,0.006,0.049,-0.028,-0.02,0.02,0.069,-0.091,0.02,0.044,0.003
-0.04,-0.041,-0.001,0.041,-0.019,-0.021,0.02,0.071,-0.086,0.022,0.046,0.01
-0.047,-0.036,0.011,0.041,-0.029,-0.012,0.02,0.07,-0.084,0.027,0.043,0.009
-0.015,-0.03,-0.015,0.023,0.001,-0.022,0.02,0.077,-0.079,0.03,0.049,0.011
-0.029,-0.025,0.004,0.027,-0.016,-0.011,0.016,0.096,-0.076,0.037,0.058,0.008
-0.011,-0.033,-0.022,0.022,0.005,-0.027,0.011,0.113,-0.072,0.046,0.063,0.013
0.007,-0.038,-0.045,0.015,0.026,-0.041,0.009,0.112,-0.064,0.044,0.071,0.022
-0.013,-0.031,-0.018,0.022,0.003,-0.024,0.004,0.127,-0.057,0.064,0.081,0.028
0.019,-0.012,-0.031,-0.003,0.025,-0.021,0.002,0.151,-0.051,0.084,0.096,0.05
0.031,0.015,-0.016,-0.023,0.023,0.0,-0.005,0.173,-0.039,0.1,0.113,0.061
0.013,0.045,0.032,-0.029,-0.009,0.038,-0.014,0.202,-0.016,0.134,0.134,0.088
0.03,0.079,0.049,-0.054,-0.01,0.064,-0.029,0.243,0.011,0.169,0.17,0.122
0.081,0.111,0.03,-0.096,0.025,0.07,-0.049,0.29,0.043,0.205,0.225,0.146
0.114,0.158,0.043,-0.137,0.035,0.1,-0.054,0.3,0.067,0.245,0.262,0.189
0.125,0.196,0.071,-0.16,0.027,0.133,-0.068,0.291,0.08,0.276,0.29,0.238
0.136,0.204,0.068,-0.17,0.034,0.136,-0.081,0.287,0.088,0.292,0.316,0.271
0.116,0.2,0.084,-0.158,0.016,0.142,-0.074,0.281,0.081,0.289,0.31,0.262
0.102,0.19,0.088,-0.147,0.007,0.139,-0.067,0.274,0.072,0.273,0.281,0.249
0.077,0.163,0.086,-0.12,-0.005,0.124,-0.061,0.25,0.064,0.252,0.236,0.221
0.048,0.117,0.068,-0.082,-0.01,0.092,-0.043,0.206,0.049,0.223,0.197,0.181
0.031,0.072,0.04,-0.051,-0.005,0.056,-0.023,0.155,0.026,0.174,0.164,0.147
-0.005,0.031,0.037,-0.013,-0.021,0.034,-0.018,0.111,0.001,0.13,0.131,0.104
-0.017,0.004,0.021,0.007,-0.019,0.012,-0.015,0.088,-0.027,0.116,0.099,0.082
-0.027,-0.006,0.021,0.016,-0.024,0.007,-0.012,0.073,-0.05,0.11,0.074,0.072
-0.017,-0.012,0.005,0.014,-0.011,-0.004,-0.007,0.06,-0.051,0.099,0.069,0.067
-0.014,-0.02,-0.005,0.017,-0.004,-0.012,-0.005,0.058,-0.05,0.092,0.067,0.071
-0.036,-0.028,0.008,0.032,-0.022,-0.01,-0.015,0.054,-0.05,0.094,0.064,0.07
-0.017,-0.033,-0.017,0.025,0.0,-0.025,-0.016,0.052,-0.05,0.096,0.061,0.07
-0.01,-0.031,-0.021,0.021,0.005,-0.026,-0.014,0.045,-0.05,0.094,0.06,0.071
-0.034,-0.03,0.005,0.032,-0.019,-0.012,-0.015,0.05,-0.047,0.099,0.067,0.076
-0.053,-0.03,0.023,0.042,-0.038,-0.003,-0.015,0.061,-0.041,0.102,0.066,0.09
-0.057,-0.03,0.028,0.043,-0.042,0.0,-0.014,0.056,-0.037,0.1,0.065,0.097
-0.051,-0.031,0.021,0.041,-0.036,-0.005,-0.023,0.054,-0.032,0.1,0.064,0.089
-0.049,-0.027,0.022,0.038,-0.035,-0.003,-0.043,0.049,-0.028,0.1,0.059,0.082
-0.036,-0.025,0.012,0.03,-0.023,-0.006,-0.052,0.046,-0.024,0.1,0.06,0.075
-0.02,-0.025,-0.005,0.023,-0.007,-0.015,-0.056,0.043,-0.019,0.1,0.058,0.067
-0.016,-0.022,-0.006,0.019,-0.005,-0.013,-0.059,0.036,-0.027,0.095,0.053,0.061
-0.018,-0.019,-0.001,0.019,-0.009,-0.01,-0.06,0.031,-0.038,0.095,0.05,0.07
-0.022,-0.021,0.001,0.021,-0.012,-0.01,-0.063,0.025,-0.045,0.095,0.046,0.081
-0.029,-0.024,0.005,0.026,-0.016,-0.01,-0.066,0.02,-0.053,0.095,0.043,0.078
-0.045,-0.026,0.019,0.035,-0.031,-0.003,-0.062,0.014,-0.059,0.095,0.038,0.085
-0.051,-0.024,0.026,0.037,-0.038,0.001,-0.06,0.009,-0.064,0.092,0.052,0.093
-0.045,-0.028,0.017,0.036,-0.03,-0.005,-0.059,0.002,-0.066,0.09,0.066,0.09
-0.053,-0.037,0.015,0.045,-0.034,-0.011,-0.062,-0.002,-0.07,0.087,0.061,0.086
-0.05,-0.041,0.01,0.045,-0.03,-0.015,-0.082,-0.009,-0.069,0.084,0.059,0.084
-0.044,-0.04,0.004,0.041,-0.024,-0.017,-0.086,-0.026,-0.065,0.08,0.054,0.08
-0.067,-0.04,0.027,0.053,-0.047,-0.006,-0.084,-0.031,-0.063,0.08,0.051,0.081
-0.077,-0.04,0.037,0.058,-0.057,-0.001,-0.086,-0.029,-0.06,0.086,0.048,0.082
-0.05,-0.041,0.009,0.045,-0.03,-0.015,-0.085,-0.03,-0.057,0.085,0.042,0.08
-0.025,-0.038,-0.012,0.032,-0.006,-0.025,-0.084,-0.03,-0.054,0.085,0.037,0.08
-0.028,-0.034,-0.006,0.031,-0.01,-0.02,-0.079,-0.035,-0.059,0.085,0.034,0.077
-0.051,-0.036,0.016,0.043,-0.033,-0.01,-0.081,-0.049,-0.06,0.084,0.028,0.074
-0.059,-0.031,0.028,0.045,-0.043,-0.001,-0.077,-0.048,-0.06,0.086,0.025,0.076
-0.059,-0.03,0.028,0.044,-0.043,-0.001,-0.074,-0.035,-0.065,0.089,0.032,0.081
-0.039,-0.029,0.01,0.034,-0.024,-0.009,-0.076,-0.032,-0.065,0.092,0.031,0.08
-0.025,-0.026,-0.001,0.025,-0.011,-0.013,-0.071,-0.026,-0.066,0.094,0.029,0.073
-0.047,-0.023,0.024,0.035,-0.035,0.0,-0.07,-0.023,-0.07,0.098,0.031,0.069
-0.053,-0.02,0.033,0.037,-0.043,0.006,-0.064,-0.017,-0.07,0.1,0.029,0.063
-0.044,-0.018,0.026,0.031,-0.035,0.004,-0.069,-0.016,-0.07,0.098,0.031,0.056
-0.038,-0.013,0.026,0.025,-0.031,0.006,-0.088,-0.02,-0.07,0.091,0.027,0.062
-0.048,-0.027,0.021,0.037,-0.034,-0.003,-0.09,-0.021,-0.07,0.087,0.025,0.065
-0.053,-0.035,0.018,0.044,-0.035,-0.008,-0.09,-0.019,-0.066,0.081,0.025,0.072
-0.056,-0.027,0.029,0.041,-0.043,0.001,-0.09,-0.021,-0.065,0.074,0.024,0.086
-0.057,-0.023,0.033,0.04,-0.045,0.005,-0.089,-0.013,-0.065,0.07,0.025,0.085
-0.03,-0.015,0.014,0.022,-0.022,-0.001,-0.09,-0.009,-0.065,0.064,0.024,0.084
-0.033,-0.012,0.021,0.023,-0.027,0.004,-0.084,-0.034,-0.065,0.066,0.021,0.081
-0.051,-0.003,0.048,0.027,-0.05,0.023,-0.078,-0.033,-0.064,0.063,0.018,0.078
-0.049,0.007,0.056,0.021,-0.053,0.032,-0.07,-0.014,-0.056,0.071,0.027,0.083
-0.039,0.025,0.065,0.007,-0.052,0.045,-0.065,-0.004,-0.048,0.086,0.045,0.092
-0.032,0.041,0.073,-0.005,-0.053,0.057,-0.056,0.013,-0.048,0.094,0.048,0.103
-0.027,0.031,0.058,-0.002,-0.043,0.044,-0.06,0.024,-0.05,0.107,0.051,0.114
-0.029,0.028,0.057,0.001,-0.043,0.042,-0.095,0.015,-0.052,0.104,0.056,0.113
-0.028,0.017,0.046,0.005,-0.037,0.031,-0.107,0.015,-0.056,0.095,0.049,0.105
-0.009,0.015,0.024,-0.003,-0.017,0.019,-0.103,-0.007,-0.054,0.088,0.044,0.104
0.003,0.005,0.001,-0.004,0.001,0.003,-0.112,-0.025,-0.06,0.082,0.038,0.097
0.008,-0.004,-0.012,-0.002,0.01,-0.008,-0.114,-0.035,-0.082,0.071,0.031,0.093
-0.047,-0.016,0.031,0.031,-0.038,0.007,-0.116,-0.034,-0.078,0.073,0.03,0.089
-0.093,-0.03,0.063,0.061,-0.078,0.017,-0.106,-0.066,-0.081,0.066,0.015,0.08
-0.068,-0.021,0.047,0.045,-0.057,0.013,-0.111,-0.059,-0.081,0.069,0.015,0.081
-0.05,-0.029,0.021,0.039,-0.035,-0.004,-0.095,-0.05,-0.069,0.062,-0.002,0.067
-0.072,-0.003,0.07,0.037,-0.071,0.033,-0.017,0.076,-0.027,0.069,0.0,0.069
-0.002,0.024,0.026,-0.011,-0.015,0.025,0.017,0.402,0.124,0.191,0.079,0.111
0.346,0.475,0.129,-0.411,0.109,0.302,-0.336,-0.388,0.365,0.637,0.566,0.56
0.532,0.855,0.323,-0.694,0.104,0.589,-0.909,-1.423,0.458,1.048,1.034,0.994
0.228,0.299,0.071,-0.264,0.078,0.185,-0.803,-1.109,0.04,0.476,0.458,0.492
-0.094,-0.099,-0.005,0.096,-0.044,-0.051,-0.306,-0.554,-0.274,-0.093,-0.103,0.029
-0.13,-0.046,0.084,0.087,-0.107,0.019,-0.133,-0.208,-0.147,0.023,-0.028,0.077
-0.074,-0.066,0.008,0.07,-0.041,-0.029,-0.079,-0.046,-0.104,0.033,-0.02,0.058
-0.096,-0.048,0.047,0.072,-0.071,0.0,-0.044,-0.032,-0.091,0.033,-0.008,0.063
-0.099,-0.052,0.047,0.075,-0.073,-0.002,-0.039,-0.003,-0.08,0.042,-0.009,0.059
-0.08,-0.045,0.035,0.062,-0.057,-0.005,-0.031,-0.013,-0.082,0.04,-0.013,0.052
-0.072,-0.042,0.03,0.057,-0.051,-0.005,-0.03,0.006,-0.068,0.05,-0.007,0.059
-0.071,-0.04,0.031,0.055,-0.051,-0.005,-0.022,0.005,-0.071,0.04,-0.013,0.057
-0.08,-0.033,0.047,0.056,-0.063,0.007,-0.022,0.014,-0.06,0.049,-0.003,0.066
-0.077,-0.034,0.044,0.055,-0.06,0.005,-0.021,0.017,-0.059,0.042,-0.006,0.063
-0.078,-0.026,0.052,0.052,-0.064,0.013,-0.02,0.024,-0.053,0.047,0.001,0.067
-0.07,-0.026,0.044,0.047,-0.056,0.009,-0.02,0.028,-0.049,0.044,0.002,0.064
-0.063,-0.018,0.046,0.04,-0.054,0.014,-0.017,0.035,-0.044,0.046,0.005,0.066
-0.051,-0.007,0.044,0.029,-0.047,0.018,-0.014,0.055,-0.04,0.044,0.008,0.08
-0.037,0.002,0.039,0.018,-0.038,0.02,-0.015,0.058,-0.038,0.053,0.016,0.086
-0.027,0.014,0.041,0.007,-0.035,0.027,-0.025,0.073,-0.033,0.06,0.024,0.085
-0.011,0.025,0.036,-0.007,-0.023,0.03,-0.036,0.091,-0.032,0.068,0.032,0.084
-0.01,0.038,0.048,-0.015,-0.029,0.043,-0.037,0.111,-0.024,0.091,0.039,0.097
-0.015,0.055,0.069,-0.02,-0.042,0.062,-0.043,0.141,-0.002,0.108,0.052,0.123
0.019,0.08,0.061,-0.05,-0.021,0.071,-0.052,0.171,0.017,0.136,0.086,0.137
0.057,0.121,0.064,-0.089,-0.004,0.092,-0.066,0.207,0.037,0.176,0.13,0.165
0.082,0.168,0.086,-0.125,-0.002,0.127,-0.093,0.237,0.071,0.216,0.173,0.207
0.118,0.214,0.095,-0.166,0.011,0.154,-0.104,0.251,0.097,0.248,0.207,0.239
0.123,0.244,0.121,-0.184,0.001,0.182,-0.117,0.251,0.116,0.276,0.242,0.269
0.131,0.26,0.129,-0.196,0.001,0.194,-0.128,0.247,0.128,0.284,0.264,0.274
0.143,0.26,0.117,-0.202,0.013,0.188,-0.117,0.238,0.122,0.276,0.253,0.256
0.128,0.243,0.114,-0.186,0.007,0.178,-0.108,0.207,0.113,0.262,0.232,0.238
0.106,0.204,0.098,-0.155,0.004,0.151,-0.097,0.17,0.099,0.227,0.202,0.199
0.067,0.139,0.072,-0.103,-0.003,0.106,-0.084,0.131,0.071,0.183,0.155,0.153
0.031,0.086,0.055,-0.059,-0.012,0.07,-0.069,0.089,0.034,0.141,0.105,0.119
0.011,0.052,0.041,-0.032,-0.016,0.047,-0.063,0.057,0.002,0.109,0.064,0.105
0.004,0.035,0.031,-0.019,-0.014,0.032,-0.065,0.039,-0.015,0.089,0.043,0.1
0.0,0.028,0.028,-0.014,-0.014,0.028,-0.065,0.027,-0.031,0.075,0.039,0.092
-0.003,0.021,0.024,-0.009,-0.014,0.022,-0.068,0.019,-0.043,0.063,0.034,0.085
-0.007,0.014,0.022,-0.004,-0.014,0.018,-0.071,0.01,-0.051,0.059,0.028,0.078
-0.008,0.007,0.015,0.0,-0.012,0.011,-0.069,0.001,-0.053,0.06,0.022,0.07
-0.017,0.001,0.018,0.008,-0.018,0.009,-0.065,0.004,-0.048,0.06,0.022,0.064
-0.033,0.005,0.038,0.014,-0.036,0.021,-0.065,0.009,-0.045,0.06,0.026,0.054
-0.021,0.02,0.041,0.001,-0.031,0.03,-0.064,0.011,-0.042,0.059,0.029,0.053
-0.012,0.028,0.04,-0.008,-0.026,0.033,-0.06,0.015,-0.037,0.056,0.033,0.065
-0.015,0.025,0.04,-0.005,-0.028,0.032,-0.06,0.02,-0.035,0.051,0.035,0.062
-0.02,0.02,0.04,0.0,-0.03,0.03,-0.062,0.017,-0.045,0.049,0.03,0.055
-0.021,0.018,0.039,0.002,-0.03,0.028,-0.065,0.009,-0.055,0.044,0.026,0.052
-0.019,0.014,0.033,0.003,-0.026,0.023,-0.065,0.003,-0.059,0.041,0.024,0.044
-0.017,0.009,0.025,0.004,-0.021,0.017,-0.065,-0.005,-0.067,0.037,0.019,0.042
-0.002,0.018,0.019,-0.008,-0.011,0.018,-0.065,-0.013,-0.07,0.031,0.015,0.043
0.015,0.027,0.012,-0.021,0.001,0.02,-0.065,-0.019,-0.07,0.026,0.015,0.054
0.018,0.023,0.006,-0.021,0.006,0.014,-0.065,-0.025,-0.07,0.021,0.015,0.065
0.001,0.021,0.02,-0.012,-0.01,0.02,-0.065,-0.025,-0.07,0.015,0.015,0.065
-0.003,0.018,0.021,-0.008,-0.012,0.019,-0.065,-0.025,-0.077,0.01,0.015,0.065
0.005,0.015,0.01,-0.011,-0.003,0.012,-0.065,-0.025,-0.082,0.005,0.015,0.065
0.01,0.014,0.004,-0.012,0.003,0.009,-0.065,-0.025,-0.085,0.005,0.015,0.065
0.012,0.008,-0.005,-0.01,0.008,0.001,-0.065,-0.028,-0.091,0.005,0.01,0.064
-0.017,0.001,0.017,0.008,-0.017,0.009,-0.065,-0.031,-0.098,0.005,0.006,0.061
-0.041,-0.006,0.035,0.023,-0.038,0.015,-0.065,-0.035,-0.098,0.006,0.004,0.058
-0.037,-0.013,0.024,0.025,-0.03,0.005,-0.065,-0.043,-0.094,0.002,-0.001,0.055
-0.039,-0.019,0.02,0.029,-0.029,0.001,-0.065,-0.045,-0.092,0.0,-0.004,0.052
-0.034,-0.024,0.01,0.029,-0.022,-0.006,-0.06,-0.045,-0.089,0.0,-0.005,0.049
-0.029,-0.025,0.004,0.027,-0.016,-0.01,-0.06,-0.045,-0.085,-0.004,-0.005,0.052
-0.03,-0.025,0.006,0.027,-0.018,-0.009,-0.059,-0.045,-0.085,-0.005,-0.005,0.056
-0.014,-0.025,-0.011,0.02,-0.001,-0.018,-0.055,-0.046,-0.09,-0.005,-0.005,0.054
-0.01,-0.025,-0.015,0.018,0.003,-0.02,-0.054,-0.049,-0.09,-0.01,-0.006,0.056
-0.018,-0.026,-0.008,0.022,-0.005,-0.017,-0.058,-0.05,-0.09,-0.013,-0.009,0.061
-0.024,-0.03,-0.006,0.028,-0.009,-0.018,-0.06,-0.05,-0.09,-0.017,-0.01,0.057
-0.028,-0.03,-0.002,0.029,-0.013,-0.016,-0.056,-0.05,-0.093,-0.02,-0.01,0.051
-0.035,-0.03,0.005,0.032,-0.02,-0.012,-0.053,-0.05,-0.097,-0.025,-0.01,0.048
-0.044,-0.031,0.013,0.037,-0.029,-0.008,-0.05,-0.048,-0.093,-0.023,-0.01,0.042
-0.032,-0.029,0.004,0.03,-0.018,-0.012,-0.047,-0.04,-0.09,-0.016,-0.008,0.041
-0.017,-0.034,-0.017,0.026,0.0,-0.025,-0.045,-0.035,-0.087,-0.012,-0.002,0.045
-0.017,-0.034,-0.017,0.025,0.0,-0.025,-0.043,-0.027,-0.085,-0.005,0.003,0.048
-0.018,-0.006,0.012,0.012,-0.015,0.002,-0.039,-0.02,-0.082,0.0,0.006,0.051
-0.013,0.023,0.036,-0.005,-0.024,0.029,-0.039,-0.016,-0.073,0.005,0.012,0.056
0.001,0.017,0.016,-0.009,-0.008,0.017,-0.034,-0.008,-0.061,-0.002,0.015,0.05
0.024,0.037,0.013,-0.031,0.006,0.025,-0.037,-0.012,-0.056,-0.01,0.022,0.046
0.033,0.047,0.014,-0.041,0.01,0.03,-0.058,0.001,-0.052,-0.017,0.031,0.039
0.039,0.02,-0.019,-0.029,0.028,0.001,-0.061,-0.017,-0.067,-0.028,0.032,0.035
0.054,-0.004,-0.058,-0.025,0.056,-0.03,-0.06,-0.044,-0.096,-0.026,0.017,0.028
0.026,-0.015,-0.041,-0.005,0.034,-0.028,-0.06,-0.068,-0.11,-0.028,0.001,0.023
-0.005,-0.03,-0.025,0.017,0.01,-0.027,-0.06,-0.054,-0.105,-0.02,-0.001,0.02
-0.014,-0.051,-0.037,0.033,0.012,-0.044,-0.06,-0.054,-0.109,-0.031,-0.01,0.006
-0.021,-0.042,-0.021,0.032,0.0,-0.031,-0.055,-0.056,-0.099,-0.019,-0.001,0.012
0.001,-0.05,-0.051,0.025,0.026,-0.05,-0.045,-0.035,-0.103,-0.032,-0.032,-0.012
-0.031,-0.028,0.003,0.03,-0.017,-0.013,0.027,0.032,-0.075,-0.033,-0.028,-0.001
0.008,-0.011,-0.02,0.001,0.014,-0.016,0.076,0.426,0.088,0.071,0.041,0.004
0.318,0.431,0.113,-0.375,0.102,0.272,-0.233,-0.103,0.355,0.524,0.521,0.423
0.468,0.81,0.343,-0.639,0.062,0.576,-0.703,-1.164,0.498,0.979,0.999,0.879
0.132,0.267,0.134,-0.2,-0.001,0.2,-0.631,-1.038,0.078,0.395,0.392,0.362
-0.135,-0.101,0.034,0.118,-0.084,-0.033,-0.273,-0.589,-0.306,-0.201,-0.137,-0.065
-0.119,-0.063,0.055,0.091,-0.087,-0.004,-0.114,-0.264,-0.195,-0.1,-0.043,-0.02
-0.092,-0.092,0.001,0.092,-0.047,-0.046,-0.033,-0.073,-0.136,-0.089,-0.046,-0.053
-0.057,-0.072,-0.015,0.065,-0.021,-0.043,-0.01,-0.052,-0.136,-0.079,-0.033,-0.032
-0.041,-0.085,-0.044,0.063,0.002,-0.064,-0.007,-0.012,-0.127,-0.073,-0.043,-0.044
-0.042,-0.072,-0.031,0.057,-0.005,-0.051,0.0,-0.023,-0.126,-0.076,-0.039,-0.039
-0.033,-0.069,-0.036,0.051,0.002,-0.052,-0.003,-0.008,-0.113,-0.061,-0.032,-0.03
-0.028,-0.065,-0.037,0.047,0.005,-0.051,0.01,-0.009,-0.112,-0.072,-0.035,-0.02
-0.027,-0.056,-0.029,0.042,0.001,-0.042,0.021,-0.002,-0.102,-0.066,-0.026,-0.009
-0.003,-0.054,-0.051,0.029,0.024,-0.053,0.021,0.002,-0.1,-0.076,-0.029,-0.02
0.004,-0.046,-0.049,0.021,0.027,-0.047,0.019,0.007,-0.094,-0.073,-0.017,-0.019
0.002,-0.044,-0.047,0.021,0.025,-0.045,0.02,0.019,-0.09,-0.07,-0.017,-0.028
0.022,-0.036,-0.058,0.007,0.04,-0.047,0.02,0.023,-0.085,-0.063,-0.009,-0.03
0.007,-0.035,-0.042,0.014,0.025,-0.038,0.02,0.026,-0.081,-0.058,-0.003,-0.023
0.031,-0.027,-0.058,-0.002,0.045,-0.043,0.016,0.026,-0.074,-0.052,0.0,-0.013
0.035,-0.027,-0.063,-0.004,0.049,-0.044,0.007,0.032,-0.067,-0.039,0.008,-0.002
0.02,-0.036,-0.057,0.008,0.039,-0.046,-0.002,0.028,-0.062,-0.029,0.007,0.0
0.045,-0.019,-0.064,-0.013,0.054,-0.041,-0.021,0.055,-0.053,-0.012,0.023,0.0
0.044,0.01,-0.034,-0.027,0.039,-0.012,-0.037,0.096,-0.044,0.005,0.046,0.02
0.065,0.042,-0.023,-0.053,0.043,0.009,-0.032,0.123,-0.019,0.028,0.063,0.054
0.11,0.075,-0.035,-0.092,0.072,0.02,-0.048,0.16,0.016,0.066,0.116,0.099
0.126,0.108,-0.018,-0.117,0.072,0.045,-0.06,0.183,0.05,0.11,0.172,0.154
0.127,0.148,0.021,-0.138,0.053,0.084,-0.078,0.196,0.078,0.147,0.213,0.189
0.14,0.181,0.041,-0.161,0.049,0.111,-0.107,0.189,0.093,0.176,0.245,0.214
0.157,0.199,0.042,-0.178,0.058,0.12,-0.1,0.175,0.1,0.193,0.255,0.231
0.147,0.194,0.047,-0.171,0.05,0.12,-0.094,0.164,0.092,0.172,0.24,0.206
0.115,0.166,0.05,-0.14,0.033,0.108,-0.088,0.143,0.086,0.148,0.21,0.182
0.091,0.123,0.032,-0.107,0.029,0.077,-0.067,0.111,0.078,0.122,0.171,0.158
0.067,0.075,0.008,-0.072,0.029,0.041,-0.052,0.065,0.056,0.076,0.124,0.113
0.041,0.04,-0.002,-0.041,0.021,0.019,-0.049,0.036,0.027,0.034,0.079,0.082
0.017,0.01,-0.008,-0.013,0.013,0.001,-0.046,0.019,-0.002,0.002,0.047,0.055
0.005,-0.024,-0.029,0.01,0.017,-0.026,-0.043,0.002,-0.019,-0.015,0.031,0.025
0.015,-0.032,-0.047,0.009,0.031,-0.039,-0.04,-0.009,-0.032,-0.031,0.015,0.008
0.015,-0.029,-0.045,0.008,0.03,-0.036,-0.041,-0.023,-0.043,-0.047,0.008,0.004
0.01,-0.029,-0.039,0.01,0.025,-0.034,-0.046,-0.035,-0.052,-0.05,0.004,-0.001
0.009,-0.024,-0.033,0.008,0.021,-0.028,-0.044,-0.037,-0.058,-0.05,-0.001,-0.007
-0.001,-0.026,-0.025,0.013,0.013,-0.025,-0.048,-0.034,-0.053,-0.05,-0.005,-0.013
-0.002,-0.022,-0.02,0.012,0.009,-0.021,-0.05,-0.031,-0.051,-0.05,-0.01,-0.013
-0.009,-0.02,-0.01,0.015,0.001,-0.015,-0.05,-0.028,-0.048,-0.051,-0.007,-0.006
-0.003,-0.02,-0.017,0.011,0.007,-0.019,-0.045,-0.025,-0.045,-0.054,-0.004,-0.001
0.012,-0.02,-0.032,0.004,0.022,-0.026,-0.037,-0.025,-0.046,-0.057,-0.001,0.004
0.009,-0.02,-0.029,0.006,0.019,-0.024,-0.031,-0.025,-0.051,-0.059,0.002,0.01
0.011,-0.02,-0.031,0.005,0.021,-0.026,-0.023,-0.025,-0.056,-0.063,0.005,0.014
0.004,-0.025,-0.028,0.011,0.016,-0.026,-0.02,-0.025,-0.059,-0.065,0.004,0.01
0.007,-0.025,-0.032,0.009,0.02,-0.028,-0.017,-0.025,-0.065,-0.067,-0.002,0.004
-0.001,-0.025,-0.025,0.013,0.012,-0.025,-0.015,-0.025,-0.074,-0.078,-0.008,0.001
-0.012,-0.025,-0.012,0.019,0.001,-0.018,-0.012,-0.035,-0.076,-0.08,-0.012,-0.004
0.006,-0.026,-0.032,0.01,0.02,-0.029,-0.009,-0.048,-0.074,-0.081,-0.029,-0.008
0.014,-0.023,-0.037,0.005,0.026,-0.03,-0.014,-0.056,-0.077,-0.085,-0.042,-0.013
0.018,-0.016,-0.033,0.0,0.026,-0.024,-0.015,-0.061,-0.089,-0.085,-0.039,-0.021
-0.002,-0.033,-0.031,0.018,0.015,-0.032,-0.017,-0.064,-0.096,-0.09,-0.04,-0.028
-0.013,-0.043,-0.03,0.028,0.008,-0.036,-0.02,-0.062,-0.094,-0.09,-0.04,-0.035
-0.009,-0.039,-0.029,0.024,0.01,-0.034,-0.021,-0.058,-0.095,-0.09,-0.04,-0.043
-0.006,-0.041,-0.035,0.024,0.014,-0.038,-0.026,-0.057,-0.095,-0.091,-0.043,-0.048
0.007,-0.039,-0.046,0.017,0.026,-0.042,-0.031,-0.053,-0.095,-0.089,-0.047,-0.046
-0.001,-0.041,-0.04,0.021,0.019,-0.04,-0.029,-0.051,-0.095,-0.093,-0.05,-0.045
-0.003,-0.038,-0.035,0.021,0.016,-0.036,-0.031,-0.048,-0.095,-0.094,-0.054,-0.044
0.001,-0.031,-0.032,0.015,0.017,-0.032,-0.028,-0.045,-0.095,-0.099,-0.054,-0.04
-0.002,-0.026,-0.024,0.015,0.011,-0.025,-0.028,-0.045,-0.095,-0.105,-0.049,-0.04
0.01,-0.021,-0.03,0.006,0.02,-0.025,-0.042,-0.044,-0.095,-0.098,-0.044,-0.038
0.021,-0.015,-0.036,-0.003,0.029,-0.025,-0.042,-0.054,-0.094,-0.095,-0.04,-0.034
0.012,-0.01,-0.022,-0.001,0.017,-0.015,-0.033,-0.053,-0.087,-0.09,-0.035,-0.035
0.016,-0.004,-0.02,-0.006,0.018,-0.012,-0.031,-0.048,-0.083,-0.086,-0.031,-0.035
0.03,0.013,-0.017,-0.021,0.023,-0.002,-0.022,-0.045,-0.076,-0.081,-0.025,-0.034
0.04,0.025,-0.014,-0.032,0.026,0.005,-0.022,-0.039,-0.072,-0.079,-0.026,-0.037
0.057,0.025,-0.033,-0.041,0.045,-0.004,-0.032,-0.043,-0.065,-0.076,-0.024,-0.021
0.047,0.016,-0.031,-0.031,0.039,-0.008,-0.035,-0.028,-0.056,-0.074,-0.021,-0.007
0.055,0.018,-0.037,-0.036,0.046,-0.009,-0.056,-0.053,-0.081,-0.096,-0.02,-0.003
0.049,0.005,-0.044,-0.027,0.046,-0.019,-0.061,-0.058,-0.09,-0.111,-0.018,-0.023
0.023,0.0,-0.023,-0.011,0.023,-0.011,-0.055,-0.078,-0.092,-0.116,-0.035,-0.052
0.019,-0.02,-0.039,0.0,0.029,-0.029,-0.053,-0.08,-0.093,-0.115,-0.058,-0.06
-0.023,-0.06,-0.037,0.042,0.008,-0.048,-0.048,-0.081,-0.097,-0.124,-0.064,-0.062
-0.022,-0.043,-0.021,0.033,0.0,-0.032,-0.047,-0.075,-0.093,-0.115,-0.053,-0.056
-0.023,-0.058,-0.035,0.041,0.007,-0.046,-0.027,-0.054,-0.096,-0.121,-0.07,-0.067
-0.045,-0.043,0.002,0.045,-0.024,-0.02,0.028,0.068,-0.064,-0.096,-0.057,-0.052
0.062,0.014,-0.049,-0.037,0.055,-0.017,0.074,0.434,0.156,0.036,0.022,-0.02
0.335,0.487,0.152,-0.411,0.091,0.319,-0.295,-0.287,0.417,0.552,0.556,0.464
0.424,0.788,0.364,-0.606,0.03,0.576,-0.766,-1.276,0.495,0.97,0.946,0.839
0.08,0.16,0.079,-0.12,0.0,0.12,-0.611,-1.015,0.076,0.266,0.257,0.257
-0.126,-0.145,-0.019,0.135,-0.053,-0.082,-0.261,-0.586,-0.308,-0.303,-0.201,-0.127
-0.072,-0.052,0.02,0.062,-0.046,-0.016,-0.108,-0.235,-0.169,-0.162,-0.106,-0.082
-0.047,-0.089,-0.042,0.069,-0.002,-0.066,-0.034,-0.067,-0.109,-0.175,-0.128,-0.112
-0.016,-0.07,-0.054,0.043,0.019,-0.062,-0.008,-0.064,-0.118,-0.163,-0.096,-0.092
-0.03,-0.092,-0.062,0.061,0.017,-0.077,0.0,-0.014,-0.097,-0.16,-0.102,-0.116
-0.032,-0.082,-0.05,0.058,0.009,-0.066,0.003,-0.032,-0.103,-0.162,-0.097,-0.108
-0.034,-0.085,-0.051,0.06,0.009,-0.068,0.008,-0.019,-0.09,-0.149,-0.092,-0.095
-0.041,-0.086,-0.045,0.064,0.002,-0.066,0.013,-0.029,-0.099,-0.155,-0.094,-0.093
-0.041,-0.083,-0.042,0.062,0.001,-0.062,0.014,-0.028,-0.089,-0.139,-0.086,-0.086
-0.05,-0.088,-0.038,0.069,-0.006,-0.062,0.008,-0.03,-0.091,-0.142,-0.089,-0.088
-0.053,-0.083,-0.029,0.068,-0.011,-0.056,0.001,-0.03,-0.09,-0.13,-0.081,-0.08
-0.059,-0.087,-0.028,0.073,-0.015,-0.057,-0.006,-0.019,-0.083,-0.129,-0.082,-0.081
-0.067,-0.084,-0.017,0.075,-0.024,-0.05,-0.013,-0.013,-0.076,-0.122,-0.076,-0.077
-0.066,-0.086,-0.02,0.076,-0.023,-0.053,-0.019,-0.002,-0.066,-0.114,-0.076,-0.071
-0.042,-0.084,-0.042,0.063,0.001,-0.063,-0.02,0.005,-0.06,-0.107,-0.072,-0.066
-0.034,-0.075,-0.042,0.055,0.004,-0.058,-0.02,0.015,-0.051,-0.097,-0.063,-0.059
-0.031,-0.065,-0.034,0.048,0.001,-0.049,-0.02,0.026,-0.037,-0.091,-0.052,-0.056
-0.019,-0.05,-0.03,0.035,0.006,-0.04,-0.021,0.051,-0.024,-0.072,-0.039,-0.043
0.002,-0.02,-0.023,0.009,0.012,-0.021,-0.027,0.079,-0.008,-0.038,-0.014,-0.02
0.03,0.009,-0.021,-0.02,0.026,-0.006,-0.034,0.115,0.014,-0.007,0.024,0.002
0.055,0.037,-0.018,-0.046,0.036,0.009,-0.051,0.165,0.046,0.031,0.061,0.034
0.087,0.079,-0.008,-0.082,0.047,0.035,-0.071,0.188,0.067,0.064,0.104,0.075
0.127,0.124,-0.002,-0.126,0.064,0.061,-0.098,0.198,0.085,0.095,0.145,0.123
0.131,0.146,0.015,-0.139,0.058,0.08,-0.116,0.21,0.11,0.127,0.164,0.144
0.11,0.146,0.036,-0.128,0.036,0.091,-0.107,0.197,0.108,0.128,0.164,0.136
0.112,0.141,0.03,-0.127,0.041,0.085,-0.09,0.178,0.098,0.119,0.155,0.122
0.085,0.107,0.022,-0.096,0.031,0.064,-0.077,0.151,0.094,0.101,0.122,0.086
0.044,0.06,0.016,-0.052,0.013,0.038,-0.062,0.113,0.078,0.059,0.075,0.041
0.018,0.021,0.004,-0.02,0.006,0.012,-0.045,0.079,0.052,0.014,0.031,0.001
-0.008,-0.022,-0.014,0.015,0.004,-0.018,-0.031,0.038,0.018,-0.027,-0.018,-0.019
-0.025,-0.051,-0.026,0.038,0.001,-0.038,-0.021,0.009,-0.005,-0.053,-0.044,-0.028
-0.032,-0.074,-0.042,0.053,0.005,-0.058,-0.017,-0.004,-0.01,-0.065,-0.056,-0.041
-0.029,-0.093,-0.064,0.062,0.018,-0.079,-0.015,-0.013,-0.018,-0.085,-0.062,-0.049
-0.032,-0.098,-0.066,0.066,0.017,-0.082,-0.01,-0.01,-0.024,-0.095,-0.07,-0.054
-0.035,-0.099,-0.064,0.067,0.015,-0.081,-0.007,-0.01,-0.031,-0.093,-0.09,-0.056
-0.032,-0.093,-0.061,0.062,0.015,-0.077,-0.003,-0.008,-0.034,-0.09,-0.087,-0.059
-0.027,-0.087,-0.06,0.057,0.016,-0.073,0.0,-0.004,-0.029,-0.085,-0.081,-0.062
-0.023,-0.083,-0.059,0.053,0.018,-0.071,0.0,-0.006,-0.026,-0.083,-0.078,-0.065
-0.022,-0.076,-0.054,0.049,0.017,-0.065,0.002,-0.004,-0.023,-0.078,-0.072,-0.064
-0.015,-0.071,-0.056,0.044,0.02,-0.063,0.006,-0.006,-0.018,-0.075,-0.069,-0.059
-0.022,-0.074,-0.052,0.048,0.016,-0.063,0.005,-0.004,-0.015,-0.078,-0.064,-0.061
-0.036,-0.086,-0.05,0.061,0.007,-0.068,0.005,-0.006,-0.019,-0.081,-0.061,-0.057
-0.04,-0.09,-0.05,0.065,0.005,-0.07,0.005,-0.015,-0.025,-0.079,-0.057,-0.055
-0.04,-0.09,-0.05,0.065,0.005,-0.07,0.005,-0.023,-0.03,-0.081,-0.054,-0.055
-0.046,-0.095,-0.049,0.07,0.002,-0.072,0.005,-0.032,-0.035,-0.079,-0.049,-0.059
-0.043,-0.094,-0.052,0.069,0.005,-0.073,0.004,-0.04,-0.042,-0.085,-0.058,-0.072
-0.04,-0.1,-0.06,0.07,0.01,-0.08,0.007,-0.05,-0.043,-0.1,-0.069,-0.085
-0.042,-0.106,-0.064,0.074,0.011,-0.084,0.01,-0.055,-0.04,-0.102,-0.071,-0.085
-0.037,-0.105,-0.068,0.071,0.016,-0.086,0.01,-0.058,-0.04,-0.106,-0.074,-0.085
-0.035,-0.105,-0.07,0.07,0.018,-0.087,0.01,-0.06,-0.041,-0.11,-0.077,-0.086
-0.031,-0.105,-0.073,0.068,0.022,-0.089,0.01,-0.064,-0.04,-0.108,-0.08,-0.084
-0.033,-0.109,-0.076,0.072,0.021,-0.092,0.01,-0.068,-0.04,-0.105,-0.079,-0.094
-0.034,-0.113,-0.08,0.073,0.023,-0.096,0.005,-0.065,-0.052,-0.102,-0.074,-0.099
-0.039,-0.118,-0.08,0.078,0.021,-0.099,0.005,-0.062,-0.052,-0.099,-0.071,-0.09
-0.043,-0.119,-0.076,0.081,0.016,-0.097,0.012,-0.061,-0.043,-0.096,-0.067,-0.085
-0.039,-0.113,-0.074,0.077,0.018,-0.094,0.015,-0.056,-0.038,-0.094,-0.063,-0.077
-0.024,-0.096,-0.072,0.06,0.024,-0.084,0.02,-0.055,-0.031,-0.085,-0.061,-0.072
0.004,-0.064,-0.068,0.03,0.036,-0.066,0.025,-0.059,-0.024,-0.068,-0.055,-0.069
0.003,-0.073,-0.077,0.035,0.04,-0.075,0.021,-0.059,-0.017,-0.062,-0.056,-0.072
-0.005,-0.085,-0.081,0.045,0.038,-0.083,0.009,-0.062,-0.012,-0.067,-0.053,-0.068
0.001,-0.068,-0.069,0.034,0.035,-0.069,0.0,-0.056,-0.002,-0.067,-0.052,-0.073
0.002,-0.087,-0.089,0.042,0.046,-0.087,-0.008,-0.066,-0.006,-0.08,-0.049,-0.082
-0.01,-0.128,-0.117,0.069,0.054,-0.122,-0.005,-0.061,-0.016,-0.097,-0.051,-0.087
-0.022,-0.126,-0.104,0.074,0.041,-0.115,-0.003,-0.08,-0.035,-0.107,-0.062,-0.084
-0.035,-0.13,-0.095,0.083,0.03,-0.112,-0.001,-0.066,-0.027,-0.097,-0.073,-0.084
-0.045,-0.139,-0.094,0.093,0.025,-0.116,0.005,-0.072,-0.026,-0.105,-0.087,-0.088
-0.053,-0.127,-0.074,0.09,0.011,-0.1,0.002,-0.073,-0.017,-0.092,-0.071,-0.081
-0.069,-0.153,-0.085,0.111,0.008,-0.119,0.021,-0.057,-0.01,-0.099,-0.092,-0.099
-0.078,-0.127,-0.048,0.103,-0.015,-0.087,0.083,0.051,-0.005,-0.092,-0.069,-0.084
0.001,-0.078,-0.08,0.039,0.041,-0.079,0.136,0.414,0.207,0.046,0.005,-0.059
0.316,0.392,0.076,-0.354,0.12,0.234,-0.248,-0.291,0.487,0.568,0.516,0.393
0.457,0.719,0.262,-0.589,0.098,0.49,-0.795,-1.308,0.578,1.029,0.974,0.807
0.123,0.093,-0.03,-0.108,0.077,0.031,-0.653,-1.071,0.146,0.333,0.289,0.252
-0.122,-0.243,-0.122,0.183,0.0,-0.182,-0.24,-0.6,-0.259,-0.287,-0.221,-0.177
-0.109,-0.159,-0.05,0.134,-0.029,-0.104,-0.075,-0.235,-0.128,-0.14,-0.101,-0.13
-0.088,-0.194,-0.106,0.141,0.009,-0.15,-0.007,-0.059,-0.064,-0.149,-0.118,-0.153
-0.072,-0.171,-0.1,0.122,0.014,-0.135,0.024,-0.044,-0.056,-0.14,-0.098,-0.132
-0.066,-0.185,-0.119,0.126,0.027,-0.152,0.048,-0.008,-0.038,-0.133,-0.109,-0.137
-0.066,-0.178,-0.113,0.123,0.024,-0.145,0.056,-0.019,-0.047,-0.138,-0.111,-0.129
-0.061,-0.178,-0.116,0.12,0.028,-0.146,0.054,0.002,-0.031,-0.123,-0.107,-0.124
-0.051,-0.172,-0.122,0.112,0.036,-0.147,0.055,-0.006,-0.036,-0.13,-0.109,-0.122
-0.047,-0.164,-0.117,0.106,0.035,-0.14,0.055,0.004,-0.025,-0.112,-0.096,-0.113
-0.037,-0.163,-0.127,0.1,0.045,-0.144,0.053,0.005,-0.024,-0.115,-0.099,-0.114
-0.017,-0.153,-0.136,0.085,0.06,-0.144,0.064,0.009,-0.017,-0.102,-0.089,-0.104
-0.023,-0.152,-0.128,0.088,0.053,-0.14,0.07,0.021,-0.014,-0.099,-0.088,-0.104
-0.03,-0.143,-0.113,0.087,0.041,-0.128,0.061,0.03,-0.009,-0.092,-0.081,-0.098
-0.03,-0.138,-0.108,0.084,0.039,-0.123,0.059,0.051,-0.004,-0.086,-0.08,-0.095
-0.035,-0.131,-0.096,0.083,0.031,-0.113,0.053,0.059,0.001,-0.079,-0.076,-0.092
-0.015,-0.124,-0.109,0.07,0.047,-0.116,0.05,0.067,0.013,-0.072,-0.074,-0.086
0.015,-0.118,-0.133,0.052,0.074,-0.125,0.043,0.082,0.022,-0.066,-0.064,-0.085
0.017,-0.111,-0.128,0.047,0.073,-0.119,0.033,0.096,0.033,-0.049,-0.039,-0.067
0.025,-0.094,-0.118,0.035,0.072,-0.106,0.025,0.136,0.054,-0.022,-0.019,-0.042
0.048,-0.06,-0.107,0.006,0.078,-0.083,0.016,0.181,0.085,0.021,0.015,-0.028
0.07,-0.022,-0.093,-0.024,0.082,-0.057,0.006,0.209,0.111,0.059,0.054,0.005
0.104,0.023,-0.081,-0.063,0.092,-0.028,-0.005,0.239,0.143,0.1,0.102,0.06
0.131,0.061,-0.07,-0.095,0.1,-0.004,-0.018,0.252,0.174,0.137,0.15,0.096
0.157,0.097,-0.06,-0.127,0.108,0.018,-0.036,0.252,0.181,0.154,0.164,0.11
0.168,0.111,-0.058,-0.139,0.113,0.026,-0.041,0.244,0.182,0.148,0.161,0.122
0.139,0.078,-0.061,-0.109,0.1,0.008,-0.04,0.228,0.171,0.133,0.148,0.109
0.106,0.047,-0.058,-0.077,0.082,-0.005,-0.029,0.186,0.157,0.109,0.109,0.07
0.075,0.012,-0.063,-0.043,0.069,-0.025,-0.001,0.127,0.138,0.059,0.052,0.027
0.033,-0.036,-0.07,0.002,0.051,-0.053,0.026,0.095,0.107,0.008,-0.006,-0.016
0.004,-0.092,-0.097,0.044,0.051,-0.094,0.044,0.062,0.082,-0.026,-0.044,-0.046
-0.003,-0.13,-0.127,0.067,0.063,-0.128,0.054,0.033,0.065,-0.044,-0.058,-0.064
-0.019,-0.142,-0.124,0.081,0.053,-0.133,0.055,0.028,0.057,-0.066,-0.079,-0.089
-0.02,-0.146,-0.126,0.084,0.053,-0.136,0.051,0.022,0.051,-0.073,-0.092,-0.108
-0.021,-0.145,-0.124,0.083,0.052,-0.134,0.049,0.019,0.043,-0.069,-0.089,-0.11
-0.028,-0.156,-0.128,0.092,0.05,-0.141,0.046,0.013,0.035,-0.07,-0.091,-0.11
-0.004,-0.157,-0.153,0.081,0.075,-0.154,0.044,0.011,0.031,-0.065,-0.089,-0.109
-0.006,-0.154,-0.149,0.08,0.072,-0.151,0.045,0.024,0.035,-0.065,-0.09,-0.105
-0.023,-0.155,-0.132,0.089,0.055,-0.143,0.045,0.026,0.035,-0.064,-0.088,-0.105
-0.02,-0.15,-0.13,0.085,0.055,-0.14,0.045,0.024,0.035,-0.06,-0.084,-0.104
-0.02,-0.15,-0.13,0.085,0.055,-0.14,0.045,0.025,0.035,-0.06,-0.085,-0.097
-0.02,-0.15,-0.13,0.085,0.055,-0.14,0.045,0.025,0.034,-0.06,-0.081,-0.093
-0.018,-0.15,-0.132,0.084,0.057,-0.141,0.047,0.025,0.036,-0.06,-0.08,-0.087
-0.02,-0.15,-0.13,0.086,0.055,-0.14,0.051,0.02,0.033,-0.06,-0.08,-0.081
-0.028,-0.15,-0.122,0.089,0.047,-0.136,0.05,0.015,0.04,-0.063,-0.08,-0.076
-0.031,-0.15,-0.119,0.091,0.044,-0.135,0.05,0.01,0.05,-0.066,-0.08,-0.075
-0.027,-0.15,-0.123,0.089,0.048,-0.136,0.049,0.006,0.042,-0.064,-0.08,-0.075
-0.014,-0.15,-0.136,0.082,0.061,-0.143,0.045,0.001,0.035,-0.066,-0.08,-0.075
-0.023,-0.15,-0.127,0.087,0.052,-0.138,0.042,-0.002,0.03,-0.078,-0.08,-0.075
-0.045,-0.15,-0.105,0.098,0.03,-0.127,0.038,-0.007,0.022,-0.065,-0.082,-0.075
-0.024,-0.15,-0.125,0.088,0.05,-0.137,0.035,-0.01,0.022,-0.069,-0.093,-0.076
-0.014,-0.15,-0.136,0.082,0.061,-0.143,0.029,-0.013,0.026,-0.097,-0.1,-0.081
-0.023,-0.149,-0.126,0.086,0.051,-0.137,0.034,-0.018,0.024,-0.094,-0.101,-0.086
-0.02,-0.145,-0.125,0.083,0.053,-0.134,0.042,-0.021,0.029,-0.091,-0.106,-0.089
-0.028,-0.145,-0.118,0.087,0.046,-0.131,0.04,-0.024,0.03,-0.089,-0.103,-0.094
-0.029,-0.145,-0.116,0.087,0.044,-0.13,0.036,-0.025,0.031,-0.085,-0.096,-0.095
-0.019,-0.145,-0.126,0.082,0.054,-0.135,0.034,-0.022,0.034,-0.084,-0.091,-0.095
-0.012,-0.156,-0.143,0.084,0.066,-0.149,0.03,-0.016,0.037,-0.076,-0.086,-0.094
-0.013,-0.148,-0.135,0.081,0.061,-0.141,0.03,-0.009,0.04,-0.068,-0.079,-0.087
-0.007,-0.132,-0.125,0.07,0.059,-0.128,0.049,-0.002,0.042,-0.06,-0.077,-0.081
-0.01,-0.125,-0.115,0.068,0.053,-0.12,0.053,0.003,0.053,-0.052,-0.078,-0.074
-0.012,-0.12,-0.108,0.066,0.048,-0.114,0.043,0.011,0.054,-0.05,-0.081,-0.068
0.028,-0.117,-0.145,0.045,0.087,-0.131,0.038,0.025,0.061,-0.051,-0.082,-0.06
0.059,-0.108,-0.167,0.025,0.113,-0.137,0.03,0.02,0.079,-0.048,-0.086,-0.064
0.047,-0.124,-0.171,0.039,0.109,-0.147,0.024,-0.015,0.064,-0.055,-0.085,-0.069
0.013,-0.169,-0.182,0.079,0.098,-0.176,0.037,-0.027,0.048,-0.063,-0.084,-0.071
-0.02,-0.179,-0.159,0.1,0.07,-0.169,0.048,-0.044,0.036,-0.076,-0.098,-0.078
-0.026,-0.169,-0.143,0.097,0.059,-0.156,0.042,-0.037,0.033,-0.069,-0.097,-0.081
-0.033,-0.18,-0.147,0.107,0.057,-0.163,0.044,-0.031,0.032,-0.073,-0.114,-0.101
-0.031,-0.159,-0.128,0.095,0.049,-0.143,0.038,-0.04,0.022,-0.067,-0.111,-0.095
-0.044,-0.184,-0.14,0.114,0.048,-0.162,0.04,-0.017,0.033,-0.064,-0.122,-0.106
-0.059,-0.171,-0.112,0.115,0.027,-0.141,0.099,0.023,0.051,-0.07,-0.117,-0.093
-0.003,-0.141,-0.138,0.072,0.067,-0.139,0.195,0.402,0.213,0.021,-0.062,-0.081
0.239,0.208,-0.031,-0.223,0.135,0.088,-0.083,-0.046,0.478,0.427,0.341,0.261
0.484,0.69,0.206,-0.587,0.139,0.447,-0.699,-1.227,0.636,1.001,0.919,0.788
0.229,0.213,-0.015,-0.221,0.122,0.099,-0.721,-1.193,0.321,0.564,0.467,0.384
-0.095,-0.281,-0.186,0.189,0.046,-0.233,-0.282,-0.655,-0.155,-0.2,-0.194,-0.162
-0.087,-0.193,-0.106,0.141,0.01,-0.15,-0.053,-0.286,-0.094,-0.137,-0.157,-0.114
-0.072,-0.209,-0.137,0.141,0.033,-0.173,0.037,-0.061,0.003,-0.088,-0.155,-0.108
-0.043,-0.193,-0.151,0.118,0.054,-0.171,0.067,-0.048,-0.014,-0.111,-0.153,-0.105
-0.023,-0.193,-0.17,0.108,0.074,-0.181,0.077,-0.002,0.02,-0.089,-0.139,-0.103
-0.02,-0.189,-0.169,0.105,0.075,-0.179,0.081,-0.008,0.013,-0.109,-0.145,-0.109
-0.013,-0.182,-0.169,0.098,0.079,-0.175,0.089,0.01,0.035,-0.093,-0.128,-0.101
-0.04,-0.207,-0.167,0.124,0.064,-0.187,0.092,0.022,0.034,-0.102,-0.134,-0.108
-0.045,-0.198,-0.153,0.122,0.054,-0.175,0.083,0.031,0.041,-0.086,-0.122,-0.106
-0.043,-0.194,-0.151,0.118,0.054,-0.172,0.081,0.045,0.045,-0.086,-0.125,-0.112
-0.037,-0.181,-0.144,0.11,0.054,-0.163,0.076,0.047,0.047,-0.078,-0.117,-0.109
-0.034,-0.176,-0.142,0.106,0.054,-0.158,0.07,0.057,0.052,-0.072,-0.116,-0.111
-0.035,-0.17,-0.134,0.103,0.05,-0.151,0.073,0.059,0.053,-0.067,-0.111,-0.11
-0.035,-0.165,-0.13,0.1,0.048,-0.147,0.086,0.068,0.057,-0.058,-0.104,-0.109
-0.035,-0.159,-0.125,0.097,0.045,-0.141,0.083,0.073,0.061,-0.054,-0.098,-0.1
-0.035,-0.153,-0.118,0.094,0.041,-0.135,0.08,0.078,0.07,-0.042,-0.091,-0.092
-0.034,-0.149,-0.115,0.092,0.04,-0.131,0.078,0.091,0.075,-0.022,-0.083,-0.083
-0.035,-0.135,-0.1,0.085,0.033,-0.117,0.075,0.119,0.092,0.003,-0.063,-0.073
-0.017,-0.123,-0.106,0.07,0.045,-0.114,0.072,0.155,0.106,0.019,-0.038,-0.053
0.024,-0.096,-0.12,0.037,0.072,-0.108,0.059,0.197,0.133,0.045,-0.011,-0.026
0.044,-0.05,-0.094,0.003,0.07,-0.072,0.048,0.243,0.171,0.091,0.035,0.015
0.066,-0.01,-0.076,-0.028,0.071,-0.042,0.036,0.265,0.192,0.137,0.083,0.06
0.097,0.03,-0.067,-0.063,0.082,-0.018,0.023,0.267,0.216,0.174,0.11,0.074
0.118,0.064,-0.054,-0.091,0.086,0.005,0.017,0.278,0.233,0.198,0.143,0.106
0.121,0.064,-0.057,-0.092,0.089,0.003,0.02,0.269,0.243,0.198,0.147,0.138
0.099,0.052,-0.048,-0.075,0.073,0.002,0.024,0.252,0.247,0.191,0.134,0.123
0.093,0.038,-0.055,-0.065,0.073,-0.008,0.024,0.233,0.229,0.175,0.112,0.083
0.083,-0.011,-0.094,-0.036,0.088,-0.052,0.039,0.197,0.213,0.136,0.054,0.035
0.044,-0.062,-0.106,0.009,0.076,-0.084,0.062,0.16,0.193,0.087,0.006,-0.004
0.009,-0.096,-0.106,0.044,0.058,-0.101,0.077,0.121,0.161,0.042,-0.031,-0.035
-0.016,-0.127,-0.111,0.072,0.048,-0.119,0.085,0.089,0.138,0.016,-0.056,-0.044
-0.023,-0.152,-0.129,0.088,0.053,-0.141,0.086,0.071,0.122,0.005,-0.069,-0.056
-0.031,-0.169,-0.138,0.1,0.054,-0.153,0.09,0.057,0.107,0.0,-0.083,-0.082
-0.035,-0.172,-0.138,0.103,0.052,-0.155,0.092,0.053,0.103,-0.004,-0.085,-0.085
-0.027,-0.17,-0.142,0.099,0.058,-0.156,0.096,0.055,0.1,-0.009,-0.085,-0.084
-0.021,-0.167,-0.146,0.094,0.063,-0.156,0.093,0.055,0.096,-0.014,-0.085,-0.089
-0.009,-0.164,-0.155,0.086,0.074,-0.159,0.088,0.058,0.092,-0.013,-0.085,-0.09
-0.011,-0.161,-0.15,0.086,0.069,-0.155,0.085,0.061,0.089,-0.008,-0.085,-0.09
-0.018,-0.159,-0.14,0.089,0.061,-0.149,0.081,0.059,0.098,-0.005,-0.079,-0.085
-0.027,-0.156,-0.129,0.092,0.052,-0.142,0.078,0.056,0.103,-0.002,-0.073,-0.08
-0.031,-0.153,-0.122,0.092,0.046,-0.137,0.073,0.054,0.099,0.003,-0.065,-0.076
-0.017,-0.15,-0.134,0.084,0.058,-0.142,0.085,0.055,0.1,0.005,-0.06,-0.071
-0.015,-0.147,-0.133,0.081,0.059,-0.14,0.091,0.055,0.1,0.0,-0.05,-0.068
-0.02,-0.144,-0.125,0.082,0.053,-0.134,0.086,0.055,0.1,0.0,-0.061,-0.06
-0.023,-0.147,-0.124,0.085,0.051,-0.136,0.085,0.053,0.099,-0.001,-0.078,-0.067
-0.036,-0.151,-0.115,0.093,0.04,-0.133,0.08,0.046,0.096,-0.005,-0.08,-0.076
-0.031,-0.149,-0.118,0.091,0.044,-0.133,0.08,0.039,0.093,-0.005,-0.085,-0.07
-0.013,-0.151,-0.138,0.082,0.062,-0.144,0.08,0.033,0.09,-0.007,-0.082,-0.068
-0.013,-0.149,-0.136,0.081,0.062,-0.142,0.08,0.025,0.087,-0.01,-0.079,-0.063
-0.027,-0.152,-0.125,0.089,0.049,-0.138,0.08,0.021,0.085,-0.013,-0.081,-0.06
-0.042,-0.165,-0.123,0.103,0.041,-0.143,0.08,0.018,0.085,-0.016,-0.079,-0.06
-0.05,-0.162,-0.111,0.106,0.031,-0.136,0.079,0.015,0.085,-0.019,-0.081,-0.069
-0.042,-0.156,-0.114,0.099,0.036,-0.134,0.084,0.012,0.085,-0.02,-0.078,-0.076
-0.021,-0.153,-0.132,0.087,0.056,-0.142,0.095,0.01,0.085,-0.015,-0.075,-0.074
-0.02,-0.147,-0.127,0.084,0.054,-0.137,0.095,0.007,0.085,-0.012,-0.075,-0.075
-0.032,-0.145,-0.113,0.088,0.041,-0.129,0.096,0.005,0.085,-0.009,-0.075,-0.075
-0.039,-0.145,-0.106,0.092,0.034,-0.125,0.1,0.001,0.089,-0.004,-0.075,-0.074
-0.029,-0.145,-0.116,0.087,0.044,-0.13,0.1,0.0,0.09,-0.001,-0.075,-0.071
-0.028,-0.145,-0.117,0.087,0.045,-0.13,0.1,0.005,0.09,0.003,-0.071,-0.068
-0.052,-0.157,-0.105,0.104,0.027,-0.13,0.1,0.01,0.09,0.005,-0.07,-0.065
-0.058,-0.161,-0.103,0.11,0.022,-0.132,0.1,0.014,0.09,0.005,-0.07,-0.062
-0.064,-0.156,-0.091,0.11,0.014,-0.123,0.1,0.019,0.09,0.009,-0.07,-0.059
-0.06,-0.155,-0.095,0.108,0.018,-0.124,0.1,0.024,0.09,0.01,-0.071,-0.063
-0.038,-0.15,-0.112,0.094,0.037,-0.131,0.101,0.028,0.09,0.01,-0.069,-0.065
-0.042,-0.15,-0.108,0.097,0.033,-0.129,0.105,0.03,0.09,0.014,-0.065,-0.065
-0.054,-0.149,-0.095,0.102,0.02,-0.122,0.11,0.034,0.091,0.019,-0.063,-0.065
-0.057,-0.151,-0.094,0.104,0.019,-0.122,0.112,0.035,0.088,0.021,-0.06,-0.065
-0.052,-0.143,-0.091,0.098,0.02,-0.117,0.118,0.04,0.107,0.026,-0.057,-0.064
-0.026,-0.11,-0.084,0.069,0.029,-0.097,0.128,0.04,0.116,0.028,-0.055,-0.049
-0.016,-0.093,-0.077,0.055,0.031,-0.085,0.123,0.045,0.116,0.035,-0.052,-0.027
-0.008,-0.093,-0.085,0.051,0.038,-0.089,0.115,0.056,0.13,0.042,-0.05,-0.025
0.017,-0.09,-0.107,0.036,0.062,-0.098,0.11,0.051,0.125,0.036,-0.05,-0.046
0.01,-0.102,-0.111,0.046,0.061,-0.106,0.102,0.051,0.12,0.032,-0.05,-0.057
0.002,-0.103,-0.105,0.051,0.054,-0.104,0.097,0.037,0.113,0.025,-0.05,-0.055
-0.003,-0.106,-0.103,0.055,0.051,-0.104,0.094,0.041,0.109,0.021,-0.049,-0.06
-0.003,-0.105,-0.102,0.054,0.05,-0.103,0.096,0.027,0.101,0.013,-0.042,-0.062
-0.012,-0.108,-0.096,0.06,0.042,-0.101,0.093,0.029,0.099,0.023,-0.053,-0.056
-0.041,-0.137,-0.096,0.089,0.028,-0.116,0.1,0.022,0.09,0.017,-0.075,-0.068
-0.051,-0.127,-0.076,0.09,0.013,-0.101,0.111,0.013,0.086,0.023,-0.066,-0.065
-0.062,-0.146,-0.083,0.104,0.011,-0.114,0.099,0.025,0.09,0.019,-0.077,-0.092
-0.063,-0.12,-0.057,0.092,-0.002,-0.088,0.159,0.088,0.101,0.016,-0.075,-0.104
-0.014,-0.085,-0.071,0.05,0.028,-0.078,0.262,0.474,0.254,0.111,-0.017,-0.085
0.277,0.314,0.037,-0.296,0.12,0.175,-0.052,-0.092,0.517,0.527,0.417,0.304
0.526,0.784,0.258,-0.656,0.134,0.52,-0.665,-1.234,0.68,1.03,0.973,0.836
0.264,0.287,0.023,-0.276,0.12,0.155,-0.66,-1.092,0.321,0.56,0.504,0.423
-0.056,-0.197,-0.141,0.127,0.043,-0.169,-0.188,-0.536,-0.097,-0.101,-0.127,-0.103
-0.088,-0.152,-0.064,0.12,-0.011,-0.108,0.038,-0.185,-0.003,-0.048,-0.078,-0.077
-0.063,-0.162,-0.099,0.113,0.018,-0.13,0.108,0.01,0.071,-0.016,-0.079,-0.096
-0.06,-0.139,-0.079,0.1,0.01,-0.109,0.136,0.022,0.059,-0.014,-0.084,-0.088
-0.054,-0.14,-0.087,0.097,0.017,-0.113,0.144,0.06,0.07,-0.004,-0.074,-0.089
-0.041,-0.135,-0.094,0.088,0.027,-0.114,0.154,0.065,0.061,-0.016,-0.086,-0.093
-0.032,-0.126,-0.094,0.079,0.031,-0.109,0.146,0.078,0.074,-0.004,-0.073,-0.082
-0.028,-0.125,-0.097,0.077,0.035,-0.111,0.147,0.079,0.072,-0.015,-0.079,-0.089
-0.007,-0.115,-0.108,0.061,0.051,-0.111,0.141,0.083,0.08,-0.003,-0.065,-0.08
0.003,-0.115,-0.118,0.056,0.061,-0.116,0.14,0.088,0.08,-0.006,-0.067,-0.082
0.007,-0.106,-0.113,0.05,0.06,-0.109,0.14,0.088,0.084,0.0,-0.059,-0.079
0.012,-0.105,-0.117,0.047,0.064,-0.111,0.14,0.095,0.087,0.002,-0.056,-0.079
0.016,-0.098,-0.114,0.041,0.065,-0.106,0.145,0.095,0.09,0.004,-0.051,-0.072
0.02,-0.095,-0.115,0.038,0.068,-0.105,0.145,0.105,0.09,0.007,-0.044,-0.068
0.02,-0.088,-0.108,0.034,0.065,-0.098,0.145,0.121,0.09,0.01,-0.04,-0.064
0.021,-0.078,-0.1,0.029,0.061,-0.089,0.145,0.124,0.089,0.015,-0.033,-0.058
0.021,-0.071,-0.092,0.025,0.057,-0.082,0.145,0.136,0.097,0.025,-0.028,-0.055
0.025,-0.058,-0.083,0.016,0.055,-0.07,0.145,0.158,0.123,0.05,-0.008,-0.044
0.038,-0.039,-0.077,0.001,0.058,-0.058,0.138,0.184,0.135,0.075,0.016,-0.03
0.058,-0.005,-0.063,-0.026,0.06,-0.033,0.127,0.227,0.157,0.098,0.039,-0.013
0.075,0.029,-0.046,-0.052,0.06,-0.009,0.118,0.266,0.183,0.133,0.08,0.024
0.106,0.073,-0.033,-0.089,0.069,0.019,0.104,0.295,0.212,0.177,0.133,0.083
0.138,0.113,-0.024,-0.125,0.081,0.044,0.082,0.302,0.238,0.215,0.176,0.132
0.157,0.131,-0.026,-0.143,0.091,0.053,0.069,0.296,0.248,0.241,0.208,0.155
0.173,0.15,-0.023,-0.161,0.098,0.063,0.07,0.293,0.253,0.253,0.223,0.169
0.165,0.145,-0.02,-0.155,0.092,0.062,0.063,0.291,0.242,0.244,0.209,0.167
0.137,0.118,-0.019,-0.128,0.078,0.049,0.069,0.278,0.232,0.219,0.183,0.147
0.105,0.082,-0.023,-0.094,0.064,0.029,0.094,0.246,0.223,0.191,0.152,0.113
0.075,0.034,-0.041,-0.054,0.058,-0.004,0.112,0.204,0.203,0.155,0.105,0.064
0.055,-0.016,-0.071,-0.019,0.063,-0.043,0.128,0.172,0.18,0.116,0.056,0.017
0.036,-0.051,-0.087,0.008,0.062,-0.069,0.133,0.152,0.153,0.088,0.02,-0.016
0.018,-0.072,-0.09,0.027,0.054,-0.081,0.128,0.122,0.133,0.074,0.004,-0.03
0.013,-0.082,-0.095,0.035,0.054,-0.088,0.125,0.101,0.116,0.068,0.0,-0.032
0.01,-0.081,-0.092,0.036,0.051,-0.086,0.121,0.098,0.105,0.061,-0.004,-0.035
0.012,-0.078,-0.089,0.033,0.051,-0.084,0.117,0.094,0.105,0.053,-0.009,-0.038
0.014,-0.075,-0.089,0.031,0.052,-0.082,0.114,0.091,0.105,0.052,-0.014,-0.04
0.012,-0.072,-0.084,0.031,0.048,-0.078,0.126,0.086,0.105,0.055,-0.013,-0.038
0.012,-0.069,-0.081,0.029,0.046,-0.075,0.141,0.085,0.105,0.055,-0.009,-0.033
0.005,-0.072,-0.077,0.034,0.042,-0.075,0.14,0.095,0.105,0.055,-0.007,-0.03
-0.002,-0.076,-0.073,0.039,0.036,-0.074,0.139,0.1,0.113,0.055,-0.004,-0.027
-0.005,-0.075,-0.07,0.04,0.033,-0.072,0.144,0.103,0.118,0.054,-0.001,-0.022
-0.009,-0.075,-0.066,0.042,0.029,-0.071,0.143,0.119,0.113,0.051,0.0,-0.02
-0.011,-0.075,-0.064,0.043,0.027,-0.069,0.151,0.121,0.11,0.046,-0.004,-0.025
-0.015,-0.075,-0.061,0.045,0.024,-0.068,0.16,0.112,0.107,0.044,-0.007,-0.025
-0.021,-0.08,-0.058,0.051,0.018,-0.069,0.15,0.106,0.102,0.039,-0.01,-0.025
-0.025,-0.08,-0.055,0.053,0.015,-0.067,0.144,0.098,0.1,0.036,-0.013,-0.026
-0.026,-0.081,-0.055,0.054,0.014,-0.068,0.137,0.091,0.093,0.032,-0.015,-0.024
-0.014,-0.085,-0.071,0.05,0.029,-0.078,0.131,0.084,0.086,0.026,-0.018,-0.028
-0.004,-0.085,-0.081,0.045,0.039,-0.082,0.133,0.08,0.079,0.021,-0.02,-0.034
-0.012,-0.085,-0.073,0.049,0.031,-0.079,0.135,0.078,0.071,0.016,-0.02,-0.031
-0.015,-0.085,-0.07,0.05,0.028,-0.077,0.135,0.075,0.063,0.01,-0.02,-0.03
-0.02,-0.085,-0.065,0.053,0.023,-0.075,0.134,0.072,0.062,0.005,-0.02,-0.029
-0.026,-0.085,-0.059,0.055,0.017,-0.071,0.137,0.069,0.069,0.001,-0.02,-0.025
-0.019,-0.085,-0.066,0.052,0.024,-0.075,0.139,0.07,0.066,-0.002,-0.02,-0.025
-0.01,-0.084,-0.075,0.047,0.033,-0.08,0.143,0.07,0.061,-0.005,-0.02,-0.028
-0.016,-0.081,-0.065,0.048,0.025,-0.072,0.143,0.07,0.059,-0.008,-0.02,-0.037
-0.017,-0.076,-0.059,0.047,0.021,-0.068,0.151,0.07,0.054,-0.01,-0.02,-0.037
-0.02,-0.073,-0.053,0.047,0.017,-0.063,0.161,0.07,0.051,-0.012,-0.02,-0.033
-0.027,-0.07,-0.043,0.049,0.008,-0.056,0.155,0.069,0.047,-0.018,-0.022,-0.047
-0.003,-0.065,-0.061,0.034,0.03,-0.063,0.153,0.065,0.045,-0.021,-0.033,-0.057
-0.001,-0.071,-0.07,0.036,0.035,-0.07,0.148,0.065,0.045,-0.027,-0.039,-0.054
-0.02,-0.076,-0.056,0.049,0.018,-0.066,0.145,0.065,0.045,-0.03,-0.042,-0.055
-0.033,-0.074,-0.042,0.054,0.005,-0.058,0.141,0.065,0.045,-0.025,-0.045,-0.055
-0.024,-0.075,-0.051,0.05,0.014,-0.063,0.14,0.065,0.045,-0.022,-0.048,-0.055
-0.01,-0.075,-0.065,0.043,0.028,-0.07,0.14,0.062,0.045,-0.019,-0.05,-0.055
-0.02,-0.075,-0.055,0.048,0.018,-0.065,0.14,0.057,0.045,-0.015,-0.05,-0.055
-0.022,-0.071,-0.05,0.047,0.014,-0.06,0.158,0.054,0.045,-0.01,-0.05,-0.055
-0.028,-0.07,-0.042,0.049,0.007,-0.055,0.167,0.051,0.045,-0.012,-0.05,-0.055
-0.012,-0.07,-0.058,0.041,0.023,-0.064,0.162,0.047,0.044,-0.019,-0.05,-0.056
0.003,-0.065,-0.068,0.032,0.036,-0.067,0.16,0.044,0.048,-0.024,-0.046,-0.053
-0.006,-0.065,-0.059,0.035,0.027,-0.061,0.156,0.039,0.05,-0.03,-0.045,-0.05
-0.002,-0.065,-0.063,0.034,0.03,-0.063,0.154,0.039,0.05,-0.034,-0.044,-0.043
0.003,-0.054,-0.056,0.025,0.03,-0.055,0.16,0.032,0.05,-0.026,-0.04,-0.043
0.019,-0.047,-0.066,0.014,0.043,-0.057,0.158,0.043,0.05,-0.013,-0.04,-0.025
0.014,-0.02,-0.035,0.003,0.025,-0.027,0.166,0.066,0.061,-0.003,-0.042,0.012
-0.003,0.017,0.02,-0.007,-0.012,0.018,0.17,0.076,0.066,0.001,-0.045,0.016
0.015,0.017,0.002,-0.016,0.006,0.009,0.154,0.095,0.057,0.002,-0.045,0.014
0.048,0.008,-0.039,-0.028,0.043,-0.015,0.153,0.106,0.055,0.007,-0.048,0.012
0.047,-0.009,-0.055,-0.019,0.051,-0.032,0.155,0.069,0.046,-0.003,-0.052,0.008
0.038,-0.041,-0.079,0.002,0.059,-0.06,0.155,0.04,0.044,-0.004,-0.048,0.006
0.031,-0.062,-0.092,0.016,0.062,-0.077,0.154,0.028,0.037,-0.013,-0.053,-0.016
-0.003,-0.056,-0.053,0.03,0.025,-0.055,0.156,0.028,0.035,-0.016,-0.048,-0.02
-0.024,-0.084,-0.06,0.054,0.019,-0.072,0.152,0.036,0.033,-0.022,-0.051,-0.038
-0.044,-0.088,-0.044,0.066,0.0,-0.066,0.152,0.019,0.024,-0.03,-0.05,-0.032
-0.047,-0.091,-0.044,0.069,-0.001,-0.067,0.147,0.046,0.032,-0.02,-0.046,-0.036
-0.048,-0.083,-0.034,0.066,-0.006,-0.058,0.173,0.032,0.013,-0.036,-0.065,-0.05
-0.043,-0.066,-0.022,0.055,-0.01,-0.044,0.277,0.386,0.114,0.02,-0.05,-0.047
0.196,0.158,-0.039,-0.177,0.117,0.059,0.138,0.225,0.322,0.274,0.203,0.146
0.517,0.733,0.216,-0.625,0.15,0.475,-0.444,-1.018,0.52,0.828,0.837,0.754
0.423,0.562,0.14,-0.493,0.141,0.351,-0.708,-1.302,0.339,0.728,0.759,0.69
0.032,-0.07,-0.102,0.019,0.067,-0.086,-0.273,-0.698,-0.121,-0.037,0.001,0.034
-0.101,-0.111,-0.01,0.106,-0.045,-0.06,0.064,-0.29,-0.142,-0.153,-0.132,-0.076
-0.044,-0.082,-0.038,0.063,-0.003,-0.06,0.139,-0.033,-0.037,-0.053,-0.06,-0.057
-0.059,-0.103,-0.044,0.081,-0.007,-0.073,0.19,0.013,-0.035,-0.07,-0.081,-0.073
-0.058,-0.093,-0.034,0.076,-0.012,-0.063,0.19,0.039,-0.011,-0.044,-0.061,-0.057
-0.057,-0.1,-0.043,0.079,-0.007,-0.071,0.208,0.058,-0.023,-0.063,-0.077,-0.072
-0.055,-0.084,-0.028,0.07,-0.013,-0.056,0.204,0.062,-0.01,-0.044,-0.065,-0.057
-0.047,-0.088,-0.041,0.068,-0.003,-0.065,0.2,0.069,-0.013,-0.054,-0.073,-0.06
-0.042,-0.077,-0.035,0.06,-0.003,-0.056,0.199,0.069,-0.009,-0.046,-0.064,-0.052
-0.033,-0.077,-0.044,0.055,0.005,-0.06,0.194,0.077,-0.005,-0.044,-0.065,-0.056
-0.035,-0.07,-0.036,0.053,0.001,-0.053,0.195,0.076,-0.006,-0.043,-0.066,-0.055
-0.03,-0.065,-0.035,0.048,0.002,-0.05,0.189,0.081,-0.004,-0.037,-0.063,-0.054
-0.031,-0.06,-0.029,0.045,0.0,-0.044,0.188,0.083,-0.006,-0.037,-0.067,-0.056
-0.026,-0.053,-0.027,0.04,0.001,-0.04,0.184,0.085,-0.005,-0.033,-0.061,-0.052
-0.027,-0.049,-0.022,0.038,-0.002,-0.035,0.181,0.089,-0.003,-0.029,-0.054,-0.047
-0.022,-0.041,-0.019,0.031,-0.001,-0.03,0.18,0.102,0.004,-0.018,-0.044,-0.04
0.004,-0.033,-0.037,0.015,0.021,-0.035,0.176,0.116,0.011,-0.011,-0.036,-0.036
0.006,-0.023,-0.029,0.008,0.018,-0.026,0.169,0.129,0.017,-0.001,-0.023,-0.023
0.023,-0.002,-0.024,-0.01,0.024,-0.013,0.162,0.162,0.025,0.017,-0.002,-0.006
0.046,0.034,-0.012,-0.04,0.029,0.011,0.156,0.198,0.039,0.038,0.016,0.011
0.044,0.064,0.02,-0.054,0.012,0.041,0.149,0.225,0.062,0.07,0.046,0.045
0.072,0.108,0.036,-0.091,0.018,0.072,0.133,0.245,0.091,0.113,0.105,0.09
0.118,0.164,0.046,-0.141,0.036,0.105,0.117,0.254,0.114,0.148,0.149,0.128
0.133,0.192,0.059,-0.162,0.037,0.125,0.099,0.269,0.129,0.173,0.173,0.155
0.15,0.211,0.061,-0.18,0.044,0.136,0.095,0.262,0.145,0.187,0.208,0.191
0.182,0.232,0.05,-0.207,0.066,0.14,0.093,0.243,0.15,0.197,0.216,0.201
0.177,0.221,0.044,-0.199,0.066,0.132,0.088,0.229,0.14,0.193,0.188,0.172
0.138,0.173,0.035,-0.156,0.051,0.104,0.111,0.203,0.129,0.161,0.152,0.138
0.078,0.119,0.041,-0.098,0.018,0.08,0.129,0.171,0.096,0.119,0.109,0.092
0.041,0.074,0.033,-0.058,0.004,0.053,0.14,0.135,0.066,0.081,0.065,0.045
0.041,0.036,-0.004,-0.039,0.022,0.016,0.151,0.095,0.05,0.043,0.024,0.004
0.023,0.004,-0.019,-0.013,0.021,-0.007,0.149,0.06,0.027,0.014,0.004,-0.022
0.012,-0.015,-0.027,0.002,0.02,-0.021,0.15,0.042,0.01,-0.009,0.001,-0.035
0.008,-0.025,-0.033,0.008,0.021,-0.029,0.15,0.036,0.0,-0.022,-0.005,-0.045
0.001,-0.038,-0.039,0.019,0.02,-0.038,0.15,0.029,-0.01,-0.02,-0.008,-0.045
-0.002,-0.042,-0.04,0.022,0.019,-0.041,0.148,0.021,-0.02,-0.02,-0.014,-0.045
0.001,-0.033,-0.034,0.017,0.017,-0.033,0.142,0.014,-0.028,-0.018,-0.013,-0.045
0.008,-0.025,-0.033,0.009,0.02,-0.028,0.137,0.007,-0.033,-0.014,-0.009,-0.045
0.011,-0.016,-0.027,0.002,0.019,-0.021,0.134,0.005,-0.039,-0.015,-0.01,-0.045
0.014,-0.01,-0.024,-0.001,0.019,-0.016,0.128,0.005,-0.04,-0.019,-0.006,-0.04
0.028,-0.007,-0.035,-0.01,0.032,-0.021,0.125,0.002,-0.04,-0.02,-0.004,-0.037
0.036,-0.003,-0.039,-0.016,0.038,-0.02,0.125,-0.001,-0.045,-0.02,-0.006,-0.033
0.029,-0.001,-0.03,-0.014,0.029,-0.015,0.123,0.001,-0.045,-0.02,-0.009,-0.03
0.034,0.007,-0.027,-0.02,0.03,-0.01,0.136,0.014,-0.046,-0.02,-0.012,-0.025
0.016,-0.003,-0.019,-0.006,0.017,-0.01,0.138,0.012,-0.05,-0.019,-0.014,-0.025
-0.004,-0.021,-0.017,0.013,0.007,-0.019,0.13,0.003,-0.052,-0.014,-0.018,-0.025
0.016,-0.021,-0.037,0.002,0.026,-0.028,0.126,-0.002,-0.055,-0.027,-0.02,-0.026
0.022,-0.019,-0.042,-0.002,0.032,-0.031,0.12,-0.01,-0.059,-0.041,-0.022,-0.038
0.018,-0.017,-0.035,0.0,0.027,-0.026,0.115,-0.014,-0.06,-0.04,-0.025,-0.041
0.021,-0.013,-0.035,-0.003,0.029,-0.024,0.111,-0.027,-0.063,-0.04,-0.025,-0.039
0.014,-0.017,-0.031,0.002,0.023,-0.023,0.108,-0.043,-0.065,-0.04,-0.025,-0.041
0.0,-0.028,-0.028,0.014,0.015,-0.028,0.105,-0.047,-0.065,-0.039,-0.025,-0.04
0.009,-0.031,-0.04,0.011,0.024,-0.036,0.103,-0.052,-0.07,-0.042,-0.025,-0.04
0.017,-0.029,-0.046,0.006,0.032,-0.037,0.099,-0.054,-0.07,-0.045,-0.03,-0.045
0.017,-0.027,-0.044,0.006,0.031,-0.036,0.106,-0.05,-0.071,-0.045,-0.03,-0.044
0.022,-0.024,-0.045,0.002,0.034,-0.035,0.111,-0.05,-0.078,-0.048,-0.03,-0.051
0.019,-0.026,-0.045,0.004,0.032,-0.035,0.11,-0.049,-0.084,-0.05,-0.03,-0.061
0.016,-0.029,-0.046,0.007,0.031,-0.037,0.109,-0.045,-0.089,-0.05,-0.029,-0.06
0.019,-0.03,-0.049,0.006,0.034,-0.04,0.104,-0.044,-0.09,-0.05,-0.033,-0.065
0.025,-0.03,-0.054,0.003,0.039,-0.042,0.105,-0.046,-0.09,-0.051,-0.035,-0.065
0.022,-0.03,-0.053,0.004,0.038,-0.041,0.103,-0.047,-0.089,-0.049,-0.035,-0.065
0.018,-0.03,-0.048,0.006,0.033,-0.039,0.099,-0.06,-0.085,-0.057,-0.035,-0.065
0.014,-0.028,-0.042,0.007,0.028,-0.034,0.097,-0.071,-0.085,-0.074,-0.035,-0.065
0.016,-0.023,-0.039,0.004,0.028,-0.031,0.094,-0.07,-0.085,-0.076,-0.035,-0.065
0.013,-0.02,-0.034,0.004,0.023,-0.027,0.091,-0.068,-0.085,-0.075,-0.031,-0.065
0.013,-0.017,-0.029,0.002,0.021,-0.023,0.089,-0.077,-0.09,-0.075,-0.03,-0.064
0.033,-0.012,-0.045,-0.01,0.039,-0.028,0.096,-0.097,-0.09,-0.075,-0.029,-0.059
0.024,-0.01,-0.034,-0.006,0.029,-0.022,0.094,-0.098,-0.085,-0.074,-0.024,-0.056
0.015,-0.002,-0.017,-0.007,0.016,-0.009,0.1,-0.089,-0.083,-0.068,-0.026,-0.053
0.021,0.006,-0.015,-0.013,0.018,-0.005,0.116,-0.088,-0.078,-0.065,-0.022,-0.049
0.028,0.02,-0.007,-0.024,0.017,0.006,0.108,-0.078,-0.075,-0.059,-0.019,-0.044
0.025,0.02,-0.005,-0.022,0.015,0.007,0.099,-0.076,-0.078,-0.056,-0.021,-0.052
0.022,0.028,0.007,-0.026,0.008,0.017,0.09,-0.066,-0.084,-0.058,-0.015,-0.059
0.062,0.056,-0.005,-0.059,0.033,0.025,0.08,-0.059,-0.086,-0.064,-0.016,-0.061
0.067,0.034,-0.033,-0.05,0.049,0.001,0.075,-0.107,-0.094,-0.068,-0.014,-0.058
0.05,-0.006,-0.056,-0.022,0.053,-0.031,0.065,-0.118,-0.106,-0.071,-0.021,-0.062
0.035,-0.01,-0.046,-0.012,0.041,-0.028,0.075,-0.139,-0.113,-0.077,-0.022,-0.058
0.006,-0.026,-0.032,0.01,0.02,-0.029,0.097,-0.119,-0.105,-0.076,-0.032,-0.063
-0.005,-0.026,-0.021,0.016,0.008,-0.023,0.1,-0.129,-0.107,-0.081,-0.038,-0.078
-0.005,-0.02,-0.016,0.013,0.006,-0.018,0.1,-0.119,-0.093,-0.068,-0.034,-0.07
-0.023,-0.034,-0.012,0.029,-0.005,-0.023,0.101,-0.095,-0.095,-0.082,-0.047,-0.075
-0.024,-0.016,0.009,0.02,-0.016,-0.003,0.16,0.025,-0.063,-0.065,-0.004,-0.085
0.096,0.043,-0.053,-0.069,0.074,-0.005,0.192,0.389,0.122,0.08,0.065,-0.046
0.405,0.547,0.142,-0.476,0.132,0.344,-0.183,-0.353,0.395,0.588,0.602,0.469
0.48,0.764,0.285,-0.622,0.097,0.524,-0.61,-1.291,0.448,0.89,0.933,0.762
0.088,0.164,0.076,-0.126,0.006,0.12,-0.44,-1.01,-0.031,0.192,0.219,0.164
-0.112,-0.082,0.03,0.097,-0.071,-0.026,-0.096,-0.593,-0.323,-0.26,-0.162,-0.142
-0.058,-0.035,0.023,0.046,-0.04,-0.005,0.037,-0.265,-0.179,-0.121,-0.052,-0.076
-0.025,-0.045,-0.02,0.035,-0.002,-0.032,0.103,-0.135,-0.162,-0.138,-0.067,-0.096
-0.002,-0.026,-0.024,0.015,0.011,-0.025,0.121,-0.127,-0.15,-0.127,-0.047,-0.078
-0.021,-0.05,-0.029,0.036,0.004,-0.039,0.121,-0.088,-0.137,-0.13,-0.066,-0.089
-0.009,-0.031,-0.022,0.021,0.007,-0.027,0.127,-0.103,-0.141,-0.133,-0.058,-0.084
-0.006,-0.031,-0.025,0.019,0.01,-0.028,0.13,-0.079,-0.13,-0.126,-0.056,-0.084
-0.004,-0.022,-0.018,0.013,0.007,-0.02,0.131,-0.084,-0.133,-0.129,-0.055,-0.092
0.003,-0.018,-0.021,0.007,0.012,-0.019,0.13,-0.07,-0.123,-0.118,-0.048,-0.109
0.0,-0.017,-0.016,0.009,0.009,-0.016,0.127,-0.066,-0.124,-0.122,-0.051,-0.107
0.004,-0.01,-0.014,0.003,0.009,-0.012,0.124,-0.06,-0.119,-0.112,-0.042,-0.098
0.005,-0.009,-0.014,0.002,0.01,-0.011,0.125,-0.051,-0.121,-0.112,-0.042,-0.096
0.005,-0.003,-0.008,-0.001,0.007,-0.005,0.12,-0.049,-0.116,-0.107,-0.037,-0.087
0.013,0.0,-0.013,-0.007,0.013,-0.006,0.12,-0.04,-0.114,-0.101,-0.034,-0.085
0.038,0.014,-0.024,-0.026,0.031,-0.004,0.119,-0.038,-0.116,-0.096,-0.03,-0.075
0.045,0.021,-0.024,-0.033,0.034,-0.002,0.114,-0.023,-0.107,-0.089,-0.023,-0.069
0.048,0.034,-0.015,-0.041,0.031,0.009,0.116,0.003,-0.098,-0.085,-0.008,-0.059
0.051,0.042,-0.009,-0.046,0.03,0.016,0.111,0.036,-0.086,-0.068,0.005,-0.055
0.052,0.048,-0.003,-0.05,0.027,0.022,0.095,0.063,-0.069,-0.038,0.032,-0.031
0.078,0.087,0.008,-0.083,0.035,0.047,0.079,0.088,-0.053,-0.002,0.079,0.009
0.115,0.134,0.02,-0.125,0.047,0.077,0.058,0.117,-0.03,0.041,0.121,0.052
0.142,0.183,0.041,-0.163,0.05,0.112,0.037,0.125,-0.003,0.084,0.169,0.09
0.162,0.209,0.047,-0.186,0.057,0.127,0.024,0.117,0.016,0.119,0.211,0.114
0.178,0.235,0.058,-0.207,0.06,0.146,0.013,0.113,0.031,0.134,0.226,0.133
0.179,0.259,0.08,-0.219,0.049,0.169,0.015,0.106,0.038,0.135,0.23,0.126
0.182,0.251,0.068,-0.217,0.057,0.159,0.014,0.102,0.027,0.135,0.223,0.119
0.157,0.217,0.06,-0.188,0.048,0.139,0.021,0.087,0.018,0.108,0.2,0.095
0.11,0.161,0.051,-0.136,0.029,0.106,0.055,0.052,0.007,0.062,0.152,0.04
0.084,0.12,0.036,-0.102,0.023,0.078,0.073,0.028,-0.006,0.02,0.103,0.008
0.056,0.08,0.024,-0.068,0.016,0.051,0.083,0.003,-0.033,-0.015,0.069,-0.025
0.033,0.046,0.013,-0.04,0.009,0.03,0.091,-0.027,-0.072,-0.037,0.029,-0.064
0.023,0.032,0.009,-0.028,0.007,0.02,0.089,-0.04,-0.09,-0.058,0.005,-0.081
0.014,0.017,0.004,-0.016,0.005,0.01,0.09,-0.046,-0.095,-0.071,0.005,-0.082
0.012,0.01,-0.002,-0.011,0.007,0.004,0.09,-0.044,-0.095,-0.078,0.004,-0.079
0.018,0.01,-0.008,-0.014,0.013,0.0,0.09,-0.049,-0.099,-0.082,0.001,-0.076
0.015,0.006,-0.009,-0.011,0.012,-0.001,0.09,-0.056,-0.104,-0.08,0.0,-0.074
0.023,0.004,-0.019,-0.013,0.02,-0.007,0.09,-0.05,-0.099,-0.08,0.001,-0.069
0.032,0.008,-0.024,-0.02,0.028,-0.008,0.09,-0.045,-0.094,-0.076,0.006,-0.073
0.033,0.016,-0.017,-0.024,0.025,0.0,0.09,-0.042,-0.09,-0.074,0.01,-0.081
0.035,0.023,-0.011,-0.029,0.022,0.006,0.09,-0.036,-0.085,-0.076,0.015,-0.08
0.028,0.021,-0.007,-0.024,0.017,0.006,0.09,-0.037,-0.08,-0.079,0.02,-0.08
0.017,0.02,0.003,-0.018,0.007,0.011,0.086,-0.041,-0.084,-0.08,0.016,-0.08
0.013,0.02,0.008,-0.017,0.002,0.014,0.085,-0.04,-0.091,-0.081,0.015,-0.08
0.031,0.02,-0.011,-0.025,0.021,0.004,0.085,-0.044,-0.096,-0.085,0.015,-0.083
0.034,0.02,-0.013,-0.027,0.024,0.003,0.085,-0.046,-0.101,-0.085,0.01,-0.085
0.022,0.018,-0.004,-0.019,0.013,0.007,0.085,-0.045,-0.106,-0.087,0.01,-0.085
0.016,0.013,-0.003,-0.014,0.009,0.005,0.085,-0.05,-0.109,-0.092,0.009,-0.085
0.0,0.01,0.01,-0.005,-0.005,0.01,0.085,-0.049,-0.114,-0.095,0.004,-0.086
-0.006,0.007,0.013,-0.001,-0.01,0.009,0.085,-0.052,-0.115,-0.1,0.001,-0.083
-0.006,0.002,0.008,0.001,-0.007,0.004,0.085,-0.065,-0.116,-0.108,-0.002,-0.087
0.011,0.0,-0.011,-0.005,0.011,-0.005,0.085,-0.079,-0.125,-0.108,-0.007,-0.1
0.032,0.005,-0.027,-0.018,0.029,-0.011,0.085,-0.094,-0.132,-0.104,-0.01,-0.111
0.019,0.004,-0.014,-0.011,0.016,-0.005,0.089,-0.096,-0.135,-0.106,-0.014,-0.111
0.006,0.006,0.0,-0.006,0.003,0.003,0.091,-0.094,-0.14,-0.105,-0.015,-0.105
-0.002,0.01,0.012,-0.004,-0.007,0.011,0.09,-0.095,-0.136,-0.105,-0.016,-0.1
-0.016,0.01,0.027,0.003,-0.022,0.018,0.09,-0.094,-0.135,-0.104,-0.019,-0.094
-0.023,0.007,0.031,0.008,-0.027,0.019,0.09,-0.094,-0.133,-0.101,-0.021,-0.089
-0.023,-0.002,0.021,0.013,-0.022,0.009,0.088,-0.09,-0.129,-0.099,-0.018,-0.083
0.005,0.012,0.007,-0.009,-0.001,0.009,0.085,-0.085,-0.13,-0.1,-0.013,-0.079
0.027,0.046,0.019,-0.037,0.004,0.032,0.082,-0.085,-0.13,-0.1,-0.007,-0.073
0.014,0.052,0.038,-0.033,-0.012,0.045,0.08,-0.075,-0.129,-0.1,-0.003,-0.07
0.007,0.047,0.04,-0.027,-0.017,0.043,0.073,-0.079,-0.131,-0.103,0.004,-0.065
0.034,0.038,0.005,-0.036,0.014,0.021,0.055,-0.074,-0.128,-0.105,0.009,-0.06
0.064,0.031,-0.033,-0.047,0.048,-0.001,0.043,-0.087,-0.132,-0.111,0.005,-0.071
0.058,0.025,-0.033,-0.041,0.045,-0.004,0.044,-0.093,-0.123,-0.11,-0.003,-0.08
0.048,0.015,-0.033,-0.031,0.04,-0.009,0.047,-0.095,-0.131,-0.119,-0.016,-0.087
0.032,0.013,-0.019,-0.022,0.025,-0.002,0.047,-0.099,-0.14,-0.116,-0.018,-0.089
0.026,-0.004,-0.029,-0.011,0.027,-0.016,0.053,-0.086,-0.139,-0.123,-0.036,-0.102
0.008,0.003,-0.005,-0.005,0.007,-0.001,0.051,-0.11,-0.139,-0.118,-0.03,-0.086
0.002,-0.023,-0.025,0.01,0.014,-0.023,0.069,-0.073,-0.13,-0.12,-0.039,-0.105
-0.007,-0.007,0.0,0.007,-0.003,-0.004,0.104,-0.043,-0.134,-0.117,-0.033,-0.1
0.006,0.016,0.01,-0.011,-0.003,0.013,0.179,0.344,0.034,-0.014,0.006,-0.097
0.258,0.336,0.078,-0.298,0.09,0.207,-0.035,0.054,0.294,0.356,0.373,0.222
0.476,0.818,0.342,-0.647,0.067,0.579,-0.589,-1.125,0.466,0.949,0.969,0.78
0.226,0.397,0.171,-0.312,0.027,0.284,-0.63,-1.21,0.186,0.564,0.545,0.392
-0.09,-0.099,-0.009,0.094,-0.04,-0.054,-0.263,-0.735,-0.32,-0.246,-0.143,-0.165
-0.096,-0.048,0.048,0.072,-0.072,0.0,-0.051,-0.386,-0.276,-0.214,-0.091,-0.121
-0.05,-0.057,-0.008,0.053,-0.021,-0.032,0.059,-0.133,-0.159,-0.153,-0.062,-0.135
-0.01,-0.037,-0.027,0.024,0.009,-0.032,0.071,-0.113,-0.184,-0.173,-0.069,-0.13
0.003,-0.029,-0.032,0.013,0.018,-0.031,0.082,-0.071,-0.157,-0.143,-0.056,-0.127
-0.026,-0.027,-0.002,0.027,-0.012,-0.014,0.093,-0.078,-0.169,-0.157,-0.065,-0.134
-0.016,-0.02,-0.003,0.018,-0.006,-0.011,0.087,-0.061,-0.154,-0.134,-0.049,-0.124
-0.002,-0.023,-0.021,0.013,0.009,-0.022,0.092,-0.063,-0.156,-0.14,-0.056,-0.127
0.004,-0.013,-0.018,0.005,0.012,-0.015,0.084,-0.069,-0.145,-0.138,-0.044,-0.112
-0.002,-0.017,-0.015,0.01,0.007,-0.016,0.086,-0.067,-0.134,-0.156,-0.047,-0.112
0.001,-0.01,-0.01,0.005,0.006,-0.01,0.083,-0.075,-0.126,-0.145,-0.044,-0.101
-0.005,-0.005,0.001,0.005,-0.003,-0.002,0.08,-0.074,-0.115,-0.139,-0.042,-0.096
-0.018,0.003,0.021,0.008,-0.02,0.012,0.081,-0.074,-0.113,-0.133,-0.04,-0.102
-0.008,0.009,0.017,-0.001,-0.013,0.012,0.077,-0.062,-0.108,-0.123,-0.04,-0.111
0.009,0.016,0.007,-0.013,0.001,0.011,0.074,-0.053,-0.106,-0.117,-0.034,-0.11
0.019,0.021,0.001,-0.02,0.009,0.011,0.071,-0.032,-0.101,-0.103,-0.021,-0.104
0.038,0.029,-0.009,-0.033,0.024,0.01,0.067,-0.005,-0.098,-0.09,-0.014,-0.079
0.036,0.031,-0.005,-0.033,0.02,0.013,0.064,0.02,-0.088,-0.076,0.0,-0.058
0.046,0.049,0.003,-0.048,0.022,0.025,0.056,0.03,-0.076,-0.058,0.014,-0.046
0.078,0.09,0.012,-0.084,0.032,0.051,0.041,0.059,-0.058,-0.018,0.045,-0.028
0.072,0.125,0.053,-0.099,0.009,0.089,0.027,0.097,-0.027,0.029,0.093,-0.006
0.103,0.168,0.065,-0.136,0.019,0.116,0.013,0.124,0.006,0.072,0.137,0.05
0.126,0.199,0.073,-0.163,0.026,0.135,-0.007,0.152,0.031,0.102,0.183,0.09
0.134,0.222,0.088,-0.178,0.023,0.155,-0.028,0.147,0.038,0.122,0.217,0.119
0.162,0.243,0.081,-0.203,0.04,0.162,-0.033,0.14,0.03,0.124,0.224,0.148
0.165,0.245,0.08,-0.205,0.042,0.162,-0.028,0.136,0.021,0.116,0.209,0.126
0.144,0.221,0.076,-0.183,0.034,0.148,-0.026,0.116,0.012,0.1,0.177,0.095
0.094,0.169,0.075,-0.132,0.009,0.122,0.0,0.082,0.004,0.049,0.124,0.056
0.045,0.116,0.07,-0.081,-0.013,0.093,0.035,0.04,-0.013,0.006,0.069,0.01
0.006,0.068,0.063,-0.037,-0.029,0.065,0.055,0.004,-0.035,-0.022,0.033,-0.031
-0.015,0.038,0.052,-0.012,-0.034,0.045,0.066,-0.018,-0.053,-0.056,0.004,-0.059
-0.021,0.02,0.041,0.0,-0.032,0.031,0.066,-0.03,-0.068,-0.077,-0.016,-0.061
-0.005,0.008,0.013,-0.002,-0.009,0.01,0.063,-0.048,-0.077,-0.091,-0.023,-0.059
-0.001,0.009,0.01,-0.004,-0.006,0.01,0.061,-0.052,-0.085,-0.097,-0.033,-0.06
-0.033,0.013,0.046,0.01,-0.04,0.029,0.058,-0.045,-0.085,-0.095,-0.038,-0.068
-0.027,0.015,0.042,0.006,-0.035,0.028,0.066,-0.042,-0.085,-0.095,-0.035,-0.071
-0.018,0.019,0.037,0.0,-0.028,0.027,0.08,-0.037,-0.085,-0.093,-0.035,-0.069
-0.016,0.02,0.037,-0.002,-0.027,0.028,0.075,-0.033,-0.085,-0.089,-0.035,-0.068
-0.004,0.023,0.028,-0.009,-0.016,0.025,0.07,-0.028,-0.083,-0.09,-0.043,-0.064
-0.004,0.032,0.036,-0.014,-0.02,0.033,0.067,-0.024,-0.077,-0.09,-0.045,-0.065
-0.008,0.034,0.042,-0.013,-0.025,0.038,0.061,-0.018,-0.072,-0.09,-0.038,-0.07
-0.009,0.03,0.039,-0.01,-0.024,0.034,0.058,-0.015,-0.069,-0.09,-0.035,-0.072
-0.004,0.03,0.034,-0.013,-0.019,0.032,0.051,-0.01,-0.063,-0.09,-0.03,-0.069
-0.002,0.03,0.032,-0.014,-0.017,0.031,0.047,-0.005,-0.06,-0.09,-0.024,-0.07
0.002,0.03,0.028,-0.016,-0.013,0.029,0.041,-0.01,-0.075,-0.092,-0.033,-0.07
0.007,0.03,0.023,-0.019,-0.008,0.026,0.035,-0.018,-0.085,-0.095,-0.042,-0.07
-0.018,0.027,0.044,-0.005,-0.032,0.035,0.03,-0.024,-0.089,-0.097,-0.039,-0.07
-0.024,0.022,0.046,0.0,-0.035,0.034,0.038,-0.032,-0.095,-0.1,-0.041,-0.08
-0.003,0.019,0.022,-0.008,-0.013,0.02,0.051,-0.04,-0.094,-0.103,-0.04,-0.091
-0.004,0.016,0.02,-0.006,-0.012,0.017,0.046,-0.043,-0.097,-0.106,-0.041,-0.086
0.002,0.01,0.008,-0.006,-0.003,0.009,0.041,-0.038,-0.1,-0.101,-0.043,-0.084
0.002,0.011,0.009,-0.007,-0.004,0.01,0.038,-0.035,-0.101,-0.1,-0.04,-0.079
-0.017,0.015,0.032,0.0,-0.025,0.023,0.032,-0.029,-0.097,-0.1,-0.04,-0.076
-0.02,0.015,0.034,0.002,-0.027,0.024,0.032,-0.026,-0.091,-0.095,-0.04,-0.073
0.002,0.022,0.019,-0.012,-0.009,0.02,0.034,-0.018,-0.084,-0.095,-0.04,-0.066
0.013,0.041,0.028,-0.027,-0.008,0.034,0.038,-0.007,-0.078,-0.094,-0.04,-0.059
-0.004,0.052,0.056,-0.024,-0.031,0.054,0.038,0.005,-0.07,-0.089,-0.036,-0.052
0.008,0.055,0.047,-0.032,-0.02,0.051,0.031,0.013,-0.065,-0.09,-0.035,-0.046
0.03,0.064,0.034,-0.048,-0.002,0.049,0.024,0.017,-0.066,-0.085,-0.035,-0.039
0.031,0.04,0.009,-0.036,0.011,0.024,0.017,0.015,-0.062,-0.083,-0.034,-0.047
0.041,0.023,-0.019,-0.032,0.03,0.002,0.007,-0.03,-0.075,-0.098,-0.04,-0.061
0.031,0.015,-0.016,-0.023,0.023,-0.001,0.008,-0.033,-0.087,-0.115,-0.06,-0.078
-0.011,0.01,0.021,0.0,-0.017,0.015,0.009,-0.049,-0.096,-0.117,-0.061,-0.072
-0.038,0.001,0.039,0.018,-0.039,0.02,0.012,-0.048,-0.085,-0.111,-0.057,-0.069
-0.03,-0.007,0.023,0.019,-0.026,0.007,0.024,-0.065,-0.088,-0.121,-0.072,-0.071
-0.032,-0.005,0.027,0.018,-0.029,0.011,0.02,-0.037,-0.074,-0.107,-0.056,-0.058
-0.041,-0.009,0.032,0.024,-0.036,0.012,0.014,-0.016,-0.074,-0.126,-0.079,-0.078
-0.075,0.009,0.083,0.033,-0.079,0.045,0.104,0.125,-0.059,-0.113,-0.091,-0.081
0.043,0.092,0.049,-0.068,-0.003,0.07,0.137,0.42,0.17,0.061,0.01,-0.041
0.385,0.615,0.23,-0.501,0.077,0.423,-0.345,-0.453,0.441,0.642,0.611,0.497
0.438,0.8,0.362,-0.619,0.038,0.58,-0.839,-1.36,0.485,0.989,0.946,0.816
0.091,0.151,0.06,-0.121,0.016,0.105,-0.606,-0.993,0.01,0.201,0.18,0.178
-0.115,-0.077,0.038,0.096,-0.076,-0.019,-0.219,-0.528,-0.333,-0.314,-0.209,-0.14
-0.074,0.023,0.097,0.026,-0.086,0.06,-0.075,-0.183,-0.174,-0.158,-0.093,-0.084
-0.062,-0.01,0.052,0.035,-0.057,0.021,0.006,-0.044,-0.138,-0.178,-0.135,-0.12
-0.07,-0.004,0.066,0.036,-0.068,0.031,0.034,-0.029,-0.128,-0.161,-0.104,-0.095
-0.071,-0.029,0.042,0.05,-0.056,0.006,0.05,0.008,-0.112,-0.162,-0.116,-0.112
-0.07,-0.022,0.047,0.046,-0.058,0.012,0.055,0.0,-0.118,-0.16,-0.105,-0.1
-0.06,-0.02,0.04,0.039,-0.05,0.01,0.052,0.035,-0.102,-0.15,-0.102,-0.101
-0.064,-0.016,0.048,0.039,-0.055,0.016,0.05,0.037,-0.107,-0.155,-0.103,-0.098
-0.057,-0.009,0.048,0.033,-0.052,0.02,0.049,0.044,-0.095,-0.14,-0.094,-0.093
-0.063,-0.008,0.055,0.035,-0.058,0.023,0.047,0.045,-0.096,-0.144,-0.098,-0.094
-0.064,0.003,0.066,0.03,-0.065,0.034,0.044,0.047,-0.089,-0.134,-0.089,-0.087
-0.05,0.006,0.056,0.021,-0.053,0.031,0.045,0.052,-0.085,-0.133,-0.09,-0.089
-0.039,0.015,0.054,0.012,-0.047,0.034,0.04,0.052,-0.078,-0.126,-0.096,-0.083
-0.025,0.021,0.046,0.002,-0.036,0.034,0.035,0.063,-0.07,-0.119,-0.1,-0.082
-0.019,0.026,0.044,-0.004,-0.032,0.035,0.031,0.067,-0.065,-0.111,-0.093,-0.078
-0.004,0.034,0.038,-0.015,-0.022,0.036,0.026,0.084,-0.057,-0.102,-0.086,-0.075
0.002,0.037,0.035,-0.02,-0.017,0.035,0.022,0.108,-0.047,-0.097,-0.069,-0.074
-0.001,0.057,0.059,-0.028,-0.03,0.058,0.017,0.122,-0.038,-0.076,-0.053,-0.062
-0.001,0.085,0.086,-0.042,-0.043,0.085,0.009,0.16,-0.016,-0.045,-0.03,-0.052
-0.004,0.099,0.102,-0.048,-0.053,0.1,0.001,0.196,0.014,-0.018,0.0,-0.02
0.058,0.151,0.093,-0.105,-0.018,0.122,-0.017,0.232,0.04,0.02,0.04,0.05
0.11,0.209,0.099,-0.16,0.005,0.154,-0.037,0.263,0.068,0.068,0.088,0.085
0.1,0.237,0.137,-0.169,-0.019,0.187,-0.057,0.258,0.09,0.101,0.127,0.109
0.112,0.256,0.145,-0.184,-0.017,0.2,-0.068,0.257,0.103,0.119,0.143,0.142
0.127,0.261,0.135,-0.194,-0.004,0.198,-0.057,0.251,0.101,0.128,0.136,0.14
0.115,0.245,0.13,-0.18,-0.008,0.187,-0.048,0.235,0.097,0.114,0.122,0.11
0.079,0.202,0.122,-0.141,-0.022,0.162,-0.038,0.197,0.089,0.083,0.085,0.071
0.037,0.152,0.115,-0.095,-0.039,0.133,-0.018,0.141,0.06,0.027,0.034,0.029
-0.002,0.103,0.105,-0.051,-0.054,0.104,0.002,0.1,0.032,-0.031,-0.013,-0.003
-0.023,0.055,0.078,-0.016,-0.05,0.066,0.012,0.067,0.005,-0.059,-0.048,-0.019
-0.04,0.032,0.072,0.004,-0.056,0.052,0.02,0.044,-0.022,-0.083,-0.065,-0.039
-0.054,0.026,0.08,0.013,-0.067,0.053,0.029,0.038,-0.038,-0.101,-0.072,-0.059
-0.05,0.019,0.069,0.016,-0.06,0.044,0.024,0.03,-0.047,-0.108,-0.086,-0.068
-0.054,0.011,0.066,0.021,-0.06,0.038,0.019,0.024,-0.051,-0.113,-0.099,-0.069
-0.052,0.003,0.055,0.024,-0.054,0.029,0.014,0.015,-0.06,-0.114,-0.095,-0.062
-0.052,0.002,0.054,0.025,-0.053,0.028,0.008,0.012,-0.061,-0.109,-0.095,-0.058
-0.031,0.009,0.039,0.011,-0.035,0.024,0.002,0.023,-0.052,-0.103,-0.095,-0.051
-0.029,0.015,0.043,0.007,-0.036,0.029,0.003,0.031,-0.046,-0.1,-0.095,-0.046
-0.045,0.019,0.064,0.013,-0.055,0.041,0.024,0.035,-0.039,-0.095,-0.095,-0.048
-0.033,0.033,0.066,-0.001,-0.05,0.05,0.031,0.045,-0.032,-0.09,-0.095,-0.052
-0.049,0.041,0.089,0.004,-0.069,0.065,0.024,0.055,-0.032,-0.094,-0.095,-0.057
-0.055,0.033,0.088,0.011,-0.072,0.06,0.024,0.05,-0.036,-0.095,-0.095,-0.06
-0.052,0.03,0.082,0.011,-0.067,0.056,0.017,0.045,-0.039,-0.097,-0.096,-0.061
-0.056,0.025,0.081,0.016,-0.069,0.052,0.017,0.041,-0.043,-0.1,-0.094,-0.064
-0.054,0.02,0.075,0.016,-0.064,0.047,0.007,0.036,-0.045,-0.101,-0.096,-0.066
-0.057,0.016,0.073,0.02,-0.065,0.044,0.0,0.032,-0.051,-0.105,-0.104,-0.064
-0.051,0.015,0.066,0.018,-0.059,0.04,0.023,0.026,-0.058,-0.105,-0.106,-0.066
-0.047,0.015,0.061,0.016,-0.054,0.038,0.027,0.019,-0.063,-0.107,-0.109,-0.063
-0.046,0.01,0.056,0.018,-0.051,0.033,0.024,0.013,-0.065,-0.112,-0.11,-0.069
-0.039,0.01,0.05,0.014,-0.044,0.03,0.024,0.006,-0.065,-0.108,-0.11,-0.08
-0.036,0.009,0.045,0.013,-0.041,0.027,0.019,0.0,-0.069,-0.113,-0.11,-0.08
-0.057,0.004,0.061,0.026,-0.06,0.033,0.021,0.01,-0.07,-0.125,-0.11,-0.084
-0.075,0.001,0.076,0.037,-0.076,0.038,0.016,0.018,-0.07,-0.125,-0.11,-0.086
-0.077,-0.003,0.074,0.039,-0.075,0.036,0.01,0.012,-0.075,-0.123,-0.11,-0.085
-0.082,-0.006,0.075,0.044,-0.078,0.034,0.005,0.007,-0.075,-0.12,-0.114,-0.083
-0.086,-0.011,0.075,0.048,-0.08,0.032,0.0,0.004,-0.075,-0.12,-0.115,-0.08
-0.081,-0.006,0.074,0.043,-0.077,0.034,-0.007,-0.001,-0.075,-0.118,-0.115,-0.08
-0.075,0.001,0.076,0.036,-0.075,0.038,-0.009,-0.005,-0.075,-0.114,-0.119,-0.088
-0.067,0.007,0.073,0.03,-0.07,0.04,-0.004,0.002,-0.072,-0.116,-0.12,-0.105
-0.061,0.016,0.077,0.022,-0.069,0.046,-0.001,0.006,-0.064,-0.111,-0.118,-0.098
-0.054,0.018,0.073,0.017,-0.064,0.045,0.002,0.017,-0.057,-0.11,-0.114,-0.082
-0.039,0.04,0.079,-0.001,-0.059,0.059,0.007,0.036,-0.051,-0.11,-0.109,-0.073
-0.045,0.056,0.101,-0.005,-0.073,0.078,0.01,0.058,-0.045,-0.109,-0.104,-0.064
-0.047,0.044,0.092,0.001,-0.07,0.068,0.007,0.071,-0.045,-0.111,-0.101,-0.058
-0.042,0.038,0.08,0.002,-0.061,0.059,0.002,0.068,-0.045,-0.109,-0.094,-0.05
-0.027,0.026,0.053,0.0,-0.04,0.039,0.0,0.051,-0.045,-0.111,-0.101,-0.047
-0.024,0.021,0.045,0.001,-0.035,0.033,-0.005,0.038,-0.046,-0.109,-0.102,-0.056
-0.033,0.011,0.043,0.01,-0.038,0.027,-0.008,0.035,-0.045,-0.113,-0.1,-0.078
-0.034,0.012,0.046,0.01,-0.04,0.029,-0.012,0.011,-0.059,-0.12,-0.111,-0.074
-0.063,0.001,0.064,0.031,-0.064,0.032,-0.016,0.026,-0.062,-0.129,-0.132,-0.093
-0.081,0.003,0.084,0.039,-0.082,0.044,-0.021,-0.001,-0.069,-0.131,-0.13,-0.094
-0.087,-0.007,0.08,0.047,-0.083,0.036,-0.025,0.025,-0.061,-0.118,-0.127,-0.094
-0.075,0.002,0.077,0.036,-0.076,0.039,-0.006,0.016,-0.062,-0.126,-0.136,-0.099
-0.094,0.026,0.12,0.033,-0.107,0.073,0.115,0.302,0.026,-0.074,-0.114,-0.068
0.04,0.159,0.119,-0.1,-0.04,0.138,0.057,0.395,0.264,0.15,0.067,0.065
0.408,0.745,0.337,-0.577,0.035,0.541,-0.519,-0.747,0.515,0.771,0.721,0.664
0.37,0.709,0.339,-0.54,0.016,0.523,-0.874,-1.294,0.441,0.857,0.785,0.733
-0.017,0.027,0.044,-0.005,-0.03,0.035,-0.531,-0.787,-0.094,-0.003,-0.022,0.038
-0.145,-0.052,0.093,0.098,-0.118,0.02,-0.167,-0.367,-0.264,-0.284,-0.234,-0.14
-0.112,-0.003,0.108,0.057,-0.11,0.052,-0.046,-0.039,-0.101,-0.145,-0.136,-0.101
-0.096,-0.036,0.06,0.066,-0.078,0.012,0.006,0.022,-0.099,-0.169,-0.156,-0.119
-0.101,-0.031,0.07,0.066,-0.085,0.019,0.022,0.051,-0.075,-0.135,-0.147,-0.091
-0.099,-0.049,0.051,0.074,-0.075,0.001,0.03,0.08,-0.079,-0.148,-0.172,-0.102
-0.083,-0.024,0.059,0.053,-0.071,0.017,0.03,0.079,-0.076,-0.134,-0.148,-0.083
-0.072,-0.028,0.044,0.049,-0.058,0.008,0.03,0.096,-0.069,-0.133,-0.151,-0.088
-0.063,-0.013,0.05,0.037,-0.056,0.018,0.03,0.089,-0.073,-0.129,-0.14,-0.083
-0.077,-0.012,0.065,0.044,-0.071,0.027,0.03,0.101,-0.064,-0.123,-0.134,-0.085
-0.086,-0.009,0.078,0.047,-0.082,0.034,0.029,0.096,-0.062,-0.125,-0.132,-0.085
-0.09,-0.004,0.086,0.047,-0.087,0.041,0.025,0.108,-0.053,-0.118,-0.128,-0.084
-0.084,-0.004,0.08,0.044,-0.082,0.038,0.023,0.11,-0.05,-0.118,-0.131,-0.082
-0.076,0.001,0.078,0.037,-0.077,0.039,0.019,0.113,-0.043,-0.114,-0.123,-0.073
-0.075,-0.001,0.074,0.037,-0.074,0.036,0.017,0.124,-0.039,-0.111,-0.126,-0.068
-0.067,0.001,0.068,0.034,-0.068,0.034,0.015,0.126,-0.03,-0.1,-0.122,-0.061
-0.065,0.016,0.081,0.024,-0.073,0.048,0.012,0.14,-0.02,-0.093,-0.112,-0.054
-0.062,0.038,0.099,0.012,-0.081,0.068,0.004,0.169,-0.007,-0.083,-0.104,-0.046
-0.057,0.045,0.103,0.006,-0.08,0.074,-0.002,0.199,0.01,-0.069,-0.076,-0.028
-0.039,0.067,0.106,-0.015,-0.073,0.087,-0.008,0.222,0.026,-0.045,-0.039,0.002
0.009,0.112,0.103,-0.061,-0.047,0.107,-0.017,0.26,0.055,-0.004,-0.011,0.036
0.041,0.154,0.113,-0.098,-0.037,0.133,-0.017,0.288,0.082,0.041,0.032,0.069
0.049,0.198,0.149,-0.124,-0.05,0.173,-0.039,0.309,0.105,0.08,0.079,0.109
0.075,0.239,0.163,-0.157,-0.044,0.201,-0.062,0.319,0.129,0.109,0.112,0.154
0.101,0.258,0.158,-0.18,-0.028,0.208,-0.066,0.303,0.134,0.128,0.123,0.168
0.1,0.25,0.151,-0.175,-0.026,0.2,-0.078,0.29,0.124,0.13,0.122,0.166
0.077,0.22,0.143,-0.149,-0.033,0.181,-0.073,0.274,0.117,0.11,0.109,0.151
0.058,0.193,0.136,-0.126,-0.039,0.164,-0.062,0.25,0.107,0.07,0.062,0.106
0.025,0.154,0.129,-0.09,-0.052,0.142,-0.053,0.21,0.1,0.034,0.01,0.065
-0.022,0.102,0.124,-0.041,-0.073,0.113,-0.046,0.17,0.076,-0.003,-0.028,0.029
-0.059,0.062,0.121,-0.001,-0.091,0.091,-0.042,0.138,0.036,-0.045,-0.064,-0.004
-0.086,0.029,0.115,0.028,-0.101,0.072,-0.036,0.113,0.019,-0.066,-0.087,-0.035
-0.092,0.014,0.106,0.038,-0.099,0.06,-0.03,0.1,0.011,-0.071,-0.098,-0.052
-0.082,0.016,0.098,0.033,-0.09,0.056,-0.026,0.091,0.0,-0.078,-0.103,-0.05
-0.075,0.013,0.089,0.031,-0.082,0.05,-0.029,0.09,0.0,-0.086,-0.111,-0.05
-0.075,0.01,0.085,0.032,-0.08,0.047,-0.03,0.089,0.0,-0.084,-0.116,-0.05
-0.076,0.01,0.086,0.033,-0.081,0.048,-0.03,0.086,-0.005,-0.081,-0.114,-0.05
-0.089,0.012,0.101,0.038,-0.095,0.057,-0.036,0.083,-0.005,-0.078,-0.115,-0.049
-0.089,0.019,0.107,0.034,-0.098,0.063,-0.034,0.089,-0.006,-0.075,-0.115,-0.046
-0.076,0.024,0.1,0.026,-0.089,0.062,-0.035,0.104,-0.01,-0.075,-0.115,-0.043
-0.074,0.029,0.103,0.022,-0.088,0.066,-0.049,0.101,-0.01,-0.075,-0.115,-0.04
-0.058,0.035,0.093,0.011,-0.076,0.064,-0.051,0.094,-0.012,-0.075,-0.115,-0.037
-0.074,0.039,0.113,0.017,-0.094,0.076,-0.049,0.09,-0.016,-0.075,-0.115,-0.035
-0.104,0.035,0.139,0.034,-0.122,0.087,-0.05,0.083,-0.015,-0.08,-0.115,-0.033
-0.106,0.027,0.133,0.039,-0.12,0.08,-0.05,0.079,-0.02,-0.086,-0.115,-0.03
-0.106,0.021,0.127,0.042,-0.117,0.074,-0.049,0.074,-0.03,-0.084,-0.115,-0.03
-0.084,0.014,0.098,0.035,-0.091,0.056,-0.045,0.071,-0.039,-0.085,-0.118,-0.03
-0.093,0.007,0.101,0.043,-0.097,0.054,-0.045,0.067,-0.04,-0.085,-0.12,-0.03
-0.102,0.005,0.107,0.049,-0.105,0.056,-0.045,0.063,-0.04,-0.085,-0.123,-0.03
-0.095,0.005,0.101,0.045,-0.098,0.053,-0.045,0.06,-0.04,-0.093,-0.125,-0.035
-0.118,0.005,0.123,0.056,-0.121,0.064,-0.045,0.057,-0.04,-0.096,-0.125,-0.034
-0.108,0.005,0.113,0.051,-0.111,0.059,-0.048,0.054,-0.04,-0.095,-0.125,-0.039
-0.099,0.015,0.114,0.042,-0.107,0.064,-0.051,0.051,-0.04,-0.093,-0.125,-0.051
-0.078,0.023,0.101,0.027,-0.09,0.062,-0.049,0.048,-0.04,-0.09,-0.125,-0.048
-0.063,0.018,0.081,0.022,-0.072,0.049,-0.05,0.044,-0.04,-0.089,-0.124,-0.061
-0.104,0.015,0.119,0.044,-0.112,0.067,-0.049,0.046,-0.04,-0.1,-0.128,-0.077
-0.113,0.012,0.125,0.051,-0.119,0.068,-0.051,0.05,-0.041,-0.106,-0.13,-0.074
-0.106,0.007,0.113,0.049,-0.11,0.06,-0.055,0.052,-0.039,-0.105,-0.131,-0.075
-0.11,0.005,0.115,0.053,-0.113,0.06,-0.055,0.055,-0.035,-0.104,-0.135,-0.075
-0.105,0.0,0.106,0.053,-0.105,0.053,-0.055,0.058,-0.035,-0.106,-0.135,-0.075
-0.104,0.0,0.104,0.051,-0.104,0.052,-0.055,0.061,-0.032,-0.104,-0.14,-0.069
-0.118,-0.001,0.117,0.06,-0.117,0.057,-0.055,0.056,-0.03,-0.101,-0.14,-0.052
-0.124,-0.005,0.119,0.065,-0.121,0.057,-0.051,0.055,-0.029,-0.12,-0.141,-0.043
-0.118,-0.005,0.113,0.061,-0.115,0.054,-0.05,0.055,-0.038,-0.124,-0.145,-0.045
-0.118,-0.007,0.111,0.063,-0.115,0.052,-0.05,0.056,-0.047,-0.115,-0.145,-0.045
-0.117,-0.011,0.106,0.063,-0.111,0.047,-0.045,0.054,-0.042,-0.112,-0.145,-0.045
-0.113,-0.01,0.104,0.061,-0.109,0.047,-0.045,0.056,-0.039,-0.104,-0.145,-0.045
-0.109,-0.011,0.098,0.06,-0.104,0.044,-0.043,0.055,-0.036,-0.101,-0.145,-0.045
-0.11,-0.016,0.094,0.063,-0.101,0.039,-0.039,0.053,-0.03,-0.094,-0.145,-0.049
-0.1,-0.011,0.089,0.056,-0.094,0.039,-0.035,0.076,-0.032,-0.089,-0.145,-0.05
-0.09,-0.004,0.086,0.046,-0.087,0.041,-0.033,0.082,-0.036,-0.084,-0.145,-0.05
-0.077,0.002,0.079,0.037,-0.078,0.04,-0.029,0.08,-0.03,-0.078,-0.139,-0.05
-0.076,0.01,0.086,0.033,-0.081,0.047,-0.024,0.087,-0.025,-0.072,-0.133,-0.045
-0.099,0.014,0.113,0.042,-0.107,0.064,-0.035,0.084,-0.02,-0.067,-0.128,-0.03
-0.087,0.028,0.115,0.029,-0.101,0.071,-0.03,0.102,-0.012,-0.064,-0.121,-0.022
-0.07,0.038,0.108,0.016,-0.089,0.073,-0.035,0.108,-0.012,-0.065,-0.117,-0.025
-0.079,0.029,0.109,0.025,-0.094,0.069,-0.068,0.117,-0.018,-0.059,-0.109,-0.025
-0.081,0.02,0.101,0.03,-0.091,0.06,-0.08,0.112,-0.028,-0.061,-0.107,-0.025
-0.076,0.015,0.092,0.03,-0.084,0.053,-0.082,0.065,-0.035,-0.085,-0.127,-0.034
-0.067,0.002,0.069,0.032,-0.068,0.036,-0.076,0.033,-0.043,-0.104,-0.144,-0.049
-0.081,-0.002,0.079,0.041,-0.08,0.038,-0.071,0.022,-0.047,-0.103,-0.136,-0.041
-0.117,-0.029,0.088,0.073,-0.102,0.029,-0.068,0.033,-0.042,-0.1,-0.142,-0.048
-0.137,-0.029,0.108,0.083,-0.122,0.039,-0.061,0.008,-0.049,-0.094,-0.139,-0.043
-0.147,-0.028,0.12,0.087,-0.133,0.046,-0.061,0.031,-0.04,-0.08,-0.141,-0.046
-0.157,-0.022,0.135,0.089,-0.146,0.057,-0.037,0.007,-0.049,-0.082,-0.149,-0.042
-0.14,-0.01,0.13,0.075,-0.135,0.06,0.055,0.306,0.044,-0.055,-0.135,-0.035
0.038,0.163,0.125,-0.101,-0.044,0.144,-0.029,0.33,0.271,0.16,0.054,0.106
0.393,0.752,0.36,-0.573,0.016,0.556,-0.593,-0.826,0.525,0.761,0.713,0.711
0.356,0.685,0.329,-0.521,0.013,0.506,-0.934,-1.277,0.437,0.789,0.744,0.755
-0.119,0.008,0.127,0.055,-0.123,0.067,-0.558,-0.742,-0.091,-0.018,-0.052,0.071
-0.251,-0.094,0.158,0.172,-0.204,0.032,-0.2,-0.338,-0.214,-0.249,-0.247,-0.083
-0.162,-0.025,0.137,0.093,-0.149,0.056,-0.1,-0.045,-0.071,-0.127,-0.161,-0.017
-0.168,-0.034,0.135,0.101,-0.151,0.05,-0.054,0.009,-0.092,-0.148,-0.181,-0.044
-0.159,-0.032,0.127,0.095,-0.143,0.047,-0.042,0.028,-0.067,-0.118,-0.153,-0.048
-0.164,-0.046,0.118,0.105,-0.141,0.036,-0.022,0.037,-0.066,-0.139,-0.168,-0.064
-0.156,-0.035,0.121,0.096,-0.139,0.043,-0.018,0.055,-0.058,-0.119,-0.154,-0.045
-0.156,-0.044,0.112,0.099,-0.134,0.034,-0.021,0.072,-0.051,-0.128,-0.157,-0.051
-0.152,-0.038,0.114,0.095,-0.133,0.038,-0.025,0.058,-0.05,-0.123,-0.153,-0.03
-0.149,-0.041,0.108,0.095,-0.129,0.033,-0.029,0.071,-0.039,-0.115,-0.149,-0.04
-0.146,-0.036,0.109,0.091,-0.127,0.036,-0.032,0.075,-0.038,-0.118,-0.151,-0.023
-0.135,-0.034,0.101,0.084,-0.117,0.033,-0.036,0.083,-0.038,-0.098,-0.147,-0.066
-0.135,-0.036,0.099,0.085,-0.117,0.031,-0.039,0.077,-0.038,-0.115,-0.143,-0.009
-0.12,-0.029,0.091,0.074,-0.105,0.031,-0.04,0.092,-0.03,-0.078,-0.148,0.107
-0.123,-0.031,0.092,0.077,-0.107,0.03,-0.04,0.103,-0.027,-0.113,-0.135,0.001
-0.11,-0.028,0.081,0.069,-0.096,0.026,-0.04,0.109,-0.019,-0.06,-0.14,-0.009
-0.13,-0.015,0.114,0.072,-0.121,0.049,-0.04,0.114,-0.016,-0.114,-0.082,0.011
-0.104,-0.002,0.102,0.053,-0.103,0.05,-0.042,0.132,-0.02,-0.021,0.005,-0.012
-0.115,0.025,0.141,0.045,-0.129,0.083,-0.046,0.17,-0.02,0.196,-0.003,0.012
