0.007,-0.038,-0.045,0.016,0.027,-0.042,-0.614,-0.136,0.378,0.105,-0.046,-0.065
0.004,-0.06,-0.064,0.029,0.034,-0.062,-0.607,-0.16,0.356,0.097,-0.052,-0.072
0.017,-0.065,-0.082,0.024,0.05,-0.073,-0.597,-0.198,0.345,0.082,-0.062,-0.083
0.007,-0.06,-0.067,0.027,0.037,-0.063,-0.588,-0.234,0.356,0.075,-0.073,-0.087
0.008,-0.059,-0.067,0.026,0.038,-0.063,-0.566,-0.305,0.378,0.073,-0.082,-0.083
-0.002,-0.063,-0.061,0.033,0.029,-0.062,-0.543,-0.347,0.411,0.071,-0.082,-0.077
-0.019,-0.075,-0.056,0.047,0.019,-0.065,-0.532,-0.272,0.409,0.067,-0.078,-0.074
-0.01,-0.065,-0.055,0.038,0.023,-0.06,-0.523,-0.217,0.404,0.065,-0.076,-0.068
0.007,-0.048,-0.054,0.021,0.031,-0.051,-0.524,-0.233,0.402,0.062,-0.072,-0.066
0.005,-0.045,-0.051,0.02,0.028,-0.048,-0.525,-0.201,0.398,0.054,-0.07,-0.082
0.015,-0.031,-0.046,0.009,0.031,-0.039,-0.525,-0.21,0.384,0.047,-0.072,-0.086
0.01,-0.034,-0.044,0.012,0.027,-0.039,-0.524,-0.189,0.362,0.04,-0.076,-0.084
-0.026,-0.065,-0.039,0.045,0.007,-0.052,-0.533,-0.139,0.345,0.032,-0.085,-0.086
-0.019,-0.055,-0.037,0.038,0.009,-0.046,-0.54,-0.165,0.332,0.026,-0.096,-0.085
-0.007,-0.037,-0.03,0.022,0.012,-0.033,-0.53,-0.167,0.334,0.029,-0.099,-0.085
0.004,-0.017,-0.021,0.007,0.013,-0.019,-0.528,-0.144,0.338,0.031,-0.094,-0.075
0.015,0.04,0.024,-0.028,-0.005,0.032,-0.514,-0.105,0.34,0.048,-0.079,-0.065
0.008,0.067,0.059,-0.037,-0.026,0.063,-0.506,-0.065,0.334,0.071,-0.056,-0.056
0.047,0.088,0.041,-0.068,0.003,0.064,-0.54,-0.045,0.314,0.063,-0.045,-0.055
0.079,0.103,0.024,-0.091,0.027,0.063,-0.589,-0.127,0.301,0.051,-0.044,-0.055
0.066,0.086,0.02,-0.076,0.023,0.053,-0.621,-0.156,0.289,0.04,-0.048,-0.054
0.08,0.079,-0.001,-0.08,0.04,0.039,-0.617,-0.077,0.279,0.034,-0.063,-0.057
0.054,0.029,-0.025,-0.041,0.039,0.002,-0.604,-0.092,0.274,0.03,-0.076,-0.049
-0.011,-0.046,-0.035,0.029,0.012,-0.04,-0.597,-0.094,0.235,0.002,-0.089,-0.069
-0.04,-0.1,-0.06,0.07,0.01,-0.08,-0.589,-0.092,0.206,-0.046,-0.13,-0.119
-0.056,-0.14,-0.084,0.099,0.014,-0.112,-0.58,-0.09,0.2,-0.081,-0.158,-0.138
-0.054,-0.14,-0.086,0.097,0.016,-0.113,-0.575,-0.073,0.217,-0.069,-0.142,-0.131
-0.054,-0.137,-0.084,0.096,0.015,-0.11,-0.574,-0.11,0.201,-0.09,-0.158,-0.139
-0.014,-0.136,-0.121,0.075,0.054,-0.128,-0.575,-0.054,0.226,-0.063,-0.141,-0.13
-0.004,-0.131,-0.127,0.069,0.062,-0.129,-0.575,-0.079,0.204,-0.084,-0.159,-0.139
-0.027,-0.149,-0.122,0.088,0.048,-0.135,-0.574,-0.075,0.184,-0.061,-0.145,-0.137
0.004,-0.155,-0.159,0.075,0.082,-0.156,-0.561,0.02,0.195,-0.059,-0.152,-0.13
0.065,-0.095,-0.16,0.015,0.113,-0.127,-0.484,0.191,0.374,0.043,-0.071,-0.072
0.217,0.155,-0.062,-0.186,0.14,0.046,-0.342,0.724,1.033,0.687,0.444,0.251
0.166,0.656,0.49,-0.411,-0.162,0.573,-0.269,0.455,1.215,1.361,1.134,0.763
-0.047,0.83,0.877,-0.392,-0.462,0.853,-0.515,-0.33,0.993,1.773,1.503,0.961
-0.173,0.223,0.396,-0.025,-0.285,0.309,-0.748,-0.402,0.343,0.757,0.544,0.272
-0.21,-0.349,-0.139,0.279,-0.035,-0.243,-0.732,-0.442,-0.5,-0.652,-0.524,-0.361
-0.078,-0.349,-0.271,0.214,0.097,-0.31,-0.659,-0.292,-0.251,-0.517,-0.415,-0.29
-0.01,-0.227,-0.218,0.119,0.104,-0.222,-0.501,0.032,0.125,-0.238,-0.271,-0.215
-0.031,-0.174,-0.143,0.103,0.056,-0.158,-0.454,0.018,0.155,-0.18,-0.21,-0.176
-0.036,-0.145,-0.109,0.091,0.037,-0.126,-0.473,0.001,0.177,-0.127,-0.181,-0.155
-0.039,-0.138,-0.099,0.088,0.03,-0.118,-0.456,-0.035,0.16,-0.124,-0.187,-0.158
-0.043,-0.142,-0.099,0.093,0.028,-0.12,-0.464,-0.057,0.181,-0.08,-0.16,-0.145
-0.043,-0.134,-0.091,0.089,0.024,-0.112,-0.456,-0.025,0.181,-0.095,-0.175,-0.146
-0.032,-0.122,-0.089,0.077,0.029,-0.105,-0.465,-0.078,0.207,-0.067,-0.153,-0.135
-0.031,-0.113,-0.081,0.072,0.025,-0.097,-0.464,-0.096,0.205,-0.056,-0.133,-0.134
-0.008,-0.091,-0.083,0.05,0.037,-0.087,-0.464,-0.08,0.206,-0.033,-0.11,-0.127
-0.021,-0.087,-0.066,0.054,0.023,-0.076,-0.465,-0.06,0.23,-0.024,-0.104,-0.125
-0.009,-0.054,-0.045,0.032,0.019,-0.049,-0.464,-0.045,0.243,-0.009,-0.097,-0.114
0.024,-0.037,-0.06,0.007,0.042,-0.048,-0.463,-0.048,0.267,0.016,-0.081,-0.093
0.0,-0.064,-0.064,0.032,0.032,-0.064,-0.451,-0.035,0.31,0.042,-0.047,-0.073
0.028,-0.026,-0.054,0.0,0.041,-0.04,-0.446,0.002,0.349,0.076,-0.015,-0.055
0.048,-0.005,-0.052,-0.021,0.05,-0.028,-0.458,0.026,0.4,0.113,0.011,-0.039
0.053,0.009,-0.044,-0.03,0.048,-0.017,-0.457,0.047,0.472,0.172,0.043,-0.015
0.074,0.044,-0.03,-0.058,0.051,0.007,-0.456,0.081,0.56,0.245,0.103,0.025
0.081,0.076,-0.005,-0.078,0.043,0.035,-0.454,0.106,0.65,0.324,0.17,0.063
0.109,0.147,0.038,-0.128,0.035,0.092,-0.454,0.151,0.734,0.406,0.232,0.112
0.14,0.175,0.035,-0.158,0.052,0.104,-0.45,0.213,0.792,0.482,0.303,0.16
0.157,0.205,0.048,-0.182,0.055,0.126,-0.421,0.254,0.812,0.509,0.346,0.196
0.156,0.24,0.084,-0.199,0.036,0.162,-0.429,0.257,0.8,0.512,0.349,0.224
0.156,0.216,0.059,-0.186,0.048,0.137,-0.395,0.197,0.747,0.504,0.344,0.208
0.13,0.182,0.052,-0.156,0.038,0.117,-0.558,0.101,0.677,0.447,0.325,0.182
0.069,0.133,0.064,-0.101,0.002,0.098,-0.93,-0.021,0.576,0.348,0.231,0.13
0.056,0.091,0.035,-0.074,0.01,0.062,-1.13,-0.196,0.461,0.251,0.143,0.064
0.049,0.055,0.006,-0.052,0.021,0.03,-1.224,-0.228,0.383,0.172,0.095,0.021
0.009,0.022,0.013,-0.016,-0.002,0.017,-1.278,-0.143,0.336,0.101,0.024,-0.021
-0.03,-0.022,0.008,0.026,-0.019,-0.007,-1.301,-0.109,0.304,0.06,-0.029,-0.052
-0.044,-0.041,0.003,0.042,-0.023,-0.019,-1.309,-0.094,0.285,0.043,-0.064,-0.089
-0.038,-0.038,0.0,0.038,-0.019,-0.019,-1.317,-0.093,0.273,0.031,-0.078,-0.108
-0.024,-0.047,-0.023,0.036,-0.001,-0.035,-1.304,-0.083,0.262,0.02,-0.074,-0.104
-0.014,-0.021,-0.007,0.018,-0.004,-0.014,-1.258,-0.072,0.256,0.011,-0.076,-0.106
-0.057,-0.044,0.013,0.05,-0.035,-0.015,-1.208,-0.061,0.249,0.009,-0.074,-0.105
-0.042,-0.057,-0.015,0.05,-0.013,-0.036,-1.138,-0.048,0.242,0.006,-0.075,-0.105
0.002,-0.03,-0.032,0.014,0.017,-0.031,-1.09,-0.045,0.236,0.003,-0.071,-0.102
-0.007,-0.038,-0.031,0.022,0.013,-0.034,-1.052,-0.033,0.23,0.0,-0.07,-0.097
-0.006,-0.033,-0.027,0.02,0.011,-0.03,-1.0,-0.036,0.221,-0.002,-0.07,-0.095
-0.011,-0.036,-0.025,0.024,0.008,-0.03,-0.936,-0.075,0.207,-0.005,-0.065,-0.09
-0.016,-0.035,-0.019,0.026,0.002,-0.027,-0.859,-0.101,0.202,-0.007,-0.065,-0.087
-0.011,-0.034,-0.023,0.023,0.007,-0.028,-0.798,-0.093,0.205,-0.011,-0.064,-0.083
-0.013,-0.058,-0.044,0.036,0.016,-0.051,-0.769,-0.117,0.207,-0.013,-0.058,-0.078
-0.021,-0.068,-0.047,0.044,0.013,-0.057,-0.736,-0.126,0.211,-0.018,-0.051,-0.073
-0.009,-0.043,-0.033,0.026,0.012,-0.038,-0.681,-0.118,0.214,0.0,-0.045,-0.067
0.005,0.014,0.008,-0.01,-0.002,0.011,-0.622,-0.085,0.215,0.034,-0.037,-0.061
0.014,0.046,0.032,-0.03,-0.01,0.039,-0.584,-0.043,0.226,0.032,-0.035,-0.059
0.022,0.046,0.024,-0.034,-0.002,0.035,-0.568,-0.094,0.213,0.022,-0.035,-0.061
0.025,0.041,0.017,-0.033,0.004,0.028,-0.558,-0.113,0.187,0.016,-0.034,-0.059
0.03,0.042,0.013,-0.036,0.009,0.027,-0.531,-0.128,0.17,0.006,-0.036,-0.061
0.033,0.035,0.002,-0.034,0.015,0.018,-0.49,-0.164,0.16,0.0,-0.033,-0.058
0.013,0.004,-0.009,-0.008,0.011,-0.003,-0.443,-0.136,0.135,-0.024,-0.057,-0.062
-0.018,-0.051,-0.032,0.034,0.007,-0.041,-0.398,-0.099,0.102,-0.046,-0.082,-0.085
-0.045,-0.13,-0.086,0.088,0.021,-0.108,-0.364,-0.119,0.06,-0.09,-0.115,-0.122
-0.044,-0.14,-0.096,0.093,0.027,-0.118,-0.324,-0.142,0.035,-0.122,-0.135,-0.153
-0.021,-0.117,-0.096,0.069,0.038,-0.106,-0.29,-0.101,0.048,-0.113,-0.128,-0.154
-0.057,-0.15,-0.092,0.104,0.018,-0.121,-0.257,-0.128,0.028,-0.131,-0.136,-0.158
-0.069,-0.168,-0.099,0.119,0.016,-0.133,-0.208,-0.145,0.049,-0.104,-0.114,-0.154
-0.073,-0.163,-0.09,0.119,0.009,-0.126,-0.16,-0.254,0.018,-0.14,-0.137,-0.168
-0.058,-0.168,-0.11,0.113,0.027,-0.139,-0.132,-0.329,0.057,-0.094,-0.098,-0.148
-0.001,-0.157,-0.156,0.079,0.078,-0.156,-0.055,-0.254,0.072,-0.117,-0.139,-0.161
0.071,-0.064,-0.135,-0.003,0.103,-0.099,0.044,-0.011,0.367,0.099,0.012,-0.051
0.192,0.238,0.045,-0.215,0.073,0.141,0.208,0.394,1.017,0.797,0.583,0.333
0.058,0.731,0.673,-0.395,-0.308,0.702,0.26,-0.041,0.99,1.387,1.231,0.798
-0.145,0.779,0.924,-0.317,-0.535,0.851,-0.038,-0.693,0.664,1.555,1.366,0.833
-0.22,0.082,0.302,0.069,-0.261,0.192,-0.179,-0.763,-0.033,0.288,0.22,0.069
-0.211,-0.414,-0.203,0.313,-0.004,-0.308,-0.113,-0.737,-0.598,-0.783,-0.57,-0.368
-0.074,-0.334,-0.26,0.205,0.093,-0.297,0.015,-0.423,-0.197,-0.449,-0.347,-0.254
-0.043,-0.223,-0.18,0.133,0.069,-0.201,0.223,-0.165,0.069,-0.25,-0.25,-0.224
-0.057,-0.189,-0.132,0.123,0.037,-0.16,0.265,-0.215,0.087,-0.176,-0.18,-0.166
-0.045,-0.159,-0.113,0.102,0.034,-0.136,0.256,-0.26,0.095,-0.145,-0.17,-0.159
-0.034,-0.141,-0.108,0.087,0.037,-0.125,0.26,-0.252,0.077,-0.144,-0.163,-0.15
-0.025,-0.137,-0.112,0.081,0.044,-0.124,0.252,-0.242,0.088,-0.116,-0.145,-0.143
-0.026,-0.134,-0.108,0.08,0.042,-0.121,0.259,-0.233,0.075,-0.12,-0.148,-0.142
-0.008,-0.12,-0.112,0.064,0.052,-0.115,0.31,-0.158,0.09,-0.091,-0.131,-0.13
-0.01,-0.107,-0.097,0.059,0.044,-0.102,0.319,-0.112,0.089,-0.087,-0.132,-0.132
-0.012,-0.093,-0.081,0.053,0.034,-0.087,0.308,-0.116,0.095,-0.068,-0.104,-0.118
-0.008,-0.088,-0.08,0.048,0.036,-0.084,0.38,-0.094,0.1,-0.053,-0.093,-0.113
0.006,-0.074,-0.08,0.034,0.043,-0.077,0.398,-0.108,0.104,-0.033,-0.087,-0.103
0.001,-0.079,-0.08,0.039,0.04,-0.08,0.381,-0.084,0.12,-0.011,-0.059,-0.093
-0.006,-0.077,-0.071,0.042,0.033,-0.074,0.406,-0.032,0.129,0.017,-0.032,-0.079
0.017,-0.041,-0.058,0.012,0.038,-0.049,0.426,-0.007,0.15,0.041,-0.013,-0.063
0.017,-0.03,-0.047,0.007,0.032,-0.038,0.409,0.06,0.206,0.085,0.024,-0.026
0.03,-0.001,-0.031,-0.014,0.031,-0.016,0.397,0.125,0.255,0.141,0.064,0.013
0.061,0.042,-0.019,-0.051,0.04,0.011,0.395,0.189,0.309,0.201,0.113,0.042
0.08,0.077,-0.003,-0.078,0.042,0.036,0.391,0.28,0.393,0.285,0.184,0.096
0.106,0.115,0.01,-0.111,0.048,0.062,0.39,0.38,0.463,0.356,0.251,0.143
0.131,0.152,0.022,-0.142,0.054,0.087,0.384,0.44,0.498,0.412,0.305,0.185
0.137,0.187,0.05,-0.162,0.043,0.118,0.387,0.473,0.502,0.435,0.343,0.225
0.123,0.18,0.057,-0.152,0.033,0.118,0.38,0.461,0.497,0.423,0.348,0.228
0.117,0.171,0.054,-0.144,0.031,0.112,0.404,0.382,0.455,0.399,0.324,0.222
0.113,0.169,0.056,-0.141,0.028,0.112,0.437,0.32,0.365,0.329,0.271,0.193
0.067,0.117,0.05,-0.092,0.008,0.083,0.463,0.266,0.268,0.233,0.198,0.132
0.03,0.071,0.04,-0.051,-0.005,0.055,0.49,0.192,0.162,0.137,0.121,0.076
0.019,0.048,0.03,-0.034,-0.006,0.039,0.51,0.079,0.062,0.046,0.044,0.03
-0.029,-0.004,0.025,0.016,-0.027,0.01,0.528,0.008,0.0,-0.009,-0.011,-0.005
-0.062,-0.037,0.025,0.049,-0.044,-0.006,0.517,0.003,-0.045,-0.051,-0.049,-0.044
-0.065,-0.042,0.023,0.053,-0.044,-0.009,0.537,-0.003,-0.092,-0.086,-0.074,-0.066
-0.066,-0.047,0.018,0.057,-0.042,-0.014,0.562,0.002,-0.106,-0.096,-0.082,-0.067
-0.071,-0.049,0.022,0.06,-0.047,-0.013,0.559,0.007,-0.113,-0.095,-0.086,-0.071
-0.056,-0.045,0.011,0.05,-0.034,-0.016,0.552,0.012,-0.118,-0.095,-0.085,-0.075
-0.042,-0.033,0.009,0.037,-0.025,-0.012,0.55,0.014,-0.121,-0.095,-0.085,-0.072
-0.054,-0.03,0.025,0.042,-0.039,-0.002,0.579,0.035,-0.136,-0.094,-0.085,-0.066
-0.027,-0.014,0.012,0.02,-0.019,-0.001,0.586,0.048,-0.139,-0.098,-0.084,-0.061
-0.037,-0.03,0.007,0.033,-0.022,-0.011,0.604,0.059,-0.143,-0.1,-0.088,-0.057
-0.064,-0.07,-0.006,0.067,-0.029,-0.038,0.627,0.084,-0.145,-0.101,-0.091,-0.049
-0.058,-0.07,-0.012,0.064,-0.023,-0.041,0.624,0.079,-0.149,-0.099,-0.089,-0.048
-0.069,-0.069,0.0,0.069,-0.034,-0.035,0.611,0.08,-0.15,-0.107,-0.094,-0.059
-0.044,-0.065,-0.021,0.055,-0.011,-0.043,0.626,0.08,-0.153,-0.122,-0.095,-0.057
-0.041,-0.065,-0.025,0.053,-0.007,-0.045,0.666,0.09,-0.177,-0.128,-0.096,-0.051
-0.05,-0.063,-0.013,0.057,-0.018,-0.038,0.672,0.095,-0.181,-0.139,-0.101,-0.048
-0.031,-0.044,-0.013,0.038,-0.009,-0.028,0.665,0.079,-0.182,-0.133,-0.103,-0.043
-0.012,-0.015,-0.004,0.014,-0.004,-0.009,0.669,0.113,-0.173,-0.116,-0.094,-0.039
0.011,0.025,0.015,-0.018,-0.002,0.02,0.688,0.132,-0.155,-0.109,-0.069,-0.035
0.03,0.055,0.025,-0.042,0.002,0.039,0.667,0.13,-0.12,-0.11,-0.062,-0.035
0.038,0.082,0.043,-0.06,-0.003,0.062,0.624,0.117,-0.118,-0.109,-0.068,-0.035
0.046,0.086,0.04,-0.066,0.003,0.063,0.612,0.076,-0.181,-0.112,-0.068,-0.034
0.025,0.055,0.03,-0.04,-0.003,0.043,0.605,0.093,-0.211,-0.133,-0.075,-0.036
-0.001,0.014,0.015,-0.006,-0.008,0.014,0.599,0.057,-0.216,-0.135,-0.077,-0.037
-0.001,-0.018,-0.017,0.01,0.009,-0.018,0.592,-0.001,-0.227,-0.147,-0.089,-0.044
-0.037,-0.064,-0.027,0.051,-0.005,-0.045,0.585,-0.028,-0.226,-0.178,-0.119,-0.074
-0.032,-0.107,-0.075,0.07,0.022,-0.091,0.607,-0.096,-0.249,-0.23,-0.164,-0.115
-0.045,-0.129,-0.083,0.087,0.019,-0.106,0.64,-0.108,-0.244,-0.235,-0.164,-0.121
-0.087,-0.152,-0.065,0.12,-0.011,-0.109,0.656,-0.062,-0.242,-0.232,-0.166,-0.118
-0.056,-0.15,-0.094,0.103,0.019,-0.122,0.655,-0.029,-0.253,-0.242,-0.189,-0.124
-0.046,-0.148,-0.102,0.097,0.028,-0.125,0.653,0.004,-0.232,-0.221,-0.173,-0.114
-0.066,-0.153,-0.087,0.109,0.011,-0.12,0.658,-0.018,-0.264,-0.256,-0.191,-0.129
-0.024,-0.147,-0.123,0.086,0.05,-0.135,0.649,0.042,-0.196,-0.193,-0.153,-0.114
0.032,-0.123,-0.156,0.046,0.094,-0.139,0.68,0.136,-0.168,-0.218,-0.176,-0.114
0.15,0.007,-0.142,-0.079,0.146,-0.067,0.8,0.56,0.292,0.151,0.097,0.047
0.213,0.369,0.156,-0.291,0.028,0.263,0.947,0.865,0.833,0.871,0.736,0.495
0.027,0.829,0.802,-0.428,-0.388,0.815,0.812,0.078,0.662,1.437,1.355,0.935
-0.132,0.637,0.769,-0.253,-0.451,0.703,0.495,-0.379,0.33,1.312,1.164,0.73
-0.213,-0.138,0.075,0.175,-0.144,-0.032,0.411,-0.317,-0.556,-0.201,-0.126,-0.104
-0.181,-0.434,-0.254,0.308,0.037,-0.344,0.466,-0.317,-0.929,-0.886,-0.595,-0.364
-0.044,-0.272,-0.227,0.158,0.092,-0.249,0.638,0.051,-0.407,-0.457,-0.324,-0.209
-0.03,-0.18,-0.15,0.106,0.06,-0.165,0.73,0.173,-0.28,-0.363,-0.286,-0.184
-0.055,-0.16,-0.105,0.108,0.025,-0.132,0.688,0.071,-0.259,-0.282,-0.213,-0.132
-0.025,-0.13,-0.106,0.078,0.041,-0.118,0.73,0.023,-0.254,-0.272,-0.216,-0.139
-0.014,-0.124,-0.11,0.069,0.049,-0.116,0.742,-0.049,-0.254,-0.245,-0.199,-0.127
-0.028,-0.125,-0.097,0.076,0.035,-0.111,0.727,-0.11,-0.234,-0.218,-0.188,-0.12
-0.036,-0.126,-0.09,0.082,0.027,-0.108,0.742,-0.099,-0.237,-0.216,-0.186,-0.113
-0.04,-0.123,-0.083,0.082,0.022,-0.103,0.751,-0.061,-0.208,-0.194,-0.168,-0.101
-0.052,-0.127,-0.075,0.09,0.012,-0.101,0.747,-0.066,-0.191,-0.193,-0.155,-0.097
-0.046,-0.116,-0.07,0.081,0.012,-0.092,0.748,-0.013,-0.157,-0.164,-0.138,-0.084
-0.001,-0.063,-0.062,0.033,0.031,-0.063,0.761,-0.033,-0.138,-0.15,-0.124,-0.079
-0.031,-0.088,-0.057,0.06,0.013,-0.072,0.767,-0.004,-0.123,-0.151,-0.125,-0.068
-0.026,-0.069,-0.043,0.048,0.009,-0.056,0.77,0.103,-0.108,-0.129,-0.114,-0.057
0.0,-0.023,-0.023,0.012,0.012,-0.023,0.77,0.117,-0.087,-0.084,-0.08,-0.04
0.005,-0.007,-0.012,0.001,0.009,-0.01,0.767,0.166,-0.049,-0.048,-0.054,-0.015
0.028,0.036,0.009,-0.032,0.009,0.022,0.793,0.235,0.006,-0.013,-0.028,0.008
0.024,0.058,0.035,-0.041,-0.006,0.046,0.813,0.281,0.094,0.053,0.025,0.034
0.071,0.088,0.017,-0.08,0.027,0.052,0.803,0.324,0.18,0.132,0.094,0.079
0.113,0.14,0.028,-0.127,0.042,0.084,0.802,0.378,0.256,0.215,0.16,0.137
0.161,0.215,0.054,-0.188,0.053,0.134,0.796,0.451,0.354,0.303,0.248,0.186
0.175,0.227,0.052,-0.201,0.062,0.139,0.784,0.501,0.388,0.34,0.283,0.214
0.163,0.248,0.085,-0.206,0.039,0.167,0.772,0.496,0.375,0.366,0.312,0.247
0.178,0.273,0.095,-0.225,0.041,0.184,0.758,0.448,0.359,0.366,0.317,0.265
0.15,0.237,0.087,-0.194,0.031,0.161,0.752,0.431,0.283,0.313,0.267,0.24
0.131,0.226,0.095,-0.179,0.018,0.16,0.76,0.35,0.196,0.233,0.221,0.2
0.102,0.18,0.078,-0.141,0.011,0.129,0.769,0.216,0.116,0.14,0.151,0.152
0.048,0.112,0.064,-0.081,-0.008,0.088,0.771,0.151,0.015,0.055,0.076,0.084
0.009,0.064,0.055,-0.037,-0.023,0.059,0.768,0.102,-0.073,-0.028,0.007,0.032
-0.012,0.034,0.045,-0.011,-0.029,0.04,0.771,0.068,-0.121,-0.085,-0.046,-0.001
-0.01,0.026,0.036,-0.008,-0.024,0.031,0.79,0.059,-0.161,-0.115,-0.082,-0.033
-0.015,0.014,0.029,0.0,-0.022,0.021,0.791,0.054,-0.205,-0.134,-0.096,-0.048
-0.037,-0.021,0.016,0.029,-0.026,-0.003,0.781,0.05,-0.206,-0.146,-0.094,-0.051
-0.055,-0.039,0.015,0.047,-0.035,-0.012,0.775,0.046,-0.188,-0.148,-0.099,-0.054
-0.072,-0.026,0.046,0.049,-0.059,0.01,0.767,0.032,-0.179,-0.14,-0.1,-0.057
-0.054,-0.005,0.049,0.029,-0.051,0.022,0.76,-0.016,-0.171,-0.136,-0.102,-0.06
-0.052,-0.011,0.041,0.031,-0.046,0.015,0.769,-0.056,-0.166,-0.13,-0.106,-0.06
-0.073,-0.033,0.04,0.053,-0.057,0.004,0.782,-0.061,-0.16,-0.125,-0.104,-0.06
-0.059,-0.027,0.032,0.043,-0.045,0.002,0.768,-0.055,-0.154,-0.132,-0.106,-0.06
-0.056,-0.024,0.032,0.04,-0.044,0.004,0.754,-0.053,-0.152,-0.14,-0.104,-0.06
-0.042,-0.021,0.021,0.031,-0.031,0.0,0.746,-0.048,-0.147,-0.14,-0.106,-0.056
-0.044,-0.016,0.028,0.03,-0.036,0.006,0.738,-0.045,-0.145,-0.144,-0.109,-0.055
-0.048,-0.015,0.033,0.031,-0.04,0.009,0.729,-0.05,-0.14,-0.145,-0.112,-0.055
-0.032,-0.031,0.001,0.031,-0.016,-0.014,0.723,-0.058,-0.138,-0.147,-0.115,-0.05
-0.045,-0.044,0.001,0.044,-0.022,-0.021,0.708,-0.079,-0.166,-0.158,-0.117,-0.05
-0.035,-0.033,0.002,0.034,-0.018,-0.015,0.682,-0.081,-0.178,-0.155,-0.122,-0.049
-0.015,-0.018,-0.003,0.016,-0.005,-0.01,0.667,-0.068,-0.174,-0.156,-0.114,-0.044
-0.01,0.017,0.028,-0.004,-0.019,0.022,0.656,-0.062,-0.157,-0.15,-0.093,-0.04
-0.008,0.056,0.064,-0.024,-0.036,0.06,0.645,-0.04,-0.132,-0.127,-0.067,-0.036
-0.009,0.087,0.096,-0.039,-0.053,0.091,0.629,-0.017,-0.136,-0.123,-0.049,-0.03
0.018,0.122,0.104,-0.07,-0.043,0.113,0.6,-0.022,-0.135,-0.126,-0.043,-0.025
0.04,0.131,0.091,-0.085,-0.025,0.11,0.558,-0.059,-0.132,-0.125,-0.039,-0.019
0.012,0.101,0.089,-0.057,-0.039,0.094,0.51,-0.099,-0.16,-0.132,-0.062,-0.015
0.003,0.059,0.056,-0.031,-0.027,0.057,0.471,-0.1,-0.172,-0.128,-0.072,-0.007
0.015,0.029,0.014,-0.022,0.0,0.021,0.454,-0.096,-0.169,-0.134,-0.067,-0.009
-0.005,-0.017,-0.012,0.011,0.003,-0.014,0.449,-0.096,-0.172,-0.157,-0.088,-0.044
-0.05,-0.077,-0.027,0.064,-0.011,-0.051,0.438,-0.081,-0.193,-0.193,-0.129,-0.079
-0.063,-0.093,-0.03,0.079,-0.017,-0.061,0.427,-0.067,-0.218,-0.219,-0.153,-0.091
-0.042,-0.092,-0.049,0.067,0.004,-0.07,0.416,-0.053,-0.193,-0.21,-0.146,-0.096
-0.064,-0.108,-0.044,0.086,-0.01,-0.076,0.403,-0.063,-0.211,-0.231,-0.167,-0.109
-0.068,-0.105,-0.037,0.087,-0.015,-0.071,0.391,-0.044,-0.18,-0.212,-0.155,-0.109
-0.067,-0.096,-0.029,0.081,-0.018,-0.063,0.374,-0.058,-0.201,-0.237,-0.183,-0.123
-0.039,-0.11,-0.071,0.075,0.016,-0.091,0.375,-0.02,-0.162,-0.188,-0.166,-0.101
0.02,-0.092,-0.112,0.036,0.066,-0.102,0.385,0.036,-0.112,-0.198,-0.166,-0.105
0.074,-0.024,-0.097,-0.025,0.086,-0.06,0.419,0.277,0.093,-0.044,-0.036,-0.027
0.2,0.227,0.027,-0.214,0.086,0.127,0.539,0.842,0.771,0.633,0.509,0.337
0.12,0.747,0.628,-0.433,-0.254,0.687,0.541,0.479,0.882,1.302,1.204,0.845
-0.078,0.85,0.928,-0.386,-0.504,0.889,0.232,-0.255,0.619,1.622,1.478,0.958
-0.197,0.153,0.35,0.022,-0.274,0.252,-0.089,-0.344,-0.066,0.449,0.392,0.209
-0.216,-0.366,-0.15,0.291,-0.033,-0.257,-0.117,-0.401,-0.829,-0.818,-0.564,-0.343
-0.1,-0.326,-0.227,0.213,0.064,-0.276,-0.069,-0.133,-0.456,-0.57,-0.366,-0.234
-0.061,-0.214,-0.153,0.138,0.047,-0.184,0.022,0.133,-0.082,-0.326,-0.248,-0.175
-0.066,-0.151,-0.086,0.109,0.01,-0.118,-0.121,0.023,-0.034,-0.256,-0.199,-0.143
-0.066,-0.13,-0.064,0.099,-0.001,-0.097,-0.674,-0.058,0.026,-0.201,-0.17,-0.132
-0.06,-0.113,-0.052,0.087,-0.003,-0.082,-0.626,-0.077,0.042,-0.196,-0.17,-0.129
-0.061,-0.113,-0.052,0.087,-0.005,-0.082,-0.201,-0.057,0.109,-0.15,-0.145,-0.114
-0.06,-0.104,-0.044,0.083,-0.008,-0.074,-0.096,-0.055,0.139,-0.147,-0.149,-0.114
-0.047,-0.084,-0.037,0.066,-0.005,-0.06,-0.004,-0.045,0.179,-0.111,-0.123,-0.1
-0.04,-0.081,-0.041,0.061,0.0,-0.06,0.043,-0.038,0.187,-0.108,-0.119,-0.098
-0.019,-0.074,-0.055,0.047,0.018,-0.064,0.072,-0.034,0.197,-0.087,-0.099,-0.088
-0.013,-0.069,-0.056,0.041,0.022,-0.062,0.1,-0.025,0.216,-0.066,-0.085,-0.082
0.01,-0.044,-0.054,0.017,0.032,-0.049,0.09,-0.02,0.227,-0.038,-0.067,-0.064
0.012,-0.039,-0.051,0.014,0.032,-0.045,0.094,-0.012,0.25,-0.006,-0.05,-0.049
-0.008,-0.013,-0.006,0.011,-0.001,-0.009,0.084,-0.004,0.275,0.009,-0.033,-0.04
-0.015,0.023,0.038,-0.005,-0.026,0.03,0.087,0.036,0.324,0.044,-0.006,-0.025
-0.018,0.023,0.041,-0.003,-0.03,0.032,0.077,0.08,0.377,0.085,0.023,-0.01
0.018,0.051,0.034,-0.035,-0.008,0.042,0.04,0.138,0.428,0.143,0.072,0.024
0.053,0.089,0.036,-0.071,0.008,0.062,0.022,0.213,0.5,0.216,0.126,0.066
0.059,0.121,0.062,-0.09,-0.002,0.091,0.028,0.294,0.566,0.291,0.189,0.117
0.095,0.159,0.064,-0.127,0.015,0.112,0.012,0.388,0.635,0.383,0.28,0.18
0.128,0.2,0.072,-0.164,0.028,0.136,-0.054,0.43,0.678,0.446,0.338,0.212
0.131,0.221,0.09,-0.176,0.02,0.155,-0.114,0.436,0.684,0.473,0.367,0.247
0.139,0.219,0.08,-0.179,0.03,0.149,-0.121,0.414,0.678,0.474,0.373,0.262
0.152,0.227,0.075,-0.19,0.039,0.15,-0.134,0.348,0.631,0.442,0.354,0.244
0.132,0.198,0.066,-0.165,0.033,0.131,-0.135,0.287,0.543,0.382,0.309,0.227
0.091,0.151,0.06,-0.121,0.015,0.105,-0.11,0.213,0.436,0.299,0.231,0.184
0.063,0.115,0.052,-0.09,0.006,0.083,-0.107,0.12,0.321,0.202,0.158,0.127
0.009,0.056,0.047,-0.033,-0.019,0.051,-0.09,0.025,0.213,0.113,0.091,0.063
-0.016,0.008,0.024,0.004,-0.02,0.016,-0.05,-0.042,0.146,0.049,0.049,0.019
-0.021,-0.018,0.002,0.019,-0.011,-0.008,-0.012,-0.086,0.105,0.001,0.011,-0.002
-0.065,-0.045,0.02,0.055,-0.042,-0.012,0.002,-0.112,0.073,-0.023,-0.028,-0.022
-0.064,-0.044,0.02,0.054,-0.042,-0.012,-0.001,-0.116,0.063,-0.041,-0.043,-0.042
-0.055,-0.032,0.023,0.043,-0.038,-0.004,-0.005,-0.116,0.066,-0.056,-0.058,-0.061
-0.061,-0.03,0.031,0.045,-0.046,0.001,-0.004,-0.114,0.064,-0.054,-0.059,-0.063
-0.052,-0.03,0.021,0.041,-0.037,-0.004,0.007,-0.111,0.067,-0.055,-0.053,-0.056
-0.046,-0.03,0.017,0.038,-0.031,-0.006,-0.024,-0.107,0.071,-0.055,-0.05,-0.051
-0.038,-0.03,0.008,0.034,-0.023,-0.011,-0.056,-0.105,0.064,-0.055,-0.045,-0.044
-0.031,-0.031,0.0,0.031,-0.015,-0.015,-0.054,-0.099,0.057,-0.058,-0.045,-0.041
-0.024,-0.026,-0.002,0.025,-0.011,-0.014,-0.061,-0.106,0.051,-0.06,-0.045,-0.04
-0.049,-0.042,0.008,0.045,-0.028,-0.017,-0.059,-0.125,0.044,-0.064,-0.045,-0.04
-0.072,-0.053,0.019,0.062,-0.045,-0.017,-0.091,-0.13,0.038,-0.065,-0.045,-0.04
-0.061,-0.048,0.012,0.054,-0.036,-0.018,-0.143,-0.133,0.031,-0.07,-0.047,-0.04
-0.058,-0.051,0.007,0.054,-0.033,-0.022,-0.168,-0.139,0.024,-0.069,-0.055,-0.039
-0.044,-0.049,-0.005,0.047,-0.02,-0.027,-0.193,-0.154,0.017,-0.067,-0.06,-0.043
-0.035,-0.05,-0.015,0.043,-0.01,-0.032,-0.206,-0.165,0.009,-0.082,-0.066,-0.046
-0.037,-0.043,-0.007,0.04,-0.015,-0.025,-0.218,-0.176,0.002,-0.085,-0.073,-0.04
-0.021,-0.035,-0.014,0.028,-0.004,-0.024,-0.225,-0.196,0.003,-0.075,-0.077,-0.035
-0.004,-0.032,-0.027,0.018,0.012,-0.03,-0.215,-0.2,0.017,-0.066,-0.082,-0.03
-0.025,-0.015,0.009,0.02,-0.017,-0.003,-0.196,-0.168,0.031,-0.055,-0.057,-0.023
-0.032,0.014,0.046,0.009,-0.039,0.03,-0.163,-0.139,0.028,-0.045,-0.033,-0.021
-0.003,0.057,0.059,-0.027,-0.031,0.058,-0.121,-0.131,0.037,-0.041,-0.035,-0.019
0.0,0.085,0.085,-0.042,-0.043,0.084,-0.128,-0.138,0.025,-0.048,-0.035,-0.021
0.009,0.097,0.088,-0.053,-0.04,0.092,-0.18,-0.188,-0.006,-0.053,-0.034,-0.019
-0.006,0.061,0.067,-0.027,-0.037,0.064,-0.187,-0.22,-0.019,-0.056,-0.036,-0.021
-0.012,0.024,0.036,-0.006,-0.024,0.03,-0.183,-0.201,-0.023,-0.056,-0.034,-0.019
-0.028,-0.003,0.025,0.015,-0.027,0.011,-0.187,-0.188,-0.036,-0.077,-0.043,-0.02
-0.073,-0.074,-0.001,0.073,-0.035,-0.037,-0.183,-0.197,-0.071,-0.109,-0.082,-0.06
-0.079,-0.098,-0.019,0.089,-0.03,-0.058,-0.187,-0.213,-0.109,-0.15,-0.119,-0.096
-0.096,-0.124,-0.028,0.11,-0.034,-0.075,-0.182,-0.21,-0.108,-0.156,-0.119,-0.094
-0.074,-0.143,-0.069,0.109,-0.003,-0.105,-0.191,-0.207,-0.102,-0.155,-0.134,-0.106
-0.066,-0.141,-0.075,0.104,0.004,-0.107,-0.204,-0.215,-0.113,-0.165,-0.135,-0.107
-0.105,-0.167,-0.062,0.136,-0.021,-0.115,-0.207,-0.202,-0.092,-0.14,-0.115,-0.101
-0.098,-0.173,-0.076,0.136,-0.011,-0.124,-0.202,-0.215,-0.124,-0.172,-0.135,-0.112
-0.047,-0.162,-0.115,0.105,0.034,-0.138,-0.207,-0.162,-0.058,-0.119,-0.091,-0.094
-0.018,-0.135,-0.117,0.077,0.05,-0.126,-0.183,-0.093,-0.032,-0.155,-0.14,-0.12
0.106,-0.023,-0.129,-0.041,0.118,-0.076,-0.098,0.289,0.373,0.178,0.114,0.045
0.189,0.312,0.123,-0.25,0.033,0.217,0.032,0.67,0.96,0.894,0.74,0.479
0.016,0.803,0.787,-0.41,-0.386,0.794,0.011,0.063,0.809,1.467,1.373,0.927
-0.156,0.702,0.858,-0.273,-0.508,0.78,-0.27,-0.554,0.447,1.435,1.287,0.791
-0.245,-0.045,0.2,0.145,-0.223,0.078,-0.424,-0.618,-0.354,-0.039,-0.005,-0.033
-0.196,-0.39,-0.194,0.293,-0.001,-0.292,-0.385,-0.546,-0.776,-0.85,-0.575,-0.347
-0.075,-0.276,-0.201,0.176,0.063,-0.238,-0.244,-0.208,-0.271,-0.424,-0.291,-0.206
-0.04,-0.188,-0.148,0.114,0.054,-0.167,-0.097,-0.022,-0.087,-0.29,-0.232,-0.179
-0.016,-0.144,-0.128,0.08,0.056,-0.136,-0.083,-0.062,-0.076,-0.206,-0.171,-0.131
-0.016,-0.12,-0.104,0.068,0.044,-0.112,-0.068,-0.094,-0.055,-0.181,-0.17,-0.122
-0.031,-0.108,-0.077,0.07,0.023,-0.092,-0.068,-0.109,-0.059,-0.155,-0.146,-0.105
-0.015,-0.085,-0.07,0.05,0.028,-0.077,-0.072,-0.098,-0.041,-0.134,-0.134,-0.101
-0.024,-0.09,-0.066,0.058,0.021,-0.077,-0.068,-0.099,-0.048,-0.137,-0.123,-0.095
-0.036,-0.099,-0.063,0.068,0.014,-0.081,-0.074,-0.092,-0.032,-0.113,-0.103,-0.086
-0.026,-0.085,-0.059,0.055,0.016,-0.071,-0.089,-0.091,-0.033,-0.117,-0.098,-0.083
-0.029,-0.083,-0.055,0.056,0.013,-0.069,-0.122,-0.085,-0.04,-0.104,-0.082,-0.073
-0.011,-0.066,-0.055,0.039,0.022,-0.061,-0.125,-0.075,-0.025,-0.088,-0.077,-0.07
0.005,-0.05,-0.055,0.023,0.03,-0.052,-0.124,-0.064,0.02,-0.057,-0.059,-0.06
0.013,-0.042,-0.055,0.015,0.034,-0.048,-0.125,-0.061,0.033,-0.033,-0.048,-0.049
0.012,-0.042,-0.054,0.015,0.033,-0.047,-0.124,-0.058,0.058,-0.013,-0.026,-0.042
0.026,-0.004,-0.03,-0.01,0.028,-0.016,-0.125,-0.017,0.108,0.018,0.007,-0.019
0.06,0.043,-0.017,-0.051,0.038,0.013,-0.132,0.046,0.143,0.069,0.045,0.016
0.06,0.056,-0.004,-0.058,0.032,0.026,-0.144,0.118,0.202,0.124,0.085,0.042
0.07,0.094,0.025,-0.083,0.022,0.059,-0.159,0.185,0.286,0.204,0.154,0.084
0.078,0.131,0.053,-0.105,0.012,0.092,-0.172,0.258,0.375,0.296,0.232,0.143
0.108,0.169,0.061,-0.139,0.023,0.114,-0.176,0.306,0.442,0.359,0.295,0.19
0.153,0.204,0.051,-0.178,0.05,0.127,-0.181,0.331,0.472,0.414,0.348,0.225
0.161,0.241,0.08,-0.201,0.04,0.16,-0.183,0.346,0.496,0.444,0.371,0.251
0.17,0.26,0.09,-0.215,0.04,0.175,-0.192,0.326,0.487,0.434,0.369,0.251
0.158,0.235,0.077,-0.197,0.04,0.156,-0.208,0.276,0.439,0.404,0.342,0.241
0.147,0.221,0.074,-0.184,0.036,0.147,-0.198,0.199,0.356,0.331,0.289,0.213
0.112,0.177,0.065,-0.145,0.023,0.121,-0.166,0.13,0.25,0.233,0.214,0.154
0.055,0.115,0.06,-0.085,-0.003,0.088,-0.146,0.049,0.154,0.15,0.146,0.106
0.015,0.068,0.053,-0.042,-0.019,0.06,-0.141,-0.023,0.064,0.067,0.084,0.065
0.006,0.049,0.043,-0.028,-0.019,0.046,-0.128,-0.084,-0.001,0.012,0.03,0.024
0.01,0.041,0.031,-0.026,-0.011,0.035,-0.1,-0.128,-0.039,-0.027,-0.01,-0.011
-0.029,0.007,0.036,0.011,-0.033,0.021,-0.082,-0.135,-0.061,-0.055,-0.03,-0.026
-0.036,-0.01,0.026,0.023,-0.031,0.008,-0.076,-0.146,-0.058,-0.053,-0.031,-0.034
-0.048,-0.025,0.023,0.036,-0.035,-0.001,-0.069,-0.145,-0.052,-0.061,-0.038,-0.049
-0.07,-0.04,0.031,0.055,-0.05,-0.004,-0.063,-0.144,-0.049,-0.067,-0.041,-0.05
-0.057,-0.038,0.019,0.047,-0.038,-0.009,-0.058,-0.146,-0.043,-0.064,-0.039,-0.045
-0.045,-0.031,0.015,0.038,-0.03,-0.008,-0.053,-0.144,-0.041,-0.066,-0.041,-0.043
-0.034,-0.027,0.007,0.03,-0.021,-0.01,-0.05,-0.148,-0.043,-0.064,-0.039,-0.038
-0.024,-0.023,0.001,0.024,-0.012,-0.011,-0.044,-0.151,-0.049,-0.066,-0.041,-0.035
-0.025,-0.022,0.003,0.023,-0.014,-0.009,-0.039,-0.155,-0.062,-0.07,-0.044,-0.039
-0.038,-0.017,0.02,0.027,-0.029,0.001,-0.033,-0.166,-0.066,-0.078,-0.047,-0.043
-0.041,-0.015,0.026,0.028,-0.033,0.005,-0.028,-0.178,-0.069,-0.082,-0.05,-0.049
-0.044,-0.019,0.025,0.031,-0.034,0.003,-0.022,-0.188,-0.073,-0.089,-0.053,-0.049
-0.039,-0.016,0.023,0.027,-0.03,0.003,-0.021,-0.197,-0.089,-0.101,-0.063,-0.056
-0.039,-0.027,0.011,0.033,-0.025,-0.008,-0.036,-0.221,-0.106,-0.107,-0.065,-0.076
-0.07,-0.056,0.014,0.063,-0.042,-0.021,-0.052,-0.237,-0.105,-0.11,-0.069,-0.075
-0.071,-0.074,-0.003,0.072,-0.034,-0.038,-0.08,-0.234,-0.106,-0.105,-0.069,-0.076
-0.028,-0.052,-0.024,0.04,-0.002,-0.038,-0.115,-0.238,-0.103,-0.122,-0.082,-0.08
-0.031,-0.067,-0.036,0.049,0.003,-0.051,-0.127,-0.24,-0.119,-0.14,-0.107,-0.08
-0.055,-0.072,-0.017,0.064,-0.019,-0.044,-0.121,-0.241,-0.129,-0.141,-0.112,-0.078
-0.072,-0.06,0.012,0.066,-0.042,-0.024,-0.109,-0.229,-0.115,-0.135,-0.107,-0.069
-0.076,-0.064,0.011,0.07,-0.043,-0.026,-0.066,-0.197,-0.11,-0.109,-0.089,-0.062
-0.069,-0.017,0.052,0.043,-0.06,0.017,-0.043,-0.19,-0.096,-0.092,-0.066,-0.043
-0.068,0.006,0.075,0.031,-0.072,0.04,-0.045,-0.184,-0.082,-0.089,-0.049,-0.026
-0.043,0.018,0.062,0.012,-0.053,0.04,-0.046,-0.192,-0.085,-0.082,-0.044,-0.025
-0.033,0.02,0.053,0.006,-0.043,0.036,-0.094,-0.238,-0.099,-0.08,-0.045,-0.025
-0.039,0.002,0.041,0.018,-0.04,0.021,-0.11,-0.264,-0.108,-0.102,-0.057,-0.025
-0.05,-0.011,0.039,0.031,-0.044,0.014,-0.119,-0.266,-0.099,-0.105,-0.061,-0.025
-0.069,-0.057,0.012,0.063,-0.04,-0.022,-0.143,-0.268,-0.101,-0.106,-0.059,-0.041
-0.106,-0.105,0.0,0.105,-0.053,-0.052,-0.134,-0.278,-0.14,-0.143,-0.094,-0.065
-0.113,-0.13,-0.016,0.122,-0.049,-0.073,-0.123,-0.304,-0.183,-0.19,-0.127,-0.093
-0.088,-0.134,-0.046,0.111,-0.02,-0.09,-0.124,-0.305,-0.187,-0.186,-0.129,-0.099
-0.086,-0.136,-0.05,0.111,-0.018,-0.092,-0.126,-0.29,-0.187,-0.192,-0.141,-0.098
-0.086,-0.143,-0.057,0.115,-0.015,-0.099,-0.125,-0.299,-0.207,-0.219,-0.152,-0.104
-0.085,-0.137,-0.052,0.111,-0.016,-0.094,-0.157,-0.274,-0.172,-0.177,-0.129,-0.094
-0.099,-0.143,-0.044,0.121,-0.027,-0.093,-0.166,-0.292,-0.196,-0.207,-0.154,-0.108
-0.039,-0.137,-0.098,0.088,0.029,-0.117,-0.157,-0.251,-0.142,-0.141,-0.114,-0.091
0.011,-0.121,-0.131,0.055,0.071,-0.126,-0.162,-0.172,-0.111,-0.171,-0.133,-0.103
0.06,-0.055,-0.115,-0.003,0.088,-0.085,-0.117,0.161,0.234,0.077,0.058,0.023
0.173,0.284,0.111,-0.228,0.031,0.197,0.006,0.61,0.838,0.787,0.66,0.431
0.05,0.787,0.737,-0.419,-0.344,0.761,-0.003,0.061,0.767,1.4,1.329,0.916
-0.147,0.738,0.885,-0.295,-0.517,0.811,-0.314,-0.611,0.454,1.506,1.359,0.87
-0.238,0.016,0.254,0.111,-0.246,0.135,-0.518,-0.694,-0.335,0.112,0.137,0.055
-0.22,-0.414,-0.194,0.317,-0.013,-0.303,-0.493,-0.68,-0.878,-0.869,-0.559,-0.335
-0.092,-0.302,-0.21,0.197,0.059,-0.255,-0.348,-0.365,-0.401,-0.489,-0.303,-0.205
-0.063,-0.182,-0.12,0.123,0.029,-0.151,-0.183,-0.196,-0.173,-0.323,-0.237,-0.175
-0.083,-0.173,-0.09,0.128,0.004,-0.131,-0.168,-0.227,-0.167,-0.255,-0.194,-0.135
-0.073,-0.157,-0.084,0.115,0.006,-0.121,-0.151,-0.206,-0.151,-0.231,-0.169,-0.115
-0.056,-0.127,-0.071,0.092,0.008,-0.099,-0.133,-0.224,-0.161,-0.203,-0.134,-0.087
-0.055,-0.118,-0.064,0.087,0.005,-0.09,-0.129,-0.218,-0.141,-0.178,-0.123,-0.085
-0.055,-0.107,-0.052,0.082,-0.001,-0.079,-0.121,-0.22,-0.151,-0.182,-0.119,-0.082
-0.056,-0.099,-0.043,0.078,-0.007,-0.07,-0.124,-0.215,-0.133,-0.157,-0.101,-0.074
-0.056,-0.091,-0.035,0.074,-0.01,-0.062,-0.115,-0.211,-0.131,-0.154,-0.099,-0.074
-0.049,-0.082,-0.032,0.065,-0.008,-0.057,-0.098,-0.212,-0.114,-0.124,-0.084,-0.064
-0.053,-0.08,-0.027,0.067,-0.013,-0.053,-0.075,-0.203,-0.1,-0.124,-0.08,-0.056
-0.044,-0.07,-0.027,0.058,-0.008,-0.048,-0.089,-0.183,-0.072,-0.102,-0.066,-0.042
-0.04,-0.057,-0.016,0.049,-0.012,-0.036,-0.11,-0.162,-0.039,-0.066,-0.047,-0.03
-0.026,-0.055,-0.028,0.041,0.002,-0.041,-0.117,-0.139,-0.005,-0.036,-0.01,-0.019
-0.009,-0.038,-0.029,0.024,0.01,-0.033,-0.132,-0.102,0.033,-0.012,0.022,-0.002
0.014,-0.008,-0.022,-0.003,0.018,-0.014,-0.135,-0.052,0.081,0.029,0.045,0.028
0.039,0.021,-0.018,-0.03,0.028,0.002,-0.129,-0.001,0.151,0.093,0.081,0.052
0.045,0.066,0.021,-0.056,0.012,0.044,-0.127,0.067,0.211,0.168,0.147,0.092
0.078,0.113,0.035,-0.096,0.021,0.074,-0.122,0.148,0.305,0.258,0.219,0.147
0.093,0.161,0.068,-0.128,0.012,0.115,-0.119,0.211,0.386,0.33,0.283,0.194
0.099,0.18,0.082,-0.14,0.009,0.131,-0.121,0.255,0.443,0.4,0.35,0.24
0.131,0.199,0.068,-0.165,0.031,0.133,-0.118,0.249,0.469,0.434,0.386,0.273
0.139,0.229,0.09,-0.184,0.024,0.159,-0.123,0.234,0.436,0.427,0.389,0.277
0.109,0.214,0.106,-0.162,0.001,0.16,-0.111,0.214,0.4,0.401,0.365,0.272
0.07,0.188,0.117,-0.129,-0.024,0.152,-0.078,0.131,0.317,0.327,0.311,0.238
0.06,0.153,0.093,-0.106,-0.017,0.122,-0.073,0.047,0.219,0.242,0.24,0.191
0.035,0.108,0.073,-0.072,-0.019,0.09,-0.063,-0.028,0.115,0.151,0.165,0.142
0.0,0.067,0.067,-0.033,-0.034,0.067,-0.059,-0.104,0.015,0.059,0.099,0.076
-0.013,0.038,0.051,-0.012,-0.032,0.044,-0.061,-0.155,-0.043,-0.005,0.051,0.035
-0.035,0.018,0.053,0.008,-0.044,0.035,-0.059,-0.209,-0.085,-0.038,0.021,0.008
-0.049,-0.002,0.047,0.025,-0.048,0.022,-0.061,-0.228,-0.094,-0.065,-0.016,-0.012
-0.069,-0.022,0.047,0.046,-0.058,0.012,-0.059,-0.223,-0.105,-0.084,-0.046,-0.021
-0.056,-0.017,0.039,0.036,-0.047,0.011,-0.068,-0.226,-0.113,-0.084,-0.044,-0.03
-0.051,-0.019,0.033,0.035,-0.042,0.007,-0.071,-0.236,-0.108,-0.085,-0.039,-0.035
-0.067,-0.041,0.025,0.054,-0.046,-0.008,-0.093,-0.236,-0.111,-0.085,-0.038,-0.035
-0.045,-0.023,0.022,0.034,-0.033,-0.001,-0.109,-0.225,-0.11,-0.085,-0.031,-0.035
-0.06,-0.02,0.041,0.04,-0.05,0.01,-0.106,-0.23,-0.11,-0.085,-0.033,-0.035
-0.058,-0.02,0.038,0.039,-0.048,0.009,-0.112,-0.23,-0.111,-0.087,-0.049,-0.035
-0.056,-0.02,0.036,0.037,-0.046,0.008,-0.114,-0.229,-0.116,-0.093,-0.051,-0.037
-0.05,-0.022,0.028,0.036,-0.039,0.003,-0.115,-0.231,-0.121,-0.096,-0.045,-0.041
-0.042,-0.002,0.04,0.022,-0.041,0.019,-0.115,-0.228,-0.125,-0.101,-0.045,-0.04
-0.081,-0.031,0.05,0.056,-0.065,0.009,-0.115,-0.237,-0.129,-0.105,-0.039,-0.04
-0.049,-0.051,-0.002,0.05,-0.023,-0.026,-0.115,-0.245,-0.137,-0.104,-0.043,-0.04
-0.026,-0.041,-0.016,0.034,-0.005,-0.028,-0.114,-0.249,-0.143,-0.11,-0.059,-0.04
-0.044,-0.047,-0.004,0.046,-0.019,-0.025,-0.116,-0.256,-0.156,-0.115,-0.066,-0.045
-0.043,-0.044,-0.001,0.043,-0.02,-0.022,-0.112,-0.263,-0.174,-0.122,-0.073,-0.048
-0.054,-0.045,0.01,0.049,-0.031,-0.017,-0.104,-0.269,-0.171,-0.136,-0.079,-0.053
-0.062,-0.056,0.005,0.059,-0.033,-0.025,-0.096,-0.27,-0.166,-0.141,-0.086,-0.055
-0.059,-0.057,0.002,0.058,-0.031,-0.027,-0.084,-0.269,-0.162,-0.145,-0.095,-0.058
-0.045,-0.049,-0.004,0.047,-0.02,-0.026,-0.07,-0.27,-0.157,-0.15,-0.101,-0.06
-0.035,-0.042,-0.007,0.039,-0.014,-0.025,-0.056,-0.271,-0.154,-0.147,-0.1,-0.053
-0.023,-0.036,-0.013,0.03,-0.005,-0.025,-0.044,-0.276,-0.148,-0.139,-0.101,-0.044
-0.017,-0.03,-0.013,0.024,-0.002,-0.021,-0.019,-0.268,-0.137,-0.134,-0.099,-0.036
-0.054,-0.013,0.041,0.033,-0.047,0.014,0.001,-0.255,-0.12,-0.104,-0.069,-0.027
-0.05,0.02,0.07,0.015,-0.06,0.044,-0.011,-0.242,-0.119,-0.08,-0.052,-0.024
-0.008,0.074,0.081,-0.033,-0.045,0.077,-0.022,-0.227,-0.12,-0.081,-0.056,-0.02
0.02,0.107,0.087,-0.064,-0.034,0.097,-0.064,-0.254,-0.12,-0.079,-0.054,-0.017
0.021,0.099,0.078,-0.061,-0.029,0.089,-0.117,-0.286,-0.15,-0.102,-0.06,-0.012
0.003,0.057,0.055,-0.031,-0.026,0.056,-0.116,-0.291,-0.163,-0.112,-0.06,-0.009
0.005,0.031,0.026,-0.018,-0.011,0.028,-0.11,-0.295,-0.161,-0.108,-0.06,-0.022
-0.03,-0.004,0.026,0.017,-0.028,0.011,-0.116,-0.303,-0.17,-0.129,-0.078,-0.041
-0.046,-0.06,-0.014,0.053,-0.016,-0.036,-0.123,-0.326,-0.191,-0.161,-0.112,-0.067
-0.044,-0.076,-0.032,0.06,-0.006,-0.054,-0.128,-0.344,-0.218,-0.18,-0.127,-0.078
-0.046,-0.099,-0.053,0.073,0.004,-0.076,-0.13,-0.332,-0.202,-0.158,-0.111,-0.073
-0.05,-0.109,-0.058,0.08,0.004,-0.083,-0.13,-0.34,-0.228,-0.192,-0.135,-0.092
-0.059,-0.107,-0.049,0.083,-0.005,-0.078,-0.129,-0.322,-0.212,-0.181,-0.131,-0.089
-0.07,-0.112,-0.042,0.091,-0.014,-0.077,-0.133,-0.326,-0.231,-0.198,-0.153,-0.098
-0.079,-0.117,-0.038,0.098,-0.02,-0.077,-0.126,-0.313,-0.219,-0.186,-0.135,-0.082
-0.025,-0.115,-0.09,0.07,0.033,-0.102,-0.108,-0.242,-0.152,-0.17,-0.133,-0.077
0.049,-0.058,-0.107,0.005,0.078,-0.082,-0.026,-0.057,0.018,-0.071,-0.057,-0.039
0.187,0.176,-0.012,-0.182,0.099,0.082,0.09,0.491,0.676,0.551,0.445,0.286
0.135,0.684,0.549,-0.41,-0.208,0.616,0.13,0.306,0.88,1.214,1.116,0.788
-0.076,0.89,0.966,-0.407,-0.521,0.927,-0.078,-0.484,0.626,1.648,1.517,1.002
-0.199,0.295,0.494,-0.049,-0.346,0.394,-0.314,-0.671,0.025,0.721,0.63,0.355
-0.235,-0.312,-0.077,0.274,-0.079,-0.194,-0.331,-0.729,-0.829,-0.721,-0.485,-0.292
-0.106,-0.331,-0.225,0.219,0.06,-0.278,-0.25,-0.514,-0.616,-0.63,-0.402,-0.236
-0.051,-0.218,-0.166,0.135,0.058,-0.192,-0.075,-0.159,-0.204,-0.32,-0.227,-0.16
-0.061,-0.175,-0.114,0.118,0.027,-0.144,-0.022,-0.174,-0.19,-0.268,-0.191,-0.124
-0.045,-0.124,-0.079,0.085,0.017,-0.101,-0.044,-0.223,-0.16,-0.203,-0.16,-0.102
-0.055,-0.123,-0.068,0.089,0.006,-0.095,-0.028,-0.234,-0.177,-0.215,-0.162,-0.108
-0.05,-0.111,-0.061,0.08,0.006,-0.086,-0.039,-0.235,-0.154,-0.177,-0.132,-0.092
-0.058,-0.092,-0.034,0.076,-0.012,-0.063,-0.029,-0.22,-0.161,-0.176,-0.137,-0.095
-0.05,-0.1,-0.051,0.075,0.001,-0.075,-0.024,-0.213,-0.147,-0.143,-0.117,-0.083
-0.034,-0.091,-0.058,0.063,0.012,-0.074,-0.018,-0.205,-0.132,-0.141,-0.116,-0.082
-0.035,-0.087,-0.051,0.062,0.008,-0.069,-0.011,-0.2,-0.121,-0.132,-0.101,-0.069
-0.026,-0.077,-0.052,0.052,0.013,-0.064,-0.003,-0.191,-0.092,-0.105,-0.082,-0.06
-0.026,-0.075,-0.049,0.051,0.012,-0.062,-0.004,-0.187,-0.077,-0.073,-0.068,-0.051
-0.026,-0.053,-0.027,0.04,0.0,-0.04,-0.007,-0.177,-0.062,-0.055,-0.054,-0.037
-0.029,-0.022,0.007,0.025,-0.018,-0.007,-0.033,-0.147,-0.041,-0.045,-0.041,-0.028
-0.015,-0.014,0.001,0.014,-0.008,-0.006,-0.031,-0.108,0.002,-0.015,-0.014,-0.011
0.029,0.021,-0.008,-0.024,0.018,0.006,-0.096,-0.072,0.045,0.024,0.013,0.006
0.012,0.045,0.033,-0.029,-0.011,0.039,-0.13,-0.026,0.105,0.084,0.06,0.044
0.042,0.078,0.036,-0.06,0.003,0.056,-0.163,0.042,0.197,0.153,0.127,0.08
0.099,0.135,0.036,-0.117,0.031,0.085,-0.143,0.126,0.277,0.228,0.181,0.111
0.102,0.159,0.057,-0.13,0.022,0.108,-0.145,0.194,0.347,0.306,0.247,0.171
0.114,0.173,0.058,-0.144,0.028,0.115,-0.174,0.233,0.407,0.372,0.309,0.217
0.142,0.219,0.077,-0.18,0.032,0.147,-0.076,0.259,0.449,0.423,0.355,0.256
0.164,0.252,0.087,-0.208,0.039,0.169,-0.641,0.248,0.461,0.434,0.376,0.284
0.132,0.234,0.102,-0.183,0.015,0.167,-0.796,0.21,0.427,0.414,0.361,0.278
0.116,0.211,0.095,-0.164,0.01,0.153,-0.409,0.151,0.356,0.373,0.333,0.252
0.114,0.194,0.079,-0.154,0.017,0.136,-0.447,0.067,0.26,0.284,0.263,0.202
0.068,0.149,0.081,-0.109,-0.007,0.115,-0.362,-0.014,0.156,0.186,0.175,0.144
0.018,0.088,0.069,-0.053,-0.026,0.078,-0.361,-0.087,0.061,0.101,0.114,0.086
-0.014,0.043,0.057,-0.015,-0.036,0.05,-0.357,-0.153,-0.02,0.021,0.058,0.042
-0.056,-0.012,0.044,0.034,-0.05,0.016,-0.334,-0.201,-0.073,-0.032,0.002,0.016
-0.076,-0.039,0.037,0.057,-0.056,-0.001,-0.345,-0.221,-0.103,-0.062,-0.035,0.001
-0.061,-0.031,0.03,0.046,-0.045,0.0,-0.32,-0.236,-0.103,-0.077,-0.041,-0.011
-0.065,-0.065,-0.001,0.065,-0.032,-0.033,-0.329,-0.241,-0.102,-0.082,-0.039,-0.021
-0.048,-0.047,0.001,0.048,-0.025,-0.023,-0.311,-0.236,-0.123,-0.081,-0.048,-0.035
-0.049,-0.037,0.012,0.043,-0.03,-0.012,-0.312,-0.234,-0.121,-0.077,-0.052,-0.042
-0.073,-0.06,0.014,0.067,-0.043,-0.023,-0.302,-0.23,-0.114,-0.075,-0.048,-0.04
-0.087,-0.053,0.033,0.07,-0.059,-0.01,-0.295,-0.229,-0.111,-0.071,-0.042,-0.038
-0.067,-0.049,0.018,0.058,-0.042,-0.015,-0.29,-0.226,-0.102,-0.069,-0.039,-0.035
-0.04,-0.026,0.014,0.033,-0.027,-0.006,-0.282,-0.225,-0.102,-0.071,-0.033,-0.034
-0.061,-0.02,0.041,0.04,-0.051,0.01,-0.276,-0.224,-0.114,-0.067,-0.03,-0.031
-0.063,-0.019,0.044,0.041,-0.054,0.012,-0.29,-0.219,-0.125,-0.079,-0.045,-0.029
-0.075,-0.04,0.035,0.057,-0.055,-0.002,-0.29,-0.221,-0.131,-0.087,-0.053,-0.032
-0.066,-0.035,0.032,0.05,-0.049,-0.001,-0.28,-0.222,-0.13,-0.085,-0.048,-0.028
-0.048,-0.024,0.024,0.036,-0.035,0.0,-0.272,-0.239,-0.149,-0.104,-0.065,-0.032
-0.056,-0.04,0.016,0.048,-0.036,-0.012,-0.268,-0.241,-0.137,-0.108,-0.064,-0.033
-0.069,-0.061,0.008,0.065,-0.038,-0.026,-0.283,-0.238,-0.13,-0.124,-0.069,-0.053
-0.088,-0.088,0.0,0.088,-0.044,-0.044,-0.276,-0.275,-0.182,-0.153,-0.11,-0.076
-0.069,-0.077,-0.008,0.073,-0.031,-0.042,-0.265,-0.282,-0.185,-0.151,-0.113,-0.052
-0.06,-0.082,-0.022,0.071,-0.018,-0.052,-0.258,-0.274,-0.177,-0.145,-0.103,-0.054
-0.051,-0.076,-0.026,0.064,-0.012,-0.051,-0.254,-0.274,-0.177,-0.139,-0.101,-0.059
-0.045,-0.07,-0.025,0.058,-0.01,-0.047,-0.256,-0.27,-0.17,-0.135,-0.092,-0.049
-0.038,-0.062,-0.025,0.051,-0.006,-0.043,-0.257,-0.268,-0.17,-0.126,-0.09,-0.047
-0.038,-0.057,-0.019,0.048,-0.009,-0.038,-0.278,-0.271,-0.155,-0.124,-0.078,-0.039
-0.042,-0.043,-0.001,0.042,-0.02,-0.022,-0.298,-0.275,-0.141,-0.128,-0.066,-0.036
-0.03,0.008,0.038,0.01,-0.034,0.023,-0.305,-0.251,-0.137,-0.103,-0.06,-0.028
-0.013,0.061,0.074,-0.024,-0.044,0.068,-0.302,-0.233,-0.142,-0.08,-0.057,-0.018
0.02,0.109,0.089,-0.065,-0.034,0.099,-0.294,-0.236,-0.144,-0.071,-0.038,-0.011
0.037,0.107,0.07,-0.072,-0.017,0.088,-0.315,-0.242,-0.149,-0.067,-0.017,0.0
0.032,0.087,0.055,-0.06,-0.012,0.071,-0.338,-0.269,-0.148,-0.086,-0.037,0.011
0.002,0.062,0.06,-0.032,-0.03,0.061,-0.319,-0.287,-0.146,-0.103,-0.051,0.002
0.023,0.06,0.037,-0.042,-0.007,0.048,-0.302,-0.283,-0.137,-0.091,-0.032,-0.006
-0.012,-0.006,0.006,0.009,-0.009,0.0,-0.311,-0.286,-0.147,-0.109,-0.052,-0.042
-0.062,-0.094,-0.032,0.078,-0.015,-0.063,-0.314,-0.293,-0.19,-0.159,-0.11,-0.087
-0.036,-0.083,-0.047,0.059,0.006,-0.064,-0.307,-0.319,-0.218,-0.201,-0.15,-0.098
-0.067,-0.118,-0.05,0.093,-0.008,-0.084,-0.305,-0.305,-0.218,-0.186,-0.137,-0.106
-0.069,-0.148,-0.078,0.109,0.005,-0.113,-0.299,-0.305,-0.242,-0.204,-0.155,-0.119
-0.05,-0.135,-0.085,0.093,0.017,-0.11,-0.296,-0.295,-0.217,-0.186,-0.143,-0.106
-0.066,-0.143,-0.077,0.105,0.005,-0.11,-0.283,-0.287,-0.22,-0.192,-0.154,-0.109
-0.066,-0.139,-0.072,0.103,0.003,-0.105,-0.254,-0.288,-0.216,-0.184,-0.137,-0.103
-0.011,-0.139,-0.128,0.075,0.058,-0.133,-0.251,-0.217,-0.16,-0.152,-0.111,-0.094
0.05,-0.095,-0.145,0.023,0.098,-0.12,-0.216,-0.059,-0.043,-0.114,-0.095,-0.074
0.173,0.133,-0.04,-0.153,0.107,0.047,-0.113,0.457,0.593,0.494,0.377,0.219
0.141,0.594,0.453,-0.368,-0.156,0.523,-0.022,0.406,0.845,1.153,1.05,0.717
-0.081,0.892,0.973,-0.406,-0.527,0.933,-0.207,-0.411,0.552,1.597,1.513,0.996
-0.205,0.402,0.606,-0.099,-0.406,0.504,-0.477,-0.719,0.031,0.872,0.772,0.443
-0.229,-0.276,-0.047,0.252,-0.091,-0.162,-0.536,-0.719,-0.796,-0.645,-0.441,-0.271
-0.119,-0.347,-0.228,0.233,0.055,-0.287,-0.515,-0.543,-0.685,-0.704,-0.449,-0.273
-0.043,-0.224,-0.181,0.134,0.069,-0.202,-0.331,-0.2,-0.233,-0.34,-0.26,-0.167
-0.062,-0.169,-0.108,0.116,0.023,-0.138,-0.194,-0.132,-0.182,-0.27,-0.227,-0.132
-0.088,-0.151,-0.063,0.12,-0.012,-0.107,-0.221,-0.184,-0.147,-0.202,-0.163,-0.117
-0.088,-0.149,-0.061,0.119,-0.013,-0.105,-0.211,-0.207,-0.156,-0.205,-0.156,-0.114
-0.067,-0.125,-0.057,0.096,-0.005,-0.091,-0.232,-0.212,-0.134,-0.152,-0.12,-0.085
-0.054,-0.101,-0.047,0.078,-0.003,-0.074,-0.256,-0.219,-0.135,-0.164,-0.132,-0.091
-0.045,-0.085,-0.04,0.065,-0.002,-0.062,-0.276,-0.216,-0.126,-0.14,-0.113,-0.079
-0.053,-0.082,-0.029,0.068,-0.012,-0.056,-0.3,-0.204,-0.116,-0.131,-0.11,-0.079
-0.047,-0.073,-0.026,0.06,-0.01,-0.049,-0.303,-0.199,-0.113,-0.118,-0.093,-0.072
-0.058,-0.068,-0.01,0.063,-0.024,-0.039,-0.523,-0.187,-0.099,-0.096,-0.079,-0.068
-0.046,-0.061,-0.015,0.054,-0.015,-0.038,-0.676,-0.166,-0.096,-0.074,-0.065,-0.055
-0.08,-0.055,0.025,0.068,-0.052,-0.015,-0.536,-0.141,-0.063,-0.042,-0.045,-0.035
-0.074,-0.045,0.029,0.059,-0.051,-0.008,-0.473,-0.123,-0.027,-0.021,-0.031,-0.019
-0.02,-0.035,-0.014,0.028,-0.003,-0.025,-0.425,-0.086,0.003,0.006,0.002,0.0
-0.063,-0.024,0.039,0.044,-0.051,0.008,-0.394,-0.044,0.053,0.037,0.028,0.007
-0.046,0.02,0.067,0.013,-0.057,0.043,-0.394,-0.006,0.108,0.091,0.071,0.038
0.039,0.052,0.012,-0.045,0.014,0.032,-0.352,0.066,0.186,0.175,0.142,0.101
0.03,0.069,0.039,-0.05,-0.005,0.054,-0.341,0.136,0.273,0.25,0.197,0.137
0.0,0.127,0.127,-0.064,-0.064,0.127,-0.319,0.193,0.358,0.332,0.265,0.182
0.133,0.162,0.029,-0.147,0.052,0.095,-0.346,0.238,0.412,0.403,0.324,0.232
0.175,0.193,0.018,-0.184,0.078,0.105,-0.356,0.262,0.425,0.438,0.367,0.253
0.14,0.235,0.094,-0.188,0.023,0.164,-0.317,0.266,0.445,0.458,0.382,0.278
0.11,0.228,0.118,-0.169,-0.004,0.173,-0.321,0.235,0.434,0.447,0.369,0.278
0.093,0.218,0.125,-0.156,-0.016,0.171,-0.32,0.177,0.348,0.385,0.343,0.256
0.083,0.172,0.089,-0.127,-0.003,0.13,-0.318,0.11,0.252,0.309,0.292,0.229
0.014,0.122,0.109,-0.068,-0.048,0.115,-0.313,0.039,0.171,0.233,0.229,0.177
0.061,0.105,0.043,-0.083,0.009,0.074,-0.305,-0.042,0.065,0.133,0.141,0.111
0.01,0.056,0.046,-0.034,-0.018,0.051,-0.3,-0.115,-0.021,0.052,0.071,0.077
-0.03,0.008,0.037,0.011,-0.033,0.022,-0.291,-0.175,-0.086,-0.02,0.0,0.037
-0.011,-0.029,-0.018,0.02,0.004,-0.023,-0.287,-0.201,-0.122,-0.057,-0.037,-0.013
-0.071,-0.05,0.021,0.061,-0.046,-0.014,-0.279,-0.206,-0.124,-0.066,-0.042,-0.031
-0.073,-0.052,0.021,0.062,-0.047,-0.015,-0.27,-0.207,-0.126,-0.073,-0.053,-0.036
-0.065,-0.049,0.016,0.057,-0.041,-0.016,-0.26,-0.195,-0.125,-0.068,-0.048,-0.035
-0.056,-0.045,0.011,0.05,-0.033,-0.017,-0.252,-0.192,-0.125,-0.071,-0.054,-0.035
-0.044,-0.044,0.0,0.044,-0.021,-0.022,-0.247,-0.183,-0.125,-0.069,-0.055,-0.035
-0.039,-0.038,0.001,0.039,-0.02,-0.018,-0.242,-0.179,-0.125,-0.07,-0.055,-0.035
-0.032,-0.046,-0.014,0.039,-0.009,-0.03,-0.235,-0.175,-0.125,-0.074,-0.059,-0.033
-0.015,-0.053,-0.038,0.035,0.012,-0.045,-0.232,-0.174,-0.125,-0.075,-0.06,-0.029
-0.012,-0.043,-0.031,0.028,0.01,-0.036,-0.232,-0.194,-0.125,-0.075,-0.06,-0.03
-0.011,-0.032,-0.022,0.022,0.006,-0.027,-0.252,-0.202,-0.126,-0.075,-0.06,-0.03
-0.011,-0.027,-0.016,0.019,0.003,-0.022,-0.276,-0.199,-0.123,-0.077,-0.06,-0.03
-0.011,-0.02,-0.009,0.016,-0.001,-0.014,-0.283,-0.216,-0.134,-0.082,-0.061,-0.031
-0.014,-0.016,-0.003,0.015,-0.005,-0.009,-0.288,-0.221,-0.144,-0.092,-0.07,-0.034
-0.043,-0.039,0.004,0.041,-0.023,-0.017,-0.281,-0.219,-0.157,-0.103,-0.079,-0.046
-0.043,-0.048,-0.004,0.046,-0.019,-0.026,-0.26,-0.22,-0.173,-0.109,-0.083,-0.055
-0.027,-0.043,-0.015,0.035,-0.005,-0.029,-0.228,-0.219,-0.176,-0.118,-0.086,-0.06
-0.019,-0.048,-0.028,0.034,0.005,-0.038,-0.195,-0.221,-0.174,-0.122,-0.091,-0.065
-0.009,-0.041,-0.032,0.025,0.012,-0.036,-0.22,-0.224,-0.177,-0.12,-0.094,-0.065
-0.034,-0.057,-0.024,0.046,-0.005,-0.04,-0.253,-0.229,-0.19,-0.126,-0.101,-0.065
-0.073,-0.068,0.005,0.071,-0.039,-0.032,-0.269,-0.227,-0.186,-0.121,-0.108,-0.063
-0.061,-0.057,0.004,0.059,-0.033,-0.026,-0.318,-0.225,-0.181,-0.113,-0.101,-0.057
-0.032,-0.051,-0.019,0.041,-0.006,-0.035,-0.303,-0.225,-0.178,-0.108,-0.092,-0.053
-0.04,-0.042,-0.002,0.042,-0.019,-0.022,-0.284,-0.225,-0.173,-0.1,-0.083,-0.049
-0.029,-0.025,0.004,0.027,-0.016,-0.01,-0.248,-0.208,-0.169,-0.096,-0.076,-0.044
-0.001,0.035,0.036,-0.017,-0.018,0.035,-0.316,-0.188,-0.157,-0.094,-0.064,-0.04
0.009,0.078,0.069,-0.044,-0.03,0.073,-0.486,-0.181,-0.147,-0.095,-0.057,-0.031
0.02,0.101,0.081,-0.061,-0.03,0.091,-0.458,-0.173,-0.125,-0.095,-0.059,-0.018
0.034,0.134,0.099,-0.084,-0.032,0.116,-0.422,-0.205,-0.141,-0.095,-0.061,-0.007
0.028,0.097,0.069,-0.062,-0.021,0.083,-0.394,-0.244,-0.163,-0.096,-0.064,-0.004
0.013,0.081,0.068,-0.047,-0.028,0.074,-0.344,-0.245,-0.17,-0.092,-0.067,-0.015
0.037,0.089,0.052,-0.063,-0.008,0.07,-0.348,-0.244,-0.187,-0.108,-0.066,-0.026
-0.001,0.006,0.007,-0.003,-0.003,0.006,-0.324,-0.246,-0.193,-0.13,-0.077,-0.042
-0.045,-0.064,-0.019,0.055,-0.013,-0.042,-0.295,-0.258,-0.219,-0.156,-0.11,-0.073
-0.062,-0.09,-0.028,0.076,-0.017,-0.059,-0.272,-0.278,-0.267,-0.195,-0.137,-0.1
-0.058,-0.095,-0.037,0.076,-0.01,-0.065,-0.264,-0.26,-0.258,-0.181,-0.132,-0.098
-0.022,-0.083,-0.062,0.053,0.02,-0.072,-0.266,-0.269,-0.275,-0.206,-0.144,-0.113
-0.028,-0.099,-0.071,0.064,0.022,-0.085,-0.263,-0.263,-0.266,-0.186,-0.135,-0.117
-0.032,-0.106,-0.074,0.069,0.021,-0.09,-0.235,-0.252,-0.259,-0.194,-0.165,-0.123
-0.06,-0.128,-0.068,0.095,0.004,-0.098,-0.22,-0.24,-0.241,-0.193,-0.153,-0.12
-0.024,-0.142,-0.118,0.083,0.047,-0.129,-0.207,-0.161,-0.176,-0.166,-0.133,-0.109
0.053,-0.062,-0.115,0.005,0.084,-0.088,-0.14,-0.011,-0.067,-0.132,-0.107,-0.082
0.172,0.145,-0.027,-0.158,0.099,0.059,-0.017,0.517,0.57,0.467,0.361,0.216
0.132,0.595,0.463,-0.364,-0.166,0.529,0.079,0.447,0.807,1.122,1.01,0.69
-0.093,0.91,1.003,-0.409,-0.548,0.956,-0.134,-0.386,0.503,1.582,1.487,0.971
-0.191,0.416,0.607,-0.113,-0.4,0.511,-0.434,-0.676,0.013,0.883,0.781,0.453
-0.22,-0.266,-0.046,0.243,-0.087,-0.156,-0.513,-0.678,-0.823,-0.654,-0.45,-0.287
-0.107,-0.343,-0.237,0.225,0.065,-0.29,-0.454,-0.463,-0.702,-0.709,-0.463,-0.292
-0.028,-0.216,-0.187,0.122,0.08,-0.201,-0.259,-0.131,-0.258,-0.329,-0.257,-0.176
-0.038,-0.155,-0.117,0.097,0.04,-0.136,-0.184,-0.092,-0.216,-0.279,-0.237,-0.146
0.005,-0.101,-0.106,0.048,0.056,-0.103,-0.199,-0.12,-0.153,-0.21,-0.174,-0.112
-0.04,-0.125,-0.085,0.082,0.023,-0.104,-0.17,-0.151,-0.188,-0.232,-0.177,-0.125
-0.062,-0.139,-0.077,0.101,0.008,-0.108,-0.17,-0.15,-0.185,-0.194,-0.146,-0.11
-0.019,-0.08,-0.061,0.05,0.022,-0.071,-0.141,-0.149,-0.169,-0.188,-0.151,-0.115
-0.025,-0.07,-0.045,0.048,0.011,-0.057,-0.148,-0.146,-0.158,-0.157,-0.134,-0.094
0.005,-0.041,-0.046,0.018,0.025,-0.043,-0.19,-0.145,-0.146,-0.159,-0.129,-0.084
-0.009,-0.063,-0.054,0.036,0.023,-0.058,-0.208,-0.143,-0.137,-0.135,-0.11,-0.075
-0.023,-0.088,-0.065,0.056,0.021,-0.076,-0.217,-0.13,-0.146,-0.112,-0.095,-0.059
0.04,-0.01,-0.05,-0.015,0.045,-0.03,-0.232,-0.121,-0.124,-0.112,-0.103,-0.077
0.019,-0.017,-0.036,-0.001,0.027,-0.026,-0.202,-0.083,-0.069,-0.089,-0.066,-0.052
0.04,-0.006,-0.045,-0.017,0.043,-0.025,-0.156,-0.073,-0.029,-0.051,-0.008,0.002
0.029,-0.017,-0.047,-0.006,0.038,-0.032,-0.175,-0.057,-0.008,-0.021,-0.012,-0.012
0.043,0.025,-0.018,-0.034,0.03,0.003,-0.173,0.008,0.041,0.026,0.017,0.01
0.08,0.066,-0.015,-0.072,0.047,0.025,-0.144,0.065,0.105,0.087,0.072,0.048
0.037,0.035,-0.002,-0.036,0.019,0.016,-0.153,0.11,0.147,0.132,0.097,0.052
0.111,0.149,0.038,-0.13,0.036,0.093,-0.169,0.206,0.258,0.226,0.174,0.109
0.135,0.197,0.062,-0.166,0.037,0.129,-0.167,0.287,0.348,0.314,0.252,0.167
0.11,0.2,0.091,-0.155,0.009,0.145,-0.163,0.315,0.398,0.374,0.292,0.197
0.16,0.259,0.098,-0.21,0.031,0.178,-0.159,0.376,0.449,0.436,0.353,0.251
0.213,0.304,0.091,-0.259,0.061,0.197,-0.156,0.387,0.461,0.467,0.414,0.291
0.162,0.265,0.103,-0.214,0.029,0.184,-0.15,0.342,0.437,0.446,0.396,0.275
0.106,0.213,0.107,-0.16,0.0,0.16,-0.14,0.281,0.361,0.388,0.343,0.25
0.102,0.214,0.111,-0.158,-0.005,0.162,-0.109,0.2,0.259,0.313,0.288,0.215
0.051,0.161,0.11,-0.107,-0.029,0.136,-0.08,0.12,0.154,0.216,0.213,0.158
0.038,0.105,0.067,-0.072,-0.015,0.086,-0.079,0.034,0.053,0.113,0.132,0.096
0.042,0.1,0.059,-0.071,-0.009,0.079,-0.082,-0.043,-0.033,0.039,0.056,0.048
-0.006,0.071,0.077,-0.033,-0.042,0.074,-0.085,-0.104,-0.103,-0.023,0.005,0.019
-0.038,0.009,0.046,0.015,-0.042,0.027,-0.085,-0.118,-0.126,-0.063,-0.032,-0.008
-0.026,-0.006,0.02,0.015,-0.022,0.007,-0.116,-0.123,-0.134,-0.075,-0.045,-0.022
-0.038,-0.023,0.015,0.03,-0.026,-0.004,-0.154,-0.133,-0.135,-0.081,-0.046,-0.033
-0.034,-0.036,-0.003,0.035,-0.015,-0.019,-0.18,-0.128,-0.125,-0.084,-0.055,-0.046
-0.018,-0.034,-0.016,0.026,0.0,-0.025,-0.212,-0.131,-0.126,-0.085,-0.055,-0.047
-0.021,-0.036,-0.015,0.029,-0.002,-0.025,-0.221,-0.129,-0.117,-0.086,-0.055,-0.044
-0.012,-0.027,-0.015,0.02,0.001,-0.02,-0.219,-0.13,-0.118,-0.09,-0.055,-0.041
-0.019,-0.034,-0.015,0.027,-0.002,-0.024,-0.22,-0.133,-0.134,-0.09,-0.054,-0.038
0.003,-0.005,-0.008,0.001,0.006,-0.007,-0.242,-0.135,-0.136,-0.09,-0.056,-0.035
-0.003,-0.003,0.0,0.003,-0.002,-0.001,-0.307,-0.137,-0.134,-0.09,-0.059,-0.036
-0.016,-0.008,0.007,0.012,-0.011,-0.001,-0.367,-0.141,-0.136,-0.09,-0.063,-0.041
-0.002,0.015,0.017,-0.007,-0.009,0.016,-0.381,-0.139,-0.134,-0.09,-0.066,-0.046
-0.023,-0.002,0.021,0.012,-0.022,0.009,-0.368,-0.142,-0.138,-0.102,-0.069,-0.049
-0.005,0.023,0.027,-0.01,-0.016,0.025,-0.322,-0.162,-0.159,-0.119,-0.071,-0.054
-0.002,0.024,0.026,-0.011,-0.014,0.025,-0.279,-0.168,-0.167,-0.125,-0.069,-0.055
-0.018,-0.013,0.005,0.016,-0.011,-0.004,-0.258,-0.172,-0.163,-0.128,-0.071,-0.056
0.0,-0.016,-0.016,0.009,0.008,-0.016,-0.24,-0.174,-0.171,-0.13,-0.077,-0.059
-0.005,-0.032,-0.027,0.019,0.011,-0.029,-0.229,-0.169,-0.183,-0.133,-0.083,-0.061
-0.018,-0.041,-0.023,0.03,0.003,-0.032,-0.217,-0.164,-0.186,-0.14,-0.087,-0.06
-0.02,-0.055,-0.035,0.038,0.008,-0.045,-0.212,-0.16,-0.184,-0.143,-0.085,-0.06
-0.032,-0.077,-0.045,0.055,0.007,-0.061,-0.205,-0.182,-0.178,-0.138,-0.1,-0.071
-0.034,-0.068,-0.034,0.051,0.0,-0.051,-0.201,-0.187,-0.173,-0.13,-0.105,-0.073
-0.024,-0.052,-0.028,0.039,0.002,-0.04,-0.194,-0.172,-0.166,-0.125,-0.097,-0.064
-0.022,-0.043,-0.021,0.033,0.0,-0.032,-0.19,-0.168,-0.162,-0.117,-0.096,-0.062
0.009,0.008,-0.001,-0.009,0.005,0.003,-0.168,-0.155,-0.153,-0.113,-0.085,-0.052
0.028,0.056,0.028,-0.042,-0.001,0.042,-0.124,-0.149,-0.137,-0.102,-0.069,-0.043
0.031,0.096,0.065,-0.064,-0.017,0.08,-0.107,-0.136,-0.128,-0.086,-0.062,-0.029
0.035,0.131,0.095,-0.083,-0.03,0.113,-0.099,-0.129,-0.128,-0.091,-0.066,-0.003
0.022,0.113,0.091,-0.068,-0.035,0.102,-0.093,-0.158,-0.155,-0.092,-0.064,-0.001
0.038,0.116,0.077,-0.077,-0.02,0.096,-0.089,-0.172,-0.181,-0.108,-0.069,-0.012
0.033,0.101,0.069,-0.067,-0.018,0.085,-0.082,-0.162,-0.179,-0.114,-0.07,-0.019
0.021,0.052,0.031,-0.037,-0.005,0.041,-0.078,-0.165,-0.186,-0.122,-0.07,-0.029
0.017,0.003,-0.014,-0.01,0.016,-0.006,-0.072,-0.189,-0.195,-0.151,-0.091,-0.056
-0.021,-0.056,-0.035,0.039,0.007,-0.045,-0.07,-0.218,-0.225,-0.186,-0.129,-0.09
0.0,-0.062,-0.062,0.031,0.031,-0.061,-0.066,-0.22,-0.234,-0.204,-0.141,-0.098
-0.001,-0.068,-0.067,0.035,0.033,-0.067,-0.064,-0.206,-0.222,-0.195,-0.143,-0.108
-0.046,-0.102,-0.056,0.074,0.005,-0.079,-0.061,-0.211,-0.241,-0.21,-0.159,-0.111
-0.01,-0.102,-0.092,0.056,0.041,-0.097,-0.059,-0.188,-0.214,-0.185,-0.138,-0.099
-0.013,-0.098,-0.085,0.056,0.036,-0.092,-0.052,-0.201,-0.25,-0.22,-0.161,-0.108
-0.002,-0.091,-0.088,0.047,0.043,-0.089,-0.03,-0.162,-0.187,-0.173,-0.126,-0.087
0.03,-0.089,-0.119,0.03,0.074,-0.103,-0.002,-0.101,-0.16,-0.191,-0.16,-0.106
0.099,-0.01,-0.109,-0.044,0.104,-0.059,0.091,0.226,0.15,0.041,0.015,0.008
0.211,0.301,0.09,-0.256,0.06,0.195,0.251,0.714,0.801,0.749,0.619,0.407
0.079,0.803,0.724,-0.442,-0.323,0.764,0.218,0.204,0.773,1.379,1.283,0.893
-0.112,0.8,0.912,-0.344,-0.512,0.856,-0.123,-0.479,0.472,1.548,1.392,0.886
-0.207,0.071,0.277,0.068,-0.242,0.174,-0.363,-0.568,-0.278,0.216,0.207,0.09
-0.201,-0.369,-0.167,0.285,-0.017,-0.268,-0.375,-0.596,-0.887,-0.864,-0.574,-0.346
-0.08,-0.296,-0.216,0.188,0.068,-0.256,-0.274,-0.287,-0.459,-0.509,-0.322,-0.213
-0.011,-0.17,-0.158,0.091,0.073,-0.164,-0.127,-0.032,-0.191,-0.316,-0.241,-0.168
-0.005,-0.113,-0.108,0.06,0.052,-0.11,-0.086,-0.078,-0.177,-0.244,-0.184,-0.133
-0.009,-0.107,-0.098,0.058,0.045,-0.102,-0.095,-0.114,-0.151,-0.208,-0.172,-0.126
-0.011,-0.093,-0.082,0.052,0.036,-0.088,-0.122,-0.124,-0.156,-0.206,-0.169,-0.113
-0.013,-0.091,-0.078,0.052,0.033,-0.084,-0.161,-0.114,-0.136,-0.177,-0.148,-0.102
-0.02,-0.082,-0.062,0.051,0.021,-0.072,-0.262,-0.116,-0.141,-0.176,-0.138,-0.1
-0.021,-0.077,-0.056,0.05,0.018,-0.066,-0.304,-0.098,-0.125,-0.142,-0.113,-0.088
0.01,-0.074,-0.084,0.032,0.047,-0.078,-0.239,-0.077,-0.123,-0.141,-0.118,-0.086
0.012,-0.069,-0.081,0.029,0.046,-0.075,-0.217,-0.069,-0.105,-0.122,-0.102,-0.075
-0.003,-0.076,-0.074,0.04,0.036,-0.075,-0.174,-0.056,-0.093,-0.109,-0.091,-0.062
0.0,-0.068,-0.069,0.034,0.035,-0.068,-0.141,-0.039,-0.073,-0.088,-0.065,-0.048
-0.007,-0.04,-0.034,0.023,0.014,-0.037,-0.126,-0.008,-0.043,-0.064,-0.043,-0.037
0.019,-0.012,-0.031,-0.003,0.025,-0.021,-0.117,0.016,-0.02,-0.045,-0.036,-0.032
0.032,0.007,-0.026,-0.019,0.029,-0.01,-0.105,0.047,0.023,-0.006,-0.017,-0.017
0.035,0.028,-0.007,-0.032,0.021,0.011,-0.083,0.099,0.069,0.044,0.019,0.013
0.067,0.054,-0.013,-0.061,0.039,0.021,-0.087,0.155,0.135,0.101,0.065,0.04
0.093,0.09,-0.003,-0.091,0.048,0.043,-0.083,0.231,0.215,0.172,0.126,0.076
0.108,0.142,0.034,-0.125,0.036,0.088,-0.087,0.298,0.301,0.252,0.194,0.122
0.129,0.18,0.051,-0.154,0.038,0.115,-0.087,0.366,0.39,0.333,0.261,0.178
0.154,0.224,0.069,-0.189,0.042,0.146,-0.116,0.434,0.437,0.397,0.319,0.22
0.154,0.256,0.103,-0.205,0.025,0.179,-0.156,0.443,0.466,0.435,0.36,0.249
0.147,0.245,0.098,-0.196,0.024,0.171,-0.145,0.422,0.466,0.442,0.376,0.272
0.15,0.238,0.088,-0.194,0.031,0.163,-0.133,0.389,0.427,0.425,0.367,0.266
0.145,0.227,0.082,-0.186,0.031,0.154,-0.113,0.324,0.346,0.366,0.326,0.236
0.11,0.182,0.073,-0.146,0.018,0.127,-0.092,0.241,0.237,0.274,0.251,0.194
0.064,0.131,0.067,-0.098,-0.002,0.099,-0.082,0.16,0.139,0.179,0.171,0.136
0.031,0.084,0.053,-0.058,-0.011,0.068,-0.069,0.076,0.036,0.08,0.089,0.072
0.008,0.056,0.048,-0.032,-0.02,0.051,-0.061,0.01,-0.039,0.008,0.025,0.03
-0.003,0.02,0.024,-0.009,-0.014,0.022,-0.049,-0.023,-0.081,-0.035,-0.015,0.009
-0.013,-0.022,-0.009,0.018,-0.002,-0.015,-0.04,-0.048,-0.112,-0.063,-0.043,-0.009
-0.018,-0.021,-0.003,0.02,-0.007,-0.012,-0.03,-0.074,-0.127,-0.071,-0.044,-0.022
-0.024,-0.014,0.01,0.019,-0.017,-0.002,-0.02,-0.081,-0.132,-0.077,-0.049,-0.029
-0.019,0.006,0.025,0.006,-0.022,0.015,-0.011,-0.072,-0.127,-0.084,-0.066,-0.047
0.018,0.024,0.006,-0.021,0.006,0.015,0.002,-0.066,-0.126,-0.085,-0.066,-0.057
0.035,0.005,-0.03,-0.02,0.033,-0.012,0.005,-0.059,-0.122,-0.085,-0.065,-0.049
0.019,-0.008,-0.027,-0.005,0.023,-0.017,0.018,-0.052,-0.12,-0.085,-0.064,-0.046
0.023,-0.002,-0.025,-0.01,0.024,-0.013,0.007,-0.048,-0.121,-0.085,-0.06,-0.041
0.013,-0.004,-0.017,-0.004,0.015,-0.011,-0.016,-0.044,-0.129,-0.085,-0.06,-0.036
0.012,-0.006,-0.018,-0.003,0.015,-0.012,-0.016,-0.046,-0.16,-0.087,-0.062,-0.037
0.021,-0.017,-0.039,-0.002,0.03,-0.028,-0.028,-0.044,-0.171,-0.091,-0.066,-0.041
-0.001,-0.04,-0.039,0.021,0.019,-0.04,-0.015,-0.047,-0.18,-0.089,-0.069,-0.04
0.001,-0.031,-0.032,0.016,0.017,-0.031,-0.003,-0.06,-0.195,-0.101,-0.07,-0.04
0.007,-0.026,-0.033,0.009,0.02,-0.029,0.001,-0.06,-0.199,-0.114,-0.077,-0.051
0.011,-0.013,-0.023,0.001,0.017,-0.018,0.007,-0.06,-0.21,-0.115,-0.081,-0.056
0.008,-0.021,-0.029,0.007,0.019,-0.025,0.017,-0.06,-0.21,-0.13,-0.086,-0.058
0.006,-0.06,-0.066,0.027,0.036,-0.063,0.049,-0.061,-0.21,-0.138,-0.093,-0.061
0.008,-0.061,-0.069,0.027,0.038,-0.065,0.056,-0.075,-0.211,-0.141,-0.097,-0.06
0.001,-0.058,-0.059,0.029,0.03,-0.059,0.045,-0.072,-0.208,-0.145,-0.1,-0.06
-0.002,-0.062,-0.059,0.032,0.029,-0.06,0.055,-0.066,-0.217,-0.14,-0.093,-0.06
-0.009,-0.06,-0.051,0.035,0.021,-0.055,0.088,-0.061,-0.219,-0.135,-0.085,-0.06
-0.017,-0.068,-0.051,0.043,0.018,-0.06,0.097,-0.054,-0.222,-0.133,-0.077,-0.061
-0.006,-0.06,-0.054,0.034,0.025,-0.057,0.104,-0.051,-0.201,-0.124,-0.07,-0.057
0.013,-0.004,-0.017,-0.004,0.014,-0.011,0.139,-0.042,-0.151,-0.096,-0.063,-0.037
0.022,0.037,0.015,-0.03,0.003,0.026,0.167,-0.038,-0.139,-0.078,-0.053,-0.029
0.029,0.066,0.037,-0.048,-0.004,0.051,0.171,-0.025,-0.14,-0.081,-0.054,-0.031
0.021,0.075,0.054,-0.048,-0.017,0.064,0.128,-0.044,-0.14,-0.078,-0.055,-0.029
0.024,0.056,0.031,-0.04,-0.004,0.043,0.1,-0.076,-0.139,-0.084,-0.055,-0.031
0.012,0.049,0.037,-0.031,-0.012,0.042,0.11,-0.077,-0.141,-0.108,-0.053,-0.029
0.02,0.028,0.008,-0.024,0.006,0.018,0.116,-0.078,-0.151,-0.108,-0.045,-0.033
0.021,0.002,-0.019,-0.011,0.02,-0.008,0.111,-0.079,-0.166,-0.114,-0.066,-0.041
-0.017,-0.04,-0.023,0.028,0.004,-0.031,0.075,-0.09,-0.19,-0.154,-0.114,-0.074
-0.021,-0.077,-0.056,0.049,0.018,-0.066,0.036,-0.137,-0.211,-0.197,-0.157,-0.111
-0.028,-0.087,-0.059,0.058,0.016,-0.073,0.013,-0.134,-0.217,-0.182,-0.144,-0.101
-0.038,-0.105,-0.067,0.072,0.014,-0.085,-0.008,-0.124,-0.237,-0.196,-0.152,-0.108
-0.022,-0.109,-0.088,0.066,0.033,-0.098,-0.044,-0.115,-0.222,-0.188,-0.141,-0.103
-0.006,-0.098,-0.092,0.052,0.043,-0.095,-0.065,-0.091,-0.209,-0.187,-0.14,-0.106
-0.02,-0.099,-0.079,0.059,0.03,-0.088,-0.057,-0.103,-0.221,-0.201,-0.146,-0.106
0.009,-0.11,-0.118,0.051,0.064,-0.114,-0.045,-0.013,-0.153,-0.141,-0.115,-0.094
0.061,-0.091,-0.152,0.015,0.107,-0.121,0.011,0.097,-0.082,-0.142,-0.123,-0.095
0.173,0.061,-0.112,-0.117,0.143,-0.026,0.16,0.59,0.479,0.366,0.272,0.166
0.182,0.495,0.313,-0.339,-0.066,0.403,0.325,0.727,0.883,1.046,0.916,0.623
-0.019,0.895,0.914,-0.439,-0.467,0.904,0.213,-0.075,0.636,1.574,1.486,0.985
-0.168,0.531,0.699,-0.182,-0.433,0.615,-0.077,-0.451,0.172,1.137,1.0,0.589
-0.236,-0.199,0.037,0.218,-0.137,-0.081,-0.179,-0.508,-0.703,-0.454,-0.313,-0.214
-0.146,-0.378,-0.232,0.262,0.043,-0.305,-0.124,-0.398,-0.787,-0.784,-0.517,-0.314
-0.04,-0.246,-0.206,0.143,0.083,-0.225,0.058,-0.012,-0.277,-0.37,-0.265,-0.193
-0.037,-0.175,-0.139,0.106,0.051,-0.157,0.177,0.072,-0.197,-0.291,-0.232,-0.156
-0.019,-0.147,-0.128,0.083,0.055,-0.137,0.159,0.049,-0.168,-0.207,-0.182,-0.113
-0.006,-0.14,-0.133,0.073,0.064,-0.136,0.168,0.041,-0.166,-0.213,-0.179,-0.124
-0.005,-0.12,-0.115,0.063,0.055,-0.118,0.159,0.025,-0.153,-0.153,-0.145,-0.104
-0.026,-0.106,-0.081,0.066,0.028,-0.093,0.16,0.022,-0.144,-0.146,-0.154,-0.106
-0.016,-0.095,-0.079,0.055,0.032,-0.086,0.159,0.018,-0.141,-0.14,-0.141,-0.092
-0.021,-0.084,-0.062,0.053,0.021,-0.073,0.124,0.022,-0.127,-0.13,-0.134,-0.088
-0.025,-0.072,-0.046,0.048,0.011,-0.059,0.089,0.018,-0.126,-0.132,-0.11,-0.082
-0.007,-0.059,-0.052,0.033,0.023,-0.056,0.061,0.03,-0.106,-0.115,-0.091,-0.071
-0.01,-0.053,-0.044,0.032,0.017,-0.048,0.03,0.052,-0.089,-0.097,-0.091,-0.064
0.002,-0.044,-0.046,0.022,0.024,-0.045,0.001,0.078,-0.06,-0.07,-0.077,-0.051
0.0,-0.038,-0.038,0.019,0.019,-0.038,-0.014,0.096,-0.038,-0.052,-0.055,-0.044
-0.004,-0.027,-0.023,0.016,0.009,-0.024,-0.016,0.12,-0.023,-0.022,-0.025,-0.035
0.009,-0.002,-0.011,-0.004,0.01,-0.006,-0.014,0.15,0.009,0.014,0.0,-0.017
0.031,0.039,0.007,-0.035,0.012,0.023,-0.017,0.197,0.06,0.065,0.039,0.017
0.047,0.074,0.028,-0.061,0.01,0.051,-0.013,0.273,0.126,0.126,0.085,0.053
0.058,0.095,0.037,-0.076,0.01,0.065,-0.018,0.349,0.216,0.205,0.152,0.093
0.097,0.144,0.047,-0.121,0.025,0.095,0.002,0.41,0.3,0.293,0.23,0.149
0.13,0.196,0.066,-0.163,0.032,0.13,0.036,0.468,0.357,0.359,0.287,0.193
0.148,0.232,0.084,-0.19,0.032,0.158,0.072,0.498,0.394,0.419,0.345,0.231
0.164,0.26,0.096,-0.212,0.034,0.178,0.115,0.488,0.404,0.437,0.373,0.264
0.148,0.264,0.116,-0.207,0.016,0.19,0.12,0.482,0.367,0.416,0.366,0.262
0.127,0.25,0.123,-0.189,0.002,0.186,0.132,0.446,0.307,0.393,0.356,0.252
0.102,0.208,0.106,-0.155,-0.003,0.157,0.158,0.376,0.22,0.312,0.294,0.223
0.086,0.178,0.092,-0.132,-0.004,0.135,0.165,0.292,0.103,0.203,0.201,0.154
0.053,0.128,0.075,-0.091,-0.011,0.101,0.192,0.211,0.017,0.115,0.124,0.092
0.017,0.077,0.06,-0.047,-0.022,0.068,0.223,0.135,-0.067,0.024,0.045,0.042
0.014,0.06,0.046,-0.037,-0.017,0.053,0.235,0.078,-0.136,-0.042,-0.014,-0.002
-0.008,0.028,0.035,-0.01,-0.022,0.031,0.252,0.045,-0.151,-0.067,-0.05,-0.032
-0.015,0.01,0.024,0.002,-0.02,0.017,0.252,0.011,-0.156,-0.092,-0.071,-0.055
-0.028,-0.01,0.018,0.019,-0.023,0.004,0.243,0.008,-0.155,-0.104,-0.071,-0.053
-0.018,-0.012,0.006,0.015,-0.012,-0.003,0.24,0.025,-0.155,-0.097,-0.07,-0.049
-0.003,0.001,0.003,0.001,-0.003,0.002,0.232,0.035,-0.155,-0.095,-0.069,-0.051
-0.039,-0.014,0.025,0.026,-0.032,0.005,0.231,0.036,-0.155,-0.092,-0.064,-0.049
-0.04,-0.013,0.027,0.026,-0.033,0.007,0.24,0.034,-0.152,-0.087,-0.066,-0.051
-0.024,0.001,0.025,0.011,-0.024,0.013,0.245,0.035,-0.146,-0.085,-0.063,-0.049
-0.015,0.003,0.018,0.006,-0.017,0.011,0.248,0.035,-0.141,-0.079,-0.059,-0.058
-0.017,0.012,0.029,0.002,-0.023,0.021,0.257,0.035,-0.138,-0.089,-0.075,-0.063
-0.011,0.026,0.037,-0.008,-0.024,0.031,0.251,0.028,-0.132,-0.102,-0.091,-0.059
-0.012,-0.005,0.008,0.008,-0.01,0.002,0.246,0.021,-0.131,-0.099,-0.089,-0.061
-0.01,-0.012,-0.002,0.011,-0.004,-0.007,0.243,0.014,-0.137,-0.1,-0.092,-0.056
0.012,0.005,-0.007,-0.008,0.01,-0.001,0.237,0.006,-0.145,-0.104,-0.095,-0.055
-0.003,-0.024,-0.021,0.014,0.009,-0.022,0.233,-0.002,-0.155,-0.112,-0.094,-0.055
-0.019,-0.036,-0.017,0.027,0.0,-0.026,0.189,-0.003,-0.165,-0.123,-0.098,-0.062
-0.023,-0.048,-0.026,0.036,0.002,-0.037,0.162,0.0,-0.176,-0.128,-0.1,-0.071
0.008,-0.038,-0.046,0.015,0.027,-0.042,0.172,0.0,-0.176,-0.131,-0.104,-0.068
-0.007,-0.047,-0.04,0.027,0.016,-0.043,0.175,0.0,-0.175,-0.141,-0.105,-0.075
-0.043,-0.077,-0.034,0.061,-0.004,-0.055,0.175,-0.001,-0.173,-0.141,-0.098,-0.082
-0.011,-0.043,-0.032,0.027,0.011,-0.038,0.175,0.0,-0.17,-0.132,-0.09,-0.074
-0.024,-0.047,-0.023,0.036,-0.001,-0.034,0.175,-0.001,-0.169,-0.124,-0.082,-0.066
-0.017,-0.027,-0.011,0.022,-0.003,-0.019,0.173,0.007,-0.145,-0.113,-0.075,-0.058
-0.008,0.026,0.035,-0.009,-0.022,0.03,0.189,0.033,-0.123,-0.096,-0.067,-0.05
-0.019,0.059,0.078,-0.02,-0.049,0.068,0.196,0.052,-0.106,-0.082,-0.064,-0.045
0.025,0.104,0.079,-0.065,-0.027,0.091,0.179,0.042,-0.104,-0.086,-0.065,-0.045
0.044,0.104,0.06,-0.075,-0.008,0.082,0.169,0.015,-0.135,-0.083,-0.061,-0.045
0.032,0.088,0.056,-0.06,-0.012,0.072,0.157,0.003,-0.169,-0.103,-0.06,-0.045
-0.005,0.065,0.07,-0.031,-0.038,0.067,0.146,0.019,-0.175,-0.111,-0.06,-0.045
-0.015,0.025,0.041,-0.005,-0.028,0.033,0.134,0.014,-0.175,-0.109,-0.075,-0.046
-0.006,-0.032,-0.026,0.019,0.01,-0.029,0.129,0.003,-0.194,-0.141,-0.103,-0.065
-0.039,-0.097,-0.057,0.068,0.009,-0.077,0.13,-0.003,-0.233,-0.184,-0.137,-0.097
-0.043,-0.105,-0.062,0.074,0.01,-0.083,0.129,-0.008,-0.244,-0.194,-0.146,-0.108
-0.038,-0.094,-0.056,0.066,0.009,-0.075,0.131,-0.007,-0.237,-0.193,-0.153,-0.111
-0.06,-0.116,-0.056,0.088,-0.001,-0.086,0.129,-0.022,-0.262,-0.2,-0.156,-0.109
-0.044,-0.139,-0.095,0.092,0.025,-0.117,0.135,0.001,-0.244,-0.169,-0.134,-0.095
-0.055,-0.125,-0.07,0.09,0.008,-0.097,0.138,-0.022,-0.272,-0.198,-0.158,-0.104
-0.028,-0.117,-0.09,0.073,0.031,-0.103,0.129,0.032,-0.201,-0.143,-0.114,-0.078
0.016,-0.12,-0.136,0.052,0.076,-0.128,0.13,0.115,-0.157,-0.178,-0.161,-0.102
0.106,0.006,-0.1,-0.056,0.103,-0.047,0.175,0.471,0.225,0.124,0.061,0.022
0.187,0.341,0.154,-0.264,0.016,0.247,0.315,0.863,0.812,0.835,0.682,0.446
0.037,0.812,0.775,-0.424,-0.369,0.793,0.286,0.246,0.652,1.399,1.329,0.903
-0.126,0.754,0.88,-0.314,-0.503,0.817,-0.009,-0.402,0.278,1.407,1.294,0.795
-0.226,0.006,0.232,0.11,-0.229,0.119,-0.144,-0.457,-0.47,-0.022,0.016,-0.021
-0.168,-0.367,-0.2,0.268,0.016,-0.283,-0.109,-0.397,-0.888,-0.886,-0.61,-0.364
-0.049,-0.27,-0.221,0.159,0.086,-0.245,0.025,-0.06,-0.412,-0.471,-0.328,-0.218
-0.037,-0.2,-0.164,0.119,0.064,-0.182,0.21,0.149,-0.21,-0.318,-0.255,-0.173
-0.017,-0.142,-0.125,0.08,0.054,-0.133,0.248,0.101,-0.173,-0.235,-0.184,-0.122
-0.022,-0.121,-0.099,0.071,0.039,-0.11,0.242,0.076,-0.154,-0.214,-0.185,-0.125
-0.013,-0.114,-0.1,0.064,0.044,-0.107,0.255,0.084,-0.164,-0.187,-0.169,-0.111
-0.017,-0.115,-0.098,0.066,0.041,-0.106,0.296,0.118,-0.148,-0.163,-0.158,-0.103
-0.039,-0.116,-0.077,0.078,0.019,-0.096,0.318,0.128,-0.157,-0.167,-0.154,-0.099
-0.047,-0.108,-0.061,0.078,0.007,-0.084,0.306,0.123,-0.145,-0.143,-0.135,-0.09
-0.044,-0.104,-0.06,0.074,0.008,-0.081,0.308,0.127,-0.147,-0.148,-0.134,-0.088
-0.035,-0.095,-0.06,0.065,0.013,-0.078,0.298,0.124,-0.128,-0.129,-0.115,-0.08
-0.018,-0.078,-0.06,0.048,0.021,-0.069,0.311,0.124,-0.113,-0.115,-0.1,-0.074
0.006,-0.052,-0.059,0.023,0.033,-0.056,0.346,0.157,-0.089,-0.087,-0.076,-0.054
0.013,-0.032,-0.045,0.01,0.03,-0.039,0.365,0.185,-0.065,-0.062,-0.059,-0.039
0.015,-0.016,-0.031,0.001,0.023,-0.023,0.366,0.208,-0.04,-0.03,-0.036,-0.022
0.036,-0.003,-0.04,-0.016,0.038,-0.021,0.363,0.253,0.001,0.005,-0.007,-0.002
0.052,0.021,-0.031,-0.036,0.042,-0.005,0.371,0.29,0.051,0.046,0.018,0.025
0.058,0.053,-0.004,-0.055,0.031,0.024,0.379,0.354,0.122,0.106,0.065,0.051
0.079,0.078,-0.001,-0.079,0.04,0.038,0.374,0.43,0.194,0.177,0.127,0.084
0.086,0.119,0.033,-0.103,0.027,0.076,0.367,0.501,0.281,0.267,0.196,0.139
0.117,0.172,0.055,-0.145,0.031,0.113,0.365,0.568,0.369,0.35,0.276,0.196
0.15,0.218,0.067,-0.184,0.041,0.142,0.365,0.604,0.414,0.414,0.336,0.244
0.159,0.245,0.086,-0.202,0.036,0.165,0.365,0.639,0.446,0.458,0.382,0.282
0.151,0.235,0.084,-0.193,0.033,0.159,0.365,0.639,0.438,0.46,0.399,0.29
0.119,0.23,0.111,-0.175,0.003,0.171,0.365,0.591,0.39,0.431,0.364,0.273
0.11,0.216,0.106,-0.163,0.002,0.161,0.365,0.512,0.316,0.355,0.31,0.243
0.085,0.171,0.086,-0.128,-0.001,0.128,0.358,0.419,0.199,0.25,0.231,0.189
0.037,0.122,0.085,-0.08,-0.024,0.104,0.35,0.341,0.078,0.155,0.15,0.123
0.004,0.076,0.072,-0.04,-0.034,0.074,0.344,0.265,-0.02,0.061,0.084,0.072
0.009,0.045,0.036,-0.027,-0.014,0.04,0.335,0.207,-0.093,-0.006,0.03,0.037
0.007,0.018,0.011,-0.012,-0.002,0.014,0.33,0.17,-0.139,-0.048,-0.016,0.012
-0.015,-0.003,0.012,0.009,-0.013,0.004,0.319,0.163,-0.153,-0.079,-0.056,-0.007
-0.013,-0.015,-0.002,0.014,-0.006,-0.008,0.305,0.166,-0.149,-0.085,-0.061,-0.028
-0.048,-0.032,0.016,0.04,-0.032,-0.008,0.267,0.163,-0.15,-0.086,-0.056,-0.036
-0.04,-0.037,0.003,0.038,-0.021,-0.017,0.244,0.166,-0.15,-0.084,-0.054,-0.035
-0.01,-0.033,-0.024,0.022,0.007,-0.028,0.25,0.163,-0.149,-0.081,-0.051,-0.035
-0.038,-0.032,0.007,0.035,-0.022,-0.012,0.239,0.18,-0.152,-0.079,-0.049,-0.035
-0.032,-0.029,0.003,0.03,-0.017,-0.013,0.224,0.197,-0.155,-0.082,-0.047,-0.035
-0.014,-0.032,-0.018,0.023,0.002,-0.025,0.218,0.191,-0.155,-0.093,-0.058,-0.034
-0.016,-0.035,-0.019,0.025,0.002,-0.026,0.244,0.189,-0.157,-0.097,-0.062,-0.029
-0.014,-0.035,-0.021,0.025,0.004,-0.028,0.278,0.184,-0.161,-0.1,-0.056,-0.026
-0.019,-0.035,-0.016,0.027,-0.001,-0.025,0.299,0.181,-0.159,-0.104,-0.056,-0.023
-0.032,-0.035,-0.003,0.033,-0.014,-0.019,0.31,0.177,-0.165,-0.106,-0.051,-0.019
-0.025,-0.036,-0.011,0.03,-0.006,-0.023,0.319,0.174,-0.176,-0.113,-0.049,-0.014
-0.008,-0.03,-0.021,0.019,0.007,-0.025,0.329,0.175,-0.18,-0.119,-0.064,-0.023
-0.021,-0.041,-0.02,0.031,0.0,-0.03,0.343,0.171,-0.182,-0.127,-0.075,-0.039
-0.033,-0.053,-0.02,0.043,-0.007,-0.036,0.355,0.169,-0.185,-0.137,-0.085,-0.045
-0.026,-0.046,-0.021,0.036,-0.002,-0.034,0.366,0.171,-0.189,-0.134,-0.091,-0.033
-0.004,-0.045,-0.042,0.025,0.019,-0.043,0.377,0.174,-0.194,-0.137,-0.081,-0.037
-0.001,-0.041,-0.039,0.021,0.019,-0.04,0.363,0.175,-0.189,-0.148,-0.077,-0.057
-0.012,-0.041,-0.029,0.027,0.008,-0.035,0.351,0.174,-0.183,-0.143,-0.069,-0.047
0.0,-0.026,-0.026,0.014,0.013,-0.026,0.332,0.179,-0.183,-0.134,-0.063,-0.035
-0.01,0.013,0.023,-0.002,-0.017,0.018,0.307,0.196,-0.167,-0.104,-0.057,-0.018
0.0,0.049,0.049,-0.025,-0.025,0.049,0.289,0.208,-0.144,-0.08,-0.048,0.0
0.029,0.083,0.054,-0.056,-0.013,0.068,0.284,0.205,-0.118,-0.077,-0.05,0.002
0.024,0.101,0.077,-0.063,-0.027,0.088,0.286,0.196,-0.127,-0.076,-0.049,0.009
0.021,0.093,0.072,-0.057,-0.025,0.082,0.283,0.18,-0.175,-0.1,-0.054,0.008
0.022,0.081,0.059,-0.052,-0.019,0.07,0.325,0.162,-0.188,-0.11,-0.054,0.002
0.017,0.066,0.049,-0.042,-0.016,0.057,0.336,0.154,-0.181,-0.114,-0.06,-0.007
-0.011,0.007,0.019,0.002,-0.015,0.013,0.314,0.143,-0.188,-0.126,-0.081,-0.02
-0.032,-0.085,-0.053,0.059,0.011,-0.069,0.3,0.142,-0.218,-0.159,-0.108,-0.049
-0.036,-0.121,-0.085,0.078,0.025,-0.102,0.257,0.127,-0.255,-0.21,-0.147,-0.079
-0.026,-0.111,-0.085,0.069,0.03,-0.098,0.238,0.126,-0.236,-0.191,-0.138,-0.072
-0.03,-0.119,-0.09,0.074,0.03,-0.104,0.24,0.125,-0.252,-0.209,-0.152,-0.078
-0.043,-0.13,-0.087,0.087,0.022,-0.108,0.241,0.137,-0.241,-0.193,-0.139,-0.074
-0.046,-0.131,-0.084,0.089,0.019,-0.107,0.238,0.147,-0.243,-0.203,-0.149,-0.091
-0.042,-0.129,-0.087,0.086,0.023,-0.107,0.245,0.156,-0.253,-0.202,-0.147,-0.092
-0.004,-0.144,-0.14,0.074,0.068,-0.142,0.267,0.229,-0.197,-0.167,-0.14,-0.084
0.047,-0.099,-0.146,0.026,0.097,-0.122,0.337,0.383,-0.083,-0.131,-0.12,-0.059
0.178,0.116,-0.062,-0.147,0.12,0.027,0.493,0.929,0.557,0.447,0.342,0.235
0.152,0.577,0.425,-0.365,-0.137,0.501,0.586,0.873,0.818,1.114,1.007,0.709
-0.043,0.89,0.933,-0.424,-0.488,0.911,0.397,0.028,0.527,1.6,1.504,1.012
-0.183,0.373,0.556,-0.095,-0.37,0.465,0.139,-0.237,0.034,0.903,0.789,0.475
-0.229,-0.334,-0.105,0.282,-0.062,-0.219,0.105,-0.242,-0.821,-0.633,-0.436,-0.254
-0.119,-0.405,-0.286,0.262,0.084,-0.345,0.212,-0.075,-0.716,-0.714,-0.454,-0.251
-0.052,-0.259,-0.208,0.156,0.078,-0.233,0.351,0.273,-0.259,-0.347,-0.246,-0.164
-0.039,-0.195,-0.156,0.117,0.059,-0.175,0.376,0.315,-0.22,-0.298,-0.217,-0.129
-0.032,-0.155,-0.123,0.094,0.046,-0.138,0.324,0.273,-0.167,-0.226,-0.176,-0.099
-0.045,-0.137,-0.093,0.091,0.024,-0.115,0.277,0.258,-0.186,-0.238,-0.184,-0.11
-0.037,-0.128,-0.091,0.083,0.027,-0.11,0.238,0.262,-0.167,-0.198,-0.151,-0.091
-0.042,-0.123,-0.082,0.083,0.02,-0.102,0.228,0.262,-0.169,-0.201,-0.158,-0.096
-0.04,-0.116,-0.076,0.078,0.018,-0.096,0.255,0.27,-0.163,-0.178,-0.14,-0.084
-0.039,-0.109,-0.07,0.074,0.016,-0.089,0.251,0.292,-0.156,-0.164,-0.14,-0.079
-0.042,-0.104,-0.062,0.074,0.01,-0.083,0.226,0.29,-0.146,-0.149,-0.124,-0.062
-0.018,-0.09,-0.072,0.054,0.027,-0.081,0.258,0.291,-0.116,-0.127,-0.101,-0.05
0.014,-0.077,-0.091,0.031,0.053,-0.084,0.26,0.31,-0.099,-0.109,-0.091,-0.043
0.002,-0.081,-0.083,0.04,0.043,-0.081,0.259,0.336,-0.086,-0.082,-0.079,-0.036
-0.003,-0.07,-0.067,0.037,0.032,-0.069,0.261,0.361,-0.072,-0.061,-0.065,-0.028
0.02,-0.04,-0.06,0.01,0.04,-0.049,0.265,0.392,-0.027,-0.037,-0.035,-0.006
0.033,-0.018,-0.051,-0.007,0.042,-0.034,0.281,0.434,0.034,0.006,0.007,0.022
0.04,0.001,-0.039,-0.02,0.04,-0.019,0.281,0.499,0.09,0.066,0.046,0.049
0.061,0.037,-0.024,-0.049,0.042,0.006,0.286,0.556,0.149,0.121,0.087,0.073
0.091,0.074,-0.016,-0.082,0.054,0.029,0.298,0.641,0.244,0.199,0.148,0.111
0.111,0.116,0.005,-0.113,0.052,0.06,0.308,0.727,0.339,0.293,0.229,0.169
0.128,0.154,0.027,-0.141,0.05,0.09,0.302,0.782,0.41,0.372,0.3,0.225
0.142,0.186,0.044,-0.164,0.049,0.115,0.319,0.804,0.453,0.426,0.351,0.268
0.148,0.212,0.065,-0.181,0.042,0.138,0.352,0.791,0.454,0.445,0.364,0.295
0.148,0.222,0.074,-0.186,0.037,0.148,0.372,0.777,0.431,0.433,0.353,0.296
0.129,0.205,0.075,-0.167,0.027,0.14,0.392,0.719,0.368,0.386,0.333,0.285
0.099,0.151,0.052,-0.125,0.023,0.101,0.415,0.638,0.261,0.295,0.27,0.237
0.063,0.101,0.038,-0.082,0.013,0.069,0.413,0.553,0.141,0.186,0.187,0.171
0.035,0.06,0.025,-0.048,0.004,0.042,0.383,0.472,0.031,0.088,0.105,0.115
0.04,0.02,-0.02,-0.03,0.029,0.0,0.352,0.407,-0.046,0.017,0.039,0.066
0.021,-0.02,-0.042,0.0,0.032,-0.031,0.307,0.36,-0.098,-0.038,-0.01,0.035
-0.008,-0.045,-0.037,0.027,0.015,-0.041,0.265,0.353,-0.132,-0.087,-0.051,0.006
-0.023,-0.054,-0.031,0.039,0.005,-0.043,0.251,0.356,-0.15,-0.104,-0.066,-0.017
-0.042,-0.075,-0.033,0.059,-0.004,-0.053,0.276,0.358,-0.153,-0.104,-0.074,-0.023
-0.029,-0.09,-0.062,0.06,0.017,-0.076,0.308,0.361,-0.15,-0.106,-0.076,-0.03
-0.018,-0.085,-0.067,0.052,0.024,-0.075,0.311,0.358,-0.15,-0.104,-0.075,-0.034
-0.031,-0.08,-0.049,0.056,0.009,-0.064,0.32,0.363,-0.15,-0.105,-0.08,-0.03
-0.028,-0.077,-0.048,0.053,0.01,-0.062,0.35,0.371,-0.15,-0.105,-0.079,-0.03
-0.031,-0.071,-0.04,0.051,0.005,-0.056,0.37,0.367,-0.149,-0.103,-0.081,-0.029
-0.024,-0.068,-0.044,0.046,0.01,-0.055,0.365,0.364,-0.157,-0.099,-0.085,-0.025
-0.037,-0.064,-0.027,0.051,-0.004,-0.046,0.357,0.36,-0.17,-0.101,-0.085,-0.025
-0.062,-0.066,-0.004,0.064,-0.028,-0.035,0.348,0.356,-0.17,-0.099,-0.085,-0.027
-0.022,-0.061,-0.039,0.042,0.009,-0.05,0.334,0.354,-0.17,-0.101,-0.085,-0.03
-0.004,-0.06,-0.056,0.032,0.026,-0.058,0.305,0.348,-0.17,-0.117,-0.086,-0.03
-0.005,-0.06,-0.055,0.033,0.025,-0.057,0.257,0.344,-0.171,-0.122,-0.081,-0.03
-0.011,-0.071,-0.061,0.041,0.025,-0.066,0.217,0.338,-0.187,-0.136,-0.082,-0.03
-0.036,-0.094,-0.058,0.065,0.011,-0.076,0.218,0.336,-0.198,-0.151,-0.099,-0.029
-0.023,-0.077,-0.054,0.051,0.015,-0.065,0.239,0.329,-0.204,-0.15,-0.099,-0.026
-0.026,-0.092,-0.067,0.059,0.021,-0.079,0.254,0.327,-0.201,-0.149,-0.094,-0.023
-0.015,-0.115,-0.1,0.065,0.043,-0.108,0.271,0.323,-0.195,-0.155,-0.096,-0.021
-0.018,-0.116,-0.098,0.068,0.04,-0.107,0.282,0.327,-0.19,-0.162,-0.089,-0.017
-0.031,-0.107,-0.076,0.07,0.023,-0.092,0.312,0.35,-0.183,-0.144,-0.092,-0.016
-0.017,-0.053,-0.037,0.036,0.01,-0.045,0.347,0.356,-0.163,-0.123,-0.078,-0.011
-0.021,-0.046,-0.025,0.033,0.002,-0.035,0.366,0.387,-0.143,-0.119,-0.055,0.0
0.026,-0.005,-0.031,-0.01,0.029,-0.018,0.337,0.399,-0.161,-0.12,-0.054,0.014
0.014,0.032,0.018,-0.023,-0.002,0.025,0.305,0.382,-0.173,-0.12,-0.056,0.033
-0.009,0.007,0.016,0.0,-0.013,0.011,0.311,0.38,-0.177,-0.119,-0.058,0.03
0.015,0.002,-0.013,-0.008,0.014,-0.005,0.31,0.368,-0.195,-0.122,-0.062,0.018
0.02,-0.018,-0.038,-0.001,0.029,-0.027,0.325,0.367,-0.185,-0.117,-0.062,0.013
0.016,-0.059,-0.075,0.022,0.045,-0.067,0.347,0.344,-0.2,-0.131,-0.079,-0.012
-0.035,-0.122,-0.088,0.079,0.027,-0.105,0.355,0.334,-0.232,-0.171,-0.12,-0.047
-0.05,-0.163,-0.113,0.107,0.032,-0.138,0.354,0.326,-0.272,-0.214,-0.157,-0.073
-0.045,-0.173,-0.128,0.109,0.042,-0.151,0.359,0.324,-0.272,-0.205,-0.147,-0.07
-0.046,-0.177,-0.131,0.112,0.043,-0.153,0.381,0.323,-0.268,-0.212,-0.159,-0.077
-0.047,-0.19,-0.143,0.118,0.048,-0.166,0.411,0.309,-0.269,-0.212,-0.159,-0.075
-0.038,-0.209,-0.171,0.124,0.067,-0.19,0.42,0.329,-0.25,-0.204,-0.154,-0.073
-0.035,-0.2,-0.165,0.118,0.065,-0.182,0.42,0.311,-0.274,-0.22,-0.165,-0.081
-0.009,-0.195,-0.186,0.102,0.089,-0.191,0.427,0.385,-0.211,-0.169,-0.135,-0.057
0.039,-0.172,-0.211,0.067,0.125,-0.191,0.479,0.475,-0.173,-0.199,-0.161,-0.073
0.152,-0.002,-0.155,-0.075,0.153,-0.079,0.597,0.96,0.363,0.255,0.187,0.14
0.187,0.404,0.217,-0.295,-0.015,0.31,0.691,1.174,0.837,0.973,0.848,0.618
-0.008,0.802,0.809,-0.397,-0.409,0.806,0.564,0.379,0.646,1.561,1.468,1.027
-0.169,0.477,0.647,-0.154,-0.408,0.562,0.265,0.002,0.255,1.219,1.082,0.693
-0.244,-0.268,-0.024,0.256,-0.11,-0.146,0.131,-0.044,-0.65,-0.365,-0.238,-0.128
-0.165,-0.466,-0.301,0.316,0.068,-0.383,0.149,0.005,-0.855,-0.804,-0.517,-0.277
-0.038,-0.316,-0.278,0.177,0.12,-0.296,0.263,0.393,-0.333,-0.396,-0.281,-0.153
-0.033,-0.236,-0.203,0.135,0.085,-0.219,0.372,0.499,-0.251,-0.322,-0.258,-0.134
-0.04,-0.216,-0.176,0.128,0.068,-0.195,0.38,0.456,-0.203,-0.234,-0.188,-0.094
-0.047,-0.199,-0.153,0.123,0.053,-0.175,0.394,0.432,-0.197,-0.234,-0.187,-0.1
-0.064,-0.195,-0.131,0.13,0.033,-0.162,0.397,0.427,-0.218,-0.213,-0.15,-0.078
-0.08,-0.186,-0.106,0.133,0.013,-0.146,0.416,0.432,-0.162,-0.191,-0.157,-0.073
-0.134,-0.167,-0.033,0.15,-0.05,-0.1,0.444,0.428,-0.234,-0.212,-0.144,-0.057
-0.176,-0.172,0.005,0.174,-0.091,-0.084,0.446,0.437,-0.117,-0.154,-0.133,-0.046
-0.162,-0.164,-0.001,0.163,-0.08,-0.082,0.439,0.433,-0.211,-0.184,-0.124,-0.029
-0.142,-0.142,0.0,0.142,-0.071,-0.07,0.432,0.441,-0.066,-0.109,-0.122,0.0
-0.114,-0.114,0.0,0.114,-0.057,-0.057,0.426,0.452,-0.215,-0.124,-0.136,0.021
-0.074,-0.075,0.0,0.075,-0.037,-0.037,0.394,0.462,-0.565,-0.225,-0.136,0.037
