-0.065,-0.117,-0.053,0.091,-0.006,-0.084,0.071,-0.173,-0.106,-0.118,-0.047,-0.074
-0.067,-0.119,-0.052,0.094,-0.008,-0.085,0.068,-0.181,-0.101,-0.11,-0.043,-0.078
-0.068,-0.133,-0.065,0.101,-0.001,-0.099,0.103,-0.142,-0.067,-0.078,-0.033,-0.087
-0.066,-0.115,-0.049,0.091,-0.009,-0.082,0.213,0.171,0.256,0.057,-0.021,-0.125
0.11,0.132,0.022,-0.121,0.044,0.077,0.015,-0.111,0.257,0.415,0.289,0.119
0.413,0.736,0.323,-0.575,0.045,0.529,-0.529,-1.065,-0.354,0.863,1.0,0.78
0.271,0.606,0.335,-0.439,-0.032,0.47,-0.63,-1.291,-0.796,0.449,0.688,0.73
-0.058,-0.113,-0.055,0.086,-0.001,-0.084,-0.251,-0.853,-0.991,-0.449,-0.217,0.073
-0.108,-0.182,-0.074,0.145,-0.017,-0.128,-0.054,-0.521,-0.645,-0.414,-0.245,-0.099
-0.088,-0.101,-0.014,0.095,-0.037,-0.057,0.031,-0.27,-0.202,-0.117,-0.11,-0.068
-0.064,-0.111,-0.047,0.088,-0.008,-0.078,0.094,-0.148,-0.117,-0.076,-0.091,-0.064
-0.038,-0.092,-0.054,0.065,0.008,-0.073,0.09,-0.134,-0.058,-0.035,-0.057,-0.058
-0.043,-0.107,-0.065,0.075,0.011,-0.086,0.09,-0.105,-0.046,-0.046,-0.071,-0.065
-0.044,-0.094,-0.05,0.069,0.003,-0.071,0.08,-0.092,-0.024,-0.033,-0.051,-0.056
-0.048,-0.104,-0.057,0.076,0.005,-0.08,0.08,-0.085,-0.015,-0.035,-0.055,-0.061
-0.051,-0.097,-0.046,0.074,-0.003,-0.071,0.072,-0.079,-0.01,-0.03,-0.043,-0.052
-0.041,-0.099,-0.058,0.07,0.009,-0.078,0.07,-0.074,0.004,-0.029,-0.042,-0.057
-0.022,-0.092,-0.07,0.057,0.024,-0.081,0.08,-0.067,0.013,-0.02,-0.039,-0.05
-0.014,-0.088,-0.074,0.051,0.03,-0.08,0.08,-0.048,0.03,0.003,-0.034,-0.044
-0.009,-0.086,-0.077,0.048,0.034,-0.081,0.072,-0.028,0.056,0.022,-0.033,-0.038
0.016,-0.066,-0.082,0.025,0.049,-0.074,0.066,-0.015,0.083,0.04,-0.027,-0.031
0.034,-0.043,-0.077,0.004,0.055,-0.059,0.06,0.01,0.112,0.063,0.0,-0.024
0.06,-0.025,-0.086,-0.017,0.073,-0.056,0.05,0.037,0.155,0.097,0.028,-0.009
0.077,-0.014,-0.092,-0.031,0.084,-0.053,0.034,0.066,0.197,0.136,0.055,0.015
0.116,0.019,-0.097,-0.068,0.106,-0.039,-0.002,0.101,0.246,0.189,0.095,0.046
0.177,0.056,-0.121,-0.116,0.148,-0.032,-0.029,0.138,0.302,0.247,0.143,0.081
0.18,0.073,-0.107,-0.126,0.143,-0.017,-0.052,0.168,0.347,0.305,0.191,0.13
0.233,0.111,-0.122,-0.172,0.177,-0.005,-0.08,0.174,0.347,0.338,0.231,0.164
0.246,0.124,-0.122,-0.184,0.184,0.001,-0.082,0.167,0.331,0.339,0.258,0.173
0.219,0.129,-0.09,-0.173,0.154,0.019,-0.069,0.151,0.303,0.309,0.247,0.166
0.214,0.134,-0.08,-0.174,0.147,0.027,-0.06,0.11,0.223,0.238,0.197,0.134
0.119,0.054,-0.064,-0.086,0.091,-0.005,-0.028,0.043,0.124,0.15,0.126,0.089
0.043,-0.005,-0.048,-0.019,0.045,-0.026,0.016,-0.014,0.052,0.079,0.07,0.032
0.012,-0.018,-0.03,0.003,0.021,-0.024,0.038,-0.056,-0.003,0.023,0.019,-0.008
-0.022,-0.05,-0.028,0.036,0.003,-0.039,0.064,-0.089,-0.046,-0.016,-0.031,-0.026
-0.042,-0.062,-0.02,0.053,-0.011,-0.041,0.08,-0.099,-0.057,-0.043,-0.053,-0.063
-0.052,-0.082,-0.03,0.067,-0.011,-0.056,0.084,-0.099,-0.063,-0.056,-0.064,-0.078
-0.039,-0.095,-0.056,0.068,0.009,-0.075,0.086,-0.103,-0.075,-0.054,-0.073,-0.079
-0.048,-0.096,-0.047,0.072,0.0,-0.071,0.085,-0.106,-0.075,-0.066,-0.07,-0.086
-0.054,-0.094,-0.04,0.075,-0.007,-0.067,0.084,-0.105,-0.073,-0.072,-0.069,-0.081
-0.049,-0.085,-0.036,0.068,-0.006,-0.06,0.093,-0.105,-0.07,-0.066,-0.071,-0.08
-0.08,-0.104,-0.024,0.092,-0.028,-0.063,0.102,-0.105,-0.07,-0.064,-0.067,-0.08
-0.071,-0.108,-0.037,0.09,-0.017,-0.073,0.097,-0.105,-0.068,-0.059,-0.077,-0.08
-0.042,-0.097,-0.055,0.07,0.007,-0.076,0.095,-0.101,-0.064,-0.056,-0.086,-0.081
-0.047,-0.094,-0.048,0.071,0.001,-0.071,0.091,-0.096,-0.066,-0.053,-0.08,-0.079
-0.063,-0.103,-0.04,0.083,-0.011,-0.071,0.09,-0.094,-0.061,-0.046,-0.078,-0.073
-0.072,-0.107,-0.036,0.09,-0.018,-0.071,0.087,-0.089,-0.06,-0.041,-0.073,-0.065
-0.074,-0.1,-0.025,0.087,-0.024,-0.062,0.079,-0.086,-0.06,-0.036,-0.07,-0.059
-0.058,-0.09,-0.033,0.075,-0.012,-0.061,0.075,-0.085,-0.06,-0.029,-0.067,-0.052
-0.01,-0.072,-0.062,0.041,0.026,-0.067,0.069,-0.085,-0.06,-0.026,-0.065,-0.046
-0.003,-0.074,-0.071,0.039,0.034,-0.072,0.063,-0.085,-0.06,-0.023,-0.065,-0.052
-0.028,-0.09,-0.062,0.059,0.018,-0.076,0.06,-0.085,-0.059,-0.036,-0.065,-0.064
-0.024,-0.084,-0.06,0.054,0.018,-0.072,0.06,-0.085,-0.064,-0.052,-0.065,-0.07
-0.022,-0.077,-0.055,0.05,0.017,-0.066,0.06,-0.085,-0.072,-0.049,-0.066,-0.071
-0.027,-0.075,-0.048,0.051,0.011,-0.062,0.06,-0.09,-0.075,-0.053,-0.07,-0.068
-0.004,-0.063,-0.059,0.033,0.028,-0.061,0.06,-0.09,-0.079,-0.056,-0.07,-0.064
-0.006,-0.077,-0.071,0.042,0.033,-0.074,0.059,-0.09,-0.081,-0.054,-0.072,-0.063
-0.008,-0.072,-0.063,0.04,0.028,-0.067,0.064,-0.088,-0.079,-0.059,-0.076,-0.057
-0.019,-0.078,-0.059,0.048,0.02,-0.068,0.069,-0.084,-0.081,-0.06,-0.074,-0.068
-0.062,-0.119,-0.057,0.091,-0.002,-0.088,0.065,-0.085,-0.078,-0.06,-0.079,-0.09
-0.058,-0.105,-0.046,0.082,-0.006,-0.075,0.065,-0.085,-0.085,-0.064,-0.08,-0.092
-0.033,-0.091,-0.059,0.062,0.014,-0.075,0.063,-0.085,-0.096,-0.065,-0.08,-0.094
-0.016,-0.093,-0.077,0.055,0.03,-0.084,0.059,-0.085,-0.093,-0.064,-0.084,-0.098
-0.016,-0.086,-0.07,0.051,0.027,-0.078,0.06,-0.078,-0.091,-0.059,-0.085,-0.1
-0.016,-0.084,-0.067,0.05,0.026,-0.075,0.063,-0.071,-0.087,-0.053,-0.084,-0.097
-0.017,-0.081,-0.064,0.05,0.023,-0.072,0.073,-0.064,-0.085,-0.05,-0.075,-0.088
-0.013,-0.073,-0.06,0.043,0.023,-0.066,0.075,-0.057,-0.081,-0.045,-0.065,-0.08
-0.005,-0.062,-0.057,0.034,0.026,-0.059,0.067,-0.053,-0.068,-0.041,-0.055,-0.071
0.021,-0.033,-0.054,0.006,0.038,-0.043,0.061,-0.047,-0.063,-0.035,-0.053,-0.07
0.023,-0.028,-0.051,0.002,0.038,-0.039,0.053,-0.046,-0.066,-0.025,-0.056,-0.07
0.046,-0.002,-0.048,-0.022,0.047,-0.025,0.052,-0.048,-0.064,-0.019,-0.054,-0.069
0.071,0.026,-0.045,-0.048,0.057,-0.009,0.055,-0.055,-0.066,-0.015,-0.056,-0.071
-0.006,-0.052,-0.047,0.029,0.021,-0.05,0.055,-0.052,-0.065,-0.022,-0.054,-0.069
-0.019,-0.076,-0.057,0.048,0.019,-0.066,0.059,-0.05,-0.064,-0.037,-0.057,-0.073
-0.022,-0.078,-0.056,0.051,0.017,-0.067,0.06,-0.066,-0.091,-0.052,-0.064,-0.083
-0.058,-0.106,-0.049,0.082,-0.004,-0.077,0.06,-0.07,-0.1,-0.064,-0.076,-0.091
-0.061,-0.111,-0.05,0.086,-0.005,-0.081,0.065,-0.072,-0.102,-0.068,-0.083,-0.098
-0.078,-0.118,-0.04,0.098,-0.019,-0.079,0.065,-0.067,-0.097,-0.075,-0.087,-0.103
-0.074,-0.117,-0.043,0.096,-0.015,-0.08,0.065,-0.074,-0.103,-0.092,-0.11,-0.117
-0.071,-0.112,-0.042,0.092,-0.014,-0.077,0.066,-0.065,-0.097,-0.083,-0.108,-0.12
-0.073,-0.117,-0.044,0.095,-0.014,-0.08,0.064,-0.074,-0.101,-0.078,-0.107,-0.12
-0.082,-0.115,-0.033,0.098,-0.024,-0.074,0.067,-0.058,-0.102,-0.072,-0.103,-0.121
-0.086,-0.112,-0.026,0.1,-0.03,-0.069,0.061,-0.073,-0.093,-0.061,-0.1,-0.116
-0.098,-0.125,-0.027,0.112,-0.035,-0.076,0.1,0.004,-0.039,-0.053,-0.102,-0.139
-0.102,-0.102,-0.001,0.102,-0.05,-0.051,0.189,0.29,0.316,0.099,-0.07,-0.181
0.126,0.22,0.094,-0.173,0.016,0.157,-0.065,-0.144,0.156,0.5,0.365,0.14
0.387,0.807,0.42,-0.597,-0.017,0.613,-0.614,-1.03,-0.482,0.9,1.033,0.785
0.2,0.526,0.326,-0.363,-0.064,0.426,-0.614,-1.084,-0.847,0.335,0.539,0.606
-0.083,-0.154,-0.071,0.119,-0.006,-0.113,-0.224,-0.641,-0.979,-0.517,-0.328,-0.044
-0.105,-0.154,-0.05,0.13,-0.027,-0.102,-0.061,-0.341,-0.546,-0.373,-0.27,-0.145
-0.081,-0.098,-0.017,0.09,-0.032,-0.057,0.028,-0.142,-0.158,-0.12,-0.14,-0.132
-0.054,-0.091,-0.037,0.073,-0.008,-0.064,0.069,-0.049,-0.097,-0.085,-0.121,-0.137
-0.058,-0.1,-0.043,0.08,-0.007,-0.072,0.075,-0.024,-0.02,-0.038,-0.092,-0.122
-0.082,-0.129,-0.047,0.106,-0.017,-0.088,0.083,-0.002,-0.018,-0.049,-0.099,-0.127
-0.067,-0.102,-0.035,0.084,-0.015,-0.068,0.077,0.006,-0.006,-0.03,-0.077,-0.117
-0.059,-0.1,-0.041,0.08,-0.009,-0.071,0.082,0.012,0.001,-0.033,-0.08,-0.125
-0.054,-0.084,-0.03,0.069,-0.012,-0.056,0.079,0.02,0.017,-0.024,-0.066,-0.114
-0.029,-0.083,-0.054,0.056,0.013,-0.068,0.081,0.026,0.032,-0.016,-0.064,-0.114
-0.007,-0.073,-0.066,0.041,0.03,-0.069,0.073,0.033,0.042,-0.005,-0.055,-0.107
-0.003,-0.067,-0.065,0.035,0.031,-0.066,0.065,0.057,0.065,0.012,-0.049,-0.103
0.002,-0.062,-0.064,0.03,0.033,-0.063,0.06,0.074,0.09,0.035,-0.038,-0.091
0.02,-0.053,-0.073,0.017,0.047,-0.063,0.049,0.091,0.119,0.058,-0.025,-0.075
0.045,-0.042,-0.087,-0.001,0.066,-0.064,0.046,0.111,0.159,0.08,-0.009,-0.066
0.057,-0.028,-0.085,-0.014,0.071,-0.056,0.032,0.128,0.199,0.115,0.019,-0.054
0.075,-0.008,-0.083,-0.033,0.079,-0.046,0.008,0.162,0.25,0.163,0.047,-0.039
0.113,0.017,-0.095,-0.065,0.104,-0.039,-0.009,0.203,0.319,0.225,0.1,-0.007
0.153,0.048,-0.105,-0.1,0.129,-0.028,-0.041,0.231,0.37,0.284,0.145,0.036
0.191,0.094,-0.097,-0.142,0.143,-0.002,-0.073,0.252,0.407,0.337,0.193,0.088
0.207,0.116,-0.091,-0.161,0.149,0.012,-0.084,0.269,0.424,0.38,0.248,0.123
0.222,0.135,-0.087,-0.178,0.154,0.024,-0.095,0.247,0.408,0.381,0.254,0.117
0.226,0.149,-0.077,-0.187,0.152,0.035,-0.101,0.202,0.348,0.337,0.226,0.107
0.167,0.108,-0.06,-0.137,0.114,0.024,-0.069,0.16,0.253,0.255,0.174,0.079
0.095,0.051,-0.045,-0.073,0.07,0.003,-0.022,0.108,0.156,0.154,0.104,0.024
0.045,0.012,-0.033,-0.028,0.039,-0.01,0.012,0.058,0.079,0.072,0.051,-0.02
-0.003,-0.019,-0.015,0.011,0.006,-0.017,0.031,0.023,0.026,0.017,0.007,-0.064
-0.02,-0.045,-0.025,0.033,0.003,-0.035,0.047,-0.013,-0.008,-0.025,-0.035,-0.093
-0.002,-0.039,-0.037,0.021,0.018,-0.038,0.065,-0.039,-0.025,-0.051,-0.064,-0.105
-0.018,-0.052,-0.034,0.035,0.008,-0.043,0.065,-0.04,-0.039,-0.064,-0.075,-0.113
-0.046,-0.082,-0.036,0.064,-0.005,-0.058,0.065,-0.04,-0.047,-0.075,-0.075,-0.11
-0.041,-0.072,-0.031,0.057,-0.005,-0.051,0.065,-0.039,-0.043,-0.075,-0.075,-0.11
-0.043,-0.069,-0.026,0.056,-0.008,-0.047,0.065,-0.045,-0.051,-0.075,-0.08,-0.11
-0.047,-0.068,-0.021,0.058,-0.013,-0.044,0.063,-0.057,-0.061,-0.074,-0.086,-0.11
-0.044,-0.062,-0.018,0.053,-0.013,-0.04,0.059,-0.053,-0.055,-0.08,-0.088,-0.109
-0.052,-0.063,-0.012,0.058,-0.02,-0.037,0.06,-0.05,-0.05,-0.088,-0.092,-0.114
-0.045,-0.056,-0.011,0.05,-0.017,-0.033,0.06,-0.047,-0.047,-0.085,-0.095,-0.113
-0.04,-0.064,-0.025,0.052,-0.007,-0.044,0.06,-0.045,-0.041,-0.085,-0.09,-0.122
-0.062,-0.087,-0.025,0.075,-0.018,-0.056,0.059,-0.043,-0.038,-0.082,-0.082,-0.13
-0.053,-0.073,-0.02,0.063,-0.016,-0.046,0.056,-0.039,-0.035,-0.079,-0.076,-0.114
-0.045,-0.063,-0.018,0.054,-0.013,-0.04,0.053,-0.04,-0.035,-0.081,-0.069,-0.103
-0.043,-0.056,-0.013,0.05,-0.015,-0.034,0.05,-0.04,-0.035,-0.084,-0.064,-0.097
-0.039,-0.049,-0.01,0.044,-0.014,-0.029,0.047,-0.04,-0.035,-0.086,-0.059,-0.092
-0.03,-0.044,-0.014,0.038,-0.008,-0.029,0.045,-0.04,-0.036,-0.084,-0.054,-0.089
-0.007,-0.031,-0.024,0.019,0.009,-0.027,0.043,-0.045,-0.039,-0.086,-0.051,-0.084
-0.029,-0.058,-0.029,0.044,0.0,-0.043,0.039,-0.045,-0.042,-0.084,-0.043,-0.079
-0.028,-0.051,-0.023,0.04,-0.003,-0.037,0.04,-0.046,-0.045,-0.087,-0.047,-0.091
-0.025,-0.043,-0.017,0.034,-0.004,-0.03,0.04,-0.051,-0.046,-0.091,-0.065,-0.112
-0.046,-0.059,-0.013,0.053,-0.016,-0.035,0.04,-0.049,-0.043,-0.088,-0.066,-0.116
-0.041,-0.047,-0.006,0.045,-0.018,-0.026,0.039,-0.051,-0.054,-0.101,-0.064,-0.115
-0.046,-0.048,-0.001,0.047,-0.022,-0.024,0.036,-0.049,-0.061,-0.112,-0.066,-0.112
-0.046,-0.042,0.004,0.044,-0.025,-0.019,0.04,-0.052,-0.06,-0.109,-0.063,-0.109
-0.044,-0.039,0.005,0.041,-0.025,-0.017,0.04,-0.065,-0.06,-0.11,-0.072,-0.11
-0.054,-0.049,0.005,0.051,-0.029,-0.021,0.04,-0.063,-0.059,-0.11,-0.085,-0.117
-0.062,-0.052,0.01,0.057,-0.036,-0.021,0.04,-0.058,-0.075,-0.11,-0.085,-0.128
-0.06,-0.05,0.01,0.055,-0.035,-0.02,0.04,-0.057,-0.082,-0.114,-0.085,-0.13
-0.061,-0.05,0.011,0.055,-0.036,-0.019,0.04,-0.05,-0.075,-0.115,-0.085,-0.13
-0.063,-0.047,0.016,0.055,-0.039,-0.015,0.04,-0.053,-0.075,-0.116,-0.085,-0.13
-0.063,-0.044,0.019,0.053,-0.04,-0.012,0.04,-0.061,-0.07,-0.119,-0.083,-0.13
-0.069,-0.046,0.023,0.057,-0.046,-0.011,0.04,-0.06,-0.07,-0.121,-0.075,-0.13
-0.065,-0.039,0.026,0.052,-0.045,-0.007,0.04,-0.06,-0.073,-0.119,-0.069,-0.124
-0.069,-0.038,0.031,0.054,-0.05,-0.003,0.04,-0.055,-0.065,-0.111,-0.063,-0.119
-0.056,-0.028,0.028,0.042,-0.041,0.0,0.045,-0.055,-0.059,-0.102,-0.056,-0.114
-0.025,0.009,0.035,0.008,-0.03,0.022,0.045,-0.054,-0.052,-0.093,-0.05,-0.108
-0.031,0.033,0.064,-0.002,-0.048,0.049,0.031,-0.055,-0.045,-0.092,-0.044,-0.102
-0.021,0.037,0.057,-0.008,-0.039,0.047,0.02,-0.056,-0.051,-0.097,-0.042,-0.102
0.002,0.039,0.037,-0.021,-0.018,0.038,0.013,-0.052,-0.053,-0.098,-0.047,-0.106
-0.01,0.021,0.031,-0.006,-0.02,0.026,0.004,-0.067,-0.061,-0.103,-0.052,-0.109
-0.021,0.009,0.029,0.006,-0.025,0.019,0.024,-0.055,-0.057,-0.103,-0.054,-0.112
-0.018,0.013,0.031,0.003,-0.025,0.021,0.048,-0.073,-0.07,-0.112,-0.067,-0.116
-0.043,-0.014,0.029,0.028,-0.036,0.007,0.043,-0.1,-0.096,-0.126,-0.079,-0.13
-0.068,-0.037,0.031,0.052,-0.049,-0.002,0.041,-0.089,-0.094,-0.124,-0.082,-0.137
-0.071,-0.045,0.026,0.057,-0.048,-0.009,0.038,-0.091,-0.103,-0.126,-0.088,-0.14
-0.077,-0.051,0.026,0.064,-0.052,-0.012,0.035,-0.081,-0.098,-0.124,-0.088,-0.139
-0.086,-0.066,0.02,0.076,-0.053,-0.023,0.034,-0.085,-0.111,-0.126,-0.095,-0.142
-0.078,-0.058,0.02,0.068,-0.049,-0.019,0.03,-0.075,-0.096,-0.126,-0.092,-0.138
-0.072,-0.056,0.015,0.063,-0.043,-0.02,0.029,-0.098,-0.102,-0.131,-0.102,-0.142
-0.063,-0.05,0.013,0.056,-0.038,-0.018,0.033,-0.073,-0.086,-0.134,-0.097,-0.139
-0.069,-0.038,0.031,0.053,-0.049,-0.004,0.024,-0.083,-0.09,-0.132,-0.102,-0.14
-0.097,-0.057,0.041,0.077,-0.069,-0.008,0.075,0.003,-0.004,-0.104,-0.098,-0.167
-0.08,-0.013,0.066,0.046,-0.073,0.026,0.157,0.233,0.328,0.064,-0.036,-0.17
0.145,0.367,0.223,-0.256,-0.039,0.295,-0.16,-0.319,0.039,0.474,0.436,0.179
0.374,0.911,0.536,-0.643,-0.081,0.723,-0.708,-1.14,-0.554,0.843,1.059,0.806
0.157,0.519,0.362,-0.338,-0.103,0.44,-0.629,-1.072,-0.871,0.205,0.471,0.558
-0.081,-0.118,-0.036,0.1,-0.022,-0.077,-0.235,-0.623,-0.94,-0.589,-0.345,-0.096
-0.103,-0.076,0.027,0.089,-0.065,-0.025,-0.096,-0.343,-0.47,-0.378,-0.234,-0.148
-0.12,-0.045,0.075,0.082,-0.097,0.014,-0.019,-0.142,-0.128,-0.163,-0.127,-0.126
-0.068,-0.034,0.034,0.051,-0.051,0.0,0.021,-0.046,-0.061,-0.147,-0.097,-0.12
-0.061,-0.031,0.03,0.046,-0.045,0.0,0.051,-0.028,-0.011,-0.095,-0.069,-0.119
-0.053,-0.038,0.015,0.045,-0.034,-0.011,0.054,-0.017,-0.004,-0.092,-0.078,-0.143
-0.039,-0.023,0.016,0.03,-0.027,-0.003,0.041,-0.019,0.017,-0.071,-0.057,-0.126
-0.033,-0.032,0.001,0.032,-0.017,-0.015,0.043,-0.013,0.02,-0.08,-0.063,-0.133
-0.018,-0.019,-0.001,0.019,-0.008,-0.01,0.03,-0.005,0.037,-0.053,-0.047,-0.121
-0.04,-0.043,-0.003,0.042,-0.019,-0.023,0.034,0.018,0.041,-0.029,-0.048,-0.122
-0.042,-0.041,0.001,0.042,-0.021,-0.02,0.034,0.037,0.066,-0.024,-0.038,-0.117
-0.036,-0.035,0.0,0.035,-0.018,-0.017,0.028,0.054,0.08,-0.025,-0.032,-0.108
-0.029,-0.031,-0.001,0.03,-0.014,-0.016,0.021,0.062,0.104,-0.006,-0.027,-0.102
-0.012,-0.018,-0.006,0.015,-0.003,-0.012,0.012,0.069,0.143,0.022,-0.017,-0.091
0.021,0.003,-0.019,-0.012,0.02,-0.008,0.007,0.1,0.171,0.044,0.003,-0.087
0.045,0.016,-0.029,-0.03,0.037,-0.006,-0.003,0.123,0.221,0.079,0.034,-0.066
0.057,0.028,-0.03,-0.043,0.043,-0.001,-0.022,0.161,0.272,0.133,0.061,-0.042
0.099,0.068,-0.031,-0.083,0.064,0.019,-0.052,0.197,0.333,0.195,0.105,-0.023
0.145,0.11,-0.035,-0.127,0.089,0.038,-0.08,0.225,0.393,0.251,0.158,0.016
0.184,0.148,-0.035,-0.166,0.109,0.056,-0.102,0.245,0.425,0.312,0.211,0.055
0.203,0.169,-0.034,-0.186,0.118,0.067,-0.123,0.252,0.438,0.35,0.261,0.09
0.204,0.184,-0.02,-0.193,0.111,0.082,-0.14,0.248,0.422,0.348,0.272,0.101
0.201,0.193,-0.008,-0.197,0.104,0.092,-0.136,0.204,0.351,0.305,0.249,0.082
0.149,0.162,0.013,-0.155,0.067,0.087,-0.096,0.15,0.25,0.214,0.201,0.061
0.073,0.112,0.039,-0.093,0.017,0.075,-0.065,0.084,0.15,0.115,0.127,0.014
0.024,0.065,0.041,-0.045,-0.008,0.053,-0.035,0.026,0.075,0.031,0.057,-0.042
-0.013,0.026,0.039,-0.006,-0.026,0.032,-0.008,-0.004,0.021,-0.023,0.016,-0.083
-0.037,0.004,0.041,0.016,-0.039,0.022,-0.001,-0.041,-0.006,-0.05,-0.018,-0.109
-0.043,-0.005,0.039,0.024,-0.041,0.017,0.011,-0.061,-0.015,-0.077,-0.046,-0.116
-0.06,-0.018,0.041,0.039,-0.05,0.011,0.026,-0.061,-0.028,-0.091,-0.055,-0.114
-0.057,-0.022,0.035,0.04,-0.046,0.006,0.032,-0.065,-0.036,-0.09,-0.059,-0.116
-0.044,-0.019,0.025,0.032,-0.035,0.003,0.029,-0.067,-0.034,-0.09,-0.056,-0.114
-0.051,-0.031,0.02,0.041,-0.035,-0.006,0.024,-0.072,-0.037,-0.091,-0.054,-0.116
-0.037,-0.036,0.001,0.036,-0.018,-0.017,0.023,-0.075,-0.049,-0.089,-0.056,-0.129
-0.054,-0.035,0.019,0.044,-0.036,-0.007,0.016,-0.08,-0.051,-0.092,-0.055,-0.131
-0.079,-0.035,0.044,0.057,-0.061,0.004,0.016,-0.078,-0.05,-0.108,-0.055,-0.13
-0.07,-0.035,0.035,0.052,-0.052,0.0,0.029,-0.072,-0.05,-0.111,-0.057,-0.13
-0.069,-0.035,0.033,0.051,-0.051,-0.001,0.029,-0.068,-0.05,-0.109,-0.062,-0.13
-0.06,-0.029,0.031,0.044,-0.045,0.001,0.021,-0.064,-0.049,-0.111,-0.064,-0.129
-0.047,-0.024,0.023,0.035,-0.035,-0.001,0.019,-0.059,-0.043,-0.109,-0.06,-0.124
-0.049,-0.019,0.031,0.033,-0.04,0.006,0.013,-0.055,-0.038,-0.103,-0.055,-0.119
-0.059,-0.013,0.046,0.036,-0.052,0.016,0.01,-0.06,-0.032,-0.096,-0.051,-0.115
-0.051,-0.006,0.045,0.028,-0.048,0.019,0.021,-0.06,-0.026,-0.09,-0.047,-0.11
-0.053,-0.009,0.044,0.03,-0.048,0.018,0.027,-0.06,-0.021,-0.082,-0.041,-0.105
-0.066,-0.027,0.039,0.046,-0.052,0.006,0.023,-0.061,-0.025,-0.083,-0.042,-0.108
-0.074,-0.032,0.042,0.053,-0.058,0.005,0.021,-0.059,-0.034,-0.089,-0.046,-0.114
-0.062,-0.028,0.035,0.045,-0.048,0.003,0.017,-0.063,-0.041,-0.092,-0.045,-0.117
-0.049,-0.026,0.023,0.037,-0.035,-0.002,0.015,-0.065,-0.046,-0.096,-0.05,-0.122
-0.074,-0.022,0.052,0.048,-0.063,0.014,0.013,-0.065,-0.055,-0.102,-0.055,-0.125
-0.073,-0.019,0.053,0.046,-0.063,0.017,0.009,-0.07,-0.064,-0.109,-0.058,-0.125
-0.067,-0.022,0.045,0.044,-0.056,0.011,0.01,-0.071,-0.065,-0.11,-0.063,-0.127
-0.069,-0.026,0.044,0.047,-0.056,0.009,0.006,-0.079,-0.065,-0.113,-0.065,-0.131
-0.061,-0.024,0.036,0.042,-0.048,0.006,0.004,-0.09,-0.065,-0.115,-0.068,-0.13
-0.06,-0.026,0.034,0.042,-0.047,0.004,0.005,-0.09,-0.065,-0.116,-0.071,-0.127
-0.058,-0.029,0.029,0.044,-0.044,0.0,0.004,-0.089,-0.064,-0.12,-0.075,-0.124
-0.064,-0.033,0.031,0.048,-0.047,-0.001,0.008,-0.085,-0.06,-0.119,-0.075,-0.121
-0.062,-0.035,0.027,0.049,-0.044,-0.004,0.01,-0.085,-0.06,-0.122,-0.076,-0.118
-0.065,-0.04,0.025,0.052,-0.045,-0.007,0.01,-0.083,-0.06,-0.125,-0.08,-0.115
-0.062,-0.037,0.025,0.049,-0.043,-0.006,0.01,-0.079,-0.06,-0.125,-0.08,-0.116
-0.061,-0.031,0.029,0.046,-0.045,-0.001,0.01,-0.08,-0.06,-0.125,-0.078,-0.12
-0.066,-0.026,0.039,0.046,-0.052,0.006,0.01,-0.08,-0.064,-0.125,-0.074,-0.124
-0.059,-0.019,0.04,0.039,-0.049,0.01,0.007,-0.08,-0.065,-0.125,-0.075,-0.125
-0.079,-0.039,0.04,0.059,-0.06,0.0,0.005,-0.08,-0.065,-0.125,-0.075,-0.125
-0.095,-0.055,0.04,0.075,-0.067,-0.007,0.005,-0.084,-0.064,-0.124,-0.075,-0.129
-0.083,-0.043,0.04,0.063,-0.061,-0.001,0.005,-0.085,-0.067,-0.127,-0.075,-0.13
-0.074,-0.035,0.039,0.055,-0.056,0.001,0.005,-0.085,-0.08,-0.132,-0.07,-0.128
-0.063,-0.029,0.034,0.045,-0.048,0.003,0.005,-0.085,-0.078,-0.129,-0.07,-0.125
-0.052,-0.017,0.036,0.034,-0.044,0.009,0.01,-0.085,-0.073,-0.123,-0.069,-0.122
-0.074,-0.04,0.034,0.056,-0.054,-0.003,0.017,-0.083,-0.071,-0.12,-0.065,-0.12
-0.083,-0.047,0.036,0.064,-0.059,-0.005,0.022,-0.078,-0.066,-0.115,-0.065,-0.116
-0.056,-0.018,0.039,0.037,-0.047,0.01,0.029,-0.076,-0.064,-0.111,-0.063,-0.115
-0.054,0.009,0.063,0.023,-0.059,0.035,0.027,-0.072,-0.052,-0.113,-0.052,-0.109
-0.045,0.039,0.084,0.003,-0.064,0.061,0.01,-0.07,-0.04,-0.115,-0.043,-0.096
-0.014,0.039,0.053,-0.013,-0.034,0.046,-0.005,-0.075,-0.028,-0.115,-0.044,-0.085
-0.008,0.03,0.037,-0.011,-0.023,0.033,-0.023,-0.083,-0.019,-0.115,-0.047,-0.079
-0.016,0.026,0.041,-0.005,-0.029,0.033,-0.037,-0.083,-0.046,-0.115,-0.051,-0.08
-0.023,0.016,0.039,0.004,-0.031,0.027,-0.033,-0.075,-0.06,-0.116,-0.054,-0.079
-0.033,0.007,0.04,0.013,-0.037,0.023,-0.03,-0.094,-0.065,-0.122,-0.057,-0.09
-0.065,-0.025,0.04,0.045,-0.052,0.007,-0.027,-0.114,-0.093,-0.129,-0.064,-0.103
-0.083,-0.045,0.039,0.064,-0.061,-0.002,-0.022,-0.106,-0.088,-0.131,-0.07,-0.102
-0.081,-0.046,0.035,0.063,-0.058,-0.006,-0.02,-0.113,-0.092,-0.138,-0.078,-0.114
-0.076,-0.044,0.032,0.06,-0.054,-0.005,-0.015,-0.101,-0.089,-0.139,-0.081,-0.12
-0.075,-0.045,0.03,0.06,-0.052,-0.007,-0.012,-0.109,-0.089,-0.14,-0.086,-0.12
-0.072,-0.046,0.026,0.059,-0.049,-0.01,-0.008,-0.1,-0.093,-0.14,-0.089,-0.121
-0.064,-0.04,0.024,0.052,-0.044,-0.008,-0.005,-0.1,-0.084,-0.142,-0.093,-0.118
-0.082,-0.045,0.038,0.063,-0.06,-0.003,0.0,-0.104,-0.1,-0.153,-0.095,-0.123
-0.075,-0.033,0.043,0.054,-0.059,0.005,0.003,-0.09,-0.075,-0.135,-0.083,-0.116
-0.083,-0.049,0.033,0.066,-0.058,-0.008,0.016,-0.1,-0.073,-0.129,-0.083,-0.126
-0.111,-0.031,0.081,0.071,-0.096,0.025,0.106,0.163,0.195,-0.047,-0.077,-0.159
-0.012,0.157,0.17,-0.073,-0.091,0.163,0.008,-0.076,0.23,0.213,0.132,-0.011
0.313,0.764,0.451,-0.539,-0.069,0.607,-0.568,-1.047,-0.309,0.727,0.841,0.607
0.388,0.879,0.49,-0.634,-0.051,0.684,-0.857,-1.311,-0.644,0.647,0.901,0.838
0.065,0.09,0.025,-0.077,0.02,0.057,-0.489,-0.88,-0.892,-0.325,-0.06,0.199
-0.093,-0.144,-0.052,0.119,-0.02,-0.098,-0.208,-0.525,-0.689,-0.542,-0.324,-0.132
-0.095,-0.02,0.074,0.057,-0.084,0.027,-0.076,-0.244,-0.199,-0.205,-0.128,-0.101
-0.069,-0.043,0.026,0.056,-0.047,-0.009,0.004,-0.081,-0.081,-0.16,-0.13,-0.115
-0.046,-0.01,0.036,0.028,-0.041,0.013,0.014,-0.042,-0.018,-0.102,-0.087,-0.097
-0.063,-0.039,0.024,0.05,-0.043,-0.007,0.036,-0.019,-0.004,-0.104,-0.092,-0.114
-0.062,-0.036,0.026,0.049,-0.044,-0.005,0.021,-0.011,0.009,-0.094,-0.074,-0.107
-0.055,-0.034,0.021,0.044,-0.038,-0.006,0.022,-0.003,0.023,-0.085,-0.072,-0.105
-0.041,-0.021,0.02,0.031,-0.03,0.0,0.016,0.006,0.027,-0.084,-0.065,-0.097
-0.029,-0.018,0.011,0.023,-0.02,-0.003,0.011,0.014,0.045,-0.072,-0.055,-0.09
-0.029,-0.013,0.015,0.021,-0.022,0.001,0.008,0.021,0.056,-0.069,-0.054,-0.085
-0.037,-0.004,0.032,0.02,-0.034,0.014,0.004,0.037,0.089,-0.051,-0.041,-0.076
-0.023,-0.004,0.019,0.013,-0.021,0.008,0.016,0.057,0.098,-0.043,-0.034,-0.072
-0.005,0.009,0.013,-0.002,-0.01,0.011,0.014,0.074,0.127,-0.027,-0.017,-0.058
-0.011,0.006,0.017,0.002,-0.014,0.011,0.001,0.095,0.163,-0.005,-0.013,-0.038
0.012,0.036,0.024,-0.024,-0.006,0.03,-0.006,0.131,0.206,0.037,0.011,-0.009
0.045,0.058,0.012,-0.052,0.016,0.035,-0.023,0.169,0.252,0.072,0.039,0.016
0.058,0.06,0.002,-0.059,0.028,0.031,-0.048,0.203,0.301,0.117,0.073,0.05
0.107,0.099,-0.007,-0.103,0.057,0.046,-0.076,0.246,0.358,0.176,0.125,0.097
0.162,0.151,-0.011,-0.157,0.086,0.07,-0.098,0.281,0.399,0.232,0.173,0.142
0.194,0.181,-0.013,-0.187,0.103,0.084,-0.121,0.303,0.426,0.28,0.22,0.19
0.218,0.202,-0.016,-0.21,0.117,0.093,-0.153,0.29,0.413,0.283,0.246,0.212
0.225,0.222,-0.003,-0.224,0.114,0.109,-0.15,0.256,0.369,0.271,0.244,0.206
0.173,0.192,0.02,-0.183,0.076,0.106,-0.124,0.209,0.297,0.232,0.219,0.201
0.094,0.141,0.046,-0.118,0.024,0.093,-0.094,0.136,0.193,0.138,0.166,0.167
0.043,0.094,0.052,-0.068,-0.005,0.073,-0.061,0.066,0.112,0.054,0.094,0.111
0.002,0.048,0.046,-0.025,-0.022,0.047,-0.039,0.009,0.055,-0.005,0.033,0.063
-0.02,0.024,0.044,-0.002,-0.033,0.033,-0.025,-0.03,0.007,-0.056,-0.011,0.031
-0.033,0.006,0.039,0.013,-0.036,0.022,-0.016,-0.05,-0.011,-0.086,-0.042,0.015
-0.043,-0.007,0.036,0.025,-0.039,0.014,-0.009,-0.06,-0.019,-0.091,-0.047,0.008
-0.046,-0.014,0.032,0.03,-0.039,0.009,-0.002,-0.068,-0.031,-0.092,-0.055,0.005
-0.048,-0.019,0.029,0.034,-0.038,0.005,0.004,-0.074,-0.035,-0.103,-0.058,0.002
-0.049,-0.024,0.024,0.036,-0.036,0.0,0.006,-0.075,-0.035,-0.106,-0.054,-0.003
-0.06,-0.037,0.023,0.049,-0.041,-0.007,0.009,-0.075,-0.035,-0.104,-0.056,-0.005
-0.056,-0.04,0.016,0.047,-0.036,-0.012,0.012,-0.075,-0.035,-0.105,-0.051,0.0
-0.051,-0.034,0.017,0.042,-0.034,-0.009,0.015,-0.074,-0.035,-0.105,-0.05,0.0
-0.067,-0.032,0.034,0.049,-0.05,0.001,0.015,-0.07,-0.034,-0.104,-0.049,0.001
-0.06,-0.027,0.033,0.044,-0.047,0.003,0.015,-0.07,-0.029,-0.099,-0.046,0.006
-0.053,-0.024,0.029,0.039,-0.04,0.002,0.015,-0.068,-0.024,-0.096,-0.043,0.004
-0.047,-0.021,0.026,0.033,-0.036,0.002,0.015,-0.064,-0.02,-0.093,-0.04,0.007
-0.038,-0.016,0.021,0.027,-0.029,0.002,0.015,-0.066,-0.015,-0.088,-0.037,0.014
-0.032,-0.013,0.019,0.023,-0.025,0.002,0.015,-0.061,-0.01,-0.085,-0.035,0.019
-0.025,-0.01,0.015,0.017,-0.02,0.002,0.012,-0.06,-0.013,-0.089,-0.033,0.022
-0.019,-0.004,0.015,0.011,-0.017,0.005,0.009,-0.06,-0.018,-0.09,-0.03,0.026
-0.027,-0.012,0.015,0.019,-0.02,0.001,0.006,-0.055,-0.021,-0.09,-0.03,0.03
-0.037,-0.022,0.015,0.029,-0.026,-0.003,0.003,-0.055,-0.024,-0.09,-0.03,0.028
-0.033,-0.018,0.015,0.025,-0.023,-0.001,0.0,-0.056,-0.029,-0.09,-0.03,0.025
-0.035,-0.015,0.02,0.025,-0.027,0.002,0.001,-0.061,-0.029,-0.089,-0.03,0.025
-0.039,-0.013,0.026,0.025,-0.032,0.006,0.005,-0.064,-0.025,-0.085,-0.025,0.025
-0.033,-0.009,0.025,0.021,-0.029,0.007,0.007,-0.069,-0.025,-0.085,-0.025,0.025
-0.039,-0.014,0.025,0.026,-0.032,0.005,0.01,-0.075,-0.022,-0.085,-0.023,0.026
-0.057,-0.032,0.025,0.044,-0.041,-0.004,0.013,-0.075,-0.02,-0.085,-0.02,0.029
-0.066,-0.041,0.025,0.053,-0.046,-0.007,0.016,-0.075,-0.019,-0.085,-0.02,0.03
-0.063,-0.04,0.024,0.051,-0.043,-0.008,0.011,-0.075,-0.031,-0.089,-0.02,0.03
-0.06,-0.04,0.02,0.05,-0.04,-0.01,0.01,-0.075,-0.042,-0.09,-0.019,0.03
-0.058,-0.04,0.018,0.049,-0.038,-0.011,0.01,-0.075,-0.039,-0.091,-0.021,0.03
-0.054,-0.039,0.015,0.046,-0.034,-0.012,0.005,-0.075,-0.043,-0.096,-0.033,0.027
-0.055,-0.043,0.012,0.049,-0.033,-0.015,0.005,-0.075,-0.045,-0.1,-0.036,0.025
-0.053,-0.044,0.009,0.049,-0.031,-0.017,0.004,-0.075,-0.045,-0.105,-0.034,0.025
-0.055,-0.047,0.007,0.051,-0.03,-0.02,0.0,-0.075,-0.042,-0.101,-0.035,0.021
-0.06,-0.058,0.002,0.059,-0.031,-0.028,0.0,-0.075,-0.039,-0.099,-0.035,0.019
-0.054,-0.053,0.001,0.053,-0.027,-0.026,0.0,-0.074,-0.041,-0.1,-0.035,0.021
-0.056,-0.045,0.01,0.05,-0.033,-0.017,0.0,-0.07,-0.039,-0.095,-0.035,0.024
-0.052,-0.039,0.013,0.045,-0.032,-0.013,0.0,-0.07,-0.041,-0.095,-0.035,0.025
-0.041,-0.035,0.007,0.038,-0.024,-0.014,0.003,-0.067,-0.038,-0.094,-0.035,0.025
-0.04,-0.035,0.005,0.037,-0.022,-0.015,0.006,-0.065,-0.035,-0.09,-0.035,0.025
-0.036,-0.036,0.0,0.036,-0.018,-0.017,0.004,-0.065,-0.035,-0.09,-0.035,0.024
-0.03,-0.033,-0.004,0.032,-0.013,-0.018,0.007,-0.069,-0.035,-0.09,-0.032,0.028
-0.038,-0.043,-0.005,0.041,-0.016,-0.024,0.006,-0.07,-0.035,-0.09,-0.029,0.03
-0.048,-0.065,-0.017,0.057,-0.015,-0.041,0.005,-0.07,-0.035,-0.09,-0.03,0.03
-0.045,-0.064,-0.019,0.054,-0.012,-0.041,0.005,-0.074,-0.039,-0.09,-0.026,0.035
-0.048,-0.06,-0.011,0.054,-0.018,-0.035,0.001,-0.075,-0.04,-0.09,-0.025,0.043
-0.048,-0.057,-0.009,0.052,-0.019,-0.033,-0.001,-0.074,-0.04,-0.09,-0.025,0.045
-0.051,-0.054,-0.004,0.053,-0.023,-0.029,0.001,-0.069,-0.04,-0.09,-0.02,0.045
-0.056,-0.056,0.001,0.056,-0.028,-0.027,0.007,-0.071,-0.04,-0.09,-0.02,0.045
-0.046,-0.054,-0.008,0.051,-0.019,-0.031,0.015,-0.067,-0.039,-0.089,-0.02,0.045
-0.04,-0.056,-0.015,0.048,-0.012,-0.035,0.02,-0.065,-0.034,-0.082,-0.02,0.044
-0.034,-0.054,-0.02,0.044,-0.007,-0.037,0.028,-0.066,-0.03,-0.078,-0.02,0.041
-0.051,-0.057,-0.006,0.054,-0.022,-0.031,0.034,-0.058,-0.025,-0.073,-0.018,0.039
-0.035,-0.041,-0.006,0.038,-0.014,-0.023,0.031,-0.045,-0.021,-0.066,-0.008,0.042
0.007,0.0,-0.007,-0.003,0.007,-0.004,0.02,-0.035,-0.008,-0.061,0.003,0.063
0.005,0.029,0.024,-0.018,-0.01,0.027,0.01,-0.035,0.013,-0.059,0.012,0.078
0.04,0.028,-0.011,-0.034,0.025,0.008,-0.001,-0.006,0.049,-0.061,0.028,0.084
0.067,0.021,-0.046,-0.044,0.056,-0.013,-0.026,-0.023,0.046,-0.058,0.029,0.089
0.046,0.011,-0.035,-0.029,0.041,-0.012,-0.037,-0.073,-0.01,-0.064,0.017,0.08
0.013,-0.024,-0.038,0.006,0.026,-0.031,-0.029,-0.056,-0.024,-0.073,0.008,0.074
-0.016,-0.044,-0.028,0.03,0.007,-0.036,-0.025,-0.073,-0.031,-0.08,-0.002,0.066
-0.016,-0.053,-0.036,0.034,0.01,-0.044,-0.018,-0.086,-0.046,-0.09,-0.009,0.058
-0.009,-0.061,-0.051,0.035,0.021,-0.056,-0.015,-0.083,-0.043,-0.09,-0.015,0.053
-0.034,-0.069,-0.035,0.052,0.001,-0.051,-0.013,-0.092,-0.054,-0.097,-0.023,0.047
-0.064,-0.08,-0.016,0.072,-0.024,-0.047,-0.009,-0.085,-0.052,-0.093,-0.028,0.047
-0.067,-0.083,-0.016,0.075,-0.026,-0.049,-0.007,-0.099,-0.06,-0.097,-0.036,0.04
-0.084,-0.076,0.008,0.08,-0.046,-0.033,-0.004,-0.086,-0.05,-0.089,-0.029,0.039
-0.063,-0.085,-0.021,0.074,-0.021,-0.053,-0.003,-0.107,-0.063,-0.092,-0.029,0.033
-0.041,-0.076,-0.035,0.059,-0.003,-0.055,0.004,-0.068,-0.043,-0.089,-0.026,0.029
-0.053,-0.076,-0.023,0.065,-0.015,-0.049,0.006,-0.104,-0.042,-0.082,-0.019,0.019
-0.041,-0.06,-0.019,0.051,-0.011,-0.04,0.064,0.02,0.045,-0.066,-0.029,0.001
-0.037,0.016,0.053,0.01,-0.045,0.034,0.119,0.178,0.325,0.104,0.038,0.045
0.194,0.429,0.235,-0.311,-0.021,0.331,-0.275,-0.672,0.022,0.514,0.533,0.454
0.483,0.964,0.481,-0.724,0.001,0.722,-0.851,-1.451,-0.426,0.874,1.101,1.039
0.302,0.468,0.166,-0.385,0.068,0.317,-0.748,-1.175,-0.669,0.235,0.514,0.731
0.002,-0.167,-0.169,0.083,0.085,-0.167,-0.333,-0.722,-0.805,-0.503,-0.238,0.118
-0.082,-0.084,-0.002,0.083,-0.039,-0.043,-0.141,-0.368,-0.36,-0.279,-0.126,0.085
-0.064,-0.069,-0.004,0.066,-0.029,-0.036,-0.032,-0.114,-0.072,-0.125,-0.057,0.08
-0.031,-0.068,-0.038,0.05,0.004,-0.053,0.009,-0.036,-0.035,-0.113,-0.048,0.07
-0.036,-0.067,-0.031,0.052,-0.003,-0.048,0.025,-0.007,0.021,-0.065,-0.026,0.076
-0.031,-0.071,-0.04,0.051,0.005,-0.055,0.042,0.018,0.012,-0.08,-0.036,0.059
-0.028,-0.057,-0.029,0.043,0.001,-0.043,0.045,0.033,0.048,-0.054,-0.013,0.075
-0.007,-0.064,-0.057,0.036,0.025,-0.06,0.042,0.031,0.045,-0.06,-0.02,0.075
0.002,-0.051,-0.053,0.025,0.028,-0.052,0.038,0.033,0.063,-0.044,-0.003,0.083
0.001,-0.055,-0.056,0.027,0.029,-0.055,0.037,0.043,0.068,-0.039,-0.005,0.078
0.003,-0.047,-0.05,0.022,0.027,-0.048,0.034,0.064,0.089,-0.027,0.003,0.081
0.004,-0.046,-0.05,0.021,0.027,-0.047,0.031,0.082,0.114,-0.017,0.009,0.08
0.009,-0.042,-0.051,0.017,0.03,-0.046,0.025,0.095,0.121,-0.004,0.012,0.078
-0.008,-0.038,-0.03,0.023,0.011,-0.034,0.022,0.121,0.16,0.019,0.024,0.095
0.025,-0.024,-0.049,0.0,0.037,-0.036,0.016,0.155,0.195,0.037,0.04,0.113
0.054,0.002,-0.052,-0.027,0.053,-0.025,0.012,0.194,0.235,0.07,0.064,0.123
0.071,0.024,-0.047,-0.047,0.059,-0.011,-0.009,0.234,0.281,0.113,0.094,0.142
0.123,0.049,-0.074,-0.085,0.098,-0.012,-0.049,0.282,0.331,0.165,0.135,0.172
0.158,0.088,-0.07,-0.123,0.114,0.009,-0.073,0.325,0.376,0.221,0.186,0.218
0.191,0.129,-0.062,-0.16,0.126,0.033,-0.101,0.341,0.396,0.268,0.23,0.262
0.226,0.169,-0.056,-0.197,0.141,0.056,-0.137,0.341,0.393,0.298,0.271,0.293
0.232,0.184,-0.048,-0.208,0.14,0.068,-0.146,0.336,0.387,0.309,0.302,0.317
0.218,0.174,-0.044,-0.196,0.131,0.065,-0.138,0.292,0.336,0.284,0.289,0.314
0.188,0.149,-0.038,-0.168,0.113,0.055,-0.123,0.214,0.241,0.217,0.245,0.28
0.13,0.096,-0.034,-0.112,0.082,0.031,-0.092,0.137,0.158,0.136,0.182,0.232
0.069,0.04,-0.029,-0.054,0.049,0.005,-0.049,0.075,0.094,0.063,0.117,0.183
0.025,-0.001,-0.026,-0.012,0.025,-0.013,-0.014,0.027,0.053,0.004,0.064,0.139
-0.005,-0.024,-0.019,0.014,0.008,-0.021,-0.002,-0.015,0.028,-0.025,0.029,0.105
-0.014,-0.046,-0.033,0.03,0.01,-0.039,0.0,-0.028,0.017,-0.035,0.019,0.095
-0.018,-0.053,-0.035,0.036,0.009,-0.044,0.006,-0.034,0.013,-0.045,0.013,0.092
-0.022,-0.058,-0.036,0.041,0.008,-0.047,0.008,-0.036,0.006,-0.051,0.005,0.085
-0.009,-0.067,-0.058,0.038,0.025,-0.062,0.022,-0.032,0.001,-0.054,-0.003,0.08
-0.002,-0.063,-0.061,0.033,0.03,-0.061,0.032,-0.045,-0.004,-0.059,-0.009,0.075
-0.007,-0.067,-0.06,0.037,0.027,-0.063,0.026,-0.052,-0.008,-0.066,-0.006,0.08
-0.003,-0.063,-0.06,0.033,0.029,-0.061,0.022,-0.049,-0.011,-0.069,-0.005,0.08
-0.003,-0.063,-0.06,0.033,0.029,-0.061,0.018,-0.047,-0.014,-0.064,-0.004,0.083
-0.016,-0.075,-0.059,0.046,0.022,-0.067,0.012,-0.045,-0.019,-0.059,0.0,0.102
-0.019,-0.072,-0.053,0.046,0.017,-0.062,0.011,-0.045,-0.019,-0.055,0.0,0.106
-0.023,-0.068,-0.045,0.046,0.011,-0.056,0.015,-0.041,-0.014,-0.05,-0.002,0.101
-0.025,-0.065,-0.04,0.045,0.008,-0.052,0.015,-0.036,-0.011,-0.046,-0.007,0.1
-0.028,-0.06,-0.032,0.045,0.002,-0.046,0.014,-0.034,-0.008,-0.041,-0.01,0.095
-0.032,-0.058,-0.026,0.045,-0.003,-0.042,0.016,-0.029,-0.003,-0.04,-0.013,0.095
-0.011,-0.055,-0.044,0.033,0.017,-0.049,0.013,-0.026,0.0,-0.04,-0.018,0.1
-0.004,-0.055,-0.051,0.03,0.024,-0.053,0.02,-0.027,-0.004,-0.04,-0.02,0.1
-0.012,-0.055,-0.043,0.034,0.016,-0.049,0.031,-0.031,-0.006,-0.04,-0.015,0.1
-0.012,-0.055,-0.043,0.033,0.016,-0.048,0.03,-0.033,-0.005,-0.041,-0.015,0.1
-0.019,-0.056,-0.036,0.038,0.009,-0.046,0.029,-0.036,-0.01,-0.046,-0.014,0.1
-0.023,-0.059,-0.036,0.042,0.006,-0.047,0.025,-0.04,-0.01,-0.049,-0.01,0.1
-0.023,-0.063,-0.04,0.043,0.008,-0.051,0.025,-0.038,-0.011,-0.055,-0.01,0.1
-0.026,-0.066,-0.04,0.046,0.008,-0.052,0.023,-0.051,-0.027,-0.066,-0.012,0.1
-0.029,-0.069,-0.04,0.049,0.006,-0.055,0.019,-0.067,-0.036,-0.07,-0.015,0.1
-0.033,-0.073,-0.039,0.053,0.003,-0.056,0.02,-0.064,-0.037,-0.072,-0.015,0.1
-0.034,-0.075,-0.041,0.055,0.004,-0.057,0.016,-0.065,-0.041,-0.075,-0.015,0.099
-0.036,-0.075,-0.039,0.056,0.002,-0.057,0.015,-0.065,-0.043,-0.078,-0.015,0.095
-0.032,-0.074,-0.042,0.053,0.006,-0.058,0.015,-0.065,-0.046,-0.081,-0.015,0.091
-0.023,-0.077,-0.054,0.05,0.016,-0.065,0.015,-0.062,-0.041,-0.076,-0.021,0.089
-0.015,-0.071,-0.056,0.044,0.021,-0.064,0.015,-0.059,-0.04,-0.075,-0.023,0.084
-0.025,-0.079,-0.053,0.052,0.014,-0.066,0.015,-0.061,-0.04,-0.075,-0.019,0.08
-0.04,-0.091,-0.052,0.066,0.006,-0.072,0.015,-0.059,-0.04,-0.07,-0.02,0.08
-0.037,-0.085,-0.048,0.061,0.006,-0.066,0.016,-0.061,-0.04,-0.07,-0.016,0.08
-0.03,-0.083,-0.052,0.057,0.011,-0.067,0.012,-0.058,-0.041,-0.069,-0.015,0.08
-0.017,-0.079,-0.062,0.048,0.023,-0.07,0.01,-0.055,-0.045,-0.061,-0.015,0.08
-0.015,-0.074,-0.059,0.045,0.023,-0.067,0.01,-0.055,-0.045,-0.067,-0.015,0.08
-0.031,-0.079,-0.049,0.055,0.009,-0.064,0.007,-0.055,-0.045,-0.071,-0.015,0.08
-0.031,-0.08,-0.049,0.056,0.009,-0.064,0.004,-0.055,-0.045,-0.07,-0.015,0.085
-0.016,-0.08,-0.064,0.049,0.024,-0.072,0.005,-0.055,-0.045,-0.069,-0.015,0.085
-0.019,-0.079,-0.061,0.049,0.021,-0.07,0.011,-0.059,-0.049,-0.065,-0.015,0.086
-0.027,-0.081,-0.053,0.054,0.013,-0.067,0.016,-0.06,-0.05,-0.065,-0.018,0.09
-0.029,-0.078,-0.049,0.054,0.01,-0.064,0.023,-0.062,-0.05,-0.068,-0.02,0.089
-0.031,-0.075,-0.044,0.053,0.007,-0.059,0.023,-0.065,-0.05,-0.07,-0.02,0.092
-0.025,-0.075,-0.051,0.05,0.014,-0.063,0.019,-0.065,-0.049,-0.07,-0.02,0.095
-0.031,-0.072,-0.041,0.052,0.006,-0.057,0.02,-0.065,-0.051,-0.07,-0.02,0.095
-0.027,-0.07,-0.043,0.049,0.008,-0.056,0.02,-0.065,-0.055,-0.07,-0.021,0.095
-0.008,-0.069,-0.061,0.038,0.027,-0.064,0.02,-0.065,-0.055,-0.069,-0.024,0.094
-0.036,-0.079,-0.043,0.058,0.004,-0.061,0.02,-0.065,-0.055,-0.066,-0.026,0.096
-0.06,-0.084,-0.024,0.072,-0.017,-0.054,0.024,-0.065,-0.055,-0.065,-0.024,0.099
-0.037,-0.075,-0.038,0.056,0.0,-0.056,0.027,-0.062,-0.055,-0.065,-0.026,0.101
-0.009,-0.07,-0.06,0.039,0.026,-0.065,0.031,-0.056,-0.05,-0.064,-0.024,0.099
-0.005,-0.062,-0.057,0.034,0.026,-0.059,0.034,-0.052,-0.04,-0.066,-0.028,0.1
-0.007,-0.057,-0.051,0.032,0.022,-0.054,0.038,-0.049,-0.033,-0.061,-0.036,0.099
0.008,-0.043,-0.051,0.017,0.03,-0.047,0.047,-0.039,-0.022,-0.05,-0.018,0.099
-0.004,-0.014,-0.009,0.009,0.003,-0.012,0.044,-0.03,-0.004,-0.037,-0.001,0.112
0.027,0.003,-0.024,-0.014,0.025,-0.01,0.032,-0.001,0.023,-0.029,0.012,0.128
0.074,-0.004,-0.078,-0.035,0.076,-0.041,0.023,0.003,0.022,-0.015,0.023,0.138
0.057,-0.017,-0.073,-0.02,0.066,-0.045,0.019,-0.048,-0.019,-0.017,0.016,0.135
0.018,-0.053,-0.07,0.017,0.044,-0.061,0.02,-0.069,-0.04,-0.049,0.008,0.126
-0.012,-0.081,-0.07,0.047,0.029,-0.075,0.02,-0.079,-0.05,-0.062,0.0,0.117
-0.02,-0.083,-0.064,0.052,0.022,-0.073,0.02,-0.076,-0.062,-0.059,-0.008,0.109
-0.031,-0.096,-0.065,0.064,0.017,-0.081,0.021,-0.084,-0.069,-0.059,-0.014,0.104
-0.047,-0.104,-0.056,0.076,0.005,-0.08,0.024,-0.083,-0.073,-0.066,-0.026,0.098
-0.05,-0.115,-0.065,0.083,0.008,-0.089,0.027,-0.087,-0.075,-0.07,-0.032,0.095
-0.036,-0.128,-0.091,0.082,0.028,-0.109,0.03,-0.102,-0.093,-0.067,-0.03,0.088
-0.046,-0.133,-0.087,0.089,0.02,-0.11,0.032,-0.084,-0.075,-0.057,-0.018,0.087
-0.055,-0.147,-0.092,0.101,0.019,-0.12,0.039,-0.095,-0.076,-0.06,-0.018,0.079
-0.054,-0.133,-0.079,0.094,0.013,-0.105,0.045,-0.051,-0.057,-0.048,-0.004,0.077
-0.057,-0.146,-0.089,0.102,0.016,-0.117,0.047,-0.074,-0.058,-0.046,-0.002,0.069
-0.064,-0.139,-0.075,0.102,0.005,-0.107,0.13,0.158,0.135,0.007,0.003,0.055
-0.01,-0.012,-0.002,0.011,-0.004,-0.007,0.115,0.102,0.334,0.22,0.153,0.149
0.3,0.509,0.209,-0.405,0.046,0.359,-0.404,-0.997,-0.112,0.637,0.731,0.676
0.495,0.834,0.339,-0.664,0.078,0.586,-0.845,-1.552,-0.501,0.779,1.042,1.098
0.198,0.141,-0.057,-0.169,0.127,0.042,-0.59,-1.117,-0.727,-0.005,0.252,0.556
-0.061,-0.27,-0.209,0.166,0.075,-0.24,-0.225,-0.658,-0.716,-0.465,-0.236,0.08
-0.064,-0.133,-0.069,0.099,0.003,-0.101,-0.05,-0.27,-0.24,-0.157,-0.057,0.116
-0.066,-0.171,-0.105,0.119,0.02,-0.137,0.032,-0.063,-0.07,-0.08,-0.049,0.091
-0.063,-0.152,-0.089,0.108,0.013,-0.12,0.059,-0.009,-0.03,-0.054,-0.019,0.104
-0.061,-0.158,-0.097,0.11,0.018,-0.127,0.094,0.018,0.018,-0.031,-0.01,0.099
-0.054,-0.15,-0.096,0.103,0.021,-0.123,0.094,0.023,0.017,-0.036,-0.003,0.098
-0.029,-0.143,-0.114,0.086,0.043,-0.128,0.095,0.045,0.046,-0.018,0.011,0.109
-0.021,-0.145,-0.124,0.083,0.052,-0.135,0.095,0.059,0.039,-0.024,0.011,0.109
-0.016,-0.132,-0.116,0.074,0.05,-0.124,0.094,0.073,0.058,-0.009,0.027,0.119
-0.011,-0.139,-0.128,0.076,0.059,-0.134,0.096,0.088,0.067,-0.004,0.025,0.112
-0.009,-0.131,-0.122,0.071,0.057,-0.127,0.09,0.102,0.086,0.016,0.033,0.118
-0.004,-0.131,-0.127,0.068,0.061,-0.128,0.084,0.117,0.105,0.024,0.029,0.121
0.0,-0.124,-0.124,0.063,0.062,-0.124,0.077,0.136,0.118,0.037,0.04,0.127
0.005,-0.121,-0.126,0.059,0.065,-0.123,0.071,0.158,0.148,0.057,0.062,0.133
0.015,-0.11,-0.124,0.048,0.07,-0.117,0.064,0.187,0.181,0.076,0.075,0.145
0.041,-0.085,-0.126,0.022,0.084,-0.105,0.058,0.226,0.217,0.104,0.086,0.17
0.077,-0.063,-0.141,-0.007,0.109,-0.102,0.044,0.269,0.259,0.151,0.119,0.193
0.106,-0.035,-0.141,-0.035,0.124,-0.088,0.017,0.321,0.305,0.203,0.163,0.227
0.142,0.003,-0.139,-0.072,0.14,-0.068,-0.012,0.361,0.349,0.25,0.206,0.275
0.18,0.04,-0.14,-0.11,0.16,-0.05,-0.04,0.364,0.356,0.298,0.262,0.316
0.209,0.07,-0.139,-0.139,0.174,-0.035,-0.065,0.358,0.35,0.322,0.295,0.349
0.229,0.088,-0.141,-0.159,0.184,-0.026,-0.065,0.346,0.341,0.317,0.297,0.363
0.215,0.077,-0.137,-0.146,0.176,-0.03,-0.05,0.293,0.285,0.281,0.292,0.355
0.16,0.033,-0.128,-0.096,0.144,-0.047,-0.033,0.225,0.204,0.227,0.244,0.323
0.107,-0.011,-0.118,-0.048,0.112,-0.064,0.003,0.159,0.137,0.163,0.176,0.267
0.062,-0.058,-0.12,-0.002,0.091,-0.089,0.041,0.1,0.088,0.094,0.119,0.205
0.01,-0.11,-0.12,0.05,0.065,-0.115,0.072,0.057,0.058,0.045,0.065,0.161
-0.012,-0.133,-0.12,0.072,0.054,-0.126,0.091,0.028,0.043,0.017,0.036,0.142
-0.036,-0.156,-0.119,0.096,0.042,-0.137,0.099,0.019,0.03,0.002,0.03,0.132
-0.051,-0.173,-0.121,0.112,0.035,-0.147,0.1,0.017,0.023,-0.003,0.025,0.119
-0.026,-0.168,-0.142,0.098,0.058,-0.155,0.1,0.013,0.019,-0.009,0.019,0.111
-0.031,-0.177,-0.146,0.105,0.057,-0.161,0.1,0.011,0.014,-0.014,0.014,0.11
-0.047,-0.191,-0.145,0.12,0.049,-0.168,0.1,0.006,0.01,-0.021,0.009,0.11
-0.046,-0.196,-0.15,0.121,0.053,-0.172,0.1,0.0,0.005,-0.024,0.005,0.11
-0.045,-0.195,-0.15,0.12,0.053,-0.172,0.102,-0.005,0.009,-0.021,0.005,0.109
-0.042,-0.191,-0.149,0.117,0.053,-0.17,0.105,-0.01,0.01,-0.018,0.003,0.111
-0.045,-0.19,-0.144,0.118,0.05,-0.167,0.108,-0.017,0.01,-0.015,-0.001,0.115
-0.044,-0.189,-0.145,0.117,0.051,-0.167,0.111,-0.019,0.015,-0.013,0.0,0.115
-0.043,-0.186,-0.142,0.115,0.05,-0.164,0.114,-0.013,0.014,-0.008,0.0,0.115
-0.044,-0.183,-0.139,0.113,0.048,-0.161,0.115,-0.008,0.016,-0.018,0.0,0.115
-0.04,-0.18,-0.14,0.11,0.05,-0.16,0.116,-0.003,0.02,-0.026,0.0,0.115
-0.041,-0.177,-0.136,0.109,0.048,-0.157,0.12,0.004,0.022,-0.017,0.0,0.111
-0.044,-0.175,-0.131,0.11,0.044,-0.153,0.12,0.009,0.026,-0.011,0.0,0.109
-0.046,-0.172,-0.127,0.109,0.041,-0.149,0.118,0.006,0.021,-0.004,-0.002,0.11
-0.048,-0.17,-0.122,0.109,0.037,-0.146,0.113,0.005,0.02,0.003,-0.005,0.11
-0.049,-0.166,-0.118,0.108,0.035,-0.142,0.11,0.005,0.02,0.003,-0.008,0.11
-0.05,-0.164,-0.114,0.108,0.032,-0.139,0.107,0.0,0.015,-0.002,-0.01,0.111
-0.045,-0.16,-0.116,0.103,0.035,-0.137,0.102,0.0,0.015,-0.005,-0.014,0.116
-0.045,-0.16,-0.115,0.103,0.035,-0.137,0.099,-0.001,0.014,-0.008,-0.015,0.12
-0.054,-0.168,-0.114,0.111,0.03,-0.141,0.096,-0.005,0.01,-0.013,-0.018,0.117
-0.036,-0.171,-0.134,0.104,0.049,-0.152,0.093,-0.007,0.008,-0.015,-0.021,0.114
-0.031,-0.169,-0.138,0.1,0.053,-0.153,0.09,-0.011,0.005,-0.015,-0.02,0.115
-0.043,-0.171,-0.128,0.107,0.043,-0.149,0.087,-0.013,0.001,-0.015,-0.02,0.115
-0.046,-0.169,-0.123,0.108,0.038,-0.146,0.085,-0.016,0.0,-0.015,-0.02,0.115
-0.056,-0.172,-0.116,0.114,0.03,-0.144,0.082,-0.015,-0.004,-0.015,-0.021,0.114
-0.056,-0.175,-0.119,0.115,0.032,-0.146,0.08,-0.015,-0.005,-0.015,-0.025,0.11
-0.053,-0.175,-0.121,0.114,0.035,-0.148,0.079,-0.015,-0.005,-0.015,-0.025,0.11
-0.062,-0.187,-0.125,0.125,0.032,-0.156,0.095,-0.013,-0.009,-0.015,-0.025,0.107
-0.066,-0.189,-0.123,0.128,0.029,-0.155,0.111,-0.026,-0.011,-0.015,-0.025,0.104
-0.063,-0.182,-0.119,0.122,0.028,-0.15,0.11,-0.031,-0.009,-0.015,-0.025,0.105
-0.058,-0.179,-0.121,0.119,0.031,-0.15,0.11,-0.026,-0.005,-0.015,-0.029,0.101
-0.054,-0.173,-0.119,0.114,0.033,-0.146,0.11,-0.024,-0.005,-0.015,-0.03,0.1
-0.049,-0.169,-0.121,0.109,0.036,-0.145,0.11,-0.021,-0.003,-0.01,-0.03,0.099
-0.046,-0.165,-0.119,0.106,0.037,-0.142,0.108,-0.019,0.001,-0.01,-0.035,0.096
-0.045,-0.16,-0.115,0.103,0.036,-0.137,0.105,-0.016,0.0,-0.01,-0.035,0.094
-0.045,-0.155,-0.11,0.1,0.033,-0.132,0.101,-0.013,0.004,-0.01,-0.035,0.096
-0.047,-0.153,-0.105,0.1,0.029,-0.128,0.099,-0.011,0.005,-0.01,-0.035,0.1
-0.041,-0.143,-0.102,0.093,0.031,-0.122,0.095,-0.007,0.005,-0.008,-0.035,0.1
-0.066,-0.16,-0.094,0.114,0.015,-0.127,0.096,-0.005,0.005,-0.003,-0.035,0.104
-0.085,-0.193,-0.108,0.14,0.011,-0.151,0.106,-0.007,0.006,-0.008,-0.035,0.105
-0.066,-0.189,-0.123,0.128,0.028,-0.156,0.105,-0.011,0.003,-0.024,-0.035,0.101
-0.062,-0.18,-0.118,0.121,0.028,-0.149,0.105,-0.014,0.0,-0.026,-0.031,0.099
-0.059,-0.175,-0.116,0.118,0.029,-0.146,0.101,-0.018,0.0,-0.025,-0.03,0.095
-0.057,-0.171,-0.114,0.114,0.029,-0.142,0.1,-0.02,0.0,-0.025,-0.03,0.094
-0.057,-0.169,-0.112,0.113,0.027,-0.14,0.099,-0.015,0.0,-0.025,-0.03,0.089
-0.055,-0.164,-0.109,0.109,0.028,-0.136,0.095,-0.008,0.0,-0.024,-0.03,0.09
-0.056,-0.161,-0.105,0.109,0.025,-0.133,0.095,-0.005,0.01,-0.02,-0.029,0.09
-0.052,-0.157,-0.105,0.105,0.027,-0.131,0.093,0.004,0.017,-0.017,-0.025,0.089
-0.048,-0.153,-0.105,0.101,0.029,-0.128,0.106,0.007,0.015,-0.013,-0.025,0.098
-0.021,-0.127,-0.105,0.074,0.042,-0.116,0.115,0.014,0.014,-0.011,-0.026,0.099
0.005,-0.104,-0.108,0.05,0.057,-0.106,0.128,0.027,0.026,0.002,-0.014,0.118
0.007,-0.104,-0.111,0.049,0.059,-0.107,0.113,0.035,0.056,0.026,0.014,0.138
0.007,-0.107,-0.114,0.05,0.061,-0.11,0.083,0.054,0.079,0.047,0.036,0.145
0.008,-0.109,-0.117,0.051,0.062,-0.113,0.086,0.023,0.054,0.037,0.023,0.145
0.008,-0.112,-0.12,0.052,0.064,-0.116,0.084,-0.006,0.018,0.013,0.003,0.131
-0.007,-0.126,-0.119,0.067,0.056,-0.122,0.081,-0.011,0.014,0.006,-0.007,0.12
-0.027,-0.14,-0.113,0.083,0.044,-0.126,0.079,-0.027,0.002,-0.006,-0.02,0.11
-0.047,-0.151,-0.104,0.099,0.029,-0.128,0.082,-0.035,-0.002,-0.011,-0.029,0.102
-0.063,-0.164,-0.101,0.114,0.019,-0.133,0.086,-0.05,-0.013,-0.021,-0.042,0.093
-0.071,-0.16,-0.09,0.116,0.01,-0.125,0.085,-0.039,-0.024,-0.024,-0.04,0.09
-0.074,-0.163,-0.089,0.119,0.007,-0.126,0.084,-0.052,-0.035,-0.034,-0.041,0.082
-0.073,-0.154,-0.082,0.114,0.005,-0.118,0.081,-0.037,-0.024,-0.039,-0.039,0.081
-0.059,-0.157,-0.098,0.108,0.02,-0.127,0.078,-0.054,-0.022,-0.035,-0.041,0.074
-0.06,-0.152,-0.091,0.106,0.016,-0.121,0.083,-0.033,-0.021,-0.032,-0.041,0.07
-0.064,-0.146,-0.082,0.105,0.009,-0.114,0.09,-0.04,-0.004,-0.017,-0.035,0.065
-0.053,-0.161,-0.108,0.107,0.028,-0.134,0.128,0.033,0.042,-0.009,-0.043,0.04
-0.076,-0.125,-0.048,0.101,-0.014,-0.086,0.211,0.322,0.347,0.138,0.012,0.049
0.144,0.203,0.059,-0.174,0.043,0.131,-0.069,-0.363,0.204,0.456,0.38,0.359
0.471,0.796,0.325,-0.634,0.073,0.561,-0.662,-1.436,-0.341,0.782,0.964,0.974
0.299,0.496,0.197,-0.398,0.051,0.346,-0.689,-1.381,-0.626,0.374,0.598,0.822
-0.039,-0.212,-0.172,0.126,0.067,-0.192,-0.311,-0.865,-0.781,-0.379,-0.206,0.144
-0.097,-0.197,-0.1,0.147,0.002,-0.148,-0.098,-0.423,-0.429,-0.283,-0.184,0.051
-0.068,-0.149,-0.081,0.109,0.006,-0.115,0.02,-0.109,-0.074,-0.062,-0.062,0.093
-0.063,-0.152,-0.089,0.108,0.014,-0.12,0.062,-0.017,-0.035,-0.054,-0.065,0.077
-0.069,-0.136,-0.067,0.103,-0.001,-0.101,0.083,0.033,0.03,-0.006,-0.039,0.092
-0.075,-0.154,-0.079,0.115,0.003,-0.116,0.088,0.061,0.036,-0.02,-0.052,0.079
-0.081,-0.137,-0.056,0.11,-0.012,-0.096,0.079,0.069,0.066,0.006,-0.034,0.089
-0.074,-0.151,-0.077,0.113,0.002,-0.114,0.081,0.081,0.068,0.006,-0.039,0.084
-0.057,-0.14,-0.083,0.099,0.013,-0.111,0.072,0.088,0.074,0.017,-0.028,0.092
-0.053,-0.14,-0.087,0.097,0.017,-0.113,0.072,0.098,0.087,0.023,-0.026,0.089
-0.047,-0.131,-0.084,0.09,0.019,-0.107,0.067,0.116,0.098,0.028,-0.015,0.094
-0.042,-0.127,-0.085,0.085,0.022,-0.106,0.061,0.133,0.122,0.038,-0.004,0.096
-0.037,-0.121,-0.085,0.079,0.024,-0.103,0.054,0.147,0.128,0.042,0.004,0.094
-0.027,-0.116,-0.089,0.072,0.031,-0.102,0.047,0.174,0.158,0.069,0.02,0.101
0.008,-0.104,-0.111,0.048,0.06,-0.107,0.042,0.2,0.186,0.094,0.034,0.107
0.045,-0.071,-0.116,0.014,0.08,-0.093,0.034,0.224,0.214,0.115,0.045,0.117
0.071,-0.043,-0.114,-0.014,0.093,-0.078,0.027,0.27,0.254,0.146,0.074,0.134
0.103,-0.012,-0.116,-0.045,0.11,-0.064,0.007,0.31,0.292,0.187,0.109,0.164
0.133,0.018,-0.115,-0.075,0.123,-0.048,-0.028,0.353,0.328,0.239,0.155,0.202
0.171,0.055,-0.115,-0.112,0.143,-0.03,-0.06,0.385,0.344,0.283,0.204,0.237
0.202,0.092,-0.11,-0.147,0.156,-0.009,-0.096,0.386,0.353,0.313,0.24,0.275
0.221,0.114,-0.107,-0.167,0.163,0.003,-0.107,0.381,0.352,0.334,0.279,0.292
0.222,0.12,-0.101,-0.17,0.161,0.009,-0.104,0.345,0.31,0.312,0.272,0.279
0.175,0.093,-0.082,-0.134,0.129,0.006,-0.083,0.287,0.245,0.262,0.229,0.262
0.112,0.043,-0.069,-0.077,0.091,-0.013,-0.039,0.222,0.176,0.198,0.179,0.227
0.06,-0.007,-0.067,-0.027,0.064,-0.036,0.0,0.165,0.124,0.13,0.122,0.176
0.016,-0.049,-0.064,0.017,0.04,-0.056,0.039,0.116,0.09,0.078,0.067,0.125
-0.021,-0.087,-0.066,0.054,0.022,-0.076,0.066,0.071,0.063,0.044,0.025,0.086
-0.052,-0.116,-0.064,0.084,0.006,-0.09,0.078,0.054,0.056,0.028,0.009,0.07
-0.057,-0.122,-0.066,0.09,0.005,-0.094,0.088,0.046,0.049,0.019,0.003,0.06
-0.051,-0.129,-0.078,0.09,0.014,-0.103,0.091,0.034,0.042,0.012,-0.004,0.051
-0.059,-0.14,-0.081,0.099,0.011,-0.11,0.09,0.026,0.036,0.006,-0.011,0.048
-0.063,-0.143,-0.08,0.103,0.009,-0.111,0.09,0.025,0.029,-0.001,-0.018,0.044
-0.064,-0.148,-0.085,0.106,0.011,-0.116,0.09,0.025,0.026,-0.007,-0.02,0.041
-0.064,-0.149,-0.085,0.107,0.011,-0.117,0.091,0.02,0.025,-0.013,-0.02,0.036
-0.059,-0.142,-0.084,0.101,0.013,-0.113,0.094,0.019,0.025,-0.015,-0.02,0.036
-0.059,-0.137,-0.079,0.098,0.01,-0.108,0.095,0.022,0.025,-0.015,-0.02,0.041
-0.059,-0.132,-0.074,0.096,0.008,-0.103,0.095,0.025,0.024,-0.019,-0.02,0.045
-0.056,-0.126,-0.07,0.091,0.007,-0.098,0.095,0.025,0.027,-0.021,-0.02,0.05
-0.057,-0.121,-0.065,0.089,0.004,-0.093,0.095,0.029,0.03,-0.019,-0.015,0.047
-0.055,-0.116,-0.061,0.086,0.003,-0.088,0.093,0.04,0.03,-0.015,-0.015,0.044
-0.059,-0.115,-0.056,0.087,-0.001,-0.085,0.089,0.04,0.033,-0.01,-0.014,0.045
-0.063,-0.115,-0.052,0.089,-0.005,-0.083,0.09,0.04,0.035,-0.006,-0.01,0.045
-0.065,-0.11,-0.046,0.088,-0.009,-0.077,0.086,0.052,0.034,-0.002,-0.01,0.045
-0.067,-0.11,-0.044,0.089,-0.011,-0.077,0.085,0.052,0.031,0.004,-0.013,0.044
-0.073,-0.109,-0.036,0.091,-0.019,-0.072,0.085,0.046,0.026,0.003,-0.017,0.039
-0.065,-0.105,-0.039,0.085,-0.012,-0.072,0.08,0.041,0.024,-0.004,-0.022,0.036
-0.048,-0.105,-0.057,0.077,0.005,-0.081,0.08,0.035,0.019,-0.008,-0.024,0.033
-0.049,-0.105,-0.056,0.077,0.004,-0.08,0.08,0.03,0.016,-0.014,-0.021,0.028
-0.056,-0.105,-0.049,0.08,-0.003,-0.077,0.08,0.025,0.012,-0.02,-0.02,0.025
-0.059,-0.105,-0.046,0.083,-0.006,-0.075,0.08,0.022,0.01,-0.025,-0.02,0.025
-0.063,-0.105,-0.042,0.084,-0.01,-0.073,0.08,0.018,0.01,-0.03,-0.02,0.025
-0.07,-0.105,-0.035,0.088,-0.017,-0.07,0.08,0.015,0.006,-0.03,-0.019,0.025
-0.06,-0.105,-0.044,0.083,-0.007,-0.075,0.08,0.01,0.005,-0.031,-0.025,0.025
-0.048,-0.105,-0.057,0.077,0.005,-0.081,0.08,0.013,0.004,-0.035,-0.033,0.025
-0.05,-0.104,-0.054,0.078,0.002,-0.079,0.08,0.022,0.001,-0.034,-0.029,0.026
-0.051,-0.106,-0.055,0.079,0.002,-0.081,0.079,0.021,-0.002,-0.038,-0.024,0.03
-0.055,-0.11,-0.055,0.083,0.0,-0.082,0.075,0.018,-0.005,-0.04,-0.022,0.03
-0.055,-0.11,-0.055,0.083,0.0,-0.082,0.075,0.016,-0.007,-0.04,-0.017,0.03
-0.058,-0.11,-0.052,0.084,-0.003,-0.081,0.075,0.012,-0.011,-0.043,-0.015,0.03
-0.063,-0.11,-0.047,0.087,-0.008,-0.078,0.075,0.009,-0.007,-0.046,-0.034,0.03
-0.065,-0.11,-0.045,0.088,-0.01,-0.077,0.075,0.012,-0.005,-0.044,-0.042,0.03
-0.067,-0.107,-0.04,0.087,-0.013,-0.073,0.075,0.015,-0.005,-0.041,-0.039,0.03
-0.065,-0.102,-0.037,0.084,-0.014,-0.069,0.075,0.015,-0.005,-0.04,-0.044,0.03
-0.066,-0.099,-0.033,0.083,-0.017,-0.066,0.075,0.015,-0.005,-0.04,-0.045,0.03
-0.066,-0.096,-0.03,0.081,-0.017,-0.063,0.075,0.015,-0.005,-0.04,-0.045,0.03
-0.061,-0.09,-0.03,0.075,-0.015,-0.06,0.075,0.015,-0.01,-0.04,-0.045,0.029
-0.064,-0.092,-0.028,0.078,-0.018,-0.06,0.075,0.015,-0.01,-0.042,-0.045,0.025
-0.071,-0.096,-0.024,0.084,-0.023,-0.06,0.07,0.015,-0.011,-0.045,-0.045,0.025
-0.07,-0.095,-0.025,0.083,-0.022,-0.06,0.07,0.015,-0.015,-0.045,-0.045,0.023
-0.057,-0.094,-0.037,0.076,-0.01,-0.065,0.069,0.015,-0.015,-0.045,-0.045,0.019
-0.052,-0.09,-0.038,0.071,-0.007,-0.064,0.065,0.015,-0.015,-0.045,-0.047,0.02
-0.06,-0.09,-0.03,0.075,-0.015,-0.06,0.065,0.013,-0.015,-0.045,-0.05,0.016
-0.061,-0.088,-0.027,0.075,-0.017,-0.058,0.063,0.008,-0.015,-0.045,-0.05,0.014
-0.064,-0.083,-0.019,0.073,-0.022,-0.05,0.059,0.005,-0.015,-0.045,-0.05,0.015
-0.063,-0.081,-0.017,0.072,-0.023,-0.048,0.057,0.002,-0.015,-0.045,-0.05,0.015
-0.043,-0.076,-0.033,0.06,-0.005,-0.054,0.054,-0.003,-0.015,-0.045,-0.05,0.015
-0.038,-0.073,-0.035,0.056,-0.002,-0.054,0.051,-0.005,-0.009,-0.045,-0.045,0.015
-0.043,-0.07,-0.027,0.056,-0.008,-0.048,0.05,0.007,-0.003,-0.043,-0.037,0.024
-0.027,-0.054,-0.027,0.041,0.0,-0.04,0.049,0.028,0.001,-0.032,-0.031,0.032
-0.019,-0.03,-0.011,0.025,-0.004,-0.02,0.058,0.037,0.013,-0.022,-0.024,0.036
0.001,0.001,0.0,-0.001,0.001,0.0,0.056,0.053,0.03,-0.004,-0.017,0.057
0.016,0.004,-0.012,-0.01,0.014,-0.004,0.037,0.075,0.057,0.021,-0.009,0.063
0.025,-0.004,-0.029,-0.01,0.027,-0.016,0.026,0.051,0.049,0.015,-0.001,0.053
0.019,-0.022,-0.041,0.001,0.03,-0.031,0.025,0.024,0.016,-0.008,-0.009,0.048
-0.028,-0.065,-0.038,0.047,0.005,-0.051,0.024,0.016,0.002,-0.017,-0.021,0.04
-0.038,-0.073,-0.034,0.056,-0.002,-0.053,0.021,0.006,-0.013,-0.027,-0.034,0.034
-0.044,-0.074,-0.03,0.059,-0.006,-0.052,0.019,-0.001,-0.02,-0.034,-0.047,0.028
-0.063,-0.09,-0.027,0.077,-0.018,-0.058,0.022,-0.015,-0.033,-0.046,-0.053,0.021
-0.064,-0.088,-0.024,0.076,-0.02,-0.056,0.025,-0.019,-0.03,-0.054,-0.061,0.019
-0.076,-0.109,-0.033,0.092,-0.022,-0.07,0.025,-0.034,-0.032,-0.057,-0.068,0.009
-0.078,-0.106,-0.028,0.092,-0.025,-0.067,0.027,-0.013,-0.028,-0.047,-0.062,0.008
-0.087,-0.115,-0.028,0.102,-0.029,-0.071,0.03,-0.027,-0.028,-0.045,-0.067,-0.001
-0.092,-0.115,-0.023,0.104,-0.034,-0.069,0.032,-0.002,-0.024,-0.038,-0.065,-0.005
-0.1,-0.115,-0.015,0.107,-0.042,-0.065,0.021,-0.02,-0.025,-0.03,-0.061,-0.011
-0.113,-0.132,-0.018,0.123,-0.047,-0.075,0.068,0.075,0.041,-0.023,-0.068,-0.025
-0.068,-0.058,0.01,0.064,-0.039,-0.024,0.147,0.374,0.349,0.132,-0.006,-0.003
0.193,0.284,0.092,-0.239,0.05,0.188,-0.158,-0.352,0.182,0.451,0.386,0.322
0.489,0.846,0.357,-0.668,0.066,0.601,-0.716,-1.418,-0.348,0.742,0.935,0.926
0.25,0.495,0.245,-0.373,0.003,0.37,-0.693,-1.337,-0.664,0.275,0.489,0.698
-0.088,-0.184,-0.096,0.137,0.004,-0.14,-0.313,-0.828,-0.796,-0.42,-0.272,0.038
-0.128,-0.133,-0.005,0.131,-0.061,-0.069,-0.115,-0.378,-0.405,-0.275,-0.194,-0.019
-0.147,-0.113,0.035,0.13,-0.091,-0.039,0.007,-0.069,-0.075,-0.076,-0.089,-0.005
-0.104,-0.108,-0.004,0.106,-0.049,-0.056,0.047,0.018,-0.031,-0.064,-0.087,-0.012
-0.072,-0.083,-0.011,0.077,-0.03,-0.046,0.056,0.062,0.025,-0.021,-0.058,0.006
-0.063,-0.095,-0.032,0.08,-0.015,-0.063,0.056,0.079,0.022,-0.034,-0.071,-0.003
-0.054,-0.073,-0.019,0.064,-0.017,-0.046,0.049,0.092,0.049,-0.014,-0.051,0.011
-0.052,-0.084,-0.032,0.068,-0.01,-0.057,0.052,0.103,0.053,-0.015,-0.056,0.0
-0.04,-0.068,-0.028,0.054,-0.006,-0.048,0.048,0.111,0.062,-0.002,-0.043,0.008
-0.04,-0.071,-0.032,0.056,-0.004,-0.051,0.051,0.123,0.074,0.004,-0.042,0.003
-0.034,-0.06,-0.026,0.047,-0.004,-0.042,0.049,0.14,0.09,0.012,-0.035,0.006
-0.028,-0.053,-0.025,0.041,-0.001,-0.039,0.048,0.152,0.099,0.02,-0.029,0.005
-0.021,-0.045,-0.024,0.033,0.002,-0.034,0.045,0.167,0.112,0.035,-0.025,0.015
-0.008,-0.037,-0.029,0.023,0.011,-0.033,0.045,0.19,0.145,0.061,-0.017,0.031
0.019,-0.028,-0.047,0.005,0.034,-0.037,0.046,0.218,0.166,0.084,0.002,0.042
0.035,-0.007,-0.042,-0.014,0.039,-0.025,0.026,0.253,0.192,0.111,0.022,0.054
0.069,0.013,-0.056,-0.04,0.062,-0.022,-0.005,0.285,0.223,0.137,0.045,0.072
0.114,0.042,-0.072,-0.078,0.093,-0.015,-0.032,0.33,0.264,0.183,0.081,0.102
0.145,0.077,-0.069,-0.111,0.107,0.004,-0.057,0.371,0.296,0.232,0.124,0.14
0.192,0.122,-0.071,-0.157,0.132,0.025,-0.085,0.394,0.324,0.278,0.178,0.185
0.228,0.162,-0.066,-0.195,0.147,0.048,-0.12,0.393,0.322,0.31,0.219,0.221
0.237,0.172,-0.065,-0.204,0.151,0.054,-0.131,0.383,0.306,0.322,0.229,0.229
0.228,0.164,-0.064,-0.195,0.146,0.05,-0.126,0.362,0.276,0.312,0.221,0.223
0.196,0.156,-0.039,-0.176,0.117,0.058,-0.112,0.313,0.217,0.271,0.207,0.211
0.143,0.122,-0.021,-0.133,0.082,0.05,-0.077,0.242,0.159,0.202,0.153,0.175
0.085,0.066,-0.02,-0.075,0.052,0.023,-0.032,0.188,0.107,0.135,0.087,0.121
0.037,0.021,-0.015,-0.029,0.026,0.003,0.003,0.147,0.076,0.088,0.045,0.066
-0.001,-0.016,-0.014,0.009,0.007,-0.014,0.022,0.105,0.058,0.054,0.008,0.025
-0.033,-0.041,-0.008,0.037,-0.012,-0.024,0.033,0.083,0.044,0.032,-0.017,0.012
-0.038,-0.053,-0.015,0.046,-0.011,-0.034,0.04,0.068,0.034,0.022,-0.03,0.008
-0.034,-0.06,-0.026,0.047,-0.004,-0.042,0.049,0.07,0.021,0.016,-0.037,0.002
-0.035,-0.06,-0.025,0.048,-0.005,-0.042,0.05,0.067,0.016,0.009,-0.044,-0.004
-0.035,-0.06,-0.025,0.048,-0.005,-0.042,0.05,0.051,0.013,0.004,-0.045,-0.009
-0.035,-0.06,-0.024,0.048,-0.006,-0.042,0.05,0.046,0.01,-0.009,-0.045,-0.014
-0.034,-0.06,-0.026,0.048,-0.004,-0.043,0.05,0.045,0.008,-0.022,-0.049,-0.015
-0.038,-0.058,-0.02,0.048,-0.009,-0.038,0.049,0.045,0.004,-0.021,-0.05,-0.015
-0.026,-0.054,-0.029,0.04,0.002,-0.041,0.044,0.046,0.009,-0.017,-0.049,-0.015
-0.013,-0.055,-0.042,0.034,0.015,-0.048,0.038,0.043,0.02,-0.015,-0.045,-0.015
-0.012,-0.051,-0.039,0.032,0.014,-0.045,0.035,0.052,0.02,-0.011,-0.045,-0.015
-0.012,-0.05,-0.038,0.031,0.013,-0.044,0.03,0.065,0.02,-0.01,-0.045,-0.015
-0.016,-0.05,-0.034,0.033,0.009,-0.042,0.025,0.065,0.02,-0.01,-0.045,-0.015
-0.01,-0.045,-0.035,0.028,0.013,-0.04,0.033,0.068,0.02,-0.01,-0.045,-0.015
-0.007,-0.045,-0.038,0.026,0.016,-0.041,0.036,0.071,0.02,-0.01,-0.045,-0.016
-0.002,-0.045,-0.043,0.024,0.021,-0.044,0.035,0.067,0.015,-0.01,-0.045,-0.014
-0.001,-0.045,-0.044,0.023,0.022,-0.044,0.035,0.063,0.011,-0.01,-0.045,-0.022
-0.008,-0.045,-0.038,0.027,0.015,-0.041,0.035,0.06,0.008,-0.011,-0.045,-0.033
-0.012,-0.043,-0.031,0.028,0.01,-0.037,0.034,0.057,0.004,-0.017,-0.045,-0.03
-0.015,-0.04,-0.024,0.028,0.004,-0.032,0.031,0.052,0.001,-0.021,-0.046,-0.026
-0.019,-0.037,-0.018,0.028,0.0,-0.027,0.028,0.049,-0.002,-0.019,-0.05,-0.023
-0.024,-0.034,-0.01,0.029,-0.006,-0.022,0.025,0.046,-0.009,-0.022,-0.05,-0.018
-0.01,-0.031,-0.021,0.02,0.005,-0.025,0.023,0.043,-0.015,-0.029,-0.05,-0.015
-0.004,-0.03,-0.026,0.017,0.011,-0.028,0.018,0.04,-0.015,-0.03,-0.05,-0.021
-0.016,-0.036,-0.02,0.026,0.002,-0.027,0.025,0.037,-0.017,-0.03,-0.05,-0.035
-0.025,-0.043,-0.018,0.034,-0.003,-0.031,0.036,0.035,-0.02,-0.03,-0.054,-0.04
-0.03,-0.043,-0.013,0.037,-0.009,-0.028,0.03,0.035,-0.021,-0.03,-0.055,-0.039
-0.028,-0.039,-0.011,0.034,-0.009,-0.025,0.025,0.035,-0.017,-0.031,-0.056,-0.043
-0.036,-0.04,-0.005,0.038,-0.016,-0.022,0.022,0.035,-0.015,-0.04,-0.06,-0.045
-0.042,-0.04,0.003,0.041,-0.022,-0.018,0.015,0.035,-0.015,-0.042,-0.063,-0.045
-0.037,-0.04,-0.003,0.039,-0.017,-0.021,0.022,0.035,-0.015,-0.039,-0.065,-0.049
-0.026,-0.04,-0.014,0.033,-0.006,-0.026,0.032,0.035,-0.015,-0.04,-0.065,-0.05
-0.028,-0.035,-0.007,0.032,-0.01,-0.021,0.028,0.035,-0.015,-0.039,-0.065,-0.05
-0.045,-0.035,0.01,0.04,-0.027,-0.012,0.025,0.035,-0.027,-0.041,-0.065,-0.05
-0.041,-0.034,0.007,0.037,-0.023,-0.013,0.024,0.035,-0.032,-0.038,-0.065,-0.05
-0.023,-0.03,-0.007,0.027,-0.008,-0.019,0.018,0.035,-0.03,-0.036,-0.065,-0.051
-0.028,-0.03,-0.002,0.029,-0.013,-0.015,0.027,0.035,-0.029,-0.033,-0.065,-0.055
-0.047,-0.033,0.015,0.04,-0.031,-0.009,0.041,0.035,-0.025,-0.044,-0.065,-0.055
-0.049,-0.035,0.014,0.042,-0.031,-0.01,0.035,0.035,-0.025,-0.056,-0.065,-0.055
-0.041,-0.035,0.006,0.038,-0.023,-0.014,0.031,0.035,-0.027,-0.05,-0.065,-0.055
-0.04,-0.038,0.002,0.039,-0.021,-0.018,0.026,0.035,-0.035,-0.045,-0.062,-0.055
-0.037,-0.041,-0.004,0.039,-0.016,-0.022,0.021,0.035,-0.039,-0.042,-0.057,-0.059
-0.024,-0.04,-0.015,0.032,-0.004,-0.027,0.018,0.035,-0.035,-0.036,-0.054,-0.06
-0.026,-0.04,-0.015,0.033,-0.005,-0.027,0.014,0.03,-0.035,-0.033,-0.05,-0.061
-0.045,-0.04,0.005,0.042,-0.025,-0.017,0.016,0.03,-0.035,-0.029,-0.046,-0.065
-0.057,-0.04,0.017,0.048,-0.037,-0.012,0.014,0.03,-0.035,-0.027,-0.044,-0.065
-0.056,-0.04,0.016,0.048,-0.036,-0.011,0.016,0.03,-0.035,-0.024,-0.037,-0.065
-0.054,-0.04,0.014,0.046,-0.034,-0.013,0.013,0.029,-0.033,-0.021,-0.031,-0.065
-0.049,-0.037,0.012,0.043,-0.03,-0.013,0.027,0.033,-0.026,-0.019,-0.024,-0.065
-0.025,-0.018,0.008,0.022,-0.016,-0.005,0.031,0.05,-0.021,-0.012,-0.018,-0.065
-0.022,0.0,0.022,0.011,-0.022,0.011,0.025,0.071,-0.014,0.003,-0.011,-0.063
-0.018,0.026,0.045,-0.004,-0.032,0.035,0.048,0.072,-0.011,0.013,-0.004,-0.042
0.019,0.057,0.038,-0.038,-0.01,0.047,0.031,0.079,0.014,0.028,0.012,-0.026
0.024,0.048,0.024,-0.036,0.0,0.035,0.012,0.117,0.052,0.047,0.034,-0.025
0.017,0.035,0.018,-0.026,-0.001,0.027,0.01,0.09,0.026,0.035,0.024,-0.025
0.015,0.025,0.01,-0.02,0.002,0.017,0.002,0.04,-0.009,0.018,0.008,-0.04
0.001,0.009,0.008,-0.005,-0.004,0.008,-0.004,0.027,-0.023,0.002,-0.003,-0.045
-0.035,-0.007,0.029,0.021,-0.032,0.011,-0.021,0.025,-0.043,-0.013,-0.014,-0.053
-0.06,-0.029,0.031,0.044,-0.045,0.001,-0.02,0.018,-0.06,-0.018,-0.026,-0.072
-0.056,-0.026,0.029,0.041,-0.042,0.001,-0.013,0.016,-0.061,-0.027,-0.029,-0.079
-0.077,-0.048,0.03,0.062,-0.053,-0.009,-0.01,0.01,-0.055,-0.03,-0.034,-0.087
-0.08,-0.059,0.021,0.069,-0.05,-0.018,-0.002,0.002,-0.059,-0.042,-0.035,-0.086
-0.074,-0.044,0.03,0.059,-0.052,-0.007,0.002,-0.003,-0.049,-0.041,-0.027,-0.082
-0.076,-0.054,0.022,0.065,-0.049,-0.016,0.008,-0.012,-0.064,-0.043,-0.034,-0.089
-0.078,-0.033,0.044,0.055,-0.061,0.006,0.017,0.02,-0.044,-0.023,-0.024,-0.08
-0.08,-0.049,0.031,0.065,-0.056,-0.009,0.02,-0.001,-0.042,-0.012,-0.037,-0.089
-0.068,-0.032,0.036,0.049,-0.052,0.003,0.101,0.297,0.175,0.055,-0.009,-0.12
0.061,0.132,0.071,-0.097,-0.005,0.101,0.038,0.204,0.33,0.287,0.173,-0.003
0.418,0.679,0.262,-0.549,0.078,0.47,-0.491,-0.946,-0.117,0.654,0.749,0.569
0.434,0.859,0.425,-0.647,0.004,0.642,-0.8,-1.48,-0.553,0.597,0.873,0.834
0.043,0.131,0.088,-0.087,-0.023,0.109,-0.492,-1.065,-0.824,-0.181,0.025,0.194
-0.105,-0.139,-0.034,0.122,-0.035,-0.086,-0.212,-0.583,-0.674,-0.422,-0.27,-0.154
-0.108,-0.016,0.093,0.062,-0.1,0.038,-0.078,-0.184,-0.219,-0.128,-0.075,-0.078
-0.07,-0.037,0.034,0.053,-0.052,-0.002,0.005,0.004,-0.086,-0.077,-0.072,-0.092
-0.027,0.004,0.03,0.011,-0.029,0.017,0.019,0.069,-0.032,-0.025,-0.037,-0.072
-0.038,-0.018,0.019,0.028,-0.028,0.0,0.029,0.098,-0.02,-0.021,-0.047,-0.085
-0.022,-0.004,0.018,0.013,-0.02,0.007,0.023,0.104,-0.013,-0.019,-0.031,-0.078
-0.022,-0.005,0.017,0.013,-0.019,0.006,0.024,0.116,0.009,-0.007,-0.028,-0.08
-0.013,-0.007,0.005,0.01,-0.008,-0.001,0.019,0.127,0.015,-0.008,-0.024,-0.08
-0.029,0.002,0.031,0.013,-0.03,0.016,0.019,0.137,0.032,0.003,-0.015,-0.073
-0.043,0.002,0.044,0.02,-0.044,0.023,0.018,0.142,0.031,0.004,-0.013,-0.077
-0.021,0.014,0.035,0.003,-0.029,0.024,0.012,0.162,0.052,0.02,-0.005,-0.071
-0.016,0.014,0.03,0.001,-0.023,0.021,0.013,0.18,0.076,0.027,0.0,-0.07
0.001,0.023,0.022,-0.012,-0.01,0.022,0.006,0.196,0.092,0.044,0.019,-0.07
0.018,0.035,0.017,-0.027,0.0,0.026,0.007,0.227,0.105,0.051,0.026,-0.06
0.028,0.041,0.013,-0.035,0.007,0.026,0.001,0.251,0.134,0.071,0.052,-0.036
0.054,0.066,0.012,-0.06,0.021,0.039,-0.019,0.282,0.164,0.096,0.077,-0.019
0.092,0.097,0.005,-0.095,0.043,0.051,-0.036,0.326,0.202,0.127,0.1,0.006
0.169,0.134,-0.035,-0.151,0.102,0.049,-0.075,0.36,0.235,0.177,0.144,0.042
0.215,0.176,-0.04,-0.195,0.127,0.068,-0.1,0.397,0.252,0.213,0.178,0.082
0.231,0.213,-0.018,-0.222,0.125,0.097,-0.129,0.404,0.251,0.242,0.216,0.122
0.261,0.24,-0.02,-0.251,0.14,0.11,-0.157,0.391,0.241,0.261,0.248,0.156
0.272,0.25,-0.022,-0.261,0.147,0.114,-0.157,0.384,0.238,0.26,0.241,0.155
0.244,0.249,0.005,-0.246,0.119,0.126,-0.155,0.346,0.202,0.232,0.227,0.141
0.173,0.205,0.032,-0.189,0.07,0.118,-0.119,0.293,0.147,0.178,0.202,0.12
0.119,0.157,0.038,-0.138,0.04,0.097,-0.074,0.241,0.098,0.119,0.148,0.069
0.065,0.112,0.047,-0.088,0.008,0.079,-0.038,0.186,0.058,0.067,0.086,0.024
0.016,0.065,0.048,-0.041,-0.016,0.057,-0.006,0.144,0.033,0.024,0.038,-0.013
-0.001,0.044,0.045,-0.022,-0.023,0.044,0.004,0.111,0.019,-0.009,0.013,-0.045
-0.015,0.027,0.043,-0.006,-0.029,0.035,0.007,0.088,0.009,-0.032,-0.008,-0.066
-0.023,0.016,0.039,0.004,-0.032,0.027,0.01,0.081,-0.003,-0.041,-0.018,-0.076
-0.025,0.013,0.037,0.006,-0.031,0.025,0.012,0.074,-0.01,-0.047,-0.022,-0.074
-0.024,0.009,0.033,0.007,-0.028,0.021,0.016,0.068,-0.015,-0.054,-0.029,-0.075
-0.037,0.006,0.043,0.015,-0.04,0.024,0.012,0.061,-0.02,-0.055,-0.027,-0.075
-0.05,0.001,0.051,0.024,-0.05,0.025,0.01,0.055,-0.023,-0.055,-0.022,-0.075
-0.042,0.001,0.043,0.02,-0.042,0.021,0.01,0.061,-0.03,-0.055,-0.02,-0.075
-0.034,0.006,0.04,0.014,-0.038,0.022,0.007,0.067,-0.028,-0.055,-0.015,-0.075
-0.026,0.009,0.035,0.008,-0.03,0.022,0.004,0.073,-0.025,-0.055,-0.012,-0.075
-0.017,0.012,0.03,0.003,-0.024,0.02,0.006,0.075,-0.025,-0.057,-0.008,-0.075
-0.023,0.017,0.04,0.003,-0.032,0.028,0.009,0.075,-0.021,-0.061,-0.005,-0.075
-0.027,0.02,0.046,0.003,-0.036,0.033,0.012,0.078,-0.02,-0.06,-0.005,-0.075
-0.024,0.02,0.044,0.001,-0.034,0.032,0.015,0.08,-0.021,-0.06,-0.005,-0.08
-0.03,0.019,0.049,0.005,-0.039,0.034,0.013,0.079,-0.025,-0.06,-0.005,-0.08
-0.028,0.022,0.05,0.003,-0.039,0.036,0.01,0.076,-0.025,-0.06,-0.005,-0.08
-0.017,0.033,0.05,-0.008,-0.034,0.041,0.007,0.071,-0.026,-0.065,-0.008,-0.08
-0.015,0.036,0.05,-0.011,-0.033,0.042,0.004,0.069,-0.031,-0.07,-0.014,-0.082
-0.015,0.034,0.05,-0.01,-0.033,0.041,0.001,0.064,-0.028,-0.073,-0.019,-0.086
-0.015,0.035,0.051,-0.01,-0.034,0.043,0.0,0.061,-0.035,-0.078,-0.022,-0.09
-0.014,0.035,0.048,-0.01,-0.032,0.041,0.005,0.057,-0.046,-0.08,-0.028,-0.098
-0.024,0.035,0.059,-0.006,-0.042,0.047,0.005,0.055,-0.045,-0.081,-0.029,-0.102
-0.031,0.035,0.066,-0.002,-0.049,0.05,0.006,0.055,-0.045,-0.085,-0.025,-0.107
-0.025,0.035,0.06,-0.005,-0.043,0.047,0.01,0.051,-0.045,-0.085,-0.022,-0.11
-0.023,0.035,0.058,-0.006,-0.041,0.046,0.01,0.05,-0.045,-0.089,-0.02,-0.11
-0.018,0.035,0.053,-0.009,-0.036,0.044,0.01,0.05,-0.045,-0.09,-0.016,-0.11
-0.015,0.035,0.05,-0.01,-0.033,0.042,0.01,0.045,-0.045,-0.09,-0.015,-0.11
-0.015,0.031,0.046,-0.009,-0.031,0.038,0.01,0.045,-0.045,-0.09,-0.019,-0.11
-0.015,0.03,0.045,-0.008,-0.03,0.037,0.01,0.045,-0.045,-0.089,-0.02,-0.11
-0.015,0.03,0.045,-0.008,-0.03,0.037,0.01,0.045,-0.045,-0.093,-0.02,-0.111
-0.016,0.03,0.045,-0.008,-0.031,0.037,0.01,0.045,-0.045,-0.095,-0.02,-0.109
-0.014,0.03,0.044,-0.009,-0.029,0.036,0.005,0.045,-0.05,-0.095,-0.02,-0.115
-0.02,0.03,0.05,-0.005,-0.035,0.04,0.005,0.045,-0.05,-0.095,-0.02,-0.127
-0.031,0.03,0.061,0.001,-0.046,0.045,0.005,0.045,-0.051,-0.095,-0.023,-0.123
-0.03,0.03,0.06,0.0,-0.045,0.045,0.005,0.045,-0.055,-0.095,-0.026,-0.12
-0.03,0.03,0.06,0.0,-0.045,0.045,0.005,0.045,-0.055,-0.1,-0.025,-0.118
-0.03,0.03,0.06,0.0,-0.045,0.045,0.005,0.046,-0.055,-0.1,-0.025,-0.114
-0.03,0.03,0.059,0.0,-0.045,0.044,0.005,0.05,-0.055,-0.101,-0.025,-0.118
-0.028,0.035,0.062,-0.004,-0.045,0.048,0.005,0.05,-0.055,-0.105,-0.026,-0.12
-0.021,0.045,0.065,-0.012,-0.044,0.055,0.005,0.05,-0.055,-0.105,-0.03,-0.12
-0.02,0.045,0.065,-0.013,-0.043,0.055,0.005,0.049,-0.055,-0.103,-0.029,-0.12
-0.02,0.046,0.066,-0.013,-0.043,0.055,0.006,0.051,-0.055,-0.097,-0.033,-0.12
-0.025,0.044,0.069,-0.01,-0.048,0.056,0.009,0.047,-0.049,-0.092,-0.035,-0.12
-0.027,0.045,0.072,-0.009,-0.05,0.058,0.012,0.045,-0.043,-0.089,-0.035,-0.114
-0.028,0.053,0.081,-0.013,-0.055,0.067,0.016,0.045,-0.035,-0.084,-0.031,-0.108
-0.017,0.069,0.086,-0.026,-0.052,0.077,0.019,0.046,-0.03,-0.08,-0.02,-0.101
-0.001,0.095,0.095,-0.047,-0.048,0.095,0.025,0.071,-0.018,-0.068,-0.009,-0.094
0.022,0.123,0.101,-0.073,-0.04,0.112,0.027,0.091,0.002,-0.051,0.013,-0.087
0.058,0.148,0.09,-0.103,-0.017,0.119,0.01,0.108,0.023,-0.05,0.022,-0.085
0.068,0.146,0.078,-0.107,-0.006,0.112,-0.025,0.1,0.024,-0.046,0.014,-0.081
0.069,0.136,0.068,-0.103,0.001,0.102,-0.043,0.077,-0.015,-0.045,0.008,-0.079
0.04,0.111,0.071,-0.076,-0.016,0.09,-0.037,0.059,-0.041,-0.063,0.001,-0.099
0.007,0.08,0.073,-0.044,-0.033,0.076,-0.035,0.045,-0.054,-0.079,-0.006,-0.112
0.001,0.07,0.069,-0.035,-0.035,0.07,-0.031,0.046,-0.064,-0.085,-0.014,-0.113
-0.016,0.054,0.07,-0.019,-0.043,0.061,-0.026,0.033,-0.073,-0.09,-0.026,-0.124
-0.013,0.057,0.071,-0.022,-0.042,0.064,-0.024,0.036,-0.075,-0.095,-0.039,-0.134
-0.018,0.052,0.07,-0.017,-0.044,0.061,-0.019,0.02,-0.082,-0.102,-0.045,-0.142
-0.036,0.057,0.093,-0.011,-0.065,0.075,-0.014,0.033,-0.08,-0.1,-0.037,-0.139
-0.043,0.054,0.097,-0.006,-0.07,0.075,-0.01,0.027,-0.081,-0.095,-0.041,-0.139
-0.045,0.054,0.099,-0.005,-0.072,0.076,-0.004,0.031,-0.091,-0.099,-0.041,-0.143
-0.051,0.055,0.107,-0.002,-0.079,0.081,-0.003,0.033,-0.077,-0.088,-0.037,-0.135
-0.072,0.032,0.103,0.019,-0.088,0.067,0.028,0.058,-0.044,-0.078,-0.045,-0.151
-0.058,0.06,0.118,-0.001,-0.088,0.088,0.115,0.413,0.264,0.055,0.0,-0.174
0.174,0.317,0.143,-0.245,0.015,0.229,-0.094,-0.019,0.257,0.346,0.294,0.072
0.511,0.915,0.404,-0.713,0.053,0.66,-0.658,-1.182,-0.273,0.678,0.886,0.691
0.34,0.756,0.416,-0.548,-0.038,0.586,-0.752,-1.372,-0.638,0.35,0.641,0.637
-0.054,0.063,0.117,-0.005,-0.086,0.09,-0.396,-0.893,-0.853,-0.418,-0.194,-0.051
-0.111,0.029,0.139,0.041,-0.125,0.084,-0.19,-0.426,-0.556,-0.388,-0.231,-0.188
-0.082,0.078,0.16,0.002,-0.121,0.119,-0.06,-0.074,-0.15,-0.136,-0.095,-0.128
-0.042,0.072,0.114,-0.016,-0.078,0.092,-0.009,0.053,-0.083,-0.12,-0.091,-0.146
-0.016,0.09,0.105,-0.037,-0.06,0.097,0.0,0.1,-0.014,-0.073,-0.055,-0.126
-0.024,0.07,0.094,-0.023,-0.059,0.083,0.009,0.111,-0.01,-0.077,-0.075,-0.139
-0.017,0.088,0.105,-0.036,-0.061,0.096,0.004,0.129,-0.002,-0.058,-0.055,-0.125
-0.022,0.074,0.096,-0.026,-0.059,0.085,0.013,0.144,0.004,-0.058,-0.062,-0.133
-0.015,0.087,0.103,-0.036,-0.059,0.095,0.007,0.145,0.006,-0.049,-0.052,-0.125
-0.011,0.086,0.096,-0.038,-0.054,0.091,0.005,0.163,0.016,-0.042,-0.05,-0.121
-0.001,0.091,0.091,-0.045,-0.046,0.091,-0.002,0.175,0.02,-0.034,-0.043,-0.117
0.007,0.091,0.084,-0.049,-0.039,0.088,-0.005,0.188,0.044,-0.016,-0.035,-0.111
0.01,0.087,0.077,-0.049,-0.033,0.082,-0.01,0.2,0.062,-0.006,-0.031,-0.109
0.041,0.113,0.072,-0.077,-0.015,0.092,-0.015,0.22,0.073,0.012,-0.02,-0.102
0.059,0.123,0.064,-0.091,-0.003,0.093,-0.02,0.249,0.101,0.044,-0.01,-0.091
0.071,0.133,0.062,-0.102,0.005,0.097,-0.035,0.278,0.13,0.076,0.018,-0.076
0.104,0.161,0.057,-0.133,0.023,0.109,-0.042,0.313,0.154,0.11,0.047,-0.057
0.125,0.181,0.056,-0.153,0.034,0.118,-0.069,0.355,0.196,0.159,0.082,-0.022
0.171,0.223,0.052,-0.197,0.059,0.137,-0.104,0.39,0.229,0.202,0.125,0.014
0.214,0.264,0.049,-0.239,0.082,0.156,-0.132,0.418,0.248,0.249,0.17,0.051
0.247,0.3,0.052,-0.274,0.097,0.176,-0.162,0.415,0.238,0.273,0.214,0.09
0.268,0.324,0.056,-0.297,0.106,0.19,-0.188,0.401,0.225,0.26,0.239,0.111
0.24,0.31,0.07,-0.275,0.085,0.19,-0.197,0.388,0.213,0.244,0.24,0.099
0.212,0.293,0.081,-0.253,0.065,0.187,-0.171,0.346,0.167,0.217,0.209,0.085
0.152,0.262,0.111,-0.207,0.02,0.186,-0.125,0.294,0.115,0.151,0.155,0.052
0.112,0.216,0.105,-0.164,0.003,0.16,-0.079,0.246,0.075,0.082,0.102,-0.004
0.08,0.175,0.094,-0.128,-0.007,0.134,-0.044,0.204,0.038,0.037,0.05,-0.046
0.008,0.141,0.133,-0.075,-0.062,0.137,-0.029,0.159,0.015,0.007,0.012,-0.09
0.003,0.123,0.12,-0.063,-0.059,0.121,-0.022,0.129,0.008,-0.016,-0.014,-0.117
0.001,0.106,0.104,-0.054,-0.052,0.105,-0.017,0.12,0.001,-0.039,-0.03,-0.127
-0.011,0.094,0.105,-0.041,-0.058,0.099,-0.015,0.11,-0.006,-0.052,-0.041,-0.139
-0.001,0.094,0.095,-0.047,-0.048,0.094,-0.01,0.103,-0.023,-0.056,-0.05,-0.142
0.001,0.095,0.093,-0.048,-0.047,0.094,-0.007,0.099,-0.036,-0.059,-0.05,-0.14
0.012,0.096,0.084,-0.054,-0.036,0.09,-0.003,0.094,-0.034,-0.062,-0.05,-0.14
-0.002,0.094,0.095,-0.046,-0.049,0.094,0.0,0.091,-0.035,-0.065,-0.05,-0.14
-0.021,0.097,0.118,-0.038,-0.07,0.107,0.003,0.084,-0.035,-0.065,-0.05,-0.14
-0.031,0.09,0.121,-0.029,-0.076,0.105,0.005,0.09,-0.035,-0.065,-0.048,-0.14
-0.037,0.082,0.12,-0.023,-0.079,0.101,0.008,0.097,-0.034,-0.065,-0.044,-0.135
-0.014,0.107,0.12,-0.047,-0.067,0.113,0.011,0.098,-0.028,-0.065,-0.042,-0.135
-0.008,0.112,0.12,-0.052,-0.064,0.116,0.005,0.113,-0.023,-0.065,-0.039,-0.135
-0.011,0.108,0.119,-0.049,-0.065,0.113,-0.002,0.116,-0.017,-0.065,-0.036,-0.135
-0.007,0.107,0.113,-0.05,-0.06,0.11,-0.01,0.114,-0.011,-0.059,-0.035,-0.136
-0.006,0.103,0.109,-0.049,-0.058,0.106,-0.014,0.111,-0.006,-0.049,-0.04,-0.132
0.003,0.107,0.104,-0.055,-0.051,0.105,-0.01,0.109,-0.008,-0.047,-0.04,-0.13
0.009,0.11,0.101,-0.06,-0.046,0.105,-0.01,0.109,-0.014,-0.051,-0.04,-0.13
0.02,0.115,0.095,-0.068,-0.037,0.105,-0.01,0.103,-0.018,-0.05,-0.04,-0.13
0.009,0.111,0.103,-0.06,-0.047,0.107,-0.01,0.099,-0.023,-0.05,-0.042,-0.13
-0.014,0.11,0.124,-0.048,-0.069,0.116,-0.01,0.095,-0.027,-0.05,-0.049,-0.13
-0.015,0.11,0.125,-0.048,-0.07,0.117,-0.006,0.09,-0.032,-0.05,-0.055,-0.135
-0.018,0.105,0.123,-0.044,-0.071,0.114,-0.005,0.085,-0.035,-0.055,-0.06,-0.138
-0.013,0.105,0.118,-0.046,-0.066,0.111,-0.005,0.088,-0.04,-0.06,-0.06,-0.146
-0.023,0.105,0.128,-0.041,-0.076,0.116,-0.006,0.091,-0.043,-0.063,-0.06,-0.157
-0.042,0.105,0.146,-0.032,-0.095,0.125,-0.004,0.089,-0.046,-0.068,-0.06,-0.16
-0.034,0.105,0.139,-0.036,-0.087,0.122,-0.009,0.09,-0.049,-0.07,-0.061,-0.164
-0.031,0.105,0.136,-0.037,-0.084,0.12,-0.021,0.089,-0.052,-0.07,-0.057,-0.169
-0.026,0.105,0.131,-0.04,-0.079,0.118,-0.018,0.091,-0.055,-0.069,-0.055,-0.17
-0.021,0.105,0.126,-0.042,-0.074,0.115,-0.014,0.095,-0.055,-0.066,-0.054,-0.175
-0.018,0.105,0.123,-0.044,-0.071,0.114,-0.011,0.095,-0.055,-0.061,-0.058,-0.174
-0.014,0.105,0.119,-0.046,-0.067,0.111,-0.007,0.097,-0.055,-0.059,-0.074,-0.17
-0.025,0.105,0.13,-0.04,-0.078,0.117,-0.004,0.101,-0.055,-0.055,-0.076,-0.17
-0.03,0.105,0.135,-0.038,-0.083,0.12,-0.01,0.099,-0.055,-0.05,-0.074,-0.17
-0.031,0.104,0.135,-0.037,-0.083,0.12,-0.022,0.1,-0.055,-0.052,-0.076,-0.17
-0.028,0.106,0.134,-0.04,-0.081,0.12,-0.018,0.1,-0.052,-0.055,-0.075,-0.17
-0.026,0.11,0.136,-0.042,-0.081,0.123,-0.016,0.1,-0.049,-0.056,-0.074,-0.173
-0.023,0.11,0.133,-0.044,-0.078,0.121,-0.012,0.1,-0.046,-0.059,-0.069,-0.176
-0.024,0.114,0.139,-0.045,-0.082,0.126,-0.01,0.099,-0.043,-0.063,-0.066,-0.173
-0.045,0.115,0.159,-0.035,-0.103,0.137,-0.007,0.102,-0.04,-0.058,-0.064,-0.168
-0.043,0.119,0.161,-0.038,-0.102,0.14,0.003,0.108,-0.039,-0.05,-0.057,-0.16
-0.029,0.137,0.165,-0.055,-0.097,0.151,0.013,0.129,-0.027,-0.042,-0.056,-0.155
0.005,0.166,0.162,-0.086,-0.079,0.164,0.022,0.134,-0.008,-0.034,-0.047,-0.147
0.055,0.2,0.146,-0.128,-0.046,0.173,0.007,0.156,0.023,-0.027,-0.029,-0.142
0.063,0.198,0.134,-0.131,-0.036,0.166,-0.025,0.169,0.037,-0.006,-0.023,-0.138
0.039,0.172,0.133,-0.106,-0.047,0.152,-0.044,0.131,0.007,-0.023,-0.032,-0.144
0.021,0.16,0.139,-0.091,-0.059,0.149,-0.042,0.114,-0.018,-0.058,-0.058,-0.165
0.009,0.147,0.138,-0.078,-0.065,0.142,-0.036,0.105,-0.035,-0.067,-0.071,-0.179
-0.013,0.135,0.148,-0.061,-0.081,0.141,-0.033,0.099,-0.049,-0.078,-0.075,-0.186
-0.02,0.119,0.139,-0.049,-0.079,0.128,-0.027,0.085,-0.067,-0.094,-0.09,-0.199
-0.041,0.109,0.15,-0.034,-0.096,0.129,-0.024,0.091,-0.073,-0.094,-0.095,-0.207
-0.066,0.104,0.169,-0.019,-0.118,0.136,-0.019,0.089,-0.071,-0.095,-0.106,-0.212
-0.069,0.102,0.171,-0.017,-0.12,0.136,-0.02,0.09,-0.073,-0.099,-0.109,-0.21
-0.077,0.099,0.176,-0.012,-0.127,0.137,-0.02,0.092,-0.064,-0.099,-0.114,-0.208
-0.08,0.094,0.174,-0.007,-0.127,0.133,-0.018,0.085,-0.079,-0.103,-0.117,-0.214
-0.089,0.099,0.187,-0.005,-0.138,0.143,-0.024,0.1,-0.058,-0.089,-0.114,-0.203
-0.055,0.11,0.165,-0.028,-0.11,0.137,0.004,0.101,-0.046,-0.082,-0.129,-0.231
-0.049,0.117,0.165,-0.034,-0.107,0.141,0.092,0.453,0.235,0.025,-0.094,-0.277
0.12,0.315,0.195,-0.218,-0.038,0.254,-0.049,0.255,0.351,0.313,0.185,-0.073
0.475,0.903,0.428,-0.689,0.023,0.665,-0.588,-0.876,-0.147,0.688,0.799,0.546
0.336,0.84,0.505,-0.588,-0.085,0.672,-0.743,-1.224,-0.573,0.423,0.641,0.581
-0.066,0.134,0.2,-0.035,-0.133,0.167,-0.399,-0.799,-0.84,-0.375,-0.21,-0.107
-0.14,0.037,0.177,0.051,-0.158,0.107,-0.194,-0.395,-0.613,-0.433,-0.308,-0.298
-0.073,0.132,0.205,-0.03,-0.139,0.168,-0.072,-0.044,-0.173,-0.158,-0.143,-0.251
-0.04,0.121,0.161,-0.041,-0.101,0.141,-0.015,0.107,-0.082,-0.114,-0.131,-0.27
-0.05,0.135,0.185,-0.043,-0.118,0.16,-0.004,0.15,-0.024,-0.066,-0.092,-0.237
-0.046,0.116,0.162,-0.036,-0.104,0.139,0.004,0.169,-0.01,-0.053,-0.1,-0.247
-0.034,0.127,0.161,-0.047,-0.097,0.144,-0.004,0.186,0.007,-0.034,-0.077,-0.23
-0.032,0.114,0.146,-0.041,-0.089,0.13,0.002,0.192,0.03,-0.033,-0.076,-0.233
-0.013,0.13,0.143,-0.059,-0.078,0.136,-0.001,0.192,0.035,-0.023,-0.066,-0.225
0.006,0.147,0.141,-0.076,-0.068,0.144,0.0,0.216,0.047,-0.007,-0.062,-0.221
0.008,0.143,0.134,-0.076,-0.064,0.138,-0.005,0.223,0.053,0.004,-0.059,-0.218
0.013,0.147,0.135,-0.08,-0.061,0.141,-0.013,0.227,0.063,0.018,-0.052,-0.21
0.016,0.142,0.127,-0.079,-0.056,0.134,-0.016,0.252,0.075,0.03,-0.051,-0.207
0.017,0.145,0.128,-0.082,-0.056,0.136,-0.022,0.277,0.097,0.043,-0.04,-0.2
0.042,0.185,0.143,-0.114,-0.051,0.164,-0.049,0.292,0.118,0.061,-0.026,-0.195
0.069,0.202,0.133,-0.136,-0.032,0.167,-0.058,0.316,0.15,0.094,-0.008,-0.191
0.085,0.198,0.113,-0.142,-0.014,0.155,-0.065,0.354,0.187,0.131,0.031,-0.166
0.116,0.226,0.11,-0.171,0.003,0.167,-0.081,0.391,0.224,0.176,0.074,-0.127
0.162,0.264,0.103,-0.214,0.029,0.184,-0.112,0.409,0.259,0.213,0.108,-0.109
0.197,0.297,0.1,-0.247,0.048,0.198,-0.15,0.442,0.282,0.256,0.157,-0.076
0.245,0.339,0.095,-0.292,0.074,0.217,-0.173,0.463,0.286,0.286,0.196,-0.038
0.268,0.357,0.089,-0.313,0.089,0.223,-0.197,0.448,0.286,0.3,0.222,-0.035
0.248,0.352,0.103,-0.3,0.072,0.227,-0.189,0.44,0.268,0.298,0.225,-0.034
0.21,0.347,0.137,-0.279,0.036,0.242,-0.164,0.404,0.222,0.252,0.201,-0.036
0.136,0.302,0.166,-0.219,-0.015,0.234,-0.131,0.352,0.16,0.201,0.153,-0.064
0.088,0.256,0.168,-0.172,-0.04,0.212,-0.094,0.304,0.1,0.14,0.083,-0.116
0.066,0.228,0.162,-0.148,-0.048,0.195,-0.069,0.245,0.058,0.078,0.033,-0.17
0.036,0.193,0.157,-0.114,-0.061,0.175,-0.041,0.207,0.033,0.044,-0.015,-0.202
0.014,0.167,0.154,-0.091,-0.07,0.16,-0.019,0.182,0.023,0.014,-0.055,-0.227
0.005,0.153,0.148,-0.079,-0.071,0.15,-0.014,0.166,0.019,-0.005,-0.077,-0.251
-0.007,0.14,0.146,-0.067,-0.077,0.143,-0.009,0.162,0.014,-0.015,-0.091,-0.261
-0.026,0.134,0.16,-0.054,-0.093,0.147,-0.008,0.156,0.01,-0.023,-0.093,-0.263
-0.03,0.128,0.158,-0.05,-0.094,0.143,-0.001,0.153,0.005,-0.033,-0.091,-0.267
-0.029,0.125,0.154,-0.048,-0.092,0.139,-0.001,0.147,0.001,-0.039,-0.088,-0.27
-0.031,0.12,0.151,-0.044,-0.091,0.136,-0.002,0.146,0.0,-0.034,-0.086,-0.266
-0.031,0.115,0.145,-0.042,-0.089,0.13,0.014,0.15,-0.001,-0.036,-0.082,-0.262
-0.016,0.129,0.145,-0.057,-0.081,0.137,0.013,0.154,-0.004,-0.033,-0.08,-0.259
0.007,0.137,0.13,-0.072,-0.062,0.133,0.009,0.159,-0.006,-0.03,-0.078,-0.256
-0.004,0.134,0.138,-0.065,-0.072,0.136,0.006,0.169,-0.003,-0.03,-0.073,-0.25
-0.024,0.135,0.159,-0.056,-0.092,0.147,0.001,0.184,0.007,-0.027,-0.07,-0.253
-0.02,0.135,0.155,-0.058,-0.088,0.144,-0.001,0.182,0.005,-0.023,-0.067,-0.268
-0.012,0.135,0.147,-0.061,-0.08,0.141,-0.005,0.176,0.0,-0.019,-0.063,-0.271
-0.011,0.13,0.142,-0.06,-0.077,0.136,-0.004,0.172,0.004,-0.016,-0.06,-0.269
-0.003,0.13,0.133,-0.063,-0.068,0.131,-0.007,0.169,0.008,-0.011,-0.065,-0.271
-0.001,0.13,0.131,-0.065,-0.066,0.131,-0.011,0.159,0.006,-0.01,-0.066,-0.269
-0.015,0.129,0.144,-0.057,-0.08,0.137,-0.01,0.138,-0.002,-0.01,-0.072,-0.272
-0.02,0.131,0.151,-0.055,-0.085,0.141,-0.007,0.134,0.001,-0.01,-0.074,-0.275
-0.025,0.127,0.152,-0.051,-0.088,0.139,-0.004,0.15,-0.012,-0.01,-0.08,-0.275
-0.031,0.125,0.156,-0.048,-0.094,0.14,-0.005,0.14,-0.003,-0.01,-0.105,-0.275
-0.033,0.125,0.158,-0.046,-0.096,0.141,-0.005,0.163,-0.023,-0.018,-0.117,-0.275
-0.036,0.125,0.161,-0.045,-0.099,0.143,-0.005,0.133,-0.012,-0.021,-0.141,-0.275
-0.03,0.124,0.155,-0.047,-0.093,0.139,-0.006,0.014,0.042,-0.019,-0.066,-0.278
-0.021,0.126,0.147,-0.052,-0.085,0.136,-0.011,-0.009,0.011,-0.021,0.013,-0.282
-0.009,0.129,0.138,-0.06,-0.073,0.134,-0.014,0.007,-0.008,-0.019,-0.009,-0.286
