-0.041,-0.305,-0.264,0.173,0.112,-0.284,0.174,0.241,0.02,-1.588,-0.394,-0.465
-0.025,-0.307,-0.281,0.166,0.128,-0.294,0.18,0.246,0.034,-1.578,-0.387,-0.467
0.041,-0.325,-0.366,0.142,0.204,-0.345,0.18,0.251,0.022,-1.554,-0.377,-0.461
0.036,-0.3,-0.336,0.132,0.187,-0.318,0.179,0.275,0.06,-1.522,-0.349,-0.432
0.044,-0.193,-0.237,0.075,0.141,-0.215,0.182,0.325,0.13,-1.462,-0.293,-0.379
0.038,-0.111,-0.149,0.036,0.094,-0.129,0.192,0.374,0.216,-1.37,-0.212,-0.324
0.065,-0.038,-0.103,-0.014,0.084,-0.07,0.293,0.436,0.3,-1.289,-0.156,-0.285
0.093,0.06,-0.033,-0.076,0.063,0.013,0.242,0.472,0.352,-1.227,-0.109,-0.235
0.156,0.148,-0.008,-0.152,0.082,0.07,0.088,0.47,0.415,-1.187,-0.048,-0.172
0.135,0.157,0.022,-0.146,0.056,0.089,0.07,0.511,0.484,-1.111,0.003,-0.15
0.106,0.132,0.025,-0.119,0.04,0.078,0.062,0.561,0.507,-1.08,0.032,-0.158
0.192,0.124,-0.069,-0.158,0.13,0.027,0.066,0.577,0.495,-1.113,-0.006,-0.151
0.174,0.107,-0.068,-0.14,0.121,0.019,0.064,0.563,0.476,-1.132,-0.047,-0.15
0.109,0.072,-0.037,-0.09,0.073,0.017,0.065,0.553,0.44,-1.159,-0.044,-0.151
0.105,0.035,-0.07,-0.07,0.087,-0.018,0.097,0.521,0.363,-1.196,-0.056,-0.146
0.137,0.02,-0.117,-0.078,0.127,-0.048,0.105,0.404,0.257,-1.276,-0.119,-0.181
0.105,-0.014,-0.12,-0.045,0.113,-0.067,0.094,0.316,0.166,-1.362,-0.173,-0.212
0.027,-0.032,-0.059,0.003,0.043,-0.045,0.094,0.262,0.108,-1.404,-0.203,-0.237
0.03,-0.08,-0.11,0.025,0.07,-0.094,0.128,0.211,0.029,-1.425,-0.239,-0.27
0.056,-0.166,-0.221,0.055,0.139,-0.193,0.13,0.156,-0.065,-1.488,-0.289,-0.314
0.042,-0.195,-0.237,0.077,0.14,-0.216,0.128,0.117,-0.087,-1.534,-0.338,-0.346
0.001,-0.215,-0.215,0.107,0.108,-0.214,0.124,0.129,-0.125,-1.545,-0.357,-0.346
-0.018,-0.241,-0.223,0.129,0.103,-0.231,0.13,0.131,-0.161,-1.582,-0.387,-0.381
-0.038,-0.271,-0.233,0.155,0.098,-0.252,0.156,0.133,-0.162,-1.595,-0.403,-0.388
-0.043,-0.302,-0.259,0.173,0.108,-0.28,0.142,0.134,-0.151,-1.566,-0.382,-0.372
-0.016,-0.298,-0.282,0.157,0.133,-0.29,0.169,0.143,-0.103,-1.532,-0.348,-0.357
0.009,-0.184,-0.193,0.087,0.101,-0.188,0.172,0.17,-0.052,-1.483,-0.296,-0.299
0.043,-0.069,-0.113,0.013,0.078,-0.091,0.256,0.224,0.014,-1.43,-0.256,-0.268
0.027,-0.002,-0.03,-0.012,0.029,-0.016,0.292,0.21,0.032,-1.384,-0.21,-0.221
0.01,0.077,0.067,-0.044,-0.028,0.072,0.152,0.18,0.05,-1.334,-0.17,-0.183
0.013,0.066,0.053,-0.04,-0.02,0.059,0.09,0.161,0.024,-1.352,-0.177,-0.198
0.094,0.054,-0.04,-0.074,0.067,0.007,0.077,0.144,0.045,-1.31,-0.143,-0.173
0.116,0.065,-0.05,-0.09,0.083,0.008,0.083,0.196,0.059,-1.323,-0.178,-0.203
0.093,0.022,-0.071,-0.058,0.082,-0.024,0.089,0.399,0.344,-1.085,-0.049,-0.178
0.254,0.137,-0.116,-0.195,0.185,0.01,-0.05,0.141,0.43,-0.755,0.475,0.292
0.658,0.479,-0.179,-0.568,0.418,0.15,-0.644,-1.209,-0.543,-0.676,1.135,1.103
0.832,0.434,-0.398,-0.633,0.615,0.018,-0.83,-1.831,-1.289,-0.994,0.799,0.965
0.163,-0.144,-0.308,-0.009,0.236,-0.226,-0.101,-1.241,-1.507,-2.225,-0.703,-0.237
-0.258,-0.381,-0.123,0.32,-0.067,-0.252,0.288,-0.704,-1.138,-2.434,-1.059,-0.655
-0.056,-0.234,-0.177,0.145,0.061,-0.205,0.208,-0.18,-0.357,-1.663,-0.493,-0.402
-0.031,-0.201,-0.17,0.117,0.069,-0.185,0.156,0.117,-0.091,-1.521,-0.372,-0.338
-0.041,-0.2,-0.159,0.121,0.059,-0.18,0.139,0.207,0.03,-1.41,-0.3,-0.291
-0.019,-0.196,-0.178,0.108,0.079,-0.187,0.161,0.24,0.033,-1.405,-0.314,-0.319
-0.035,-0.222,-0.187,0.129,0.076,-0.204,0.143,0.221,0.006,-1.452,-0.348,-0.336
-0.01,-0.247,-0.237,0.129,0.114,-0.242,0.148,0.238,0.012,-1.436,-0.35,-0.331
-0.011,-0.245,-0.234,0.128,0.112,-0.239,0.139,0.223,0.0,-1.415,-0.331,-0.319
-0.023,-0.237,-0.214,0.13,0.096,-0.226,0.133,0.252,0.053,-1.365,-0.308,-0.31
0.039,-0.18,-0.219,0.071,0.129,-0.199,0.159,0.286,0.095,-1.312,-0.261,-0.271
0.079,-0.039,-0.118,-0.02,0.099,-0.078,0.164,0.34,0.194,-1.2,-0.189,-0.193
0.048,0.053,0.005,-0.05,0.021,0.028,0.278,0.42,0.279,-1.159,-0.157,-0.168
0.047,0.126,0.079,-0.087,-0.016,0.103,0.24,0.423,0.322,-1.125,-0.087,-0.145
0.102,0.202,0.101,-0.152,0.0,0.151,0.07,0.447,0.398,-1.063,-0.056,-0.122
0.116,0.208,0.092,-0.162,0.012,0.15,0.053,0.491,0.458,-1.0,0.002,-0.074
0.111,0.184,0.074,-0.148,0.018,0.129,0.049,0.525,0.477,-0.98,0.044,-0.056
0.136,0.16,0.024,-0.148,0.055,0.092,0.05,0.57,0.488,-0.977,0.016,-0.071
0.162,0.118,-0.044,-0.139,0.103,0.037,0.05,0.564,0.459,-1.007,-0.023,-0.068
0.131,0.077,-0.053,-0.104,0.092,0.012,0.054,0.534,0.404,-1.077,-0.079,-0.095
0.116,0.046,-0.07,-0.081,0.093,-0.012,0.057,0.476,0.344,-1.096,-0.083,-0.09
0.098,0.022,-0.076,-0.06,0.087,-0.027,0.06,0.396,0.256,-1.13,-0.066,-0.069
0.026,-0.016,-0.042,-0.005,0.034,-0.029,0.082,0.319,0.152,-1.19,-0.126,-0.113
0.071,-0.063,-0.134,-0.003,0.103,-0.098,0.101,0.25,0.056,-1.247,-0.191,-0.166
0.067,-0.075,-0.142,0.005,0.105,-0.109,0.104,0.188,0.0,-1.29,-0.213,-0.183
-0.032,-0.132,-0.1,0.082,0.034,-0.116,0.107,0.128,-0.038,-1.324,-0.263,-0.21
-0.021,-0.174,-0.153,0.098,0.066,-0.163,0.143,0.106,-0.09,-1.354,-0.281,-0.245
-0.018,-0.192,-0.175,0.105,0.079,-0.183,0.147,0.098,-0.137,-1.399,-0.309,-0.271
-0.072,-0.248,-0.175,0.16,0.052,-0.211,0.156,0.1,-0.149,-1.415,-0.35,-0.296
-0.073,-0.28,-0.207,0.177,0.067,-0.243,0.17,0.094,-0.145,-1.428,-0.363,-0.314
-0.046,-0.298,-0.252,0.173,0.103,-0.275,0.151,0.094,-0.142,-1.433,-0.372,-0.324
-0.045,-0.236,-0.191,0.141,0.073,-0.214,0.167,0.116,-0.124,-1.385,-0.338,-0.29
-0.013,-0.126,-0.113,0.07,0.05,-0.119,0.149,0.123,-0.092,-1.332,-0.289,-0.224
-0.042,-0.085,-0.043,0.064,0.0,-0.063,0.255,0.179,-0.016,-1.261,-0.237,-0.185
-0.071,-0.03,0.041,0.051,-0.056,0.005,0.324,0.188,-0.003,-1.243,-0.207,-0.152
-0.027,0.06,0.087,-0.017,-0.057,0.073,0.161,0.147,-0.008,-1.203,-0.173,-0.129
-0.039,0.075,0.114,-0.018,-0.077,0.094,0.079,0.113,-0.014,-1.186,-0.146,-0.129
-0.021,0.054,0.075,-0.017,-0.048,0.064,0.053,0.112,0.02,-1.155,-0.133,-0.118
0.012,0.054,0.042,-0.034,-0.015,0.048,0.084,0.168,0.042,-1.162,-0.147,-0.131
0.065,0.064,0.0,-0.064,0.032,0.032,0.106,0.378,0.304,-0.97,-0.044,-0.101
0.167,0.129,-0.038,-0.147,0.102,0.045,-0.039,0.147,0.445,-0.62,0.429,0.287
0.558,0.443,-0.115,-0.5,0.336,0.164,-0.597,-1.229,-0.485,-0.492,1.141,1.089
0.854,0.472,-0.381,-0.663,0.617,0.045,-0.867,-1.951,-1.313,-0.782,0.884,1.064
0.252,-0.137,-0.389,-0.057,0.321,-0.263,-0.19,-1.394,-1.569,-2.009,-0.627,-0.101
-0.231,-0.391,-0.16,0.311,-0.035,-0.275,0.258,-0.798,-1.217,-2.304,-1.063,-0.576
-0.097,-0.249,-0.152,0.173,0.028,-0.2,0.235,-0.21,-0.383,-1.5,-0.462,-0.337
-0.106,-0.216,-0.11,0.162,0.002,-0.163,0.218,0.127,-0.076,-1.292,-0.33,-0.26
-0.108,-0.199,-0.092,0.154,-0.008,-0.145,0.161,0.216,0.019,-1.188,-0.296,-0.214
-0.049,-0.211,-0.162,0.13,0.056,-0.186,0.163,0.243,-0.004,-1.21,-0.3,-0.239
-0.05,-0.22,-0.17,0.135,0.06,-0.195,0.158,0.227,-0.033,-1.239,-0.301,-0.256
-0.036,-0.231,-0.195,0.134,0.08,-0.213,0.161,0.243,0.01,-1.191,-0.285,-0.269
-0.009,-0.264,-0.255,0.137,0.123,-0.259,0.16,0.226,-0.01,-1.194,-0.299,-0.27
0.031,-0.264,-0.296,0.117,0.164,-0.28,0.158,0.261,0.055,-1.138,-0.251,-0.242
0.044,-0.182,-0.226,0.07,0.135,-0.204,0.167,0.294,0.106,-1.102,-0.233,-0.206
0.066,-0.063,-0.129,-0.002,0.098,-0.095,0.169,0.34,0.197,-0.994,-0.149,-0.148
0.067,0.027,-0.04,-0.047,0.053,-0.007,0.292,0.436,0.297,-0.904,-0.061,-0.092
0.045,0.095,0.05,-0.07,-0.003,0.072,0.272,0.46,0.338,-0.839,-0.025,-0.055
0.071,0.162,0.091,-0.117,-0.01,0.126,0.108,0.471,0.405,-0.738,0.029,-0.027
0.118,0.175,0.057,-0.147,0.03,0.115,0.079,0.527,0.476,-0.668,0.057,0.014
0.074,0.157,0.082,-0.116,-0.004,0.119,0.07,0.582,0.516,-0.648,0.069,0.032
0.076,0.152,0.076,-0.115,0.0,0.114,0.066,0.597,0.503,-0.649,0.054,0.028
0.144,0.137,-0.007,-0.14,0.075,0.065,0.066,0.582,0.479,-0.661,0.027,-0.01
0.124,0.125,0.0,-0.124,0.062,0.062,0.061,0.566,0.432,-0.695,0.015,-0.019
0.098,0.095,-0.004,-0.096,0.051,0.045,0.06,0.509,0.356,-0.727,-0.01,-0.004
0.084,0.059,-0.025,-0.071,0.054,0.017,0.066,0.401,0.266,-0.801,-0.058,-0.037
0.044,0.031,-0.013,-0.037,0.029,0.009,0.089,0.33,0.154,-0.85,-0.093,-0.062
-0.034,-0.018,0.015,0.026,-0.024,-0.002,0.098,0.245,0.088,-0.881,-0.122,-0.078
-0.019,-0.064,-0.045,0.042,0.013,-0.054,0.108,0.161,0.021,-0.961,-0.191,-0.124
0.023,-0.105,-0.128,0.041,0.076,-0.116,0.102,0.133,-0.045,-0.994,-0.225,-0.166
-0.044,-0.111,-0.066,0.077,0.012,-0.088,0.107,0.089,-0.085,-1.028,-0.253,-0.164
-0.052,-0.146,-0.094,0.099,0.022,-0.12,0.132,0.078,-0.145,-1.084,-0.312,-0.197
-0.041,-0.234,-0.193,0.138,0.077,-0.213,0.136,0.08,-0.172,-1.116,-0.325,-0.253
-0.072,-0.245,-0.173,0.158,0.051,-0.209,0.142,0.081,-0.17,-1.121,-0.348,-0.258
-0.038,-0.236,-0.198,0.138,0.08,-0.217,0.14,0.077,-0.157,-1.101,-0.364,-0.255
-0.035,-0.216,-0.182,0.126,0.074,-0.199,0.15,0.095,-0.12,-1.052,-0.298,-0.226
-0.002,-0.126,-0.125,0.064,0.062,-0.125,0.144,0.135,-0.077,-0.996,-0.235,-0.174
0.017,-0.028,-0.046,0.006,0.032,-0.037,0.224,0.162,-0.024,-0.958,-0.207,-0.131
-0.086,0.031,0.117,0.028,-0.102,0.073,0.295,0.172,0.001,-0.919,-0.161,-0.091
-0.048,0.091,0.139,-0.022,-0.094,0.115,0.159,0.15,0.067,-0.871,-0.118,-0.054
0.054,0.142,0.089,-0.098,-0.018,0.115,0.042,0.12,0.033,-0.889,-0.11,-0.05
0.021,0.121,0.1,-0.071,-0.04,0.11,0.017,0.119,0.015,-0.856,-0.093,-0.051
0.032,0.101,0.069,-0.067,-0.019,0.084,0.067,0.155,0.038,-0.871,-0.143,-0.075
0.121,0.115,-0.006,-0.118,0.063,0.054,0.092,0.362,0.285,-0.677,-0.03,-0.06
0.169,0.181,0.012,-0.175,0.078,0.096,-0.032,0.203,0.491,-0.29,0.435,0.317
0.598,0.472,-0.125,-0.535,0.361,0.173,-0.598,-1.142,-0.375,-0.165,1.088,1.078
0.921,0.487,-0.434,-0.704,0.677,0.026,-0.907,-1.978,-1.281,-0.516,0.844,1.044
0.243,-0.102,-0.345,-0.07,0.294,-0.223,-0.211,-1.456,-1.6,-1.745,-0.628,-0.068
-0.274,-0.355,-0.08,0.315,-0.097,-0.217,0.262,-0.827,-1.241,-2.023,-1.041,-0.525
-0.186,-0.196,-0.011,0.191,-0.087,-0.103,0.224,-0.24,-0.384,-1.216,-0.45,-0.28
-0.179,-0.139,0.04,0.159,-0.109,-0.049,0.183,0.094,-0.079,-0.999,-0.317,-0.231
-0.07,-0.118,-0.048,0.094,-0.01,-0.083,0.115,0.179,-0.021,-0.97,-0.286,-0.221
0.003,-0.127,-0.13,0.062,0.067,-0.129,0.112,0.197,-0.01,-0.95,-0.293,-0.229
-0.09,-0.148,-0.057,0.119,-0.016,-0.102,0.115,0.179,-0.017,-0.957,-0.293,-0.23
-0.056,-0.203,-0.146,0.13,0.045,-0.174,0.148,0.232,-0.006,-0.942,-0.276,-0.23
0.0,-0.218,-0.218,0.109,0.109,-0.218,0.112,0.211,-0.028,-0.567,-0.285,-0.238
-0.003,-0.221,-0.218,0.112,0.108,-0.219,0.098,0.232,0.037,-0.179,-0.252,-0.194
0.044,-0.152,-0.196,0.054,0.12,-0.173,0.131,0.284,0.111,-0.049,-0.179,-0.15
0.053,0.006,-0.047,-0.029,0.05,-0.02,0.124,0.309,0.176,0.082,-0.124,-0.11
0.026,0.047,0.021,-0.036,0.002,0.033,0.262,0.402,0.258,0.15,-0.089,-0.071
0.032,0.136,0.104,-0.084,-0.036,0.12,0.249,0.435,0.332,0.256,0.0,-0.023
0.054,0.229,0.175,-0.142,-0.061,0.202,0.087,0.453,0.396,0.32,0.05,0.035
0.095,0.224,0.13,-0.16,-0.018,0.177,0.048,0.501,0.443,0.361,0.058,0.058
0.133,0.24,0.107,-0.187,0.012,0.173,0.01,0.528,0.446,0.365,0.047,0.044
0.144,0.215,0.071,-0.18,0.037,0.142,0.02,0.561,0.442,0.35,0.04,0.042
0.137,0.176,0.039,-0.157,0.049,0.107,0.027,0.568,0.427,0.343,0.032,0.026
0.088,0.154,0.066,-0.121,0.011,0.11,0.041,0.562,0.4,0.32,0.017,0.037
0.109,0.143,0.034,-0.126,0.037,0.088,0.079,0.495,0.33,0.264,-0.03,0.036
0.11,0.116,0.006,-0.113,0.052,0.061,0.072,0.383,0.218,0.18,-0.082,-0.021
0.033,0.064,0.031,-0.049,0.001,0.047,0.077,0.289,0.129,0.146,-0.089,-0.038
-0.018,0.034,0.052,-0.008,-0.035,0.043,0.073,0.211,0.04,0.11,-0.138,-0.069
-0.033,-0.005,0.028,0.019,-0.031,0.011,0.076,0.145,-0.037,0.055,-0.185,-0.097
-0.028,-0.041,-0.014,0.035,-0.007,-0.027,0.081,0.092,-0.066,0.011,-0.197,-0.1
-0.093,-0.055,0.037,0.074,-0.065,-0.009,0.094,0.077,-0.098,-0.036,-0.222,-0.132
-0.077,-0.083,-0.006,0.08,-0.035,-0.045,0.082,0.03,-0.166,-0.086,-0.278,-0.182
-0.091,-0.159,-0.068,0.126,-0.012,-0.113,0.097,0.002,-0.189,-0.103,-0.316,-0.212
-0.137,-0.222,-0.085,0.18,-0.026,-0.153,0.123,0.012,-0.193,-0.116,-0.337,-0.237
-0.077,-0.222,-0.145,0.15,0.034,-0.184,0.102,0.026,-0.196,-0.128,-0.345,-0.254
-0.056,-0.18,-0.124,0.119,0.034,-0.152,0.148,0.079,-0.157,-0.081,-0.295,-0.212
-0.019,-0.075,-0.057,0.047,0.019,-0.066,0.131,0.089,-0.102,-0.005,-0.244,-0.153
-0.056,0.011,0.067,0.022,-0.062,0.039,0.219,0.135,-0.034,0.056,-0.182,-0.105
-0.089,0.101,0.191,-0.006,-0.14,0.146,0.268,0.143,-0.017,0.093,-0.146,-0.07
-0.036,0.185,0.222,-0.075,-0.129,0.203,0.11,0.109,0.033,0.169,-0.108,-0.029
-0.045,0.182,0.228,-0.069,-0.137,0.205,0.062,0.101,0.006,0.185,-0.095,-0.021
-0.016,0.172,0.187,-0.078,-0.102,0.179,0.022,0.092,-0.013,0.202,-0.126,-0.045
-0.004,0.144,0.148,-0.07,-0.076,0.146,0.039,0.11,-0.002,0.157,-0.136,-0.062
0.002,0.133,0.131,-0.068,-0.065,0.132,0.072,0.323,0.262,0.331,-0.013,-0.024
0.145,0.227,0.082,-0.186,0.031,0.154,-0.068,0.117,0.466,0.746,0.454,0.35
0.602,0.533,-0.069,-0.567,0.335,0.231,-0.649,-1.313,-0.399,0.893,1.109,1.077
0.944,0.538,-0.406,-0.741,0.675,0.066,-0.959,-2.143,-1.315,0.474,0.781,0.983
0.27,-0.056,-0.326,-0.107,0.298,-0.191,-0.277,-1.609,-1.669,-0.769,-0.653,-0.082
-0.311,-0.311,0.0,0.311,-0.155,-0.155,0.226,-0.933,-1.281,-1.0,-1.002,-0.473
-0.158,-0.149,0.009,0.153,-0.083,-0.069,0.211,-0.298,-0.422,-0.22,-0.429,-0.265
-0.137,-0.083,0.053,0.11,-0.095,-0.015,0.152,0.049,-0.118,-0.007,-0.29,-0.191
-0.141,-0.055,0.086,0.098,-0.113,0.015,0.072,0.138,-0.026,0.087,-0.242,-0.14
-0.122,-0.07,0.053,0.096,-0.087,-0.009,0.093,0.163,-0.029,0.083,-0.254,-0.166
-0.064,-0.107,-0.043,0.086,-0.01,-0.075,0.106,0.157,-0.034,0.075,-0.26,-0.177
-0.057,-0.138,-0.081,0.097,0.012,-0.109,0.105,0.176,-0.01,0.072,-0.24,-0.174
-0.085,-0.16,-0.075,0.123,-0.005,-0.118,0.106,0.168,-0.036,0.037,-0.268,-0.194
-0.025,-0.133,-0.107,0.079,0.041,-0.12,0.102,0.216,0.031,0.095,-0.223,-0.184
-0.031,-0.052,-0.022,0.041,-0.004,-0.037,0.115,0.265,0.099,0.16,-0.141,-0.121
0.019,0.046,0.027,-0.033,-0.004,0.036,0.134,0.304,0.173,0.233,-0.092,-0.054
0.005,0.12,0.116,-0.063,-0.056,0.118,0.256,0.393,0.256,0.304,-0.04,-0.028
-0.058,0.195,0.253,-0.069,-0.155,0.224,0.245,0.436,0.336,0.375,0.028,0.023
0.01,0.271,0.261,-0.141,-0.126,0.266,0.091,0.463,0.403,0.426,0.071,0.075
0.089,0.282,0.194,-0.186,-0.053,0.238,0.045,0.5,0.426,0.448,0.085,0.081
0.092,0.261,0.169,-0.177,-0.039,0.215,0.03,0.551,0.463,0.454,0.089,0.086
0.064,0.256,0.192,-0.16,-0.064,0.223,0.011,0.595,0.474,0.452,0.102,0.099
0.068,0.246,0.178,-0.158,-0.055,0.212,0.008,0.582,0.437,0.418,0.082,0.085
0.079,0.252,0.173,-0.166,-0.047,0.212,0.025,0.549,0.389,0.386,0.047,0.076
0.085,0.248,0.163,-0.166,-0.039,0.205,0.027,0.478,0.307,0.342,0.003,0.055
0.045,0.191,0.146,-0.118,-0.051,0.168,0.018,0.39,0.226,0.311,-0.032,0.043
0.0,0.181,0.181,-0.09,-0.09,0.18,0.051,0.27,0.13,0.256,-0.065,0.034
-0.01,0.129,0.138,-0.06,-0.074,0.133,0.052,0.175,0.042,0.168,-0.118,-0.013
-0.032,0.034,0.066,-0.001,-0.049,0.05,0.035,0.113,-0.028,0.13,-0.13,-0.051
-0.037,0.014,0.051,0.011,-0.044,0.032,0.061,0.064,-0.067,0.09,-0.137,-0.065
-0.098,-0.033,0.066,0.065,-0.082,0.016,0.103,0.057,-0.1,0.064,-0.177,-0.075
-0.14,-0.087,0.053,0.113,-0.096,-0.017,0.1,0.0,-0.164,0.009,-0.232,-0.126
-0.124,-0.136,-0.011,0.13,-0.056,-0.073,0.091,0.006,-0.179,-0.029,-0.26,-0.173
-0.13,-0.179,-0.049,0.155,-0.041,-0.113,0.115,0.033,-0.209,-0.036,-0.295,-0.198
-0.099,-0.183,-0.084,0.141,-0.007,-0.134,0.117,-0.007,-0.191,-0.037,-0.285,-0.196
-0.055,-0.152,-0.097,0.104,0.021,-0.124,0.12,0.043,-0.124,0.018,-0.219,-0.151
-0.039,-0.051,-0.012,0.045,-0.014,-0.031,0.111,0.096,-0.095,0.078,-0.179,-0.102
-0.13,0.034,0.164,0.048,-0.147,0.098,0.229,0.143,-0.021,0.151,-0.123,-0.062
-0.132,0.091,0.223,0.02,-0.177,0.157,0.252,0.13,-0.012,0.171,-0.09,-0.028
-0.076,0.168,0.244,-0.047,-0.16,0.206,0.093,0.098,0.04,0.208,-0.054,0.019
-0.081,0.174,0.255,-0.046,-0.169,0.214,0.047,0.092,0.044,0.211,-0.026,0.046
0.002,0.154,0.153,-0.078,-0.076,0.153,-0.003,0.066,0.02,0.23,-0.039,0.036
0.002,0.144,0.142,-0.073,-0.07,0.142,0.039,0.114,0.033,0.196,-0.079,0.009
0.048,0.141,0.093,-0.094,-0.023,0.117,0.064,0.341,0.278,0.35,0.028,0.023
0.161,0.217,0.056,-0.189,0.053,0.136,-0.087,0.139,0.493,0.758,0.487,0.375
0.604,0.517,-0.087,-0.56,0.345,0.215,-0.663,-1.305,-0.325,0.909,1.117,1.083
0.96,0.53,-0.43,-0.744,0.695,0.049,-0.968,-2.164,-1.272,0.428,0.721,0.939
0.226,-0.078,-0.304,-0.074,0.265,-0.191,-0.252,-1.635,-1.665,-0.824,-0.686,-0.109
-0.334,-0.317,0.016,0.325,-0.175,-0.15,0.239,-0.934,-1.23,-0.947,-0.914,-0.41
-0.197,-0.153,0.044,0.175,-0.12,-0.054,0.206,-0.244,-0.342,-0.146,-0.352,-0.176
-0.195,-0.132,0.062,0.163,-0.128,-0.035,0.159,0.065,-0.096,0.011,-0.24,-0.127
-0.149,-0.12,0.029,0.134,-0.089,-0.045,0.098,0.148,-0.017,0.106,-0.201,-0.103
-0.139,-0.126,0.013,0.132,-0.075,-0.056,0.108,0.19,-0.012,0.113,-0.21,-0.11
-0.128,-0.142,-0.014,0.135,-0.056,-0.078,0.126,0.165,-0.037,0.11,-0.2,-0.096
-0.037,-0.161,-0.125,0.099,0.044,-0.143,0.127,0.174,-0.012,0.112,-0.194,-0.135
-0.051,-0.171,-0.12,0.111,0.035,-0.145,0.099,0.161,-0.013,0.076,-0.191,-0.149
-0.044,-0.151,-0.107,0.098,0.031,-0.129,0.108,0.227,0.05,0.11,-0.179,-0.115
-0.003,-0.097,-0.094,0.05,0.046,-0.096,0.115,0.27,0.103,0.162,-0.141,-0.084
0.008,0.03,0.021,-0.019,-0.006,0.026,0.131,0.331,0.195,0.269,-0.04,-0.014
-0.018,0.112,0.131,-0.047,-0.075,0.121,0.257,0.399,0.261,0.318,0.012,0.026
-0.024,0.165,0.188,-0.071,-0.106,0.176,0.228,0.409,0.326,0.367,0.051,0.054
-0.001,0.249,0.25,-0.124,-0.126,0.249,0.078,0.464,0.398,0.443,0.091,0.098
0.025,0.248,0.223,-0.137,-0.099,0.236,0.041,0.518,0.441,0.488,0.113,0.114
0.064,0.221,0.157,-0.143,-0.047,0.189,0.028,0.57,0.453,0.479,0.102,0.099
0.048,0.216,0.168,-0.132,-0.06,0.192,0.03,0.591,0.449,0.463,0.103,0.094
0.083,0.198,0.115,-0.141,-0.016,0.156,0.031,0.57,0.433,0.428,0.082,0.082
0.074,0.19,0.116,-0.133,-0.021,0.153,0.028,0.552,0.368,0.361,0.04,0.075
0.022,0.173,0.151,-0.098,-0.065,0.161,0.033,0.497,0.306,0.325,0.036,0.07
-0.001,0.153,0.154,-0.076,-0.077,0.153,0.029,0.391,0.211,0.281,0.022,0.063
-0.061,0.115,0.177,-0.027,-0.119,0.146,0.029,0.278,0.119,0.236,0.0,0.059
-0.08,0.069,0.148,0.006,-0.114,0.108,0.046,0.179,0.041,0.19,-0.05,0.009
-0.125,0.05,0.176,0.037,-0.151,0.113,0.083,0.113,-0.04,0.138,-0.092,-0.022
-0.105,0.0,0.104,0.052,-0.105,0.052,0.052,0.08,-0.066,0.122,-0.118,-0.041
-0.1,-0.065,0.035,0.082,-0.067,-0.015,0.04,0.045,-0.12,0.069,-0.175,-0.083
-0.135,-0.092,0.042,0.113,-0.088,-0.025,0.078,0.005,-0.172,0.023,-0.215,-0.119
-0.12,-0.158,-0.039,0.139,-0.04,-0.098,0.091,-0.005,-0.198,0.005,-0.247,-0.167
-0.141,-0.198,-0.058,0.17,-0.041,-0.128,0.103,0.01,-0.213,-0.024,-0.258,-0.166
-0.103,-0.165,-0.062,0.134,-0.02,-0.113,0.104,0.015,-0.191,-0.021,-0.251,-0.163
-0.101,-0.128,-0.028,0.114,-0.036,-0.077,0.108,0.041,-0.158,0.005,-0.23,-0.143
-0.09,-0.027,0.064,0.058,-0.077,0.018,0.102,0.069,-0.096,0.064,-0.171,-0.088
-0.124,0.048,0.172,0.038,-0.148,0.11,0.232,0.126,-0.03,0.129,-0.112,-0.069
-0.151,0.094,0.245,0.028,-0.198,0.169,0.25,0.12,-0.026,0.167,-0.071,-0.018
-0.069,0.191,0.26,-0.061,-0.165,0.226,0.077,0.084,0.007,0.197,-0.045,0.011
-0.138,0.187,0.325,-0.025,-0.231,0.256,0.04,0.078,0.004,0.196,-0.041,0.028
-0.105,0.155,0.26,-0.025,-0.183,0.208,0.03,0.071,0.031,0.229,-0.034,0.045
-0.024,0.167,0.191,-0.072,-0.108,0.179,0.03,0.108,0.021,0.177,-0.057,-0.009
0.03,0.164,0.134,-0.098,-0.052,0.149,0.044,0.347,0.292,0.381,0.066,0.032
0.169,0.261,0.093,-0.215,0.038,0.177,-0.111,0.023,0.452,0.782,0.546,0.428
0.618,0.576,-0.042,-0.597,0.33,0.267,-0.749,-1.531,-0.43,0.919,1.152,1.091
0.913,0.503,-0.41,-0.707,0.661,0.047,-0.969,-2.251,-1.301,0.381,0.665,0.883
0.149,-0.123,-0.272,-0.013,0.211,-0.198,-0.231,-1.671,-1.683,-0.88,-0.714,-0.143
-0.363,-0.313,0.05,0.338,-0.206,-0.131,0.212,-0.957,-1.202,-0.894,-0.856,-0.39
-0.206,-0.136,0.07,0.17,-0.138,-0.033,0.186,-0.25,-0.331,-0.129,-0.311,-0.171
-0.162,-0.091,0.071,0.126,-0.116,-0.01,0.128,0.049,-0.102,0.021,-0.203,-0.128
-0.164,-0.056,0.108,0.11,-0.136,0.026,0.09,0.145,0.009,0.128,-0.157,-0.073
-0.118,-0.064,0.054,0.091,-0.086,-0.005,0.079,0.14,-0.029,0.078,-0.179,-0.126
-0.045,-0.122,-0.076,0.084,0.016,-0.099,0.061,0.113,-0.045,0.07,-0.18,-0.145
-0.096,-0.16,-0.063,0.128,-0.016,-0.111,0.093,0.157,-0.016,0.072,-0.176,-0.134
-0.069,-0.153,-0.084,0.111,0.008,-0.118,0.085,0.159,-0.018,0.047,-0.165,-0.152
-0.027,-0.144,-0.117,0.086,0.045,-0.13,0.098,0.21,0.042,0.115,-0.153,-0.145
-0.045,-0.07,-0.026,0.058,-0.009,-0.048,0.093,0.239,0.079,0.151,-0.124,-0.099
-0.028,0.061,0.09,-0.017,-0.059,0.076,0.119,0.31,0.187,0.245,-0.034,-0.014
-0.043,0.107,0.15,-0.033,-0.097,0.129,0.257,0.395,0.263,0.332,0.017,0.027
-0.074,0.172,0.246,-0.05,-0.16,0.208,0.213,0.427,0.34,0.393,0.106,0.09
-0.02,0.246,0.266,-0.114,-0.143,0.256,0.085,0.469,0.401,0.442,0.144,0.129
0.023,0.241,0.218,-0.132,-0.097,0.229,0.037,0.519,0.439,0.466,0.144,0.123
-0.004,0.228,0.232,-0.112,-0.119,0.23,0.034,0.59,0.482,0.486,0.177,0.139
0.04,0.211,0.171,-0.126,-0.066,0.191,0.032,0.611,0.446,0.469,0.142,0.128
0.084,0.199,0.115,-0.142,-0.016,0.157,0.0,0.585,0.408,0.432,0.12,0.119
0.042,0.188,0.146,-0.115,-0.052,0.167,0.012,0.555,0.369,0.404,0.108,0.11
0.0,0.168,0.167,-0.084,-0.084,0.167,0.016,0.477,0.288,0.35,0.064,0.101
-0.004,0.143,0.147,-0.07,-0.076,0.145,0.018,0.369,0.213,0.285,0.043,0.081
-0.043,0.097,0.141,-0.027,-0.092,0.119,0.031,0.26,0.123,0.23,0.004,0.059
-0.048,0.065,0.112,-0.009,-0.08,0.088,0.024,0.162,0.039,0.178,-0.042,0.032
-0.096,0.025,0.121,0.035,-0.108,0.073,0.03,0.096,0.0,0.136,-0.072,-0.001
-0.127,-0.018,0.109,0.072,-0.118,0.046,0.067,0.043,-0.069,0.083,-0.102,-0.014
-0.132,-0.048,0.084,0.09,-0.108,0.018,0.08,0.006,-0.13,0.039,-0.138,-0.055
-0.159,-0.104,0.054,0.131,-0.106,-0.025,0.071,-0.018,-0.155,0.007,-0.193,-0.102
-0.107,-0.138,-0.03,0.122,-0.038,-0.084,0.078,-0.054,-0.189,-0.027,-0.211,-0.147
-0.173,-0.171,0.002,0.172,-0.087,-0.084,0.071,-0.057,-0.209,-0.052,-0.23,-0.154
-0.18,-0.206,-0.026,0.193,-0.076,-0.116,0.079,-0.012,-0.184,-0.037,-0.238,-0.135
-0.113,-0.147,-0.034,0.13,-0.039,-0.09,0.106,0.03,-0.129,0.015,-0.171,-0.106
-0.092,-0.022,0.07,0.057,-0.081,0.024,0.085,0.054,-0.083,0.078,-0.112,-0.053
-0.104,0.051,0.156,0.027,-0.13,0.103,0.203,0.102,-0.028,0.132,-0.071,-0.016
-0.181,0.091,0.272,0.045,-0.227,0.181,0.224,0.092,-0.013,0.164,-0.031,0.023
-0.148,0.159,0.307,-0.006,-0.228,0.233,0.082,0.09,0.034,0.214,0.015,0.055
-0.118,0.19,0.308,-0.036,-0.213,0.249,0.034,0.077,0.017,0.217,0.012,0.059
-0.065,0.165,0.23,-0.051,-0.148,0.197,-0.022,0.049,0.002,0.232,-0.013,0.041
-0.052,0.126,0.178,-0.037,-0.115,0.152,0.014,0.107,0.024,0.181,-0.033,0.006
-0.017,0.129,0.146,-0.056,-0.082,0.137,0.043,0.341,0.307,0.382,0.086,0.039
0.178,0.242,0.064,-0.21,0.057,0.153,-0.151,-0.022,0.426,0.772,0.588,0.452
0.663,0.548,-0.115,-0.605,0.388,0.217,-0.795,-1.559,-0.455,0.882,1.149,1.101
0.884,0.446,-0.437,-0.665,0.66,0.004,-0.946,-2.225,-1.358,0.238,0.542,0.794
0.036,-0.176,-0.213,0.07,0.125,-0.194,-0.155,-1.618,-1.705,-0.984,-0.795,-0.206
-0.432,-0.28,0.152,0.356,-0.292,-0.064,0.23,-0.905,-1.144,-0.854,-0.803,-0.375
-0.198,-0.117,0.081,0.157,-0.139,-0.018,0.164,-0.235,-0.308,-0.105,-0.276,-0.141
-0.235,-0.131,0.105,0.183,-0.17,-0.013,0.117,0.05,-0.106,0.017,-0.214,-0.127
-0.254,-0.114,0.14,0.184,-0.197,0.013,0.084,0.119,-0.009,0.097,-0.14,-0.115
-0.211,-0.127,0.084,0.169,-0.147,-0.022,0.093,0.113,-0.049,0.065,-0.17,-0.123
-0.164,-0.139,0.025,0.151,-0.094,-0.057,0.073,0.126,-0.065,0.075,-0.176,-0.117
-0.122,-0.166,-0.044,0.144,-0.039,-0.105,0.077,0.137,-0.043,0.072,-0.172,-0.125
-0.103,-0.146,-0.043,0.125,-0.03,-0.094,0.07,0.121,-0.034,0.064,-0.178,-0.129
-0.085,-0.134,-0.049,0.11,-0.018,-0.091,0.087,0.195,0.043,0.104,-0.143,-0.105
-0.061,-0.07,-0.009,0.066,-0.025,-0.04,0.068,0.235,0.093,0.166,-0.084,-0.061
-0.034,0.061,0.096,-0.014,-0.065,0.078,0.108,0.291,0.184,0.255,-0.008,-0.014
-0.069,0.1,0.169,-0.015,-0.119,0.134,0.259,0.396,0.273,0.315,0.034,0.028
-0.053,0.2,0.253,-0.074,-0.153,0.226,0.16,0.428,0.327,0.378,0.094,0.083
0.021,0.294,0.273,-0.158,-0.126,0.283,0.033,0.426,0.373,0.418,0.138,0.115
0.03,0.284,0.254,-0.157,-0.112,0.269,0.035,0.5,0.436,0.459,0.17,0.135
0.015,0.275,0.26,-0.145,-0.123,0.267,0.005,0.554,0.453,0.473,0.174,0.137
0.058,0.252,0.193,-0.155,-0.067,0.222,-0.013,0.56,0.435,0.435,0.135,0.126
0.035,0.227,0.193,-0.131,-0.079,0.21,-0.028,0.562,0.419,0.384,0.117,0.122
0.001,0.18,0.18,-0.091,-0.09,0.18,-0.008,0.514,0.346,0.345,0.097,0.107
0.028,0.166,0.138,-0.097,-0.055,0.151,-0.002,0.443,0.282,0.305,0.073,0.091
-0.023,0.151,0.174,-0.064,-0.099,0.162,-0.005,0.335,0.209,0.264,0.058,0.084
-0.095,0.083,0.178,0.006,-0.137,0.13,0.01,0.212,0.091,0.213,0.019,0.054
-0.104,0.053,0.157,0.025,-0.13,0.104,0.016,0.129,0.02,0.157,-0.03,0.017
-0.082,0.024,0.106,0.029,-0.094,0.065,0.026,0.063,-0.059,0.121,-0.074,-0.011
-0.138,-0.013,0.126,0.075,-0.132,0.056,0.037,0.031,-0.1,0.092,-0.091,-0.034
-0.187,-0.049,0.138,0.118,-0.162,0.044,0.04,0.007,-0.123,0.072,-0.105,-0.044
-0.181,-0.087,0.094,0.134,-0.137,0.003,0.055,-0.045,-0.19,0.031,-0.164,-0.094
-0.191,-0.145,0.046,0.168,-0.118,-0.049,0.081,-0.063,-0.202,-0.026,-0.216,-0.145
-0.203,-0.195,0.007,0.199,-0.105,-0.094,0.072,-0.055,-0.209,-0.053,-0.229,-0.156
-0.167,-0.185,-0.018,0.176,-0.074,-0.101,0.074,-0.031,-0.192,-0.033,-0.217,-0.138
-0.095,-0.13,-0.035,0.113,-0.029,-0.082,0.08,0.022,-0.141,0.008,-0.177,-0.094
-0.094,-0.042,0.052,0.068,-0.072,0.005,0.097,0.06,-0.082,0.081,-0.101,-0.056
-0.142,0.028,0.169,0.057,-0.156,0.098,0.215,0.086,-0.034,0.126,-0.059,-0.014
-0.154,0.097,0.25,0.028,-0.203,0.173,0.197,0.067,-0.012,0.143,-0.023,0.019
-0.118,0.155,0.273,-0.019,-0.196,0.214,0.076,0.061,0.034,0.194,0.014,0.041
-0.128,0.174,0.302,-0.023,-0.215,0.238,0.019,0.054,0.013,0.175,0.006,0.046
-0.125,0.179,0.304,-0.028,-0.214,0.241,-0.027,0.047,0.018,0.173,-0.015,0.024
-0.063,0.176,0.239,-0.057,-0.151,0.207,-0.018,0.098,0.016,0.155,-0.041,0.001
-0.006,0.184,0.19,-0.09,-0.098,0.187,0.0,0.34,0.352,0.435,0.15,0.077
0.189,0.337,0.148,-0.263,0.02,0.242,-0.23,-0.217,0.362,0.82,0.701,0.541
0.732,0.654,-0.077,-0.693,0.404,0.288,-0.89,-1.814,-0.618,0.887,1.207,1.149
0.809,0.424,-0.386,-0.616,0.597,0.019,-0.914,-2.245,-1.44,0.147,0.45,0.716
0.0,-0.194,-0.194,0.097,0.098,-0.194,-0.126,-1.586,-1.713,-1.049,-0.843,-0.259
-0.386,-0.266,0.12,0.326,-0.253,-0.073,0.198,-0.853,-1.054,-0.767,-0.724,-0.335
-0.227,-0.137,0.09,0.182,-0.159,-0.023,0.155,-0.172,-0.236,-0.046,-0.212,-0.109
-0.199,-0.095,0.103,0.147,-0.151,0.004,0.125,0.064,-0.082,0.061,-0.135,-0.085
-0.199,-0.055,0.143,0.126,-0.171,0.044,0.086,0.13,-0.02,0.135,-0.1,-0.067
-0.159,-0.106,0.053,0.132,-0.106,-0.026,0.094,0.128,-0.032,0.092,-0.129,-0.084
-0.103,-0.155,-0.052,0.13,-0.025,-0.103,0.088,0.119,-0.02,0.111,-0.116,-0.096
-0.078,-0.193,-0.115,0.135,0.019,-0.153,0.099,0.136,-0.029,0.093,-0.125,-0.117
-0.096,-0.191,-0.095,0.144,-0.001,-0.143,0.095,0.144,-0.023,0.098,-0.129,-0.107
-0.09,-0.157,-0.067,0.124,-0.011,-0.112,0.104,0.205,0.045,0.12,-0.093,-0.085
-0.067,-0.079,-0.012,0.073,-0.027,-0.046,0.101,0.252,0.127,0.198,-0.032,-0.028
-0.066,0.033,0.099,0.017,-0.082,0.065,0.151,0.326,0.229,0.308,0.035,0.039
-0.068,0.083,0.152,-0.008,-0.111,0.117,0.259,0.398,0.295,0.355,0.094,0.074
-0.047,0.175,0.222,-0.065,-0.135,0.199,0.161,0.407,0.363,0.418,0.151,0.12
0.008,0.243,0.235,-0.126,-0.114,0.239,0.029,0.438,0.422,0.454,0.183,0.146
0.006,0.229,0.223,-0.118,-0.109,0.226,0.004,0.5,0.466,0.498,0.208,0.159
-0.014,0.232,0.246,-0.109,-0.13,0.239,-0.002,0.547,0.475,0.503,0.201,0.155
0.035,0.226,0.191,-0.131,-0.078,0.208,-0.008,0.552,0.44,0.461,0.183,0.146
0.039,0.222,0.183,-0.131,-0.072,0.202,-0.025,0.54,0.405,0.423,0.169,0.141
-0.024,0.186,0.21,-0.081,-0.117,0.198,-0.016,0.516,0.371,0.395,0.147,0.133
-0.045,0.15,0.195,-0.053,-0.12,0.172,-0.015,0.442,0.314,0.359,0.126,0.128
-0.049,0.135,0.183,-0.043,-0.116,0.159,-0.011,0.327,0.218,0.299,0.084,0.103
-0.075,0.089,0.164,-0.007,-0.12,0.126,-0.007,0.213,0.117,0.251,0.048,0.073
-0.117,0.052,0.169,0.032,-0.143,0.11,0.019,0.138,0.052,0.215,0.016,0.051
-0.086,0.036,0.123,0.025,-0.105,0.08,0.041,0.044,-0.045,0.171,-0.05,0.002
-0.11,0.018,0.128,0.046,-0.119,0.073,0.027,-0.006,-0.102,0.116,-0.083,-0.04
-0.165,-0.026,0.138,0.095,-0.151,0.056,0.036,-0.02,-0.126,0.058,-0.107,-0.062
-0.109,-0.091,0.017,0.099,-0.063,-0.036,0.033,-0.057,-0.169,0.018,-0.145,-0.092
-0.15,-0.155,-0.005,0.153,-0.072,-0.08,0.063,-0.036,-0.151,0.031,-0.15,-0.102
-0.149,-0.185,-0.035,0.167,-0.057,-0.11,0.066,-0.041,-0.181,0.017,-0.163,-0.128
-0.134,-0.173,-0.039,0.154,-0.047,-0.106,0.062,-0.022,-0.159,0.025,-0.145,-0.115
-0.11,-0.123,-0.013,0.117,-0.048,-0.068,0.075,0.021,-0.091,0.077,-0.111,-0.066
-0.089,-0.02,0.07,0.054,-0.079,0.025,0.087,0.045,-0.06,0.116,-0.068,-0.035
-0.185,0.045,0.23,0.07,-0.208,0.137,0.227,0.104,0.007,0.168,-0.024,0.017
-0.144,0.11,0.254,0.017,-0.199,0.182,0.184,0.083,0.032,0.215,0.022,0.049
-0.139,0.171,0.31,-0.016,-0.224,0.24,0.039,0.085,0.07,0.265,0.092,0.097
-0.1,0.149,0.249,-0.025,-0.175,0.199,-0.022,0.052,0.048,0.259,0.093,0.106
-0.037,0.137,0.174,-0.051,-0.105,0.155,-0.048,0.025,0.027,0.249,0.06,0.067
-0.086,0.105,0.19,-0.01,-0.138,0.147,-0.008,0.135,0.072,0.238,0.039,0.061
-0.006,0.119,0.125,-0.057,-0.066,0.121,0.003,0.35,0.435,0.532,0.241,0.144
0.228,0.287,0.059,-0.258,0.084,0.173,-0.253,-0.283,0.332,0.89,0.835,0.674
0.751,0.558,-0.193,-0.654,0.472,0.182,-0.9,-1.757,-0.669,0.898,1.282,1.252
0.709,0.311,-0.398,-0.51,0.553,-0.043,-0.803,-2.061,-1.497,-0.02,0.306,0.62
-0.154,-0.3,-0.146,0.227,-0.003,-0.223,0.002,-1.409,-1.689,-1.129,-0.923,-0.339
-0.441,-0.305,0.137,0.373,-0.289,-0.084,0.243,-0.711,-0.899,-0.623,-0.607,-0.285
-0.261,-0.138,0.123,0.199,-0.192,-0.007,0.156,-0.146,-0.19,0.014,-0.159,-0.1
-0.155,-0.108,0.048,0.131,-0.101,-0.03,0.091,0.05,-0.077,0.082,-0.108,-0.107
-0.11,-0.068,0.042,0.089,-0.076,-0.012,0.054,0.114,-0.005,0.166,-0.065,-0.086
-0.175,-0.131,0.044,0.153,-0.109,-0.043,0.071,0.093,-0.033,0.113,-0.1,-0.1
-0.146,-0.178,-0.032,0.163,-0.057,-0.105,0.051,0.12,-0.005,0.143,-0.079,-0.084
-0.138,-0.225,-0.087,0.182,-0.025,-0.156,0.081,0.14,0.021,0.123,-0.097,-0.094
-0.112,-0.219,-0.107,0.166,-0.002,-0.163,0.098,0.13,0.028,0.13,-0.082,-0.078
-0.077,-0.171,-0.095,0.124,0.009,-0.133,0.115,0.191,0.074,0.182,-0.033,-0.045
-0.026,-0.071,-0.045,0.049,0.01,-0.058,0.099,0.233,0.142,0.244,0.023,-0.003
-0.019,0.011,0.029,0.004,-0.024,0.02,0.141,0.303,0.229,0.326,0.086,0.049
-0.098,0.068,0.166,0.015,-0.132,0.117,0.257,0.404,0.338,0.418,0.171,0.111
-0.045,0.194,0.239,-0.074,-0.142,0.216,0.127,0.417,0.384,0.471,0.218,0.158
0.022,0.226,0.204,-0.124,-0.091,0.215,0.018,0.417,0.419,0.504,0.235,0.166
0.06,0.217,0.157,-0.139,-0.049,0.187,0.018,0.461,0.476,0.537,0.239,0.17
0.042,0.209,0.167,-0.126,-0.062,0.188,-0.011,0.518,0.489,0.519,0.22,0.181
0.027,0.171,0.144,-0.099,-0.059,0.157,-0.009,0.545,0.466,0.493,0.215,0.167
0.025,0.142,0.117,-0.084,-0.046,0.13,-0.024,0.507,0.415,0.455,0.184,0.137
-0.025,0.118,0.143,-0.047,-0.084,0.13,-0.017,0.462,0.376,0.416,0.152,0.129
-0.028,0.094,0.122,-0.033,-0.075,0.108,-0.015,0.396,0.303,0.374,0.133,0.121
-0.039,0.074,0.114,-0.017,-0.077,0.093,-0.013,0.292,0.212,0.325,0.12,0.111
-0.093,0.029,0.122,0.031,-0.107,0.075,-0.001,0.188,0.127,0.275,0.09,0.091
-0.105,-0.018,0.087,0.061,-0.096,0.034,0.006,0.103,0.034,0.226,0.036,0.042
-0.127,-0.032,0.095,0.079,-0.111,0.032,0.02,0.049,-0.021,0.174,0.011,0.012
-0.133,-0.083,0.049,0.108,-0.091,-0.017,0.031,0.007,-0.069,0.128,-0.022,-0.012
-0.137,-0.119,0.018,0.127,-0.077,-0.05,0.02,-0.042,-0.131,0.083,-0.08,-0.07
-0.196,-0.159,0.037,0.177,-0.116,-0.061,0.035,-0.046,-0.159,0.05,-0.098,-0.089
-0.183,-0.226,-0.042,0.205,-0.07,-0.134,0.085,-0.023,-0.151,0.051,-0.113,-0.097
-0.197,-0.232,-0.035,0.214,-0.08,-0.133,0.067,-0.029,-0.154,0.039,-0.146,-0.125
-0.167,-0.203,-0.037,0.185,-0.065,-0.12,0.065,-0.018,-0.138,0.044,-0.134,-0.117
-0.117,-0.136,-0.019,0.126,-0.048,-0.077,0.069,0.012,-0.099,0.09,-0.089,-0.073
-0.144,-0.059,0.086,0.101,-0.115,0.013,0.12,0.076,-0.034,0.167,-0.037,-0.032
-0.179,-0.002,0.178,0.09,-0.178,0.088,0.244,0.087,-0.007,0.209,-0.001,0.002
-0.179,0.084,0.263,0.047,-0.221,0.173,0.156,0.038,0.027,0.263,0.057,0.052
-0.134,0.116,0.251,0.009,-0.193,0.183,0.02,0.031,0.043,0.267,0.081,0.071
-0.125,0.101,0.226,0.012,-0.175,0.163,-0.023,0.038,0.031,0.274,0.105,0.085
-0.14,0.066,0.206,0.037,-0.173,0.136,0.002,0.068,0.049,0.285,0.133,0.085
-0.108,0.049,0.157,0.029,-0.133,0.103,0.037,0.187,0.139,0.3,0.115,0.056
0.025,0.109,0.084,-0.067,-0.03,0.097,-0.02,0.294,0.521,0.691,0.398,0.234
0.32,0.351,0.031,-0.335,0.145,0.191,-0.434,-0.734,0.076,0.97,1.084,0.898
0.857,0.588,-0.269,-0.722,0.563,0.159,-1.007,-2.047,-0.997,0.829,1.298,1.277
0.501,0.107,-0.394,-0.304,0.447,-0.143,-0.606,-1.882,-1.591,-0.255,0.041,0.406
-0.33,-0.397,-0.068,0.364,-0.131,-0.232,0.113,-1.194,-1.547,-1.103,-0.933,-0.369
-0.272,-0.264,0.008,0.268,-0.14,-0.127,0.205,-0.522,-0.652,-0.38,-0.436,-0.223
-0.192,-0.168,0.025,0.18,-0.108,-0.071,0.116,-0.05,-0.11,0.076,-0.118,-0.095
-0.212,-0.167,0.045,0.189,-0.128,-0.061,0.052,0.064,-0.037,0.119,-0.093,-0.072
-0.184,-0.164,0.02,0.174,-0.102,-0.072,0.082,0.124,0.043,0.199,-0.04,-0.056
-0.154,-0.178,-0.024,0.166,-0.065,-0.101,0.082,0.11,0.013,0.163,-0.068,-0.085
-0.088,-0.2,-0.113,0.144,0.013,-0.156,0.07,0.126,0.043,0.189,-0.06,-0.104
-0.135,-0.223,-0.087,0.179,-0.024,-0.155,0.082,0.132,0.021,0.155,-0.079,-0.118
-0.072,-0.195,-0.123,0.134,0.026,-0.159,0.059,0.15,0.039,0.178,-0.047,-0.107
-0.042,-0.172,-0.13,0.107,0.045,-0.151,0.089,0.211,0.115,0.232,-0.006,-0.062
-0.046,-0.077,-0.031,0.061,-0.007,-0.054,0.092,0.263,0.192,0.32,0.061,0.014
-0.055,0.051,0.105,0.002,-0.08,0.078,0.183,0.338,0.276,0.387,0.128,0.055
-0.103,0.144,0.247,-0.02,-0.175,0.195,0.24,0.381,0.339,0.434,0.164,0.085
-0.072,0.225,0.296,-0.077,-0.184,0.26,0.075,0.378,0.398,0.502,0.222,0.121
-0.004,0.268,0.272,-0.132,-0.138,0.27,-0.005,0.42,0.455,0.542,0.254,0.146
0.008,0.273,0.266,-0.141,-0.129,0.269,-0.015,0.48,0.487,0.55,0.248,0.141
-0.013,0.239,0.252,-0.113,-0.133,0.246,-0.038,0.508,0.497,0.561,0.239,0.144
-0.01,0.224,0.234,-0.107,-0.123,0.229,-0.039,0.512,0.476,0.542,0.241,0.152
-0.019,0.219,0.238,-0.101,-0.129,0.228,-0.02,0.5,0.434,0.484,0.237,0.138
-0.023,0.203,0.226,-0.091,-0.125,0.214,-0.018,0.456,0.375,0.453,0.201,0.124
-0.013,0.181,0.194,-0.085,-0.104,0.187,-0.042,0.372,0.286,0.39,0.16,0.09
-0.02,0.134,0.155,-0.057,-0.088,0.144,-0.02,0.252,0.164,0.321,0.111,0.058
-0.094,0.109,0.203,-0.007,-0.149,0.156,-0.005,0.163,0.073,0.274,0.059,0.036
-0.131,0.077,0.208,0.026,-0.169,0.142,0.021,0.09,0.007,0.212,0.019,0.014
-0.11,0.04,0.151,0.035,-0.131,0.095,0.029,0.019,-0.068,0.163,-0.027,-0.026
-0.151,0.013,0.164,0.069,-0.157,0.088,0.01,-0.022,-0.112,0.119,-0.077,-0.079
-0.155,-0.034,0.12,0.094,-0.137,0.042,0.011,-0.067,-0.15,0.073,-0.119,-0.108
-0.184,-0.106,0.078,0.145,-0.131,-0.014,0.015,-0.06,-0.163,0.038,-0.148,-0.142
-0.223,-0.159,0.064,0.19,-0.143,-0.047,0.05,-0.037,-0.147,0.036,-0.162,-0.162
-0.226,-0.149,0.077,0.187,-0.151,-0.035,0.05,-0.032,-0.161,0.034,-0.153,-0.158
-0.19,-0.139,0.051,0.164,-0.12,-0.044,0.068,0.016,-0.117,0.07,-0.128,-0.134
-0.131,-0.092,0.039,0.112,-0.085,-0.027,0.069,0.051,-0.053,0.145,-0.068,-0.072
-0.149,0.011,0.161,0.068,-0.155,0.086,0.131,0.086,-0.018,0.205,-0.006,-0.047
-0.165,0.067,0.232,0.049,-0.199,0.149,0.244,0.11,0.023,0.23,-0.01,-0.049
-0.139,0.14,0.279,0.0,-0.209,0.209,0.108,0.078,0.056,0.263,0.027,-0.002
-0.098,0.169,0.268,-0.036,-0.184,0.218,0.016,0.051,0.046,0.272,0.064,0.035
-0.079,0.127,0.206,-0.024,-0.143,0.167,-0.02,0.048,0.051,0.276,0.064,0.04
-0.117,0.082,0.2,0.017,-0.158,0.141,-0.022,0.074,0.062,0.259,0.046,0.022
-0.101,0.053,0.154,0.023,-0.128,0.103,0.027,0.238,0.204,0.364,0.098,0.029
0.037,0.108,0.071,-0.073,-0.017,0.089,-0.036,0.296,0.515,0.706,0.415,0.235
0.403,0.362,-0.041,-0.382,0.222,0.16,-0.472,-0.782,-0.003,0.885,1.003,0.882
0.879,0.522,-0.357,-0.7,0.618,0.082,-0.978,-1.978,-1.026,0.607,0.967,1.055
0.373,0.026,-0.348,-0.199,0.36,-0.161,-0.456,-1.756,-1.602,-0.531,-0.326,0.097
-0.409,-0.362,0.047,0.385,-0.228,-0.157,0.215,-1.063,-1.389,-1.016,-0.923,-0.443
-0.311,-0.225,0.086,0.268,-0.198,-0.069,0.193,-0.456,-0.534,-0.253,-0.384,-0.244
-0.2,-0.131,0.069,0.165,-0.134,-0.03,0.124,-0.048,-0.123,0.083,-0.155,-0.147
-0.18,-0.09,0.091,0.135,-0.135,0.001,0.086,0.066,-0.039,0.147,-0.104,-0.115
-0.148,-0.104,0.044,0.126,-0.095,-0.03,0.082,0.088,0.007,0.159,-0.101,-0.128
-0.174,-0.139,0.035,0.157,-0.104,-0.051,0.089,0.091,-0.004,0.138,-0.098,-0.127
-0.146,-0.198,-0.052,0.173,-0.047,-0.125,0.084,0.126,-0.011,0.161,-0.114,-0.15
-0.173,-0.218,-0.045,0.196,-0.064,-0.131,0.096,0.124,-0.027,0.14,-0.132,-0.162
-0.164,-0.168,-0.004,0.167,-0.08,-0.086,0.082,0.143,0.04,0.177,-0.093,-0.14
-0.079,-0.11,-0.031,0.094,-0.024,-0.07,0.071,0.201,0.096,0.219,-0.072,-0.12
-0.036,-0.012,0.024,0.024,-0.03,0.006,0.071,0.249,0.179,0.306,0.015,-0.05
-0.061,0.049,0.109,0.006,-0.085,0.079,0.188,0.319,0.259,0.372,0.079,0.0
-0.079,0.126,0.205,-0.024,-0.142,0.166,0.228,0.392,0.326,0.432,0.128,0.042
-0.042,0.208,0.25,-0.083,-0.146,0.229,0.072,0.392,0.39,0.495,0.176,0.084
-0.013,0.206,0.219,-0.097,-0.116,0.212,0.01,0.423,0.45,0.539,0.211,0.107
-0.006,0.191,0.197,-0.093,-0.101,0.194,0.015,0.503,0.487,0.559,0.232,0.133
0.032,0.179,0.147,-0.106,-0.058,0.163,0.009,0.51,0.477,0.542,0.215,0.129
0.026,0.16,0.133,-0.093,-0.054,0.146,0.005,0.49,0.462,0.519,0.186,0.114
0.001,0.146,0.145,-0.073,-0.072,0.145,0.0,0.49,0.42,0.479,0.164,0.103
-0.021,0.129,0.15,-0.054,-0.085,0.139,-0.011,0.444,0.356,0.424,0.145,0.064
-0.114,0.094,0.207,0.01,-0.161,0.15,-0.015,0.363,0.303,0.4,0.139,0.085
-0.118,0.047,0.166,0.035,-0.142,0.106,0.031,0.261,0.203,0.352,0.09,0.069
-0.089,0.029,0.117,0.03,-0.103,0.073,0.033,0.147,0.087,0.284,0.016,-0.021
-0.13,0.014,0.144,0.057,-0.137,0.079,0.017,0.082,0.023,0.228,-0.011,-0.047
-0.134,-0.001,0.133,0.067,-0.134,0.066,0.024,0.034,-0.033,0.163,-0.071,-0.088
-0.151,-0.014,0.137,0.083,-0.144,0.061,0.009,-0.018,-0.091,0.127,-0.119,-0.122
-0.198,-0.059,0.14,0.128,-0.169,0.04,0.029,-0.058,-0.142,0.089,-0.144,-0.139
-0.21,-0.095,0.116,0.152,-0.163,0.011,0.053,-0.07,-0.167,0.056,-0.18,-0.179
-0.255,-0.136,0.119,0.195,-0.186,-0.008,0.067,-0.052,-0.187,0.045,-0.204,-0.214
-0.292,-0.163,0.129,0.227,-0.21,-0.016,0.053,-0.065,-0.193,0.018,-0.216,-0.212
-0.176,-0.137,0.04,0.156,-0.108,-0.048,0.063,-0.021,-0.146,0.052,-0.174,-0.188
-0.178,-0.111,0.068,0.144,-0.123,-0.021,0.088,0.041,-0.089,0.151,-0.111,-0.136
-0.17,-0.065,0.105,0.117,-0.137,0.02,0.153,0.074,-0.029,0.208,-0.068,-0.074
-0.124,-0.009,0.115,0.066,-0.12,0.053,0.246,0.09,0.003,0.234,-0.025,-0.053
-0.164,0.094,0.258,0.035,-0.212,0.176,0.123,0.055,0.045,0.283,0.017,-0.026
-0.13,0.167,0.297,-0.018,-0.214,0.231,0.012,0.019,0.026,0.262,0.011,-0.016
-0.117,0.163,0.28,-0.024,-0.198,0.221,-0.029,-0.004,0.04,0.283,0.037,-0.017
-0.136,0.146,0.282,-0.005,-0.209,0.214,-0.02,0.034,0.04,0.254,0.02,-0.038
-0.089,0.138,0.227,-0.024,-0.159,0.182,0.016,0.23,0.233,0.394,0.087,-0.02
0.033,0.228,0.195,-0.131,-0.081,0.211,-0.086,0.128,0.518,0.818,0.525,0.299
0.446,0.546,0.1,-0.496,0.173,0.323,-0.625,-1.174,-0.203,1.011,1.188,1.008
0.925,0.618,-0.307,-0.771,0.616,0.155,-1.028,-2.142,-1.169,0.632,0.981,1.032
0.319,-0.006,-0.325,-0.156,0.322,-0.166,-0.389,-1.705,-1.653,-0.652,-0.482,-0.042
-0.386,-0.319,0.068,0.352,-0.227,-0.125,0.168,-1.042,-1.352,-0.984,-0.94,-0.511
-0.252,-0.12,0.133,0.186,-0.192,0.007,0.144,-0.393,-0.439,-0.149,-0.332,-0.262
-0.193,-0.024,0.169,0.108,-0.181,0.073,0.085,-0.037,-0.11,0.102,-0.155,-0.197
-0.199,-0.001,0.197,0.1,-0.198,0.098,0.038,0.048,-0.049,0.184,-0.093,-0.159
-0.165,-0.047,0.119,0.106,-0.142,0.036,0.057,0.064,-0.03,0.177,-0.107,-0.16
-0.156,-0.064,0.091,0.11,-0.123,0.013,0.046,0.046,-0.034,0.142,-0.122,-0.18
-0.171,-0.104,0.066,0.137,-0.118,-0.019,0.059,0.102,-0.006,0.159,-0.129,-0.192
-0.183,-0.14,0.043,0.161,-0.113,-0.048,0.062,0.094,-0.01,0.13,-0.151,-0.206
-0.181,-0.122,0.059,0.151,-0.12,-0.031,0.049,0.127,0.043,0.181,-0.109,-0.18
-0.128,-0.064,0.064,0.096,-0.096,0.0,0.058,0.186,0.093,0.248,-0.07,-0.142
-0.03,0.039,0.069,-0.004,-0.05,0.053,0.045,0.215,0.165,0.312,-0.015,-0.098
-0.043,0.106,0.149,-0.032,-0.096,0.127,0.175,0.305,0.251,0.385,0.049,-0.044
-0.071,0.2,0.271,-0.064,-0.171,0.235,0.201,0.376,0.337,0.469,0.118,-0.003
-0.039,0.295,0.333,-0.128,-0.186,0.314,0.046,0.38,0.401,0.524,0.168,0.04
-0.026,0.296,0.323,-0.135,-0.175,0.309,0.012,0.452,0.472,0.572,0.205,0.075
-0.038,0.277,0.315,-0.12,-0.177,0.296,0.0,0.503,0.495,0.578,0.187,0.061
-0.022,0.253,0.274,-0.116,-0.148,0.263,-0.02,0.526,0.504,0.586,0.209,0.082
0.005,0.188,0.183,-0.097,-0.089,0.185,-0.005,0.548,0.511,0.593,0.227,0.11
0.021,0.125,0.104,-0.073,-0.041,0.114,0.02,0.503,0.455,0.544,0.171,0.077
-0.021,0.084,0.105,-0.032,-0.063,0.094,0.04,0.462,0.422,0.517,0.167,0.081
-0.04,0.06,0.099,-0.01,-0.07,0.079,0.066,0.385,0.34,0.476,0.161,0.099
-0.027,0.014,0.041,0.006,-0.034,0.027,0.08,0.274,0.212,0.402,0.125,0.064
-0.052,-0.042,0.01,0.047,-0.031,-0.016,0.072,0.175,0.12,0.337,0.061,0.018
-0.109,-0.079,0.03,0.094,-0.069,-0.024,0.082,0.104,0.034,0.279,0.01,-0.021
-0.159,-0.106,0.053,0.132,-0.106,-0.026,0.079,0.064,-0.006,0.259,-0.02,-0.058
-0.152,-0.164,-0.011,0.158,-0.07,-0.087,0.079,0.027,-0.037,0.229,-0.072,-0.091
-0.143,-0.209,-0.067,0.176,-0.038,-0.138,0.082,-0.006,-0.084,0.17,-0.089,-0.114
-0.168,-0.245,-0.076,0.207,-0.046,-0.16,0.084,-0.022,-0.092,0.146,-0.13,-0.143
-0.223,-0.287,-0.064,0.255,-0.079,-0.175,0.121,-0.012,-0.097,0.144,-0.157,-0.17
-0.17,-0.302,-0.132,0.236,-0.019,-0.216,0.113,-0.01,-0.095,0.136,-0.142,-0.169
-0.178,-0.285,-0.107,0.232,-0.035,-0.195,0.13,0.045,-0.063,0.162,-0.122,-0.148
-0.161,-0.2,-0.039,0.18,-0.061,-0.119,0.136,0.096,-0.025,0.224,-0.082,-0.109
-0.053,-0.111,-0.058,0.082,0.003,-0.084,0.171,0.114,0.048,0.281,-0.049,-0.072
-0.134,-0.045,0.09,0.089,-0.112,0.022,0.268,0.116,0.049,0.29,-0.013,-0.056
-0.11,0.037,0.147,0.037,-0.129,0.092,0.155,0.1,0.085,0.354,0.066,0.0
-0.102,0.083,0.185,0.009,-0.144,0.134,0.059,0.093,0.099,0.373,0.093,0.043
-0.13,0.069,0.199,0.03,-0.165,0.134,0.032,0.082,0.079,0.369,0.099,0.031
-0.093,0.028,0.122,0.032,-0.108,0.075,0.03,0.104,0.09,0.343,0.088,0.028
-0.066,-0.005,0.061,0.035,-0.064,0.028,0.074,0.28,0.278,0.483,0.135,0.021
0.051,0.055,0.004,-0.053,0.023,0.029,-0.007,0.246,0.545,0.842,0.516,0.296
0.498,0.313,-0.185,-0.405,0.342,0.063,-0.539,-0.965,-0.121,0.931,1.052,0.946
0.946,0.42,-0.526,-0.683,0.736,-0.053,-0.962,-2.003,-1.084,0.562,0.817,0.935
0.249,-0.041,-0.29,-0.104,0.27,-0.165,-0.328,-1.587,-1.519,-0.551,-0.452,-0.029
-0.396,-0.383,0.012,0.39,-0.204,-0.185,0.243,-0.943,-1.238,-0.871,-0.88,-0.478
-0.212,-0.284,-0.072,0.248,-0.069,-0.178,0.205,-0.383,-0.415,-0.095,-0.313,-0.241
-0.181,-0.235,-0.054,0.209,-0.063,-0.145,0.173,0.01,-0.056,0.192,-0.135,-0.148
-0.142,-0.229,-0.087,0.186,-0.028,-0.158,0.118,0.095,0.03,0.256,-0.071,-0.126
-0.158,-0.233,-0.075,0.196,-0.041,-0.153,0.114,0.145,0.065,0.259,-0.05,-0.13
-0.164,-0.244,-0.08,0.204,-0.041,-0.162,0.105,0.134,0.045,0.247,-0.103,-0.151
-0.116,-0.296,-0.18,0.206,0.032,-0.238,0.096,0.146,0.062,0.264,-0.107,-0.142
-0.163,-0.319,-0.156,0.241,-0.003,-0.237,0.101,0.157,0.042,0.247,-0.11,-0.162
-0.107,-0.281,-0.175,0.194,0.034,-0.228,0.073,0.16,0.057,0.258,-0.085,-0.165
-0.052,-0.25,-0.197,0.151,0.073,-0.223,0.12,0.219,0.136,0.311,-0.037,-0.121
-0.018,-0.119,-0.1,0.068,0.041,-0.109,0.105,0.256,0.213,0.394,0.036,-0.08
-0.016,-0.03,-0.014,0.023,-0.001,-0.021,0.187,0.328,0.281,0.45,0.081,-0.041
-0.065,0.014,0.078,0.025,-0.072,0.046,0.294,0.41,0.374,0.527,0.142,0.01
0.002,0.106,0.103,-0.054,-0.051,0.104,0.132,0.416,0.431,0.592,0.218,0.067
0.045,0.157,0.112,-0.101,-0.034,0.134,0.032,0.441,0.476,0.636,0.251,0.103
0.015,0.17,0.154,-0.093,-0.07,0.162,-0.002,0.472,0.493,0.635,0.243,0.093
0.044,0.164,0.12,-0.104,-0.038,0.142,-0.024,0.49,0.488,0.632,0.239,0.092
0.056,0.148,0.092,-0.102,-0.019,0.12,-0.003,0.493,0.483,0.602,0.204,0.083
0.04,0.11,0.07,-0.075,-0.016,0.09,-0.007,0.463,0.445,0.558,0.18,0.079
0.02,0.072,0.052,-0.046,-0.016,0.061,0.029,0.436,0.392,0.53,0.177,0.072
-0.008,0.023,0.032,-0.008,-0.02,0.027,0.032,0.356,0.298,0.46,0.114,0.034
-0.007,-0.007,0.0,0.007,-0.003,-0.004,0.017,0.243,0.195,0.426,0.093,0.021
0.007,-0.044,-0.051,0.018,0.03,-0.047,0.04,0.171,0.117,0.365,0.064,-0.025
-0.043,-0.119,-0.076,0.081,0.016,-0.097,0.065,0.109,0.057,0.31,0.012,-0.059
-0.126,-0.164,-0.039,0.145,-0.043,-0.102,0.093,0.06,0.01,0.285,-0.023,-0.075
-0.143,-0.167,-0.024,0.156,-0.06,-0.095,0.096,0.02,-0.046,0.234,-0.06,-0.109
-0.146,-0.169,-0.024,0.158,-0.061,-0.096,0.098,-0.005,-0.076,0.192,-0.102,-0.157
-0.162,-0.214,-0.051,0.188,-0.055,-0.132,0.108,-0.042,-0.142,0.127,-0.153,-0.195
-0.158,-0.245,-0.087,0.201,-0.035,-0.166,0.099,-0.012,-0.108,0.164,-0.152,-0.202
-0.228,-0.29,-0.062,0.259,-0.082,-0.176,0.139,0.028,-0.11,0.146,-0.176,-0.245
-0.107,-0.273,-0.166,0.19,0.03,-0.219,0.154,0.235,0.185,0.399,-0.017,-0.17
0.144,-0.079,-0.223,-0.033,0.184,-0.15,-0.017,0.012,0.38,0.843,0.544,0.276
0.603,0.338,-0.266,-0.47,0.434,0.036,-0.575,-1.292,-0.513,0.972,1.202,1.038
0.762,0.288,-0.475,-0.525,0.618,-0.093,-0.614,-1.779,-1.426,0.202,0.495,0.739
-0.094,-0.241,-0.147,0.167,0.027,-0.193,0.143,-1.13,-1.611,-0.986,-0.904,-0.352
-0.399,-0.223,0.176,0.311,-0.287,-0.024,0.342,-0.56,-0.907,-0.569,-0.69,-0.41
-0.137,-0.036,0.102,0.086,-0.119,0.033,0.122,-0.073,-0.087,0.249,-0.076,-0.126
-0.159,0.002,0.161,0.078,-0.16,0.082,0.067,0.07,0.079,0.332,-0.001,-0.094
-0.086,0.019,0.104,0.034,-0.095,0.061,0.042,0.088,0.141,0.406,0.032,-0.063
-0.122,-0.034,0.088,0.078,-0.104,0.026,0.032,0.15,0.161,0.407,0.039,-0.065
-0.097,-0.044,0.053,0.07,-0.075,0.005,0.024,0.15,0.159,0.44,0.07,-0.05
-0.063,-0.074,-0.012,0.069,-0.025,-0.043,0.042,0.172,0.193,0.452,0.09,-0.071
-0.088,-0.094,-0.006,0.091,-0.041,-0.05,0.073,0.212,0.207,0.477,0.112,-0.062
-0.027,-0.099,-0.072,0.064,0.022,-0.085,0.068,0.224,0.188,0.483,0.048,-0.059
-0.058,-0.094,-0.036,0.076,-0.01,-0.065,0.058,0.219,0.23,0.487,0.076,-0.048
-0.022,-0.088,-0.066,0.055,0.022,-0.077,0.081,0.274,0.293,0.526,0.138,-0.044
0.016,-0.116,-0.132,0.05,0.075,-0.124,0.077,0.307,0.326,0.539,0.121,-0.047
-0.009,-0.139,-0.13,0.074,0.061,-0.134,0.079,0.351,0.383,0.575,0.134,-0.043
0.001,-0.137,-0.137,0.068,0.069,-0.137,0.121,0.399,0.441,0.625,0.166,-0.047
0.003,-0.149,-0.152,0.074,0.077,-0.15,0.139,0.433,0.459,0.634,0.156,-0.042
-0.009,-0.17,-0.162,0.09,0.077,-0.165,0.113,0.455,0.435,0.609,0.138,-0.06
0.003,-0.151,-0.154,0.074,0.079,-0.153,0.068,0.414,0.435,0.619,0.158,-0.054
0.058,-0.109,-0.168,0.026,0.113,-0.138,0.09,0.414,0.426,0.611,0.14,-0.027
0.097,-0.064,-0.161,-0.016,0.129,-0.112,0.105,0.424,0.418,0.618,0.167,0.023
0.095,-0.007,-0.102,-0.044,0.099,-0.055,0.122,0.378,0.365,0.609,0.198,0.062
-0.02,0.016,0.035,0.002,-0.028,0.025,0.252,0.303,0.277,0.557,0.179,0.067
-0.078,0.026,0.104,0.026,-0.091,0.064,0.213,0.205,0.232,0.542,0.181,0.067
-0.029,0.062,0.091,-0.017,-0.06,0.076,0.057,0.107,0.162,0.485,0.129,0.027
-0.043,0.051,0.095,-0.005,-0.069,0.073,0.041,0.068,0.136,0.48,0.121,0.013
-0.059,0.009,0.068,0.025,-0.063,0.038,0.034,0.05,0.082,0.442,0.102,-0.005
-0.079,-0.007,0.072,0.043,-0.075,0.032,0.004,0.039,0.075,0.442,0.077,-0.021
-0.088,-0.038,0.05,0.063,-0.069,0.006,0.031,0.056,0.046,0.396,0.052,-0.059
-0.015,-0.039,-0.024,0.027,0.005,-0.031,0.053,0.221,0.219,0.462,0.036,-0.127
0.036,0.026,-0.01,-0.031,0.023,0.008,-0.03,0.121,0.423,0.813,0.423,0.218
0.539,0.254,-0.286,-0.396,0.412,-0.016,-0.562,-1.013,-0.368,0.931,1.061,0.976
0.891,0.362,-0.529,-0.626,0.709,-0.083,-0.854,-1.692,-1.156,0.582,0.816,0.935
0.098,-0.082,-0.18,-0.008,0.139,-0.131,-0.113,-1.107,-1.326,-0.456,-0.471,-0.076
-0.42,-0.364,0.055,0.392,-0.237,-0.154,0.39,-0.582,-0.972,-0.618,-0.779,-0.469
-0.23,-0.287,-0.057,0.258,-0.086,-0.172,0.281,-0.195,-0.269,0.128,-0.229,-0.251
-0.148,-0.299,-0.152,0.224,0.002,-0.225,0.178,0.037,-0.076,0.245,-0.161,-0.23
-0.12,-0.273,-0.153,0.197,0.017,-0.213,0.106,0.054,-0.038,0.279,-0.123,-0.225
-0.126,-0.296,-0.17,0.211,0.022,-0.233,0.117,0.108,-0.001,0.304,-0.114,-0.216
-0.119,-0.307,-0.188,0.213,0.035,-0.248,0.1,0.089,-0.012,0.287,-0.156,-0.251
-0.086,-0.267,-0.182,0.177,0.048,-0.224,0.093,0.088,0.025,0.293,-0.158,-0.267
-0.037,-0.244,-0.207,0.141,0.085,-0.226,0.099,0.129,0.051,0.307,-0.126,-0.228
0.008,-0.139,-0.147,0.066,0.078,-0.143,0.082,0.172,0.137,0.406,-0.041,-0.162
-0.032,-0.065,-0.034,0.048,0.001,-0.049,0.203,0.261,0.245,0.495,0.023,-0.103
-0.069,-0.016,0.053,0.042,-0.061,0.019,0.268,0.341,0.328,0.583,0.1,-0.042
-0.022,0.055,0.078,-0.016,-0.05,0.066,0.119,0.358,0.382,0.63,0.142,-0.01
0.032,0.067,0.036,-0.05,-0.002,0.051,0.045,0.355,0.438,0.687,0.184,-0.022
0.001,0.065,0.064,-0.033,-0.032,0.064,0.031,0.396,0.498,0.721,0.191,-0.027
0.003,0.081,0.078,-0.042,-0.038,0.08,0.01,0.444,0.519,0.698,0.179,-0.024
0.032,0.077,0.045,-0.055,-0.006,0.06,0.013,0.455,0.505,0.661,0.155,-0.015
0.04,0.056,0.015,-0.048,0.012,0.035,-0.001,0.465,0.468,0.606,0.096,-0.038
0.044,0.037,-0.007,-0.041,0.026,0.015,0.006,0.443,0.405,0.587,0.087,-0.066
-0.025,0.009,0.034,0.008,-0.03,0.021,0.017,0.394,0.364,0.592,0.088,-0.025
0.017,-0.015,-0.032,-0.001,0.025,-0.023,0.032,0.307,0.278,0.523,0.081,-0.025
0.017,-0.071,-0.088,0.028,0.053,-0.079,0.05,0.213,0.171,0.498,0.072,-0.058
-0.048,-0.118,-0.07,0.083,0.012,-0.094,0.056,0.162,0.105,0.472,0.035,-0.07
-0.068,-0.14,-0.073,0.104,0.003,-0.106,0.068,0.12,0.034,0.373,0.004,-0.102
-0.099,-0.178,-0.079,0.139,-0.01,-0.128,0.08,0.075,-0.011,0.351,-0.045,-0.132
-0.077,-0.192,-0.115,0.135,0.02,-0.154,0.072,0.032,-0.052,0.323,-0.093,-0.158
-0.124,-0.235,-0.11,0.18,-0.007,-0.172,0.074,0.012,-0.092,0.285,-0.119,-0.194
-0.114,-0.239,-0.125,0.176,0.006,-0.182,0.1,0.008,-0.097,0.283,-0.137,-0.223
-0.091,-0.247,-0.156,0.169,0.033,-0.201,0.095,-0.008,-0.111,0.277,-0.148,-0.23
-0.032,-0.244,-0.212,0.138,0.09,-0.228,0.087,-0.002,-0.1,0.263,-0.175,-0.234
-0.002,-0.182,-0.18,0.092,0.089,-0.181,0.082,0.017,-0.063,0.294,-0.119,-0.187
-0.061,-0.145,-0.084,0.103,0.012,-0.114,0.089,0.052,-0.008,0.411,-0.013,-0.104
-0.076,-0.06,0.016,0.067,-0.045,-0.022,0.208,0.103,0.042,0.434,0.03,-0.072
-0.111,0.025,0.136,0.043,-0.124,0.08,0.178,0.051,0.042,0.432,0.022,-0.064
-0.071,0.106,0.177,-0.018,-0.124,0.141,0.01,0.0,0.064,0.471,0.055,-0.063
-0.05,0.115,0.165,-0.033,-0.108,0.14,-0.031,-0.033,0.038,0.424,0.057,-0.055
-0.064,0.067,0.131,-0.002,-0.098,0.099,-0.037,-0.043,0.033,0.424,0.014,-0.049
-0.107,0.072,0.179,0.017,-0.143,0.125,0.002,0.042,0.041,0.39,0.006,-0.09
-0.023,0.073,0.096,-0.025,-0.06,0.084,0.015,0.252,0.346,0.64,0.15,-0.057
0.15,0.196,0.047,-0.173,0.051,0.121,-0.172,-0.056,0.389,0.974,0.688,0.449
0.585,0.511,-0.074,-0.548,0.33,0.218,-0.769,-1.418,-0.629,0.968,1.28,1.217
0.82,0.455,-0.364,-0.637,0.592,0.045,-0.941,-1.986,-1.358,0.565,0.842,0.987
0.087,-0.157,-0.244,0.035,0.165,-0.2,-0.214,-1.327,-1.467,-0.503,-0.504,-0.121
-0.323,-0.384,-0.06,0.354,-0.131,-0.221,0.178,-0.807,-1.103,-0.669,-0.825,-0.514
-0.2,-0.215,-0.015,0.207,-0.092,-0.114,0.159,-0.33,-0.377,0.021,-0.334,-0.319
-0.186,-0.181,0.005,0.183,-0.096,-0.087,0.108,-0.031,-0.1,0.226,-0.175,-0.27
-0.142,-0.163,-0.021,0.153,-0.061,-0.091,0.04,0.009,-0.053,0.301,-0.112,-0.254
-0.14,-0.176,-0.035,0.158,-0.053,-0.105,0.064,0.027,-0.053,0.301,-0.139,-0.269
-0.162,-0.202,-0.04,0.182,-0.06,-0.121,0.047,0.035,-0.034,0.308,-0.154,-0.259
-0.117,-0.225,-0.108,0.171,-0.004,-0.166,0.053,0.044,-0.037,0.284,-0.175,-0.263
-0.092,-0.216,-0.123,0.154,0.016,-0.169,0.047,0.048,-0.035,0.259,-0.174,-0.266
-0.089,-0.181,-0.092,0.136,0.002,-0.136,0.057,0.128,0.063,0.343,-0.124,-0.231
0.031,-0.087,-0.119,0.028,0.075,-0.103,0.045,0.154,0.102,0.41,-0.047,-0.183
0.005,0.037,0.032,-0.021,-0.014,0.034,0.096,0.188,0.185,0.497,0.069,-0.101
-0.056,0.059,0.115,-0.002,-0.086,0.087,0.199,0.26,0.258,0.531,0.08,-0.063
-0.028,0.131,0.158,-0.052,-0.093,0.144,0.089,0.256,0.296,0.581,0.13,-0.051
-0.025,0.195,0.22,-0.085,-0.123,0.207,-0.012,0.271,0.371,0.656,0.199,-0.035
-0.006,0.198,0.203,-0.096,-0.105,0.2,-0.045,0.3,0.395,0.658,0.179,-0.027
0.011,0.201,0.191,-0.106,-0.09,0.196,-0.064,0.344,0.413,0.654,0.184,-0.006
0.03,0.151,0.121,-0.091,-0.045,0.136,-0.042,0.361,0.419,0.646,0.169,-0.007
-0.028,0.104,0.131,-0.038,-0.08,0.117,-0.037,0.366,0.409,0.604,0.144,-0.027
-0.052,0.075,0.127,-0.012,-0.089,0.101,-0.028,0.353,0.355,0.587,0.123,-0.014
-0.008,0.04,0.048,-0.016,-0.028,0.044,-0.026,0.312,0.29,0.572,0.076,-0.051
-0.04,0.012,0.052,0.014,-0.046,0.032,-0.017,0.249,0.225,0.504,0.079,-0.058
-0.033,-0.031,0.002,0.032,-0.017,-0.014,-0.017,0.141,0.119,0.5,0.049,-0.064
-0.037,-0.073,-0.036,0.055,0.0,-0.055,-0.003,0.093,0.044,0.2,0.01,-0.106
-0.075,-0.081,-0.006,0.078,-0.034,-0.043,0.006,0.05,0.009,-0.245,-0.002,-0.107
-0.083,-0.151,-0.068,0.117,-0.008,-0.109,0.03,0.014,-0.04,-0.41,-0.079,-0.157
-0.068,-0.191,-0.123,0.13,0.028,-0.157,0.028,-0.007,-0.077,-0.468,-0.059,-0.142
-0.085,-0.213,-0.128,0.149,0.022,-0.17,0.032,-0.039,-0.098,-0.53,-0.1,-0.177
-0.091,-0.245,-0.155,0.168,0.032,-0.2,0.064,0.013,-0.081,-0.541,-0.141,-0.247
-0.036,-0.211,-0.175,0.124,0.07,-0.192,0.041,0.176,0.288,-0.181,0.168,-0.075
0.18,0.018,-0.162,-0.099,0.171,-0.072,-0.271,-0.507,-0.096,0.086,0.863,0.634
0.671,0.262,-0.409,-0.466,0.54,-0.073,-0.794,-1.735,-1.489,-0.503,0.793,0.946
0.357,-0.111,-0.469,-0.123,0.413,-0.29,-0.379,-1.489,-2.0,-1.738,-0.689,-0.095
-0.259,-0.393,-0.134,0.326,-0.062,-0.263,0.359,-0.55,-1.316,-1.819,-1.093,-0.619
-0.133,-0.113,0.02,0.123,-0.076,-0.046,0.275,-0.153,-0.376,-0.805,-0.278,-0.227
-0.088,0.057,0.144,0.015,-0.116,0.1,0.072,0.027,0.056,-0.432,0.0,-0.116
-0.04,0.089,0.129,-0.025,-0.085,0.109,0.007,0.029,0.087,-0.392,0.079,-0.095
0.012,0.058,0.046,-0.035,-0.017,0.052,-0.01,0.053,0.119,-0.382,0.1,-0.094
-0.049,0.018,0.067,0.016,-0.058,0.042,-0.021,0.084,0.131,-0.387,0.097,-0.088
-0.049,0.004,0.053,0.022,-0.051,0.029,-0.037,0.074,0.133,-0.367,0.105,-0.074
-0.071,-0.006,0.065,0.038,-0.068,0.029,-0.025,0.094,0.149,-0.368,0.09,-0.082
-0.028,0.007,0.035,0.01,-0.032,0.021,-0.035,0.094,0.158,-0.359,0.062,-0.076
-0.037,-0.015,0.021,0.026,-0.029,0.003,0.014,0.127,0.198,-0.335,0.079,-0.076
-0.031,-0.031,0.0,0.031,-0.015,-0.016,0.014,0.168,0.253,-0.272,0.15,-0.062
0.035,-0.029,-0.063,-0.003,0.049,-0.046,-0.028,0.176,0.281,-0.259,0.157,-0.053
0.06,-0.025,-0.086,-0.017,0.074,-0.055,-0.019,0.215,0.335,-0.222,0.162,-0.04
0.063,-0.013,-0.076,-0.025,0.07,-0.045,0.008,0.268,0.387,-0.171,0.184,-0.029
0.047,-0.016,-0.063,-0.016,0.056,-0.039,0.025,0.319,0.44,-0.149,0.223,-0.023
0.04,-0.025,-0.064,-0.007,0.052,-0.045,0.026,0.348,0.434,-0.135,0.215,-0.011
0.058,-0.013,-0.07,-0.022,0.064,-0.041,0.04,0.349,0.416,-0.121,0.209,-0.022
0.05,-0.026,-0.076,-0.012,0.063,-0.051,0.057,0.334,0.394,-0.159,0.214,-0.039
0.019,-0.046,-0.065,0.014,0.042,-0.055,0.049,0.294,0.34,-0.194,0.192,-0.029
0.043,0.027,-0.016,-0.034,0.03,0.005,0.051,0.239,0.287,-0.243,0.185,-0.031
0.042,0.07,0.027,-0.056,0.007,0.048,0.051,0.167,0.217,-0.272,0.147,-0.017
-0.016,0.058,0.074,-0.021,-0.045,0.066,0.05,0.122,0.148,-0.283,0.118,-0.033
-0.03,0.04,0.07,-0.005,-0.05,0.054,0.127,0.105,0.101,-0.365,0.094,-0.087
-0.032,0.036,0.068,-0.002,-0.05,0.051,0.113,0.038,0.044,-0.382,0.034,-0.086
-0.043,0.086,0.129,-0.021,-0.086,0.107,-0.02,-0.05,0.017,-0.385,0.053,-0.071
-0.065,0.056,0.121,0.005,-0.094,0.088,-0.062,-0.058,0.046,-0.378,0.075,-0.078
-0.054,0.043,0.097,0.005,-0.076,0.07,-0.073,-0.066,0.003,-0.366,0.032,-0.074
-0.026,0.041,0.068,-0.008,-0.047,0.054,-0.083,-0.058,0.012,-0.377,0.061,-0.074
-0.067,-0.039,0.028,0.053,-0.047,-0.005,-0.062,0.034,0.027,-0.399,0.033,-0.112
0.056,-0.037,-0.093,-0.009,0.074,-0.065,-0.055,0.25,0.365,-0.078,0.207,-0.037
0.262,0.114,-0.148,-0.188,0.205,-0.017,-0.216,-0.046,0.404,0.314,0.848,0.542
0.664,0.464,-0.2,-0.563,0.431,0.132,-0.786,-1.32,-0.65,0.263,1.358,1.296
0.705,0.401,-0.304,-0.552,0.504,0.048,-0.849,-1.803,-1.413,-0.448,0.597,0.834
-0.116,-0.193,-0.076,0.155,-0.02,-0.134,-0.077,-1.169,-1.519,-1.557,-0.822,-0.365
-0.378,-0.361,0.017,0.37,-0.197,-0.172,0.238,-0.735,-1.064,-1.399,-0.834,-0.576
-0.188,-0.266,-0.078,0.227,-0.055,-0.171,0.142,-0.319,-0.363,-0.707,-0.31,-0.328
-0.209,-0.275,-0.065,0.242,-0.071,-0.17,0.097,-0.048,-0.132,-0.559,-0.198,-0.298
-0.154,-0.257,-0.103,0.206,-0.025,-0.18,0.032,-0.02,-0.065,-0.472,-0.085,-0.247
-0.127,-0.271,-0.143,0.199,0.009,-0.207,0.043,0.037,-0.048,-0.513,-0.162,-0.281
-0.09,-0.262,-0.172,0.176,0.042,-0.216,0.041,0.016,-0.04,-0.473,-0.158,-0.305
-0.135,-0.279,-0.144,0.208,0.005,-0.212,0.036,0.041,-0.003,-0.449,-0.143,-0.282
-0.073,-0.274,-0.201,0.174,0.064,-0.237,0.056,0.111,0.053,-0.416,-0.135,-0.277
0.061,-0.123,-0.185,0.031,0.123,-0.154,0.005,0.102,0.094,-0.35,-0.054,-0.214
-0.013,-0.014,0.0,0.014,-0.006,-0.007,0.073,0.169,0.179,-0.268,0.024,-0.147
-0.05,0.043,0.093,0.003,-0.072,0.068,0.205,0.268,0.29,-0.184,0.079,-0.097
0.005,0.147,0.142,-0.076,-0.069,0.144,0.064,0.278,0.328,-0.138,0.108,-0.073
0.026,0.191,0.165,-0.109,-0.07,0.178,-0.052,0.271,0.369,-0.088,0.163,-0.077
0.029,0.174,0.145,-0.102,-0.058,0.159,-0.053,0.292,0.415,-0.068,0.166,-0.07
0.013,0.131,0.118,-0.072,-0.052,0.124,-0.066,0.347,0.439,-0.063,0.154,-0.07
0.008,0.114,0.106,-0.061,-0.049,0.109,-0.055,0.361,0.431,-0.101,0.11,-0.075
0.007,0.099,0.093,-0.053,-0.043,0.096,-0.057,0.359,0.417,-0.14,0.07,-0.099
-0.04,0.067,0.108,-0.014,-0.074,0.087,-0.047,0.335,0.347,-0.191,0.065,-0.096
-0.013,0.047,0.06,-0.017,-0.037,0.053,-0.046,0.264,0.27,-0.215,0.037,-0.079
0.006,0.016,0.01,-0.011,-0.002,0.013,-0.039,0.194,0.19,-0.261,0.005,-0.103
-0.017,-0.011,0.006,0.014,-0.011,-0.003,-0.035,0.118,0.082,-0.307,-0.003,-0.109
-0.082,-0.064,0.018,0.073,-0.05,-0.023,-0.007,0.078,0.031,-0.316,-0.03,-0.114
-0.148,-0.082,0.066,0.114,-0.106,-0.008,0.03,0.021,-0.02,-0.365,-0.077,-0.147
-0.072,-0.095,-0.023,0.083,-0.024,-0.058,0.019,-0.032,-0.066,-0.391,-0.071,-0.158
-0.075,-0.131,-0.056,0.103,-0.009,-0.093,0.011,-0.068,-0.113,-0.433,-0.111,-0.191
-0.122,-0.18,-0.057,0.151,-0.032,-0.118,0.001,-0.095,-0.172,-0.504,-0.206,-0.269
-0.105,-0.246,-0.141,0.176,0.018,-0.193,0.029,-0.069,-0.178,-0.505,-0.22,-0.291
-0.089,-0.249,-0.16,0.169,0.036,-0.204,0.041,-0.092,-0.173,-0.505,-0.212,-0.278
-0.082,-0.26,-0.178,0.171,0.048,-0.218,0.018,-0.074,-0.147,-0.482,-0.191,-0.254
-0.046,-0.206,-0.16,0.126,0.057,-0.182,0.023,-0.038,-0.105,-0.426,-0.146,-0.198
-0.088,-0.084,0.004,0.086,-0.046,-0.039,0.052,-0.016,-0.043,-0.318,-0.041,-0.136
-0.119,-0.021,0.098,0.07,-0.108,0.038,0.171,0.058,0.035,-0.245,0.045,-0.097
-0.058,0.045,0.103,0.006,-0.081,0.074,0.116,-0.007,0.024,-0.267,0.05,-0.087
-0.057,0.119,0.176,-0.031,-0.117,0.147,-0.023,-0.077,0.024,-0.191,0.056,-0.086
-0.036,0.128,0.163,-0.046,-0.1,0.145,-0.064,-0.11,0.004,-0.265,0.011,-0.072
-0.04,0.111,0.151,-0.035,-0.096,0.131,-0.095,-0.109,-0.012,-0.305,0.029,-0.078
-0.077,0.098,0.175,-0.011,-0.126,0.136,-0.087,-0.016,-0.004,-0.264,0.005,-0.127
-0.004,0.081,0.084,-0.039,-0.044,0.082,-0.07,0.2,0.317,-0.012,0.136,-0.065
0.159,0.21,0.051,-0.185,0.054,0.131,-0.186,-0.073,0.366,0.338,0.68,0.431
0.559,0.518,-0.041,-0.538,0.3,0.238,-0.783,-1.387,-0.609,0.407,1.331,1.272
0.705,0.475,-0.231,-0.59,0.468,0.122,-0.937,-1.924,-1.266,0.085,0.974,1.084
0.067,-0.095,-0.163,0.014,0.115,-0.129,-0.254,-1.341,-1.451,-1.082,-0.481,-0.126
-0.287,-0.352,-0.065,0.32,-0.111,-0.209,0.125,-0.868,-1.143,-1.311,-0.844,-0.535
-0.155,-0.212,-0.057,0.184,-0.049,-0.134,0.138,-0.383,-0.403,-0.596,-0.339,-0.311
-0.098,-0.144,-0.045,0.122,-0.026,-0.094,0.082,-0.1,-0.129,-0.423,-0.215,-0.249
-0.032,-0.131,-0.099,0.082,0.034,-0.115,0.013,-0.051,-0.042,-0.345,-0.164,-0.243
-0.06,-0.153,-0.093,0.107,0.017,-0.123,-0.01,-0.034,-0.036,-0.343,-0.163,-0.248
-0.088,-0.164,-0.076,0.126,-0.006,-0.119,-0.031,-0.032,-0.049,-0.336,-0.164,-0.256
-0.062,-0.185,-0.122,0.124,0.03,-0.153,-0.021,-0.014,-0.062,-0.369,-0.201,-0.275
-0.061,-0.175,-0.114,0.118,0.027,-0.144,-0.008,0.006,-0.036,-0.35,-0.172,-0.25
0.011,-0.159,-0.17,0.074,0.091,-0.164,0.019,0.05,0.03,-0.256,-0.103,-0.226
0.048,-0.064,-0.112,0.008,0.081,-0.088,0.011,0.081,0.088,-0.201,-0.067,-0.175
-0.044,0.081,0.125,-0.018,-0.085,0.103,0.056,0.136,0.194,-0.129,0.018,-0.1
-0.052,0.082,0.135,-0.015,-0.094,0.108,0.171,0.215,0.255,-0.044,0.089,-0.055
0.049,0.169,0.12,-0.109,-0.036,0.144,0.058,0.233,0.307,0.024,0.135,-0.029
0.076,0.268,0.192,-0.172,-0.058,0.23,-0.086,0.222,0.36,0.039,0.143,0.0
0.034,0.219,0.186,-0.127,-0.076,0.202,-0.08,0.258,0.404,0.106,0.174,0.011
0.057,0.214,0.157,-0.136,-0.05,0.185,-0.1,0.298,0.425,0.107,0.193,0.017
0.058,0.233,0.175,-0.145,-0.059,0.204,-0.102,0.322,0.413,0.081,0.163,0.041
0.045,0.208,0.163,-0.127,-0.059,0.185,-0.096,0.312,0.386,0.084,0.15,0.028
0.086,0.179,0.093,-0.133,-0.004,0.136,-0.097,0.288,0.343,0.028,0.143,0.018
0.09,0.177,0.087,-0.134,0.002,0.131,-0.093,0.242,0.291,0.024,0.131,0.012
0.019,0.161,0.143,-0.09,-0.062,0.152,-0.087,0.149,0.209,-0.013,0.096,0.007
-0.048,0.115,0.163,-0.034,-0.105,0.139,-0.101,0.05,0.096,-0.135,0.028,-0.036
-0.027,0.104,0.131,-0.039,-0.079,0.117,-0.091,0.0,0.033,-0.169,-0.024,-0.091
-0.04,0.077,0.117,-0.019,-0.079,0.097,-0.05,-0.053,-0.053,-0.208,-0.081,-0.138
-0.025,0.011,0.036,0.007,-0.03,0.023,-0.058,-0.095,-0.092,-0.242,-0.11,-0.172
-0.055,-0.06,-0.005,0.058,-0.024,-0.033,-0.028,-0.099,-0.122,-0.287,-0.15,-0.182
-0.077,-0.101,-0.024,0.09,-0.026,-0.062,-0.036,-0.151,-0.174,-0.3,-0.174,-0.217
-0.111,-0.188,-0.077,0.15,-0.017,-0.132,-0.002,-0.099,-0.143,-0.301,-0.198,-0.271
-0.097,-0.207,-0.11,0.152,0.007,-0.159,0.014,-0.047,-0.1,-0.278,-0.187,-0.266
0.078,-0.084,-0.162,0.003,0.12,-0.123,-0.036,0.107,0.296,0.178,0.222,0.001
0.304,0.143,-0.161,-0.223,0.232,-0.009,-0.324,-0.488,-0.04,0.507,0.967,0.762
0.662,0.413,-0.249,-0.537,0.455,0.081,-0.803,-1.663,-1.303,-0.014,0.884,1.061
0.207,0.101,-0.107,-0.154,0.157,-0.003,-0.225,-1.384,-1.787,-1.253,-0.608,-0.041
-0.382,-0.215,0.167,0.298,-0.274,-0.024,0.379,-0.633,-1.303,-1.481,-1.145,-0.657
-0.154,0.028,0.182,0.062,-0.168,0.105,0.079,-0.305,-0.407,-0.484,-0.324,-0.233
-0.068,0.134,0.202,-0.033,-0.135,0.168,-0.043,-0.053,0.029,-0.133,-0.055,-0.101
-0.027,0.102,0.13,-0.038,-0.079,0.116,-0.094,-0.061,0.046,-0.109,-0.039,-0.099
-0.007,0.091,0.098,-0.042,-0.053,0.094,-0.114,-0.023,0.104,-0.037,0.034,-0.107
-0.036,0.047,0.084,-0.006,-0.06,0.065,-0.1,-0.021,0.106,-0.071,0.026,-0.116
-0.009,0.044,0.053,-0.018,-0.031,0.049,-0.111,-0.012,0.117,-0.06,0.009,-0.103
-0.072,0.055,0.127,0.009,-0.1,0.09,-0.09,0.036,0.101,-0.055,0.003,-0.118
-0.052,0.041,0.093,0.006,-0.073,0.067,-0.096,0.036,0.117,-0.035,0.0,-0.098
-0.016,0.038,0.055,-0.011,-0.036,0.046,-0.085,0.042,0.138,0.003,0.032,-0.076
-0.007,0.018,0.025,-0.006,-0.016,0.021,-0.07,0.059,0.164,0.033,0.08,-0.078
0.006,0.041,0.035,-0.024,-0.015,0.038,-0.049,0.102,0.219,0.062,0.072,-0.089
-0.01,0.056,0.066,-0.023,-0.038,0.061,-0.058,0.131,0.258,0.085,0.072,-0.087
0.04,0.046,0.006,-0.043,0.017,0.026,-0.048,0.173,0.301,0.101,0.094,-0.092
0.084,0.052,-0.032,-0.068,0.058,0.01,-0.029,0.22,0.321,0.148,0.09,-0.094
0.049,-0.004,-0.054,-0.023,0.051,-0.029,-0.034,0.219,0.31,0.104,0.044,-0.097
0.027,-0.047,-0.074,0.01,0.051,-0.061,-0.026,0.21,0.292,0.094,0.061,-0.098
0.002,-0.064,-0.066,0.031,0.034,-0.065,-0.033,0.198,0.253,0.069,0.017,-0.121
0.053,-0.046,-0.099,-0.003,0.076,-0.072,-0.049,0.195,0.218,0.032,-0.028,-0.118
0.115,-0.01,-0.125,-0.052,0.12,-0.068,-0.049,0.153,0.195,0.041,0.027,-0.078
0.053,0.048,-0.005,-0.051,0.029,0.022,-0.008,0.111,0.179,0.011,0.057,-0.05
-0.048,0.128,0.176,-0.04,-0.112,0.152,0.115,0.104,0.124,0.042,0.076,-0.035
-0.079,0.163,0.241,-0.042,-0.16,0.202,0.085,0.018,0.086,0.024,0.052,-0.041
0.007,0.189,0.182,-0.098,-0.088,0.185,-0.066,-0.062,0.07,0.009,0.044,-0.046
0.028,0.185,0.158,-0.107,-0.065,0.171,-0.096,-0.067,0.059,0.05,0.07,-0.043
-0.054,0.168,0.222,-0.057,-0.138,0.195,-0.105,-0.071,0.014,-0.033,0.021,-0.047
-0.024,0.145,0.169,-0.061,-0.097,0.157,-0.126,-0.063,0.034,-0.005,0.019,-0.048
0.025,0.108,0.082,-0.067,-0.028,0.095,-0.093,-0.038,0.022,-0.001,0.018,-0.071
0.029,0.095,0.066,-0.062,-0.018,0.08,-0.074,0.12,0.198,0.114,0.08,-0.067
0.145,0.117,-0.027,-0.131,0.086,0.045,-0.104,0.153,0.503,0.51,0.473,0.244
0.508,0.409,-0.099,-0.459,0.303,0.155,-0.576,-0.885,-0.257,0.636,1.172,1.094
0.785,0.612,-0.173,-0.699,0.479,0.22,-0.974,-1.779,-1.149,0.374,1.138,1.281
0.216,0.13,-0.086,-0.173,0.151,0.022,-0.364,-1.367,-1.438,-0.758,-0.32,0.095
-0.369,-0.258,0.11,0.313,-0.239,-0.074,0.179,-0.894,-1.286,-1.267,-1.008,-0.578
-0.214,-0.207,0.007,0.21,-0.11,-0.1,0.16,-0.466,-0.522,-0.499,-0.437,-0.349
-0.116,-0.182,-0.066,0.149,-0.025,-0.124,0.076,-0.127,-0.128,-0.231,-0.219,-0.263
-0.121,-0.142,-0.02,0.132,-0.05,-0.081,-0.015,-0.086,-0.068,-0.19,-0.179,-0.246
-0.08,-0.154,-0.073,0.117,-0.003,-0.113,-0.004,-0.028,-0.049,-0.156,-0.19,-0.243
-0.084,-0.184,-0.1,0.134,0.008,-0.141,-0.004,-0.031,-0.063,-0.182,-0.217,-0.236
-0.047,-0.175,-0.129,0.111,0.042,-0.152,-0.015,-0.011,0.009,-0.106,-0.182,-0.234
-0.009,-0.172,-0.163,0.09,0.077,-0.167,-0.007,0.037,0.046,-0.07,-0.144,-0.229
0.032,-0.043,-0.075,0.006,0.053,-0.059,-0.005,0.081,0.12,0.019,-0.055,-0.136
0.035,0.084,0.049,-0.06,-0.007,0.066,0.087,0.151,0.207,0.098,0.012,-0.079
-0.013,0.119,0.131,-0.053,-0.072,0.125,0.152,0.218,0.296,0.178,0.092,-0.023
0.02,0.203,0.183,-0.112,-0.081,0.193,0.02,0.226,0.37,0.296,0.161,0.026
0.072,0.223,0.151,-0.148,-0.04,0.187,-0.092,0.23,0.41,0.324,0.172,0.001
0.077,0.201,0.123,-0.139,-0.023,0.162,-0.114,0.277,0.45,0.304,0.162,0.016
0.086,0.207,0.121,-0.146,-0.018,0.164,-0.126,0.317,0.469,0.306,0.154,0.032
0.059,0.163,0.104,-0.111,-0.023,0.133,-0.109,0.356,0.475,0.294,0.159,0.014
0.018,0.119,0.1,-0.069,-0.041,0.109,-0.084,0.349,0.452,0.28,0.142,0.01
0.022,0.101,0.079,-0.062,-0.029,0.09,-0.071,0.324,0.414,0.244,0.107,-0.006
0.049,0.088,0.039,-0.069,0.004,0.064,-0.077,0.278,0.356,0.198,0.079,-0.014
0.034,0.089,0.055,-0.062,-0.011,0.072,-0.071,0.179,0.241,0.142,0.053,-0.028
0.019,0.071,0.053,-0.045,-0.017,0.062,-0.063,0.105,0.163,0.107,0.049,-0.037
0.002,0.037,0.036,-0.02,-0.017,0.036,-0.056,0.051,0.087,0.073,0.019,-0.046
0.0,0.011,0.011,-0.005,-0.006,0.011,-0.044,-0.014,0.01,0.004,-0.027,-0.077
0.024,-0.041,-0.065,0.008,0.045,-0.053,-0.04,-0.055,-0.035,-0.031,-0.072,-0.098
-0.037,-0.081,-0.044,0.059,0.004,-0.062,-0.027,-0.098,-0.093,-0.055,-0.109,-0.134
-0.059,-0.141,-0.082,0.1,0.012,-0.111,-0.028,-0.118,-0.126,-0.103,-0.144,-0.183
-0.062,-0.19,-0.128,0.126,0.034,-0.159,-0.011,-0.109,-0.147,-0.138,-0.164,-0.203
-0.068,-0.193,-0.125,0.131,0.029,-0.159,-0.019,-0.118,-0.133,-0.134,-0.166,-0.188
-0.018,-0.182,-0.164,0.1,0.074,-0.173,-0.021,-0.091,-0.111,-0.1,-0.162,-0.175
-0.025,-0.114,-0.089,0.07,0.032,-0.101,0.019,-0.062,-0.079,-0.05,-0.103,-0.143
-0.007,0.006,0.013,0.001,-0.01,0.009,0.024,-0.057,-0.012,0.079,-0.024,-0.065
-0.033,0.076,0.109,-0.022,-0.071,0.092,0.146,-0.003,0.018,0.137,0.012,-0.028
-0.036,0.117,0.153,-0.041,-0.095,0.135,0.108,-0.021,0.036,0.125,0.053,-0.007
0.022,0.188,0.166,-0.105,-0.072,0.177,-0.088,-0.069,0.061,0.169,0.073,-0.002
0.004,0.171,0.167,-0.088,-0.082,0.169,-0.106,-0.091,0.015,0.161,0.081,0.01
-0.013,0.137,0.15,-0.063,-0.082,0.144,-0.099,-0.087,0.032,0.183,0.083,0.034
-0.019,0.156,0.175,-0.069,-0.097,0.165,-0.089,-0.021,0.062,0.15,0.029,0.002
0.072,0.143,0.071,-0.108,0.001,0.106,-0.052,0.19,0.372,0.39,0.199,0.044
0.247,0.22,-0.027,-0.233,0.136,0.096,-0.213,-0.118,0.381,0.72,0.719,0.531
0.64,0.563,-0.077,-0.601,0.358,0.243,-0.821,-1.462,-0.608,0.798,1.388,1.367
0.805,0.513,-0.291,-0.659,0.548,0.111,-0.951,-1.979,-1.254,0.449,0.983,1.133
0.136,-0.105,-0.241,-0.015,0.189,-0.173,-0.259,-1.374,-1.417,-0.711,-0.484,-0.065
-0.287,-0.306,-0.019,0.297,-0.134,-0.162,0.111,-0.889,-1.094,-0.905,-0.787,-0.426
-0.137,-0.186,-0.05,0.162,-0.043,-0.118,0.108,-0.399,-0.362,-0.199,-0.269,-0.208
-0.045,-0.136,-0.091,0.091,0.023,-0.113,0.048,-0.099,-0.089,0.01,-0.127,-0.149
-0.025,-0.083,-0.058,0.054,0.017,-0.07,-0.024,-0.032,-0.013,0.092,-0.071,-0.109
-0.055,-0.126,-0.071,0.091,0.008,-0.098,-0.031,-0.048,-0.018,0.051,-0.11,-0.146
-0.038,-0.166,-0.127,0.102,0.045,-0.146,-0.03,-0.036,-0.011,0.071,-0.099,-0.152
-0.068,-0.195,-0.126,0.132,0.029,-0.16,-0.02,0.001,0.006,0.067,-0.091,-0.141
-0.025,-0.223,-0.199,0.124,0.087,-0.211,-0.032,-0.001,0.029,0.067,-0.106,-0.147
0.058,-0.168,-0.226,0.055,0.142,-0.197,0.009,0.067,0.08,0.152,-0.035,-0.095
0.061,-0.047,-0.108,-0.007,0.084,-0.077,0.005,0.087,0.123,0.192,0.01,-0.05
0.058,0.067,0.009,-0.062,0.024,0.038,0.067,0.151,0.232,0.299,0.094,0.027
-0.008,0.127,0.135,-0.06,-0.072,0.13,0.153,0.205,0.292,0.364,0.151,0.085
0.012,0.18,0.168,-0.097,-0.078,0.174,0.002,0.192,0.355,0.432,0.191,0.108
0.051,0.211,0.16,-0.132,-0.054,0.185,-0.106,0.226,0.404,0.461,0.228,0.127
0.052,0.225,0.173,-0.139,-0.061,0.199,-0.103,0.257,0.438,0.475,0.213,0.128
0.073,0.216,0.144,-0.145,-0.036,0.18,-0.114,0.307,0.46,0.5,0.21,0.147
0.082,0.163,0.081,-0.122,0.0,0.121,-0.122,0.323,0.426,0.47,0.201,0.141
0.132,0.147,0.014,-0.14,0.059,0.08,-0.107,0.318,0.427,0.475,0.192,0.138
0.114,0.153,0.039,-0.134,0.038,0.096,-0.089,0.312,0.389,0.446,0.189,0.135
0.08,0.141,0.06,-0.111,0.01,0.1,-0.092,0.239,0.308,0.391,0.178,0.13
0.085,0.114,0.028,-0.1,0.028,0.071,-0.083,0.175,0.253,0.382,0.153,0.122
0.028,0.054,0.026,-0.041,0.001,0.04,-0.081,0.097,0.158,0.313,0.102,0.071
0.002,0.009,0.008,-0.006,-0.003,0.008,-0.076,0.029,0.077,0.251,0.075,0.046
-0.057,-0.02,0.036,0.038,-0.046,0.008,-0.064,0.014,0.052,0.259,0.07,0.042
-0.038,-0.057,-0.019,0.047,-0.009,-0.037,-0.06,-0.058,-0.024,0.188,0.0,0.026
0.019,-0.093,-0.113,0.037,0.066,-0.102,-0.045,-0.105,-0.083,0.117,-0.057,-0.006
-0.046,-0.152,-0.106,0.099,0.03,-0.129,-0.045,-0.106,-0.099,0.113,-0.079,-0.064
-0.056,-0.19,-0.134,0.123,0.039,-0.161,-0.03,-0.112,-0.122,0.11,-0.109,-0.09
-0.059,-0.228,-0.169,0.144,0.055,-0.198,-0.031,-0.122,-0.139,0.094,-0.106,-0.096
-0.056,-0.233,-0.177,0.145,0.061,-0.205,-0.016,-0.082,-0.118,0.127,-0.092,-0.085
0.023,-0.139,-0.162,0.059,0.093,-0.15,-0.002,-0.058,-0.08,0.174,-0.069,-0.045
0.036,-0.029,-0.065,-0.004,0.051,-0.047,0.007,-0.044,-0.026,0.232,0.012,0.014
-0.053,0.039,0.092,0.007,-0.073,0.065,0.149,0.024,0.054,0.304,0.079,0.086
-0.066,0.103,0.169,-0.018,-0.118,0.136,0.087,-0.03,0.081,0.332,0.096,0.101
0.041,0.147,0.106,-0.094,-0.033,0.126,-0.081,-0.084,0.069,0.351,0.111,0.12
0.032,0.144,0.112,-0.088,-0.04,0.127,-0.117,-0.089,0.053,0.351,0.118,0.144
-0.003,0.125,0.128,-0.061,-0.066,0.126,-0.108,-0.077,0.062,0.35,0.125,0.138
0.05,0.107,0.057,-0.079,-0.004,0.082,-0.073,0.022,0.114,0.37,0.126,0.137
0.097,0.102,0.005,-0.099,0.045,0.053,-0.08,0.213,0.485,0.709,0.353,0.228
0.335,0.282,-0.053,-0.309,0.194,0.114,-0.375,-0.476,0.175,0.968,0.975,0.867
0.773,0.596,-0.178,-0.684,0.475,0.208,-0.98,-1.823,-0.887,0.971,1.449,1.526
0.671,0.285,-0.386,-0.477,0.528,-0.05,-0.8,-1.922,-1.413,0.236,0.503,0.825
-0.116,-0.296,-0.18,0.207,0.032,-0.238,-0.047,-1.284,-1.45,-0.82,-0.767,-0.217
-0.319,-0.307,0.012,0.313,-0.165,-0.147,0.111,-0.729,-0.784,-0.422,-0.54,-0.234
-0.032,-0.177,-0.144,0.105,0.056,-0.16,0.004,-0.253,-0.167,0.141,-0.125,-0.059
-0.033,-0.145,-0.113,0.089,0.04,-0.129,-0.022,-0.077,-0.036,0.218,-0.083,-0.021
-0.001,-0.116,-0.116,0.058,0.058,-0.115,-0.037,-0.018,0.042,0.335,-0.015,0.021
-0.008,-0.138,-0.13,0.073,0.061,-0.134,-0.026,-0.021,0.013,0.279,-0.051,-0.02
-0.073,-0.207,-0.135,0.14,0.031,-0.171,-0.025,0.002,0.033,0.29,-0.056,-0.03
-0.058,-0.25,-0.192,0.154,0.067,-0.22,-0.013,0.008,0.019,0.269,-0.081,-0.055
-0.066,-0.252,-0.186,0.159,0.06,-0.219,-0.011,0.016,0.05,0.285,-0.059,-0.04
0.014,-0.188,-0.202,0.087,0.109,-0.195,-0.01,0.077,0.117,0.342,-0.002,0.004
0.059,-0.062,-0.12,0.002,0.089,-0.091,-0.004,0.105,0.188,0.432,0.072,0.058
-0.018,0.028,0.045,-0.005,-0.032,0.036,0.079,0.185,0.29,0.539,0.175,0.16
0.01,0.108,0.098,-0.059,-0.044,0.103,0.144,0.239,0.35,0.581,0.197,0.184
0.054,0.178,0.124,-0.116,-0.035,0.151,-0.001,0.232,0.415,0.638,0.232,0.202
0.103,0.213,0.109,-0.158,-0.003,0.161,-0.098,0.273,0.473,0.695,0.284,0.234
0.09,0.21,0.119,-0.15,-0.015,0.164,-0.11,0.318,0.513,0.721,0.287,0.236
0.077,0.194,0.117,-0.136,-0.02,0.155,-0.133,0.346,0.513,0.714,0.289,0.26
0.083,0.143,0.06,-0.114,0.011,0.101,-0.111,0.365,0.502,0.701,0.267,0.252
0.062,0.102,0.04,-0.083,0.011,0.071,-0.106,0.358,0.474,0.674,0.239,0.237
0.092,0.091,-0.001,-0.092,0.046,0.045,-0.097,0.317,0.405,0.61,0.205,0.225
0.037,0.067,0.031,-0.052,0.003,0.049,-0.081,0.238,0.325,0.575,0.181,0.213
0.035,0.058,0.023,-0.047,0.006,0.04,-0.099,0.144,0.229,0.542,0.155,0.199
0.014,0.002,-0.011,-0.008,0.012,-0.004,-0.094,0.066,0.139,0.473,0.105,0.159
-0.001,-0.033,-0.032,0.018,0.016,-0.032,-0.083,-0.018,0.055,0.436,0.073,0.117
0.024,-0.063,-0.087,0.02,0.056,-0.075,-0.076,-0.087,-0.028,0.371,0.017,0.075
0.007,-0.113,-0.121,0.053,0.064,-0.116,-0.059,-0.09,-0.039,0.353,0.006,0.065
-0.02,-0.137,-0.117,0.078,0.049,-0.126,-0.041,-0.111,-0.076,0.315,-0.038,0.044
-0.055,-0.181,-0.126,0.118,0.036,-0.153,-0.05,-0.144,-0.12,0.289,-0.06,0.038
-0.098,-0.23,-0.132,0.164,0.017,-0.181,-0.001,-0.1,-0.088,0.301,-0.073,0.006
-0.06,-0.246,-0.186,0.153,0.063,-0.216,0.018,-0.044,-0.046,0.323,-0.082,-0.03
0.072,-0.166,-0.239,0.047,0.156,-0.202,-0.002,0.157,0.391,0.763,0.27,0.176
0.287,0.108,-0.179,-0.198,0.233,-0.035,-0.299,-0.499,0.131,1.171,1.057,0.913
0.761,0.419,-0.342,-0.59,0.551,0.038,-0.841,-1.765,-1.088,0.865,1.224,1.38
0.44,0.064,-0.376,-0.252,0.408,-0.156,-0.364,-1.636,-1.757,-0.451,-0.281,0.378
-0.255,-0.326,-0.071,0.291,-0.092,-0.198,0.29,-0.937,-1.491,-1.014,-1.095,-0.409
-0.172,-0.084,0.087,0.128,-0.129,0.001,0.118,-0.458,-0.522,-0.03,-0.328,-0.066
-0.018,0.046,0.065,-0.014,-0.042,0.055,-0.033,-0.1,0.031,0.453,0.029,0.121
-0.009,0.05,0.059,-0.02,-0.035,0.054,-0.086,-0.049,0.101,0.526,0.112,0.173
-0.017,0.046,0.063,-0.015,-0.04,0.054,-0.092,-0.002,0.176,0.6,0.151,0.193
-0.001,0.022,0.023,-0.01,-0.013,0.022,-0.098,-0.007,0.151,0.572,0.126,0.183
0.039,0.023,-0.017,-0.031,0.028,0.003,-0.11,0.009,0.175,0.61,0.164,0.204
0.069,0.0,-0.069,-0.034,0.069,-0.034,-0.102,0.031,0.182,0.607,0.166,0.191
0.007,-0.007,-0.014,0.0,0.01,-0.01,-0.085,0.055,0.212,0.647,0.184,0.207
0.015,-0.024,-0.039,0.005,0.027,-0.032,-0.076,0.086,0.245,0.661,0.18,0.216
0.071,-0.042,-0.113,-0.014,0.092,-0.077,-0.084,0.098,0.25,0.663,0.18,0.221
0.021,-0.013,-0.035,-0.004,0.028,-0.024,-0.054,0.134,0.295,0.693,0.198,0.219
0.057,0.016,-0.041,-0.037,0.049,-0.012,-0.06,0.184,0.361,0.747,0.225,0.219
0.093,0.014,-0.079,-0.053,0.086,-0.032,-0.052,0.23,0.405,0.783,0.236,0.228
0.074,-0.017,-0.09,-0.028,0.082,-0.053,-0.044,0.24,0.419,0.79,0.238,0.225
0.075,-0.065,-0.139,-0.005,0.107,-0.102,-0.043,0.288,0.43,0.791,0.232,0.217
0.098,-0.074,-0.172,-0.012,0.135,-0.123,-0.03,0.287,0.394,0.783,0.225,0.2
0.062,-0.087,-0.148,0.013,0.105,-0.117,-0.035,0.247,0.352,0.779,0.226,0.191
0.064,-0.085,-0.149,0.011,0.107,-0.116,-0.015,0.243,0.341,0.765,0.224,0.228
0.132,-0.01,-0.143,-0.061,0.138,-0.076,-0.028,0.204,0.307,0.764,0.224,0.267
0.049,0.064,0.015,-0.057,0.017,0.039,0.046,0.18,0.277,0.75,0.247,0.296
-0.004,0.094,0.098,-0.045,-0.051,0.096,0.132,0.107,0.216,0.715,0.248,0.297
-0.014,0.13,0.144,-0.059,-0.079,0.136,0.004,0.012,0.16,0.678,0.219,0.28
-0.033,0.127,0.16,-0.047,-0.097,0.143,-0.101,-0.051,0.123,0.668,0.207,0.277
0.036,0.115,0.078,-0.076,-0.021,0.096,-0.116,-0.075,0.116,0.665,0.19,0.264
0.027,0.112,0.085,-0.07,-0.029,0.098,-0.136,-0.108,0.083,0.629,0.174,0.25
0.035,0.08,0.045,-0.058,-0.005,0.062,-0.125,-0.108,0.083,0.698,0.177,0.253
-0.013,0.007,0.02,0.003,-0.016,0.013,-0.109,-0.016,0.077,0.647,0.127,0.251
0.0,0.004,0.004,-0.002,-0.002,0.004,-0.086,0.166,0.34,0.812,0.208,0.25
0.204,0.145,-0.059,-0.174,0.131,0.043,-0.219,-0.151,0.38,1.151,0.687,0.64
0.685,0.424,-0.261,-0.554,0.473,0.081,-0.826,-1.417,-0.551,1.216,1.263,1.354
0.748,0.406,-0.342,-0.576,0.545,0.032,-0.904,-1.866,-1.304,0.597,0.615,1.021
-0.061,-0.127,-0.066,0.094,0.002,-0.096,-0.07,-1.189,-1.433,-0.503,-0.714,-0.039
-0.319,-0.304,0.016,0.312,-0.167,-0.144,0.292,-0.701,-0.899,-0.264,-0.637,-0.207
-0.107,-0.209,-0.102,0.158,-0.003,-0.155,0.154,-0.311,-0.206,0.438,-0.112,0.032
-0.087,-0.238,-0.151,0.163,0.032,-0.194,0.052,-0.085,-0.041,0.533,-0.069,0.075
-0.074,-0.221,-0.147,0.147,0.037,-0.183,-0.018,-0.063,0.013,0.606,-0.047,0.07
-0.054,-0.243,-0.189,0.149,0.068,-0.216,-0.011,-0.032,0.017,0.594,-0.072,0.03
-0.036,-0.239,-0.203,0.137,0.084,-0.221,-0.001,0.005,0.046,0.663,-0.038,0.049
-0.027,-0.23,-0.203,0.129,0.088,-0.216,-0.019,0.01,0.081,0.689,-0.021,0.077
0.02,-0.194,-0.214,0.088,0.117,-0.204,-0.012,0.04,0.131,0.745,0.02,0.113
0.028,-0.089,-0.116,0.031,0.072,-0.102,0.014,0.128,0.233,0.862,0.134,0.196
0.055,0.007,-0.048,-0.031,0.052,-0.02,0.12,0.185,0.293,0.906,0.175,0.235
0.063,0.077,0.014,-0.07,0.024,0.045,0.117,0.206,0.358,0.954,0.188,0.248
0.058,0.136,0.077,-0.097,-0.01,0.106,-0.039,0.22,0.432,1.033,0.251,0.287
0.079,0.166,0.087,-0.123,-0.004,0.126,-0.084,0.27,0.489,1.085,0.28,0.306
