-0.053,0.077,0.13,-0.012,-0.091,0.103,0.055,0.029,0.062,0.036,0.053,0.08
-0.042,0.068,0.109,-0.013,-0.076,0.088,0.03,0.028,0.062,0.039,0.055,0.076
-0.02,0.054,0.074,-0.017,-0.047,0.064,0.008,0.033,0.068,0.045,0.057,0.069
-0.024,0.015,0.039,0.005,-0.031,0.026,0.003,0.02,0.045,0.029,0.051,0.062
-0.018,0.006,0.023,0.006,-0.021,0.014,0.003,0.027,0.069,0.055,0.06,0.057
-0.029,-0.006,0.023,0.017,-0.026,0.008,0.06,0.144,0.125,0.056,0.047,0.047
0.052,0.042,-0.011,-0.047,0.031,0.015,0.053,0.389,0.503,0.384,0.281,0.178
0.274,0.234,-0.04,-0.254,0.156,0.097,-0.188,-0.227,0.48,0.757,0.888,0.71
0.772,0.498,-0.274,-0.635,0.523,0.112,-0.787,-1.714,-0.39,0.757,1.282,1.221
0.675,0.299,-0.377,-0.487,0.526,-0.039,-0.733,-2.063,-1.183,-0.054,0.416,0.675
-0.065,-0.24,-0.174,0.153,0.055,-0.207,0.036,-1.423,-1.523,-1.176,-0.8,-0.262
-0.213,-0.334,-0.121,0.274,-0.046,-0.227,0.259,-0.754,-0.897,-0.827,-0.625,-0.301
-0.116,-0.229,-0.113,0.172,-0.001,-0.17,0.171,-0.196,-0.196,-0.206,-0.181,-0.097
-0.09,-0.193,-0.103,0.141,0.007,-0.148,0.118,0.0,-0.075,-0.169,-0.152,-0.097
-0.037,-0.195,-0.158,0.116,0.06,-0.176,0.069,0.062,0.006,-0.08,-0.087,-0.069
-0.045,-0.215,-0.17,0.131,0.062,-0.192,0.089,0.1,0.016,-0.102,-0.106,-0.067
-0.042,-0.223,-0.182,0.133,0.07,-0.202,0.072,0.108,0.044,-0.08,-0.088,-0.051
-0.023,-0.22,-0.197,0.122,0.087,-0.209,0.086,0.113,0.059,-0.052,-0.063,-0.037
0.031,-0.104,-0.135,0.037,0.083,-0.119,0.078,0.151,0.119,0.018,-0.005,0.006
0.029,-0.027,-0.056,-0.001,0.043,-0.041,0.123,0.216,0.187,0.074,0.058,0.053
0.011,0.024,0.013,-0.017,-0.001,0.018,0.242,0.276,0.235,0.118,0.094,0.09
0.011,0.096,0.085,-0.054,-0.038,0.09,0.168,0.295,0.273,0.164,0.13,0.121
0.031,0.112,0.081,-0.072,-0.025,0.096,0.054,0.294,0.296,0.182,0.149,0.14
0.057,0.105,0.048,-0.081,0.004,0.076,0.032,0.299,0.326,0.204,0.16,0.148
0.059,0.1,0.041,-0.08,0.009,0.071,0.007,0.311,0.335,0.204,0.158,0.143
0.06,0.094,0.034,-0.077,0.013,0.064,0.004,0.344,0.352,0.208,0.163,0.146
0.061,0.089,0.028,-0.075,0.016,0.058,0.002,0.365,0.349,0.194,0.161,0.144
0.065,0.084,0.019,-0.075,0.022,0.051,0.008,0.382,0.336,0.183,0.149,0.146
0.052,0.077,0.025,-0.065,0.014,0.05,0.011,0.378,0.329,0.173,0.137,0.14
0.038,0.072,0.034,-0.056,0.002,0.053,0.014,0.369,0.312,0.158,0.126,0.132
0.044,0.061,0.018,-0.053,0.013,0.039,0.02,0.351,0.278,0.135,0.114,0.123
0.05,0.062,0.012,-0.056,0.018,0.037,0.02,0.299,0.234,0.105,0.103,0.116
0.035,0.026,-0.01,-0.03,0.022,0.008,0.029,0.237,0.189,0.077,0.082,0.108
0.018,-0.032,-0.05,0.007,0.034,-0.041,0.042,0.163,0.131,0.048,0.052,0.077
-0.024,-0.082,-0.058,0.053,0.017,-0.07,0.048,0.095,0.044,-0.004,0.009,0.034
-0.06,-0.15,-0.09,0.106,0.015,-0.12,0.052,0.044,-0.009,-0.055,-0.025,-0.004
-0.047,-0.183,-0.136,0.115,0.045,-0.159,0.063,0.019,-0.041,-0.087,-0.054,-0.034
-0.072,-0.224,-0.152,0.148,0.04,-0.188,0.058,0.003,-0.087,-0.113,-0.09,-0.053
-0.07,-0.229,-0.158,0.15,0.044,-0.193,0.056,0.0,-0.067,-0.098,-0.073,-0.043
-0.02,-0.139,-0.119,0.08,0.05,-0.129,0.059,0.014,-0.027,-0.066,-0.034,-0.006
-0.02,-0.047,-0.027,0.034,0.004,-0.037,0.119,0.042,0.015,-0.028,0.004,0.035
-0.071,-0.014,0.056,0.042,-0.063,0.021,0.222,0.075,0.043,-0.002,0.033,0.054
-0.067,0.033,0.1,0.017,-0.084,0.066,0.147,0.069,0.052,0.036,0.046,0.069
-0.016,0.097,0.113,-0.041,-0.065,0.105,0.053,0.07,0.077,0.065,0.064,0.085
-0.024,0.075,0.099,-0.026,-0.062,0.086,0.033,0.056,0.066,0.05,0.059,0.085
-0.043,0.039,0.082,0.002,-0.063,0.06,0.013,0.059,0.076,0.058,0.057,0.083
-0.03,0.018,0.049,0.006,-0.04,0.033,0.002,0.047,0.052,0.03,0.046,0.078
-0.036,-0.002,0.033,0.019,-0.035,0.015,-0.01,0.037,0.069,0.051,0.049,0.082
-0.054,-0.035,0.02,0.044,-0.037,-0.007,0.049,0.129,0.091,0.036,0.033,0.057
0.034,0.005,-0.03,-0.019,0.032,-0.012,0.066,0.364,0.421,0.3,0.216,0.131
0.202,0.176,-0.027,-0.189,0.114,0.074,-0.114,-0.002,0.572,0.732,0.787,0.591
0.665,0.458,-0.207,-0.561,0.436,0.125,-0.687,-1.439,-0.215,0.831,1.333,1.211
0.799,0.397,-0.402,-0.598,0.6,-0.002,-0.832,-2.077,-1.046,0.216,0.747,0.911
0.044,-0.192,-0.236,0.074,0.14,-0.214,-0.118,-1.495,-1.518,-1.047,-0.651,-0.142
-0.305,-0.417,-0.112,0.362,-0.096,-0.264,0.265,-0.854,-1.088,-1.022,-0.779,-0.392
-0.15,-0.274,-0.124,0.212,-0.012,-0.199,0.214,-0.293,-0.306,-0.301,-0.244,-0.145
-0.14,-0.248,-0.108,0.195,-0.016,-0.178,0.139,-0.02,-0.107,-0.204,-0.168,-0.117
-0.079,-0.243,-0.164,0.161,0.043,-0.203,0.086,0.065,-0.005,-0.105,-0.111,-0.087
-0.05,-0.247,-0.198,0.149,0.075,-0.222,0.11,0.092,0.009,-0.111,-0.118,-0.09
-0.043,-0.244,-0.201,0.143,0.08,-0.222,0.094,0.102,0.03,-0.096,-0.092,-0.082
0.013,-0.198,-0.211,0.093,0.112,-0.205,0.114,0.156,0.076,-0.05,-0.045,-0.054
0.014,-0.115,-0.13,0.051,0.072,-0.122,0.094,0.178,0.119,0.0,-0.008,-0.011
-0.001,-0.05,-0.05,0.026,0.025,-0.05,0.146,0.24,0.189,0.07,0.049,0.037
0.004,0.028,0.024,-0.017,-0.01,0.026,0.241,0.29,0.245,0.099,0.086,0.082
0.004,0.098,0.094,-0.051,-0.045,0.095,0.132,0.29,0.279,0.15,0.121,0.111
0.028,0.114,0.086,-0.071,-0.029,0.1,0.042,0.29,0.294,0.173,0.14,0.118
0.038,0.109,0.071,-0.074,-0.017,0.09,0.005,0.289,0.315,0.186,0.155,0.13
0.04,0.099,0.059,-0.07,-0.009,0.079,-0.014,0.328,0.332,0.189,0.156,0.126
0.055,0.097,0.042,-0.076,0.006,0.069,0.006,0.368,0.356,0.183,0.152,0.119
0.051,0.082,0.031,-0.067,0.009,0.056,0.005,0.387,0.355,0.174,0.145,0.113
0.068,0.09,0.022,-0.079,0.023,0.056,0.029,0.426,0.345,0.166,0.141,0.105
0.08,0.1,0.019,-0.09,0.03,0.059,0.04,0.433,0.332,0.158,0.12,0.097
0.071,0.085,0.015,-0.078,0.028,0.05,0.043,0.417,0.313,0.133,0.092,0.09
0.058,0.068,0.009,-0.063,0.025,0.038,0.046,0.394,0.282,0.107,0.08,0.084
0.035,0.043,0.008,-0.04,0.013,0.025,0.048,0.342,0.236,0.088,0.069,0.078
0.028,0.009,-0.019,-0.019,0.024,-0.005,0.051,0.286,0.187,0.068,0.057,0.074
0.001,-0.027,-0.029,0.013,0.015,-0.027,0.046,0.21,0.128,0.036,0.037,0.06
-0.048,-0.091,-0.042,0.07,-0.003,-0.066,0.044,0.118,0.054,-0.02,0.003,0.016
-0.051,-0.167,-0.115,0.109,0.032,-0.141,0.05,0.062,0.003,-0.058,-0.034,-0.023
-0.059,-0.206,-0.146,0.133,0.044,-0.176,0.071,0.037,-0.047,-0.097,-0.07,-0.053
-0.08,-0.238,-0.158,0.159,0.039,-0.197,0.069,0.03,-0.071,-0.12,-0.076,-0.062
-0.05,-0.213,-0.164,0.132,0.057,-0.188,0.071,0.029,-0.036,-0.086,-0.056,-0.036
-0.005,-0.113,-0.108,0.059,0.052,-0.11,0.075,0.024,-0.001,-0.045,-0.015,0.005
-0.025,-0.058,-0.034,0.042,0.005,-0.046,0.136,0.058,0.035,-0.007,0.03,0.039
-0.079,-0.022,0.058,0.05,-0.068,0.018,0.23,0.077,0.045,0.003,0.033,0.058
-0.06,0.062,0.122,-0.001,-0.091,0.091,0.142,0.061,0.07,0.035,0.059,0.078
-0.038,0.083,0.121,-0.022,-0.08,0.102,0.041,0.067,0.09,0.053,0.077,0.086
-0.019,0.071,0.09,-0.026,-0.055,0.08,0.024,0.062,0.079,0.042,0.069,0.08
-0.016,0.049,0.065,-0.016,-0.041,0.057,0.017,0.068,0.09,0.048,0.069,0.078
-0.032,0.017,0.049,0.007,-0.041,0.033,0.024,0.062,0.07,0.03,0.062,0.073
-0.023,0.008,0.031,0.007,-0.027,0.02,0.013,0.063,0.089,0.045,0.063,0.071
-0.023,-0.035,-0.011,0.029,-0.006,-0.023,0.047,0.133,0.11,0.033,0.042,0.062
0.035,0.0,-0.035,-0.017,0.035,-0.018,0.069,0.368,0.452,0.32,0.231,0.134
0.209,0.171,-0.039,-0.19,0.124,0.066,-0.146,-0.076,0.543,0.722,0.809,0.613
0.744,0.433,-0.311,-0.588,0.527,0.061,-0.724,-1.51,-0.265,0.771,1.26,1.164
0.764,0.305,-0.459,-0.534,0.611,-0.076,-0.748,-2.012,-1.122,0.002,0.469,0.684
-0.06,-0.245,-0.185,0.153,0.063,-0.215,-0.013,-1.412,-1.517,-1.155,-0.797,-0.283
-0.304,-0.392,-0.088,0.348,-0.108,-0.24,0.288,-0.786,-0.968,-0.913,-0.714,-0.384
-0.142,-0.268,-0.126,0.206,-0.008,-0.197,0.206,-0.244,-0.253,-0.253,-0.23,-0.15
-0.133,-0.247,-0.114,0.19,-0.009,-0.18,0.137,-0.016,-0.102,-0.18,-0.172,-0.14
-0.088,-0.255,-0.167,0.172,0.04,-0.211,0.088,0.042,-0.014,-0.103,-0.125,-0.127
-0.091,-0.286,-0.195,0.189,0.052,-0.24,0.102,0.075,-0.011,-0.116,-0.134,-0.126
-0.057,-0.253,-0.196,0.155,0.07,-0.224,0.088,0.092,0.025,-0.074,-0.106,-0.108
-0.01,-0.195,-0.185,0.103,0.088,-0.19,0.102,0.151,0.083,-0.033,-0.058,-0.069
0.026,-0.095,-0.121,0.035,0.074,-0.108,0.087,0.186,0.134,0.021,-0.007,-0.024
0.026,-0.018,-0.044,-0.004,0.035,-0.031,0.173,0.248,0.208,0.099,0.05,0.021
-0.017,0.006,0.023,0.005,-0.02,0.014,0.252,0.31,0.244,0.122,0.079,0.049
0.009,0.079,0.07,-0.044,-0.031,0.074,0.134,0.31,0.272,0.148,0.096,0.067
0.031,0.101,0.07,-0.067,-0.019,0.085,0.06,0.309,0.301,0.186,0.137,0.104
0.043,0.104,0.061,-0.073,-0.009,0.082,0.034,0.311,0.326,0.206,0.158,0.119
0.068,0.111,0.043,-0.09,0.013,0.077,0.021,0.348,0.342,0.198,0.147,0.108
0.054,0.071,0.018,-0.063,0.018,0.044,0.021,0.389,0.346,0.196,0.145,0.112
0.088,0.081,-0.007,-0.084,0.047,0.037,0.007,0.39,0.34,0.189,0.137,0.108
0.124,0.091,-0.032,-0.107,0.078,0.029,0.02,0.401,0.337,0.183,0.132,0.105
0.105,0.089,-0.016,-0.096,0.06,0.036,0.032,0.41,0.335,0.179,0.122,0.105
0.085,0.088,0.003,-0.087,0.041,0.046,0.037,0.401,0.314,0.16,0.112,0.103
0.064,0.067,0.002,-0.066,0.031,0.034,0.034,0.379,0.279,0.12,0.101,0.092
0.042,0.059,0.017,-0.05,0.012,0.037,0.035,0.335,0.247,0.102,0.086,0.083
0.016,0.011,-0.005,-0.013,0.01,0.003,0.039,0.266,0.204,0.074,0.069,0.072
0.021,-0.032,-0.053,0.006,0.037,-0.042,0.039,0.196,0.137,0.02,0.042,0.041
-0.044,-0.104,-0.06,0.074,0.009,-0.082,0.052,0.12,0.055,-0.027,-0.003,-0.009
-0.061,-0.169,-0.109,0.115,0.024,-0.139,0.069,0.067,-0.001,-0.053,-0.045,-0.05
-0.018,-0.179,-0.161,0.099,0.072,-0.17,0.094,0.045,-0.04,-0.091,-0.08,-0.073
-0.071,-0.232,-0.161,0.152,0.045,-0.197,0.093,0.02,-0.066,-0.128,-0.101,-0.096
-0.062,-0.219,-0.158,0.141,0.048,-0.188,0.097,0.029,-0.049,-0.103,-0.083,-0.081
-0.037,-0.143,-0.106,0.09,0.035,-0.124,0.094,0.045,-0.01,-0.056,-0.046,-0.04
-0.044,-0.074,-0.03,0.059,-0.007,-0.052,0.147,0.083,0.03,-0.023,-0.011,-0.004
-0.053,-0.027,0.026,0.04,-0.039,-0.001,0.255,0.13,0.061,0.007,0.012,0.013
-0.062,0.018,0.08,0.021,-0.071,0.049,0.175,0.095,0.07,0.03,0.036,0.034
-0.035,0.058,0.092,-0.012,-0.064,0.075,0.075,0.071,0.085,0.049,0.062,0.061
-0.033,0.036,0.069,-0.002,-0.051,0.053,0.067,0.075,0.081,0.039,0.054,0.054
-0.041,0.01,0.051,0.015,-0.046,0.03,0.033,0.058,0.071,0.036,0.049,0.047
-0.063,-0.016,0.047,0.04,-0.055,0.015,0.036,0.07,0.076,0.035,0.046,0.041
-0.05,-0.037,0.012,0.043,-0.031,-0.012,0.013,0.046,0.053,0.021,0.035,0.034
-0.003,-0.019,-0.016,0.011,0.006,-0.017,0.034,0.071,0.074,0.033,0.041,0.027
0.014,-0.015,-0.029,0.001,0.022,-0.022,0.094,0.218,0.167,0.066,0.041,0.005
0.063,0.004,-0.059,-0.034,0.061,-0.027,0.058,0.384,0.532,0.42,0.323,0.164
0.334,0.21,-0.124,-0.272,0.228,0.043,-0.245,-0.323,0.422,0.756,0.932,0.74
0.843,0.46,-0.383,-0.651,0.612,0.038,-0.801,-1.771,-0.511,0.59,1.097,1.104
0.623,0.217,-0.406,-0.42,0.515,-0.095,-0.623,-1.944,-1.234,-0.283,0.143,0.437
-0.145,-0.289,-0.144,0.217,0.0,-0.216,0.096,-1.208,-1.373,-1.136,-0.813,-0.358
-0.26,-0.374,-0.114,0.317,-0.073,-0.244,0.275,-0.664,-0.797,-0.769,-0.614,-0.359
-0.17,-0.298,-0.128,0.234,-0.02,-0.213,0.214,-0.192,-0.224,-0.264,-0.257,-0.207
-0.146,-0.289,-0.143,0.218,-0.002,-0.215,0.147,0.019,-0.074,-0.18,-0.193,-0.181
-0.066,-0.256,-0.19,0.161,0.063,-0.223,0.1,0.087,0.0,-0.113,-0.152,-0.143
-0.076,-0.269,-0.192,0.173,0.058,-0.23,0.101,0.095,0.006,-0.119,-0.149,-0.146
-0.057,-0.243,-0.186,0.15,0.065,-0.214,0.103,0.13,0.063,-0.061,-0.101,-0.123
0.001,-0.145,-0.146,0.073,0.074,-0.145,0.11,0.18,0.111,-0.026,-0.056,-0.083
0.024,-0.055,-0.078,0.016,0.051,-0.066,0.144,0.221,0.163,0.031,0.007,-0.037
-0.023,-0.003,0.02,0.013,-0.022,0.009,0.25,0.295,0.223,0.089,0.048,0.003
-0.007,0.058,0.065,-0.025,-0.036,0.061,0.195,0.301,0.258,0.136,0.091,0.05
0.026,0.096,0.07,-0.062,-0.022,0.083,0.092,0.298,0.282,0.171,0.116,0.083
0.04,0.084,0.044,-0.062,-0.002,0.063,0.059,0.301,0.299,0.16,0.101,0.078
0.053,0.078,0.025,-0.066,0.014,0.051,0.034,0.314,0.321,0.177,0.115,0.084
0.026,0.067,0.041,-0.047,-0.007,0.053,0.044,0.351,0.336,0.213,0.124,0.09
0.058,0.059,0.001,-0.058,0.028,0.03,0.036,0.392,0.356,0.213,0.118,0.086
0.061,0.052,-0.009,-0.056,0.034,0.021,0.035,0.401,0.354,0.174,0.111,0.081
0.04,0.04,0.0,-0.04,0.02,0.02,0.035,0.407,0.345,0.142,0.103,0.077
0.053,0.069,0.016,-0.061,0.018,0.042,0.044,0.423,0.338,0.128,0.092,0.071
0.015,0.049,0.035,-0.032,-0.01,0.042,0.054,0.399,0.311,0.116,0.068,0.06
0.001,0.005,0.003,-0.003,-0.001,0.004,0.041,0.364,0.274,0.102,0.038,0.047
0.0,-0.006,-0.006,0.003,0.003,-0.006,0.055,0.328,0.236,0.092,0.027,0.034
0.003,-0.02,-0.023,0.009,0.014,-0.021,0.068,0.262,0.191,0.066,0.02,0.017
-0.022,-0.064,-0.042,0.043,0.01,-0.052,0.07,0.176,0.112,0.013,-0.02,-0.002
-0.064,-0.143,-0.079,0.103,0.008,-0.111,0.062,0.1,0.041,-0.032,-0.042,-0.029
-0.053,-0.22,-0.166,0.137,0.056,-0.193,0.062,0.047,-0.005,-0.094,-0.087,-0.085
-0.062,-0.24,-0.178,0.152,0.058,-0.209,0.056,0.014,-0.051,-0.13,-0.13,-0.111
-0.046,-0.214,-0.168,0.13,0.061,-0.191,0.053,0.018,-0.049,-0.105,-0.096,-0.092
-0.058,-0.19,-0.132,0.124,0.038,-0.161,0.082,0.028,-0.025,-0.078,-0.067,-0.067
-0.029,-0.085,-0.056,0.057,0.014,-0.07,0.103,0.049,0.006,-0.033,-0.031,-0.033
-0.037,-0.025,0.012,0.031,-0.024,-0.007,0.223,0.106,0.057,-0.004,-0.003,-0.013
-0.096,0.002,0.099,0.047,-0.098,0.05,0.218,0.102,0.061,-0.004,0.005,0.012
-0.045,0.07,0.115,-0.013,-0.08,0.092,0.084,0.072,0.073,0.006,0.015,0.031
-0.066,0.032,0.098,0.017,-0.082,0.065,0.052,0.059,0.08,0.005,0.02,0.029
-0.066,0.033,0.099,0.016,-0.083,0.066,0.018,0.052,0.078,0.019,0.032,0.03
-0.039,0.023,0.062,0.008,-0.051,0.042,0.021,0.051,0.075,0.018,0.033,0.022
-0.03,-0.012,0.018,0.021,-0.024,0.003,0.02,0.038,0.068,0.051,0.058,0.026
-0.032,-0.027,0.006,0.029,-0.019,-0.01,0.027,0.044,0.066,0.035,0.041,0.015
-0.045,-0.055,-0.01,0.05,-0.018,-0.032,0.022,0.028,0.039,0.023,0.037,0.026
-0.034,-0.057,-0.023,0.046,-0.005,-0.04,0.038,0.059,0.056,0.023,0.011,0.01
-0.007,-0.067,-0.06,0.037,0.027,-0.063,0.075,0.196,0.144,0.031,-0.005,-0.03
0.082,0.003,-0.08,-0.042,0.081,-0.038,0.047,0.349,0.531,0.436,0.335,0.165
0.33,0.201,-0.128,-0.265,0.229,0.036,-0.278,-0.473,0.299,0.687,0.919,0.762
0.829,0.458,-0.371,-0.643,0.599,0.044,-0.837,-1.855,-0.638,0.579,1.157,1.174
0.586,0.18,-0.406,-0.383,0.496,-0.113,-0.584,-1.855,-1.228,-0.257,0.159,0.452
-0.209,-0.371,-0.162,0.29,-0.023,-0.266,0.112,-1.18,-1.388,-1.191,-0.886,-0.404
-0.303,-0.434,-0.131,0.369,-0.086,-0.282,0.225,-0.66,-0.795,-0.776,-0.63,-0.386
-0.167,-0.38,-0.213,0.274,0.024,-0.296,0.17,-0.177,-0.244,-0.313,-0.306,-0.252
-0.12,-0.311,-0.191,0.215,0.036,-0.25,0.127,0.0,-0.115,-0.231,-0.244,-0.203
-0.07,-0.257,-0.187,0.164,0.059,-0.222,0.085,0.067,-0.011,-0.141,-0.177,-0.161
-0.028,-0.201,-0.172,0.115,0.072,-0.186,0.087,0.11,0.023,-0.101,-0.128,-0.132
0.013,-0.067,-0.08,0.027,0.047,-0.073,0.092,0.15,0.104,-0.017,-0.063,-0.062
-0.025,-0.028,-0.003,0.027,-0.011,-0.015,0.195,0.209,0.133,-0.014,-0.055,-0.039
-0.03,0.048,0.078,-0.009,-0.055,0.063,0.195,0.241,0.178,0.062,0.009,0.003
-0.006,0.103,0.109,-0.049,-0.058,0.106,0.101,0.24,0.222,0.087,0.051,0.028
0.005,0.09,0.085,-0.048,-0.04,0.087,0.04,0.244,0.238,0.089,0.071,0.031
0.019,0.088,0.068,-0.054,-0.025,0.078,-0.003,0.244,0.253,0.117,0.075,0.048
0.046,0.078,0.032,-0.063,0.007,0.055,0.009,0.253,0.265,0.141,0.079,0.051
0.042,0.073,0.031,-0.058,0.005,0.052,-0.003,0.288,0.278,0.156,0.091,0.056
0.036,0.068,0.032,-0.052,0.002,0.05,-0.011,0.315,0.299,0.136,0.087,0.057
0.04,0.06,0.02,-0.05,0.01,0.04,0.022,0.365,0.333,0.159,0.109,0.067
0.04,0.058,0.018,-0.049,0.011,0.038,0.034,0.39,0.332,0.173,0.102,0.059
0.041,0.049,0.008,-0.045,0.016,0.028,0.036,0.398,0.306,0.146,0.063,0.026
0.033,0.04,0.008,-0.037,0.012,0.024,0.034,0.401,0.292,0.113,0.038,0.015
0.009,0.03,0.021,-0.02,-0.007,0.026,0.039,0.385,0.278,0.077,0.019,0.003
0.033,0.017,-0.016,-0.025,0.025,0.0,0.041,0.365,0.249,0.048,0.005,-0.007
0.049,-0.008,-0.057,-0.02,0.053,-0.032,0.033,0.294,0.196,0.013,-0.025,-0.028
-0.035,-0.084,-0.049,0.06,0.008,-0.066,0.04,0.203,0.103,-0.03,-0.064,-0.055
-0.043,-0.135,-0.092,0.09,0.024,-0.113,0.057,0.151,0.039,-0.073,-0.097,-0.085
-0.047,-0.187,-0.139,0.117,0.046,-0.163,0.064,0.098,-0.002,-0.104,-0.121,-0.117
-0.06,-0.228,-0.168,0.145,0.054,-0.198,0.054,0.055,-0.042,-0.121,-0.133,-0.111
-0.026,-0.18,-0.154,0.103,0.064,-0.167,0.069,0.052,-0.031,-0.111,-0.113,-0.097
-0.022,-0.11,-0.088,0.066,0.033,-0.098,0.075,0.063,-0.001,-0.07,-0.071,-0.078
-0.045,-0.046,-0.001,0.046,-0.021,-0.024,0.148,0.1,0.032,-0.03,-0.053,-0.048
-0.092,-0.012,0.08,0.051,-0.085,0.034,0.228,0.098,0.056,-0.015,-0.03,-0.027
-0.06,0.032,0.091,0.014,-0.076,0.061,0.131,0.057,0.049,-0.02,-0.017,-0.011
-0.044,0.064,0.109,-0.01,-0.077,0.087,0.061,0.055,0.042,-0.016,-0.022,-0.01
-0.049,0.058,0.107,-0.005,-0.078,0.083,0.04,0.055,0.036,-0.012,-0.019,-0.01
-0.035,0.052,0.087,-0.009,-0.061,0.07,0.003,0.051,0.029,-0.009,-0.021,-0.012
-0.064,0.015,0.079,0.024,-0.071,0.047,-0.009,0.05,0.024,-0.004,-0.02,-0.033
-0.06,-0.02,0.04,0.04,-0.05,0.01,-0.016,0.049,0.018,-0.011,-0.023,-0.041
-0.062,-0.034,0.028,0.047,-0.045,-0.003,-0.001,0.045,0.015,-0.019,-0.036,-0.04
-0.037,-0.035,0.002,0.036,-0.019,-0.016,0.007,0.038,0.01,-0.028,-0.047,-0.045
-0.008,-0.037,-0.029,0.023,0.011,-0.033,0.014,0.034,0.005,-0.038,-0.048,-0.044
-0.034,-0.061,-0.027,0.048,-0.003,-0.044,0.02,0.027,0.0,-0.044,-0.05,-0.053
-0.035,-0.073,-0.038,0.054,0.002,-0.055,0.024,0.024,-0.01,-0.078,-0.073,-0.064
-0.033,-0.075,-0.042,0.054,0.005,-0.058,0.037,0.016,-0.02,-0.106,-0.084,-0.066
-0.043,-0.093,-0.05,0.068,0.004,-0.071,0.041,0.001,-0.03,-0.096,-0.075,-0.064
-0.067,-0.135,-0.068,0.101,0.0,-0.101,0.044,-0.017,-0.069,-0.112,-0.115,-0.101
-0.09,-0.185,-0.094,0.138,0.002,-0.139,0.048,-0.036,-0.113,-0.179,-0.179,-0.155
-0.078,-0.225,-0.147,0.152,0.035,-0.186,0.049,-0.024,-0.123,-0.205,-0.2,-0.167
-0.073,-0.242,-0.169,0.157,0.048,-0.205,0.057,-0.028,-0.139,-0.208,-0.202,-0.178
-0.06,-0.252,-0.192,0.156,0.066,-0.222,0.05,-0.033,-0.122,-0.217,-0.197,-0.179
-0.044,-0.209,-0.166,0.127,0.061,-0.187,0.065,0.0,-0.083,-0.172,-0.168,-0.154
-0.028,-0.111,-0.083,0.069,0.028,-0.096,0.075,0.008,-0.062,-0.128,-0.128,-0.12
-0.054,-0.055,0.0,0.055,-0.027,-0.027,0.134,0.042,-0.013,-0.072,-0.094,-0.08
-0.077,0.02,0.097,0.028,-0.087,0.058,0.173,0.061,0.016,-0.028,-0.051,-0.039
-0.041,0.081,0.122,-0.02,-0.082,0.101,0.104,0.044,0.027,-0.031,-0.035,-0.023
-0.049,0.083,0.132,-0.017,-0.091,0.108,0.048,0.02,0.008,-0.041,-0.05,-0.026
-0.031,0.083,0.114,-0.026,-0.072,0.098,0.011,0.028,0.023,-0.018,-0.041,-0.024
0.001,0.066,0.065,-0.033,-0.032,0.065,0.001,0.013,0.003,-0.035,-0.048,-0.027
0.005,0.04,0.035,-0.023,-0.015,0.037,-0.011,0.006,0.012,-0.009,-0.042,-0.021
-0.04,-0.015,0.025,0.027,-0.032,0.005,0.03,0.08,0.047,-0.007,-0.047,-0.043
-0.033,-0.017,0.016,0.025,-0.024,0.0,0.068,0.28,0.268,0.137,0.043,-0.034
0.117,0.116,-0.001,-0.117,0.059,0.057,-0.065,0.137,0.53,0.551,0.523,0.353
0.557,0.478,-0.079,-0.517,0.318,0.199,-0.59,-1.2,-0.136,0.762,1.227,1.126
0.896,0.541,-0.355,-0.718,0.625,0.093,-0.918,-2.069,-0.932,0.516,1.083,1.139
0.32,-0.052,-0.371,-0.134,0.346,-0.212,-0.348,-1.534,-1.31,-0.606,-0.267,0.089
-0.208,-0.357,-0.149,0.282,-0.03,-0.252,0.157,-0.932,-1.181,-1.103,-0.873,-0.447
-0.17,-0.269,-0.098,0.22,-0.036,-0.183,0.179,-0.413,-0.481,-0.466,-0.431,-0.274
-0.151,-0.225,-0.074,0.188,-0.038,-0.15,0.131,-0.079,-0.173,-0.242,-0.276,-0.215
-0.087,-0.207,-0.12,0.147,0.016,-0.163,0.073,0.029,-0.08,-0.181,-0.223,-0.201
-0.084,-0.226,-0.142,0.155,0.029,-0.184,0.069,0.078,-0.036,-0.156,-0.2,-0.195
-0.061,-0.201,-0.14,0.131,0.04,-0.171,0.048,0.087,-0.039,-0.157,-0.196,-0.191
-0.023,-0.16,-0.137,0.091,0.057,-0.148,0.052,0.127,0.021,-0.095,-0.136,-0.151
-0.016,-0.065,-0.049,0.04,0.017,-0.056,0.057,0.14,0.067,-0.054,-0.105,-0.091
-0.018,0.026,0.044,-0.004,-0.031,0.035,0.14,0.201,0.136,0.005,-0.056,-0.033
-0.078,0.071,0.149,0.003,-0.113,0.11,0.21,0.245,0.185,0.032,-0.023,-0.005
-0.04,0.129,0.17,-0.045,-0.105,0.149,0.087,0.236,0.201,0.081,0.01,0.009
0.001,0.156,0.155,-0.079,-0.077,0.155,0.011,0.244,0.205,0.095,0.033,0.02
0.004,0.149,0.145,-0.076,-0.071,0.147,-0.008,0.245,0.234,0.11,0.043,0.033
0.026,0.137,0.111,-0.082,-0.043,0.124,-0.037,0.245,0.244,0.111,0.033,0.028
0.016,0.127,0.111,-0.072,-0.048,0.119,-0.026,0.283,0.251,0.109,0.023,0.021
0.004,0.114,0.11,-0.059,-0.053,0.112,0.001,0.327,0.264,0.115,0.017,0.014
-0.002,0.104,0.106,-0.051,-0.054,0.105,0.009,0.348,0.255,0.09,0.004,0.008
-0.022,0.083,0.105,-0.031,-0.064,0.094,0.017,0.359,0.245,0.079,0.001,-0.004
-0.027,0.077,0.104,-0.026,-0.065,0.09,0.04,0.365,0.235,0.06,-0.014,-0.02
-0.019,0.081,0.1,-0.031,-0.06,0.09,0.051,0.372,0.22,0.017,-0.049,-0.037
-0.021,0.064,0.085,-0.022,-0.053,0.075,0.059,0.357,0.191,-0.02,-0.08,-0.058
-0.042,0.039,0.081,0.002,-0.062,0.06,0.059,0.324,0.14,-0.042,-0.1,-0.067
-0.06,0.0,0.059,0.03,-0.059,0.029,0.049,0.26,0.091,-0.059,-0.109,-0.069
-0.07,-0.038,0.033,0.054,-0.051,-0.002,0.047,0.182,0.037,-0.109,-0.136,-0.091
-0.091,-0.099,-0.007,0.095,-0.042,-0.053,0.039,0.124,-0.01,-0.136,-0.159,-0.124
-0.083,-0.15,-0.067,0.117,-0.008,-0.108,0.034,0.071,-0.052,-0.148,-0.166,-0.139
-0.086,-0.183,-0.098,0.135,0.007,-0.14,0.038,0.014,-0.1,-0.155,-0.163,-0.154
-0.079,-0.204,-0.126,0.142,0.024,-0.165,0.029,-0.009,-0.102,-0.14,-0.153,-0.152
-0.041,-0.134,-0.093,0.088,0.026,-0.114,0.052,0.014,-0.069,-0.121,-0.136,-0.116
-0.012,-0.044,-0.032,0.028,0.01,-0.037,0.061,0.028,-0.029,-0.079,-0.087,-0.072
-0.041,-0.004,0.037,0.022,-0.039,0.017,0.149,0.063,0.004,-0.043,-0.051,-0.038
-0.078,0.05,0.128,0.014,-0.103,0.088,0.223,0.076,0.032,-0.011,-0.028,-0.025
-0.043,0.104,0.147,-0.031,-0.095,0.125,0.096,0.031,0.029,-0.011,-0.022,-0.02
-0.035,0.112,0.148,-0.039,-0.092,0.13,0.014,0.031,0.039,0.002,-0.012,-0.012
-0.047,0.096,0.143,-0.025,-0.095,0.119,-0.001,0.027,0.025,-0.003,-0.01,-0.012
-0.015,0.091,0.106,-0.038,-0.06,0.098,-0.03,0.02,0.024,0.009,0.002,-0.002
-0.012,0.086,0.098,-0.037,-0.055,0.091,-0.018,0.027,0.025,0.011,0.004,-0.003
-0.026,0.065,0.091,-0.02,-0.059,0.078,-0.023,0.009,0.003,-0.004,-0.004,0.003
-0.052,0.046,0.098,0.003,-0.075,0.071,0.013,0.045,0.043,0.013,-0.007,-0.006
-0.044,0.017,0.061,0.013,-0.053,0.039,0.049,0.174,0.106,0.019,-0.025,-0.048
0.024,0.073,0.049,-0.049,-0.013,0.061,0.023,0.331,0.471,0.361,0.254,0.12
0.323,0.317,-0.006,-0.32,0.164,0.155,-0.319,-0.54,0.257,0.68,0.889,0.741
0.88,0.584,-0.296,-0.732,0.588,0.144,-0.904,-1.898,-0.626,0.638,1.159,1.15
0.548,0.259,-0.289,-0.403,0.419,-0.015,-0.567,-1.902,-1.31,-0.359,0.042,0.351
-0.189,-0.263,-0.074,0.226,-0.057,-0.168,0.143,-1.248,-1.453,-1.259,-0.954,-0.454
-0.194,-0.253,-0.059,0.223,-0.067,-0.155,0.194,-0.624,-0.694,-0.655,-0.54,-0.318
-0.144,-0.2,-0.056,0.172,-0.044,-0.127,0.113,-0.149,-0.193,-0.248,-0.266,-0.206
-0.123,-0.195,-0.072,0.159,-0.025,-0.133,0.052,-0.023,-0.124,-0.214,-0.243,-0.2
-0.074,-0.167,-0.093,0.121,0.01,-0.13,0.03,0.023,-0.052,-0.14,-0.167,-0.181
-0.038,-0.144,-0.106,0.091,0.034,-0.125,0.037,0.066,-0.027,-0.146,-0.162,-0.175
0.015,-0.058,-0.073,0.022,0.044,-0.065,0.025,0.112,0.059,-0.053,-0.097,-0.115
0.006,0.014,0.008,-0.01,-0.001,0.011,0.079,0.137,0.088,-0.042,-0.073,-0.078
-0.006,0.093,0.099,-0.044,-0.053,0.096,0.171,0.187,0.156,0.021,-0.016,-0.026
-0.014,0.145,0.159,-0.066,-0.086,0.152,0.117,0.205,0.178,0.059,0.016,0.003
0.012,0.174,0.161,-0.093,-0.075,0.167,0.0,0.196,0.204,0.109,0.048,0.029
0.029,0.173,0.145,-0.101,-0.058,0.159,-0.029,0.203,0.229,0.137,0.065,0.042
0.046,0.165,0.119,-0.106,-0.037,0.142,-0.052,0.215,0.229,0.128,0.063,0.046
0.038,0.159,0.121,-0.099,-0.042,0.14,-0.041,0.253,0.267,0.149,0.082,0.055
0.065,0.151,0.085,-0.108,-0.01,0.118,-0.037,0.288,0.283,0.153,0.082,0.055
0.094,0.144,0.049,-0.119,0.022,0.096,-0.033,0.319,0.294,0.15,0.076,0.055
0.085,0.141,0.055,-0.113,0.015,0.098,-0.025,0.35,0.311,0.142,0.071,0.055
0.084,0.145,0.06,-0.115,0.012,0.102,-0.023,0.349,0.301,0.138,0.064,0.055
0.06,0.135,0.076,-0.098,-0.008,0.105,-0.015,0.346,0.282,0.129,0.06,0.055
0.076,0.128,0.052,-0.102,0.012,0.09,-0.014,0.344,0.258,0.1,0.042,0.051
0.088,0.117,0.029,-0.103,0.029,0.073,-0.008,0.311,0.22,0.074,0.018,0.035
0.069,0.092,0.023,-0.081,0.023,0.057,-0.007,0.266,0.179,0.047,0.008,0.02
0.039,0.046,0.007,-0.043,0.016,0.027,-0.001,0.183,0.109,-0.007,-0.022,-0.009
-0.008,-0.014,-0.007,0.011,0.0,-0.01,0.001,0.098,0.027,-0.056,-0.07,-0.051
-0.045,-0.088,-0.044,0.067,0.0,-0.066,0.014,0.043,-0.031,-0.091,-0.099,-0.086
-0.061,-0.144,-0.083,0.103,0.011,-0.113,0.018,0.011,-0.088,-0.139,-0.138,-0.123
-0.055,-0.141,-0.086,0.098,0.016,-0.114,0.011,-0.001,-0.102,-0.152,-0.144,-0.132
-0.035,-0.108,-0.073,0.071,0.019,-0.09,0.03,-0.005,-0.072,-0.122,-0.108,-0.102
-0.004,-0.03,-0.026,0.017,0.012,-0.028,0.026,0.012,-0.054,-0.092,-0.085,-0.072
-0.047,0.039,0.086,0.004,-0.067,0.062,0.129,0.043,-0.019,-0.054,-0.052,-0.04
-0.087,0.092,0.179,-0.003,-0.133,0.135,0.188,0.06,0.008,-0.022,-0.023,-0.019
-0.051,0.153,0.204,-0.051,-0.128,0.178,0.063,0.035,0.002,-0.021,-0.018,-0.011
-0.033,0.154,0.187,-0.06,-0.11,0.17,0.01,0.018,0.001,-0.019,-0.012,-0.006
-0.052,0.129,0.181,-0.039,-0.116,0.155,-0.012,0.017,-0.004,-0.017,-0.009,-0.001
-0.04,0.118,0.159,-0.039,-0.1,0.138,-0.025,0.005,-0.009,-0.015,-0.003,0.006
-0.003,0.113,0.116,-0.056,-0.06,0.114,-0.016,0.004,-0.008,-0.014,0.0,0.009
-0.016,0.099,0.115,-0.042,-0.066,0.107,-0.024,-0.012,-0.025,-0.034,-0.011,0.002
-0.035,0.078,0.112,-0.022,-0.074,0.095,-0.017,-0.01,-0.03,-0.044,-0.024,-0.011
-0.04,0.063,0.103,-0.012,-0.071,0.083,-0.022,-0.026,-0.055,-0.064,-0.039,-0.022
-0.035,0.057,0.092,-0.011,-0.064,0.074,-0.016,-0.044,-0.042,-0.056,-0.038,-0.033
-0.054,0.037,0.091,0.008,-0.072,0.063,-0.003,-0.058,-0.06,-0.08,-0.053,-0.036
-0.048,0.03,0.078,0.009,-0.063,0.054,-0.005,-0.061,-0.059,-0.064,-0.055,-0.041
-0.089,-0.008,0.081,0.048,-0.085,0.036,0.032,0.009,-0.029,-0.075,-0.073,-0.061
-0.084,-0.006,0.077,0.045,-0.08,0.035,0.066,0.265,0.209,0.084,0.016,-0.03
0.074,0.124,0.05,-0.099,0.012,0.087,-0.084,0.021,0.411,0.492,0.487,0.321
0.489,0.369,-0.12,-0.429,0.304,0.124,-0.645,-1.474,-0.311,0.66,1.124,0.999
0.797,0.368,-0.429,-0.582,0.613,-0.031,-0.924,-2.338,-1.169,0.262,0.829,0.92
0.209,-0.214,-0.423,0.003,0.316,-0.318,-0.343,-1.8,-1.631,-0.959,-0.57,-0.136
-0.219,-0.463,-0.245,0.341,0.013,-0.354,0.133,-1.094,-1.354,-1.256,-0.994,-0.567
-0.117,-0.208,-0.091,0.163,-0.012,-0.15,0.161,-0.419,-0.473,-0.46,-0.401,-0.276
-0.141,-0.046,0.095,0.093,-0.118,0.024,0.19,-0.043,-0.112,-0.18,-0.178,-0.144
-0.066,0.074,0.141,-0.004,-0.104,0.107,0.169,0.063,0.01,-0.061,-0.083,-0.074
-0.038,0.143,0.181,-0.053,-0.11,0.162,0.086,0.097,0.077,-0.017,-0.042,-0.034
-0.016,0.175,0.191,-0.08,-0.104,0.183,0.022,0.103,0.108,-0.004,-0.031,-0.029
0.012,0.163,0.151,-0.088,-0.069,0.156,-0.043,0.134,0.137,0.026,-0.01,-0.016
-0.055,0.148,0.203,-0.047,-0.129,0.175,-0.064,0.131,0.111,0.036,0.006,0.003
-0.037,0.142,0.179,-0.053,-0.108,0.16,-0.058,0.137,0.128,0.066,0.027,0.019
0.0,0.125,0.125,-0.063,-0.063,0.125,-0.061,0.174,0.155,0.051,0.016,0.012
0.023,0.117,0.094,-0.07,-0.036,0.106,-0.059,0.195,0.176,0.066,0.022,0.012
0.073,0.112,0.039,-0.092,0.017,0.075,-0.061,0.195,0.167,0.062,0.014,0.008
0.075,0.116,0.041,-0.096,0.017,0.078,-0.053,0.203,0.181,0.065,0.015,0.005
0.067,0.13,0.063,-0.099,0.002,0.097,-0.034,0.237,0.206,0.067,0.014,0.004
0.081,0.133,0.052,-0.107,0.014,0.092,-0.035,0.282,0.216,0.061,0.0,-0.007
0.116,0.124,0.009,-0.12,0.053,0.066,-0.046,0.295,0.208,0.048,-0.013,-0.039
0.085,0.103,0.018,-0.094,0.033,0.06,-0.024,0.321,0.208,0.024,-0.022,-0.046
0.051,0.061,0.01,-0.055,0.02,0.035,0.0,0.325,0.184,-0.013,-0.068,-0.069
0.081,0.029,-0.052,-0.055,0.067,-0.012,-0.009,0.314,0.132,-0.05,-0.126,-0.118
0.043,-0.012,-0.055,-0.015,0.049,-0.033,0.003,0.313,0.115,-0.083,-0.154,-0.128
0.029,-0.025,-0.054,-0.002,0.042,-0.039,-0.004,0.268,0.104,-0.114,-0.162,-0.142
0.08,0.001,-0.079,-0.04,0.08,-0.039,0.006,0.201,0.082,-0.111,-0.14,-0.132
0.102,0.056,-0.046,-0.078,0.074,0.005,0.021,0.17,0.068,-0.087,-0.099,-0.092
0.103,0.117,0.014,-0.11,0.045,0.065,0.041,0.156,0.057,-0.063,-0.057,-0.059
0.055,0.137,0.082,-0.097,-0.014,0.109,0.142,0.098,0.046,-0.03,-0.039,-0.022
0.03,0.176,0.146,-0.103,-0.058,0.16,0.089,0.033,0.029,-0.019,-0.038,-0.009
0.048,0.192,0.144,-0.12,-0.048,0.167,-0.037,-0.013,0.007,-0.029,-0.042,-0.015
0.051,0.173,0.123,-0.112,-0.036,0.148,-0.065,-0.05,-0.009,-0.038,-0.044,-0.02
0.041,0.16,0.118,-0.101,-0.039,0.139,-0.079,-0.061,-0.026,-0.045,-0.048,-0.026
0.015,0.124,0.11,-0.07,-0.048,0.117,-0.066,-0.06,-0.053,-0.06,-0.05,-0.031
0.021,0.105,0.084,-0.063,-0.032,0.094,-0.066,-0.061,-0.063,-0.07,-0.051,-0.037
0.018,0.095,0.077,-0.057,-0.03,0.086,-0.059,-0.058,-0.071,-0.084,-0.071,-0.047
0.008,0.081,0.073,-0.045,-0.032,0.077,-0.056,-0.063,-0.085,-0.096,-0.078,-0.046
0.006,0.074,0.068,-0.04,-0.031,0.071,-0.051,-0.053,-0.076,-0.084,-0.071,-0.043
-0.004,0.06,0.064,-0.028,-0.034,0.062,-0.044,-0.053,-0.095,-0.093,-0.08,-0.061
-0.002,0.057,0.059,-0.028,-0.031,0.057,-0.041,-0.039,-0.078,-0.085,-0.076,-0.064
-0.013,0.042,0.055,-0.015,-0.034,0.048,-0.031,-0.038,-0.102,-0.117,-0.107,-0.075
-0.004,0.039,0.043,-0.018,-0.024,0.041,-0.032,-0.032,-0.077,-0.074,-0.085,-0.066
-0.024,0.01,0.034,0.007,-0.029,0.022,-0.007,0.004,-0.075,-0.102,-0.115,-0.105
0.004,-0.024,-0.027,0.01,0.016,-0.025,0.013,0.209,0.138,0.021,-0.066,-0.127
0.135,0.071,-0.064,-0.103,0.099,0.004,-0.088,0.013,0.382,0.438,0.43,0.247
0.57,0.339,-0.231,-0.454,0.401,0.053,-0.638,-1.36,-0.299,0.598,1.024,0.909
0.845,0.387,-0.459,-0.616,0.652,-0.036,-0.909,-2.157,-1.139,0.164,0.674,0.791
0.191,-0.099,-0.29,-0.046,0.241,-0.194,-0.237,-1.67,-1.637,-1.058,-0.68,-0.211
-0.245,-0.27,-0.026,0.257,-0.109,-0.148,0.201,-1.02,-1.3,-1.2,-0.943,-0.518
-0.121,-0.051,0.07,0.086,-0.096,0.009,0.227,-0.343,-0.384,-0.355,-0.308,-0.207
-0.079,0.066,0.146,0.006,-0.112,0.106,0.206,-0.003,-0.077,-0.144,-0.145,-0.113
-0.008,0.179,0.187,-0.086,-0.098,0.182,0.043,0.067,0.05,-0.009,-0.035,-0.047
-0.011,0.174,0.186,-0.082,-0.099,0.18,-0.001,0.102,0.093,0.016,-0.036,-0.036
-0.001,0.167,0.168,-0.083,-0.084,0.167,-0.033,0.104,0.085,0.005,-0.039,-0.031
0.018,0.166,0.148,-0.092,-0.066,0.157,-0.052,0.116,0.105,0.026,-0.008,-0.023
0.024,0.152,0.127,-0.088,-0.052,0.139,-0.054,0.105,0.096,0.018,-0.017,-0.024
0.036,0.153,0.117,-0.095,-0.041,0.135,-0.06,0.138,0.122,0.045,0.001,-0.014
0.028,0.139,0.111,-0.084,-0.041,0.125,-0.043,0.162,0.124,0.036,-0.004,-0.014
0.035,0.14,0.104,-0.088,-0.035,0.121,-0.044,0.18,0.148,0.058,0.01,-0.008
0.034,0.131,0.097,-0.083,-0.032,0.114,-0.032,0.203,0.163,0.064,0.01,-0.011
0.038,0.129,0.092,-0.084,-0.027,0.11,-0.029,0.231,0.18,0.064,0.019,-0.006
0.039,0.123,0.085,-0.081,-0.023,0.104,-0.021,0.256,0.198,0.07,0.028,-0.005
0.044,0.12,0.075,-0.082,-0.015,0.097,-0.013,0.291,0.217,0.081,0.023,-0.005
0.045,0.109,0.064,-0.077,-0.01,0.086,-0.009,0.322,0.215,0.07,0.008,-0.017
0.042,0.084,0.042,-0.063,0.0,0.062,0.001,0.315,0.196,0.042,-0.006,-0.034
0.024,0.045,0.021,-0.035,0.001,0.033,-0.005,0.309,0.18,0.011,-0.05,-0.06
0.046,0.029,-0.017,-0.038,0.032,0.006,-0.005,0.305,0.153,-0.022,-0.1,-0.097
0.065,0.026,-0.039,-0.045,0.052,-0.006,-0.011,0.289,0.139,-0.028,-0.107,-0.101
0.052,0.037,-0.014,-0.045,0.033,0.011,-0.004,0.275,0.137,0.004,-0.074,-0.07
0.064,0.107,0.042,-0.086,0.011,0.074,0.007,0.25,0.131,0.036,-0.032,-0.033
0.013,0.143,0.13,-0.078,-0.059,0.136,0.055,0.211,0.127,0.038,-0.013,-0.016
-0.045,0.157,0.202,-0.057,-0.124,0.179,0.177,0.173,0.118,0.03,0.003,-0.005
-0.042,0.209,0.251,-0.084,-0.147,0.229,0.126,0.106,0.098,0.021,0.008,0.012
-0.046,0.218,0.265,-0.086,-0.156,0.241,0.009,0.038,0.061,0.015,0.024,0.015
-0.026,0.213,0.238,-0.094,-0.132,0.225,-0.001,0.011,0.024,0.006,0.025,0.001
-0.01,0.189,0.2,-0.09,-0.105,0.194,-0.02,0.0,0.008,-0.005,0.006,-0.018
-0.041,0.137,0.178,-0.048,-0.11,0.157,-0.035,-0.011,-0.001,-0.017,-0.01,-0.024
-0.059,0.118,0.178,-0.03,-0.119,0.148,-0.042,-0.017,-0.019,-0.049,-0.054,-0.042
-0.061,0.111,0.172,-0.025,-0.117,0.141,-0.03,-0.017,-0.031,-0.046,-0.046,-0.056
-0.073,0.097,0.17,-0.012,-0.122,0.133,-0.016,-0.01,-0.03,-0.059,-0.052,-0.056
-0.077,0.088,0.165,-0.006,-0.121,0.126,-0.01,-0.013,-0.031,-0.089,-0.09,-0.062
-0.088,0.074,0.162,0.007,-0.126,0.118,0.002,-0.003,-0.042,-0.081,-0.081,-0.058
-0.09,0.07,0.16,0.01,-0.126,0.115,0.007,-0.008,-0.062,-0.091,-0.088,-0.064
-0.072,0.065,0.138,0.003,-0.106,0.101,0.028,-0.012,-0.042,-0.077,-0.083,-0.069
-0.09,0.018,0.108,0.036,-0.1,0.063,0.031,-0.022,-0.068,-0.104,-0.101,-0.093
-0.088,-0.001,0.087,0.045,-0.087,0.042,0.028,-0.034,-0.086,-0.124,-0.126,-0.113
-0.122,-0.044,0.079,0.083,-0.101,0.017,0.041,-0.058,-0.124,-0.166,-0.155,-0.131
-0.144,-0.109,0.035,0.126,-0.089,-0.037,0.024,-0.071,-0.15,-0.171,-0.183,-0.163
-0.129,-0.124,0.004,0.126,-0.066,-0.06,0.062,-0.005,-0.115,-0.171,-0.197,-0.186
-0.096,-0.139,-0.043,0.118,-0.026,-0.091,0.078,0.188,0.065,-0.061,-0.135,-0.187
0.065,0.025,-0.039,-0.045,0.052,-0.007,-0.006,0.183,0.421,0.403,0.347,0.182
0.522,0.42,-0.101,-0.471,0.311,0.159,-0.486,-1.015,-0.053,0.618,0.983,0.89
0.901,0.598,-0.304,-0.749,0.602,0.147,-0.821,-2.065,-0.892,0.357,0.867,0.956
0.309,0.196,-0.113,-0.252,0.211,0.042,-0.225,-1.627,-1.311,-0.615,-0.273,0.084
-0.321,-0.117,0.204,0.219,-0.262,0.043,0.255,-0.98,-1.198,-1.102,-0.863,-0.438
-0.245,0.004,0.249,0.12,-0.247,0.126,0.183,-0.447,-0.462,-0.435,-0.384,-0.236
-0.145,0.081,0.226,0.032,-0.185,0.153,0.079,-0.068,-0.072,-0.129,-0.138,-0.111
-0.057,0.126,0.183,-0.034,-0.12,0.154,0.013,0.03,0.028,-0.061,-0.092,-0.083
-0.025,0.137,0.162,-0.056,-0.093,0.149,-0.004,0.083,0.082,-0.018,-0.055,-0.06
-0.051,0.102,0.153,-0.026,-0.102,0.127,-0.006,0.093,0.068,-0.031,-0.057,-0.061
-0.038,0.104,0.142,-0.033,-0.09,0.122,-0.007,0.116,0.1,0.003,-0.031,-0.045
-0.029,0.104,0.133,-0.037,-0.082,0.118,-0.024,0.124,0.104,-0.005,-0.034,-0.042
-0.031,0.098,0.129,-0.033,-0.08,0.113,-0.023,0.136,0.117,0.009,-0.033,-0.035
-0.036,0.09,0.126,-0.027,-0.082,0.108,-0.015,0.161,0.117,-0.012,-0.053,-0.028
-0.04,0.085,0.125,-0.023,-0.083,0.105,-0.015,0.18,0.136,0.018,-0.048,-0.03
-0.025,0.076,0.101,-0.026,-0.063,0.089,-0.005,0.199,0.144,0.034,-0.052,-0.05
0.007,0.073,0.066,-0.04,-0.029,0.069,-0.006,0.221,0.164,0.027,-0.047,-0.051
-0.006,0.044,0.051,-0.019,-0.028,0.047,0.007,0.238,0.174,0.01,-0.067,-0.065
-0.019,0.014,0.033,0.002,-0.026,0.023,0.013,0.267,0.172,0.01,-0.077,-0.088
-0.031,-0.011,0.019,0.021,-0.025,0.004,0.026,0.308,0.177,0.008,-0.077,-0.108
-0.025,-0.035,-0.011,0.03,-0.007,-0.023,0.03,0.319,0.164,-0.042,-0.115,-0.135
-0.008,-0.018,-0.01,0.013,0.001,-0.013,0.035,0.345,0.177,-0.022,-0.1,-0.112
0.029,0.063,0.034,-0.046,-0.002,0.048,0.058,0.389,0.208,0.019,-0.063,-0.073
0.057,0.158,0.101,-0.108,-0.022,0.129,0.068,0.399,0.238,0.021,-0.045,-0.052
-0.025,0.18,0.204,-0.078,-0.115,0.192,0.179,0.387,0.264,0.053,-0.015,-0.015
-0.037,0.221,0.259,-0.092,-0.148,0.24,0.188,0.33,0.247,0.093,0.025,0.024
0.003,0.274,0.271,-0.139,-0.134,0.272,0.049,0.233,0.202,0.091,0.038,0.049
-0.021,0.241,0.262,-0.11,-0.142,0.251,0.007,0.148,0.143,0.053,0.031,0.041
-0.029,0.194,0.224,-0.082,-0.127,0.209,-0.018,0.09,0.091,0.029,0.029,0.027
-0.041,0.156,0.198,-0.058,-0.119,0.177,-0.04,0.046,0.057,-0.008,-0.002,0.009
-0.07,0.113,0.183,-0.022,-0.126,0.148,-0.04,0.024,0.027,-0.026,-0.041,-0.018
-0.08,0.09,0.17,-0.005,-0.125,0.13,-0.033,0.012,-0.007,-0.032,-0.054,-0.035
-0.081,0.079,0.16,0.0,-0.121,0.12,-0.022,0.001,-0.025,-0.045,-0.045,-0.045
-0.084,0.068,0.152,0.008,-0.118,0.109,-0.016,-0.003,-0.024,-0.053,-0.055,-0.054
-0.086,0.057,0.143,0.014,-0.115,0.1,-0.003,-0.005,-0.046,-0.097,-0.098,-0.078
-0.088,0.047,0.135,0.02,-0.112,0.091,0.004,-0.009,-0.062,-0.111,-0.112,-0.092
-0.097,0.038,0.136,0.029,-0.117,0.087,0.018,-0.013,-0.05,-0.104,-0.108,-0.1
-0.122,0.01,0.133,0.055,-0.128,0.072,0.031,-0.016,-0.046,-0.099,-0.102,-0.104
-0.125,-0.023,0.102,0.073,-0.113,0.039,0.03,-0.025,-0.077,-0.135,-0.14,-0.131
-0.113,-0.052,0.061,0.082,-0.087,0.004,0.029,-0.035,-0.111,-0.165,-0.183,-0.158
-0.114,-0.079,0.034,0.096,-0.074,-0.022,0.038,-0.045,-0.124,-0.165,-0.181,-0.162
-0.113,-0.113,0.001,0.113,-0.056,-0.056,0.066,-0.047,-0.143,-0.21,-0.208,-0.195
-0.132,-0.157,-0.025,0.144,-0.053,-0.091,0.065,-0.038,-0.134,-0.203,-0.214,-0.212
-0.115,-0.148,-0.033,0.132,-0.041,-0.09,0.067,-0.035,-0.132,-0.186,-0.19,-0.19
-0.077,-0.089,-0.012,0.083,-0.032,-0.051,0.074,-0.021,-0.107,-0.16,-0.149,-0.15
-0.066,0.003,0.068,0.031,-0.067,0.035,0.066,0.001,-0.066,-0.113,-0.124,-0.121
-0.089,0.067,0.156,0.01,-0.122,0.111,0.173,0.052,-0.021,-0.07,-0.111,-0.102
-0.131,0.091,0.222,0.019,-0.176,0.156,0.176,0.04,0.001,-0.061,-0.08,-0.071
-0.083,0.148,0.231,-0.033,-0.157,0.189,0.046,-0.002,0.002,-0.057,-0.073,-0.067
-0.055,0.164,0.219,-0.055,-0.137,0.192,0.01,0.015,0.02,-0.035,-0.054,-0.062
-0.071,0.132,0.203,-0.031,-0.137,0.167,-0.041,-0.015,-0.014,-0.055,-0.07,-0.068
-0.059,0.123,0.183,-0.032,-0.121,0.153,-0.035,0.028,0.031,0.004,-0.037,-0.062
-0.053,0.102,0.155,-0.025,-0.104,0.128,0.018,0.172,0.112,0.008,-0.03,-0.061
0.035,0.135,0.1,-0.086,-0.033,0.117,0.003,0.344,0.483,0.363,0.25,0.115
0.31,0.371,0.061,-0.34,0.124,0.216,-0.328,-0.437,0.287,0.715,0.943,0.774
0.787,0.613,-0.174,-0.7,0.48,0.219,-0.893,-1.795,-0.663,0.625,1.234,1.236
0.624,0.335,-0.29,-0.479,0.457,0.022,-0.678,-1.762,-1.151,-0.069,0.347,0.577
-0.143,-0.188,-0.045,0.165,-0.049,-0.116,0.003,-1.089,-1.302,-1.066,-0.791,-0.353
-0.3,-0.228,0.073,0.264,-0.187,-0.077,0.182,-0.609,-0.798,-0.78,-0.659,-0.398
-0.184,-0.126,0.058,0.155,-0.12,-0.034,0.134,-0.164,-0.224,-0.257,-0.277,-0.219
-0.144,-0.097,0.047,0.121,-0.096,-0.025,0.063,0.01,-0.113,-0.21,-0.241,-0.198
-0.081,-0.052,0.029,0.066,-0.055,-0.011,0.031,0.05,-0.036,-0.135,-0.191,-0.162
-0.135,-0.119,0.016,0.126,-0.075,-0.052,0.045,0.057,-0.052,-0.156,-0.223,-0.202
-0.12,-0.153,-0.033,0.136,-0.043,-0.093,0.037,0.067,-0.035,-0.143,-0.202,-0.22
-0.092,-0.162,-0.07,0.127,-0.011,-0.116,0.041,0.078,-0.023,-0.17,-0.214,-0.206
-0.057,-0.118,-0.061,0.088,0.002,-0.089,0.042,0.13,0.029,-0.104,-0.176,-0.161
-0.023,-0.033,-0.01,0.028,-0.006,-0.021,0.028,0.153,0.068,-0.082,-0.136,-0.146
-0.023,0.059,0.082,-0.018,-0.053,0.07,0.076,0.202,0.147,0.006,-0.074,-0.095
-0.045,0.134,0.18,-0.045,-0.113,0.157,0.177,0.276,0.226,0.09,-0.016,-0.04
-0.048,0.168,0.216,-0.06,-0.132,0.192,0.12,0.281,0.232,0.084,-0.015,-0.036
0.018,0.221,0.203,-0.12,-0.092,0.212,0.024,0.287,0.256,0.122,0.004,-0.016
0.008,0.203,0.195,-0.106,-0.094,0.199,-0.009,0.292,0.273,0.114,0.019,-0.005
-0.008,0.179,0.186,-0.086,-0.097,0.182,-0.037,0.317,0.299,0.136,0.043,0.007
0.008,0.178,0.171,-0.093,-0.082,0.174,-0.037,0.351,0.291,0.131,0.042,0.022
0.004,0.164,0.16,-0.084,-0.078,0.162,-0.032,0.363,0.279,0.104,0.029,0.006
0.009,0.161,0.152,-0.085,-0.072,0.156,-0.025,0.36,0.271,0.09,0.017,-0.033
-0.009,0.151,0.16,-0.071,-0.085,0.156,-0.014,0.347,0.26,0.065,-0.018,-0.036
-0.023,0.146,0.169,-0.062,-0.096,0.157,-0.008,0.336,0.242,0.053,-0.05,-0.035
-0.023,0.14,0.163,-0.059,-0.093,0.151,0.0,0.324,0.199,0.038,-0.057,-0.035
-0.042,0.112,0.154,-0.035,-0.099,0.133,0.004,0.276,0.148,0.011,-0.063,-0.044
-0.059,0.07,0.128,-0.006,-0.094,0.099,0.016,0.204,0.095,-0.025,-0.061,-0.075
-0.071,0.03,0.101,0.021,-0.087,0.065,0.024,0.153,0.046,-0.042,-0.079,-0.081
-0.081,-0.015,0.066,0.047,-0.073,0.025,0.012,0.091,-0.015,-0.082,-0.11,-0.094
-0.087,-0.069,0.019,0.078,-0.053,-0.025,0.026,0.046,-0.063,-0.139,-0.147,-0.135
-0.12,-0.137,-0.017,0.129,-0.051,-0.077,0.05,0.035,-0.098,-0.156,-0.184,-0.18
-0.133,-0.176,-0.043,0.155,-0.045,-0.109,0.052,-0.015,-0.122,-0.17,-0.199,-0.199
-0.122,-0.172,-0.051,0.147,-0.035,-0.111,0.046,-0.019,-0.118,-0.183,-0.211,-0.197
-0.092,-0.137,-0.045,0.115,-0.023,-0.091,0.058,0.024,-0.081,-0.149,-0.177,-0.173
-0.075,-0.053,0.022,0.064,-0.048,-0.015,0.066,0.047,-0.032,-0.108,-0.133,-0.122
-0.077,0.033,0.11,0.022,-0.093,0.071,0.137,0.094,0.006,-0.063,-0.094,-0.084
-0.095,0.067,0.162,0.014,-0.129,0.114,0.209,0.103,0.038,-0.026,-0.076,-0.064
-0.104,0.102,0.206,0.001,-0.156,0.154,0.098,0.055,0.02,-0.023,-0.067,-0.057
-0.072,0.138,0.21,-0.033,-0.141,0.174,0.021,0.059,0.037,0.003,-0.045,-0.06
-0.076,0.119,0.195,-0.022,-0.136,0.156,-0.004,0.042,0.01,-0.026,-0.045,-0.062
-0.052,0.116,0.167,-0.033,-0.11,0.141,-0.034,0.031,0.029,0.009,-0.025,-0.064
-0.029,0.106,0.136,-0.039,-0.083,0.121,0.019,0.099,0.049,0.001,-0.049,-0.068
0.006,0.104,0.097,-0.055,-0.046,0.1,0.01,0.328,0.339,0.233,0.116,0.015
0.135,0.208,0.073,-0.172,0.031,0.14,-0.12,0.098,0.552,0.655,0.644,0.444
0.558,0.522,-0.035,-0.54,0.296,0.244,-0.656,-1.268,-0.211,0.793,1.276,1.159
0.755,0.559,-0.196,-0.656,0.475,0.181,-0.876,-1.98,-1.001,0.363,0.878,0.986
0.045,-0.042,-0.087,-0.001,0.066,-0.064,-0.177,-1.459,-1.466,-0.931,-0.601,-0.131
-0.346,-0.278,0.068,0.312,-0.207,-0.104,0.18,-0.849,-1.138,-1.075,-0.86,-0.459
-0.183,-0.133,0.05,0.158,-0.117,-0.041,0.093,-0.258,-0.296,-0.281,-0.285,-0.195
-0.183,-0.163,0.02,0.173,-0.102,-0.071,0.065,0.018,-0.093,-0.175,-0.199,-0.187
-0.129,-0.139,-0.01,0.134,-0.059,-0.074,0.017,0.083,-0.023,-0.113,-0.151,-0.175
-0.108,-0.148,-0.04,0.128,-0.033,-0.094,0.03,0.1,-0.014,-0.126,-0.162,-0.183
-0.101,-0.174,-0.073,0.138,-0.013,-0.124,0.022,0.11,-0.011,-0.12,-0.153,-0.185
-0.093,-0.187,-0.094,0.14,0.001,-0.14,0.027,0.131,0.01,-0.104,-0.142,-0.184
-0.081,-0.185,-0.104,0.134,0.012,-0.145,0.023,0.122,0.004,-0.108,-0.147,-0.178
-0.048,-0.136,-0.088,0.092,0.021,-0.112,0.03,0.182,0.069,-0.052,-0.115,-0.131
-0.019,-0.031,-0.012,0.025,-0.003,-0.022,0.043,0.209,0.125,0.003,-0.063,-0.089
-0.007,0.074,0.081,-0.034,-0.044,0.077,0.142,0.279,0.214,0.09,-0.015,-0.026
-0.063,0.093,0.156,-0.015,-0.11,0.124,0.196,0.341,0.249,0.115,0.004,-0.005
-0.024,0.159,0.183,-0.068,-0.104,0.171,0.064,0.332,0.281,0.152,0.062,0.014
0.033,0.208,0.175,-0.121,-0.071,0.191,-0.002,0.336,0.325,0.194,0.098,0.051
0.035,0.193,0.157,-0.114,-0.061,0.175,-0.03,0.337,0.332,0.211,0.112,0.059
0.053,0.197,0.144,-0.125,-0.046,0.17,-0.043,0.359,0.34,0.208,0.107,0.07
0.05,0.187,0.136,-0.119,-0.043,0.161,-0.043,0.37,0.33,0.196,0.093,0.071
0.061,0.188,0.127,-0.124,-0.034,0.157,-0.05,0.359,0.319,0.188,0.086,0.06
0.057,0.178,0.12,-0.118,-0.032,0.149,-0.035,0.357,0.311,0.168,0.075,0.057
0.038,0.145,0.108,-0.092,-0.035,0.126,-0.032,0.339,0.275,0.143,0.064,0.047
0.023,0.145,0.122,-0.084,-0.05,0.134,-0.021,0.29,0.238,0.118,0.057,0.045
0.014,0.134,0.12,-0.074,-0.053,0.126,-0.016,0.226,0.186,0.086,0.034,0.032
-0.009,0.094,0.103,-0.043,-0.057,0.099,-0.01,0.162,0.127,0.057,-0.003,-0.004
-0.064,0.039,0.103,0.012,-0.084,0.071,-0.004,0.111,0.074,0.014,-0.028,-0.028
-0.072,-0.009,0.063,0.04,-0.067,0.026,0.0,0.064,0.003,-0.03,-0.059,-0.055
-0.085,-0.064,0.022,0.074,-0.053,-0.021,0.008,0.006,-0.061,-0.081,-0.107,-0.095
-0.119,-0.126,-0.007,0.123,-0.056,-0.066,0.009,-0.02,-0.108,-0.136,-0.15,-0.142
-0.141,-0.178,-0.036,0.16,-0.052,-0.107,0.022,-0.041,-0.143,-0.171,-0.181,-0.175
-0.141,-0.207,-0.065,0.174,-0.038,-0.136,0.018,-0.039,-0.134,-0.185,-0.197,-0.177
-0.103,-0.169,-0.066,0.136,-0.018,-0.117,0.042,-0.01,-0.104,-0.153,-0.162,-0.156
-0.062,-0.078,-0.017,0.07,-0.022,-0.047,0.049,-0.003,-0.065,-0.102,-0.112,-0.111
-0.062,0.006,0.068,0.028,-0.065,0.036,0.097,0.048,-0.027,-0.066,-0.081,-0.077
-0.132,0.028,0.16,0.052,-0.146,0.094,0.2,0.072,-0.006,-0.041,-0.054,-0.057
-0.116,0.09,0.205,0.013,-0.161,0.147,0.116,0.039,0.021,0.001,-0.02,-0.029
-0.083,0.142,0.225,-0.03,-0.154,0.183,0.021,0.019,0.02,0.014,-0.001,-0.011
-0.097,0.121,0.219,-0.012,-0.158,0.17,0.005,0.03,0.048,0.023,0.0,-0.009
-0.081,0.104,0.185,-0.012,-0.133,0.144,-0.03,0.022,0.031,-0.007,-0.014,-0.006
-0.079,0.089,0.168,-0.005,-0.124,0.128,-0.042,0.021,0.051,0.009,-0.009,-0.005
-0.063,0.079,0.142,-0.008,-0.103,0.111,-0.009,0.076,0.054,0.008,-0.027,-0.043
-0.019,0.068,0.088,-0.025,-0.054,0.078,0.023,0.313,0.28,0.182,0.078,-0.01
0.085,0.185,0.1,-0.135,-0.008,0.142,-0.099,0.116,0.533,0.598,0.567,0.377
0.516,0.515,0.0,-0.516,0.258,0.257,-0.64,-1.315,-0.158,0.796,1.231,1.087
0.798,0.575,-0.223,-0.686,0.51,0.175,-0.942,-2.183,-0.981,0.442,0.965,1.033
0.161,0.011,-0.149,-0.086,0.155,-0.069,-0.328,-1.68,-1.476,-0.807,-0.449,-0.026
-0.373,-0.321,0.051,0.347,-0.212,-0.135,0.162,-1.021,-1.264,-1.15,-0.89,-0.472
-0.25,-0.182,0.068,0.216,-0.159,-0.057,0.149,-0.392,-0.437,-0.401,-0.347,-0.232
-0.163,-0.132,0.031,0.147,-0.097,-0.05,0.1,-0.068,-0.157,-0.215,-0.208,-0.178
-0.143,-0.135,0.008,0.139,-0.075,-0.063,0.035,-0.001,-0.077,-0.15,-0.173,-0.167
-0.117,-0.16,-0.043,0.139,-0.037,-0.101,0.029,0.059,-0.042,-0.136,-0.171,-0.164
-0.11,-0.183,-0.073,0.147,-0.018,-0.128,0.032,0.063,-0.054,-0.145,-0.166,-0.171
-0.102,-0.186,-0.085,0.144,-0.008,-0.135,0.028,0.073,-0.023,-0.116,-0.152,-0.165
-0.068,-0.144,-0.076,0.107,0.004,-0.11,0.042,0.119,0.015,-0.093,-0.129,-0.133
-0.047,-0.051,-0.004,0.049,-0.021,-0.027,0.026,0.168,0.083,-0.022,-0.063,-0.068
-0.045,0.035,0.08,0.005,-0.062,0.057,0.103,0.219,0.145,0.036,-0.01,-0.025
-0.04,0.114,0.154,-0.037,-0.098,0.134,0.184,0.278,0.212,0.1,0.046,0.004
-0.033,0.163,0.196,-0.065,-0.115,0.179,0.08,0.271,0.231,0.112,0.055,0.023
-0.03,0.166,0.196,-0.069,-0.113,0.181,0.0,0.276,0.267,0.148,0.079,0.037
-0.04,0.151,0.191,-0.056,-0.116,0.171,-0.015,0.312,0.299,0.168,0.104,0.052
-0.02,0.147,0.168,-0.064,-0.094,0.157,-0.028,0.342,0.303,0.166,0.106,0.058
-0.005,0.133,0.138,-0.065,-0.072,0.135,-0.033,0.378,0.298,0.16,0.097,0.048
-0.001,0.134,0.134,-0.067,-0.068,0.134,-0.039,0.402,0.29,0.153,0.088,0.04
0.011,0.146,0.135,-0.079,-0.063,0.141,-0.017,0.4,0.287,0.138,0.073,0.033
0.002,0.137,0.135,-0.07,-0.066,0.135,-0.01,0.386,0.273,0.108,0.047,0.024
-0.01,0.125,0.136,-0.058,-0.073,0.13,-0.006,0.38,0.242,0.087,0.034,0.016
-0.02,0.114,0.134,-0.047,-0.078,0.124,-0.003,0.332,0.206,0.065,0.025,0.008
-0.015,0.112,0.127,-0.049,-0.071,0.119,0.0,0.269,0.166,0.04,0.015,-0.002
-0.034,0.074,0.107,-0.02,-0.071,0.09,0.005,0.216,0.108,0.011,-0.001,-0.011
-0.06,0.011,0.071,0.024,-0.066,0.041,0.006,0.125,0.036,-0.031,-0.034,-0.038
-0.068,-0.039,0.029,0.053,-0.048,-0.005,0.016,0.045,-0.034,-0.083,-0.082,-0.078
-0.112,-0.12,-0.008,0.116,-0.052,-0.064,0.018,0.007,-0.081,-0.121,-0.118,-0.122
-0.142,-0.18,-0.038,0.162,-0.052,-0.109,0.028,-0.035,-0.12,-0.146,-0.144,-0.15
-0.152,-0.19,-0.038,0.171,-0.057,-0.114,0.026,-0.06,-0.133,-0.15,-0.154,-0.14
-0.129,-0.158,-0.029,0.144,-0.05,-0.093,0.037,-0.03,-0.101,-0.125,-0.13,-0.128
-0.056,-0.064,-0.008,0.06,-0.024,-0.035,0.036,0.002,-0.061,-0.095,-0.088,-0.087
-0.055,0.016,0.072,0.02,-0.064,0.044,0.099,0.045,-0.024,-0.044,-0.051,-0.053
-0.122,0.032,0.153,0.045,-0.138,0.092,0.196,0.061,-0.014,-0.03,-0.042,-0.046
-0.117,0.085,0.202,0.016,-0.16,0.144,0.093,0.03,0.001,-0.006,-0.012,-0.028
-0.079,0.122,0.201,-0.022,-0.14,0.162,-0.001,0.018,-0.004,0.014,0.002,-0.018
-0.076,0.106,0.182,-0.016,-0.129,0.144,-0.015,0.019,0.009,0.026,0.006,-0.006
-0.085,0.096,0.181,-0.005,-0.134,0.138,-0.036,0.024,0.009,0.015,0.006,-0.017
-0.056,0.08,0.136,-0.012,-0.096,0.107,-0.048,0.011,0.01,0.022,0.01,-0.02
-0.071,0.043,0.113,0.014,-0.092,0.078,-0.033,0.043,0.031,0.021,0.014,-0.019
-0.068,0.027,0.095,0.02,-0.082,0.061,0.013,0.231,0.177,0.095,0.041,-0.029
0.031,0.115,0.083,-0.073,-0.026,0.099,-0.015,0.32,0.557,0.514,0.401,0.21
0.353,0.353,0.0,-0.353,0.177,0.176,-0.425,-0.736,0.148,0.778,1.062,0.865
0.802,0.542,-0.259,-0.672,0.53,0.141,-0.918,-1.986,-0.768,0.592,1.129,1.112
0.365,0.144,-0.221,-0.254,0.293,-0.038,-0.483,-1.81,-1.42,-0.52,-0.126,0.217
-0.318,-0.317,0.001,0.317,-0.159,-0.158,0.163,-1.152,-1.467,-1.273,-0.979,-0.498
-0.234,-0.266,-0.031,0.25,-0.101,-0.148,0.184,-0.534,-0.644,-0.583,-0.505,-0.323
-0.137,-0.211,-0.075,0.174,-0.031,-0.143,0.107,-0.091,-0.173,-0.203,-0.226,-0.201
-0.145,-0.215,-0.07,0.18,-0.038,-0.142,0.06,0.002,-0.091,-0.166,-0.198,-0.203
-0.118,-0.203,-0.084,0.161,-0.017,-0.143,0.055,0.061,-0.03,-0.104,-0.153,-0.187
-0.114,-0.218,-0.104,0.166,-0.005,-0.161,0.061,0.082,-0.056,-0.123,-0.176,-0.196
-0.083,-0.213,-0.13,0.148,0.024,-0.171,0.045,0.097,-0.007,-0.08,-0.153,-0.162
-0.064,-0.167,-0.102,0.116,0.019,-0.134,0.058,0.124,0.032,-0.068,-0.12,-0.129
-0.013,-0.062,-0.049,0.038,0.018,-0.056,0.043,0.162,0.096,-0.002,-0.05,-0.079
-0.033,-0.002,0.031,0.017,-0.032,0.015,0.133,0.22,0.154,0.056,-0.006,-0.043
-0.078,0.052,0.131,0.013,-0.105,0.091,0.192,0.272,0.2,0.106,0.034,-0.007
-0.006,0.157,0.163,-0.075,-0.085,0.159,0.073,0.281,0.24,0.144,0.073,0.039
0.013,0.161,0.148,-0.088,-0.068,0.154,-0.004,0.284,0.26,0.177,0.098,0.052
-0.002,0.131,0.133,-0.065,-0.068,0.132,-0.035,0.284,0.269,0.184,0.093,0.05
0.033,0.153,0.12,-0.093,-0.043,0.136,-0.04,0.302,0.29,0.182,0.09,0.049
0.025,0.141,0.115,-0.083,-0.045,0.128,-0.028,0.35,0.289,0.177,0.088,0.044
0.027,0.137,0.11,-0.082,-0.041,0.123,-0.028,0.358,0.279,0.169,0.084,0.046
0.024,0.129,0.104,-0.077,-0.04,0.116,-0.018,0.354,0.272,0.154,0.082,0.042
0.024,0.123,0.099,-0.074,-0.037,0.11,-0.017,0.357,0.264,0.131,0.061,0.036
0.023,0.116,0.094,-0.07,-0.036,0.105,-0.008,0.344,0.254,0.116,0.045,0.031
0.014,0.1,0.086,-0.058,-0.036,0.093,-0.004,0.311,0.221,0.098,0.034,0.024
0.015,0.091,0.076,-0.053,-0.031,0.083,0.002,0.246,0.177,0.077,0.024,0.021
-0.034,0.037,0.071,-0.002,-0.053,0.053,0.007,0.181,0.118,0.041,0.007,-0.001
-0.068,-0.02,0.048,0.043,-0.058,0.014,0.012,0.117,0.045,-0.006,-0.027,-0.037
-0.089,-0.074,0.015,0.081,-0.052,-0.03,0.021,0.042,-0.033,-0.064,-0.077,-0.078
-0.109,-0.137,-0.028,0.123,-0.04,-0.083,0.042,0.001,-0.08,-0.111,-0.124,-0.122
-0.126,-0.181,-0.055,0.153,-0.035,-0.118,0.058,-0.034,-0.111,-0.142,-0.148,-0.148
-0.122,-0.202,-0.08,0.162,-0.021,-0.141,0.05,-0.05,-0.122,-0.157,-0.149,-0.15
-0.083,-0.163,-0.079,0.123,-0.002,-0.121,0.062,-0.008,-0.092,-0.136,-0.124,-0.123
-0.057,-0.065,-0.008,0.061,-0.024,-0.037,0.047,0.008,-0.064,-0.091,-0.09,-0.086
-0.091,-0.026,0.065,0.058,-0.077,0.02,0.136,0.055,-0.026,-0.049,-0.067,-0.062
-0.137,0.01,0.147,0.063,-0.142,0.078,0.196,0.078,-0.008,-0.039,-0.045,-0.044
-0.101,0.095,0.196,0.003,-0.149,0.145,0.07,0.044,0.006,-0.002,-0.005,-0.035
-0.082,0.103,0.184,-0.011,-0.133,0.143,0.014,0.039,0.001,0.002,-0.001,-0.03
-0.06,0.09,0.15,-0.015,-0.106,0.12,-0.013,0.038,0.01,0.008,-0.006,-0.022
-0.079,0.047,0.125,0.016,-0.103,0.086,-0.011,0.05,0.013,0.001,-0.012,-0.016
-0.055,0.045,0.1,0.005,-0.078,0.072,0.0,0.035,0.011,-0.002,-0.018,-0.01
-0.064,0.03,0.095,0.016,-0.079,0.062,0.01,0.055,0.03,0.006,-0.023,-0.039
-0.089,-0.032,0.057,0.06,-0.073,0.013,0.039,0.205,0.144,0.06,0.004,-0.056
0.043,0.08,0.038,-0.062,0.002,0.059,-0.001,0.324,0.544,0.486,0.37,0.194
0.324,0.327,0.002,-0.325,0.161,0.164,-0.381,-0.652,0.214,0.791,1.051,0.833
0.79,0.535,-0.255,-0.662,0.522,0.14,-0.91,-1.982,-0.715,0.64,1.204,1.137
0.443,0.153,-0.291,-0.298,0.367,-0.069,-0.556,-1.876,-1.39,-0.434,-0.012,0.306
-0.267,-0.355,-0.089,0.311,-0.089,-0.222,0.126,-1.203,-1.503,-1.296,-0.979,-0.496
-0.26,-0.301,-0.041,0.281,-0.109,-0.171,0.223,-0.578,-0.717,-0.656,-0.548,-0.354
-0.19,-0.236,-0.045,0.213,-0.072,-0.14,0.151,-0.118,-0.207,-0.226,-0.239,-0.207
-0.15,-0.221,-0.071,0.186,-0.04,-0.146,0.074,0.022,-0.11,-0.184,-0.198,-0.216
-0.12,-0.229,-0.11,0.175,-0.005,-0.169,0.066,0.101,-0.029,-0.114,-0.144,-0.182
-0.14,-0.269,-0.129,0.205,-0.005,-0.199,0.075,0.084,-0.056,-0.142,-0.172,-0.194
-0.106,-0.236,-0.13,0.171,0.013,-0.183,0.064,0.117,-0.002,-0.082,-0.126,-0.169
-0.065,-0.169,-0.104,0.117,0.02,-0.137,0.078,0.158,0.044,-0.059,-0.096,-0.125
-0.016,-0.062,-0.046,0.039,0.016,-0.054,0.062,0.193,0.105,0.013,-0.037,-0.065
-0.042,0.004,0.046,0.019,-0.044,0.025,0.178,0.262,0.168,0.066,0.017,-0.022
-0.051,0.078,0.129,-0.014,-0.091,0.103,0.195,0.287,0.222,0.116,0.058,0.015
-0.031,0.123,0.155,-0.046,-0.093,0.139,0.058,0.285,0.256,0.153,0.084,0.037
-0.032,0.116,0.148,-0.042,-0.091,0.132,0.015,0.284,0.271,0.161,0.097,0.04
-0.024,0.114,0.138,-0.045,-0.081,0.125,-0.021,0.302,0.289,0.179,0.109,0.051
0.007,0.107,0.1,-0.057,-0.047,0.103,-0.025,0.351,0.309,0.195,0.112,0.06
0.023,0.101,0.078,-0.062,-0.028,0.089,-0.013,0.381,0.303,0.19,0.104,0.054
0.019,0.097,0.078,-0.058,-0.03,0.088,-0.012,0.396,0.293,0.171,0.094,0.048
0.018,0.09,0.072,-0.054,-0.027,0.081,0.0,0.415,0.287,0.154,0.086,0.04
0.019,0.09,0.071,-0.055,-0.026,0.08,0.001,0.405,0.278,0.132,0.068,0.034
0.018,0.083,0.065,-0.051,-0.024,0.074,0.024,0.381,0.259,0.112,0.048,0.027
0.018,0.084,0.065,-0.052,-0.024,0.074,0.031,0.348,0.231,0.098,0.041,0.024
0.006,0.071,0.065,-0.039,-0.029,0.068,0.031,0.304,0.191,0.078,0.035,0.026
-0.052,0.002,0.054,0.025,-0.053,0.028,0.033,0.241,0.122,0.041,0.018,0.006
-0.072,-0.042,0.03,0.057,-0.051,-0.006,0.037,0.154,0.051,-0.007,-0.013,-0.025
-0.073,-0.102,-0.028,0.088,-0.022,-0.065,0.033,0.081,-0.021,-0.056,-0.061,-0.07
-0.095,-0.17,-0.075,0.133,-0.01,-0.122,0.037,0.033,-0.061,-0.083,-0.084,-0.105
-0.108,-0.197,-0.089,0.153,-0.009,-0.142,0.057,-0.011,-0.097,-0.108,-0.102,-0.118
-0.109,-0.215,-0.106,0.162,-0.001,-0.16,0.06,-0.02,-0.112,-0.115,-0.112,-0.119
-0.063,-0.154,-0.091,0.109,0.014,-0.122,0.061,-0.003,-0.076,-0.082,-0.08,-0.088
-0.048,-0.068,-0.02,0.058,-0.014,-0.044,0.06,0.023,-0.049,-0.046,-0.036,-0.051
-0.097,-0.024,0.074,0.06,-0.085,0.025,0.16,0.066,-0.009,-0.015,-0.012,-0.03
-0.111,0.036,0.147,0.038,-0.129,0.091,0.184,0.075,0.014,-0.001,-0.009,-0.017
-0.091,0.077,0.168,0.006,-0.13,0.122,0.054,0.073,0.035,0.021,-0.001,-0.014
-0.098,0.067,0.165,0.015,-0.132,0.116,0.007,0.069,0.038,0.031,0.006,-0.009
-0.074,0.066,0.14,0.004,-0.107,0.103,0.001,0.066,0.044,0.046,0.02,-0.007
-0.061,0.048,0.108,0.006,-0.085,0.078,-0.001,0.066,0.033,0.035,0.023,-0.003
-0.047,0.039,0.087,0.004,-0.067,0.063,-0.01,0.056,0.03,0.044,0.025,0.002
-0.064,0.014,0.078,0.025,-0.071,0.046,-0.006,0.07,0.042,0.036,0.015,-0.025
-0.055,-0.008,0.047,0.031,-0.051,0.019,0.023,0.26,0.206,0.132,0.06,-0.02
0.074,0.102,0.028,-0.088,0.022,0.065,-0.005,0.326,0.57,0.543,0.444,0.248
0.452,0.349,-0.103,-0.4,0.277,0.122,-0.443,-0.768,0.182,0.822,1.104,0.894
0.88,0.483,-0.397,-0.682,0.639,0.043,-0.883,-1.942,-0.763,0.485,0.976,0.983
0.352,0.049,-0.303,-0.201,0.328,-0.126,-0.39,-1.73,-1.444,-0.711,-0.351,0.036
-0.329,-0.358,-0.029,0.344,-0.15,-0.193,0.219,-1.068,-1.36,-1.208,-0.936,-0.498
-0.238,-0.29,-0.053,0.264,-0.092,-0.171,0.235,-0.474,-0.562,-0.502,-0.433,-0.297
-0.163,-0.242,-0.079,0.203,-0.042,-0.16,0.144,-0.089,-0.173,-0.211,-0.221,-0.202
-0.153,-0.237,-0.084,0.195,-0.034,-0.16,0.096,0.034,-0.081,-0.154,-0.17,-0.171
-0.105,-0.236,-0.131,0.17,0.013,-0.183,0.094,0.111,-0.018,-0.106,-0.155,-0.172
-0.092,-0.248,-0.157,0.17,0.033,-0.202,0.063,0.096,-0.031,-0.114,-0.154,-0.186
-0.067,-0.234,-0.167,0.151,0.051,-0.201,0.049,0.13,0.021,-0.063,-0.11,-0.163
-0.035,-0.149,-0.115,0.092,0.04,-0.132,0.067,0.181,0.064,-0.029,-0.074,-0.125
0.007,-0.051,-0.058,0.022,0.033,-0.054,0.075,0.214,0.124,0.04,-0.022,-0.069
-0.018,-0.001,0.017,0.01,-0.017,0.008,0.203,0.285,0.185,0.09,0.02,-0.031
-0.042,0.069,0.111,-0.013,-0.077,0.09,0.207,0.316,0.231,0.135,0.079,0.008
0.0,0.116,0.115,-0.058,-0.058,0.115,0.068,0.316,0.265,0.161,0.099,0.025
0.031,0.125,0.094,-0.078,-0.032,0.109,0.02,0.313,0.292,0.189,0.111,0.038
0.038,0.117,0.079,-0.078,-0.021,0.097,-0.013,0.324,0.299,0.196,0.115,0.043
0.05,0.111,0.061,-0.081,-0.006,0.086,-0.027,0.364,0.312,0.186,0.123,0.038
0.051,0.107,0.056,-0.079,-0.003,0.081,-0.024,0.402,0.314,0.18,0.122,0.037
0.052,0.099,0.047,-0.076,0.003,0.073,-0.023,0.414,0.304,0.162,0.109,0.032
0.047,0.092,0.045,-0.07,0.001,0.068,-0.015,0.409,0.301,0.157,0.096,0.03
0.039,0.081,0.042,-0.06,-0.002,0.061,-0.006,0.408,0.294,0.157,0.084,0.029
0.04,0.079,0.039,-0.06,0.0,0.059,0.009,0.385,0.28,0.14,0.076,0.02
0.033,0.069,0.036,-0.052,-0.001,0.052,0.016,0.33,0.243,0.109,0.059,0.014
0.001,0.036,0.035,-0.019,-0.017,0.035,0.026,0.275,0.191,0.094,0.057,0.003
0.001,0.018,0.017,-0.01,-0.008,0.017,0.032,0.224,0.142,0.088,0.065,0.0
-0.016,-0.032,-0.015,0.024,0.0,-0.024,0.039,0.152,0.064,0.008,-0.007,-0.032
-0.07,-0.118,-0.048,0.094,-0.011,-0.083,0.045,0.085,-0.008,-0.05,-0.09,-0.09
-0.085,-0.161,-0.076,0.123,-0.004,-0.119,0.055,0.036,-0.046,-0.074,-0.1,-0.112
-0.109,-0.216,-0.107,0.163,0.0,-0.161,0.068,-0.007,-0.098,-0.131,-0.132,-0.151
-0.106,-0.231,-0.125,0.169,0.01,-0.177,0.07,0.009,-0.116,-0.138,-0.142,-0.168
-0.068,-0.16,-0.092,0.114,0.013,-0.126,0.075,0.037,-0.078,-0.099,-0.099,-0.136
-0.047,-0.089,-0.043,0.068,-0.002,-0.066,0.067,0.042,-0.044,-0.052,-0.059,-0.092
-0.059,-0.026,0.033,0.042,-0.046,0.003,0.156,0.088,0.0,-0.018,-0.03,-0.049
-0.095,0.004,0.099,0.045,-0.097,0.051,0.229,0.097,0.024,0.001,-0.016,-0.045
-0.063,0.049,0.111,0.007,-0.087,0.08,0.116,0.059,0.037,0.016,-0.005,-0.023
-0.052,0.085,0.137,-0.017,-0.095,0.111,0.056,0.064,0.06,0.036,0.021,0.003
-0.057,0.068,0.125,-0.006,-0.091,0.096,0.031,0.055,0.04,0.049,0.041,-0.007
-0.041,0.044,0.085,-0.001,-0.063,0.064,-0.005,0.061,0.054,0.056,0.031,-0.012
-0.036,0.011,0.047,0.012,-0.042,0.029,-0.014,0.052,0.031,0.013,0.013,-0.02
-0.013,0.008,0.021,0.002,-0.017,0.015,-0.003,0.052,0.04,0.032,0.028,-0.029
-0.061,-0.02,0.042,0.04,-0.051,0.011,0.044,0.135,0.081,0.043,0.02,-0.033
-0.002,0.005,0.006,-0.001,-0.004,0.005,0.05,0.366,0.383,0.284,0.174,0.046
0.198,0.169,-0.029,-0.183,0.113,0.07,-0.126,0.048,0.551,0.702,0.724,0.492
0.677,0.419,-0.258,-0.548,0.467,0.08,-0.69,-1.382,-0.255,0.696,1.159,1.053
0.784,0.371,-0.413,-0.577,0.598,-0.021,-0.808,-2.02,-1.097,0.067,0.541,0.716
0.028,-0.14,-0.168,0.056,0.098,-0.154,-0.108,-1.397,-1.427,-0.981,-0.666,-0.228
-0.284,-0.362,-0.077,0.323,-0.103,-0.219,0.234,-0.808,-1.059,-0.977,-0.792,-0.464
-0.19,-0.28,-0.09,0.235,-0.05,-0.185,0.175,-0.303,-0.358,-0.33,-0.315,-0.259
-0.203,-0.286,-0.083,0.245,-0.06,-0.185,0.151,-0.027,-0.142,-0.199,-0.225,-0.223
-0.124,-0.276,-0.152,0.2,0.014,-0.214,0.089,0.075,-0.056,-0.124,-0.181,-0.203
-0.104,-0.283,-0.179,0.194,0.038,-0.23,0.078,0.108,-0.029,-0.121,-0.17,-0.192
-0.079,-0.268,-0.189,0.174,0.055,-0.228,0.07,0.11,-0.011,-0.089,-0.146,-0.173
-0.033,-0.2,-0.166,0.117,0.067,-0.183,0.074,0.163,0.047,-0.033,-0.103,-0.145
0.016,-0.09,-0.106,0.038,0.061,-0.097,0.07,0.176,0.096,-0.004,-0.065,-0.101
-0.017,-0.047,-0.03,0.032,0.007,-0.038,0.166,0.25,0.168,0.057,-0.004,-0.047
-0.072,-0.013,0.059,0.043,-0.065,0.022,0.239,0.312,0.214,0.104,0.033,-0.012
-0.026,0.083,0.109,-0.028,-0.068,0.096,0.106,0.309,0.247,0.152,0.078,0.027
0.009,0.105,0.096,-0.057,-0.044,0.101,0.032,0.31,0.277,0.191,0.112,0.04
0.012,0.091,0.079,-0.052,-0.034,0.085,0.014,0.313,0.302,0.205,0.117,0.041
0.022,0.082,0.06,-0.052,-0.019,0.07,-0.003,0.333,0.313,0.196,0.119,0.045
0.04,0.086,0.046,-0.063,-0.003,0.066,-0.008,0.374,0.326,0.196,0.119,0.047
0.038,0.084,0.046,-0.062,-0.004,0.065,-0.012,0.413,0.327,0.194,0.113,0.051
0.042,0.086,0.045,-0.065,-0.002,0.066,0.006,0.427,0.32,0.189,0.107,0.047
0.047,0.089,0.042,-0.068,0.003,0.065,0.014,0.422,0.315,0.183,0.102,0.037
0.005,0.045,0.04,-0.025,-0.018,0.042,0.033,0.409,0.297,0.17,0.086,0.029
-0.022,0.018,0.04,0.002,-0.031,0.029,0.039,0.395,0.264,0.13,0.053,0.02
0.014,0.032,0.018,-0.023,-0.002,0.025,0.031,0.352,0.236,0.089,0.042,0.011
0.051,0.027,-0.024,-0.039,0.038,0.002,0.033,0.28,0.202,0.066,0.037,0.001
-0.01,-0.037,-0.026,0.024,0.008,-0.031,0.023,0.204,0.127,0.042,0.015,-0.02
-0.059,-0.095,-0.036,0.077,-0.011,-0.066,0.031,0.128,0.045,-0.012,-0.04,-0.063
-0.08,-0.174,-0.094,0.127,0.008,-0.134,0.055,0.072,-0.01,-0.06,-0.082,-0.103
-0.118,-0.231,-0.112,0.175,-0.003,-0.171,0.063,0.046,-0.053,-0.09,-0.094,-0.133
-0.096,-0.233,-0.136,0.165,0.02,-0.184,0.059,0.044,-0.08,-0.128,-0.135,-0.154
-0.1,-0.236,-0.135,0.168,0.018,-0.185,0.069,0.045,-0.065,-0.115,-0.132,-0.147
-0.045,-0.144,-0.1,0.095,0.028,-0.122,0.064,0.048,-0.033,-0.065,-0.077,-0.107
-0.022,-0.051,-0.03,0.037,0.004,-0.04,0.112,0.093,0.018,-0.024,-0.045,-0.063
-0.115,-0.035,0.08,0.075,-0.097,0.022,0.22,0.114,0.053,-0.002,-0.04,-0.046
-0.102,0.005,0.106,0.048,-0.104,0.055,0.158,0.083,0.058,0.022,-0.02,-0.033
-0.073,0.056,0.129,0.008,-0.101,0.092,0.045,0.069,0.052,0.032,0.023,-0.025
-0.084,0.059,0.143,0.013,-0.114,0.1,0.012,0.064,0.053,0.043,0.036,-0.025
-0.067,0.04,0.107,0.013,-0.087,0.073,-0.006,0.059,0.05,0.035,0.024,-0.023
-0.034,0.022,0.057,0.006,-0.046,0.039,-0.017,0.046,0.046,0.032,0.019,-0.018
-0.054,-0.011,0.043,0.032,-0.048,0.016,-0.026,0.052,0.051,0.034,0.013,-0.017
-0.07,-0.036,0.034,0.052,-0.052,-0.001,-0.022,0.04,0.018,0.024,-0.001,-0.011
-0.06,-0.048,0.012,0.054,-0.036,-0.018,0.011,0.062,0.047,0.051,0.01,-0.011
-0.06,-0.061,-0.001,0.06,-0.03,-0.031,0.056,0.175,0.116,0.047,0.013,-0.05
0.032,-0.012,-0.045,-0.01,0.039,-0.028,0.035,0.345,0.481,0.389,0.258,0.086
0.282,0.206,-0.076,-0.244,0.179,0.065,-0.261,-0.332,0.344,0.711,0.885,0.695
0.775,0.512,-0.263,-0.643,0.518,0.124,-0.811,-1.716,-0.579,0.669,1.254,1.213
0.612,0.269,-0.343,-0.44,0.477,-0.036,-0.652,-1.841,-1.175,-0.064,0.367,0.58
-0.15,-0.287,-0.137,0.219,-0.006,-0.212,0.041,-1.158,-1.375,-1.109,-0.836,-0.384
-0.287,-0.379,-0.091,0.333,-0.098,-0.235,0.204,-0.673,-0.869,-0.83,-0.706,-0.439
-0.203,-0.356,-0.153,0.28,-0.025,-0.254,0.13,-0.196,-0.281,-0.293,-0.308,-0.278
-0.176,-0.331,-0.156,0.254,-0.01,-0.243,0.098,0.018,-0.136,-0.225,-0.256,-0.251
-0.085,-0.267,-0.183,0.177,0.049,-0.225,0.067,0.054,-0.041,-0.124,-0.193,-0.203
-0.053,-0.246,-0.193,0.15,0.07,-0.219,0.082,0.103,-0.017,-0.121,-0.193,-0.206
-0.026,-0.166,-0.14,0.096,0.057,-0.153,0.063,0.138,0.05,-0.053,-0.112,-0.143
-0.037,-0.088,-0.051,0.063,0.007,-0.069,0.092,0.171,0.101,0.001,-0.054,-0.1
-0.051,-0.009,0.042,0.03,-0.047,0.017,0.212,0.241,0.184,0.078,-0.006,-0.065
-0.042,0.049,0.091,-0.004,-0.067,0.07,0.177,0.266,0.221,0.108,0.033,-0.027
-0.016,0.079,0.095,-0.032,-0.056,0.087,0.051,0.248,0.231,0.133,0.057,-0.013
-0.012,0.078,0.09,-0.033,-0.051,0.084,0.017,0.252,0.259,0.152,0.069,-0.001
-0.002,0.07,0.071,-0.034,-0.037,0.071,-0.015,0.263,0.261,0.158,0.073,0.014
0.032,0.069,0.037,-0.05,-0.003,0.053,-0.025,0.294,0.296,0.191,0.089,0.015
0.047,0.061,0.014,-0.054,0.016,0.038,-0.023,0.332,0.315,0.172,0.093,0.022
0.048,0.059,0.012,-0.054,0.018,0.035,-0.017,0.354,0.329,0.173,0.098,0.039
0.056,0.053,-0.003,-0.054,0.029,0.025,-0.008,0.386,0.338,0.157,0.089,0.012
0.041,0.045,0.004,-0.043,0.019,0.024,-0.004,0.405,0.328,0.161,0.076,0.0
0.014,0.04,0.026,-0.027,-0.006,0.033,0.006,0.405,0.314,0.167,0.046,-0.006
0.017,0.031,0.014,-0.024,0.001,0.022,0.012,0.378,0.293,0.122,0.017,-0.016
0.024,0.027,0.003,-0.026,0.01,0.015,0.02,0.335,0.252,0.091,0.002,-0.021
0.04,0.018,-0.022,-0.029,0.03,-0.002,0.025,0.3,0.196,0.067,-0.012,-0.031
0.016,-0.038,-0.053,0.011,0.035,-0.045,0.031,0.223,0.14,0.025,-0.033,-0.049
-0.049,-0.125,-0.075,0.087,0.013,-0.1,0.034,0.162,0.073,-0.041,-0.071,-0.095
-0.051,-0.176,-0.124,0.114,0.037,-0.15,0.038,0.117,0.0,-0.053,-0.084,-0.119
-0.068,-0.213,-0.145,0.14,0.039,-0.179,0.042,0.061,-0.054,-0.093,-0.128,-0.146
-0.093,-0.245,-0.152,0.169,0.03,-0.198,0.042,0.037,-0.063,-0.14,-0.153,-0.162
-0.045,-0.186,-0.141,0.116,0.048,-0.163,0.052,0.046,-0.042,-0.083,-0.103,-0.126
-0.036,-0.091,-0.055,0.064,0.009,-0.072,0.071,0.069,-0.006,-0.04,-0.066,-0.092
-0.077,-0.05,0.027,0.064,-0.052,-0.012,0.156,0.104,0.046,-0.022,-0.036,-0.071
-0.096,-0.008,0.088,0.052,-0.092,0.04,0.177,0.099,0.061,-0.011,-0.022,-0.063
-0.052,0.061,0.113,-0.005,-0.083,0.087,0.073,0.067,0.049,0.023,-0.021,-0.059
-0.027,0.074,0.101,-0.024,-0.064,0.087,0.022,0.067,0.045,0.045,-0.016,-0.054
-0.055,0.04,0.094,0.007,-0.075,0.067,0.005,0.063,0.036,0.037,-0.015,-0.052
-0.053,0.012,0.065,0.02,-0.059,0.038,-0.003,0.059,0.028,0.041,-0.011,-0.047
-0.026,0.006,0.032,0.01,-0.029,0.018,-0.005,0.056,0.031,0.04,-0.009,-0.046
-0.021,-0.005,0.017,0.013,-0.019,0.006,-0.015,0.052,0.031,0.033,-0.021,-0.049
-0.056,-0.052,0.003,0.054,-0.029,-0.024,-0.011,0.049,0.02,0.015,-0.032,-0.051
-0.067,-0.078,-0.011,0.073,-0.028,-0.045,-0.005,0.044,0.012,0.0,-0.029,-0.055
-0.056,-0.082,-0.025,0.069,-0.015,-0.053,0.005,0.042,0.003,-0.012,-0.034,-0.057
-0.049,-0.087,-0.038,0.068,-0.006,-0.062,0.01,0.037,-0.007,-0.038,-0.063,-0.061
-0.052,-0.099,-0.047,0.075,-0.002,-0.073,0.014,0.036,-0.017,-0.05,-0.067,-0.067
-0.053,-0.108,-0.055,0.08,0.002,-0.081,0.017,0.029,-0.032,-0.055,-0.064,-0.082
-0.065,-0.133,-0.069,0.099,0.002,-0.101,0.02,0.023,-0.037,-0.063,-0.098,-0.1
-0.079,-0.151,-0.072,0.115,-0.003,-0.112,0.025,0.017,-0.058,-0.077,-0.106,-0.114
-0.092,-0.202,-0.109,0.147,0.009,-0.155,0.028,0.004,-0.093,-0.125,-0.143,-0.151
-0.094,-0.273,-0.18,0.184,0.043,-0.226,0.044,-0.006,-0.096,-0.14,-0.172,-0.171
-0.099,-0.279,-0.18,0.189,0.041,-0.229,0.045,-0.023,-0.119,-0.143,-0.166,-0.175
-0.112,-0.284,-0.171,0.198,0.03,-0.227,0.045,-0.006,-0.127,-0.157,-0.177,-0.174
-0.051,-0.216,-0.165,0.133,0.058,-0.19,0.047,0.011,-0.085,-0.127,-0.146,-0.138
-0.013,-0.105,-0.092,0.059,0.039,-0.099,0.059,0.026,-0.041,-0.072,-0.093,-0.098
-0.044,-0.039,0.005,0.042,-0.024,-0.017,0.148,0.073,0.005,-0.035,-0.046,-0.065
-0.068,0.031,0.098,0.018,-0.083,0.065,0.147,0.076,0.042,0.013,-0.013,-0.04
-0.052,0.07,0.122,-0.009,-0.087,0.096,0.07,0.066,0.043,0.053,-0.004,-0.036
-0.024,0.067,0.091,-0.022,-0.058,0.079,0.025,0.052,0.022,0.052,0.005,-0.031
-0.033,0.053,0.086,-0.01,-0.06,0.069,-0.01,0.06,0.035,0.068,0.012,-0.027
-0.042,0.032,0.074,0.005,-0.058,0.052,-0.019,0.042,0.0,0.048,-0.007,-0.028
-0.029,0.018,0.047,0.006,-0.038,0.032,-0.008,0.047,0.028,0.083,0.023,-0.008
-0.052,0.003,0.055,0.024,-0.053,0.029,0.041,0.142,0.079,0.043,-0.004,-0.047
-0.002,0.008,0.01,-0.003,-0.006,0.008,0.041,0.371,0.401,0.273,0.138,0.012
0.199,0.175,-0.024,-0.187,0.111,0.075,-0.185,-0.106,0.444,0.683,0.758,0.562
0.676,0.515,-0.161,-0.595,0.418,0.177,-0.771,-1.592,-0.426,0.791,1.373,1.269
0.81,0.376,-0.434,-0.593,0.622,-0.029,-0.851,-2.01,-1.072,0.331,0.836,0.93
0.123,-0.213,-0.336,0.046,0.23,-0.274,-0.164,-1.325,-1.349,-0.849,-0.552,-0.154
-0.216,-0.364,-0.148,0.29,-0.033,-0.256,0.171,-0.778,-1.011,-0.948,-0.764,-0.436
-0.138,-0.27,-0.133,0.204,-0.002,-0.201,0.149,-0.274,-0.325,-0.31,-0.306,-0.252
-0.127,-0.228,-0.101,0.177,-0.013,-0.164,0.113,-0.028,-0.128,-0.203,-0.226,-0.212
-0.073,-0.201,-0.128,0.138,0.027,-0.164,0.068,0.047,-0.035,-0.134,-0.179,-0.175
-0.08,-0.237,-0.157,0.159,0.038,-0.197,0.059,0.082,-0.023,-0.164,-0.204,-0.195
-0.019,-0.203,-0.185,0.111,0.083,-0.194,0.062,0.096,0.014,-0.101,-0.151,-0.168
-0.011,-0.155,-0.144,0.083,0.067,-0.15,0.065,0.133,0.061,-0.039,-0.098,-0.127
0.005,-0.047,-0.052,0.022,0.028,-0.049,0.074,0.169,0.112,0.011,-0.048,-0.077
-0.012,0.033,0.045,-0.011,-0.029,0.039,0.185,0.241,0.193,0.08,0.004,-0.04
-0.069,0.042,0.112,0.013,-0.091,0.076,0.16,0.256,0.199,0.079,0.012,-0.033
0.021,0.117,0.096,-0.069,-0.037,0.106,0.036,0.256,0.219,0.129,0.059,0.002
0.041,0.126,0.086,-0.084,-0.023,0.106,0.01,0.26,0.243,0.136,0.069,0.009
0.019,0.094,0.075,-0.057,-0.028,0.084,-0.01,0.262,0.258,0.143,0.073,0.016
0.014,0.079,0.065,-0.047,-0.026,0.072,-0.016,0.286,0.265,0.154,0.082,0.034
0.003,0.061,0.058,-0.032,-0.028,0.059,-0.027,0.308,0.281,0.145,0.072,0.026
0.003,0.057,0.054,-0.03,-0.026,0.055,-0.014,0.356,0.285,0.138,0.06,0.014
-0.007,0.049,0.055,-0.021,-0.031,0.052,0.015,0.384,0.272,0.127,0.05,0.005
-0.014,0.041,0.055,-0.014,-0.035,0.048,0.024,0.387,0.267,0.118,0.033,-0.009
-0.022,0.032,0.055,-0.005,-0.039,0.044,0.039,0.393,0.253,0.086,0.008,-0.018
-0.016,0.039,0.055,-0.012,-0.036,0.047,0.052,0.391,0.23,0.05,-0.02,-0.036
-0.051,0.015,0.066,0.018,-0.058,0.04,0.056,0.381,0.19,0.009,-0.06,-0.066
-0.064,-0.009,0.055,0.036,-0.059,0.023,0.05,0.334,0.149,-0.019,-0.078,-0.074
-0.044,-0.024,0.021,0.033,-0.032,-0.001,0.045,0.263,0.092,-0.042,-0.087,-0.083
-0.055,-0.082,-0.028,0.069,-0.013,-0.054,0.043,0.179,0.023,-0.079,-0.106,-0.096
-0.076,-0.151,-0.075,0.114,0.0,-0.113,0.034,0.118,-0.019,-0.096,-0.109,-0.109
-0.083,-0.205,-0.123,0.144,0.02,-0.164,0.039,0.077,-0.061,-0.114,-0.117,-0.136
-0.081,-0.223,-0.142,0.152,0.031,-0.182,0.039,0.004,-0.089,-0.124,-0.113,-0.137
-0.042,-0.196,-0.154,0.119,0.056,-0.174,0.044,-0.008,-0.078,-0.114,-0.101,-0.129
-0.004,-0.143,-0.139,0.074,0.068,-0.141,0.046,0.021,-0.047,-0.082,-0.094,-0.103
-0.013,-0.061,-0.048,0.038,0.018,-0.055,0.063,0.053,0.006,-0.028,-0.048,-0.06
-0.046,-0.007,0.04,0.027,-0.043,0.016,0.195,0.087,0.042,0.013,-0.015,-0.037
-0.08,0.03,0.11,0.025,-0.095,0.069,0.171,0.049,0.044,0.024,-0.005,-0.024
-0.027,0.111,0.137,-0.042,-0.082,0.123,0.035,0.034,0.041,0.039,0.024,-0.02
0.0,0.12,0.12,-0.06,-0.06,0.12,0.003,0.026,0.03,0.048,0.036,-0.015
-0.036,0.077,0.113,-0.021,-0.074,0.095,-0.023,0.022,0.037,0.04,0.036,-0.011
-0.037,0.067,0.104,-0.015,-0.071,0.085,-0.027,0.013,0.017,0.015,0.03,-0.006
-0.011,0.062,0.073,-0.026,-0.042,0.067,-0.026,0.006,0.037,0.03,0.034,-0.006
0.001,0.047,0.046,-0.024,-0.023,0.046,-0.019,0.015,0.026,0.009,0.023,-0.019
0.016,0.045,0.029,-0.031,-0.007,0.037,-0.025,0.029,0.042,0.031,0.03,-0.022
-0.026,0.005,0.032,0.01,-0.029,0.019,0.007,0.061,0.045,0.01,-0.007,-0.039
-0.016,-0.006,0.011,0.01,-0.013,0.002,0.042,0.25,0.197,0.099,0.027,-0.031
0.105,0.124,0.019,-0.114,0.042,0.071,-0.029,0.23,0.525,0.51,0.438,0.258
0.512,0.418,-0.094,-0.465,0.303,0.162,-0.544,-1.056,-0.014,0.766,1.131,0.97
0.926,0.537,-0.389,-0.731,0.657,0.074,-0.96,-2.117,-0.861,0.535,1.062,1.076
0.309,0.008,-0.3,-0.158,0.304,-0.145,-0.348,-1.745,-1.437,-0.677,-0.329,0.05
-0.291,-0.384,-0.093,0.338,-0.099,-0.238,0.19,-1.105,-1.335,-1.188,-0.927,-0.501
-0.172,-0.305,-0.133,0.239,-0.019,-0.219,0.155,-0.437,-0.493,-0.444,-0.398,-0.292
-0.136,-0.271,-0.135,0.204,0.0,-0.203,0.1,-0.067,-0.17,-0.222,-0.246,-0.227
-0.102,-0.228,-0.126,0.165,0.012,-0.176,0.035,0.017,-0.082,-0.153,-0.182,-0.196
-0.048,-0.169,-0.121,0.109,0.037,-0.145,0.044,0.091,0.0,-0.075,-0.12,-0.148
-0.002,-0.086,-0.085,0.044,0.042,-0.086,0.031,0.105,0.034,-0.045,-0.078,-0.108
-0.012,-0.01,0.003,0.011,-0.007,-0.003,0.113,0.168,0.115,0.036,-0.016,-0.058
-0.033,0.057,0.09,-0.012,-0.062,0.074,0.167,0.199,0.151,0.072,0.013,-0.019
-0.008,0.104,0.112,-0.048,-0.06,0.108,0.047,0.197,0.184,0.127,0.051,0.004
0.015,0.118,0.103,-0.067,-0.044,0.11,-0.004,0.198,0.19,0.128,0.057,0.007
0.032,0.122,0.09,-0.077,-0.029,0.105,-0.035,0.213,0.227,0.158,0.089,0.025
0.024,0.104,0.08,-0.064,-0.028,0.091,-0.054,0.23,0.231,0.165,0.1,0.039
0.071,0.104,0.032,-0.088,0.019,0.068,-0.048,0.256,0.244,0.171,0.104,0.047
0.083,0.099,0.016,-0.091,0.033,0.057,-0.047,0.296,0.271,0.183,0.1,0.05
0.063,0.095,0.033,-0.079,0.014,0.064,-0.039,0.332,0.291,0.186,0.093,0.055
0.071,0.092,0.021,-0.082,0.025,0.056,-0.038,0.361,0.312,0.183,0.088,0.05
0.073,0.088,0.015,-0.081,0.029,0.051,-0.03,0.383,0.308,0.173,0.082,0.04
0.078,0.084,0.006,-0.081,0.036,0.044,-0.028,0.385,0.293,0.167,0.076,0.032
0.077,0.076,-0.001,-0.076,0.039,0.037,-0.024,0.374,0.28,0.147,0.06,0.023
0.089,0.073,-0.016,-0.081,0.053,0.028,-0.02,0.368,0.256,0.123,0.044,0.013
0.093,0.056,-0.037,-0.074,0.065,0.009,-0.019,0.332,0.216,0.092,0.019,0.008
0.044,0.003,-0.04,-0.023,0.042,-0.018,-0.013,0.248,0.144,0.046,-0.017,-0.019
-0.009,-0.079,-0.07,0.044,0.031,-0.074,-0.011,0.172,0.069,-0.003,-0.054,-0.065
-0.022,-0.141,-0.119,0.082,0.049,-0.13,0.003,0.114,0.008,-0.048,-0.085,-0.093
-0.049,-0.171,-0.121,0.11,0.036,-0.145,0.003,0.061,-0.053,-0.068,-0.1,-0.124
-0.056,-0.174,-0.118,0.115,0.031,-0.145,0.017,0.037,-0.059,-0.057,-0.083,-0.119
-0.002,-0.113,-0.111,0.058,0.055,-0.112,0.028,0.026,-0.045,-0.042,-0.062,-0.083
-0.02,-0.033,-0.014,0.027,-0.003,-0.023,0.067,0.049,-0.022,-0.024,-0.041,-0.055
-0.06,0.033,0.093,0.014,-0.077,0.062,0.186,0.074,0.023,-0.001,-0.009,-0.031
-0.064,0.081,0.145,-0.009,-0.105,0.113,0.132,0.048,0.024,0.016,0.006,-0.029
-0.069,0.084,0.153,-0.008,-0.111,0.118,0.015,0.033,0.016,0.022,0.009,-0.03
-0.051,0.076,0.127,-0.013,-0.089,0.102,0.012,0.038,0.015,0.018,0.014,-0.03
-0.04,0.072,0.112,-0.016,-0.076,0.092,-0.002,0.031,0.002,0.014,0.018,-0.031
-0.041,0.059,0.1,-0.009,-0.071,0.08,-0.004,0.032,0.006,0.015,0.019,-0.029
-0.052,0.036,0.088,0.008,-0.071,0.062,-0.012,0.028,-0.01,0.006,0.005,-0.032
-0.04,0.026,0.066,0.006,-0.053,0.046,-0.021,0.029,-0.01,0.011,0.002,-0.034
-0.044,0.013,0.058,0.015,-0.051,0.035,-0.013,0.018,-0.027,-0.01,-0.014,-0.037
-0.039,0.007,0.046,0.016,-0.042,0.026,-0.014,0.009,-0.031,-0.013,-0.015,-0.032
-0.049,-0.007,0.042,0.028,-0.046,0.017,0.001,0.006,-0.039,-0.029,-0.027,-0.046
-0.045,-0.014,0.03,0.029,-0.037,0.008,-0.005,-0.024,-0.051,-0.023,-0.047,-0.059
-0.046,-0.025,0.021,0.036,-0.033,-0.002,0.017,0.013,-0.015,0.002,-0.041,-0.064
-0.06,-0.063,-0.003,0.061,-0.028,-0.032,0.058,0.193,0.086,0.027,-0.037,-0.092
0.048,0.017,-0.031,-0.032,0.039,-0.007,0.017,0.264,0.438,0.392,0.28,0.111
0.297,0.248,-0.05,-0.272,0.174,0.099,-0.403,-0.856,0.046,0.696,0.971,0.772
0.776,0.415,-0.361,-0.595,0.568,0.027,-0.928,-2.215,-0.897,0.596,1.182,1.121
0.504,-0.017,-0.521,-0.243,0.513,-0.269,-0.597,-2.037,-1.49,-0.429,-0.013,0.267
-0.212,-0.526,-0.314,0.369,0.052,-0.42,0.042,-1.288,-1.566,-1.315,-1.016,-0.549
-0.204,-0.389,-0.185,0.297,-0.009,-0.287,0.187,-0.613,-0.754,-0.681,-0.577,-0.393
-0.093,-0.15,-0.057,0.121,-0.017,-0.103,0.182,-0.114,-0.167,-0.172,-0.188,-0.172
-0.086,-0.033,0.053,0.059,-0.069,0.01,0.192,0.075,-0.013,-0.058,-0.081,-0.097
-0.079,0.056,0.134,0.011,-0.107,0.095,0.137,0.147,0.106,0.066,0.004,-0.045
-0.053,0.106,0.159,-0.027,-0.106,0.132,0.046,0.132,0.109,0.062,0.011,-0.02
-0.037,0.101,0.138,-0.032,-0.088,0.119,0.008,0.156,0.151,0.108,0.047,0.005
-0.053,0.079,0.131,-0.013,-0.092,0.105,-0.009,0.154,0.143,0.089,0.028,-0.002
-0.011,0.078,0.089,-0.034,-0.05,0.083,-0.027,0.164,0.158,0.108,0.051,0.007
-0.003,0.067,0.07,-0.032,-0.037,0.069,-0.024,0.193,0.172,0.11,0.049,0.007
0.009,0.067,0.059,-0.038,-0.025,0.063,-0.018,0.212,0.194,0.126,0.061,0.01
0.013,0.06,0.047,-0.037,-0.017,0.053,-0.01,0.243,0.216,0.147,0.074,0.014
0.016,0.057,0.041,-0.037,-0.013,0.049,-0.005,0.273,0.234,0.153,0.069,0.026
0.018,0.052,0.034,-0.035,-0.009,0.043,0.003,0.301,0.259,0.161,0.072,0.025
0.018,0.044,0.027,-0.031,-0.005,0.035,0.011,0.321,0.275,0.152,0.065,0.014
0.015,0.038,0.023,-0.026,-0.004,0.03,0.018,0.368,0.29,0.153,0.067,0.011
0.021,0.031,0.01,-0.026,0.005,0.02,0.024,0.406,0.288,0.149,0.057,-0.002
0.001,0.011,0.01,-0.006,-0.004,0.01,0.036,0.412,0.271,0.121,0.022,-0.025
-0.049,-0.037,0.012,0.043,-0.03,-0.013,0.045,0.4,0.229,0.074,-0.022,-0.058
-0.041,-0.083,-0.042,0.063,0.0,-0.062,0.07,0.39,0.199,0.035,-0.054,-0.087
-0.029,-0.099,-0.07,0.064,0.021,-0.084,0.085,0.365,0.174,0.019,-0.084,-0.098
-0.019,-0.1,-0.082,0.06,0.032,-0.091,0.075,0.306,0.137,0.012,-0.083,-0.09
0.004,-0.079,-0.083,0.037,0.044,-0.08,0.087,0.251,0.13,0.016,-0.041,-0.06
0.013,-0.008,-0.021,-0.003,0.017,-0.014,0.07,0.214,0.118,0.05,0.001,-0.021
-0.016,0.034,0.05,-0.009,-0.034,0.042,0.142,0.181,0.1,0.066,0.028,0.003
-0.059,0.061,0.121,-0.001,-0.09,0.091,0.19,0.132,0.085,0.072,0.042,0.02
-0.037,0.123,0.16,-0.043,-0.099,0.141,0.064,0.075,0.068,0.078,0.049,0.021
-0.017,0.113,0.13,-0.048,-0.074,0.121,0.004,0.037,0.049,0.062,0.042,0.012
-0.03,0.072,0.103,-0.021,-0.067,0.087,-0.007,0.017,0.026,0.05,0.032,0.006
-0.026,0.068,0.093,-0.021,-0.06,0.08,-0.029,0.009,0.017,0.038,0.025,-0.002
-0.017,0.04,0.057,-0.012,-0.037,0.048,-0.043,0.003,0.007,0.027,0.014,-0.009
-0.04,0.008,0.048,0.016,-0.044,0.028,-0.037,0.002,0.005,0.026,0.007,-0.016
-0.051,0.001,0.052,0.025,-0.052,0.026,-0.019,-0.007,-0.008,0.01,-0.004,-0.023
-0.043,-0.003,0.039,0.023,-0.041,0.018,-0.016,0.002,-0.007,0.013,-0.01,-0.029
-0.046,-0.012,0.034,0.029,-0.04,0.011,0.001,0.013,-0.02,-0.005,-0.022,-0.037
-0.04,-0.013,0.027,0.026,-0.033,0.007,0.003,0.024,-0.012,-0.002,-0.023,-0.042
-0.071,-0.037,0.034,0.054,-0.052,-0.002,0.023,0.035,-0.015,-0.018,-0.035,-0.05
-0.054,-0.05,0.004,0.052,-0.029,-0.022,0.021,0.027,-0.019,-0.022,-0.038,-0.05
-0.048,-0.083,-0.034,0.065,-0.007,-0.058,0.044,0.046,-0.014,-0.016,-0.048,-0.072
-0.057,-0.124,-0.067,0.09,0.005,-0.095,0.072,0.197,0.094,0.039,-0.049,-0.109
0.025,-0.07,-0.096,0.023,0.061,-0.083,0.024,0.275,0.449,0.409,0.294,0.108
0.342,0.137,-0.205,-0.239,0.273,-0.033,-0.38,-0.805,0.037,0.662,0.948,0.752
0.792,0.327,-0.464,-0.559,0.628,-0.068,-0.889,-2.056,-0.889,0.475,1.018,0.993
0.399,-0.039,-0.438,-0.18,0.419,-0.238,-0.449,-1.858,-1.492,-0.609,-0.216,0.116
-0.265,-0.415,-0.151,0.34,-0.057,-0.283,0.174,-1.185,-1.486,-1.279,-0.989,-0.531
-0.205,-0.234,-0.029,0.22,-0.087,-0.132,0.267,-0.512,-0.596,-0.523,-0.435,-0.286
-0.137,-0.08,0.057,0.108,-0.097,-0.011,0.271,-0.025,-0.077,-0.092,-0.112,-0.105
-0.071,0.049,0.12,0.011,-0.096,0.084,0.132,0.088,0.046,0.007,-0.015,-0.045
-0.003,0.102,0.105,-0.05,-0.054,0.103,0.048,0.139,0.146,0.092,0.036,-0.008
-0.043,0.052,0.096,-0.005,-0.07,0.074,-0.014,0.14,0.094,0.068,0.036,-0.014
0.018,0.089,0.071,-0.054,-0.027,0.08,-0.019,0.153,0.179,0.106,0.053,0.003
-0.035,0.019,0.053,0.008,-0.044,0.036,-0.063,0.177,0.114,0.093,0.053,-0.004
0.052,0.088,0.036,-0.07,0.008,0.062,0.034,0.195,0.199,0.11,0.064,0.011
-0.021,0.003,0.024,0.008,-0.023,0.014,0.168,0.209,0.123,0.114,0.049,0.007
0.061,0.087,0.026,-0.075,0.017,0.056,0.011,0.228,0.234,0.127,0.25,0.029
-0.027,-0.002,0.024,0.014,-0.025,0.01,-0.014,0.249,0.204,0.128,0.16,0.017
0.078,0.104,0.026,-0.091,0.026,0.064,0.014,0.27,-0.208,0.148,-0.069,0.041
