-0.117,-0.121,-0.004,0.119,-0.056,-0.062,0.16,0.122,0.023,-0.089,-0.198,-0.206
-0.03,-0.019,0.011,0.025,-0.02,-0.004,0.101,0.132,0.218,0.135,-0.036,-0.098
0.227,0.372,0.145,-0.3,0.041,0.258,-0.199,-0.116,0.408,0.684,0.571,0.397
0.215,0.689,0.474,-0.453,-0.13,0.582,-0.579,-0.89,-0.147,0.585,0.868,0.793
-0.073,0.627,0.699,-0.277,-0.386,0.663,-0.556,-1.317,-0.896,-0.347,0.316,0.575
-0.204,0.252,0.456,-0.025,-0.33,0.353,-0.268,-0.929,-0.934,-0.777,-0.275,0.083
-0.164,0.094,0.259,0.035,-0.212,0.176,-0.15,-0.529,-0.544,-0.552,-0.34,-0.114
-0.127,0.072,0.199,0.027,-0.164,0.135,-0.045,-0.263,-0.254,-0.343,-0.278,-0.149
-0.13,-0.006,0.124,0.068,-0.127,0.059,0.053,-0.086,-0.117,-0.206,-0.228,-0.159
-0.113,-0.025,0.087,0.069,-0.1,0.031,0.084,-0.027,-0.075,-0.156,-0.205,-0.152
-0.081,-0.02,0.061,0.05,-0.071,0.02,0.107,0.004,-0.057,-0.142,-0.2,-0.158
-0.099,-0.037,0.062,0.068,-0.081,0.012,0.103,-0.001,-0.05,-0.132,-0.19,-0.153
-0.109,-0.055,0.054,0.081,-0.081,0.0,0.106,0.009,-0.048,-0.124,-0.188,-0.156
-0.092,-0.04,0.052,0.066,-0.071,0.006,0.105,0.013,-0.042,-0.111,-0.179,-0.154
-0.08,-0.033,0.046,0.056,-0.063,0.006,0.104,0.017,-0.039,-0.104,-0.178,-0.155
-0.073,-0.026,0.046,0.049,-0.059,0.01,0.107,0.028,-0.033,-0.093,-0.171,-0.155
-0.079,-0.02,0.059,0.05,-0.069,0.019,0.108,0.037,-0.026,-0.087,-0.17,-0.151
-0.078,-0.019,0.06,0.049,-0.069,0.02,0.104,0.042,-0.014,-0.077,-0.165,-0.149
-0.07,-0.01,0.06,0.04,-0.065,0.025,0.098,0.043,-0.005,-0.071,-0.161,-0.146
-0.08,-0.017,0.064,0.048,-0.072,0.023,0.095,0.049,0.007,-0.058,-0.158,-0.143
-0.084,-0.019,0.065,0.051,-0.074,0.022,0.09,0.075,0.018,-0.041,-0.147,-0.14
-0.061,0.005,0.066,0.028,-0.064,0.035,0.085,0.091,0.03,-0.028,-0.132,-0.139
-0.039,0.029,0.069,0.005,-0.054,0.049,0.082,0.085,0.051,-0.009,-0.114,-0.123
-0.046,0.043,0.089,0.001,-0.067,0.065,0.076,0.11,0.085,0.016,-0.089,-0.099
-0.052,0.06,0.111,-0.004,-0.082,0.085,0.072,0.133,0.124,0.055,-0.055,-0.076
-0.025,0.093,0.118,-0.034,-0.072,0.106,0.067,0.129,0.146,0.099,-0.017,-0.049
0.023,0.158,0.135,-0.09,-0.056,0.146,0.063,0.131,0.181,0.132,0.026,-0.011
0.027,0.191,0.163,-0.109,-0.068,0.177,0.058,0.13,0.22,0.163,0.06,0.03
0.02,0.199,0.179,-0.11,-0.08,0.189,0.051,0.13,0.231,0.186,0.085,0.051
0.033,0.226,0.193,-0.13,-0.08,0.209,0.042,0.125,0.236,0.2,0.103,0.076
0.025,0.24,0.216,-0.133,-0.096,0.228,0.033,0.115,0.249,0.208,0.117,0.095
0.031,0.255,0.223,-0.143,-0.096,0.238,0.032,0.105,0.248,0.204,0.123,0.091
0.03,0.248,0.218,-0.139,-0.094,0.233,0.037,0.088,0.234,0.202,0.118,0.088
0.017,0.227,0.21,-0.123,-0.097,0.219,0.038,0.072,0.218,0.186,0.112,0.082
-0.005,0.196,0.201,-0.096,-0.103,0.198,0.042,0.053,0.18,0.143,0.074,0.052
-0.033,0.149,0.183,-0.058,-0.108,0.166,0.044,0.036,0.123,0.089,0.024,0.013
-0.048,0.115,0.163,-0.034,-0.106,0.139,0.047,0.027,0.066,0.044,-0.021,-0.019
-0.055,0.095,0.15,-0.02,-0.103,0.122,0.05,0.007,0.025,0.01,-0.057,-0.054
-0.061,0.077,0.138,-0.008,-0.1,0.107,0.052,-0.022,0.01,-0.027,-0.073,-0.072
-0.053,0.08,0.133,-0.014,-0.093,0.106,0.056,-0.031,0.0,-0.05,-0.091,-0.072
-0.039,0.092,0.131,-0.026,-0.085,0.111,0.058,-0.03,-0.01,-0.057,-0.102,-0.08
-0.062,0.064,0.126,-0.002,-0.094,0.095,0.063,-0.03,-0.022,-0.064,-0.106,-0.09
-0.071,0.053,0.123,0.009,-0.098,0.088,0.064,-0.03,-0.034,-0.066,-0.111,-0.095
-0.061,0.057,0.118,0.002,-0.09,0.087,0.057,-0.03,-0.035,-0.064,-0.11,-0.095
-0.063,0.054,0.117,0.004,-0.09,0.085,0.053,-0.027,-0.035,-0.066,-0.11,-0.095
-0.075,0.056,0.131,0.01,-0.104,0.093,0.045,-0.024,-0.035,-0.064,-0.11,-0.099
-0.075,0.054,0.129,0.01,-0.103,0.092,0.06,-0.021,-0.035,-0.066,-0.11,-0.1
-0.067,0.052,0.119,0.007,-0.093,0.085,0.083,-0.018,-0.035,-0.07,-0.11,-0.1
-0.066,0.049,0.115,0.008,-0.09,0.082,0.078,-0.015,-0.035,-0.07,-0.11,-0.104
-0.053,0.05,0.104,0.001,-0.079,0.077,0.07,-0.016,-0.036,-0.074,-0.11,-0.106
-0.052,0.05,0.102,0.001,-0.077,0.075,0.064,-0.03,-0.034,-0.074,-0.111,-0.103
-0.066,0.05,0.117,0.008,-0.091,0.083,0.054,-0.044,-0.036,-0.082,-0.12,-0.1
-0.068,0.049,0.116,0.009,-0.092,0.082,0.054,-0.047,-0.034,-0.096,-0.128,-0.094
-0.061,0.045,0.105,0.008,-0.084,0.075,0.06,-0.042,-0.038,-0.095,-0.134,-0.103
-0.059,0.043,0.103,0.008,-0.081,0.073,0.055,-0.039,-0.053,-0.095,-0.135,-0.12
-0.053,0.038,0.092,0.007,-0.072,0.065,0.05,-0.036,-0.056,-0.095,-0.135,-0.12
-0.055,0.038,0.094,0.008,-0.075,0.066,0.047,-0.03,-0.059,-0.095,-0.136,-0.12
-0.085,0.031,0.116,0.026,-0.101,0.073,0.041,-0.033,-0.061,-0.097,-0.135,-0.12
-0.084,0.038,0.122,0.023,-0.103,0.08,0.041,-0.041,-0.065,-0.101,-0.135,-0.12
-0.071,0.052,0.122,0.009,-0.096,0.087,0.039,-0.033,-0.064,-0.098,-0.134,-0.119
-0.079,0.049,0.128,0.015,-0.104,0.088,0.042,-0.028,-0.065,-0.096,-0.129,-0.112
-0.078,0.05,0.128,0.014,-0.103,0.089,0.054,-0.021,-0.065,-0.091,-0.127,-0.107
-0.064,0.069,0.133,-0.003,-0.099,0.101,0.052,-0.014,-0.049,-0.085,-0.112,-0.093
0.013,0.155,0.141,-0.084,-0.064,0.147,0.047,-0.009,-0.001,-0.042,-0.085,-0.064
0.044,0.177,0.133,-0.111,-0.045,0.155,0.043,0.011,0.046,0.007,-0.078,-0.053
0.003,0.12,0.117,-0.062,-0.057,0.118,0.037,0.01,0.015,-0.025,-0.082,-0.057
0.026,0.118,0.091,-0.072,-0.033,0.104,0.017,-0.004,-0.017,-0.048,-0.077,-0.052
0.018,0.079,0.061,-0.049,-0.022,0.07,-0.015,-0.023,-0.043,-0.065,-0.094,-0.069
-0.014,0.047,0.061,-0.017,-0.038,0.054,-0.007,-0.05,-0.069,-0.098,-0.098,-0.082
-0.041,0.039,0.08,0.0,-0.06,0.059,0.038,-0.042,-0.068,-0.104,-0.106,-0.091
-0.067,0.021,0.088,0.023,-0.078,0.054,0.041,-0.048,-0.055,-0.103,-0.126,-0.113
-0.061,0.021,0.082,0.02,-0.072,0.051,0.038,-0.04,-0.063,-0.119,-0.139,-0.121
-0.091,-0.004,0.087,0.047,-0.089,0.042,0.044,-0.038,-0.086,-0.112,-0.148,-0.132
-0.07,0.008,0.078,0.031,-0.074,0.043,0.032,-0.046,-0.074,-0.112,-0.142,-0.13
-0.087,-0.054,0.033,0.07,-0.06,-0.01,0.087,0.059,-0.047,-0.135,-0.203,-0.189
-0.017,0.028,0.045,-0.006,-0.031,0.036,0.056,0.149,0.225,0.14,-0.018,-0.074
0.273,0.429,0.156,-0.351,0.058,0.292,-0.249,-0.132,0.397,0.654,0.574,0.415
0.233,0.725,0.492,-0.48,-0.129,0.608,-0.622,-0.946,-0.179,0.501,0.812,0.77
-0.07,0.624,0.694,-0.277,-0.382,0.659,-0.582,-1.344,-0.883,-0.387,0.251,0.529
-0.175,0.287,0.462,-0.056,-0.318,0.374,-0.288,-0.934,-0.903,-0.766,-0.288,0.069
-0.133,0.15,0.282,-0.009,-0.208,0.216,-0.18,-0.536,-0.527,-0.533,-0.317,-0.115
-0.118,0.102,0.22,0.008,-0.17,0.161,-0.064,-0.255,-0.246,-0.333,-0.26,-0.165
-0.101,0.027,0.128,0.037,-0.114,0.077,0.032,-0.072,-0.119,-0.214,-0.222,-0.177
-0.074,0.022,0.097,0.026,-0.086,0.059,0.051,-0.02,-0.073,-0.17,-0.197,-0.164
-0.089,0.011,0.1,0.039,-0.095,0.055,0.066,-0.002,-0.054,-0.145,-0.189,-0.166
-0.086,0.013,0.1,0.036,-0.093,0.056,0.052,-0.003,-0.05,-0.138,-0.174,-0.158
-0.099,0.001,0.1,0.049,-0.1,0.05,0.059,0.006,-0.045,-0.135,-0.174,-0.155
-0.071,0.029,0.1,0.021,-0.086,0.064,0.063,0.028,-0.042,-0.126,-0.168,-0.151
-0.052,0.047,0.099,0.003,-0.076,0.073,0.064,0.048,-0.035,-0.124,-0.166,-0.149
-0.116,-0.009,0.107,0.062,-0.112,0.049,0.069,0.044,-0.038,-0.115,-0.161,-0.15
-0.097,-0.017,0.081,0.056,-0.089,0.032,0.069,0.05,-0.047,-0.113,-0.159,-0.166
-0.055,0.008,0.063,0.023,-0.06,0.035,0.062,0.05,-0.028,-0.102,-0.153,-0.162
-0.078,0.0,0.078,0.039,-0.078,0.039,0.059,0.053,-0.014,-0.088,-0.146,-0.149
-0.078,-0.004,0.074,0.04,-0.075,0.035,0.053,0.061,-0.01,-0.075,-0.139,-0.143
-0.048,0.027,0.075,0.01,-0.062,0.051,0.05,0.071,0.007,-0.058,-0.133,-0.136
-0.036,0.04,0.076,-0.002,-0.056,0.058,0.061,0.089,0.028,-0.038,-0.119,-0.128
-0.023,0.049,0.073,-0.013,-0.048,0.061,0.059,0.106,0.051,-0.011,-0.097,-0.107
-0.023,0.068,0.09,-0.023,-0.057,0.079,0.05,0.127,0.08,0.014,-0.079,-0.089
-0.009,0.087,0.096,-0.039,-0.053,0.092,0.045,0.138,0.102,0.044,-0.051,-0.056
0.032,0.152,0.12,-0.092,-0.044,0.135,0.037,0.155,0.149,0.086,-0.012,-0.016
0.039,0.186,0.147,-0.112,-0.054,0.166,0.035,0.164,0.179,0.124,0.032,0.009
0.046,0.196,0.15,-0.122,-0.052,0.173,0.032,0.152,0.201,0.157,0.063,0.03
0.065,0.248,0.183,-0.157,-0.059,0.215,0.029,0.145,0.233,0.183,0.09,0.058
0.076,0.278,0.202,-0.177,-0.064,0.24,0.02,0.138,0.236,0.191,0.108,0.081
0.074,0.279,0.205,-0.177,-0.065,0.242,0.0,0.127,0.245,0.19,0.118,0.094
0.057,0.276,0.219,-0.167,-0.081,0.247,-0.007,0.111,0.241,0.189,0.127,0.101
0.04,0.27,0.229,-0.155,-0.095,0.249,-0.001,0.095,0.23,0.192,0.123,0.101
0.042,0.261,0.219,-0.152,-0.089,0.24,0.004,0.078,0.218,0.172,0.116,0.096
0.04,0.225,0.185,-0.132,-0.073,0.205,0.009,0.062,0.173,0.129,0.078,0.062
0.014,0.177,0.163,-0.096,-0.075,0.17,0.015,0.042,0.117,0.08,0.022,0.018
-0.007,0.143,0.15,-0.068,-0.079,0.146,0.02,0.023,0.069,0.03,-0.02,-0.015
-0.032,0.105,0.137,-0.037,-0.084,0.121,0.025,-0.003,0.03,-0.013,-0.062,-0.044
-0.033,0.096,0.13,-0.032,-0.082,0.113,0.03,-0.029,0.001,-0.05,-0.09,-0.064
-0.009,0.113,0.122,-0.052,-0.066,0.117,0.033,-0.031,-0.014,-0.066,-0.091,-0.071
-0.013,0.103,0.116,-0.045,-0.064,0.109,0.038,-0.027,-0.026,-0.069,-0.097,-0.076
-0.015,0.092,0.107,-0.039,-0.061,0.099,0.04,-0.025,-0.032,-0.076,-0.105,-0.08
-0.014,0.087,0.101,-0.037,-0.058,0.094,0.041,-0.021,-0.03,-0.079,-0.105,-0.08
-0.036,0.08,0.116,-0.022,-0.076,0.098,0.039,-0.02,-0.03,-0.084,-0.105,-0.08
-0.041,0.077,0.118,-0.018,-0.079,0.097,0.042,-0.024,-0.03,-0.083,-0.102,-0.08
-0.04,0.068,0.108,-0.015,-0.074,0.088,0.054,-0.025,-0.03,-0.078,-0.1,-0.08
-0.036,0.067,0.103,-0.015,-0.07,0.084,0.05,-0.025,-0.03,-0.075,-0.1,-0.076
-0.032,0.063,0.095,-0.016,-0.064,0.079,0.042,-0.025,-0.033,-0.072,-0.103,-0.075
-0.024,0.066,0.09,-0.021,-0.057,0.078,0.037,-0.026,-0.036,-0.067,-0.109,-0.074
-0.001,0.082,0.083,-0.041,-0.042,0.082,0.028,-0.024,-0.034,-0.065,-0.112,-0.071
0.005,0.081,0.075,-0.043,-0.035,0.078,0.026,-0.018,-0.035,-0.069,-0.117,-0.069
0.003,0.072,0.069,-0.038,-0.033,0.07,0.032,-0.013,-0.035,-0.071,-0.12,-0.073
0.002,0.064,0.062,-0.033,-0.03,0.063,0.036,-0.004,-0.034,-0.068,-0.12,-0.09
-0.002,0.049,0.052,-0.024,-0.027,0.05,0.034,-0.024,-0.052,-0.087,-0.122,-0.098
-0.024,0.042,0.066,-0.009,-0.045,0.053,0.036,-0.043,-0.063,-0.102,-0.125,-0.095
-0.045,0.037,0.082,0.004,-0.064,0.06,0.034,-0.039,-0.063,-0.099,-0.125,-0.095
-0.038,0.034,0.072,0.002,-0.056,0.053,0.036,-0.041,-0.069,-0.103,-0.129,-0.095
-0.038,0.031,0.069,0.004,-0.054,0.05,0.033,-0.039,-0.07,-0.105,-0.131,-0.095
-0.041,0.025,0.066,0.007,-0.054,0.045,0.03,-0.04,-0.075,-0.105,-0.128,-0.095
-0.032,0.025,0.057,0.003,-0.045,0.041,0.03,-0.036,-0.072,-0.1,-0.126,-0.091
-0.053,0.015,0.068,0.019,-0.061,0.042,0.03,-0.031,-0.068,-0.091,-0.121,-0.081
-0.039,0.032,0.071,0.003,-0.056,0.051,0.031,-0.027,-0.065,-0.082,-0.121,-0.075
-0.011,0.075,0.086,-0.032,-0.049,0.08,0.028,-0.023,-0.044,-0.074,-0.108,-0.065
-0.015,0.097,0.112,-0.042,-0.064,0.105,0.03,-0.018,-0.01,-0.057,-0.09,-0.062
0.023,0.136,0.113,-0.08,-0.045,0.125,0.017,-0.012,0.017,-0.041,-0.089,-0.065
0.038,0.131,0.093,-0.085,-0.028,0.112,0.032,0.003,0.015,-0.039,-0.091,-0.065
0.031,0.086,0.055,-0.059,-0.012,0.07,0.02,0.011,-0.01,-0.044,-0.094,-0.067
0.025,0.058,0.033,-0.042,-0.004,0.045,-0.014,-0.018,-0.051,-0.066,-0.095,-0.071
-0.001,0.038,0.039,-0.019,-0.02,0.038,-0.002,-0.046,-0.072,-0.085,-0.102,-0.07
-0.014,0.04,0.054,-0.014,-0.034,0.047,0.012,-0.036,-0.07,-0.083,-0.114,-0.073
-0.035,0.023,0.059,0.006,-0.047,0.041,0.041,-0.043,-0.077,-0.09,-0.119,-0.087
-0.043,-0.002,0.041,0.022,-0.042,0.019,0.05,-0.039,-0.075,-0.116,-0.131,-0.104
-0.049,-0.02,0.029,0.034,-0.038,0.004,0.052,-0.038,-0.084,-0.126,-0.142,-0.116
-0.072,-0.028,0.044,0.05,-0.058,0.008,0.043,-0.046,-0.081,-0.124,-0.131,-0.102
-0.073,-0.081,-0.008,0.077,-0.032,-0.044,0.087,0.052,-0.05,-0.134,-0.174,-0.156
-0.019,-0.043,-0.024,0.031,0.003,-0.033,0.086,0.14,0.159,0.064,-0.067,-0.11
0.214,0.286,0.072,-0.25,0.071,0.179,-0.188,-0.04,0.392,0.584,0.471,0.335
0.296,0.664,0.368,-0.481,-0.036,0.516,-0.577,-0.799,-0.032,0.606,0.84,0.768
0.008,0.66,0.652,-0.335,-0.322,0.656,-0.616,-1.364,-0.778,-0.236,0.378,0.612
-0.181,0.299,0.48,-0.059,-0.331,0.389,-0.326,-1.025,-0.916,-0.738,-0.215,0.152
-0.152,0.109,0.261,0.021,-0.206,0.185,-0.191,-0.584,-0.576,-0.56,-0.294,-0.069
-0.113,0.073,0.186,0.02,-0.15,0.129,-0.099,-0.301,-0.278,-0.356,-0.245,-0.125
-0.083,0.006,0.089,0.038,-0.086,0.047,0.015,-0.09,-0.133,-0.222,-0.207,-0.144
-0.052,-0.015,0.037,0.033,-0.044,0.011,0.051,-0.027,-0.083,-0.166,-0.172,-0.137
-0.054,-0.028,0.025,0.041,-0.039,-0.002,0.071,-0.002,-0.064,-0.147,-0.172,-0.142
-0.056,-0.031,0.026,0.043,-0.041,-0.002,0.061,0.0,-0.057,-0.133,-0.161,-0.139
-0.091,-0.055,0.036,0.073,-0.063,-0.009,0.075,0.01,-0.051,-0.131,-0.162,-0.141
-0.113,-0.059,0.054,0.086,-0.083,-0.002,0.081,0.018,-0.044,-0.121,-0.157,-0.136
-0.088,-0.046,0.042,0.067,-0.065,-0.001,0.079,0.019,-0.038,-0.117,-0.155,-0.129
-0.081,-0.047,0.034,0.064,-0.057,-0.006,0.079,0.023,-0.032,-0.109,-0.151,-0.123
-0.064,-0.036,0.028,0.049,-0.045,-0.004,0.073,0.032,-0.027,-0.104,-0.15,-0.116
-0.063,-0.034,0.029,0.048,-0.046,-0.002,0.076,0.04,-0.018,-0.095,-0.146,-0.108
-0.047,-0.016,0.031,0.031,-0.038,0.007,0.07,0.064,-0.013,-0.086,-0.135,-0.107
-0.043,-0.014,0.029,0.028,-0.036,0.008,0.063,0.084,-0.005,-0.068,-0.128,-0.109
-0.053,-0.022,0.031,0.038,-0.042,0.004,0.055,0.078,0.005,-0.047,-0.119,-0.101
-0.019,0.01,0.029,0.005,-0.024,0.019,0.049,0.087,0.028,-0.029,-0.104,-0.091
-0.025,0.015,0.041,0.005,-0.034,0.028,0.039,0.107,0.05,-0.021,-0.093,-0.085
0.023,0.031,0.008,-0.027,0.007,0.019,0.039,0.112,0.074,0.002,-0.066,-0.065
0.062,0.082,0.02,-0.072,0.021,0.051,0.045,0.129,0.108,0.051,-0.016,-0.028
0.019,0.099,0.081,-0.06,-0.031,0.09,0.035,0.15,0.129,0.079,0.015,-0.008
0.052,0.139,0.087,-0.096,-0.018,0.112,0.025,0.146,0.172,0.124,0.048,0.012
0.072,0.185,0.114,-0.129,-0.021,0.149,0.016,0.14,0.205,0.16,0.084,0.037
0.063,0.194,0.131,-0.128,-0.034,0.162,0.004,0.136,0.223,0.174,0.107,0.07
0.066,0.214,0.147,-0.14,-0.041,0.18,-0.004,0.129,0.24,0.21,0.13,0.101
0.084,0.243,0.159,-0.164,-0.038,0.2,-0.017,0.124,0.249,0.217,0.156,0.119
0.101,0.244,0.143,-0.172,-0.022,0.193,-0.028,0.118,0.261,0.214,0.171,0.125
0.063,0.233,0.17,-0.148,-0.054,0.201,-0.021,0.106,0.256,0.217,0.176,0.11
0.067,0.221,0.154,-0.144,-0.044,0.187,-0.013,0.091,0.238,0.183,0.157,0.101
0.089,0.211,0.123,-0.15,-0.017,0.167,-0.005,0.073,0.193,0.133,0.104,0.08
0.06,0.174,0.114,-0.117,-0.027,0.144,0.002,0.043,0.142,0.082,0.059,0.042
0.007,0.113,0.106,-0.06,-0.049,0.109,0.01,0.022,0.09,0.046,0.018,0.015
0.003,0.097,0.094,-0.05,-0.046,0.095,0.027,0.021,0.042,0.017,-0.029,-0.012
0.021,0.093,0.072,-0.057,-0.026,0.082,0.031,-0.001,0.024,-0.03,-0.057,-0.042
0.008,0.081,0.073,-0.045,-0.033,0.077,0.025,-0.031,0.015,-0.054,-0.062,-0.05
0.005,0.077,0.072,-0.041,-0.034,0.074,0.025,-0.037,0.007,-0.062,-0.069,-0.053
0.003,0.067,0.063,-0.035,-0.03,0.065,0.019,-0.032,0.001,-0.069,-0.081,-0.065
-0.008,0.062,0.069,-0.027,-0.039,0.065,0.022,-0.026,-0.007,-0.065,-0.086,-0.067
-0.034,0.054,0.088,-0.01,-0.061,0.07,0.039,-0.021,-0.015,-0.061,-0.085,-0.071
-0.036,0.046,0.082,-0.005,-0.059,0.063,0.038,-0.015,-0.018,-0.059,-0.085,-0.075
-0.039,0.04,0.079,0.0,-0.059,0.059,0.033,-0.01,-0.015,-0.054,-0.085,-0.075
-0.057,0.031,0.088,0.012,-0.072,0.059,0.032,-0.006,-0.012,-0.05,-0.085,-0.075
-0.048,0.032,0.08,0.007,-0.064,0.056,0.025,-0.003,-0.01,-0.052,-0.08,-0.075
-0.043,0.025,0.068,0.009,-0.055,0.046,0.027,0.0,-0.007,-0.056,-0.08,-0.075
-0.01,0.042,0.052,-0.016,-0.031,0.047,0.03,0.002,-0.004,-0.058,-0.08,-0.075
0.013,0.058,0.046,-0.036,-0.017,0.051,0.03,0.006,-0.011,-0.061,-0.079,-0.075
0.001,0.044,0.043,-0.023,-0.022,0.044,0.03,0.003,-0.023,-0.064,-0.082,-0.08
-0.007,0.033,0.04,-0.013,-0.024,0.037,0.03,-0.004,-0.034,-0.065,-0.074,-0.08
-0.026,0.011,0.037,0.007,-0.032,0.024,0.03,-0.011,-0.046,-0.07,-0.086,-0.081
-0.029,0.006,0.035,0.011,-0.032,0.021,0.027,-0.017,-0.05,-0.068,-0.103,-0.086
-0.043,-0.011,0.033,0.027,-0.038,0.011,0.024,-0.025,-0.05,-0.065,-0.099,-0.084
-0.059,-0.032,0.028,0.045,-0.043,-0.002,0.025,-0.03,-0.05,-0.081,-0.098,-0.088
-0.043,-0.021,0.023,0.032,-0.033,0.001,0.025,-0.025,-0.05,-0.087,-0.095,-0.091
-0.027,-0.008,0.02,0.017,-0.023,0.006,0.025,-0.025,-0.05,-0.083,-0.095,-0.09
-0.023,-0.01,0.013,0.016,-0.018,0.001,0.028,-0.023,-0.046,-0.086,-0.091,-0.091
-0.03,-0.023,0.007,0.026,-0.018,-0.008,0.03,-0.02,-0.039,-0.083,-0.081,-0.089
-0.006,-0.022,-0.015,0.014,0.005,-0.018,0.027,-0.02,-0.035,-0.087,-0.075,-0.092
0.005,0.002,-0.003,-0.004,0.004,0.0,0.022,-0.018,-0.027,-0.077,-0.065,-0.065
0.003,0.051,0.048,-0.027,-0.023,0.05,0.021,-0.012,0.002,-0.042,-0.059,-0.034
0.067,0.103,0.037,-0.085,0.015,0.07,0.013,-0.009,0.038,-0.027,-0.054,-0.028
0.068,0.092,0.024,-0.08,0.022,0.058,0.021,-0.005,0.034,-0.032,-0.055,-0.027
0.047,0.052,0.005,-0.05,0.02,0.028,0.026,0.011,0.012,-0.028,-0.051,-0.022
0.101,0.04,-0.061,-0.071,0.08,-0.01,-0.008,0.01,-0.001,-0.029,-0.048,-0.02
0.071,0.014,-0.057,-0.042,0.064,-0.021,-0.01,-0.005,-0.035,-0.049,-0.072,-0.037
0.032,0.012,-0.02,-0.022,0.026,-0.004,-0.001,-0.023,-0.057,-0.056,-0.093,-0.05
-0.004,-0.012,-0.008,0.008,0.003,-0.01,0.011,-0.035,-0.055,-0.075,-0.104,-0.078
-0.033,-0.036,-0.002,0.035,-0.015,-0.019,0.025,-0.031,-0.054,-0.09,-0.102,-0.091
-0.035,-0.046,-0.011,0.041,-0.012,-0.028,0.041,-0.015,-0.057,-0.092,-0.114,-0.099
-0.064,-0.052,0.012,0.058,-0.038,-0.02,0.039,-0.018,-0.051,-0.084,-0.106,-0.088
-0.027,-0.076,-0.048,0.052,0.011,-0.062,0.042,0.028,-0.064,-0.109,-0.136,-0.12
-0.021,-0.109,-0.088,0.065,0.034,-0.099,0.104,0.134,0.07,-0.031,-0.125,-0.152
0.161,0.134,-0.027,-0.147,0.094,0.054,-0.062,0.099,0.374,0.406,0.267,0.149
0.362,0.527,0.165,-0.445,0.099,0.346,-0.464,-0.484,0.22,0.717,0.785,0.65
0.125,0.677,0.552,-0.401,-0.214,0.614,-0.653,-1.259,-0.498,0.135,0.636,0.751
-0.134,0.4,0.534,-0.133,-0.334,0.467,-0.441,-1.206,-0.908,-0.629,-0.031,0.309
-0.159,0.094,0.253,0.032,-0.206,0.173,-0.222,-0.717,-0.687,-0.64,-0.296,-0.033
-0.098,0.062,0.159,0.018,-0.129,0.11,-0.144,-0.389,-0.339,-0.392,-0.244,-0.095
-0.072,-0.004,0.069,0.037,-0.071,0.032,-0.033,-0.132,-0.144,-0.243,-0.201,-0.121
-0.08,-0.069,0.011,0.074,-0.045,-0.029,0.023,-0.026,-0.069,-0.145,-0.154,-0.112
-0.056,-0.067,-0.011,0.062,-0.022,-0.039,0.058,0.013,-0.043,-0.117,-0.151,-0.115
-0.034,-0.075,-0.04,0.055,0.003,-0.057,0.068,0.024,-0.033,-0.101,-0.141,-0.11
-0.023,-0.074,-0.052,0.048,0.015,-0.062,0.062,0.035,-0.029,-0.094,-0.142,-0.109
-0.029,-0.076,-0.047,0.053,0.01,-0.062,0.067,0.053,-0.02,-0.087,-0.138,-0.115
-0.029,-0.074,-0.045,0.052,0.008,-0.059,0.063,0.048,-0.015,-0.083,-0.135,-0.115
-0.03,-0.071,-0.041,0.05,0.006,-0.056,0.066,0.051,-0.008,-0.079,-0.135,-0.113
-0.029,-0.07,-0.041,0.05,0.006,-0.056,0.06,0.049,-0.001,-0.073,-0.125,-0.109
-0.035,-0.069,-0.033,0.052,-0.001,-0.051,0.06,0.056,0.006,-0.07,-0.117,-0.107
-0.032,-0.063,-0.031,0.048,-0.001,-0.046,0.06,0.077,0.013,-0.059,-0.108,-0.105
-0.04,-0.055,-0.015,0.048,-0.012,-0.035,0.059,0.091,0.021,-0.044,-0.101,-0.101
-0.028,-0.059,-0.032,0.044,0.002,-0.045,0.061,0.093,0.037,-0.032,-0.098,-0.095
0.015,-0.058,-0.073,0.021,0.044,-0.065,0.057,0.099,0.039,-0.012,-0.092,-0.089
0.0,-0.037,-0.037,0.019,0.019,-0.037,0.049,0.11,0.062,0.0,-0.073,-0.084
0.003,-0.018,-0.021,0.008,0.012,-0.019,0.043,0.132,0.099,0.025,-0.053,-0.078
0.028,0.004,-0.024,-0.016,0.026,-0.01,0.035,0.162,0.114,0.063,-0.031,-0.05
0.037,0.031,-0.006,-0.034,0.022,0.012,0.028,0.167,0.151,0.097,0.012,-0.016
0.064,0.078,0.013,-0.071,0.025,0.045,0.021,0.165,0.192,0.141,0.056,0.019
0.088,0.117,0.028,-0.103,0.03,0.073,0.015,0.175,0.217,0.173,0.091,0.052
0.12,0.157,0.038,-0.139,0.041,0.097,0.012,0.179,0.246,0.209,0.132,0.083
0.127,0.212,0.085,-0.17,0.02,0.148,0.006,0.17,0.265,0.231,0.154,0.105
0.096,0.217,0.121,-0.157,-0.013,0.169,-0.01,0.161,0.262,0.229,0.158,0.106
0.096,0.211,0.115,-0.154,-0.01,0.163,-0.027,0.153,0.255,0.233,0.172,0.128
0.103,0.211,0.109,-0.157,-0.003,0.16,-0.03,0.143,0.25,0.225,0.185,0.144
0.102,0.207,0.105,-0.155,-0.002,0.155,-0.037,0.133,0.245,0.216,0.169,0.125
0.091,0.188,0.096,-0.14,-0.003,0.142,-0.03,0.119,0.217,0.193,0.133,0.093
0.057,0.148,0.091,-0.103,-0.017,0.12,-0.009,0.093,0.174,0.143,0.097,0.067
0.046,0.1,0.054,-0.073,-0.004,0.077,-0.001,0.067,0.136,0.091,0.049,0.041
0.022,0.044,0.021,-0.033,0.0,0.032,0.01,0.051,0.094,0.042,0.009,0.0
0.009,0.023,0.014,-0.017,-0.002,0.018,0.021,0.035,0.058,0.002,0.001,-0.022
0.01,0.021,0.011,-0.015,-0.001,0.016,0.026,0.029,0.04,-0.019,-0.028,-0.037
0.01,0.012,0.001,-0.011,0.004,0.006,0.025,0.026,0.024,-0.041,-0.071,-0.059
0.026,0.007,-0.019,-0.016,0.022,-0.006,0.025,0.022,0.014,-0.052,-0.076,-0.06
0.004,-0.003,-0.006,0.0,0.005,-0.004,0.026,0.019,0.016,-0.049,-0.074,-0.06
0.006,-0.012,-0.018,0.003,0.013,-0.015,0.023,0.013,0.013,-0.05,-0.076,-0.057
-0.004,-0.023,-0.02,0.014,0.008,-0.021,0.035,0.024,0.011,-0.05,-0.075,-0.053
-0.022,-0.027,-0.005,0.025,-0.008,-0.016,0.038,0.031,0.008,-0.05,-0.075,-0.058
-0.024,-0.025,-0.001,0.024,-0.011,-0.013,0.033,0.031,0.017,-0.04,-0.068,-0.039
-0.021,-0.02,0.001,0.02,-0.011,-0.009,0.024,0.045,0.031,-0.023,-0.06,-0.051
-0.007,-0.02,-0.013,0.014,0.004,-0.016,0.032,0.045,0.027,-0.019,-0.052,-0.072
0.026,-0.01,-0.036,-0.008,0.032,-0.023,0.04,0.04,0.018,-0.02,-0.05,-0.061
0.02,-0.009,-0.029,-0.005,0.025,-0.019,0.021,0.039,0.014,-0.02,-0.05,-0.057
-0.024,-0.023,0.002,0.024,-0.013,-0.011,0.039,0.035,0.003,-0.02,-0.05,-0.051
-0.007,-0.014,-0.007,0.01,0.0,-0.01,0.046,0.034,0.003,-0.012,-0.05,-0.053
-0.001,0.0,0.001,0.001,-0.001,0.0,0.034,0.029,0.016,-0.023,-0.05,-0.059
0.015,-0.003,-0.018,-0.006,0.016,-0.01,0.036,0.024,0.016,-0.036,-0.055,-0.062
0.009,-0.038,-0.046,0.015,0.028,-0.042,0.026,0.02,0.002,-0.029,-0.064,-0.066
-0.012,-0.048,-0.036,0.03,0.012,-0.041,0.028,0.015,-0.001,-0.024,-0.066,-0.065
0.003,-0.043,-0.045,0.02,0.025,-0.044,0.039,0.011,0.003,-0.042,-0.065,-0.065
0.003,-0.045,-0.047,0.022,0.025,-0.046,0.041,0.013,-0.005,-0.058,-0.064,-0.066
-0.008,-0.035,-0.027,0.021,0.01,-0.031,0.039,0.025,0.005,-0.054,-0.06,-0.065
-0.003,-0.061,-0.058,0.032,0.028,-0.06,0.036,0.037,0.011,-0.053,-0.061,-0.066
0.024,-0.066,-0.09,0.022,0.057,-0.078,0.034,0.034,0.004,-0.049,-0.057,-0.06
0.031,-0.054,-0.085,0.012,0.059,-0.069,0.037,0.03,-0.004,-0.052,-0.05,-0.055
0.015,-0.041,-0.056,0.013,0.036,-0.048,0.04,0.028,0.002,-0.036,-0.04,-0.047
0.022,0.02,-0.002,-0.021,0.012,0.008,0.036,0.023,0.027,-0.003,-0.025,-0.017
0.051,0.068,0.017,-0.06,0.017,0.042,0.026,0.033,0.055,0.036,0.004,0.017
0.048,0.067,0.018,-0.058,0.015,0.043,0.02,0.056,0.077,0.053,0.029,0.035
0.067,0.034,-0.033,-0.05,0.05,0.0,0.01,0.05,0.064,0.047,0.02,0.029
0.085,-0.004,-0.089,-0.04,0.087,-0.046,0.005,0.044,0.048,0.043,0.008,0.024
0.058,-0.019,-0.078,-0.019,0.068,-0.048,0.016,0.042,0.037,0.01,-0.003,0.008
0.028,-0.027,-0.055,0.0,0.042,-0.04,0.019,0.029,0.02,-0.021,-0.008,-0.004
-0.018,-0.074,-0.056,0.046,0.019,-0.065,0.034,0.035,0.01,-0.029,-0.024,-0.033
-0.023,-0.091,-0.068,0.058,0.022,-0.079,0.032,0.016,-0.005,-0.04,-0.057,-0.052
-0.045,-0.086,-0.042,0.066,-0.001,-0.064,0.059,0.043,-0.01,-0.047,-0.075,-0.046
-0.026,-0.066,-0.041,0.046,0.008,-0.053,0.076,0.05,0.002,-0.04,-0.052,-0.067
0.037,-0.086,-0.124,0.025,0.081,-0.105,0.075,0.066,-0.028,-0.063,-0.079,-0.091
-0.011,-0.143,-0.133,0.077,0.062,-0.138,0.113,0.183,0.099,0.003,-0.08,-0.097
0.127,0.054,-0.072,-0.09,0.1,-0.009,-0.025,0.173,0.426,0.459,0.311,0.169
0.341,0.461,0.12,-0.402,0.111,0.29,-0.381,-0.328,0.311,0.859,0.893,0.7
0.163,0.665,0.503,-0.414,-0.17,0.584,-0.631,-1.112,-0.427,0.287,0.805,0.842
-0.122,0.39,0.512,-0.134,-0.317,0.451,-0.433,-1.121,-0.894,-0.554,0.09,0.407
-0.136,0.077,0.214,0.029,-0.175,0.145,-0.181,-0.635,-0.692,-0.615,-0.254,0.022
-0.067,0.039,0.105,0.014,-0.086,0.072,-0.127,-0.343,-0.34,-0.367,-0.206,-0.059
-0.044,-0.004,0.039,0.024,-0.041,0.017,0.01,-0.081,-0.106,-0.194,-0.164,-0.051
-0.049,-0.116,-0.067,0.082,0.01,-0.091,0.09,0.016,-0.019,-0.106,-0.125,-0.071
-0.031,-0.145,-0.114,0.088,0.042,-0.129,0.093,0.054,-0.008,-0.089,-0.117,-0.097
-0.01,-0.117,-0.107,0.064,0.049,-0.112,0.097,0.086,0.007,-0.068,-0.104,-0.076
-0.046,-0.146,-0.1,0.096,0.027,-0.122,0.097,0.085,0.01,-0.066,-0.095,-0.074
-0.041,-0.13,-0.089,0.086,0.024,-0.109,0.102,0.099,0.021,-0.046,-0.086,-0.073
-0.028,-0.12,-0.092,0.074,0.033,-0.106,0.099,0.104,0.027,-0.033,-0.079,-0.068
-0.029,-0.131,-0.103,0.08,0.037,-0.117,0.1,0.126,0.035,-0.026,-0.076,-0.067
-0.028,-0.123,-0.095,0.076,0.034,-0.109,0.102,0.124,0.035,-0.021,-0.068,-0.064
-0.042,-0.123,-0.082,0.083,0.02,-0.102,0.115,0.126,0.037,-0.017,-0.064,-0.069
-0.026,-0.117,-0.092,0.072,0.033,-0.104,0.11,0.125,0.042,-0.008,-0.058,-0.078
0.009,-0.115,-0.124,0.053,0.067,-0.12,0.105,0.127,0.044,-0.007,-0.05,-0.082
0.01,-0.11,-0.12,0.051,0.065,-0.115,0.102,0.148,0.065,0.015,-0.042,-0.069
0.004,-0.107,-0.111,0.052,0.058,-0.109,0.096,0.154,0.086,0.037,-0.033,-0.055
0.008,-0.099,-0.107,0.046,0.058,-0.103,0.093,0.172,0.107,0.07,-0.02,-0.026
0.006,-0.091,-0.097,0.042,0.052,-0.094,0.086,0.186,0.127,0.095,0.005,-0.018
0.013,-0.074,-0.087,0.031,0.05,-0.08,0.079,0.203,0.159,0.111,0.038,-0.002
0.04,-0.03,-0.07,-0.005,0.055,-0.05,0.073,0.22,0.204,0.174,0.085,0.041
0.084,0.024,-0.06,-0.054,0.072,-0.018,0.066,0.213,0.228,0.208,0.117,0.053
0.091,0.048,-0.043,-0.069,0.067,0.002,0.058,0.216,0.253,0.226,0.141,0.086
0.093,0.063,-0.03,-0.077,0.062,0.016,0.048,0.215,0.277,0.264,0.187,0.115
0.107,0.108,0.002,-0.108,0.052,0.055,0.037,0.215,0.297,0.276,0.196,0.133
0.099,0.134,0.035,-0.117,0.032,0.084,0.033,0.216,0.316,0.29,0.222,0.183
0.086,0.119,0.033,-0.103,0.026,0.076,0.035,0.204,0.315,0.306,0.258,0.2
0.079,0.131,0.053,-0.105,0.013,0.092,0.035,0.19,0.322,0.301,0.248,0.189
0.075,0.134,0.059,-0.105,0.008,0.096,0.038,0.174,0.31,0.286,0.242,0.173
0.051,0.099,0.048,-0.075,0.001,0.073,0.041,0.148,0.258,0.259,0.218,0.153
0.04,0.062,0.021,-0.051,0.009,0.041,0.039,0.128,0.208,0.206,0.168,0.127
0.03,0.025,-0.005,-0.027,0.017,0.01,0.047,0.112,0.165,0.136,0.111,0.09
0.038,0.011,-0.027,-0.024,0.032,-0.008,0.051,0.097,0.124,0.088,0.07,0.063
0.007,-0.016,-0.022,0.005,0.015,-0.019,0.045,0.088,0.092,0.065,0.047,0.052
-0.03,-0.053,-0.023,0.041,-0.003,-0.037,0.075,0.077,0.072,0.049,0.028,0.039
0.015,-0.071,-0.086,0.028,0.051,-0.078,0.094,0.08,0.055,0.028,0.023,0.005
0.027,-0.059,-0.086,0.017,0.056,-0.072,0.088,0.08,0.038,0.013,0.017,-0.013
-0.003,-0.075,-0.072,0.04,0.034,-0.073,0.089,0.079,0.035,0.01,0.014,-0.003
-0.035,-0.11,-0.075,0.073,0.02,-0.092,0.084,0.081,0.034,0.0,0.008,0.002
-0.025,-0.099,-0.074,0.062,0.025,-0.086,0.085,0.073,0.038,0.007,0.006,0.01
-0.01,-0.098,-0.088,0.054,0.039,-0.093,0.082,0.092,0.046,0.027,0.019,0.014
-0.018,-0.094,-0.076,0.056,0.03,-0.084,0.077,0.101,0.042,0.023,0.019,0.01
-0.002,-0.089,-0.087,0.046,0.042,-0.087,0.075,0.091,0.039,0.02,0.012,0.011
0.007,-0.094,-0.101,0.044,0.055,-0.098,0.069,0.09,0.035,0.017,0.009,0.007
-0.003,-0.095,-0.092,0.049,0.045,-0.094,0.068,0.083,0.032,0.012,0.003,0.005
-0.01,-0.1,-0.09,0.055,0.04,-0.095,0.061,0.08,0.026,0.01,0.0,0.005
-0.016,-0.101,-0.085,0.059,0.035,-0.093,0.064,0.075,0.032,0.005,-0.005,0.001
-0.026,-0.106,-0.079,0.066,0.027,-0.092,0.081,0.075,0.045,0.002,-0.005,-0.001
-0.017,-0.105,-0.087,0.061,0.035,-0.096,0.08,0.074,0.037,-0.002,-0.003,-0.004
-0.008,-0.105,-0.097,0.057,0.045,-0.101,0.08,0.07,0.031,-0.005,0.0,-0.007
-0.022,-0.117,-0.095,0.07,0.037,-0.105,0.08,0.07,0.024,-0.01,-0.005,-0.009
-0.024,-0.118,-0.094,0.072,0.036,-0.106,0.08,0.07,0.017,-0.008,-0.014,-0.012
-0.013,-0.11,-0.097,0.062,0.042,-0.103,0.078,0.07,0.013,-0.005,-0.012,-0.017
-0.017,-0.108,-0.091,0.063,0.037,-0.099,0.073,0.07,0.007,-0.021,-0.034,-0.036
0.023,-0.098,-0.121,0.038,0.072,-0.109,0.071,0.07,0.003,-0.031,-0.052,-0.045
0.047,-0.099,-0.146,0.026,0.097,-0.122,0.067,0.07,-0.001,-0.024,-0.05,-0.043
0.001,-0.125,-0.127,0.062,0.064,-0.126,0.062,0.071,-0.006,-0.02,-0.043,-0.027
-0.008,-0.13,-0.122,0.069,0.057,-0.126,0.06,0.074,-0.01,-0.016,-0.028,-0.008
-0.002,-0.105,-0.103,0.054,0.051,-0.104,0.065,0.078,-0.001,-0.012,-0.015,-0.014
0.001,-0.08,-0.081,0.04,0.041,-0.08,0.073,0.079,0.018,-0.003,0.017,-0.005
0.017,-0.037,-0.055,0.01,0.036,-0.046,0.073,0.087,0.052,0.028,0.034,0.022
0.03,0.009,-0.021,-0.02,0.026,-0.006,0.063,0.08,0.086,0.061,0.05,0.055
0.055,-0.021,-0.077,-0.017,0.066,-0.049,0.052,0.077,0.074,0.062,0.059,0.06
0.074,-0.069,-0.143,-0.002,0.109,-0.106,0.044,0.095,0.049,0.046,0.052,0.056
0.079,-0.088,-0.167,0.005,0.123,-0.127,0.029,0.094,0.042,0.033,0.042,0.049
0.079,-0.05,-0.129,-0.014,0.105,-0.09,0.042,0.078,0.037,0.023,0.03,0.043
0.036,-0.073,-0.109,0.018,0.073,-0.091,0.088,0.076,0.027,0.006,0.012,0.032
-0.056,-0.169,-0.113,0.113,0.028,-0.141,0.092,0.064,0.023,-0.009,-0.015,-0.014
-0.061,-0.172,-0.111,0.117,0.025,-0.141,0.085,0.07,0.008,-0.038,-0.032,-0.036
-0.008,-0.146,-0.139,0.077,0.066,-0.142,0.091,0.075,0.007,-0.05,-0.015,-0.012
-0.017,-0.139,-0.122,0.078,0.053,-0.13,0.075,0.065,-0.017,-0.05,-0.008,0.005
-0.033,-0.243,-0.21,0.138,0.089,-0.226,0.128,0.159,0.015,-0.047,-0.088,-0.089
0.035,-0.131,-0.166,0.048,0.101,-0.148,0.096,0.213,0.331,0.275,0.148,0.049
0.239,0.31,0.071,-0.274,0.084,0.19,-0.217,-0.071,0.435,0.835,0.809,0.584
0.233,0.619,0.386,-0.426,-0.077,0.502,-0.566,-0.819,-0.222,0.597,1.021,0.915
-0.047,0.496,0.543,-0.224,-0.295,0.519,-0.506,-1.134,-0.926,-0.397,0.352,0.599
-0.171,0.083,0.255,0.044,-0.213,0.169,-0.217,-0.696,-0.883,-0.748,-0.23,0.112
-0.118,-0.062,0.056,0.089,-0.087,-0.003,-0.12,-0.367,-0.476,-0.486,-0.228,-0.016
-0.053,-0.061,-0.008,0.057,-0.022,-0.034,-0.028,-0.119,-0.179,-0.264,-0.157,-0.043
-0.063,-0.155,-0.093,0.109,0.015,-0.124,0.065,0.037,-0.046,-0.134,-0.11,-0.061
-0.053,-0.177,-0.124,0.115,0.036,-0.15,0.091,0.083,0.0,-0.1,-0.085,-0.05
-0.024,-0.167,-0.143,0.096,0.059,-0.155,0.116,0.135,0.033,-0.06,-0.081,-0.059
-0.047,-0.183,-0.136,0.115,0.045,-0.16,0.125,0.127,0.029,-0.041,-0.065,-0.052
-0.048,-0.202,-0.154,0.125,0.053,-0.177,0.121,0.138,0.029,-0.04,-0.065,-0.057
-0.062,-0.187,-0.125,0.125,0.032,-0.156,0.12,0.137,0.027,-0.034,-0.056,-0.051
-0.039,-0.185,-0.146,0.112,0.054,-0.165,0.13,0.142,0.022,-0.033,-0.054,-0.047
-0.006,-0.185,-0.179,0.096,0.087,-0.182,0.126,0.145,0.03,-0.028,-0.049,-0.045
0.009,-0.156,-0.164,0.073,0.087,-0.16,0.124,0.151,0.035,-0.018,-0.044,-0.04
-0.011,-0.179,-0.168,0.095,0.078,-0.173,0.121,0.147,0.039,-0.006,-0.04,-0.037
-0.029,-0.185,-0.156,0.107,0.064,-0.17,0.118,0.158,0.069,0.008,-0.033,-0.033
-0.007,-0.163,-0.156,0.085,0.074,-0.159,0.116,0.19,0.09,0.017,-0.029,-0.027
-0.029,-0.175,-0.145,0.102,0.058,-0.16,0.113,0.181,0.093,0.034,-0.019,-0.018
-0.014,-0.161,-0.147,0.088,0.066,-0.153,0.106,0.193,0.112,0.057,0.004,-0.009
-0.005,-0.128,-0.122,0.067,0.059,-0.125,0.099,0.216,0.138,0.074,0.026,-0.005
0.032,-0.089,-0.122,0.029,0.078,-0.105,0.093,0.218,0.177,0.124,0.061,0.02
0.098,-0.054,-0.152,-0.021,0.125,-0.103,0.084,0.219,0.199,0.153,0.091,0.056
0.088,-0.021,-0.108,-0.033,0.098,-0.064,0.078,0.226,0.24,0.2,0.132,0.092
0.082,0.008,-0.073,-0.045,0.077,-0.032,0.07,0.23,0.277,0.258,0.176,0.12
0.096,0.036,-0.06,-0.066,0.078,-0.012,0.062,0.223,0.28,0.258,0.196,0.14
0.099,0.064,-0.035,-0.082,0.067,0.015,0.054,0.219,0.307,0.281,0.221,0.169
0.099,0.087,-0.012,-0.093,0.055,0.037,0.041,0.215,0.318,0.297,0.244,0.184
0.118,0.119,0.001,-0.118,0.058,0.06,0.038,0.206,0.311,0.292,0.257,0.204
0.101,0.12,0.019,-0.111,0.041,0.069,0.04,0.194,0.299,0.3,0.265,0.224
0.078,0.121,0.043,-0.099,0.017,0.081,0.04,0.181,0.288,0.281,0.279,0.223
0.085,0.117,0.032,-0.101,0.027,0.074,0.04,0.165,0.271,0.257,0.254,0.197
0.059,0.073,0.014,-0.066,0.022,0.043,0.038,0.149,0.218,0.218,0.196,0.16
0.029,0.018,-0.011,-0.023,0.02,0.003,0.049,0.134,0.17,0.145,0.14,0.116
0.014,-0.036,-0.05,0.012,0.032,-0.043,0.057,0.12,0.128,0.104,0.091,0.071
0.005,-0.057,-0.062,0.026,0.033,-0.059,0.064,0.107,0.083,0.075,0.06,0.054
-0.007,-0.088,-0.081,0.047,0.037,-0.084,0.075,0.101,0.059,0.033,0.038,0.048
0.003,-0.09,-0.093,0.044,0.048,-0.091,0.079,0.096,0.043,0.015,0.025,0.037
-0.007,-0.088,-0.082,0.048,0.038,-0.085,0.085,0.092,0.044,0.011,0.013,0.032
-0.052,-0.136,-0.084,0.094,0.017,-0.11,0.085,0.083,0.047,0.009,0.003,0.027
-0.045,-0.12,-0.075,0.083,0.015,-0.097,0.085,0.083,0.036,0.004,-0.003,0.025
-0.029,-0.106,-0.077,0.068,0.024,-0.091,0.083,0.099,0.028,0.001,-0.006,0.02
-0.003,-0.106,-0.103,0.054,0.051,-0.104,0.079,0.101,0.021,0.001,-0.004,0.017
0.003,-0.098,-0.101,0.048,0.052,-0.099,0.077,0.099,0.018,0.007,-0.006,0.013
0.002,-0.097,-0.099,0.047,0.051,-0.097,0.074,0.096,0.014,0.009,-0.001,0.01
0.016,-0.088,-0.104,0.037,0.06,-0.096,0.071,0.095,0.011,-0.017,0.011,0.008
-0.015,-0.11,-0.095,0.063,0.04,-0.103,0.07,0.094,0.006,-0.028,0.011,0.003
-0.023,-0.114,-0.091,0.069,0.034,-0.102,0.075,0.089,0.005,-0.023,0.01,0.017
-0.023,-0.108,-0.085,0.066,0.031,-0.096,0.075,0.085,0.016,-0.026,0.009,0.027
-0.024,-0.105,-0.08,0.065,0.028,-0.092,0.076,0.083,0.016,-0.024,0.004,0.019
-0.016,-0.116,-0.099,0.066,0.041,-0.107,0.08,0.078,0.007,-0.026,0.005,0.015
-0.018,-0.139,-0.12,0.079,0.051,-0.129,0.08,0.075,0.001,-0.029,0.003,0.008
-0.011,-0.131,-0.12,0.071,0.055,-0.125,0.077,0.093,-0.007,-0.032,-0.003,0.004
-0.014,-0.133,-0.118,0.074,0.052,-0.125,0.075,0.1,-0.014,-0.035,-0.008,-0.002
-0.01,-0.125,-0.115,0.068,0.053,-0.119,0.075,0.088,-0.021,-0.037,-0.011,-0.005
-0.013,-0.128,-0.116,0.071,0.052,-0.122,0.072,0.087,-0.026,-0.041,-0.016,-0.01
-0.003,-0.115,-0.112,0.059,0.055,-0.113,0.069,0.078,-0.025,-0.038,-0.021,-0.015
0.016,-0.093,-0.109,0.039,0.063,-0.101,0.073,0.069,-0.025,-0.033,-0.014,-0.012
-0.039,-0.142,-0.103,0.091,0.032,-0.123,0.083,0.091,-0.024,-0.027,-0.009,-0.006
-0.041,-0.16,-0.118,0.101,0.039,-0.139,0.079,0.096,-0.025,-0.024,-0.003,-0.001
-0.011,-0.152,-0.141,0.082,0.065,-0.146,0.07,0.087,-0.022,-0.018,0.002,0.002
-0.002,-0.115,-0.113,0.059,0.056,-0.114,0.064,0.087,-0.017,-0.015,0.008,0.008
0.016,-0.063,-0.08,0.023,0.048,-0.071,0.054,0.08,0.003,0.002,0.015,0.011
-0.007,-0.034,-0.027,0.02,0.01,-0.03,0.053,0.08,0.046,0.031,0.039,0.035
0.052,0.013,-0.039,-0.032,0.045,-0.013,0.05,0.099,0.046,0.034,0.069,0.063
0.07,-0.029,-0.099,-0.02,0.085,-0.064,0.042,0.104,0.022,0.026,0.059,0.059
0.043,-0.084,-0.127,0.021,0.085,-0.105,0.034,0.092,0.017,0.019,0.039,0.05
0.063,-0.085,-0.148,0.012,0.105,-0.116,0.027,0.093,0.01,0.012,0.029,0.04
0.026,-0.102,-0.128,0.039,0.077,-0.115,0.053,0.086,0.005,-0.004,0.017,0.03
0.012,-0.113,-0.125,0.051,0.068,-0.118,0.086,0.089,-0.001,-0.016,-0.003,0.005
0.0,-0.126,-0.126,0.064,0.063,-0.126,0.079,0.079,-0.006,-0.027,-0.02,0.001
-0.012,-0.178,-0.167,0.095,0.078,-0.172,0.09,0.083,-0.019,-0.063,-0.041,-0.014
-0.023,-0.174,-0.151,0.098,0.064,-0.162,0.088,0.078,-0.02,-0.055,-0.027,-0.014
-0.022,-0.187,-0.165,0.105,0.071,-0.176,0.084,0.092,-0.04,-0.072,-0.049,-0.038
-0.018,-0.244,-0.227,0.131,0.105,-0.235,0.132,0.215,0.102,0.007,-0.059,-0.085
0.132,0.023,-0.11,-0.077,0.121,-0.043,-0.002,0.198,0.439,0.488,0.364,0.211
0.314,0.465,0.151,-0.39,0.081,0.307,-0.407,-0.325,0.261,0.868,0.982,0.748
0.119,0.63,0.512,-0.375,-0.197,0.571,-0.639,-1.024,-0.561,0.239,0.858,0.885
-0.108,0.341,0.45,-0.117,-0.279,0.395,-0.419,-0.985,-1.023,-0.645,0.091,0.429
-0.112,0.017,0.129,0.047,-0.121,0.072,-0.215,-0.541,-0.748,-0.675,-0.245,0.042
-0.114,-0.034,0.079,0.074,-0.096,0.022,-0.126,-0.275,-0.36,-0.403,-0.172,-0.022
-0.082,-0.104,-0.022,0.094,-0.03,-0.063,-0.004,-0.034,-0.129,-0.216,-0.147,-0.058
-0.045,-0.165,-0.12,0.105,0.038,-0.142,0.044,0.073,-0.026,-0.103,-0.104,-0.054
-0.076,-0.191,-0.115,0.133,0.02,-0.152,0.089,0.112,-0.002,-0.087,-0.069,-0.054
-0.053,-0.196,-0.143,0.125,0.045,-0.169,0.097,0.13,0.028,-0.066,-0.05,-0.057
-0.039,-0.196,-0.156,0.118,0.059,-0.176,0.109,0.138,0.03,-0.063,-0.053,-0.053
-0.055,-0.205,-0.15,0.13,0.048,-0.177,0.12,0.165,0.029,-0.046,-0.049,-0.056
-0.041,-0.188,-0.147,0.115,0.053,-0.167,0.111,0.157,0.031,-0.039,-0.04,-0.049
-0.042,-0.186,-0.144,0.114,0.052,-0.165,0.118,0.164,0.029,-0.032,-0.038,-0.051
-0.037,-0.175,-0.138,0.106,0.051,-0.156,0.113,0.165,0.031,-0.022,-0.03,-0.05
-0.023,-0.167,-0.143,0.095,0.06,-0.155,0.115,0.164,0.036,-0.017,-0.026,-0.05
-0.026,-0.181,-0.155,0.104,0.064,-0.168,0.107,0.17,0.046,-0.006,-0.033,-0.051
-0.033,-0.182,-0.149,0.108,0.058,-0.165,0.101,0.169,0.047,0.0,-0.032,-0.046
-0.023,-0.167,-0.144,0.096,0.06,-0.155,0.094,0.173,0.064,0.021,-0.016,-0.032
-0.017,-0.155,-0.138,0.086,0.061,-0.146,0.087,0.182,0.097,0.043,-0.006,-0.018
-0.012,-0.145,-0.132,0.079,0.06,-0.138,0.082,0.197,0.111,0.056,0.008,-0.008
-0.002,-0.127,-0.124,0.065,0.062,-0.125,0.076,0.221,0.125,0.075,0.028,0.0
0.006,-0.093,-0.098,0.044,0.052,-0.095,0.074,0.228,0.163,0.112,0.054,0.011
0.023,-0.05,-0.072,0.014,0.048,-0.061,0.07,0.23,0.21,0.158,0.097,0.045
0.048,-0.005,-0.053,-0.021,0.051,-0.029,0.067,0.242,0.238,0.196,0.133,0.078
0.049,0.013,-0.037,-0.031,0.043,-0.012,0.063,0.24,0.26,0.224,0.162,0.098
0.057,0.036,-0.021,-0.046,0.038,0.007,0.051,0.231,0.282,0.255,0.207,0.141
0.064,0.078,0.014,-0.071,0.025,0.046,0.036,0.222,0.294,0.276,0.229,0.166
0.055,0.087,0.032,-0.071,0.011,0.059,0.026,0.217,0.306,0.285,0.247,0.182
0.086,0.115,0.029,-0.101,0.028,0.072,0.024,0.205,0.306,0.287,0.272,0.215
0.101,0.142,0.042,-0.122,0.029,0.092,0.021,0.201,0.3,0.28,0.282,0.21
0.073,0.109,0.035,-0.091,0.019,0.072,0.018,0.18,0.292,0.271,0.262,0.194
0.061,0.084,0.023,-0.073,0.019,0.053,0.015,0.152,0.264,0.244,0.214,0.166
0.031,0.027,-0.003,-0.029,0.017,0.012,0.016,0.155,0.198,0.184,0.159,0.12
0.024,-0.018,-0.042,-0.003,0.033,-0.03,0.032,0.124,0.133,0.124,0.114,0.087
-0.004,-0.054,-0.051,0.029,0.024,-0.053,0.042,0.102,0.087,0.075,0.075,0.062
-0.013,-0.085,-0.073,0.049,0.03,-0.079,0.044,0.1,0.046,0.031,0.036,0.048
0.014,-0.071,-0.085,0.028,0.05,-0.077,0.049,0.088,0.031,0.016,0.023,0.036
-0.049,-0.114,-0.065,0.082,0.008,-0.089,0.051,0.083,0.028,0.012,0.022,0.027
-0.038,-0.122,-0.083,0.08,0.022,-0.102,0.056,0.079,0.022,0.004,0.017,0.024
-0.014,-0.121,-0.107,0.068,0.047,-0.114,0.058,0.081,0.016,-0.003,0.014,0.014
-0.021,-0.126,-0.105,0.074,0.042,-0.115,0.061,0.08,0.013,-0.008,0.01,0.015
-0.022,-0.126,-0.104,0.074,0.042,-0.115,0.073,0.08,-0.003,-0.022,0.006,-0.012
-0.052,-0.151,-0.099,0.101,0.024,-0.125,0.076,0.08,-0.017,-0.032,-0.006,-0.035
-0.018,-0.119,-0.101,0.069,0.042,-0.11,0.074,0.081,-0.009,-0.023,-0.013,-0.011
-0.01,-0.108,-0.098,0.059,0.044,-0.103,0.071,0.085,-0.005,-0.019,-0.01,-0.005
-0.006,-0.12,-0.113,0.063,0.053,-0.116,0.07,0.085,0.001,-0.014,-0.006,-0.004
0.009,-0.119,-0.128,0.056,0.069,-0.123,0.069,0.085,0.005,-0.009,-0.003,0.002
0.009,-0.114,-0.123,0.053,0.067,-0.118,0.065,0.085,0.0,-0.006,0.001,-0.012
0.016,-0.109,-0.125,0.047,0.071,-0.117,0.063,0.085,-0.008,0.001,0.005,-0.022
0.01,-0.106,-0.116,0.048,0.064,-0.11,0.06,0.081,-0.016,-0.007,0.0,-0.017
0.027,-0.099,-0.126,0.036,0.077,-0.112,0.057,0.074,-0.024,-0.024,-0.008,-0.014
-0.022,-0.121,-0.099,0.072,0.039,-0.11,0.054,0.071,-0.031,-0.04,-0.014,-0.011
-0.04,-0.137,-0.097,0.089,0.029,-0.117,0.052,0.064,-0.035,-0.045,-0.022,-0.006
0.019,-0.125,-0.145,0.053,0.082,-0.134,0.049,0.059,-0.038,-0.047,-0.03,-0.006
0.014,-0.121,-0.135,0.054,0.075,-0.128,0.046,0.054,-0.04,-0.051,-0.035,-0.017
-0.02,-0.146,-0.126,0.083,0.053,-0.136,0.043,0.044,-0.044,-0.053,-0.035,-0.03
-0.037,-0.157,-0.12,0.097,0.042,-0.138,0.04,0.058,-0.046,-0.056,-0.035,-0.032
-0.035,-0.148,-0.113,0.092,0.039,-0.13,0.039,0.068,-0.045,-0.051,-0.036,-0.03
-0.03,-0.148,-0.118,0.089,0.044,-0.133,0.035,0.064,-0.045,-0.05,-0.035,-0.03
-0.013,-0.142,-0.129,0.077,0.059,-0.136,0.033,0.067,-0.045,-0.05,-0.035,-0.025
-0.011,-0.141,-0.13,0.076,0.06,-0.135,0.029,0.064,-0.044,-0.044,-0.034,-0.025
-0.024,-0.149,-0.125,0.087,0.051,-0.137,0.027,0.066,-0.046,-0.046,-0.036,-0.025
0.01,-0.114,-0.123,0.052,0.067,-0.118,0.024,0.069,-0.042,-0.042,-0.032,-0.009
0.03,-0.061,-0.09,0.016,0.06,-0.075,0.026,0.068,-0.006,-0.013,-0.006,0.001
0.026,-0.039,-0.064,0.007,0.045,-0.051,0.035,0.079,0.032,0.029,0.033,0.027
0.039,-0.027,-0.066,-0.006,0.053,-0.046,0.041,0.084,0.026,0.042,0.046,0.046
0.049,-0.068,-0.117,0.01,0.083,-0.092,0.04,0.072,0.012,0.029,0.035,0.035
0.047,-0.122,-0.169,0.038,0.109,-0.146,0.022,0.069,-0.001,0.015,0.025,0.026
0.036,-0.122,-0.157,0.043,0.097,-0.139,0.017,0.06,-0.014,0.005,0.012,0.014
0.011,-0.124,-0.135,0.056,0.074,-0.129,0.031,0.056,-0.023,-0.004,0.003,0.005
-0.035,-0.143,-0.108,0.089,0.036,-0.125,0.052,0.079,-0.027,-0.017,-0.012,-0.011
-0.001,-0.125,-0.124,0.063,0.062,-0.124,0.058,0.077,-0.021,-0.024,-0.028,-0.016
0.006,-0.166,-0.172,0.08,0.089,-0.169,0.062,0.085,-0.04,-0.044,-0.053,-0.038
-0.021,-0.157,-0.136,0.089,0.058,-0.146,0.063,0.071,-0.039,-0.038,-0.035,-0.033
-0.023,-0.193,-0.17,0.108,0.074,-0.181,0.074,0.105,-0.034,-0.065,-0.069,-0.067
-0.03,-0.248,-0.218,0.139,0.094,-0.233,0.105,0.223,0.123,0.031,-0.061,-0.101
0.178,0.053,-0.126,-0.115,0.152,-0.036,-0.072,0.165,0.439,0.535,0.399,0.242
0.333,0.47,0.138,-0.402,0.097,0.304,-0.494,-0.422,0.213,0.833,0.964,0.776
0.156,0.64,0.484,-0.398,-0.164,0.562,-0.673,-1.108,-0.593,0.147,0.754,0.838
-0.072,0.325,0.396,-0.127,-0.235,0.36,-0.422,-0.994,-0.972,-0.631,0.031,0.383
-0.108,-0.014,0.094,0.061,-0.101,0.04,-0.216,-0.539,-0.671,-0.594,-0.239,0.041
-0.066,-0.044,0.021,0.054,-0.043,-0.011,-0.129,-0.257,-0.315,-0.347,-0.189,-0.039
-0.063,-0.117,-0.054,0.091,-0.005,-0.085,0.009,-0.028,-0.119,-0.19,-0.152,-0.061
-0.042,-0.174,-0.131,0.108,0.045,-0.152,0.059,0.066,-0.033,-0.097,-0.109,-0.051
-0.026,-0.174,-0.148,0.101,0.061,-0.161,0.078,0.096,-0.018,-0.074,-0.105,-0.057
-0.03,-0.194,-0.164,0.112,0.067,-0.178,0.093,0.103,-0.012,-0.047,-0.088,-0.07
-0.028,-0.199,-0.171,0.114,0.072,-0.185,0.088,0.12,-0.008,-0.047,-0.084,-0.077
-0.029,-0.192,-0.164,0.111,0.068,-0.178,0.092,0.129,-0.001,-0.039,-0.079,-0.075
-0.037,-0.188,-0.152,0.113,0.058,-0.17,0.089,0.122,0.004,-0.034,-0.074,-0.071
-0.042,-0.184,-0.143,0.113,0.051,-0.163,0.091,0.127,0.009,-0.029,-0.071,-0.07
-0.039,-0.179,-0.14,0.109,0.05,-0.159,0.086,0.123,0.019,-0.023,-0.064,-0.069
-0.038,-0.174,-0.136,0.106,0.049,-0.155,0.082,0.127,0.025,-0.018,-0.062,-0.065
-0.029,-0.165,-0.135,0.098,0.053,-0.15,0.076,0.139,0.034,-0.011,-0.054,-0.057
-0.031,-0.16,-0.129,0.095,0.049,-0.144,0.073,0.139,0.041,-0.003,-0.05,-0.051
-0.018,-0.151,-0.133,0.085,0.058,-0.142,0.066,0.149,0.048,-0.001,-0.044,-0.044
0.01,-0.136,-0.146,0.063,0.078,-0.141,0.067,0.179,0.075,0.028,-0.037,-0.037
0.008,-0.125,-0.133,0.059,0.07,-0.129,0.084,0.179,0.085,0.049,-0.019,-0.032
0.024,-0.097,-0.121,0.037,0.073,-0.109,0.08,0.198,0.118,0.077,0.008,-0.012
0.013,-0.087,-0.1,0.037,0.057,-0.093,0.072,0.232,0.16,0.116,0.026,0.012
0.046,-0.055,-0.102,0.005,0.074,-0.078,0.067,0.228,0.184,0.144,0.076,0.04
0.097,-0.001,-0.098,-0.048,0.097,-0.049,0.058,0.224,0.222,0.189,0.119,0.072
0.066,0.017,-0.049,-0.042,0.057,-0.016,0.046,0.221,0.238,0.21,0.141,0.088
0.09,0.069,-0.02,-0.079,0.055,0.024,0.031,0.216,0.26,0.238,0.177,0.123
0.097,0.098,0.001,-0.098,0.048,0.049,0.018,0.214,0.277,0.262,0.198,0.154
0.088,0.1,0.012,-0.094,0.038,0.055,0.007,0.205,0.284,0.273,0.229,0.176
0.108,0.128,0.02,-0.118,0.044,0.074,-0.005,0.196,0.283,0.272,0.232,0.182
0.096,0.128,0.031,-0.112,0.032,0.079,-0.013,0.182,0.277,0.263,0.22,0.175
0.102,0.117,0.015,-0.11,0.043,0.066,-0.006,0.169,0.272,0.258,0.217,0.176
0.092,0.094,0.002,-0.093,0.045,0.048,0.001,0.154,0.235,0.219,0.187,0.152
0.068,0.05,-0.018,-0.059,0.043,0.016,0.008,0.151,0.192,0.169,0.141,0.111
0.054,0.001,-0.053,-0.027,0.054,-0.026,0.014,0.136,0.143,0.121,0.088,0.063
0.027,-0.028,-0.055,0.001,0.041,-0.041,0.022,0.095,0.088,0.071,0.044,0.035
0.012,-0.042,-0.054,0.015,0.033,-0.048,0.032,0.079,0.054,0.037,0.018,0.029
0.009,-0.071,-0.081,0.031,0.045,-0.076,0.03,0.071,0.031,0.02,0.006,0.017
0.004,-0.082,-0.087,0.04,0.046,-0.084,0.03,0.062,0.016,0.005,-0.014,0.009
-0.007,-0.09,-0.083,0.049,0.038,-0.086,0.03,0.053,0.013,-0.009,-0.02,0.003
-0.011,-0.091,-0.08,0.051,0.035,-0.085,0.029,0.045,0.009,-0.019,-0.014,-0.005
-0.013,-0.092,-0.08,0.053,0.034,-0.086,0.04,0.057,0.006,-0.02,-0.01,-0.013
-0.02,-0.101,-0.081,0.061,0.03,-0.09,0.046,0.06,0.0,-0.019,-0.021,-0.019
-0.014,-0.092,-0.079,0.053,0.033,-0.085,0.044,0.06,0.003,-0.015,-0.041,-0.015
0.003,-0.097,-0.101,0.047,0.052,-0.099,0.045,0.059,0.02,-0.013,-0.04,-0.015
0.021,-0.091,-0.112,0.035,0.067,-0.102,0.045,0.062,0.021,-0.01,-0.035,-0.014
0.019,-0.09,-0.109,0.036,0.064,-0.099,0.045,0.084,0.017,-0.006,-0.033,-0.009
0.019,-0.092,-0.111,0.037,0.065,-0.101,0.047,0.085,0.015,-0.006,-0.028,-0.012
0.037,-0.073,-0.109,0.018,0.073,-0.091,0.05,0.08,0.011,0.002,-0.025,-0.003
-0.002,-0.113,-0.11,0.057,0.054,-0.111,0.05,0.079,0.01,-0.012,-0.048,0.004
-0.015,-0.125,-0.11,0.07,0.048,-0.117,0.05,0.075,0.005,-0.028,-0.058,-0.009
0.01,-0.1,-0.11,0.045,0.061,-0.105,0.05,0.074,-0.003,-0.024,-0.05,-0.017
0.002,-0.107,-0.109,0.053,0.056,-0.108,0.049,0.066,-0.009,-0.031,-0.051,-0.024
0.013,-0.101,-0.114,0.044,0.063,-0.107,0.046,0.059,-0.017,-0.029,-0.044,-0.038
0.023,-0.098,-0.121,0.038,0.072,-0.109,0.043,0.053,-0.024,-0.035,-0.046,-0.041
0.007,-0.112,-0.119,0.052,0.063,-0.115,0.04,0.044,-0.031,-0.044,-0.047,-0.04
0.0,-0.121,-0.121,0.06,0.061,-0.121,0.037,0.037,-0.035,-0.045,-0.045,-0.04
0.0,-0.115,-0.115,0.058,0.058,-0.115,0.035,0.046,-0.038,-0.045,-0.045,-0.04
-0.014,-0.12,-0.105,0.067,0.046,-0.112,0.033,0.048,-0.04,-0.045,-0.046,-0.041
-0.034,-0.128,-0.095,0.081,0.031,-0.111,0.03,0.041,-0.043,-0.053,-0.05,-0.046
-0.039,-0.126,-0.087,0.083,0.024,-0.106,0.026,0.036,-0.046,-0.056,-0.049,-0.05
-0.001,-0.121,-0.12,0.061,0.06,-0.121,0.025,0.031,-0.04,-0.059,-0.058,-0.045
0.026,-0.122,-0.148,0.048,0.087,-0.135,0.02,0.024,-0.039,-0.068,-0.051,-0.036
0.011,-0.104,-0.115,0.047,0.063,-0.11,0.022,0.034,-0.03,-0.051,-0.038,-0.027
0.013,-0.075,-0.089,0.031,0.052,-0.082,0.04,0.07,-0.012,-0.023,-0.03,-0.019
0.057,-0.008,-0.065,-0.024,0.061,-0.036,0.04,0.079,0.038,0.025,0.015,0.015
0.097,0.044,-0.053,-0.07,0.074,-0.004,0.04,0.07,0.056,0.038,0.028,0.036
0.093,-0.009,-0.102,-0.041,0.097,-0.055,0.04,0.082,0.017,-0.004,-0.008,0.02
0.065,-0.066,-0.131,0.001,0.098,-0.098,0.029,0.068,0.002,0.003,-0.019,0.011
0.049,-0.089,-0.139,0.02,0.094,-0.114,0.027,0.033,-0.023,-0.008,-0.026,-0.001
0.011,-0.105,-0.116,0.047,0.064,-0.11,0.013,0.044,-0.037,-0.042,-0.032,-0.009
-0.042,-0.123,-0.081,0.083,0.02,-0.102,0.037,0.056,-0.034,-0.038,-0.04,-0.021
-0.015,-0.115,-0.101,0.065,0.044,-0.108,0.055,0.043,-0.035,-0.05,-0.054,-0.042
-0.018,-0.152,-0.134,0.085,0.059,-0.143,0.056,0.058,-0.041,-0.064,-0.075,-0.06
-0.034,-0.146,-0.111,0.09,0.039,-0.128,0.048,0.041,-0.038,-0.055,-0.06,-0.05
-0.003,-0.141,-0.138,0.072,0.067,-0.14,0.052,0.065,-0.045,-0.073,-0.08,-0.069
-0.023,-0.229,-0.206,0.126,0.092,-0.217,0.111,0.179,0.038,-0.037,-0.121,-0.124
0.123,-0.013,-0.135,-0.054,0.129,-0.074,-0.016,0.183,0.36,0.37,0.236,0.123
0.348,0.427,0.078,-0.388,0.135,0.252,-0.404,-0.308,0.292,0.765,0.817,0.654
0.185,0.626,0.441,-0.406,-0.128,0.534,-0.673,-1.095,-0.463,0.237,0.741,0.816
-0.089,0.376,0.465,-0.144,-0.278,0.42,-0.472,-1.143,-0.937,-0.58,0.058,0.4
-0.117,0.069,0.186,0.024,-0.152,0.127,-0.22,-0.664,-0.729,-0.65,-0.278,0.023
-0.085,0.005,0.091,0.04,-0.088,0.048,-0.14,-0.356,-0.382,-0.407,-0.219,-0.07
-0.048,-0.055,-0.007,0.051,-0.021,-0.031,-0.024,-0.1,-0.156,-0.231,-0.177,-0.102
-0.041,-0.13,-0.09,0.086,0.025,-0.11,0.023,0.037,-0.053,-0.127,-0.14,-0.099
-0.049,-0.17,-0.12,0.11,0.036,-0.145,0.051,0.063,-0.033,-0.108,-0.125,-0.1
-0.026,-0.155,-0.129,0.091,0.052,-0.142,0.071,0.078,-0.024,-0.083,-0.116,-0.101
-0.032,-0.154,-0.122,0.094,0.045,-0.138,0.072,0.081,-0.023,-0.078,-0.109,-0.099
-0.037,-0.165,-0.127,0.102,0.045,-0.146,0.077,0.079,-0.02,-0.069,-0.103,-0.1
-0.023,-0.147,-0.124,0.086,0.05,-0.135,0.075,0.083,-0.016,-0.063,-0.095,-0.094
-0.022,-0.146,-0.125,0.084,0.052,-0.135,0.082,0.11,-0.015,-0.056,-0.091,-0.093
-0.024,-0.144,-0.12,0.084,0.048,-0.131,0.079,0.118,-0.01,-0.048,-0.086,-0.089
-0.028,-0.145,-0.118,0.087,0.045,-0.131,0.077,0.117,0.0,-0.045,-0.084,-0.087
-0.03,-0.144,-0.115,0.088,0.043,-0.13,0.071,0.124,0.01,-0.036,-0.079,-0.084
-0.034,-0.146,-0.112,0.09,0.04,-0.128,0.066,0.123,0.02,-0.033,-0.076,-0.082
-0.035,-0.143,-0.108,0.089,0.037,-0.125,0.063,0.13,0.029,-0.022,-0.071,-0.074
-0.013,-0.13,-0.117,0.072,0.052,-0.123,0.056,0.133,0.033,-0.011,-0.059,-0.07
0.014,-0.112,-0.126,0.05,0.07,-0.119,0.057,0.138,0.061,0.019,-0.038,-0.063
0.005,-0.12,-0.126,0.058,0.066,-0.123,0.061,0.173,0.097,0.045,-0.018,-0.053
0.015,-0.098,-0.113,0.042,0.065,-0.106,0.056,0.185,0.115,0.066,0.003,-0.03
0.07,-0.012,-0.082,-0.029,0.076,-0.047,0.052,0.183,0.154,0.115,0.046,0.01
0.073,0.024,-0.049,-0.048,0.061,-0.013,0.048,0.198,0.188,0.155,0.081,0.038
0.062,0.044,-0.018,-0.053,0.039,0.013,0.042,0.192,0.211,0.186,0.118,0.07
0.091,0.092,0.001,-0.092,0.045,0.046,0.038,0.182,0.244,0.219,0.157,0.105
0.113,0.125,0.011,-0.119,0.051,0.068,0.017,0.174,0.257,0.233,0.171,0.124
0.115,0.133,0.017,-0.124,0.049,0.075,0.001,0.168,0.265,0.239,0.185,0.14
0.11,0.149,0.039,-0.13,0.035,0.094,0.0,0.164,0.269,0.249,0.201,0.155
0.117,0.176,0.059,-0.147,0.029,0.117,-0.004,0.162,0.26,0.243,0.202,0.167
0.119,0.17,0.05,-0.145,0.034,0.11,-0.006,0.148,0.251,0.231,0.187,0.16
0.095,0.136,0.04,-0.116,0.027,0.088,-0.01,0.118,0.227,0.206,0.168,0.136
0.057,0.081,0.024,-0.069,0.016,0.052,-0.009,0.098,0.183,0.155,0.129,0.103
0.081,0.077,-0.004,-0.079,0.042,0.036,-0.003,0.082,0.14,0.104,0.08,0.064
0.064,0.044,-0.02,-0.054,0.042,0.012,0.002,0.066,0.099,0.062,0.041,0.03
0.0,-0.034,-0.033,0.017,0.017,-0.033,0.009,0.05,0.063,0.033,0.009,-0.001
0.009,-0.034,-0.042,0.013,0.026,-0.038,0.012,0.045,0.044,0.014,-0.011,-0.018
-0.003,-0.036,-0.033,0.02,0.015,-0.034,0.027,0.043,0.027,-0.001,-0.023,-0.025
0.012,-0.041,-0.053,0.014,0.033,-0.047,0.037,0.04,0.019,-0.022,-0.035,-0.033
0.03,-0.039,-0.069,0.005,0.05,-0.053,0.034,0.037,0.02,-0.032,-0.044,-0.041
0.01,-0.053,-0.063,0.022,0.036,-0.058,0.035,0.034,0.02,-0.029,-0.045,-0.048
0.012,-0.054,-0.066,0.021,0.04,-0.06,0.035,0.039,0.02,-0.03,-0.045,-0.05
0.014,-0.05,-0.064,0.018,0.039,-0.057,0.035,0.039,0.02,-0.025,-0.045,-0.05
0.019,-0.046,-0.065,0.014,0.042,-0.055,0.034,0.042,0.019,-0.025,-0.045,-0.054
0.017,-0.043,-0.06,0.013,0.038,-0.051,0.029,0.035,0.012,-0.027,-0.045,-0.055
0.023,-0.038,-0.061,0.007,0.042,-0.049,0.026,0.044,0.006,-0.03,-0.045,-0.055
0.012,-0.046,-0.059,0.017,0.036,-0.052,0.023,0.057,-0.001,-0.034,-0.045,-0.055
0.004,-0.059,-0.063,0.028,0.033,-0.061,0.018,0.047,-0.007,-0.036,-0.045,-0.055
0.012,-0.067,-0.08,0.028,0.046,-0.073,0.015,0.045,-0.014,-0.041,-0.045,-0.055
-0.007,-0.081,-0.074,0.045,0.033,-0.077,0.018,0.04,-0.018,-0.043,-0.045,-0.055
-0.009,-0.077,-0.068,0.043,0.03,-0.072,0.021,0.035,-0.021,-0.046,-0.046,-0.056
-0.005,-0.07,-0.065,0.038,0.03,-0.067,0.025,0.031,-0.024,-0.049,-0.051,-0.052
-0.016,-0.069,-0.053,0.043,0.019,-0.061,0.024,0.029,-0.027,-0.052,-0.054,-0.05
0.011,-0.06,-0.071,0.025,0.041,-0.065,0.02,0.03,-0.039,-0.063,-0.059,-0.05
0.028,-0.063,-0.091,0.017,0.06,-0.077,0.02,0.025,-0.047,-0.066,-0.064,-0.052
0.006,-0.076,-0.083,0.035,0.045,-0.079,0.02,0.026,-0.05,-0.064,-0.067,-0.065
-0.011,-0.086,-0.075,0.049,0.032,-0.08,0.02,0.023,-0.055,-0.066,-0.071,-0.065
-0.016,-0.087,-0.071,0.052,0.028,-0.079,0.02,0.021,-0.059,-0.065,-0.07,-0.065
-0.02,-0.08,-0.06,0.05,0.02,-0.07,0.016,0.018,-0.06,-0.065,-0.07,-0.066
-0.004,-0.068,-0.065,0.036,0.031,-0.066,0.015,0.015,-0.061,-0.07,-0.07,-0.063
-0.006,-0.071,-0.065,0.039,0.03,-0.068,0.015,0.011,-0.064,-0.068,-0.069,-0.072
-0.03,-0.093,-0.064,0.062,0.017,-0.078,0.01,0.01,-0.066,-0.062,-0.071,-0.067
0.014,-0.069,-0.083,0.028,0.049,-0.076,0.01,0.022,-0.061,-0.061,-0.062,-0.061
0.049,-0.013,-0.062,-0.018,0.056,-0.037,0.009,0.027,-0.024,-0.037,-0.045,-0.046
0.072,0.033,-0.039,-0.052,0.055,-0.003,0.003,0.024,0.019,-0.012,-0.009,-0.019
0.066,0.042,-0.024,-0.054,0.045,0.009,-0.003,0.026,0.033,-0.016,0.007,-0.018
0.045,-0.002,-0.048,-0.021,0.046,-0.025,-0.009,0.03,0.015,-0.014,-0.006,-0.012
0.083,-0.026,-0.109,-0.028,0.096,-0.067,-0.013,0.028,-0.021,-0.016,-0.015,-0.01
0.058,-0.038,-0.096,-0.01,0.077,-0.067,-0.023,0.021,-0.049,-0.04,-0.039,-0.027
0.031,-0.058,-0.088,0.014,0.06,-0.073,-0.024,0.019,-0.05,-0.058,-0.045,-0.045
0.029,-0.073,-0.103,0.022,0.066,-0.088,0.013,0.022,-0.05,-0.06,-0.047,-0.065
0.004,-0.08,-0.085,0.038,0.045,-0.082,0.031,0.012,-0.049,-0.066,-0.062,-0.07
-0.014,-0.102,-0.088,0.058,0.037,-0.095,0.042,0.019,-0.059,-0.088,-0.081,-0.087
-0.021,-0.088,-0.067,0.055,0.023,-0.077,0.047,0.013,-0.067,-0.07,-0.067,-0.072
0.0,-0.089,-0.09,0.045,0.045,-0.089,0.045,0.042,-0.065,-0.082,-0.077,-0.078
-0.031,-0.186,-0.155,0.108,0.062,-0.17,0.092,0.119,-0.004,-0.079,-0.13,-0.155
0.081,-0.021,-0.102,-0.03,0.092,-0.062,-0.011,0.151,0.309,0.281,0.164,0.052
0.322,0.395,0.073,-0.359,0.125,0.233,-0.359,-0.254,0.324,0.69,0.733,0.568
0.217,0.65,0.433,-0.434,-0.109,0.541,-0.642,-1.086,-0.377,0.267,0.733,0.77
-0.087,0.46,0.547,-0.187,-0.317,0.503,-0.496,-1.232,-0.9,-0.537,0.094,0.403
-0.142,0.124,0.265,0.009,-0.204,0.195,-0.238,-0.768,-0.771,-0.676,-0.274,0.005
-0.089,0.037,0.126,0.026,-0.108,0.081,-0.175,-0.439,-0.434,-0.44,-0.24,-0.099
-0.083,-0.033,0.05,0.058,-0.066,0.008,-0.057,-0.167,-0.181,-0.256,-0.185,-0.114
-0.031,-0.089,-0.057,0.06,0.013,-0.073,0.025,-0.029,-0.073,-0.15,-0.139,-0.119
-0.026,-0.104,-0.078,0.065,0.026,-0.091,0.036,0.008,-0.046,-0.126,-0.125,-0.116
-0.031,-0.111,-0.08,0.071,0.025,-0.095,0.045,0.042,-0.035,-0.106,-0.117,-0.115
-0.026,-0.108,-0.082,0.067,0.029,-0.094,0.036,0.054,-0.03,-0.101,-0.112,-0.115
-0.024,-0.129,-0.105,0.077,0.04,-0.116,0.043,0.056,-0.026,-0.092,-0.11,-0.116
0.002,-0.114,-0.116,0.056,0.06,-0.115,0.038,0.055,-0.021,-0.086,-0.103,-0.115
-0.017,-0.124,-0.107,0.071,0.045,-0.115,0.043,0.061,-0.017,-0.081,-0.101,-0.114
-0.024,-0.13,-0.105,0.077,0.041,-0.117,0.054,0.059,-0.012,-0.074,-0.094,-0.109
-0.02,-0.12,-0.1,0.07,0.04,-0.11,0.055,0.063,-0.004,-0.071,-0.088,-0.106
-0.02,-0.116,-0.095,0.068,0.038,-0.105,0.055,0.07,0.004,-0.059,-0.081,-0.103
-0.008,-0.1,-0.092,0.054,0.042,-0.095,0.055,0.074,0.013,-0.045,-0.074,-0.098
-0.005,-0.091,-0.087,0.048,0.041,-0.089,0.055,0.081,0.019,-0.032,-0.067,-0.096
0.006,-0.079,-0.085,0.037,0.046,-0.081,0.054,0.091,0.035,-0.019,-0.054,-0.088
0.009,-0.071,-0.08,0.031,0.045,-0.075,0.048,0.111,0.052,0.005,-0.043,-0.073
0.024,-0.053,-0.077,0.015,0.051,-0.065,0.041,0.12,0.069,0.032,-0.024,-0.06
0.05,-0.022,-0.073,-0.014,0.062,-0.047,0.034,0.128,0.102,0.057,0.0,-0.044
0.052,0.001,-0.051,-0.026,0.051,-0.025,0.028,0.137,0.128,0.085,0.023,-0.016
0.062,0.039,-0.023,-0.05,0.043,0.008,0.02,0.135,0.155,0.129,0.067,0.016
0.059,0.062,0.003,-0.06,0.028,0.032,0.01,0.133,0.182,0.162,0.105,0.051
0.1,0.112,0.012,-0.106,0.044,0.061,0.0,0.13,0.207,0.189,0.134,0.082
0.128,0.155,0.028,-0.142,0.05,0.091,-0.011,0.13,0.229,0.223,0.162,0.101
0.125,0.177,0.052,-0.151,0.036,0.114,-0.024,0.126,0.246,0.228,0.179,0.124
0.168,0.216,0.048,-0.192,0.06,0.132,-0.039,0.117,0.252,0.231,0.197,0.142
0.145,0.214,0.068,-0.18,0.038,0.141,-0.042,0.111,0.247,0.238,0.194,0.138
0.11,0.201,0.091,-0.155,0.009,0.146,-0.036,0.103,0.245,0.231,0.181,0.127
0.097,0.169,0.072,-0.133,0.012,0.12,-0.033,0.078,0.225,0.21,0.169,0.113
0.08,0.122,0.041,-0.101,0.019,0.081,-0.027,0.052,0.186,0.169,0.137,0.086
0.062,0.083,0.021,-0.073,0.02,0.052,-0.024,0.036,0.143,0.116,0.087,0.046
0.035,0.051,0.016,-0.043,0.009,0.034,-0.018,0.02,0.099,0.069,0.038,0.006
0.031,0.035,0.003,-0.033,0.014,0.019,-0.012,0.007,0.061,0.031,-0.001,-0.017
0.032,0.015,-0.017,-0.023,0.024,-0.001,-0.007,-0.003,0.026,-0.002,-0.009,-0.034
0.034,0.013,-0.021,-0.024,0.028,-0.004,-0.001,-0.019,0.006,-0.004,-0.017,-0.042
0.031,0.013,-0.019,-0.022,0.025,-0.003,0.003,-0.025,0.005,0.0,-0.045,-0.039
0.011,-0.01,-0.021,0.0,0.016,-0.015,0.013,-0.016,0.005,-0.01,-0.043,-0.04
0.009,-0.009,-0.018,0.0,0.014,-0.013,0.016,-0.008,0.005,-0.015,-0.038,-0.035
0.019,-0.011,-0.03,-0.004,0.025,-0.02,0.012,0.001,0.005,-0.023,-0.037,-0.036
0.011,-0.031,-0.042,0.01,0.027,-0.036,0.01,0.005,0.004,-0.029,-0.03,-0.033
0.009,-0.03,-0.039,0.01,0.024,-0.035,0.006,0.004,-0.001,-0.027,-0.032,-0.042
0.009,-0.03,-0.039,0.01,0.025,-0.035,0.005,0.008,-0.004,-0.024,-0.034,-0.061
0.009,-0.025,-0.034,0.008,0.022,-0.029,0.005,0.01,-0.007,-0.021,-0.038,-0.06
0.011,-0.025,-0.036,0.008,0.024,-0.031,0.005,0.011,-0.012,-0.019,-0.04,-0.06
0.005,-0.027,-0.032,0.011,0.019,-0.029,0.005,-0.001,-0.015,-0.014,-0.044,-0.06
-0.007,-0.039,-0.032,0.023,0.013,-0.035,0.005,-0.013,-0.018,-0.017,-0.045,-0.059
0.027,-0.023,-0.05,-0.002,0.038,-0.036,0.005,-0.008,-0.021,-0.038,-0.049,-0.063
0.057,0.007,-0.05,-0.032,0.053,-0.021,0.006,-0.006,-0.019,-0.046,-0.051,-0.066
0.013,-0.032,-0.045,0.01,0.03,-0.039,0.01,-0.001,-0.025,-0.047,-0.05,-0.069
0.012,-0.032,-0.044,0.01,0.028,-0.038,0.01,0.0,-0.036,-0.051,-0.055,-0.073
0.008,-0.032,-0.039,0.012,0.023,-0.035,0.01,-0.008,-0.035,-0.053,-0.055,-0.075
-0.021,-0.064,-0.043,0.043,0.011,-0.053,0.01,-0.01,-0.035,-0.055,-0.056,-0.075
-0.002,-0.053,-0.051,0.028,0.024,-0.051,0.01,-0.01,-0.035,-0.055,-0.06,-0.075
-0.001,-0.051,-0.05,0.026,0.024,-0.05,0.014,-0.01,-0.035,-0.06,-0.06,-0.075
0.003,-0.047,-0.05,0.022,0.027,-0.048,0.015,-0.011,-0.038,-0.06,-0.061,-0.075
0.01,-0.041,-0.051,0.015,0.031,-0.046,0.016,-0.009,-0.04,-0.06,-0.06,-0.076
0.006,-0.043,-0.049,0.018,0.027,-0.045,0.02,-0.011,-0.043,-0.06,-0.061,-0.073
0.008,-0.047,-0.055,0.02,0.032,-0.051,0.021,-0.024,-0.045,-0.06,-0.055,-0.069
-0.006,-0.057,-0.051,0.032,0.023,-0.054,0.018,-0.022,-0.039,-0.059,-0.047,-0.066
0.018,-0.043,-0.061,0.013,0.039,-0.052,0.015,-0.012,-0.033,-0.061,-0.041,-0.062
0.022,-0.028,-0.05,0.004,0.036,-0.039,0.014,-0.006,-0.025,-0.046,-0.032,-0.061
0.033,0.013,-0.02,-0.022,0.027,-0.004,0.016,0.003,0.006,-0.013,-0.012,-0.035
0.105,0.084,-0.022,-0.094,0.063,0.031,0.013,0.01,0.038,0.0,0.028,-0.003
0.102,0.067,-0.034,-0.084,0.067,0.016,0.017,0.013,0.029,0.005,0.033,-0.009
0.083,0.016,-0.067,-0.049,0.075,-0.026,0.0,0.003,0.016,0.014,0.023,-0.015
0.098,-0.004,-0.103,-0.046,0.1,-0.053,-0.029,-0.002,0.008,0.008,0.01,-0.019
0.057,-0.033,-0.091,-0.012,0.074,-0.062,-0.021,-0.009,-0.01,-0.007,-0.019,-0.033
0.0,-0.059,-0.06,0.03,0.03,-0.059,-0.006,-0.017,-0.02,-0.023,-0.023,-0.05
-0.02,-0.077,-0.056,0.049,0.018,-0.066,0.005,-0.017,-0.036,-0.05,-0.034,-0.066
-0.012,-0.07,-0.058,0.041,0.023,-0.064,0.009,-0.018,-0.056,-0.053,-0.048,-0.068
-0.028,-0.093,-0.065,0.06,0.019,-0.079,0.019,-0.007,-0.063,-0.057,-0.067,-0.081
-0.033,-0.083,-0.051,0.058,0.009,-0.067,0.016,-0.021,-0.058,-0.057,-0.058,-0.073
-0.013,-0.121,-0.109,0.067,0.048,-0.115,0.04,0.042,-0.056,-0.052,-0.098,-0.124
-0.01,-0.136,-0.125,0.073,0.058,-0.13,0.056,0.167,0.123,0.061,-0.04,-0.124
0.224,0.191,-0.033,-0.208,0.128,0.079,-0.15,0.054,0.415,0.535,0.454,0.276
0.342,0.571,0.23,-0.456,0.056,0.4,-0.535,-0.654,0.093,0.655,0.867,0.732
0.033,0.611,0.578,-0.322,-0.273,0.594,-0.644,-1.306,-0.654,-0.101,0.498,0.646
-0.147,0.312,0.459,-0.083,-0.303,0.385,-0.37,-1.058,-0.867,-0.639,-0.105,0.2
-0.142,0.054,0.196,0.043,-0.169,0.125,-0.203,-0.609,-0.59,-0.535,-0.237,-0.061
-0.099,0.016,0.115,0.042,-0.107,0.065,-0.131,-0.32,-0.287,-0.328,-0.177,-0.099
-0.034,-0.038,-0.004,0.036,-0.014,-0.021,-0.017,-0.074,-0.12,-0.18,-0.134,-0.1
-0.032,-0.092,-0.06,0.062,0.014,-0.075,0.019,-0.008,-0.063,-0.121,-0.107,-0.111
-0.032,-0.093,-0.061,0.062,0.015,-0.077,0.043,0.022,-0.036,-0.097,-0.102,-0.118
0.001,-0.088,-0.088,0.044,0.045,-0.088,0.048,0.037,-0.032,-0.082,-0.086,-0.111
0.015,-0.082,-0.097,0.034,0.057,-0.089,0.051,0.049,-0.028,-0.076,-0.086,-0.111
-0.02,-0.106,-0.086,0.063,0.033,-0.096,0.056,0.052,-0.022,-0.066,-0.078,-0.106
-0.03,-0.112,-0.082,0.071,0.026,-0.096,0.058,0.046,-0.019,-0.06,-0.073,-0.105
-0.003,-0.088,-0.085,0.046,0.042,-0.086,0.06,0.064,-0.012,-0.052,-0.067,-0.102
0.01,-0.083,-0.093,0.037,0.052,-0.088,0.052,0.069,-0.008,-0.048,-0.062,-0.099
0.019,-0.074,-0.093,0.027,0.056,-0.083,0.048,0.077,0.0,-0.043,-0.056,-0.1
0.024,-0.066,-0.089,0.021,0.057,-0.077,0.042,0.075,0.003,-0.04,-0.049,-0.095
0.024,-0.06,-0.084,0.018,0.054,-0.071,0.036,0.083,0.012,-0.029,-0.043,-0.095
0.029,-0.049,-0.078,0.01,0.054,-0.063,0.031,0.111,0.023,-0.015,-0.035,-0.094
0.03,-0.041,-0.071,0.006,0.051,-0.056,0.034,0.112,0.039,0.0,-0.03,-0.082
0.036,-0.029,-0.064,-0.003,0.05,-0.046,0.032,0.12,0.072,0.03,-0.014,-0.071
0.031,-0.02,-0.05,-0.005,0.041,-0.035,0.026,0.136,0.086,0.054,0.01,-0.054
0.052,0.004,-0.048,-0.027,0.05,-0.022,0.023,0.157,0.111,0.08,0.035,-0.031
0.074,0.038,-0.037,-0.055,0.055,0.0,0.018,0.176,0.146,0.119,0.065,-0.008
0.08,0.078,-0.003,-0.079,0.041,0.037,0.014,0.173,0.172,0.162,0.109,0.017
0.109,0.13,0.021,-0.119,0.044,0.075,0.003,0.169,0.204,0.196,0.143,0.048
0.103,0.158,0.055,-0.131,0.024,0.106,-0.009,0.166,0.227,0.213,0.165,0.081
0.121,0.175,0.054,-0.149,0.033,0.114,-0.023,0.161,0.241,0.231,0.194,0.102
0.118,0.176,0.058,-0.148,0.03,0.117,-0.039,0.159,0.253,0.241,0.214,0.127
0.125,0.204,0.078,-0.165,0.023,0.141,-0.046,0.147,0.263,0.248,0.224,0.144
0.145,0.227,0.082,-0.186,0.031,0.154,-0.049,0.136,0.256,0.241,0.218,0.135
0.101,0.194,0.093,-0.147,0.003,0.143,-0.051,0.125,0.242,0.222,0.206,0.126
0.085,0.155,0.07,-0.121,0.008,0.113,-0.038,0.115,0.218,0.201,0.186,0.107
0.068,0.118,0.05,-0.093,0.009,0.084,-0.013,0.104,0.173,0.159,0.143,0.072
0.049,0.09,0.042,-0.07,0.003,0.066,0.005,0.083,0.13,0.11,0.1,0.029
0.021,0.05,0.03,-0.036,-0.005,0.04,0.004,0.059,0.087,0.061,0.06,-0.006
-0.006,0.019,0.025,-0.007,-0.016,0.022,-0.008,0.038,0.045,0.02,0.023,-0.029
0.0,0.02,0.02,-0.01,-0.011,0.02,-0.003,0.035,0.031,0.007,0.012,-0.04
-0.002,0.012,0.014,-0.005,-0.008,0.013,0.003,0.035,0.024,0.001,0.008,-0.042
0.003,0.012,0.009,-0.008,-0.003,0.011,0.007,0.035,0.017,-0.006,0.002,-0.053
0.002,0.006,0.003,-0.004,-0.001,0.004,0.014,0.035,0.009,-0.012,-0.003,-0.055
0.009,0.0,-0.009,-0.004,0.009,-0.004,0.018,0.034,0.001,-0.021,-0.01,-0.056
0.023,0.033,0.009,-0.028,0.007,0.021,0.033,0.058,0.023,-0.007,-0.002,-0.06
0.006,0.015,0.008,-0.011,-0.001,0.012,0.032,0.064,0.029,0.008,0.007,-0.06
0.009,-0.004,-0.013,-0.002,0.011,-0.008,0.024,0.052,0.018,0.0,0.004,-0.06
0.032,0.006,-0.026,-0.019,0.028,-0.01,0.018,0.049,0.013,-0.002,0.001,-0.061
0.026,-0.005,-0.03,-0.011,0.028,-0.017,0.011,0.04,0.006,-0.007,-0.002,-0.059
0.026,-0.005,-0.032,-0.01,0.029,-0.018,0.003,0.035,-0.001,-0.019,-0.005,-0.059
0.038,-0.012,-0.049,-0.013,0.044,-0.03,-0.01,0.035,-0.015,-0.022,-0.004,-0.07
0.031,-0.016,-0.047,-0.007,0.04,-0.032,-0.01,0.034,-0.016,-0.019,0.001,-0.07
0.014,-0.027,-0.042,0.007,0.028,-0.035,-0.01,0.03,-0.013,-0.018,-0.001,-0.07
0.02,-0.019,-0.039,-0.001,0.03,-0.029,-0.01,0.03,-0.01,-0.014,-0.004,-0.07
0.033,-0.001,-0.034,-0.015,0.033,-0.017,-0.01,0.028,-0.011,-0.016,-0.017,-0.071
0.007,-0.025,-0.031,0.009,0.019,-0.028,-0.009,0.022,-0.02,-0.033,-0.038,-0.088
-0.01,-0.037,-0.027,0.023,0.009,-0.032,-0.003,0.018,-0.029,-0.037,-0.045,-0.091
-0.008,-0.032,-0.024,0.02,0.008,-0.028,0.002,0.013,-0.053,-0.035,-0.057,-0.09
-0.009,-0.028,-0.019,0.018,0.005,-0.023,0.008,0.009,-0.062,-0.035,-0.061,-0.09
0.009,-0.026,-0.035,0.009,0.022,-0.03,0.014,0.004,-0.059,-0.031,-0.06,-0.09
0.023,-0.019,-0.042,-0.002,0.032,-0.03,0.019,0.0,-0.06,-0.029,-0.057,-0.083
0.015,-0.024,-0.039,0.005,0.027,-0.031,0.017,-0.011,-0.06,-0.034,-0.054,-0.094
-0.006,-0.048,-0.042,0.027,0.018,-0.044,0.01,-0.012,-0.06,-0.039,-0.056,-0.107
-0.003,-0.041,-0.038,0.022,0.017,-0.039,0.005,-0.004,-0.053,-0.029,-0.047,-0.078
0.009,-0.034,-0.043,0.012,0.027,-0.039,0.0,0.005,-0.049,-0.023,-0.041,-0.065
0.007,-0.019,-0.026,0.006,0.017,-0.022,-0.007,0.015,-0.039,-0.013,-0.03,-0.057
0.037,0.013,-0.024,-0.025,0.031,-0.006,-0.008,0.022,-0.027,-0.006,-0.021,-0.049
0.074,0.081,0.008,-0.078,0.033,0.044,-0.006,0.043,0.025,0.026,0.019,-0.033
0.078,0.108,0.03,-0.093,0.024,0.069,-0.004,0.049,0.052,0.045,0.05,-0.015
0.086,0.053,-0.033,-0.069,0.059,0.01,-0.016,0.034,0.009,0.013,0.009,-0.035
0.086,0.022,-0.064,-0.054,0.075,-0.02,-0.036,0.03,-0.012,0.004,-0.006,-0.047
0.09,0.012,-0.079,-0.051,0.084,-0.033,-0.03,0.025,-0.032,0.003,-0.008,-0.045
0.074,0.003,-0.071,-0.038,0.073,-0.034,-0.02,0.021,-0.035,0.001,-0.024,-0.044
0.033,-0.022,-0.056,-0.006,0.045,-0.039,-0.009,0.023,-0.035,-0.014,-0.036,-0.082
0.009,-0.033,-0.042,0.012,0.026,-0.038,0.0,0.012,-0.056,-0.044,-0.049,-0.101
-0.028,-0.075,-0.047,0.052,0.01,-0.06,0.015,0.022,-0.063,-0.04,-0.061,-0.101
-0.029,-0.051,-0.022,0.041,-0.003,-0.037,0.029,-0.002,-0.056,-0.02,-0.058,-0.092
0.011,-0.062,-0.073,0.025,0.042,-0.067,0.032,0.026,-0.067,-0.054,-0.065,-0.116
-0.022,-0.161,-0.139,0.092,0.059,-0.149,0.069,0.151,0.039,-0.017,-0.066,-0.167
0.147,0.088,-0.059,-0.117,0.103,0.015,-0.05,0.168,0.379,0.428,0.289,0.11
0.363,0.499,0.136,-0.431,0.113,0.317,-0.427,-0.329,0.284,0.797,0.844,0.625
0.138,0.673,0.534,-0.406,-0.198,0.603,-0.673,-1.13,-0.44,0.243,0.743,0.766
-0.104,0.446,0.551,-0.171,-0.328,0.498,-0.467,-1.145,-0.876,-0.519,0.086,0.366
-0.153,0.095,0.249,0.029,-0.201,0.172,-0.231,-0.679,-0.719,-0.595,-0.239,-0.011
-0.126,0.038,0.163,0.044,-0.145,0.1,-0.175,-0.381,-0.385,-0.375,-0.201,-0.095
-0.044,0.014,0.058,0.015,-0.051,0.036,-0.057,-0.12,-0.165,-0.206,-0.146,-0.114
-0.044,-0.062,-0.019,0.053,-0.012,-0.04,0.001,-0.014,-0.086,-0.122,-0.111,-0.119
-0.047,-0.087,-0.04,0.067,-0.004,-0.063,0.023,0.024,-0.044,-0.092,-0.094,-0.125
-0.021,-0.09,-0.069,0.055,0.024,-0.079,0.048,0.05,-0.018,-0.065,-0.085,-0.121
-0.007,-0.077,-0.07,0.042,0.032,-0.073,0.044,0.071,-0.015,-0.054,-0.084,-0.114
-0.014,-0.083,-0.07,0.048,0.028,-0.077,0.047,0.091,-0.015,-0.047,-0.081,-0.113
-0.043,-0.114,-0.071,0.079,0.014,-0.092,0.043,0.081,-0.012,-0.046,-0.077,-0.105
-0.027,-0.118,-0.091,0.073,0.032,-0.104,0.046,0.091,-0.009,-0.042,-0.071,-0.103
-0.011,-0.107,-0.097,0.059,0.043,-0.102,0.045,0.09,-0.01,-0.037,-0.064,-0.099
-0.011,-0.105,-0.094,0.058,0.042,-0.099,0.045,0.089,-0.004,-0.035,-0.058,-0.097
-0.003,-0.098,-0.095,0.051,0.046,-0.096,0.041,0.098,0.002,-0.027,-0.051,-0.094
-0.006,-0.095,-0.089,0.051,0.042,-0.091,0.039,0.093,0.01,-0.018,-0.043,-0.091
-0.003,-0.091,-0.087,0.048,0.042,-0.089,0.041,0.101,0.015,-0.004,-0.033,-0.09
0.001,-0.082,-0.083,0.04,0.042,-0.082,0.039,0.127,0.028,0.025,-0.022,-0.083
0.008,-0.072,-0.08,0.032,0.044,-0.076,0.041,0.135,0.049,0.046,-0.013,-0.075
0.042,-0.032,-0.074,-0.005,0.058,-0.053,0.036,0.144,0.071,0.058,0.01,-0.063
0.073,0.017,-0.057,-0.045,0.065,-0.02,0.025,0.162,0.104,0.086,0.041,-0.025
0.061,0.015,-0.046,-0.038,0.053,-0.016,0.013,0.173,0.126,0.134,0.08,0.009
0.076,0.057,-0.019,-0.066,0.047,0.019,0.003,0.175,0.159,0.166,0.117,0.025
0.092,0.105,0.013,-0.098,0.039,0.059,-0.007,0.18,0.195,0.194,0.146,0.052
0.102,0.128,0.026,-0.115,0.038,0.077,-0.019,0.176,0.209,0.234,0.184,0.076
0.116,0.165,0.049,-0.141,0.033,0.107,-0.034,0.167,0.232,0.257,0.213,0.111
0.104,0.164,0.059,-0.134,0.022,0.111,-0.046,0.159,0.242,0.262,0.233,0.139
0.113,0.188,0.075,-0.151,0.019,0.131,-0.046,0.151,0.243,0.254,0.242,0.147
0.111,0.199,0.088,-0.156,0.011,0.143,-0.045,0.143,0.252,0.248,0.246,0.154
0.099,0.183,0.084,-0.142,0.007,0.134,-0.044,0.12,0.243,0.24,0.242,0.145
0.094,0.168,0.074,-0.132,0.01,0.121,-0.04,0.099,0.205,0.224,0.209,0.133
0.088,0.131,0.043,-0.11,0.022,0.087,-0.04,0.09,0.155,0.174,0.159,0.087
0.081,0.104,0.023,-0.093,0.029,0.064,-0.038,0.077,0.11,0.115,0.116,0.039
0.056,0.065,0.01,-0.061,0.023,0.037,-0.032,0.062,0.067,0.085,0.085,0.022
0.038,0.021,-0.017,-0.029,0.027,0.002,-0.028,0.048,0.025,0.055,0.055,-0.022
0.039,0.007,-0.032,-0.023,0.036,-0.012,-0.023,0.035,0.002,0.024,0.031,-0.054
0.033,0.005,-0.028,-0.018,0.03,-0.011,-0.019,0.029,-0.012,-0.001,0.016,-0.055
0.021,-0.001,-0.023,-0.01,0.022,-0.012,-0.014,0.023,-0.032,-0.011,0.014,-0.055
0.019,-0.004,-0.023,-0.007,0.021,-0.013,-0.011,0.02,-0.041,-0.017,0.016,-0.055
0.002,-0.01,-0.013,0.004,0.007,-0.011,-0.006,0.015,-0.04,-0.024,0.015,-0.055
0.009,-0.016,-0.025,0.004,0.017,-0.02,-0.004,0.01,-0.04,-0.021,0.015,-0.054
0.016,-0.036,-0.052,0.01,0.034,-0.044,0.001,0.029,-0.04,-0.017,0.014,-0.05
0.007,-0.036,-0.043,0.015,0.025,-0.039,0.005,0.037,-0.04,-0.014,0.009,-0.05
0.028,0.0,-0.028,-0.014,0.028,-0.014,0.003,0.034,-0.041,-0.011,-0.001,-0.05
0.02,-0.007,-0.027,-0.006,0.023,-0.016,-0.007,0.036,-0.045,-0.008,-0.003,-0.049
0.019,-0.004,-0.023,-0.007,0.021,-0.013,-0.013,0.035,-0.045,-0.004,0.008,-0.054
0.038,0.01,-0.027,-0.024,0.032,-0.008,-0.011,0.034,-0.045,0.0,0.017,-0.055
0.032,-0.014,-0.046,-0.009,0.039,-0.03,-0.009,0.031,-0.045,-0.012,0.016,-0.056
0.025,-0.028,-0.053,0.001,0.039,-0.04,-0.006,0.028,-0.045,-0.027,0.013,-0.059
0.042,-0.005,-0.047,-0.019,0.045,-0.026,-0.001,0.026,-0.049,-0.024,0.01,-0.061
0.034,-0.014,-0.048,-0.009,0.041,-0.031,0.002,0.022,-0.055,-0.026,0.007,-0.058
-0.019,-0.062,-0.042,0.041,0.012,-0.052,0.005,0.02,-0.054,-0.04,0.005,-0.05
-0.017,-0.064,-0.047,0.041,0.015,-0.055,0.01,0.017,-0.061,-0.046,0.002,-0.042
0.009,-0.055,-0.064,0.023,0.037,-0.059,0.007,0.015,-0.08,-0.048,-0.007,-0.031
0.014,-0.05,-0.064,0.018,0.039,-0.056,-0.007,0.015,-0.073,-0.052,-0.016,-0.05
0.004,-0.042,-0.046,0.019,0.025,-0.044,-0.015,0.011,-0.074,-0.054,-0.023,-0.068
0.005,-0.036,-0.041,0.016,0.023,-0.038,-0.029,0.01,-0.11,-0.07,-0.037,-0.064
0.025,-0.037,-0.062,0.006,0.044,-0.049,-0.037,0.01,-0.115,-0.076,-0.041,-0.065
-0.003,-0.064,-0.061,0.034,0.029,-0.062,-0.034,0.006,-0.109,-0.074,-0.04,-0.06
-0.021,-0.074,-0.053,0.048,0.016,-0.063,-0.035,0.004,-0.107,-0.072,-0.036,-0.059
-0.001,-0.065,-0.064,0.034,0.031,-0.064,-0.035,0.01,-0.1,-0.068,-0.034,-0.065
0.007,-0.057,-0.065,0.025,0.036,-0.061,-0.035,0.021,-0.102,-0.072,-0.036,-0.058
0.012,-0.029,-0.041,0.009,0.027,-0.035,-0.039,0.02,-0.074,-0.047,-0.011,-0.042
0.029,0.014,-0.015,-0.021,0.021,0.0,-0.041,0.02,-0.049,-0.019,0.024,-0.032
0.048,0.054,0.006,-0.051,0.02,0.03,-0.045,0.019,-0.049,-0.008,0.047,-0.025
0.054,0.038,-0.017,-0.046,0.036,0.011,-0.047,0.022,-0.053,-0.004,0.045,-0.025
0.069,-0.008,-0.077,-0.03,0.073,-0.042,-0.05,0.031,-0.045,0.007,0.037,-0.025
0.077,-0.013,-0.089,-0.032,0.083,-0.051,-0.055,0.014,-0.055,0.016,0.031,-0.025
0.051,-0.026,-0.077,-0.012,0.064,-0.051,-0.042,-0.023,-0.091,-0.026,0.021,-0.025
0.039,-0.05,-0.089,0.006,0.064,-0.069,-0.02,-0.014,-0.097,-0.054,0.009,-0.027
0.004,-0.08,-0.084,0.039,0.044,-0.082,-0.02,0.001,-0.093,-0.05,-0.005,-0.046
-0.004,-0.083,-0.079,0.044,0.037,-0.08,-0.022,0.001,-0.103,-0.06,-0.02,-0.05
0.022,-0.066,-0.087,0.022,0.055,-0.076,-0.017,0.012,-0.106,-0.059,-0.035,-0.049
-0.015,-0.08,-0.064,0.047,0.025,-0.072,-0.023,0.007,-0.11,-0.068,-0.027,-0.053
-0.029,-0.175,-0.146,0.102,0.059,-0.161,0.035,0.086,-0.103,-0.088,-0.081,-0.12
0.009,-0.139,-0.149,0.065,0.079,-0.144,0.034,0.155,0.127,0.106,0.025,-0.077
0.211,0.23,0.019,-0.22,0.095,0.124,-0.21,-0.02,0.356,0.636,0.606,0.387
0.286,0.625,0.339,-0.456,-0.027,0.482,-0.587,-0.688,-0.108,0.679,1.016,0.848
0.005,0.621,0.616,-0.313,-0.305,0.618,-0.659,-1.215,-0.869,-0.196,0.525,0.672
-0.151,0.236,0.386,-0.042,-0.269,0.311,-0.352,-0.89,-1.005,-0.751,-0.152,0.164
-0.128,0.04,0.168,0.044,-0.148,0.103,-0.213,-0.506,-0.672,-0.574,-0.257,-0.07
-0.099,0.025,0.124,0.037,-0.112,0.074,-0.162,-0.274,-0.338,-0.336,-0.162,-0.094
-0.035,-0.05,-0.015,0.042,-0.009,-0.032,-0.045,-0.05,-0.157,-0.176,-0.109,-0.097
-0.024,-0.106,-0.082,0.066,0.029,-0.094,-0.007,-0.017,-0.116,-0.114,-0.079,-0.09
-0.04,-0.132,-0.092,0.086,0.026,-0.112,0.002,0.039,-0.1,-0.104,-0.065,-0.09
-0.026,-0.115,-0.089,0.07,0.032,-0.101,0.013,0.075,-0.09,-0.091,-0.045,-0.085
-0.031,-0.13,-0.098,0.08,0.034,-0.114,0.038,0.072,-0.08,-0.084,-0.045,-0.084
-0.039,-0.141,-0.102,0.09,0.032,-0.121,0.034,0.078,-0.07,-0.071,-0.036,-0.081
-0.037,-0.134,-0.096,0.086,0.03,-0.114,0.029,0.072,-0.063,-0.064,-0.035,-0.069
-0.032,-0.128,-0.096,0.081,0.032,-0.112,0.028,0.077,-0.057,-0.052,-0.027,-0.083
-0.031,-0.121,-0.09,0.076,0.03,-0.106,0.021,0.074,-0.053,-0.043,-0.027,-0.099
-0.022,-0.113,-0.091,0.067,0.035,-0.102,0.021,0.076,-0.046,-0.034,-0.044,-0.087
-0.032,-0.116,-0.084,0.074,0.026,-0.1,0.015,0.081,-0.042,-0.028,-0.036,-0.077
-0.033,-0.129,-0.096,0.082,0.032,-0.112,0.012,0.077,-0.034,-0.021,-0.027,-0.068
-0.012,-0.118,-0.106,0.065,0.047,-0.111,0.008,0.097,-0.02,-0.013,-0.019,-0.057
-0.013,-0.112,-0.098,0.062,0.043,-0.105,0.004,0.103,-0.004,0.002,-0.003,-0.048
-0.001,-0.097,-0.096,0.049,0.048,-0.096,0.001,0.103,0.018,0.039,0.017,-0.037
0.029,-0.063,-0.091,0.017,0.06,-0.077,-0.004,0.135,0.047,0.063,0.039,-0.019
0.059,-0.028,-0.087,-0.015,0.073,-0.057,-0.017,0.144,0.075,0.089,0.059,0.005
0.046,-0.003,-0.049,-0.021,0.047,-0.026,-0.033,0.142,0.108,0.142,0.11,0.028
0.044,0.035,-0.01,-0.039,0.027,0.012,-0.029,0.137,0.147,0.183,0.156,0.052
0.071,0.069,-0.002,-0.07,0.036,0.033,-0.037,0.128,0.173,0.205,0.183,0.091
0.062,0.086,0.024,-0.074,0.019,0.054,-0.053,0.123,0.192,0.23,0.22,0.13
0.078,0.121,0.044,-0.1,0.017,0.082,-0.057,0.115,0.213,0.25,0.235,0.153
0.106,0.165,0.059,-0.136,0.023,0.112,-0.076,0.11,0.218,0.253,0.255,0.162
0.122,0.192,0.07,-0.157,0.026,0.131,-0.084,0.101,0.207,0.247,0.275,0.159
0.131,0.191,0.06,-0.162,0.035,0.126,-0.083,0.089,0.198,0.247,0.27,0.148
0.114,0.168,0.054,-0.141,0.03,0.111,-0.077,0.078,0.188,0.234,0.261,0.142
0.084,0.133,0.048,-0.109,0.018,0.09,-0.068,0.064,0.154,0.184,0.219,0.125
0.034,0.067,0.034,-0.051,0.0,0.05,-0.063,0.042,0.102,0.132,0.161,0.082
0.019,0.032,0.012,-0.026,0.003,0.022,-0.055,0.024,0.053,0.084,0.113,0.039
0.027,0.029,0.002,-0.028,0.012,0.015,-0.05,0.01,0.01,0.038,0.075,0.008
-0.01,-0.013,-0.004,0.012,-0.003,-0.009,-0.045,-0.002,-0.03,0.015,0.054,-0.002
-0.016,-0.027,-0.011,0.022,-0.002,-0.018,-0.04,-0.006,-0.046,0.004,0.041,-0.012
-0.017,-0.035,-0.018,0.026,0.0,-0.026,-0.033,-0.009,-0.046,-0.008,0.03,-0.022
-0.032,-0.055,-0.023,0.044,-0.004,-0.039,-0.031,-0.013,-0.062,-0.017,0.024,-0.02
-0.027,-0.057,-0.03,0.042,0.001,-0.043,-0.035,-0.015,-0.071,-0.026,0.026,-0.02
0.004,-0.03,-0.035,0.014,0.019,-0.032,-0.037,-0.011,-0.072,-0.033,0.022,-0.012
-0.003,-0.038,-0.035,0.021,0.016,-0.036,-0.04,-0.01,-0.076,-0.031,0.02,-0.029
-0.025,-0.075,-0.05,0.05,0.013,-0.062,-0.043,-0.01,-0.078,-0.026,0.02,-0.048
-0.002,-0.059,-0.057,0.031,0.027,-0.058,-0.046,-0.01,-0.081,-0.024,0.023,-0.041
-0.019,-0.073,-0.054,0.047,0.018,-0.063,-0.041,-0.01,-0.077,-0.019,0.025,-0.039
-0.011,-0.063,-0.052,0.037,0.021,-0.057,-0.04,-0.013,-0.074,-0.015,0.025,-0.035
-0.002,-0.051,-0.049,0.026,0.024,-0.049,-0.04,-0.015,-0.071,-0.017,0.025,-0.03
-0.023,-0.074,-0.051,0.049,0.014,-0.062,-0.035,-0.015,-0.068,-0.026,0.025,-0.03
-0.023,-0.073,-0.049,0.048,0.013,-0.061,-0.036,-0.018,-0.066,-0.034,0.024,-0.03
-0.021,-0.071,-0.05,0.046,0.015,-0.061,-0.034,-0.021,-0.065,-0.029,0.016,-0.03
-0.016,-0.066,-0.05,0.041,0.017,-0.057,-0.038,-0.019,-0.075,-0.037,0.009,-0.042
-0.011,-0.063,-0.052,0.037,0.021,-0.057,-0.054,-0.016,-0.089,-0.051,0.002,-0.051
0.006,-0.06,-0.066,0.027,0.036,-0.063,-0.045,-0.015,-0.092,-0.05,-0.006,-0.049
0.005,-0.066,-0.071,0.03,0.038,-0.068,-0.037,-0.015,-0.094,-0.05,-0.012,-0.05
-0.017,-0.086,-0.069,0.052,0.026,-0.078,-0.041,-0.015,-0.098,-0.048,-0.019,-0.05
-0.021,-0.092,-0.07,0.056,0.025,-0.081,-0.039,-0.014,-0.102,-0.044,-0.02,-0.049
-0.002,-0.071,-0.07,0.036,0.034,-0.07,-0.041,-0.023,-0.108,-0.046,-0.02,-0.053
-0.012,-0.082,-0.07,0.047,0.029,-0.076,-0.039,-0.032,-0.109,-0.051,-0.02,-0.058
-0.043,-0.113,-0.07,0.078,0.014,-0.091,-0.04,-0.026,-0.107,-0.046,-0.02,-0.057
-0.041,-0.111,-0.07,0.076,0.015,-0.09,-0.043,-0.025,-0.102,-0.061,-0.019,-0.051
-0.034,-0.105,-0.071,0.07,0.019,-0.088,-0.046,-0.021,-0.101,-0.078,-0.012,-0.05
-0.041,-0.11,-0.069,0.075,0.014,-0.089,-0.05,-0.019,-0.096,-0.072,-0.006,-0.043
-0.043,-0.114,-0.071,0.079,0.014,-0.093,-0.049,-0.032,-0.097,-0.078,0.002,-0.042
-0.006,-0.056,-0.05,0.031,0.022,-0.053,-0.045,-0.035,-0.088,-0.056,0.006,-0.036
0.029,0.006,-0.023,-0.018,0.026,-0.009,-0.041,-0.025,-0.056,-0.01,0.022,-0.018
0.046,0.033,-0.013,-0.039,0.029,0.01,-0.04,-0.026,-0.048,0.019,0.05,-0.013
0.044,0.042,-0.002,-0.043,0.023,0.02,-0.031,-0.016,-0.053,0.024,0.045,-0.017
0.057,0.012,-0.045,-0.034,0.051,-0.016,-0.055,-0.019,-0.061,0.01,0.035,-0.02
0.077,-0.022,-0.099,-0.027,0.088,-0.06,-0.089,-0.031,-0.078,0.001,0.025,-0.021
0.034,-0.048,-0.082,0.007,0.059,-0.065,-0.074,-0.035,-0.094,-0.012,0.016,-0.028
0.048,-0.017,-0.065,-0.015,0.057,-0.041,-0.063,-0.021,-0.077,-0.017,0.013,-0.016
0.006,-0.059,-0.065,0.027,0.036,-0.062,-0.053,-0.015,-0.079,-0.039,0.008,-0.027
-0.093,-0.14,-0.046,0.117,-0.023,-0.093,-0.047,-0.047,-0.12,-0.08,0.003,-0.079
-0.063,-0.129,-0.066,0.096,0.002,-0.097,-0.034,-0.04,-0.121,-0.083,-0.014,-0.078
-0.029,-0.1,-0.071,0.065,0.021,-0.085,-0.026,-0.056,-0.118,-0.081,-0.013,-0.065
-0.04,-0.162,-0.122,0.101,0.041,-0.142,0.001,0.012,-0.11,-0.095,-0.07,-0.117
-0.012,-0.172,-0.16,0.092,0.074,-0.165,0.007,0.135,0.104,0.065,-0.004,-0.106
0.211,0.171,-0.039,-0.191,0.125,0.066,-0.219,-0.014,0.376,0.597,0.527,0.31
0.318,0.593,0.275,-0.456,0.021,0.434,-0.626,-0.676,0.012,0.774,1.013,0.821
0.047,0.637,0.59,-0.343,-0.272,0.614,-0.736,-1.275,-0.792,-0.053,0.644,0.741
-0.131,0.277,0.408,-0.073,-0.27,0.342,-0.454,-1.011,-1.008,-0.688,-0.051,0.269
-0.09,0.041,0.13,0.024,-0.11,0.085,-0.286,-0.573,-0.665,-0.584,-0.221,-0.073
-0.075,0.021,0.096,0.027,-0.086,0.058,-0.201,-0.314,-0.338,-0.329,-0.168,0.068
-0.071,-0.077,-0.006,0.074,-0.032,-0.042,-0.134,-0.087,-0.169,-0.208,-0.134,0.138
-0.057,-0.14,-0.083,0.099,0.013,-0.111,-0.173,-0.038,-0.14,-0.158,-0.076,-0.05
