-0.049,0.055,0.104,-0.003,-0.077,0.08,0.0,-0.02,-0.055,-0.05,-0.02,0.076
-0.045,0.055,0.1,-0.005,-0.073,0.077,-0.002,-0.021,-0.055,-0.051,-0.023,0.074
-0.041,0.055,0.097,-0.007,-0.069,0.076,-0.008,-0.019,-0.047,-0.048,-0.03,0.077
-0.039,0.054,0.093,-0.008,-0.066,0.074,-0.011,-0.031,-0.057,-0.054,-0.034,0.08
-0.034,0.056,0.09,-0.011,-0.062,0.072,-0.017,-0.051,-0.077,-0.071,-0.031,0.08
-0.03,0.055,0.085,-0.013,-0.058,0.07,-0.02,-0.05,-0.074,-0.07,-0.03,0.129
-0.032,0.055,0.087,-0.012,-0.06,0.071,-0.015,-0.05,-0.075,-0.07,-0.03,0.135
-0.02,0.076,0.096,-0.028,-0.059,0.086,-0.007,-0.05,-0.075,-0.07,-0.03,0.11
-0.02,0.088,0.109,-0.035,-0.065,0.098,-0.002,-0.05,-0.076,-0.071,-0.031,0.106
-0.04,0.088,0.128,-0.024,-0.084,0.108,0.008,-0.047,-0.072,-0.067,-0.028,0.099
-0.029,0.104,0.133,-0.038,-0.081,0.119,0.009,-0.026,-0.058,-0.053,-0.023,0.096
0.003,0.163,0.16,-0.084,-0.079,0.162,0.029,-0.009,-0.059,-0.044,-0.018,0.092
-0.026,0.18,0.206,-0.077,-0.116,0.193,0.057,0.006,-0.06,-0.038,-0.014,0.085
-0.033,0.187,0.22,-0.078,-0.126,0.203,0.041,0.012,-0.06,-0.032,-0.009,0.088
-0.012,0.235,0.247,-0.112,-0.129,0.241,0.024,-0.002,-0.059,-0.03,-0.006,0.105
0.0,0.237,0.237,-0.119,-0.119,0.237,-0.009,-0.009,-0.063,-0.026,-0.005,0.103
0.011,0.23,0.219,-0.121,-0.104,0.224,-0.036,-0.027,-0.082,-0.025,-0.005,0.096
-0.012,0.19,0.202,-0.089,-0.107,0.196,-0.039,-0.044,-0.103,-0.043,-0.009,0.088
-0.034,0.143,0.177,-0.054,-0.106,0.16,-0.04,-0.061,-0.131,-0.062,-0.027,0.085
-0.064,0.118,0.182,-0.027,-0.123,0.15,-0.04,-0.058,-0.132,-0.071,-0.051,0.058
-0.074,0.113,0.187,-0.02,-0.131,0.15,-0.04,-0.075,-0.152,-0.092,-0.066,0.008
-0.074,0.104,0.178,-0.015,-0.126,0.14,-0.041,-0.068,-0.165,-0.104,-0.074,-0.011
-0.074,0.103,0.177,-0.015,-0.126,0.14,-0.039,-0.065,-0.165,-0.11,-0.077,-0.011
-0.085,0.094,0.179,-0.005,-0.133,0.137,-0.042,-0.073,-0.171,-0.112,-0.088,-0.024
-0.08,0.087,0.167,-0.004,-0.124,0.127,-0.041,-0.047,-0.168,-0.106,-0.084,-0.024
-0.094,0.153,0.246,-0.03,-0.17,0.199,0.084,0.054,-0.138,-0.104,-0.09,-0.029
0.003,0.295,0.292,-0.15,-0.145,0.293,0.305,0.698,0.163,0.103,0.032,0.049
0.236,0.798,0.562,-0.517,-0.163,0.68,0.367,0.769,0.691,0.637,0.521,0.476
0.369,1.037,0.669,-0.703,-0.15,0.853,-0.002,-0.175,1.056,1.118,0.966,0.909
0.22,0.552,0.333,-0.386,-0.057,0.442,-0.461,-0.847,0.54,0.706,0.637,0.667
-0.113,0.105,0.219,0.004,-0.166,0.162,-0.466,-0.97,-0.349,-0.141,-0.044,0.078
-0.162,-0.109,0.053,0.135,-0.107,-0.028,-0.342,-0.624,-0.545,-0.358,-0.239,-0.122
-0.085,-0.082,0.003,0.083,-0.043,-0.039,-0.202,-0.279,-0.423,-0.281,-0.196,-0.074
-0.063,0.061,0.125,0.001,-0.094,0.093,-0.038,-0.098,-0.279,-0.194,-0.154,-0.048
-0.042,0.105,0.147,-0.032,-0.094,0.126,-0.03,-0.025,-0.214,-0.151,-0.111,-0.032
-0.042,0.133,0.175,-0.045,-0.109,0.154,-0.017,-0.027,-0.196,-0.147,-0.118,-0.027
-0.048,0.119,0.167,-0.036,-0.108,0.143,-0.009,-0.004,-0.17,-0.12,-0.109,-0.017
-0.069,0.132,0.202,-0.032,-0.135,0.167,-0.008,-0.015,-0.179,-0.12,-0.109,-0.016
-0.047,0.154,0.202,-0.054,-0.125,0.178,-0.001,-0.002,-0.162,-0.106,-0.105,-0.009
-0.045,0.151,0.196,-0.053,-0.121,0.173,-0.001,-0.003,-0.164,-0.104,-0.103,-0.006
-0.037,0.167,0.205,-0.065,-0.122,0.185,0.006,0.002,-0.152,-0.095,-0.099,0.0
-0.016,0.178,0.194,-0.081,-0.105,0.186,0.007,0.01,-0.142,-0.089,-0.091,0.008
-0.024,0.182,0.206,-0.079,-0.115,0.193,0.011,0.02,-0.13,-0.084,-0.088,0.016
-0.031,0.196,0.227,-0.082,-0.13,0.211,0.01,0.03,-0.119,-0.075,-0.079,0.024
-0.019,0.218,0.237,-0.1,-0.128,0.228,0.015,0.04,-0.11,-0.066,-0.071,0.031
-0.023,0.213,0.236,-0.095,-0.13,0.224,0.019,0.05,-0.1,-0.053,-0.059,0.045
-0.029,0.217,0.246,-0.094,-0.138,0.231,0.024,0.07,-0.084,-0.04,-0.051,0.053
-0.03,0.239,0.269,-0.105,-0.15,0.254,0.028,0.113,-0.051,-0.013,-0.032,0.08
-0.009,0.262,0.271,-0.126,-0.14,0.266,0.039,0.157,-0.029,0.017,0.003,0.097
0.021,0.285,0.265,-0.153,-0.122,0.275,0.047,0.205,0.006,0.048,0.029,0.112
0.021,0.313,0.292,-0.167,-0.135,0.302,0.044,0.261,0.059,0.089,0.056,0.154
0.069,0.362,0.293,-0.216,-0.112,0.327,0.046,0.296,0.095,0.132,0.094,0.185
0.083,0.388,0.305,-0.236,-0.111,0.346,0.044,0.291,0.121,0.168,0.131,0.2
0.063,0.389,0.326,-0.226,-0.132,0.357,0.046,0.276,0.125,0.178,0.143,0.206
0.071,0.38,0.309,-0.226,-0.119,0.344,0.047,0.265,0.11,0.169,0.133,0.219
0.071,0.368,0.297,-0.219,-0.114,0.333,0.059,0.239,0.094,0.151,0.119,0.226
0.062,0.35,0.288,-0.206,-0.113,0.319,0.068,0.189,0.055,0.106,0.09,0.225
0.026,0.299,0.272,-0.163,-0.123,0.285,0.074,0.136,0.017,0.06,0.051,0.19
-0.002,0.254,0.256,-0.126,-0.129,0.255,0.087,0.09,-0.016,0.021,0.01,0.133
-0.025,0.216,0.241,-0.096,-0.133,0.229,0.075,0.051,-0.054,-0.01,-0.03,0.096
-0.055,0.173,0.228,-0.06,-0.141,0.2,0.059,0.028,-0.073,-0.039,-0.058,0.06
-0.067,0.152,0.219,-0.043,-0.143,0.185,0.043,0.012,-0.083,-0.053,-0.064,0.043
-0.066,0.146,0.212,-0.04,-0.14,0.179,0.03,-0.003,-0.099,-0.061,-0.069,0.038
-0.068,0.138,0.206,-0.036,-0.137,0.172,0.03,-0.012,-0.102,-0.075,-0.085,0.03
-0.067,0.132,0.199,-0.033,-0.133,0.165,0.03,-0.02,-0.099,-0.073,-0.085,0.025
-0.071,0.122,0.193,-0.025,-0.132,0.157,0.03,-0.029,-0.097,-0.069,-0.081,0.017
-0.059,0.129,0.187,-0.035,-0.123,0.158,0.03,-0.024,-0.093,-0.066,-0.079,0.013
-0.031,0.146,0.177,-0.058,-0.104,0.161,0.031,-0.015,-0.092,-0.061,-0.075,0.006
-0.053,0.14,0.192,-0.044,-0.123,0.166,0.035,-0.007,-0.088,-0.059,-0.074,-0.001
-0.072,0.135,0.207,-0.032,-0.14,0.171,0.035,0.003,-0.087,-0.054,-0.069,-0.007
-0.068,0.133,0.201,-0.032,-0.135,0.167,0.035,0.015,-0.082,-0.051,-0.066,-0.015
-0.075,0.123,0.198,-0.024,-0.137,0.16,0.035,0.028,-0.082,-0.048,-0.063,-0.019
-0.06,0.135,0.195,-0.038,-0.128,0.165,0.031,0.034,-0.072,-0.043,-0.058,-0.016
-0.038,0.15,0.188,-0.056,-0.113,0.169,0.03,0.03,-0.037,-0.04,-0.055,-0.011
-0.051,0.143,0.195,-0.046,-0.123,0.169,0.03,0.025,-0.028,-0.044,-0.055,-0.009
-0.077,0.138,0.215,-0.031,-0.146,0.176,0.025,0.021,-0.031,-0.045,-0.055,-0.005
-0.081,0.134,0.215,-0.027,-0.149,0.174,0.025,0.017,-0.029,-0.045,-0.055,0.0
-0.09,0.125,0.214,-0.018,-0.152,0.169,0.024,0.011,-0.032,-0.045,-0.055,-0.002
-0.083,0.133,0.215,-0.025,-0.149,0.174,0.019,0.0,-0.04,-0.045,-0.055,-0.009
-0.068,0.146,0.215,-0.04,-0.142,0.18,0.014,-0.012,-0.044,-0.045,-0.056,-0.014
-0.072,0.141,0.213,-0.035,-0.143,0.177,0.009,-0.022,-0.048,-0.044,-0.061,-0.019
-0.067,0.139,0.205,-0.036,-0.136,0.172,0.005,-0.038,-0.065,-0.054,-0.065,-0.025
-0.065,0.134,0.199,-0.035,-0.133,0.166,0.0,-0.05,-0.075,-0.065,-0.068,-0.029
-0.062,0.13,0.192,-0.035,-0.127,0.161,-0.004,-0.052,-0.075,-0.065,-0.073,-0.026
-0.058,0.128,0.186,-0.035,-0.122,0.157,-0.007,-0.054,-0.075,-0.064,-0.074,-0.021
-0.057,0.124,0.18,-0.034,-0.119,0.152,-0.011,-0.058,-0.078,-0.069,-0.07,-0.019
-0.057,0.127,0.184,-0.035,-0.121,0.156,-0.014,-0.064,-0.082,-0.071,-0.067,-0.015
-0.054,0.133,0.187,-0.04,-0.121,0.16,-0.02,-0.059,-0.078,-0.071,-0.065,-0.011
-0.053,0.138,0.191,-0.042,-0.122,0.164,-0.018,-0.05,-0.074,-0.066,-0.061,-0.007
-0.064,0.13,0.194,-0.033,-0.13,0.162,-0.008,-0.045,-0.072,-0.065,-0.06,0.002
-0.034,0.163,0.197,-0.065,-0.116,0.18,0.016,-0.033,-0.063,-0.06,-0.053,0.013
-0.036,0.197,0.232,-0.081,-0.134,0.214,0.052,-0.012,-0.043,-0.033,-0.038,0.021
-0.054,0.199,0.253,-0.072,-0.154,0.225,0.045,0.001,-0.022,-0.019,-0.026,0.043
-0.028,0.217,0.245,-0.095,-0.137,0.23,0.027,-0.001,-0.013,-0.02,-0.016,0.056
-0.025,0.21,0.235,-0.093,-0.13,0.222,0.012,-0.002,0.01,-0.02,-0.014,0.071
-0.018,0.206,0.224,-0.094,-0.122,0.215,-0.006,-0.022,0.019,-0.02,-0.004,0.076
-0.02,0.182,0.203,-0.081,-0.112,0.192,-0.014,-0.043,-0.023,-0.023,-0.017,0.07
-0.045,0.136,0.181,-0.046,-0.114,0.158,-0.023,-0.063,-0.058,-0.044,-0.042,0.096
-0.078,0.093,0.171,-0.008,-0.125,0.132,-0.021,-0.075,-0.067,-0.063,-0.054,0.076
-0.093,0.058,0.15,0.017,-0.122,0.104,-0.02,-0.063,-0.076,-0.066,-0.068,0.041
-0.092,0.056,0.148,0.017,-0.12,0.102,-0.014,-0.08,-0.084,-0.074,-0.07,0.027
-0.072,0.05,0.122,0.011,-0.097,0.085,-0.015,-0.071,-0.075,-0.07,-0.071,0.014
-0.077,0.063,0.14,0.007,-0.109,0.102,-0.008,-0.099,-0.087,-0.081,-0.068,0.01
-0.062,0.051,0.113,0.005,-0.087,0.081,-0.011,-0.07,-0.071,-0.076,-0.075,-0.005
-0.071,0.072,0.143,-0.001,-0.107,0.107,0.016,-0.063,-0.096,-0.087,-0.075,-0.024
-0.109,0.117,0.226,-0.005,-0.168,0.171,0.205,0.294,0.019,-0.035,-0.053,-0.025
0.075,0.424,0.348,-0.25,-0.137,0.386,0.436,0.88,0.463,0.328,0.208,0.203
0.285,0.954,0.669,-0.62,-0.192,0.811,0.311,0.357,1.018,0.958,0.79,0.71
0.315,0.814,0.5,-0.565,-0.093,0.657,-0.263,-0.558,1.078,1.125,0.945,0.874
0.028,0.249,0.221,-0.139,-0.097,0.235,-0.532,-0.957,0.181,0.326,0.322,0.362
-0.216,-0.078,0.137,0.147,-0.176,0.03,-0.392,-0.849,-0.465,-0.298,-0.175,-0.104
-0.148,-0.182,-0.034,0.166,-0.057,-0.108,-0.279,-0.425,-0.418,-0.293,-0.198,-0.143
-0.133,-0.087,0.046,0.11,-0.089,-0.021,-0.095,-0.173,-0.289,-0.23,-0.145,-0.106
-0.095,0.012,0.107,0.041,-0.101,0.059,-0.006,-0.034,-0.154,-0.14,-0.094,-0.093
-0.079,0.047,0.127,0.016,-0.103,0.087,-0.001,-0.02,-0.132,-0.117,-0.084,-0.085
-0.085,0.063,0.148,0.011,-0.116,0.105,0.018,-0.009,-0.11,-0.106,-0.077,-0.081
-0.074,0.06,0.134,0.007,-0.104,0.097,0.012,0.001,-0.106,-0.093,-0.062,-0.071
-0.077,0.067,0.144,0.005,-0.111,0.105,0.023,-0.002,-0.104,-0.088,-0.062,-0.068
-0.072,0.067,0.139,0.002,-0.105,0.103,0.018,0.013,-0.09,-0.074,-0.056,-0.06
-0.084,0.077,0.161,0.003,-0.123,0.119,0.021,0.011,-0.081,-0.073,-0.056,-0.055
-0.073,0.087,0.159,-0.007,-0.116,0.123,0.02,0.021,-0.063,-0.062,-0.05,-0.05
-0.084,0.076,0.16,0.004,-0.123,0.118,0.02,0.02,-0.059,-0.059,-0.051,-0.044
-0.051,0.109,0.16,-0.029,-0.106,0.134,0.02,0.03,-0.051,-0.047,-0.043,-0.039
-0.017,0.143,0.16,-0.063,-0.088,0.152,0.02,0.039,-0.047,-0.033,-0.028,-0.033
-0.015,0.143,0.159,-0.064,-0.087,0.151,0.02,0.054,-0.037,-0.02,-0.015,-0.026
-0.006,0.148,0.155,-0.072,-0.081,0.151,0.021,0.075,-0.017,-0.013,-0.005,-0.014
0.0,0.153,0.153,-0.077,-0.077,0.153,0.038,0.108,0.013,0.001,0.005,-0.004
0.013,0.16,0.147,-0.087,-0.067,0.154,0.046,0.151,0.035,0.027,0.02,0.011
-0.008,0.18,0.188,-0.086,-0.099,0.184,0.056,0.207,0.071,0.064,0.046,0.044
0.008,0.218,0.209,-0.114,-0.101,0.213,0.066,0.268,0.117,0.102,0.086,0.073
0.039,0.243,0.203,-0.142,-0.082,0.223,0.065,0.305,0.149,0.143,0.124,0.108
0.052,0.264,0.212,-0.158,-0.08,0.238,0.065,0.314,0.178,0.177,0.161,0.14
0.094,0.302,0.208,-0.198,-0.057,0.255,0.065,0.303,0.185,0.197,0.177,0.158
0.106,0.312,0.206,-0.21,-0.05,0.258,0.065,0.288,0.17,0.196,0.17,0.166
0.1,0.3,0.2,-0.2,-0.05,0.25,0.066,0.257,0.154,0.17,0.165,0.166
0.071,0.268,0.197,-0.17,-0.063,0.232,0.076,0.212,0.121,0.137,0.14,0.151
0.017,0.208,0.191,-0.113,-0.087,0.2,0.081,0.163,0.08,0.093,0.09,0.119
-0.003,0.173,0.176,-0.086,-0.09,0.175,0.075,0.116,0.05,0.05,0.044,0.105
-0.027,0.137,0.164,-0.055,-0.095,0.15,0.072,0.074,0.019,0.011,0.009,0.1
-0.055,0.095,0.15,-0.02,-0.102,0.122,0.066,0.042,-0.008,-0.011,-0.014,0.083
-0.068,0.069,0.136,-0.001,-0.102,0.102,0.063,0.023,-0.025,-0.023,-0.029,0.058
-0.068,0.054,0.121,0.007,-0.095,0.087,0.058,0.019,-0.041,-0.039,-0.044,0.04
-0.053,0.056,0.108,-0.002,-0.081,0.082,0.052,0.02,-0.041,-0.04,-0.046,0.026
-0.055,0.055,0.11,0.0,-0.083,0.082,0.049,0.02,-0.04,-0.04,-0.04,0.019
-0.06,0.055,0.114,0.002,-0.087,0.084,0.043,0.02,-0.039,-0.038,-0.035,0.02
-0.064,0.056,0.119,0.004,-0.092,0.087,0.04,0.021,-0.034,-0.034,-0.029,0.02
-0.065,0.052,0.118,0.006,-0.092,0.084,0.04,0.018,-0.036,-0.036,-0.024,0.02
-0.063,0.05,0.113,0.006,-0.088,0.081,0.04,0.014,-0.033,-0.031,-0.019,0.02
-0.06,0.047,0.107,0.006,-0.084,0.077,0.039,0.034,-0.026,-0.03,-0.014,0.019
-0.06,0.044,0.104,0.008,-0.082,0.074,0.043,0.046,-0.021,-0.03,-0.011,-0.008
-0.058,0.042,0.099,0.008,-0.078,0.07,0.051,0.047,-0.016,-0.026,-0.008,-0.03
-0.054,0.037,0.091,0.008,-0.072,0.064,0.058,0.052,-0.009,-0.025,-0.004,-0.031
-0.064,0.051,0.115,0.006,-0.09,0.083,0.058,0.049,-0.006,-0.026,0.0,-0.034
-0.062,0.067,0.129,-0.003,-0.096,0.098,0.052,0.05,-0.009,-0.03,-0.004,-0.037
-0.054,0.061,0.115,-0.004,-0.085,0.088,0.048,0.05,-0.012,-0.03,-0.005,-0.039
-0.055,0.056,0.111,-0.001,-0.083,0.083,0.044,0.05,-0.014,-0.033,-0.005,-0.042
-0.049,0.053,0.103,-0.002,-0.076,0.078,0.039,0.048,-0.018,-0.035,-0.01,-0.045
-0.047,0.046,0.093,0.0,-0.07,0.069,0.034,0.041,-0.02,-0.035,-0.01,-0.045
-0.066,0.046,0.112,0.01,-0.09,0.079,0.03,0.036,-0.02,-0.038,-0.01,-0.047
-0.065,0.058,0.123,0.003,-0.094,0.091,0.027,0.03,-0.02,-0.041,-0.01,-0.051
-0.053,0.055,0.108,-0.001,-0.081,0.082,0.023,0.025,-0.02,-0.044,-0.01,-0.049
-0.072,0.047,0.119,0.013,-0.096,0.082,0.02,0.02,-0.035,-0.047,-0.01,-0.047
-0.08,0.042,0.122,0.019,-0.101,0.081,0.014,0.017,-0.042,-0.05,-0.01,-0.044
-0.079,0.034,0.113,0.023,-0.096,0.073,0.019,0.014,-0.038,-0.049,-0.01,-0.041
-0.073,0.029,0.102,0.022,-0.088,0.065,0.032,0.009,-0.042,-0.044,-0.006,-0.038
-0.081,0.024,0.105,0.028,-0.094,0.065,0.028,0.006,-0.041,-0.041,-0.005,-0.035
-0.089,0.021,0.109,0.034,-0.099,0.065,0.022,0.003,-0.04,-0.038,-0.005,-0.035
-0.076,0.018,0.094,0.029,-0.085,0.056,0.019,-0.001,-0.04,-0.033,-0.005,-0.035
-0.083,0.013,0.097,0.035,-0.09,0.055,0.013,-0.003,-0.037,-0.03,-0.005,-0.035
-0.064,0.01,0.074,0.027,-0.069,0.042,0.011,-0.006,-0.034,-0.034,-0.006,-0.035
-0.063,0.014,0.076,0.024,-0.07,0.045,0.014,-0.009,-0.035,-0.036,-0.01,-0.035
-0.08,0.021,0.101,0.029,-0.091,0.06,0.019,-0.011,-0.042,-0.035,-0.01,-0.035
-0.067,0.025,0.092,0.02,-0.08,0.058,0.018,-0.014,-0.046,-0.033,-0.012,-0.031
-0.064,0.032,0.096,0.015,-0.08,0.064,0.014,-0.017,-0.044,-0.029,-0.016,-0.03
-0.061,0.034,0.095,0.013,-0.078,0.064,0.015,-0.02,-0.046,-0.03,-0.015,-0.03
-0.067,0.028,0.095,0.019,-0.081,0.061,0.011,-0.018,-0.049,-0.038,-0.012,-0.026
-0.073,0.023,0.096,0.025,-0.085,0.059,0.009,-0.013,-0.05,-0.041,-0.007,-0.024
-0.077,0.017,0.094,0.029,-0.086,0.055,0.011,-0.01,-0.053,-0.04,-0.004,-0.027
-0.084,0.012,0.096,0.036,-0.09,0.053,0.014,-0.007,-0.056,-0.038,-0.001,-0.03
-0.089,0.005,0.094,0.041,-0.092,0.05,0.019,-0.002,-0.052,-0.034,0.004,-0.031
-0.082,0.012,0.094,0.035,-0.088,0.052,0.018,0.001,-0.05,-0.035,0.004,-0.034
-0.066,0.023,0.088,0.022,-0.077,0.055,0.015,-0.012,-0.05,-0.04,0.0,-0.036
-0.071,0.02,0.091,0.025,-0.081,0.056,0.015,-0.017,-0.046,-0.04,-0.002,-0.031
-0.069,0.02,0.089,0.025,-0.079,0.054,0.011,-0.014,-0.045,-0.04,-0.005,-0.03
-0.072,0.02,0.093,0.026,-0.082,0.056,0.009,-0.016,-0.045,-0.037,-0.008,-0.03
-0.094,0.02,0.114,0.037,-0.104,0.066,0.011,-0.014,-0.04,-0.035,-0.011,-0.025
-0.091,0.021,0.111,0.035,-0.101,0.066,0.014,-0.016,-0.04,-0.035,-0.006,-0.026
-0.093,0.023,0.116,0.035,-0.105,0.069,0.019,-0.012,-0.039,-0.032,-0.005,-0.023
-0.093,0.026,0.119,0.033,-0.107,0.072,0.02,-0.01,-0.035,-0.029,-0.005,-0.017
-0.092,0.023,0.116,0.034,-0.105,0.069,0.02,-0.01,-0.036,-0.027,0.0,0.006
-0.078,0.026,0.104,0.025,-0.091,0.065,0.02,-0.009,-0.032,-0.023,-0.001,0.041
-0.045,0.023,0.069,0.011,-0.058,0.046,0.02,-0.011,-0.02,-0.021,0.002,0.046
-0.053,0.031,0.085,0.011,-0.069,0.058,0.038,0.014,-0.007,-0.019,0.014,0.044
-0.052,0.075,0.127,-0.011,-0.09,0.1,0.077,0.049,-0.001,-0.01,0.03,0.043
-0.062,0.093,0.154,-0.016,-0.108,0.124,0.092,0.058,0.002,0.0,0.038,0.039
-0.064,0.107,0.17,-0.022,-0.117,0.138,0.076,0.047,0.005,0.011,0.042,0.04
-0.05,0.112,0.161,-0.032,-0.106,0.136,0.06,0.041,0.008,0.011,0.052,0.048
-0.056,0.101,0.157,-0.023,-0.107,0.129,0.034,0.03,0.011,0.002,0.048,0.051
-0.031,0.094,0.125,-0.031,-0.078,0.109,0.016,0.02,0.006,-0.006,0.041,0.04
-0.024,0.049,0.073,-0.013,-0.049,0.061,0.014,0.011,-0.005,-0.013,0.033,0.029
-0.072,0.01,0.082,0.031,-0.077,0.045,0.016,-0.007,-0.019,-0.02,0.015,0.015
-0.103,-0.016,0.086,0.059,-0.094,0.035,0.013,-0.006,-0.035,-0.031,0.0,-0.012
-0.118,-0.037,0.081,0.078,-0.099,0.021,0.017,-0.032,-0.055,-0.049,-0.009,-0.044
-0.118,-0.057,0.061,0.087,-0.089,0.002,0.012,-0.021,-0.037,-0.045,-0.017,-0.054
-0.121,-0.042,0.079,0.082,-0.1,0.018,0.012,-0.043,-0.04,-0.053,-0.021,-0.044
-0.125,-0.059,0.066,0.091,-0.095,0.003,0.008,-0.009,-0.02,-0.057,-0.033,-0.048
-0.107,-0.027,0.081,0.066,-0.093,0.027,0.034,-0.023,-0.02,-0.036,-0.035,-0.053
-0.104,0.048,0.152,0.028,-0.128,0.1,0.22,0.258,0.056,-0.009,-0.017,-0.064
0.03,0.264,0.234,-0.147,-0.103,0.249,0.477,0.851,0.439,0.253,0.196,0.087
0.269,0.824,0.555,-0.547,-0.143,0.689,0.355,0.377,0.981,0.863,0.757,0.601
0.409,0.829,0.419,-0.619,-0.006,0.624,-0.326,-0.486,1.199,1.195,1.056,0.91
0.171,0.209,0.038,-0.19,0.066,0.123,-0.638,-0.897,0.383,0.488,0.504,0.477
-0.158,-0.211,-0.053,0.185,-0.052,-0.132,-0.414,-0.864,-0.407,-0.278,-0.103,-0.059
-0.143,-0.311,-0.168,0.228,0.012,-0.239,-0.249,-0.376,-0.327,-0.279,-0.145,-0.137
-0.09,-0.173,-0.083,0.132,-0.003,-0.128,-0.041,-0.103,-0.17,-0.175,-0.082,-0.086
-0.077,-0.091,-0.014,0.084,-0.031,-0.052,0.044,0.009,-0.069,-0.117,-0.049,-0.076
-0.064,-0.073,-0.009,0.069,-0.028,-0.04,0.043,0.041,-0.035,-0.086,-0.029,-0.058
-0.065,-0.045,0.019,0.055,-0.042,-0.013,0.062,0.051,-0.019,-0.071,-0.032,-0.053
-0.061,-0.047,0.014,0.054,-0.037,-0.016,0.066,0.07,0.0,-0.053,-0.022,-0.045
-0.075,-0.036,0.038,0.055,-0.056,0.001,0.086,0.062,0.0,-0.055,-0.022,-0.042
-0.068,-0.036,0.032,0.052,-0.05,-0.002,0.076,0.073,0.019,-0.041,-0.014,-0.037
-0.061,-0.029,0.032,0.045,-0.046,0.001,0.082,0.07,0.022,-0.039,-0.011,-0.033
-0.054,-0.026,0.029,0.04,-0.041,0.001,0.079,0.08,0.034,-0.03,-0.002,-0.028
-0.046,-0.021,0.024,0.033,-0.035,0.001,0.08,0.089,0.042,-0.026,0.006,-0.015
-0.04,-0.014,0.026,0.026,-0.033,0.006,0.08,0.102,0.049,-0.016,0.014,-0.001
-0.058,-0.008,0.051,0.033,-0.054,0.021,0.083,0.114,0.062,-0.007,0.021,0.011
-0.057,-0.001,0.057,0.028,-0.057,0.028,0.102,0.138,0.081,0.001,0.03,0.024
-0.048,0.006,0.054,0.02,-0.051,0.03,0.105,0.163,0.095,0.016,0.035,0.035
-0.034,0.022,0.056,0.006,-0.045,0.039,0.112,0.192,0.115,0.035,0.038,0.046
0.006,0.041,0.034,-0.024,-0.014,0.037,0.13,0.242,0.142,0.061,0.064,0.059
-0.01,0.054,0.064,-0.022,-0.037,0.059,0.147,0.297,0.178,0.091,0.076,0.076
0.001,0.084,0.083,-0.043,-0.041,0.084,0.163,0.354,0.22,0.124,0.102,0.099
0.042,0.123,0.081,-0.083,-0.02,0.102,0.172,0.411,0.261,0.165,0.15,0.138
0.042,0.139,0.097,-0.091,-0.028,0.118,0.171,0.421,0.295,0.201,0.171,0.167
0.073,0.162,0.089,-0.117,-0.008,0.125,0.17,0.405,0.309,0.223,0.198,0.193
0.093,0.166,0.073,-0.13,0.01,0.119,0.17,0.4,0.3,0.232,0.212,0.244
0.079,0.151,0.071,-0.115,0.004,0.111,0.17,0.378,0.281,0.218,0.204,0.247
0.066,0.138,0.072,-0.102,-0.003,0.104,0.17,0.327,0.262,0.196,0.197,0.22
0.047,0.084,0.037,-0.065,0.004,0.06,0.167,0.267,0.225,0.161,0.159,0.195
0.039,0.025,-0.014,-0.032,0.026,0.005,0.157,0.214,0.185,0.113,0.114,0.154
0.019,-0.018,-0.037,0.0,0.028,-0.027,0.147,0.169,0.153,0.074,0.076,0.117
-0.007,-0.053,-0.046,0.03,0.02,-0.049,0.137,0.132,0.121,0.048,0.052,0.087
0.012,-0.06,-0.073,0.024,0.043,-0.066,0.128,0.106,0.101,0.027,0.039,0.075
-0.001,-0.084,-0.083,0.042,0.041,-0.083,0.121,0.095,0.097,0.014,0.025,0.064
-0.024,-0.102,-0.078,0.063,0.027,-0.09,0.114,0.095,0.094,0.015,0.026,0.051
-0.017,-0.098,-0.081,0.057,0.032,-0.089,0.106,0.095,0.091,0.014,0.024,0.045
-0.001,-0.107,-0.106,0.054,0.053,-0.106,0.098,0.095,0.086,0.01,0.025,0.041
0.002,-0.109,-0.111,0.054,0.056,-0.11,0.097,0.094,0.086,0.01,0.025,0.039
0.002,-0.108,-0.109,0.053,0.056,-0.108,0.101,0.097,0.091,0.012,0.025,0.034
0.015,-0.095,-0.11,0.04,0.063,-0.103,0.106,0.1,0.089,0.02,0.032,0.03
-0.018,-0.13,-0.112,0.074,0.047,-0.121,0.109,0.11,0.094,0.024,0.031,0.031
-0.023,-0.211,-0.188,0.118,0.083,-0.199,0.131,0.141,0.128,0.043,0.058,0.048
-0.014,-0.274,-0.26,0.144,0.123,-0.266,0.164,0.173,0.163,0.077,0.088,0.072
-0.02,-0.332,-0.312,0.176,0.147,-0.322,0.181,0.198,0.177,0.094,0.107,0.09
-0.022,-0.375,-0.353,0.199,0.166,-0.364,0.203,0.209,0.193,0.112,0.131,0.106
-0.028,-0.417,-0.389,0.223,0.18,-0.403,0.227,0.219,0.214,0.128,0.139,0.125
-0.031,-0.455,-0.424,0.244,0.196,-0.439,0.231,0.236,0.222,0.135,0.153,0.145
-0.022,-0.474,-0.452,0.248,0.215,-0.463,0.23,0.237,0.226,0.143,0.164,0.159
-0.011,-0.509,-0.498,0.26,0.244,-0.503,0.239,0.233,0.225,0.146,0.168,0.164
-0.016,-0.533,-0.517,0.275,0.251,-0.525,0.246,0.231,0.225,0.15,0.173,0.168
-0.012,-0.545,-0.533,0.278,0.261,-0.538,0.245,0.228,0.235,0.155,0.176,0.178
-0.01,-0.574,-0.564,0.292,0.277,-0.569,0.244,0.226,0.236,0.159,0.18,0.185
-0.009,-0.605,-0.596,0.307,0.293,-0.6,0.246,0.223,0.235,0.164,0.18,0.189
-0.02,-0.632,-0.612,0.326,0.296,-0.621,0.244,0.22,0.234,0.165,0.18,0.19
-0.019,-0.636,-0.618,0.328,0.3,-0.627,0.247,0.22,0.229,0.165,0.18,0.19
-0.019,-0.648,-0.629,0.334,0.305,-0.638,0.259,0.22,0.23,0.165,0.18,0.19
-0.016,-0.657,-0.641,0.337,0.313,-0.649,0.255,0.22,0.228,0.165,0.176,0.19
-0.004,-0.653,-0.649,0.329,0.323,-0.651,0.246,0.22,0.223,0.165,0.174,0.191
-0.007,-0.671,-0.664,0.34,0.329,-0.668,0.242,0.216,0.22,0.165,0.175,0.188
-0.014,-0.672,-0.658,0.343,0.323,-0.665,0.233,0.209,0.216,0.16,0.175,0.187
-0.019,-0.663,-0.644,0.341,0.313,-0.653,0.232,0.203,0.212,0.156,0.175,0.178
-0.004,-0.658,-0.655,0.331,0.326,-0.656,0.236,0.196,0.209,0.154,0.175,0.193
-0.003,-0.65,-0.647,0.327,0.322,-0.648,0.231,0.189,0.205,0.149,0.175,0.221
-0.015,-0.646,-0.631,0.33,0.308,-0.638,0.228,0.183,0.205,0.146,0.175,0.213
-0.013,-0.643,-0.63,0.328,0.309,-0.636,0.224,0.18,0.204,0.142,0.175,0.209
-0.01,-0.64,-0.63,0.325,0.31,-0.635,0.22,0.18,0.199,0.14,0.175,0.203
-0.008,-0.637,-0.63,0.322,0.311,-0.633,0.217,0.177,0.201,0.14,0.175,0.197
-0.004,-0.635,-0.63,0.32,0.314,-0.632,0.214,0.175,0.197,0.14,0.171,0.193
-0.008,-0.633,-0.625,0.32,0.309,-0.629,0.212,0.175,0.189,0.14,0.169,0.187
-0.014,-0.629,-0.615,0.322,0.3,-0.622,0.209,0.172,0.183,0.14,0.17,0.186
-0.022,-0.627,-0.604,0.325,0.292,-0.615,0.206,0.169,0.175,0.135,0.17,0.166
-0.027,-0.624,-0.597,0.326,0.285,-0.61,0.204,0.166,0.167,0.132,0.17,0.143
-0.025,-0.621,-0.596,0.323,0.285,-0.608,0.201,0.163,0.161,0.128,0.169,0.138
-0.026,-0.619,-0.593,0.323,0.284,-0.606,0.198,0.16,0.155,0.125,0.164,0.135
-0.025,-0.615,-0.59,0.32,0.283,-0.602,0.196,0.159,0.151,0.12,0.161,0.131
-0.019,-0.607,-0.587,0.313,0.284,-0.597,0.192,0.155,0.149,0.118,0.158,0.127
-0.017,-0.601,-0.585,0.31,0.284,-0.593,0.19,0.15,0.144,0.113,0.153,0.124
-0.011,-0.593,-0.582,0.303,0.285,-0.587,0.187,0.148,0.141,0.11,0.15,0.12
-0.02,-0.589,-0.569,0.304,0.275,-0.579,0.182,0.142,0.136,0.107,0.144,0.112
-0.018,-0.575,-0.557,0.297,0.27,-0.565,0.175,0.141,0.12,0.102,0.132,0.106
-0.005,-0.528,-0.523,0.267,0.259,-0.526,0.17,0.132,0.104,0.101,0.12,0.099
-0.028,-0.473,-0.445,0.25,0.209,-0.459,0.153,0.115,0.082,0.081,0.11,0.092
-0.03,-0.417,-0.387,0.223,0.179,-0.401,0.133,0.114,0.068,0.062,0.092,0.089
-0.019,-0.368,-0.349,0.194,0.165,-0.359,0.126,0.116,0.07,0.065,0.083,0.09
-0.017,-0.313,-0.295,0.165,0.139,-0.304,0.119,0.115,0.074,0.065,0.085,0.086
-0.006,-0.227,-0.221,0.117,0.108,-0.224,0.143,0.115,0.075,0.065,0.085,0.085
-0.007,-0.165,-0.158,0.086,0.075,-0.161,0.155,0.115,0.068,0.065,0.085,0.085
-0.012,-0.136,-0.125,0.074,0.057,-0.13,0.134,0.112,0.06,0.065,0.085,0.078
-0.016,-0.101,-0.085,0.058,0.035,-0.092,0.121,0.102,0.052,0.056,0.084,0.071
0.006,-0.074,-0.08,0.034,0.043,-0.077,0.084,0.077,0.045,0.044,0.075,0.064
0.01,-0.068,-0.078,0.029,0.044,-0.073,0.056,0.039,0.033,0.031,0.066,0.056
0.009,-0.071,-0.08,0.031,0.044,-0.075,0.051,0.022,0.014,0.015,0.049,0.049
-0.011,-0.092,-0.081,0.052,0.035,-0.087,0.047,-0.004,-0.01,-0.004,0.028,0.043
-0.051,-0.113,-0.063,0.082,0.006,-0.088,0.042,-0.003,-0.024,-0.018,0.007,0.035
-0.055,-0.096,-0.041,0.076,-0.007,-0.068,0.038,-0.029,-0.048,-0.037,-0.009,0.033
-0.058,-0.094,-0.036,0.076,-0.011,-0.065,0.033,-0.031,-0.051,-0.05,-0.021,0.025
-0.056,-0.084,-0.028,0.07,-0.014,-0.056,0.027,-0.035,-0.055,-0.052,-0.026,0.021
-0.064,-0.074,-0.01,0.069,-0.026,-0.042,0.023,-0.046,-0.062,-0.049,-0.038,0.015
-0.08,-0.084,-0.003,0.082,-0.038,-0.043,0.015,-0.025,-0.056,-0.056,-0.04,0.002
-0.12,-0.015,0.106,0.067,-0.113,0.045,0.133,0.063,-0.04,-0.077,-0.022,-0.005
-0.019,0.146,0.165,-0.064,-0.092,0.155,0.382,0.699,0.227,0.11,0.077,0.064
0.218,0.642,0.424,-0.43,-0.103,0.533,0.456,0.704,0.721,0.625,0.53,0.452
0.408,0.926,0.519,-0.667,-0.056,0.722,-0.049,-0.2,1.141,1.152,1.027,0.906
0.3,0.443,0.143,-0.371,0.078,0.293,-0.571,-0.801,0.648,0.776,0.722,0.688
-0.067,-0.081,-0.015,0.074,-0.026,-0.048,-0.494,-0.98,-0.322,-0.14,0.0,0.057
-0.147,-0.281,-0.133,0.214,-0.007,-0.207,-0.326,-0.594,-0.479,-0.351,-0.209,-0.149
-0.08,-0.21,-0.13,0.145,0.025,-0.169,-0.146,-0.213,-0.303,-0.236,-0.134,-0.097
-0.057,-0.063,-0.006,0.06,-0.025,-0.034,0.0,-0.064,-0.186,-0.176,-0.097,-0.089
-0.044,-0.027,0.016,0.036,-0.03,-0.005,0.004,0.001,-0.131,-0.127,-0.079,-0.066
-0.065,-0.009,0.056,0.037,-0.06,0.023,0.026,-0.017,-0.126,-0.132,-0.086,-0.062
-0.048,-0.001,0.048,0.024,-0.048,0.023,0.019,0.006,-0.095,-0.115,-0.077,-0.059
-0.049,0.016,0.065,0.016,-0.058,0.041,0.026,-0.002,-0.101,-0.117,-0.077,-0.06
-0.042,0.034,0.076,0.004,-0.059,0.055,0.029,0.01,-0.086,-0.106,-0.074,-0.06
-0.03,0.048,0.078,-0.009,-0.054,0.063,0.029,0.011,-0.084,-0.101,-0.07,-0.059
-0.028,0.063,0.092,-0.017,-0.06,0.077,0.031,0.018,-0.075,-0.095,-0.065,-0.061
-0.023,0.08,0.103,-0.029,-0.063,0.091,0.029,0.032,-0.069,-0.086,-0.06,-0.053
-0.009,0.098,0.108,-0.044,-0.059,0.102,0.031,0.03,-0.064,-0.08,-0.056,-0.049
-0.016,0.101,0.118,-0.043,-0.067,0.109,0.029,0.031,-0.057,-0.07,-0.051,-0.042
-0.013,0.119,0.132,-0.053,-0.072,0.125,0.031,0.048,-0.052,-0.063,-0.046,-0.038
-0.01,0.133,0.142,-0.062,-0.076,0.137,0.03,0.067,-0.043,-0.056,-0.032,-0.026
-0.015,0.151,0.165,-0.068,-0.09,0.158,0.041,0.1,-0.022,-0.044,-0.018,0.017
0.011,0.174,0.164,-0.093,-0.077,0.168,0.044,0.141,0.004,-0.02,-0.008,0.036
0.014,0.188,0.174,-0.102,-0.08,0.18,0.052,0.188,0.032,0.01,0.006,0.036
0.027,0.222,0.194,-0.124,-0.084,0.208,0.071,0.247,0.074,0.042,0.034,0.06
0.042,0.26,0.218,-0.151,-0.089,0.239,0.076,0.302,0.115,0.077,0.067,0.087
0.065,0.301,0.236,-0.184,-0.086,0.268,0.075,0.338,0.148,0.116,0.103,0.115
0.087,0.33,0.244,-0.209,-0.079,0.287,0.072,0.331,0.149,0.137,0.127,0.12
0.088,0.338,0.251,-0.213,-0.082,0.294,0.069,0.316,0.142,0.128,0.14,0.113
0.096,0.331,0.235,-0.213,-0.07,0.283,0.065,0.296,0.141,0.117,0.133,0.107
0.092,0.317,0.225,-0.204,-0.067,0.271,0.065,0.251,0.123,0.108,0.116,0.104
0.074,0.287,0.214,-0.181,-0.07,0.25,0.071,0.195,0.091,0.081,0.099,0.09
0.041,0.242,0.201,-0.142,-0.08,0.221,0.064,0.145,0.049,0.041,0.056,0.047
0.01,0.199,0.189,-0.105,-0.09,0.194,0.056,0.09,0.016,-0.004,0.01,0.008
0.002,0.167,0.164,-0.085,-0.081,0.165,0.048,0.043,-0.009,-0.04,-0.022,-0.017
0.003,0.148,0.145,-0.076,-0.072,0.146,0.04,0.017,-0.037,-0.067,-0.048,-0.036
-0.018,0.127,0.145,-0.055,-0.082,0.135,0.036,-0.002,-0.054,-0.084,-0.06,-0.05
-0.025,0.12,0.145,-0.048,-0.085,0.132,0.031,-0.005,-0.056,-0.085,-0.06,-0.052
-0.026,0.12,0.145,-0.047,-0.086,0.132,0.028,-0.005,-0.052,-0.085,-0.06,-0.047
-0.052,0.121,0.173,-0.035,-0.112,0.146,0.025,-0.005,-0.05,-0.085,-0.058,-0.046
-0.073,0.119,0.192,-0.023,-0.133,0.156,0.019,-0.006,-0.047,-0.085,-0.054,-0.042
-0.069,0.121,0.19,-0.026,-0.129,0.155,0.03,0.005,-0.044,-0.084,-0.055,-0.041
-0.077,0.117,0.194,-0.02,-0.136,0.155,0.042,0.013,-0.042,-0.079,-0.051,-0.037
-0.101,0.096,0.197,0.002,-0.149,0.146,0.039,0.003,-0.039,-0.076,-0.05,-0.035
-0.059,0.128,0.187,-0.035,-0.123,0.157,0.04,0.004,-0.036,-0.073,-0.05,-0.034
-0.045,0.155,0.2,-0.055,-0.122,0.177,0.04,0.01,-0.033,-0.068,-0.045,-0.029
-0.076,0.147,0.223,-0.036,-0.149,0.185,0.04,0.014,-0.03,-0.065,-0.045,-0.031
-0.067,0.152,0.219,-0.042,-0.143,0.185,0.037,0.019,-0.031,-0.068,-0.046,-0.01
-0.071,0.149,0.22,-0.039,-0.145,0.184,0.034,0.024,-0.035,-0.071,-0.05,0.012
-0.07,0.151,0.221,-0.04,-0.146,0.186,0.031,0.023,-0.035,-0.069,-0.055,0.006
-0.067,0.146,0.213,-0.04,-0.14,0.179,0.028,0.017,-0.039,-0.071,-0.058,0.001
-0.064,0.139,0.203,-0.038,-0.133,0.171,0.026,0.014,-0.042,-0.069,-0.062,-0.005
-0.052,0.135,0.188,-0.042,-0.12,0.161,0.023,0.009,-0.048,-0.074,-0.064,-0.01
-0.084,0.129,0.213,-0.023,-0.149,0.171,0.02,0.004,-0.06,-0.088,-0.069,-0.025
-0.111,0.123,0.234,-0.007,-0.173,0.178,0.017,-0.003,-0.059,-0.091,-0.069,-0.051
-0.097,0.121,0.218,-0.012,-0.157,0.169,0.015,-0.017,-0.062,-0.093,-0.065,-0.065
-0.091,0.128,0.219,-0.018,-0.155,0.173,0.011,-0.027,-0.073,-0.097,-0.065,-0.065
-0.093,0.127,0.22,-0.017,-0.157,0.173,0.01,-0.038,-0.076,-0.099,-0.063,-0.068
-0.096,0.124,0.22,-0.014,-0.158,0.171,0.006,-0.051,-0.08,-0.102,-0.059,-0.085
-0.094,0.126,0.22,-0.016,-0.158,0.172,-0.001,-0.051,-0.084,-0.105,-0.06,-0.092
-0.096,0.124,0.22,-0.014,-0.158,0.172,-0.005,-0.05,-0.089,-0.105,-0.068,-0.089
-0.093,0.126,0.219,-0.016,-0.157,0.172,-0.011,-0.048,-0.096,-0.107,-0.071,-0.09
-0.087,0.123,0.21,-0.019,-0.149,0.167,-0.016,-0.061,-0.101,-0.111,-0.069,-0.086
-0.086,0.119,0.205,-0.017,-0.146,0.161,-0.02,-0.077,-0.105,-0.11,-0.07,-0.085
-0.082,0.114,0.195,-0.016,-0.139,0.154,-0.02,-0.074,-0.105,-0.107,-0.07,-0.085
-0.083,0.109,0.192,-0.013,-0.137,0.15,-0.02,-0.078,-0.107,-0.104,-0.07,-0.081
-0.071,0.106,0.177,-0.018,-0.125,0.141,-0.029,-0.08,-0.11,-0.101,-0.074,-0.078
-0.097,0.098,0.195,-0.001,-0.146,0.146,-0.03,-0.08,-0.11,-0.098,-0.075,-0.075
-0.1,0.113,0.213,-0.007,-0.157,0.163,-0.023,-0.077,-0.106,-0.095,-0.078,-0.072
-0.071,0.127,0.198,-0.028,-0.135,0.162,-0.02,-0.074,-0.105,-0.096,-0.08,-0.07
-0.094,0.119,0.213,-0.012,-0.154,0.166,-0.016,-0.075,-0.105,-0.105,-0.081,-0.067
-0.093,0.113,0.205,-0.01,-0.149,0.159,-0.009,-0.075,-0.105,-0.11,-0.085,-0.059
-0.092,0.106,0.197,-0.007,-0.145,0.151,-0.018,-0.075,-0.105,-0.11,-0.085,-0.051
-0.111,0.1,0.21,0.005,-0.161,0.155,-0.034,-0.076,-0.106,-0.11,-0.085,-0.043
-0.114,0.092,0.206,0.011,-0.16,0.149,-0.036,-0.085,-0.11,-0.11,-0.085,-0.035
-0.095,0.104,0.199,-0.005,-0.147,0.151,-0.039,-0.091,-0.11,-0.11,-0.085,-0.035
-0.082,0.116,0.198,-0.017,-0.14,0.157,-0.042,-0.089,-0.11,-0.109,-0.085,-0.035
-0.101,0.104,0.205,-0.002,-0.153,0.154,-0.045,-0.09,-0.11,-0.105,-0.085,-0.035
-0.102,0.1,0.202,0.001,-0.152,0.151,-0.044,-0.09,-0.11,-0.105,-0.085,-0.036
-0.108,0.092,0.2,0.008,-0.154,0.146,-0.039,-0.09,-0.11,-0.105,-0.085,-0.031
-0.118,0.086,0.204,0.016,-0.162,0.145,-0.041,-0.089,-0.11,-0.105,-0.085,-0.056
-0.113,0.093,0.206,0.009,-0.16,0.149,-0.037,-0.085,-0.11,-0.105,-0.086,-0.078
-0.106,0.096,0.202,0.005,-0.154,0.148,-0.035,-0.086,-0.11,-0.101,-0.09,-0.073
-0.103,0.09,0.193,0.006,-0.148,0.141,-0.034,-0.082,-0.11,-0.1,-0.09,-0.076
-0.106,0.088,0.193,0.009,-0.15,0.14,-0.04,-0.08,-0.109,-0.099,-0.092,-0.074
-0.116,0.084,0.2,0.016,-0.158,0.142,-0.052,-0.08,-0.105,-0.096,-0.096,-0.08
-0.118,0.078,0.196,0.02,-0.157,0.137,-0.048,-0.084,-0.105,-0.094,-0.095,-0.088
-0.077,0.102,0.179,-0.013,-0.128,0.14,-0.046,-0.087,-0.103,-0.096,-0.092,-0.082
-0.061,0.131,0.192,-0.035,-0.126,0.161,-0.043,-0.081,-0.099,-0.099,-0.089,-0.078
-0.067,0.129,0.195,-0.031,-0.131,0.162,-0.039,-0.081,-0.101,-0.098,-0.087,-0.074
-0.056,0.13,0.186,-0.037,-0.121,0.158,-0.046,-0.074,-0.095,-0.091,-0.083,-0.069
-0.058,0.13,0.188,-0.036,-0.123,0.158,-0.04,-0.077,-0.087,-0.084,-0.08,-0.065
-0.042,0.131,0.173,-0.044,-0.108,0.152,-0.005,-0.059,-0.078,-0.081,-0.079,-0.058
-0.063,0.15,0.213,-0.043,-0.138,0.181,0.033,-0.026,-0.066,-0.06,-0.071,-0.049
-0.074,0.171,0.245,-0.049,-0.159,0.208,0.028,-0.024,-0.05,-0.047,-0.059,-0.04
-0.033,0.2,0.234,-0.084,-0.134,0.217,0.016,-0.025,-0.049,-0.055,-0.055,-0.032
-0.022,0.199,0.221,-0.089,-0.122,0.21,-0.004,-0.041,-0.056,-0.057,-0.055,-0.03
-0.022,0.202,0.224,-0.091,-0.123,0.213,-0.036,-0.066,-0.061,-0.059,-0.055,-0.027
-0.008,0.194,0.202,-0.093,-0.105,0.197,-0.052,-0.075,-0.071,-0.067,-0.055,-0.024
-0.03,0.138,0.168,-0.054,-0.099,0.153,-0.069,-0.085,-0.092,-0.083,-0.055,-0.021
-0.08,0.096,0.176,-0.009,-0.128,0.136,-0.069,-0.098,-0.109,-0.104,-0.077,-0.019
-0.091,0.081,0.172,0.004,-0.131,0.126,-0.072,-0.116,-0.123,-0.124,-0.101,-0.028
-0.099,0.08,0.179,0.009,-0.139,0.129,-0.067,-0.131,-0.132,-0.135,-0.103,-0.041
-0.083,0.069,0.152,0.007,-0.118,0.11,-0.073,-0.11,-0.119,-0.125,-0.101,-0.052
-0.104,0.08,0.183,0.012,-0.143,0.131,-0.065,-0.134,-0.132,-0.129,-0.099,-0.048
-0.102,0.053,0.155,0.025,-0.129,0.104,-0.061,-0.09,-0.116,-0.115,-0.102,-0.054
-0.09,0.089,0.18,0.0,-0.135,0.134,-0.017,-0.095,-0.124,-0.121,-0.101,-0.088
-0.07,0.163,0.233,-0.047,-0.151,0.197,0.196,0.34,0.02,-0.052,-0.064,-0.096
0.127,0.493,0.366,-0.31,-0.12,0.43,0.375,0.841,0.464,0.337,0.241,0.171
0.346,1.014,0.669,-0.68,-0.161,0.841,0.164,0.172,1.0,0.957,0.825,0.714
0.361,0.81,0.449,-0.585,-0.044,0.629,-0.394,-0.674,0.958,1.023,0.897,0.823
-0.001,0.218,0.218,-0.108,-0.11,0.218,-0.571,-1.013,0.037,0.192,0.222,0.256
-0.196,-0.111,0.086,0.153,-0.141,-0.013,-0.419,-0.852,-0.513,-0.364,-0.24,-0.177
-0.081,-0.17,-0.089,0.126,0.004,-0.129,-0.303,-0.419,-0.431,-0.331,-0.247,-0.19
-0.06,-0.038,0.022,0.049,-0.041,-0.008,-0.122,-0.197,-0.292,-0.254,-0.197,-0.155
-0.039,0.037,0.075,0.001,-0.057,0.056,-0.06,-0.086,-0.19,-0.186,-0.156,-0.126
-0.049,0.062,0.111,-0.006,-0.081,0.086,-0.04,-0.074,-0.182,-0.171,-0.147,-0.107
-0.045,0.068,0.113,-0.012,-0.079,0.09,-0.031,-0.055,-0.158,-0.148,-0.135,-0.104
-0.036,0.069,0.105,-0.017,-0.071,0.088,-0.039,-0.05,-0.154,-0.14,-0.127,-0.094
-0.043,0.07,0.113,-0.014,-0.078,0.092,-0.026,-0.047,-0.14,-0.136,-0.124,-0.09
-0.046,0.07,0.116,-0.013,-0.081,0.093,-0.033,-0.034,-0.123,-0.125,-0.116,-0.082
-0.034,0.088,0.122,-0.027,-0.078,0.105,-0.027,-0.035,-0.115,-0.123,-0.112,-0.078
0.012,0.102,0.09,-0.057,-0.039,0.095,-0.026,-0.022,-0.102,-0.111,-0.106,-0.068
0.008,0.112,0.104,-0.06,-0.048,0.108,-0.022,-0.018,-0.1,-0.107,-0.101,-0.063
-0.029,0.108,0.137,-0.04,-0.083,0.122,-0.02,-0.007,-0.089,-0.099,-0.09,-0.035
-0.029,0.119,0.149,-0.046,-0.089,0.134,-0.017,0.001,-0.08,-0.089,-0.08,0.001
0.011,0.139,0.128,-0.075,-0.059,0.133,-0.015,0.015,-0.064,-0.067,-0.07,0.007
0.013,0.147,0.134,-0.081,-0.06,0.14,-0.011,0.042,-0.052,-0.049,-0.059,0.01
0.004,0.149,0.145,-0.077,-0.07,0.146,-0.002,0.064,-0.034,-0.036,-0.051,0.013
0.023,0.175,0.152,-0.099,-0.065,0.163,0.004,0.108,0.001,-0.007,-0.037,0.018
0.008,0.195,0.187,-0.102,-0.09,0.191,0.011,0.16,0.031,0.015,-0.016,0.02
0.021,0.221,0.2,-0.121,-0.09,0.21,0.023,0.218,0.08,0.053,0.025,0.036
0.055,0.278,0.223,-0.167,-0.085,0.25,0.048,0.287,0.13,0.106,0.072,0.069
0.044,0.285,0.241,-0.165,-0.099,0.263,0.057,0.301,0.155,0.135,0.098,0.094
0.069,0.316,0.247,-0.193,-0.089,0.282,0.054,0.287,0.165,0.162,0.126,0.114
0.09,0.339,0.249,-0.215,-0.079,0.294,0.059,0.274,0.151,0.157,0.136,0.111
0.06,0.301,0.241,-0.181,-0.091,0.271,0.06,0.25,0.139,0.141,0.121,0.104
0.044,0.284,0.239,-0.164,-0.098,0.261,0.06,0.211,0.124,0.122,0.113,0.098
0.027,0.25,0.223,-0.139,-0.098,0.237,0.055,0.159,0.095,0.078,0.085,0.073
-0.016,0.182,0.197,-0.083,-0.107,0.189,0.051,0.105,0.056,0.035,0.041,0.041
-0.042,0.127,0.169,-0.043,-0.105,0.148,0.046,0.055,0.018,-0.002,-0.001,0.009
-0.046,0.108,0.154,-0.032,-0.1,0.131,0.042,0.016,-0.007,-0.021,-0.036,-0.009
-0.058,0.088,0.146,-0.015,-0.102,0.116,0.034,-0.007,-0.028,-0.046,-0.056,-0.022
-0.065,0.069,0.134,-0.003,-0.1,0.102,0.005,-0.02,-0.045,-0.065,-0.069,-0.038
-0.06,0.066,0.126,-0.003,-0.094,0.096,-0.011,-0.031,-0.05,-0.065,-0.075,-0.047
-0.065,0.059,0.124,0.002,-0.095,0.091,-0.009,-0.03,-0.05,-0.065,-0.075,-0.042
-0.066,0.055,0.121,0.005,-0.094,0.088,-0.01,-0.026,-0.047,-0.065,-0.075,-0.033
-0.07,0.048,0.117,0.011,-0.094,0.083,-0.01,-0.023,-0.044,-0.061,-0.075,-0.025
-0.09,0.047,0.136,0.021,-0.114,0.091,-0.01,-0.018,-0.045,-0.06,-0.075,-0.017
-0.077,0.07,0.146,0.003,-0.111,0.108,-0.008,-0.015,-0.045,-0.06,-0.075,-0.019
-0.053,0.082,0.135,-0.015,-0.094,0.108,-0.003,-0.012,-0.046,-0.055,-0.072,-0.02
-0.057,0.079,0.136,-0.011,-0.096,0.107,0.0,-0.009,-0.043,-0.055,-0.069,-0.02
-0.046,0.081,0.127,-0.017,-0.086,0.104,0.003,-0.006,-0.04,-0.054,-0.066,-0.025
-0.047,0.079,0.126,-0.017,-0.087,0.102,0.008,-0.004,-0.04,-0.05,-0.064,-0.025
-0.064,0.08,0.144,-0.008,-0.104,0.112,0.01,0.0,-0.04,-0.05,-0.06,-0.027
-0.05,0.083,0.133,-0.017,-0.092,0.108,0.006,-0.001,-0.04,-0.052,-0.061,-0.038
-0.041,0.086,0.126,-0.023,-0.084,0.106,0.001,-0.009,-0.04,-0.057,-0.066,-0.054
-0.038,0.089,0.127,-0.026,-0.083,0.108,-0.001,-0.017,-0.045,-0.06,-0.064,-0.065
-0.027,0.091,0.118,-0.033,-0.073,0.105,-0.006,-0.026,-0.055,-0.06,-0.075,-0.07
-0.02,0.095,0.116,-0.038,-0.069,0.105,-0.009,-0.032,-0.064,-0.059,-0.081,-0.076
-0.013,0.094,0.107,-0.04,-0.061,0.1,-0.013,-0.04,-0.068,-0.063,-0.079,-0.083
-0.017,0.09,0.106,-0.037,-0.062,0.098,-0.027,-0.05,-0.073,-0.07,-0.08,-0.083
-0.035,0.087,0.122,-0.026,-0.079,0.104,-0.035,-0.06,-0.076,-0.074,-0.079,-0.078
-0.04,0.083,0.123,-0.022,-0.082,0.103,-0.038,-0.069,-0.081,-0.079,-0.08,-0.075
-0.034,0.08,0.114,-0.023,-0.074,0.097,-0.043,-0.069,-0.085,-0.08,-0.079,-0.072
-0.035,0.077,0.111,-0.021,-0.073,0.094,-0.045,-0.087,-0.081,-0.08,-0.081,-0.067
-0.031,0.072,0.103,-0.021,-0.067,0.088,-0.045,-0.097,-0.08,-0.08,-0.079,-0.064
-0.029,0.069,0.098,-0.02,-0.064,0.083,-0.045,-0.094,-0.08,-0.08,-0.083,-0.073
-0.016,0.064,0.08,-0.024,-0.048,0.072,-0.045,-0.096,-0.096,-0.08,-0.098,-0.078
-0.027,0.061,0.088,-0.017,-0.057,0.074,-0.045,-0.095,-0.112,-0.08,-0.101,-0.071
-0.054,0.058,0.112,-0.002,-0.083,0.085,-0.052,-0.095,-0.109,-0.087,-0.104,-0.064
-0.029,0.053,0.082,-0.013,-0.056,0.068,-0.063,-0.102,-0.114,-0.101,-0.107,-0.058
-0.017,0.05,0.067,-0.017,-0.042,0.059,-0.072,-0.112,-0.119,-0.106,-0.11,-0.05
-0.026,0.046,0.072,-0.01,-0.049,0.059,-0.071,-0.116,-0.122,-0.105,-0.11,-0.045
-0.024,0.045,0.068,-0.011,-0.047,0.056,-0.07,-0.114,-0.126,-0.105,-0.11,-0.05
-0.021,0.045,0.066,-0.012,-0.044,0.055,-0.069,-0.116,-0.124,-0.105,-0.11,-0.05
-0.019,0.045,0.064,-0.014,-0.042,0.055,-0.065,-0.114,-0.125,-0.105,-0.11,-0.052
-0.02,0.045,0.065,-0.013,-0.043,0.054,-0.065,-0.116,-0.125,-0.105,-0.114,-0.056
-0.012,0.046,0.059,-0.017,-0.036,0.052,-0.068,-0.119,-0.125,-0.105,-0.115,-0.054
-0.011,0.05,0.061,-0.019,-0.036,0.056,-0.065,-0.121,-0.126,-0.106,-0.115,-0.075
-0.005,0.053,0.058,-0.024,-0.032,0.055,-0.061,-0.12,-0.12,-0.103,-0.115,-0.094
-0.005,0.057,0.063,-0.026,-0.035,0.06,-0.055,-0.119,-0.112,-0.093,-0.115,-0.089
0.003,0.058,0.055,-0.03,-0.026,0.057,-0.053,-0.12,-0.102,-0.085,-0.114,-0.084
0.007,0.077,0.071,-0.042,-0.032,0.074,-0.042,-0.09,-0.096,-0.076,-0.101,-0.079
-0.016,0.109,0.125,-0.046,-0.071,0.117,-0.012,-0.059,-0.1,-0.07,-0.086,-0.075
0.003,0.127,0.124,-0.065,-0.06,0.125,-0.003,-0.06,-0.1,-0.07,-0.083,-0.07
0.038,0.152,0.114,-0.096,-0.038,0.133,-0.02,-0.061,-0.1,-0.07,-0.085,-0.073
0.053,0.158,0.104,-0.106,-0.026,0.131,-0.06,-0.068,-0.099,-0.07,-0.085,-0.077
0.052,0.149,0.097,-0.101,-0.023,0.123,-0.092,-0.098,-0.101,-0.07,-0.085,-0.079
0.047,0.124,0.077,-0.086,-0.015,0.1,-0.095,-0.112,-0.102,-0.073,-0.086,-0.084
0.015,0.075,0.059,-0.045,-0.022,0.067,-0.095,-0.129,-0.125,-0.097,-0.101,-0.087
-0.013,0.038,0.051,-0.013,-0.032,0.044,-0.098,-0.134,-0.138,-0.115,-0.121,-0.108
-0.016,0.028,0.044,-0.006,-0.03,0.036,-0.101,-0.138,-0.147,-0.124,-0.129,-0.112
-0.022,0.025,0.046,-0.002,-0.035,0.035,-0.098,-0.139,-0.158,-0.132,-0.139,-0.109
-0.007,0.018,0.024,-0.006,-0.016,0.021,-0.096,-0.119,-0.151,-0.127,-0.133,-0.112
-0.022,0.025,0.047,-0.001,-0.034,0.035,-0.078,-0.132,-0.165,-0.133,-0.13,-0.107
0.011,0.004,-0.007,-0.007,0.008,-0.002,-0.08,-0.1,-0.153,-0.126,-0.126,-0.115
-0.023,0.039,0.063,-0.008,-0.043,0.051,-0.028,-0.094,-0.165,-0.139,-0.118,-0.098
-0.018,0.119,0.136,-0.051,-0.077,0.127,0.184,0.393,0.027,-0.034,-0.091,-0.057
0.184,0.494,0.31,-0.34,-0.063,0.402,0.371,0.773,0.509,0.396,0.261,0.236
0.355,0.936,0.581,-0.646,-0.113,0.758,0.106,0.016,1.033,1.005,0.825,0.751
0.356,0.654,0.298,-0.505,0.029,0.475,-0.475,-0.775,0.878,0.958,0.787,0.764
0.024,0.125,0.101,-0.075,-0.039,0.113,-0.606,-1.049,-0.108,0.077,0.107,0.199
-0.167,-0.162,0.005,0.165,-0.086,-0.078,-0.45,-0.831,-0.561,-0.385,-0.276,-0.167
-0.082,-0.223,-0.14,0.153,0.029,-0.181,-0.322,-0.41,-0.442,-0.317,-0.249,-0.179
-0.071,-0.092,-0.021,0.081,-0.024,-0.056,-0.136,-0.199,-0.314,-0.248,-0.2,-0.165
-0.053,-0.03,0.023,0.041,-0.038,-0.003,-0.08,-0.09,-0.211,-0.18,-0.153,-0.157
-0.048,-0.01,0.038,0.029,-0.043,0.014,-0.07,-0.086,-0.206,-0.169,-0.146,-0.153
-0.058,0.008,0.066,0.025,-0.062,0.037,-0.059,-0.068,-0.162,-0.147,-0.14,-0.149
-0.057,0.017,0.074,0.019,-0.066,0.045,-0.062,-0.064,-0.155,-0.138,-0.131,-0.144
-0.042,0.036,0.078,0.002,-0.06,0.057,-0.053,-0.059,-0.149,-0.129,-0.127,-0.139
-0.033,0.045,0.078,-0.006,-0.056,0.061,-0.053,-0.048,-0.141,-0.12,-0.119,-0.129
-0.021,0.061,0.082,-0.02,-0.052,0.071,-0.05,-0.048,-0.14,-0.114,-0.115,-0.123
-0.02,0.069,0.089,-0.025,-0.055,0.079,-0.053,-0.035,-0.128,-0.105,-0.106,-0.114
-0.024,0.079,0.103,-0.028,-0.064,0.09,-0.047,-0.03,-0.119,-0.099,-0.101,-0.107
-0.002,0.105,0.107,-0.051,-0.055,0.106,-0.044,-0.019,-0.102,-0.087,-0.094,-0.099
0.004,0.113,0.109,-0.059,-0.052,0.111,-0.041,-0.012,-0.09,-0.077,-0.087,-0.092
0.003,0.107,0.104,-0.056,-0.05,0.105,-0.036,0.002,-0.074,-0.061,-0.078,-0.086
-0.006,0.115,0.121,-0.055,-0.064,0.118,-0.034,0.024,-0.061,-0.049,-0.067,-0.063
-0.008,0.128,0.136,-0.06,-0.072,0.131,-0.025,0.056,-0.045,-0.033,-0.056,-0.032
0.014,0.149,0.135,-0.082,-0.061,0.142,-0.015,0.096,-0.009,-0.013,-0.039,-0.017
0.03,0.192,0.161,-0.111,-0.066,0.176,-0.004,0.152,0.028,0.024,-0.015,-0.004
0.046,0.223,0.177,-0.135,-0.065,0.199,-0.003,0.207,0.062,0.066,0.02,0.02
0.074,0.255,0.182,-0.165,-0.054,0.218,-0.005,0.247,0.097,0.104,0.057,0.044
0.101,0.296,0.195,-0.199,-0.047,0.245,-0.005,0.261,0.122,0.138,0.088,0.054
0.117,0.312,0.195,-0.215,-0.039,0.253,-0.005,0.249,0.125,0.138,0.108,0.05
0.107,0.302,0.195,-0.205,-0.044,0.248,-0.005,0.233,0.118,0.127,0.103,0.042
0.099,0.291,0.192,-0.195,-0.046,0.241,-0.004,0.202,0.108,0.125,0.093,0.023
0.088,0.278,0.189,-0.183,-0.051,0.233,0.002,0.158,0.077,0.105,0.078,-0.003
0.039,0.23,0.191,-0.134,-0.076,0.21,0.005,0.106,0.042,0.065,0.046,-0.041
0.001,0.173,0.172,-0.087,-0.086,0.172,0.01,0.057,0.01,0.016,0.01,-0.08
-0.018,0.126,0.145,-0.054,-0.082,0.135,0.015,0.015,-0.016,-0.022,-0.023,-0.102
-0.044,0.078,0.122,-0.017,-0.083,0.099,0.011,-0.022,-0.049,-0.042,-0.049,-0.125
-0.063,0.046,0.109,0.008,-0.087,0.077,0.004,-0.035,-0.07,-0.056,-0.063,-0.139
-0.066,0.045,0.111,0.01,-0.089,0.078,-0.003,-0.044,-0.069,-0.06,-0.072,-0.144
-0.057,0.051,0.108,0.003,-0.083,0.08,-0.009,-0.049,-0.071,-0.062,-0.075,-0.145
-0.051,0.054,0.105,-0.002,-0.079,0.08,-0.017,-0.045,-0.069,-0.065,-0.075,-0.146
-0.046,0.059,0.104,-0.007,-0.075,0.081,-0.019,-0.043,-0.072,-0.069,-0.075,-0.151
-0.046,0.062,0.107,-0.008,-0.076,0.084,-0.015,-0.04,-0.071,-0.07,-0.07,-0.15
-0.05,0.064,0.114,-0.008,-0.082,0.089,-0.015,-0.036,-0.062,-0.067,-0.07,-0.148
-0.046,0.069,0.115,-0.012,-0.08,0.092,-0.013,-0.035,-0.056,-0.064,-0.07,-0.14
-0.047,0.068,0.115,-0.011,-0.081,0.091,-0.009,-0.031,-0.048,-0.061,-0.07,-0.13
-0.051,0.064,0.114,-0.007,-0.083,0.089,-0.01,-0.025,-0.028,-0.058,-0.07,-0.114
-0.064,0.054,0.118,0.005,-0.091,0.085,-0.013,-0.02,-0.01,-0.055,-0.07,-0.103
-0.056,0.063,0.119,-0.004,-0.088,0.091,-0.019,-0.015,-0.01,-0.056,-0.07,-0.099
-0.04,0.086,0.125,-0.023,-0.083,0.105,-0.023,-0.008,-0.009,-0.06,-0.07,-0.093
-0.065,0.072,0.137,-0.004,-0.102,0.104,-0.024,-0.006,-0.005,-0.062,-0.07,-0.109
-0.058,0.077,0.135,-0.01,-0.097,0.106,-0.02,-0.014,-0.005,-0.065,-0.07,-0.129
-0.038,0.097,0.135,-0.03,-0.087,0.116,-0.019,-0.022,-0.006,-0.068,-0.07,-0.143
-0.042,0.093,0.135,-0.026,-0.089,0.114,-0.027,-0.031,-0.014,-0.07,-0.065,-0.152
-0.031,0.104,0.135,-0.037,-0.083,0.119,-0.03,-0.042,-0.022,-0.073,-0.065,-0.149
-0.026,0.109,0.135,-0.042,-0.081,0.122,-0.043,-0.054,-0.03,-0.076,-0.065,-0.161
-0.031,0.1,0.131,-0.034,-0.082,0.116,-0.051,-0.067,-0.037,-0.074,-0.065,-0.166
-0.033,0.095,0.128,-0.031,-0.081,0.111,-0.051,-0.078,-0.044,-0.075,-0.065,-0.164
-0.036,0.087,0.123,-0.026,-0.08,0.105,-0.055,-0.084,-0.051,-0.074,-0.067,-0.165
-0.042,0.081,0.122,-0.02,-0.082,0.101,-0.055,-0.087,-0.056,-0.077,-0.074,-0.165
-0.029,0.084,0.113,-0.028,-0.071,0.099,-0.059,-0.089,-0.083,-0.08,-0.075,-0.164
-0.036,0.089,0.124,-0.027,-0.08,0.106,-0.06,-0.093,-0.096,-0.08,-0.075,-0.161
-0.062,0.084,0.146,-0.012,-0.104,0.115,-0.063,-0.095,-0.099,-0.085,-0.075,-0.158
-0.06,0.081,0.14,-0.011,-0.1,0.11,-0.065,-0.095,-0.109,-0.085,-0.075,-0.156
-0.057,0.078,0.134,-0.011,-0.096,0.106,-0.067,-0.098,-0.11,-0.089,-0.075,-0.151
-0.06,0.073,0.133,-0.007,-0.097,0.103,-0.072,-0.101,-0.109,-0.09,-0.077,-0.151
-0.054,0.07,0.124,-0.008,-0.089,0.097,-0.075,-0.1,-0.113,-0.091,-0.08,-0.143
-0.051,0.073,0.125,-0.011,-0.088,0.099,-0.08,-0.1,-0.125,-0.095,-0.08,-0.116
-0.062,0.078,0.14,-0.008,-0.101,0.108,-0.08,-0.1,-0.125,-0.095,-0.08,-0.107
-0.058,0.082,0.139,-0.012,-0.099,0.11,-0.08,-0.1,-0.125,-0.095,-0.08,-0.112
-0.049,0.085,0.134,-0.019,-0.092,0.11,-0.08,-0.1,-0.125,-0.095,-0.08,-0.107
-0.048,0.085,0.133,-0.019,-0.091,0.109,-0.079,-0.099,-0.125,-0.095,-0.08,-0.118
-0.044,0.085,0.129,-0.02,-0.087,0.106,-0.083,-0.103,-0.124,-0.095,-0.08,-0.149
-0.048,0.085,0.133,-0.019,-0.091,0.109,-0.085,-0.105,-0.12,-0.095,-0.08,-0.166
-0.057,0.085,0.142,-0.014,-0.1,0.113,-0.085,-0.105,-0.12,-0.095,-0.08,-0.172
-0.064,0.082,0.145,-0.01,-0.105,0.113,-0.088,-0.105,-0.119,-0.095,-0.08,-0.176
-0.066,0.079,0.145,-0.007,-0.105,0.111,-0.091,-0.105,-0.121,-0.095,-0.08,-0.174
-0.069,0.076,0.145,-0.004,-0.107,0.111,-0.089,-0.105,-0.118,-0.096,-0.08,-0.175
-0.072,0.073,0.145,-0.001,-0.109,0.109,-0.086,-0.105,-0.125,-0.1,-0.08,-0.175
-0.074,0.071,0.144,0.001,-0.109,0.107,-0.085,-0.108,-0.136,-0.1,-0.08,-0.175
-0.072,0.068,0.14,0.002,-0.106,0.104,-0.085,-0.11,-0.135,-0.102,-0.08,-0.174
-0.069,0.065,0.135,0.002,-0.102,0.1,-0.085,-0.11,-0.134,-0.105,-0.08,-0.169
-0.066,0.064,0.131,0.001,-0.099,0.097,-0.085,-0.11,-0.13,-0.105,-0.08,-0.166
-0.066,0.061,0.126,0.002,-0.096,0.093,-0.087,-0.11,-0.13,-0.101,-0.08,-0.163
-0.062,0.059,0.121,0.001,-0.091,0.09,-0.09,-0.109,-0.128,-0.1,-0.08,-0.158
-0.053,0.069,0.122,-0.008,-0.088,0.095,-0.093,-0.104,-0.124,-0.1,-0.08,-0.155
-0.058,0.071,0.129,-0.007,-0.094,0.1,-0.096,-0.098,-0.125,-0.095,-0.08,-0.148
-0.068,0.067,0.135,0.0,-0.102,0.101,-0.099,-0.094,-0.121,-0.095,-0.078,-0.132
-0.064,0.065,0.13,-0.001,-0.098,0.097,-0.1,-0.088,-0.12,-0.094,-0.074,-0.123
-0.064,0.061,0.125,0.002,-0.095,0.092,-0.095,-0.081,-0.12,-0.089,-0.072,-0.126
-0.06,0.061,0.12,-0.001,-0.09,0.09,-0.09,-0.087,-0.125,-0.09,-0.069,-0.131
-0.055,0.061,0.116,-0.004,-0.086,0.089,-0.086,-0.096,-0.125,-0.088,-0.066,-0.134
-0.04,0.072,0.112,-0.016,-0.076,0.092,-0.081,-0.095,-0.126,-0.084,-0.065,-0.14
-0.018,0.089,0.107,-0.035,-0.063,0.098,-0.077,-0.094,-0.125,-0.086,-0.06,-0.154
-0.024,0.096,0.121,-0.036,-0.073,0.108,-0.071,-0.097,-0.126,-0.078,-0.052,-0.156
-0.019,0.095,0.115,-0.038,-0.067,0.105,-0.063,-0.075,-0.118,-0.063,-0.046,-0.152
-0.022,0.112,0.134,-0.045,-0.078,0.123,-0.038,-0.038,-0.08,-0.05,-0.039,-0.15
-0.018,0.136,0.154,-0.059,-0.086,0.144,-0.008,-0.033,-0.067,-0.042,-0.031,-0.146
-0.003,0.137,0.14,-0.067,-0.071,0.138,-0.006,-0.036,-0.072,-0.037,-0.033,-0.145
0.006,0.15,0.144,-0.078,-0.069,0.147,-0.019,-0.034,-0.069,-0.034,-0.035,-0.141
0.022,0.151,0.129,-0.087,-0.054,0.14,-0.052,-0.042,-0.077,-0.036,-0.036,-0.14
0.006,0.145,0.139,-0.076,-0.067,0.142,-0.08,-0.056,-0.073,-0.033,-0.04,-0.14
0.018,0.117,0.099,-0.068,-0.04,0.108,-0.086,-0.078,-0.082,-0.04,-0.04,-0.141
-0.002,0.069,0.071,-0.034,-0.036,0.07,-0.09,-0.108,-0.106,-0.061,-0.056,-0.138
-0.042,0.042,0.084,0.0,-0.063,0.063,-0.088,-0.097,-0.106,-0.068,-0.072,-0.144
-0.029,0.039,0.068,-0.005,-0.049,0.053,-0.082,-0.116,-0.126,-0.082,-0.072,-0.16
-0.047,0.021,0.069,0.013,-0.058,0.045,-0.082,-0.102,-0.125,-0.087,-0.073,-0.176
-0.057,0.019,0.076,0.018,-0.066,0.047,-0.073,-0.1,-0.126,-0.09,-0.068,-0.156
-0.048,0.008,0.056,0.02,-0.052,0.032,-0.08,-0.091,-0.125,-0.091,-0.072,-0.116
-0.055,-0.004,0.051,0.029,-0.053,0.023,-0.081,-0.076,-0.125,-0.088,-0.072,-0.113
-0.073,0.068,0.142,0.002,-0.108,0.105,0.047,0.024,-0.109,-0.091,-0.072,-0.127
0.03,0.201,0.171,-0.116,-0.071,0.186,0.301,0.657,0.183,0.1,0.039,-0.048
0.258,0.715,0.457,-0.487,-0.1,0.585,0.369,0.586,0.698,0.63,0.514,0.353
0.436,0.981,0.545,-0.709,-0.055,0.763,-0.185,-0.329,1.105,1.15,1.0,0.796
0.309,0.46,0.152,-0.385,0.078,0.306,-0.695,-0.888,0.587,0.747,0.686,0.557
-0.06,-0.053,0.006,0.056,-0.033,-0.024,-0.58,-1.008,-0.369,-0.153,-0.026,-0.073
-0.141,-0.255,-0.114,0.198,-0.013,-0.184,-0.393,-0.594,-0.495,-0.343,-0.215,-0.276
-0.088,-0.177,-0.089,0.133,0.001,-0.133,-0.207,-0.228,-0.311,-0.223,-0.14,-0.227
-0.085,-0.048,0.036,0.066,-0.06,-0.006,-0.072,-0.081,-0.204,-0.165,-0.103,-0.211
-0.049,-0.016,0.033,0.032,-0.041,0.008,-0.06,-0.012,-0.136,-0.117,-0.069,-0.18
-0.066,0.014,0.08,0.025,-0.073,0.047,-0.036,-0.023,-0.129,-0.115,-0.074,-0.18
-0.061,0.014,0.074,0.023,-0.068,0.044,-0.036,0.004,-0.107,-0.094,-0.063,-0.174
-0.04,0.032,0.072,0.003,-0.056,0.052,-0.024,-0.003,-0.107,-0.09,-0.062,-0.172
-0.023,0.054,0.077,-0.016,-0.05,0.066,-0.025,0.012,-0.091,-0.078,-0.057,-0.167
-0.041,0.055,0.096,-0.007,-0.069,0.075,-0.025,0.016,-0.087,-0.071,-0.052,-0.164
-0.049,0.054,0.103,-0.003,-0.077,0.078,-0.019,0.017,-0.077,-0.062,-0.047,-0.158
-0.039,0.051,0.09,-0.006,-0.065,0.07,-0.021,0.033,-0.071,-0.056,-0.04,-0.147
-0.049,0.049,0.097,0.0,-0.073,0.073,-0.018,0.047,-0.06,-0.051,-0.037,-0.134
-0.033,0.052,0.084,-0.01,-0.059,0.068,-0.011,0.049,-0.044,-0.045,-0.029,-0.095
-0.048,0.047,0.094,0.0,-0.071,0.07,0.001,0.057,-0.031,-0.034,-0.026,-0.079
-0.062,0.065,0.128,-0.002,-0.095,0.096,0.009,0.082,-0.014,-0.014,-0.016,-0.075
-0.027,0.104,0.131,-0.039,-0.079,0.117,0.022,0.122,0.011,0.009,-0.001,-0.07
-0.032,0.106,0.137,-0.037,-0.085,0.121,0.034,0.16,0.036,0.025,0.002,-0.067
-0.044,0.118,0.163,-0.037,-0.104,0.141,0.043,0.199,0.06,0.045,0.031,-0.061
0.012,0.168,0.156,-0.09,-0.072,0.162,0.051,0.266,0.103,0.086,0.06,-0.058
0.043,0.208,0.165,-0.126,-0.061,0.186,0.06,0.321,0.143,0.125,0.082,-0.047
0.042,0.232,0.191,-0.137,-0.075,0.211,0.07,0.354,0.175,0.159,0.121,-0.038
0.069,0.264,0.195,-0.166,-0.063,0.229,0.07,0.366,0.198,0.19,0.143,-0.014
0.08,0.287,0.207,-0.183,-0.064,0.246,0.07,0.355,0.199,0.203,0.159,0.007
0.077,0.278,0.201,-0.178,-0.062,0.239,0.07,0.326,0.193,0.193,0.153,-0.001
0.063,0.263,0.2,-0.164,-0.068,0.231,0.07,0.277,0.183,0.177,0.145,-0.008
0.043,0.237,0.194,-0.14,-0.076,0.215,0.068,0.228,0.145,0.149,0.138,-0.012
0.046,0.191,0.145,-0.119,-0.049,0.168,0.059,0.174,0.1,0.096,0.092,-0.041
0.032,0.143,0.112,-0.088,-0.04,0.127,0.051,0.114,0.058,0.048,0.044,-0.073
-0.001,0.101,0.102,-0.05,-0.051,0.101,0.041,0.069,0.014,0.017,0.009,-0.097
-0.012,0.073,0.085,-0.031,-0.048,0.079,0.028,0.045,-0.007,-0.008,-0.008,-0.121
-0.02,0.054,0.075,-0.017,-0.048,0.064,0.018,0.035,-0.012,-0.024,-0.018,-0.129
-0.031,0.039,0.07,-0.005,-0.051,0.055,0.012,0.022,-0.019,-0.03,-0.031,-0.136
-0.028,0.034,0.062,-0.003,-0.045,0.047,0.007,0.017,-0.026,-0.037,-0.038,-0.133
-0.021,0.035,0.057,-0.007,-0.04,0.046,0.004,0.021,-0.028,-0.04,-0.041,-0.129
-0.024,0.035,0.059,-0.006,-0.042,0.047,-0.002,0.019,-0.022,-0.04,-0.039,-0.131
-0.026,0.034,0.06,-0.004,-0.044,0.047,-0.005,0.024,-0.017,-0.04,-0.034,-0.126
-0.025,0.037,0.062,-0.006,-0.044,0.049,0.0,0.025,-0.014,-0.04,-0.031,-0.125
-0.04,0.029,0.069,0.005,-0.055,0.049,0.004,0.025,-0.009,-0.04,-0.028,-0.124
-0.022,0.044,0.066,-0.011,-0.044,0.055,0.006,0.036,-0.005,-0.036,-0.023,-0.137
-0.002,0.061,0.063,-0.03,-0.033,0.061,0.011,0.041,-0.01,-0.035,-0.02,-0.153
-0.028,0.051,0.079,-0.012,-0.054,0.065,0.015,0.039,-0.01,-0.035,-0.024,-0.161
-0.042,0.048,0.09,-0.003,-0.066,0.069,0.013,0.04,-0.011,-0.03,-0.025,-0.166
-0.041,0.041,0.082,0.0,-0.061,0.061,0.009,0.04,-0.016,-0.03,-0.025,-0.162
-0.041,0.037,0.077,0.002,-0.059,0.057,0.007,0.04,-0.014,-0.03,-0.03,-0.16
-0.038,0.034,0.072,0.002,-0.055,0.053,0.004,0.034,-0.018,-0.03,-0.03,-0.156
-0.028,0.036,0.064,-0.004,-0.046,0.05,0.001,0.027,-0.024,-0.03,-0.03,-0.155
-0.038,0.033,0.072,0.002,-0.056,0.052,-0.001,0.021,-0.031,-0.03,-0.03,-0.158
-0.038,0.039,0.077,-0.001,-0.057,0.058,-0.005,0.014,-0.022,-0.029,-0.03,-0.161
-0.014,0.051,0.065,-0.019,-0.04,0.058,-0.01,0.007,-0.03,-0.037,-0.03,-0.159
-0.015,0.039,0.053,-0.012,-0.034,0.046,-0.014,-0.006,-0.057,-0.048,-0.03,-0.161
-0.032,0.025,0.057,0.003,-0.045,0.041,-0.019,-0.017,-0.053,-0.054,-0.029,-0.157
-0.052,0.014,0.065,0.019,-0.059,0.039,-0.023,-0.034,-0.06,-0.059,-0.041,-0.112
-0.032,0.026,0.058,0.003,-0.045,0.042,-0.028,-0.042,-0.07,-0.06,-0.051,-0.073
-0.018,0.036,0.054,-0.009,-0.036,0.045,-0.03,-0.039,-0.071,-0.065,-0.049,-0.042
-0.026,0.026,0.051,0.0,-0.039,0.038,-0.03,-0.041,-0.075,-0.064,-0.05,-0.015
-0.019,0.023,0.043,-0.003,-0.031,0.033,-0.03,-0.04,-0.077,-0.059,-0.05,-0.017
-0.038,0.016,0.054,0.011,-0.046,0.034,-0.03,-0.04,-0.081,-0.06,-0.05,-0.023
-0.044,0.011,0.056,0.016,-0.05,0.033,-0.029,-0.039,-0.077,-0.06,-0.046,-0.029
-0.04,0.006,0.046,0.016,-0.043,0.026,-0.026,-0.042,-0.075,-0.06,-0.044,-0.033
-0.038,-0.001,0.038,0.019,-0.038,0.018,-0.025,-0.046,-0.075,-0.06,-0.045,-0.047
-0.032,-0.004,0.027,0.018,-0.029,0.011,-0.025,-0.045,-0.075,-0.056,-0.044,-0.057
-0.048,-0.011,0.037,0.029,-0.042,0.013,-0.025,-0.045,-0.075,-0.054,-0.046,-0.054
-0.033,-0.016,0.017,0.024,-0.024,0.0,-0.025,-0.045,-0.074,-0.055,-0.043,-0.055
-0.019,-0.021,-0.002,0.02,-0.008,-0.012,-0.025,-0.045,-0.071,-0.055,-0.04,-0.05
-0.028,-0.029,0.0,0.029,-0.014,-0.014,-0.025,-0.044,-0.066,-0.055,-0.037,-0.05
-0.024,-0.032,-0.008,0.029,-0.008,-0.02,-0.025,-0.04,-0.064,-0.054,-0.035,-0.049
-0.031,-0.037,-0.006,0.034,-0.012,-0.021,-0.025,-0.038,-0.059,-0.05,-0.032,-0.044
-0.013,-0.043,-0.03,0.028,0.009,-0.037,-0.025,-0.035,-0.056,-0.05,-0.029,-0.04
-0.007,-0.06,-0.053,0.033,0.024,-0.056,-0.025,-0.032,-0.052,-0.048,-0.034,-0.038
-0.027,-0.076,-0.049,0.051,0.012,-0.062,-0.02,-0.03,-0.05,-0.045,-0.035,-0.033
-0.025,-0.075,-0.05,0.05,0.013,-0.062,-0.015,-0.03,-0.05,-0.045,-0.035,-0.03
-0.02,-0.077,-0.057,0.049,0.019,-0.067,-0.011,-0.03,-0.046,-0.045,-0.035,-0.033
-0.022,-0.086,-0.065,0.054,0.022,-0.075,-0.006,-0.03,-0.045,-0.045,-0.035,-0.036
-0.003,-0.083,-0.08,0.044,0.039,-0.081,-0.001,-0.03,-0.045,-0.045,-0.034,-0.033
0.007,-0.09,-0.097,0.042,0.052,-0.093,-0.002,-0.03,-0.039,-0.045,-0.029,0.0
-0.014,-0.109,-0.095,0.062,0.04,-0.102,-0.007,-0.029,-0.033,-0.045,-0.026,0.017
-0.016,-0.11,-0.094,0.064,0.039,-0.102,-0.009,-0.025,-0.026,-0.044,-0.023,0.006
-0.013,-0.11,-0.097,0.062,0.042,-0.103,-0.006,-0.025,-0.019,-0.04,-0.018,0.002
-0.018,-0.109,-0.091,0.064,0.037,-0.099,-0.001,-0.023,-0.012,-0.04,-0.015,-0.008
-0.011,-0.117,-0.106,0.064,0.048,-0.111,0.001,-0.019,-0.008,-0.04,-0.011,-0.013
-0.015,-0.137,-0.122,0.076,0.054,-0.129,0.005,-0.021,-0.003,-0.04,-0.01,-0.022
-0.016,-0.13,-0.115,0.074,0.05,-0.122,0.01,-0.016,0.002,-0.041,-0.01,-0.032
-0.012,-0.125,-0.114,0.069,0.051,-0.119,0.01,-0.009,0.006,-0.036,-0.006,-0.041
-0.027,-0.134,-0.107,0.081,0.04,-0.12,0.011,-0.002,0.011,-0.026,-0.005,-0.046
-0.005,-0.113,-0.107,0.059,0.052,-0.11,0.008,0.005,0.015,-0.018,-0.005,-0.032
0.013,-0.072,-0.085,0.03,0.05,-0.079,0.043,0.011,0.033,-0.008,0.013,-0.012
0.01,-0.052,-0.062,0.021,0.036,-0.057,0.081,0.036,0.057,0.006,0.029,0.004
0.03,-0.041,-0.071,0.005,0.051,-0.056,0.064,0.045,0.064,0.024,0.029,0.017
0.024,-0.035,-0.058,0.006,0.041,-0.047,0.05,0.03,0.058,0.038,0.024,0.027
0.008,-0.047,-0.056,0.02,0.032,-0.051,0.024,0.023,0.051,0.031,0.019,0.031
0.026,-0.038,-0.065,0.006,0.046,-0.051,-0.001,0.007,0.044,0.02,0.015,0.035
0.045,-0.063,-0.109,0.009,0.077,-0.086,-0.01,0.003,0.037,0.008,0.009,0.035
0.025,-0.107,-0.132,0.041,0.079,-0.119,-0.014,-0.013,0.019,-0.007,0.006,0.037
0.009,-0.126,-0.135,0.059,0.073,-0.131,-0.01,-0.017,0.004,-0.019,-0.001,0.039
-0.016,-0.157,-0.141,0.087,0.063,-0.149,-0.011,-0.035,-0.005,-0.039,-0.006,0.041
-0.042,-0.173,-0.132,0.108,0.045,-0.152,-0.008,-0.037,-0.011,-0.047,-0.015,0.037
-0.026,-0.17,-0.144,0.099,0.059,-0.157,-0.013,-0.023,-0.01,-0.042,-0.021,0.029
-0.047,-0.165,-0.117,0.106,0.035,-0.141,-0.005,-0.037,-0.023,-0.048,-0.03,0.022
-0.029,-0.183,-0.154,0.106,0.062,-0.168,-0.012,-0.005,-0.016,-0.042,-0.036,-0.005
-0.05,-0.131,-0.082,0.091,0.016,-0.106,0.069,0.007,-0.012,-0.06,-0.038,-0.043
0.001,-0.039,-0.04,0.019,0.02,-0.039,0.294,0.567,0.192,0.057,0.015,-0.021
0.231,0.402,0.17,-0.317,0.03,0.286,0.434,0.835,0.675,0.514,0.414,0.318
0.423,0.832,0.409,-0.628,0.006,0.621,0.078,0.003,1.146,1.105,0.968,0.835
0.402,0.464,0.061,-0.433,0.17,0.262,-0.507,-0.713,0.871,0.953,0.852,0.781
0.03,-0.118,-0.148,0.044,0.089,-0.133,-0.547,-0.966,-0.09,0.041,0.131,0.17
-0.142,-0.398,-0.256,0.27,0.057,-0.327,-0.37,-0.676,-0.433,-0.334,-0.204,-0.152
-0.04,-0.366,-0.326,0.203,0.143,-0.346,-0.213,-0.258,-0.263,-0.227,-0.14,-0.114
-0.015,-0.224,-0.209,0.12,0.098,-0.216,-0.038,-0.079,-0.152,-0.172,-0.098,-0.09
0.015,-0.181,-0.196,0.083,0.106,-0.189,-0.021,0.009,-0.078,-0.112,-0.058,-0.073
0.021,-0.157,-0.178,0.068,0.1,-0.167,-0.002,0.002,-0.065,-0.107,-0.059,-0.06
0.032,-0.156,-0.188,0.063,0.11,-0.172,0.002,0.034,-0.039,-0.088,-0.055,-0.054
0.032,-0.151,-0.183,0.06,0.108,-0.167,0.006,0.028,-0.033,-0.081,-0.05,-0.045
0.029,-0.146,-0.175,0.059,0.102,-0.16,0.015,0.033,-0.022,-0.075,-0.048,-0.045
0.027,-0.143,-0.17,0.059,0.099,-0.156,0.015,0.038,-0.017,-0.066,-0.042,-0.023
0.019,-0.139,-0.158,0.06,0.088,-0.148,0.022,0.036,-0.013,-0.063,-0.04,0.009
0.023,-0.13,-0.154,0.054,0.089,-0.142,0.02,0.047,-0.004,-0.052,-0.033,0.009
0.038,-0.114,-0.152,0.038,0.096,-0.133,0.026,0.055,0.004,-0.042,-0.032,0.0
0.052,-0.103,-0.155,0.026,0.103,-0.128,0.024,0.071,0.016,-0.025,-0.023,-0.005
0.037,-0.092,-0.129,0.028,0.083,-0.111,0.031,0.08,0.031,-0.016,-0.012,-0.013
0.028,-0.082,-0.11,0.027,0.069,-0.096,0.036,0.107,0.048,-0.004,0.001,-0.019
0.037,-0.073,-0.111,0.018,0.074,-0.092,0.034,0.131,0.066,0.01,0.008,-0.016
0.05,-0.058,-0.107,0.004,0.079,-0.082,0.047,0.159,0.078,0.027,0.029,-0.005
0.066,-0.021,-0.088,-0.022,0.078,-0.054,0.063,0.213,0.085,0.048,0.048,0.004
0.079,0.009,-0.07,-0.044,0.074,-0.03,0.072,0.265,0.112,0.077,0.064,0.022
0.097,0.033,-0.065,-0.065,0.081,-0.016,0.082,0.323,0.153,0.119,0.099,0.043
0.127,0.069,-0.058,-0.098,0.092,0.005,0.087,0.371,0.197,0.16,0.137,0.081
0.145,0.101,-0.043,-0.123,0.094,0.028,0.093,0.387,0.225,0.196,0.168,0.12
0.144,0.12,-0.024,-0.131,0.084,0.047,0.095,0.386,0.224,0.209,0.183,0.137
0.152,0.128,-0.023,-0.14,0.088,0.052,0.095,0.37,0.212,0.2,0.179,0.144
0.154,0.111,-0.043,-0.132,0.098,0.034,0.095,0.33,0.198,0.189,0.182,0.138
0.137,0.074,-0.064,-0.105,0.101,0.005,0.095,0.273,0.17,0.173,0.169,0.128
0.129,0.038,-0.09,-0.083,0.109,-0.026,0.105,0.215,0.131,0.132,0.119,0.1
0.08,-0.028,-0.108,-0.025,0.094,-0.068,0.099,0.162,0.09,0.076,0.074,0.072
0.056,-0.075,-0.131,0.01,0.093,-0.102,0.082,0.116,0.054,0.036,0.037,0.063
0.074,-0.091,-0.164,0.009,0.119,-0.127,0.069,0.076,0.023,0.007,0.004,0.05
0.041,-0.13,-0.171,0.045,0.106,-0.15,0.051,0.051,-0.002,-0.011,-0.012,0.039
0.022,-0.142,-0.165,0.06,0.093,-0.153,0.04,0.05,-0.019,-0.023,-0.021,0.028
0.022,-0.138,-0.16,0.058,0.091,-0.149,0.04,0.05,-0.022,-0.032,-0.023,0.016
0.011,-0.144,-0.155,0.067,0.083,-0.15,0.04,0.05,-0.016,-0.031,-0.018,0.005
-0.007,-0.159,-0.151,0.083,0.073,-0.155,0.04,0.05,-0.012,-0.025,-0.015,-0.005
-0.022,-0.169,-0.146,0.096,0.062,-0.157,0.04,0.051,-0.007,-0.021,-0.012,-0.012
-0.025,-0.168,-0.143,0.097,0.059,-0.155,0.04,0.054,-0.003,-0.016,-0.007,-0.02
-0.028,-0.167,-0.138,0.097,0.055,-0.152,0.044,0.056,0.002,-0.012,-0.004,-0.023
-0.024,-0.158,-0.135,0.092,0.056,-0.146,0.046,0.072,0.007,-0.007,-0.001,-0.02
-0.025,-0.157,-0.132,0.091,0.054,-0.144,0.042,0.082,0.013,-0.005,0.0,-0.015
-0.023,-0.15,-0.127,0.087,0.052,-0.138,0.04,0.083,0.019,-0.005,0.0,-0.013
-0.023,-0.148,-0.125,0.086,0.051,-0.136,0.036,0.08,0.017,-0.005,0.0,-0.008
-0.015,-0.14,-0.125,0.078,0.055,-0.132,0.034,0.075,0.011,-0.005,0.0,-0.006
-0.001,-0.126,-0.125,0.064,0.062,-0.125,0.03,0.073,0.007,-0.005,-0.002,-0.004
-0.024,-0.149,-0.125,0.087,0.051,-0.137,0.031,0.068,0.002,-0.01,-0.006,-0.006
-0.033,-0.158,-0.125,0.096,0.046,-0.141,0.041,0.065,-0.002,-0.015,-0.008,-0.004
-0.028,-0.153,-0.125,0.091,0.049,-0.139,0.038,0.059,-0.006,-0.019,-0.011,-0.006
-0.032,-0.157,-0.124,0.095,0.047,-0.141,0.032,0.046,-0.012,-0.024,-0.014,-0.002
-0.028,-0.153,-0.126,0.091,0.049,-0.14,0.029,0.035,-0.019,-0.028,-0.015,0.036
-0.033,-0.157,-0.123,0.096,0.046,-0.14,0.023,0.027,-0.026,-0.033,-0.015,0.057
-0.03,-0.16,-0.13,0.095,0.05,-0.145,0.02,0.021,-0.033,-0.039,-0.015,0.045
-0.019,-0.16,-0.141,0.09,0.061,-0.15,0.014,0.014,-0.039,-0.046,-0.015,0.038
-0.02,-0.16,-0.14,0.09,0.06,-0.15,0.009,0.007,-0.043,-0.049,-0.015,0.029
-0.02,-0.16,-0.14,0.09,0.06,-0.15,0.004,0.001,-0.048,-0.052,-0.015,0.013
-0.02,-0.16,-0.14,0.09,0.06,-0.15,-0.002,-0.005,-0.051,-0.054,-0.017,-0.005
-0.019,-0.158,-0.14,0.088,0.061,-0.149,-0.008,-0.013,-0.057,-0.058,-0.028,-0.014
-0.013,-0.155,-0.142,0.084,0.065,-0.148,-0.012,-0.019,-0.064,-0.065,-0.034,-0.022
-0.008,-0.154,-0.146,0.082,0.069,-0.15,-0.018,-0.027,-0.065,-0.065,-0.037,-0.031
-0.012,-0.156,-0.144,0.084,0.066,-0.15,-0.021,-0.034,-0.065,-0.065,-0.04,-0.037
-0.007,-0.153,-0.146,0.08,0.07,-0.15,-0.026,-0.041,-0.065,-0.065,-0.043,-0.037
-0.018,-0.164,-0.146,0.091,0.064,-0.155,-0.03,-0.045,-0.065,-0.065,-0.045,-0.034
-0.03,-0.176,-0.147,0.103,0.059,-0.161,-0.03,-0.045,-0.065,-0.066,-0.046,-0.031
-0.006,-0.175,-0.168,0.09,0.082,-0.171,-0.03,-0.05,-0.066,-0.069,-0.05,-0.028
-0.004,-0.174,-0.17,0.089,0.083,-0.172,-0.03,-0.05,-0.074,-0.07,-0.05,-0.025
0.005,-0.169,-0.174,0.082,0.089,-0.172,-0.03,-0.05,-0.075,-0.07,-0.05,-0.024
0.017,-0.171,-0.187,0.077,0.102,-0.179,-0.03,-0.05,-0.075,-0.07,-0.05,-0.026
0.013,-0.169,-0.182,0.078,0.098,-0.175,-0.03,-0.05,-0.075,-0.07,-0.05,-0.024
0.009,-0.172,-0.181,0.082,0.095,-0.177,-0.03,-0.05,-0.075,-0.07,-0.05,-0.027
-0.013,-0.189,-0.176,0.101,0.082,-0.182,-0.03,-0.05,-0.075,-0.07,-0.05,-0.01
-0.015,-0.191,-0.176,0.103,0.081,-0.183,-0.03,-0.049,-0.075,-0.07,-0.048,0.027
-0.018,-0.189,-0.171,0.104,0.077,-0.18,-0.03,-0.045,-0.075,-0.07,-0.044,0.026
-0.02,-0.186,-0.165,0.103,0.073,-0.175,-0.03,-0.045,-0.075,-0.07,-0.045,0.015
-0.007,-0.185,-0.178,0.096,0.086,-0.181,-0.03,-0.045,-0.075,-0.07,-0.045,0.009
-0.003,-0.185,-0.182,0.094,0.09,-0.183,-0.03,-0.045,-0.071,-0.07,-0.045,-0.003
-0.007,-0.185,-0.178,0.096,0.086,-0.181,-0.03,-0.045,-0.07,-0.069,-0.045,-0.009
-0.011,-0.188,-0.177,0.1,0.083,-0.182,-0.03,-0.049,-0.07,-0.073,-0.04,-0.019
-0.017,-0.191,-0.174,0.104,0.078,-0.181,-0.031,-0.055,-0.071,-0.077,-0.04,-0.024
-0.015,-0.19,-0.175,0.103,0.08,-0.182,-0.027,-0.055,-0.07,-0.069,-0.039,-0.016
-0.003,-0.19,-0.187,0.096,0.092,-0.188,-0.019,-0.054,-0.072,-0.061,-0.035,-0.009
-0.006,-0.192,-0.186,0.099,0.09,-0.189,-0.009,-0.056,-0.077,-0.053,-0.035,-0.003
0.006,-0.171,-0.177,0.083,0.092,-0.174,-0.002,-0.04,-0.052,-0.045,-0.033,0.005
0.015,-0.131,-0.146,0.058,0.081,-0.138,0.02,-0.001,-0.033,-0.041,-0.025,0.016
0.027,-0.087,-0.114,0.031,0.071,-0.1,0.05,0.025,-0.035,-0.036,-0.021,0.038
0.04,-0.076,-0.116,0.019,0.078,-0.096,0.034,0.023,-0.035,-0.034,-0.018,0.054
0.029,-0.08,-0.109,0.025,0.069,-0.094,0.006,0.009,-0.035,-0.029,-0.015,0.057
0.03,-0.081,-0.111,0.026,0.071,-0.096,-0.013,-0.005,-0.035,-0.026,-0.013,0.071
0.047,-0.097,-0.145,0.025,0.096,-0.121,-0.035,-0.022,-0.036,-0.026,-0.009,0.069
0.031,-0.123,-0.154,0.046,0.093,-0.139,-0.036,-0.052,-0.05,-0.04,-0.017,0.07
-0.007,-0.166,-0.159,0.087,0.076,-0.163,-0.032,-0.064,-0.075,-0.067,-0.041,0.084
-0.008,-0.177,-0.169,0.093,0.08,-0.173,-0.034,-0.061,-0.08,-0.077,-0.054,0.071
-0.039,-0.187,-0.148,0.113,0.055,-0.167,-0.024,-0.083,-0.089,-0.085,-0.058,0.06
-0.042,-0.205,-0.163,0.124,0.06,-0.184,-0.044,-0.07,-0.096,-0.084,-0.068,0.05
-0.039,-0.18,-0.141,0.11,0.051,-0.161,-0.05,-0.099,-0.115,-0.087,-0.078,0.035
-0.015,-0.191,-0.176,0.103,0.081,-0.183,-0.061,-0.068,-0.105,-0.083,-0.084,0.004
-0.036,-0.167,-0.131,0.102,0.048,-0.149,-0.032,-0.083,-0.117,-0.107,-0.073,-0.026
-0.056,-0.106,-0.05,0.081,-0.003,-0.077,0.162,0.25,-0.011,-0.06,-0.055,-0.033
0.143,0.185,0.042,-0.164,0.051,0.113,0.372,0.845,0.396,0.269,0.185,0.169
0.36,0.728,0.368,-0.544,-0.004,0.548,0.249,0.373,0.944,0.88,0.763,0.695
0.45,0.656,0.206,-0.553,0.122,0.431,-0.33,-0.493,1.048,1.104,0.977,0.927
0.151,0.056,-0.096,-0.104,0.123,-0.02,-0.602,-0.938,0.194,0.344,0.367,0.429
-0.168,-0.345,-0.176,0.257,0.004,-0.26,-0.448,-0.875,-0.465,-0.317,-0.187,-0.074
-0.132,-0.436,-0.304,0.284,0.086,-0.37,-0.305,-0.419,-0.416,-0.316,-0.209,-0.118
-0.079,-0.3,-0.22,0.19,0.071,-0.26,-0.113,-0.17,-0.272,-0.224,-0.141,-0.063
-0.044,-0.21,-0.166,0.128,0.061,-0.188,-0.047,-0.047,-0.144,-0.154,-0.096,-0.028
-0.047,-0.191,-0.143,0.119,0.048,-0.167,-0.039,-0.037,-0.143,-0.135,-0.088,-0.008
-0.037,-0.176,-0.139,0.107,0.051,-0.157,-0.021,-0.027,-0.118,-0.104,-0.088,-0.006
-0.023,-0.177,-0.155,0.1,0.066,-0.166,-0.026,0.003,-0.097,-0.09,-0.076,0.003
-0.038,-0.166,-0.129,0.102,0.046,-0.148,-0.012,0.005,-0.095,-0.09,-0.076,0.018
-0.034,-0.154,-0.12,0.094,0.043,-0.137,-0.012,0.017,-0.078,-0.078,-0.067,0.05
-0.03,-0.15,-0.119,0.09,0.045,-0.134,-0.004,0.003,-0.078,-0.079,-0.064,0.051
-0.003,-0.123,-0.12,0.063,0.059,-0.121,0.0,0.019,-0.063,-0.069,-0.056,0.047
0.006,-0.105,-0.11,0.05,0.058,-0.107,0.005,0.025,-0.06,-0.069,-0.052,0.045
-0.021,-0.121,-0.1,0.071,0.039,-0.11,0.011,0.032,-0.048,-0.061,-0.046,0.041
-0.02,-0.094,-0.074,0.057,0.027,-0.084,0.012,0.043,-0.043,-0.043,-0.04,0.04
-0.019,-0.087,-0.068,0.053,0.025,-0.077,0.021,0.058,-0.032,-0.03,-0.032,0.044
-0.042,-0.087,-0.045,0.064,0.002,-0.066,0.016,0.085,-0.011,-0.025,-0.026,0.048
-0.003,-0.057,-0.054,0.03,0.026,-0.056,-0.001,0.105,0.018,-0.015,-0.019,0.053
0.026,-0.037,-0.063,0.005,0.045,-0.049,0.01,0.153,0.049,0.005,0.008,0.055
0.022,-0.013,-0.035,-0.004,0.029,-0.024,0.031,0.207,0.072,0.042,0.028,0.065
0.049,0.014,-0.036,-0.031,0.043,-0.011,0.048,0.266,0.117,0.088,0.055,0.095
0.057,0.06,0.002,-0.059,0.027,0.031,0.051,0.322,0.158,0.125,0.098,0.127
0.068,0.101,0.034,-0.085,0.017,0.067,0.049,0.342,0.19,0.17,0.128,0.161
0.072,0.112,0.04,-0.093,0.016,0.076,0.051,0.348,0.199,0.19,0.153,0.183
0.091,0.119,0.027,-0.105,0.032,0.073,0.049,0.341,0.183,0.18,0.155,0.193
0.09,0.111,0.022,-0.101,0.034,0.066,0.052,0.305,0.177,0.175,0.148,0.189
0.063,0.07,0.006,-0.067,0.028,0.038,0.054,0.255,0.158,0.155,0.137,0.174
0.081,0.044,-0.038,-0.062,0.059,0.003,0.064,0.209,0.131,0.114,0.103,0.162
0.033,0.007,-0.026,-0.02,0.03,-0.009,0.065,0.155,0.088,0.07,0.056,0.151
0.023,-0.041,-0.063,0.009,0.044,-0.051,0.061,0.105,0.047,0.031,0.013,0.133
0.028,-0.08,-0.108,0.027,0.068,-0.094,0.049,0.06,0.022,-0.003,-0.02,0.103
-0.012,-0.119,-0.107,0.066,0.048,-0.112,0.022,0.021,-0.003,-0.028,-0.046,0.083
0.001,-0.129,-0.129,0.064,0.065,-0.129,0.013,0.008,-0.022,-0.047,-0.055,0.057
-0.002,-0.135,-0.133,0.069,0.066,-0.134,0.009,0.004,-0.028,-0.057,-0.06,0.023
-0.004,-0.136,-0.132,0.071,0.064,-0.134,0.004,-0.001,-0.024,-0.054,-0.058,0.01
0.007,-0.133,-0.139,0.063,0.073,-0.136,0.001,-0.004,-0.021,-0.051,-0.053,0.004
0.008,-0.131,-0.139,0.062,0.074,-0.135,-0.005,-0.011,-0.018,-0.048,-0.052,-0.003
0.004,-0.129,-0.133,0.063,0.069,-0.131,-0.001,-0.005,-0.015,-0.045,-0.045,-0.011
0.009,-0.132,-0.141,0.062,0.075,-0.136,-0.001,0.0,-0.016,-0.045,-0.047,-0.018
-0.014,-0.148,-0.134,0.081,0.06,-0.141,0.003,0.008,-0.02,-0.045,-0.051,-0.016
-0.027,-0.155,-0.128,0.091,0.051,-0.141,0.004,0.025,-0.02,-0.045,-0.05,-0.015
-0.012,-0.144,-0.132,0.078,0.06,-0.137,0.01,0.032,-0.022,-0.045,-0.049,-0.015
-0.015,-0.136,-0.121,0.076,0.053,-0.128,0.026,0.041,-0.026,-0.045,-0.046,-0.015
-0.008,-0.124,-0.116,0.066,0.054,-0.12,0.019,0.037,-0.025,-0.045,-0.044,-0.015
-0.003,-0.118,-0.114,0.061,0.056,-0.116,0.012,0.026,-0.029,-0.049,-0.047,-0.016
-0.004,-0.119,-0.116,0.062,0.056,-0.117,0.007,0.019,-0.03,-0.05,-0.05,-0.021
-0.002,-0.121,-0.119,0.061,0.059,-0.12,-0.002,0.008,-0.03,-0.05,-0.051,-0.019
0.002,-0.119,-0.122,0.059,0.062,-0.12,-0.006,0.002,-0.03,-0.055,-0.054,-0.022
0.004,-0.12,-0.125,0.059,0.064,-0.122,-0.012,-0.007,-0.031,-0.055,-0.055,-0.008
0.004,-0.124,-0.127,0.06,0.066,-0.125,-0.016,-0.015,-0.038,-0.056,-0.059,0.016
-0.006,-0.136,-0.13,0.071,0.062,-0.133,-0.02,-0.022,-0.043,-0.06,-0.066,0.01
-0.016,-0.147,-0.132,0.082,0.058,-0.139,-0.025,-0.033,-0.055,-0.062,-0.071,0.001
-0.003,-0.14,-0.137,0.072,0.067,-0.138,-0.029,-0.04,-0.071,-0.065,-0.075,-0.007
-0.014,-0.153,-0.139,0.083,0.063,-0.146,-0.041,-0.056,-0.07,-0.077,-0.075,-0.017
-0.027,-0.163,-0.135,0.095,0.054,-0.149,-0.051,-0.067,-0.07,-0.081,-0.075,-0.032
-0.023,-0.155,-0.131,0.089,0.054,-0.143,-0.049,-0.064,-0.07,-0.076,-0.075,-0.05
-0.027,-0.155,-0.128,0.091,0.051,-0.141,-0.05,-0.066,-0.069,-0.074,-0.075,-0.056
-0.025,-0.15,-0.125,0.088,0.05,-0.137,-0.05,-0.069,-0.073,-0.071,-0.079,-0.06
-0.031,-0.15,-0.119,0.091,0.044,-0.135,-0.05,-0.072,-0.075,-0.07,-0.08,-0.06
-0.031,-0.155,-0.123,0.093,0.046,-0.139,-0.054,-0.074,-0.075,-0.07,-0.08,-0.062
-0.018,-0.155,-0.136,0.087,0.059,-0.145,-0.055,-0.078,-0.075,-0.072,-0.08,-0.066
-0.023,-0.156,-0.134,0.09,0.056,-0.145,-0.055,-0.08,-0.075,-0.071,-0.08,-0.064
-0.031,-0.16,-0.129,0.096,0.049,-0.145,-0.055,-0.081,-0.075,-0.068,-0.078,-0.062
-0.03,-0.16,-0.129,0.095,0.05,-0.144,-0.055,-0.085,-0.075,-0.065,-0.075,-0.058
-0.042,-0.162,-0.121,0.103,0.04,-0.141,-0.056,-0.084,-0.075,-0.063,-0.075,-0.057
-0.034,-0.172,-0.138,0.104,0.052,-0.155,-0.065,-0.081,-0.075,-0.059,-0.075,-0.053
-0.011,-0.176,-0.165,0.094,0.078,-0.171,-0.071,-0.078,-0.074,-0.063,-0.075,-0.05
-0.015,-0.181,-0.166,0.098,0.076,-0.173,-0.07,-0.088,-0.079,-0.078,-0.075,-0.048
-0.033,-0.195,-0.162,0.114,0.065,-0.178,-0.07,-0.101,-0.085,-0.081,-0.079,-0.015
-0.018,-0.189,-0.171,0.104,0.077,-0.18,-0.07,-0.1,-0.085,-0.079,-0.08,0.008
0.017,-0.172,-0.19,0.078,0.104,-0.181,-0.069,-0.098,-0.085,-0.08,-0.08,0.0
0.004,-0.187,-0.19,0.092,0.097,-0.188,-0.072,-0.097,-0.086,-0.08,-0.085,-0.002
0.005,-0.177,-0.182,0.087,0.093,-0.179,-0.067,-0.092,-0.085,-0.081,-0.086,-0.007
0.014,-0.177,-0.192,0.082,0.103,-0.185,-0.078,-0.101,-0.089,-0.085,-0.083,-0.033
0.005,-0.189,-0.193,0.092,0.099,-0.191,-0.071,-0.084,-0.088,-0.08,-0.071,-0.048
0.03,-0.132,-0.163,0.051,0.097,-0.147,-0.036,-0.046,-0.049,-0.056,-0.056,-0.042
0.046,-0.106,-0.152,0.03,0.099,-0.128,-0.034,-0.045,-0.021,-0.042,-0.045,-0.039
0.049,-0.095,-0.144,0.023,0.097,-0.119,-0.036,-0.044,-0.019,-0.034,-0.037,-0.036
0.045,-0.084,-0.13,0.02,0.088,-0.107,-0.034,-0.047,-0.021,-0.025,-0.031,-0.031
0.079,-0.083,-0.162,0.002,0.121,-0.122,-0.055,-0.058,-0.018,-0.017,-0.025,-0.031
0.093,-0.086,-0.179,-0.003,0.137,-0.133,-0.078,-0.073,-0.023,-0.014,-0.025,-0.036
0.061,-0.137,-0.198,0.038,0.129,-0.167,-0.085,-0.082,-0.041,-0.038,-0.034,-0.039
0.054,-0.166,-0.22,0.057,0.138,-0.193,-0.085,-0.09,-0.055,-0.056,-0.05,-0.047
0.025,-0.205,-0.23,0.09,0.128,-0.218,-0.085,-0.097,-0.065,-0.059,-0.063,-0.06
0.008,-0.228,-0.236,0.11,0.122,-0.232,-0.085,-0.12,-0.088,-0.08,-0.082,-0.073
0.045,-0.252,-0.297,0.104,0.171,-0.274,-0.084,-0.121,-0.097,-0.085,-0.095,-0.089
0.101,-0.242,-0.343,0.071,0.222,-0.292,-0.088,-0.126,-0.1,-0.092,-0.097,-0.082
0.082,-0.243,-0.325,0.081,0.203,-0.284,-0.101,-0.142,-0.106,-0.101,-0.105,-0.081
0.073,-0.262,-0.334,0.095,0.203,-0.298,-0.106,-0.119,-0.103,-0.103,-0.111,-0.077
0.098,-0.19,-0.288,0.046,0.193,-0.239,0.016,-0.012,-0.085,-0.105,-0.117,-0.066
0.187,-0.082,-0.268,-0.052,0.228,-0.175,0.248,0.626,0.199,0.098,0.01,0.011
0.359,0.395,0.036,-0.377,0.161,0.216,0.321,0.716,0.72,0.615,0.468,0.413
0.479,0.662,0.183,-0.571,0.148,0.422,-0.045,-0.225,1.115,1.115,0.926,0.846
0.374,0.204,-0.17,-0.289,0.272,0.017,-0.516,-0.886,0.646,0.75,0.639,0.62
0.04,-0.245,-0.285,0.103,0.162,-0.264,-0.54,-1.018,-0.266,-0.109,-0.04,0.021
-0.033,-0.479,-0.446,0.256,0.207,-0.462,-0.409,-0.685,-0.484,-0.342,-0.255,-0.2
0.056,-0.478,-0.534,0.212,0.295,-0.506,-0.267,-0.322,-0.362,-0.262,-0.205,-0.159
0.069,-0.346,-0.415,0.138,0.242,-0.38,-0.1,-0.133,-0.208,-0.184,-0.146,-0.136
0.107,-0.306,-0.413,0.1,0.26,-0.359,-0.075,-0.058,-0.142,-0.128,-0.108,-0.11
0.102,-0.291,-0.393,0.094,0.248,-0.342,-0.058,-0.057,-0.14,-0.119,-0.106,-0.102
0.108,-0.289,-0.397,0.091,0.253,-0.343,-0.053,-0.016,-0.098,-0.09,-0.087,-0.093
0.104,-0.286,-0.39,0.091,0.247,-0.338,-0.051,-0.034,-0.099,-0.089,-0.086,-0.085
0.102,-0.282,-0.385,0.09,0.244,-0.333,-0.041,-0.024,-0.076,-0.073,-0.076,-0.076
0.102,-0.281,-0.383,0.09,0.243,-0.332,-0.039,-0.02,-0.073,-0.066,-0.071,-0.067
0.101,-0.278,-0.379,0.088,0.24,-0.328,-0.033,-0.016,-0.064,-0.057,-0.064,-0.059
0.126,-0.266,-0.392,0.07,0.259,-0.329,-0.036,-0.006,-0.06,-0.052,-0.058,-0.05
0.12,-0.25,-0.37,0.065,0.245,-0.31,-0.034,-0.005,-0.053,-0.047,-0.052,-0.039
0.111,-0.248,-0.359,0.069,0.235,-0.303,-0.035,0.02,-0.032,-0.038,-0.043,-0.031
0.124,-0.25,-0.374,0.063,0.249,-0.312,-0.035,0.029,-0.014,-0.027,-0.039,-0.01
0.111,-0.248,-0.359,0.069,0.235,-0.303,-0.035,0.033,-0.001,-0.013,-0.023,0.028
0.132,-0.219,-0.351,0.044,0.242,-0.285,-0.028,0.07,0.011,0.006,-0.003,0.043
0.163,-0.195,-0.357,0.017,0.26,-0.276,-0.017,0.106,0.035,0.038,0.014,0.052
0.146,-0.188,-0.334,0.022,0.24,-0.261,-0.008,0.144,0.055,0.056,0.023,0.065
0.181,-0.148,-0.328,-0.016,0.255,-0.238,0.003,0.203,0.095,0.086,0.044,0.074
0.206,-0.107,-0.313,-0.049,0.26,-0.21,0.009,0.254,0.144,0.131,0.085,0.082
0.218,-0.09,-0.308,-0.064,0.264,-0.199,0.014,0.294,0.18,0.167,0.12,0.098
0.229,-0.089,-0.318,-0.07,0.274,-0.203,0.02,0.299,0.199,0.199,0.152,0.122
0.211,-0.094,-0.304,-0.058,0.258,-0.199,0.025,0.289,0.196,0.202,0.164,0.132
0.224,-0.095,-0.319,-0.064,0.272,-0.207,0.031,0.287,0.189,0.197,0.152,0.127
0.22,-0.102,-0.322,-0.059,0.271,-0.212,0.028,0.251,0.173,0.193,0.145,0.113
0.216,-0.092,-0.308,-0.062,0.262,-0.199,0.038,0.2,0.142,0.162,0.137,0.104
0.212,-0.122,-0.334,-0.045,0.273,-0.228,0.047,0.157,0.106,0.12,0.104,0.086
0.155,-0.2,-0.355,0.022,0.255,-0.277,0.034,0.097,0.072,0.076,0.052,0.037
0.125,-0.246,-0.371,0.06,0.249,-0.308,0.023,0.045,0.043,0.034,0.006,0.009
0.115,-0.272,-0.387,0.079,0.251,-0.329,0.012,0.019,0.004,0.003,-0.022,0.0
0.114,-0.288,-0.402,0.087,0.258,-0.344,-0.001,-0.009,-0.02,-0.014,-0.035,-0.013
0.14,-0.291,-0.432,0.076,0.286,-0.361,-0.013,-0.029,-0.025,-0.03,-0.047,-0.022
0.146,-0.3,-0.446,0.077,0.296,-0.372,-0.02,-0.03,-0.033,-0.038,-0.058,-0.032
0.156,-0.303,-0.459,0.074,0.308,-0.381,-0.024,-0.03,-0.039,-0.035,-0.06,-0.031
0.163,-0.299,-0.462,0.068,0.313,-0.38,-0.023,-0.03,-0.036,-0.033,-0.06,-0.026
0.163,-0.294,-0.457,0.065,0.31,-0.375,-0.019,-0.03,-0.03,-0.03,-0.06,-0.023
0.167,-0.289,-0.456,0.061,0.312,-0.372,-0.02,-0.03,-0.025,-0.026,-0.06,-0.019
0.168,-0.286,-0.454,0.059,0.312,-0.37,-0.017,-0.025,-0.019,-0.025,-0.06,-0.02
0.174,-0.279,-0.453,0.052,0.314,-0.366,-0.014,-0.021,-0.013,-0.021,-0.058,-0.02
0.161,-0.286,-0.447,0.062,0.304,-0.366,-0.016,-0.016,-0.011,-0.02,-0.055,-0.02
0.134,-0.308,-0.442,0.087,0.288,-0.375,-0.019,-0.011,-0.015,-0.02,-0.052,-0.02
0.129,-0.31,-0.439,0.09,0.284,-0.374,-0.023,-0.008,-0.019,-0.016,-0.049,-0.028
0.129,-0.303,-0.432,0.087,0.281,-0.368,-0.025,-0.004,-0.02,-0.015,-0.046,-0.047
0.132,-0.299,-0.431,0.083,0.282,-0.365,-0.025,0.0,-0.02,-0.016,-0.045,-0.055
0.146,-0.294,-0.439,0.074,0.293,-0.366,-0.029,-0.007,-0.021,-0.028,-0.05,-0.057
0.147,-0.291,-0.438,0.072,0.293,-0.364,-0.03,-0.015,-0.026,-0.04,-0.05,-0.06
0.16,-0.284,-0.444,0.063,0.302,-0.364,-0.03,-0.02,-0.024,-0.04,-0.053,-0.06
0.156,-0.29,-0.446,0.067,0.302,-0.368,-0.034,-0.032,-0.032,-0.041,-0.056,-0.067
0.136,-0.304,-0.44,0.084,0.289,-0.371,-0.037,-0.035,-0.048,-0.044,-0.052,-0.071
0.135,-0.306,-0.44,0.086,0.288,-0.372,-0.04,-0.042,-0.053,-0.046,-0.05,-0.07
0.13,-0.304,-0.434,0.087,0.283,-0.369,-0.043,-0.055,-0.054,-0.043,-0.05,-0.07
0.13,-0.306,-0.436,0.088,0.284,-0.371,-0.045,-0.055,-0.05,-0.04,-0.047,-0.07
0.141,-0.304,-0.445,0.082,0.293,-0.374,-0.043,-0.052,-0.05,-0.037,-0.044,-0.07
0.132,-0.306,-0.438,0.087,0.286,-0.372,-0.038,-0.05,-0.048,-0.035,-0.046,-0.065
0.117,-0.309,-0.426,0.096,0.272,-0.368,-0.035,-0.05,-0.044,-0.032,-0.049,-0.06
0.11,-0.31,-0.42,0.1,0.265,-0.365,-0.032,-0.046,-0.045,-0.029,-0.05,-0.056
0.105,-0.31,-0.415,0.103,0.26,-0.362,-0.027,-0.045,-0.049,-0.034,-0.05,-0.051
0.104,-0.306,-0.41,0.101,0.257,-0.358,-0.025,-0.045,-0.05,-0.035,-0.05,-0.046
0.09,-0.317,-0.406,0.114,0.248,-0.361,-0.032,-0.053,-0.052,-0.035,-0.05,-0.044
0.079,-0.321,-0.4,0.121,0.24,-0.361,-0.042,-0.06,-0.057,-0.039,-0.048,-0.045
0.083,-0.319,-0.402,0.118,0.242,-0.36,-0.046,-0.061,-0.052,-0.04,-0.044,-0.045
0.088,-0.321,-0.409,0.117,0.249,-0.364,-0.045,-0.065,-0.052,-0.039,-0.045,-0.045
0.084,-0.319,-0.403,0.118,0.244,-0.361,-0.045,-0.067,-0.042,-0.033,-0.045,-0.045
0.075,-0.32,-0.395,0.123,0.235,-0.357,-0.045,-0.071,-0.047,-0.027,-0.045,-0.045
0.084,-0.303,-0.387,0.11,0.236,-0.345,-0.045,-0.066,-0.035,-0.021,-0.045,-0.053
0.084,-0.294,-0.379,0.105,0.232,-0.336,-0.028,-0.063,-0.038,-0.017,-0.033,-0.055
0.108,-0.264,-0.371,0.078,0.24,-0.317,0.005,-0.034,-0.028,-0.008,-0.017,-0.048
0.135,-0.22,-0.355,0.042,0.246,-0.287,0.012,-0.005,-0.008,0.003,-0.011,-0.045
0.13,-0.214,-0.345,0.042,0.238,-0.279,0.031,-0.015,-0.012,0.016,-0.006,-0.04
0.127,-0.215,-0.342,0.044,0.235,-0.278,0.006,-0.027,0.007,0.028,-0.001,-0.035
0.14,-0.211,-0.35,0.036,0.245,-0.28,-0.033,-0.037,-0.043,0.018,0.005,-0.039
0.163,-0.207,-0.37,0.022,0.267,-0.288,-0.047,-0.051,0.007,0.006,0.01,-0.043
0.151,-0.25,-0.402,0.05,0.277,-0.326,-0.078,-0.076,-0.084,-0.009,-0.002,-0.048
0.141,-0.292,-0.434,0.076,0.288,-0.363,-0.057,-0.087,-0.008,-0.022,-0.018,-0.051
0.114,-0.318,-0.432,0.102,0.274,-0.375,-0.088,-0.089,-0.135,-0.04,-0.038,-0.06
0.077,-0.347,-0.424,0.135,0.251,-0.385,-0.041,-0.092,-0.492,-0.064,-0.058,-0.074
0.073,-0.351,-0.424,0.139,0.249,-0.387,-0.089,-0.088,-0.068,-0.068,-0.047,-0.075
0.062,-0.353,-0.415,0.146,0.239,-0.384,-0.032,-0.083,0.064,-0.069,-0.043,-0.077
0.065,-0.354,-0.419,0.145,0.242,-0.386,-0.092,-0.079,-0.062,-0.065,-0.018,-0.081
0.078,-0.344,-0.423,0.133,0.25,-0.383,-0.259,-0.073,0.056,-0.06,0.014,-0.08
