0.079,0.163,0.084,-0.121,-0.003,0.123,0.069,-0.085,0.377,0.391,0.308,-0.048
0.329,0.411,0.082,-0.37,0.123,0.247,-0.375,-0.69,0.587,0.85,0.818,0.376
0.504,0.656,0.153,-0.58,0.175,0.404,-0.893,-1.201,0.558,1.033,1.097,0.735
0.12,0.32,0.2,-0.22,-0.04,0.26,-0.588,-0.971,-0.494,-0.042,0.191,0.163
-0.015,0.059,0.074,-0.022,-0.045,0.066,-0.312,-0.551,-0.466,-0.193,-0.065,-0.169
-0.019,-0.053,-0.034,0.036,0.008,-0.043,-0.074,-0.159,-0.109,-0.06,-0.047,-0.237
-0.021,-0.097,-0.076,0.059,0.028,-0.086,0.034,0.006,-0.094,-0.087,-0.056,-0.254
-0.017,-0.109,-0.091,0.064,0.037,-0.1,0.056,0.044,-0.017,-0.031,-0.015,-0.245
-0.038,-0.139,-0.101,0.089,0.032,-0.12,0.099,0.077,-0.037,-0.063,-0.06,-0.272
-0.023,-0.131,-0.108,0.077,0.043,-0.119,0.085,0.089,0.001,-0.025,-0.031,-0.26
-0.031,-0.134,-0.102,0.083,0.036,-0.118,0.107,0.104,-0.003,-0.044,-0.047,-0.267
-0.025,-0.127,-0.102,0.076,0.039,-0.114,0.098,0.099,0.01,-0.023,-0.029,-0.252
-0.027,-0.126,-0.099,0.077,0.037,-0.112,0.108,0.124,0.023,-0.025,-0.031,-0.252
-0.025,-0.124,-0.099,0.074,0.038,-0.111,0.105,0.13,0.038,-0.017,-0.025,-0.244
-0.023,-0.118,-0.095,0.071,0.036,-0.106,0.104,0.129,0.056,0.0,-0.017,-0.238
-0.02,-0.113,-0.093,0.067,0.036,-0.103,0.106,0.135,0.057,0.009,-0.012,-0.23
-0.016,-0.106,-0.09,0.061,0.037,-0.098,0.103,0.147,0.076,0.029,0.002,-0.221
-0.016,-0.102,-0.086,0.059,0.035,-0.093,0.106,0.162,0.094,0.046,-0.002,-0.215
-0.01,-0.096,-0.085,0.054,0.038,-0.091,0.104,0.167,0.106,0.05,0.0,-0.207
-0.011,-0.091,-0.08,0.051,0.035,-0.086,0.105,0.173,0.117,0.051,0.027,-0.205
-0.004,-0.087,-0.083,0.046,0.04,-0.085,0.105,0.192,0.145,0.063,0.039,-0.201
0.008,-0.083,-0.091,0.037,0.05,-0.087,0.105,0.203,0.172,0.077,0.042,-0.2
0.013,-0.078,-0.09,0.032,0.051,-0.084,0.106,0.215,0.199,0.096,0.064,-0.179
0.029,-0.058,-0.087,0.015,0.059,-0.073,0.101,0.233,0.227,0.12,0.088,-0.147
0.048,-0.037,-0.085,-0.005,0.067,-0.061,0.092,0.246,0.265,0.16,0.116,-0.135
0.065,-0.019,-0.084,-0.022,0.074,-0.051,0.086,0.269,0.303,0.176,0.14,-0.123
0.083,0.007,-0.076,-0.045,0.079,-0.034,0.079,0.29,0.346,0.206,0.156,-0.101
0.096,0.034,-0.062,-0.065,0.079,-0.014,0.064,0.302,0.409,0.251,0.191,-0.069
0.114,0.065,-0.048,-0.089,0.081,0.008,0.041,0.321,0.465,0.294,0.236,-0.03
0.137,0.103,-0.035,-0.12,0.086,0.034,0.007,0.329,0.524,0.35,0.28,0.009
0.163,0.133,-0.03,-0.148,0.096,0.052,-0.018,0.319,0.578,0.41,0.348,0.049
0.2,0.17,-0.03,-0.185,0.114,0.069,-0.037,0.306,0.607,0.45,0.389,0.088
0.217,0.187,-0.03,-0.202,0.123,0.078,-0.056,0.286,0.61,0.463,0.402,0.116
0.208,0.178,-0.03,-0.193,0.119,0.074,-0.055,0.245,0.592,0.487,0.413,0.113
0.202,0.172,-0.03,-0.187,0.116,0.071,-0.057,0.188,0.533,0.438,0.391,0.1
0.169,0.139,-0.029,-0.154,0.099,0.055,-0.037,0.133,0.417,0.341,0.322,0.069
0.116,0.085,-0.031,-0.1,0.074,0.026,0.011,0.1,0.292,0.249,0.223,-0.005
0.068,0.032,-0.036,-0.05,0.052,-0.002,0.058,0.092,0.188,0.14,0.132,-0.081
0.025,-0.016,-0.041,-0.004,0.033,-0.028,0.096,0.088,0.113,0.072,0.069,-0.136
-0.003,-0.047,-0.044,0.026,0.021,-0.045,0.113,0.083,0.056,0.03,0.028,-0.171
-0.021,-0.069,-0.049,0.045,0.014,-0.059,0.128,0.079,0.01,0.006,-0.016,-0.194
-0.02,-0.082,-0.062,0.051,0.022,-0.072,0.131,0.074,-0.006,0.001,-0.037,-0.206
-0.021,-0.085,-0.064,0.053,0.022,-0.074,0.13,0.071,-0.005,-0.009,-0.033,-0.214
-0.029,-0.085,-0.056,0.057,0.014,-0.071,0.135,0.07,-0.006,-0.014,-0.037,-0.215
-0.03,-0.085,-0.054,0.058,0.012,-0.069,0.135,0.07,-0.013,-0.027,-0.04,-0.216
-0.037,-0.085,-0.048,0.061,0.006,-0.066,0.134,0.07,-0.019,-0.031,-0.041,-0.22
-0.039,-0.084,-0.045,0.062,0.003,-0.065,0.13,0.07,-0.017,-0.032,-0.038,-0.22
-0.03,-0.081,-0.051,0.055,0.011,-0.066,0.127,0.072,-0.014,-0.043,-0.034,-0.217
-0.025,-0.08,-0.055,0.053,0.015,-0.067,0.125,0.075,-0.011,-0.035,-0.036,-0.215
-0.025,-0.08,-0.055,0.053,0.015,-0.067,0.121,0.075,-0.009,-0.051,-0.031,-0.215
-0.025,-0.08,-0.055,0.053,0.015,-0.067,0.12,0.075,-0.005,-0.065,-0.03,-0.211
-0.025,-0.08,-0.055,0.053,0.015,-0.067,0.12,0.074,-0.006,-0.053,-0.03,-0.21
-0.026,-0.08,-0.054,0.053,0.014,-0.067,0.12,0.071,-0.011,-0.048,-0.025,-0.21
-0.024,-0.08,-0.056,0.052,0.016,-0.067,0.12,0.068,-0.015,-0.048,-0.044,-0.216
-0.02,-0.08,-0.06,0.05,0.02,-0.07,0.12,0.065,-0.017,-0.051,-0.052,-0.218
-0.019,-0.08,-0.061,0.05,0.021,-0.07,0.12,0.062,-0.022,-0.049,-0.049,-0.214
-0.021,-0.08,-0.059,0.051,0.019,-0.07,0.119,0.06,-0.025,-0.051,-0.051,-0.215
-0.019,-0.08,-0.06,0.049,0.021,-0.07,0.114,0.058,-0.021,-0.065,-0.049,-0.215
-0.016,-0.075,-0.06,0.045,0.022,-0.067,0.111,0.054,-0.032,-0.071,-0.051,-0.215
-0.016,-0.075,-0.06,0.045,0.023,-0.067,0.107,0.055,-0.043,-0.07,-0.054,-0.215
-0.003,-0.074,-0.071,0.039,0.034,-0.072,0.103,0.051,-0.044,-0.07,-0.055,-0.215
0.006,-0.07,-0.076,0.032,0.041,-0.072,0.1,0.05,-0.053,-0.07,-0.055,-0.214
-0.001,-0.07,-0.069,0.035,0.034,-0.069,0.097,0.05,-0.062,-0.07,-0.054,-0.22
-0.005,-0.072,-0.067,0.039,0.032,-0.07,0.094,0.045,-0.066,-0.074,-0.058,-0.231
-0.013,-0.075,-0.062,0.045,0.025,-0.068,0.091,0.045,-0.065,-0.075,-0.06,-0.225
-0.016,-0.075,-0.059,0.046,0.022,-0.066,0.088,0.045,-0.065,-0.075,-0.064,-0.22
0.004,-0.075,-0.078,0.036,0.042,-0.076,0.085,0.045,-0.065,-0.079,-0.065,-0.217
0.012,-0.075,-0.087,0.032,0.05,-0.081,0.083,0.045,-0.065,-0.08,-0.06,-0.21
0.006,-0.074,-0.081,0.034,0.044,-0.077,0.08,0.042,-0.07,-0.079,-0.06,-0.216
0.008,-0.071,-0.08,0.031,0.044,-0.075,0.08,0.038,-0.07,-0.075,-0.059,-0.221
0.008,-0.068,-0.076,0.031,0.042,-0.072,0.08,0.032,-0.07,-0.075,-0.055,-0.219
0.009,-0.066,-0.074,0.029,0.042,-0.07,0.08,0.03,-0.07,-0.073,-0.055,-0.22
0.009,-0.062,-0.071,0.027,0.04,-0.067,0.08,0.022,-0.069,-0.069,-0.057,-0.22
0.009,-0.059,-0.068,0.026,0.038,-0.063,0.076,0.022,-0.073,-0.071,-0.061,-0.22
0.003,-0.062,-0.066,0.03,0.035,-0.064,0.075,0.034,-0.075,-0.073,-0.059,-0.218
-0.003,-0.065,-0.062,0.035,0.03,-0.063,0.075,0.036,-0.076,-0.077,-0.064,-0.214
-0.008,-0.068,-0.06,0.038,0.026,-0.064,0.075,0.034,-0.081,-0.077,-0.065,-0.212
-0.014,-0.071,-0.057,0.043,0.022,-0.064,0.075,0.031,-0.079,-0.087,-0.065,-0.209
-0.019,-0.074,-0.055,0.047,0.018,-0.065,0.076,0.029,-0.082,-0.088,-0.07,-0.206
-0.024,-0.075,-0.051,0.05,0.014,-0.063,0.08,0.031,-0.095,-0.074,-0.07,-0.204
-0.02,-0.07,-0.05,0.045,0.015,-0.06,0.08,0.038,-0.095,-0.075,-0.07,-0.201
-0.025,-0.07,-0.045,0.048,0.01,-0.057,0.08,0.043,-0.095,-0.075,-0.07,-0.199
-0.024,-0.068,-0.045,0.047,0.011,-0.056,0.08,0.043,-0.095,-0.074,-0.07,-0.2
-0.005,-0.065,-0.06,0.035,0.028,-0.063,0.08,0.035,-0.095,-0.075,-0.068,-0.199
-0.001,-0.065,-0.063,0.033,0.031,-0.064,0.084,0.04,-0.094,-0.074,-0.062,-0.2
-0.015,-0.067,-0.053,0.041,0.019,-0.06,0.085,0.06,-0.089,-0.071,-0.057,-0.197
-0.022,-0.07,-0.049,0.046,0.013,-0.059,0.085,0.057,-0.084,-0.07,-0.054,-0.194
-0.03,-0.07,-0.04,0.05,0.005,-0.055,0.085,0.05,-0.079,-0.07,-0.049,-0.195
-0.038,-0.074,-0.035,0.056,-0.001,-0.054,0.085,0.049,-0.075,-0.07,-0.045,-0.191
-0.022,-0.075,-0.053,0.049,0.016,-0.064,0.084,0.041,-0.07,-0.07,-0.052,-0.19
-0.012,-0.075,-0.062,0.043,0.026,-0.068,0.079,0.041,-0.07,-0.067,-0.056,-0.19
-0.02,-0.075,-0.055,0.048,0.018,-0.065,0.076,0.045,-0.07,-0.065,-0.055,-0.19
-0.021,-0.075,-0.054,0.048,0.017,-0.064,0.073,0.045,-0.069,-0.065,-0.055,-0.191
-0.026,-0.075,-0.049,0.05,0.012,-0.062,0.068,0.045,-0.073,-0.066,-0.055,-0.189
-0.03,-0.075,-0.045,0.053,0.008,-0.06,0.065,0.045,-0.075,-0.062,-0.055,-0.19
-0.027,-0.075,-0.049,0.051,0.011,-0.062,0.061,0.045,-0.075,-0.073,-0.05,-0.189
-0.01,-0.073,-0.063,0.041,0.027,-0.067,0.059,0.048,-0.073,-0.085,-0.05,-0.191
-0.004,-0.07,-0.066,0.037,0.031,-0.067,0.06,0.051,-0.07,-0.077,-0.049,-0.187
-0.006,-0.07,-0.064,0.039,0.029,-0.067,0.06,0.054,-0.069,-0.073,-0.045,-0.191
0.0,-0.07,-0.07,0.035,0.035,-0.07,0.06,0.057,-0.073,-0.067,-0.045,-0.207
-0.001,-0.07,-0.069,0.035,0.034,-0.07,0.061,0.061,-0.081,-0.06,-0.043,-0.203
0.001,-0.07,-0.071,0.035,0.036,-0.071,0.065,0.06,-0.078,-0.065,-0.039,-0.2
-0.004,-0.062,-0.058,0.033,0.027,-0.06,0.065,0.067,-0.073,-0.072,-0.037,-0.197
-0.002,-0.054,-0.052,0.028,0.025,-0.053,0.065,0.062,-0.072,-0.067,-0.034,-0.195
0.018,-0.045,-0.063,0.014,0.04,-0.054,0.066,0.067,-0.065,-0.056,-0.03,-0.192
0.02,-0.037,-0.057,0.009,0.038,-0.046,0.064,0.063,-0.065,-0.052,-0.031,-0.183
0.03,-0.035,-0.065,0.003,0.048,-0.05,0.085,0.068,-0.055,-0.041,-0.024,-0.172
0.038,-0.031,-0.069,-0.003,0.054,-0.05,0.094,0.108,-0.051,-0.044,-0.027,-0.175
0.035,-0.03,-0.065,-0.002,0.05,-0.047,0.062,0.092,-0.061,-0.047,-0.023,-0.176
0.026,-0.034,-0.06,0.004,0.043,-0.046,0.059,0.081,-0.053,-0.048,-0.02,-0.18
0.019,-0.036,-0.055,0.009,0.038,-0.046,0.046,0.05,-0.073,-0.057,-0.021,-0.183
0.016,-0.037,-0.052,0.011,0.034,-0.045,0.048,0.064,-0.057,-0.056,-0.022,-0.183
-0.021,-0.065,-0.044,0.043,0.012,-0.054,0.04,0.027,-0.095,-0.095,-0.048,-0.191
-0.024,-0.076,-0.051,0.05,0.013,-0.063,0.036,0.057,-0.051,-0.061,-0.032,-0.189
-0.046,-0.082,-0.036,0.064,-0.005,-0.059,0.037,0.015,-0.072,-0.077,-0.061,-0.207
-0.059,-0.072,-0.012,0.065,-0.023,-0.042,0.089,0.131,-0.027,-0.054,-0.031,-0.19
-0.078,-0.013,0.065,0.045,-0.072,0.026,0.321,0.474,0.18,0.007,-0.035,-0.219
0.154,0.291,0.136,-0.223,0.009,0.213,-0.132,-0.398,0.363,0.44,0.4,0.116
0.552,0.71,0.158,-0.631,0.197,0.434,-0.913,-1.304,0.71,1.108,1.117,0.739
0.349,0.559,0.21,-0.454,0.069,0.384,-0.872,-1.216,-0.014,0.444,0.643,0.547
0.025,0.17,0.145,-0.097,-0.06,0.157,-0.548,-0.873,-0.653,-0.277,-0.016,0.021
-0.013,0.034,0.047,-0.011,-0.03,0.04,-0.252,-0.339,-0.226,-0.113,-0.043,-0.119
-0.028,-0.021,0.007,0.025,-0.017,-0.007,-0.059,-0.082,-0.116,-0.103,-0.074,-0.155
0.007,-0.036,-0.043,0.015,0.025,-0.039,-0.016,0.004,-0.054,-0.057,-0.048,-0.165
0.007,-0.044,-0.051,0.018,0.029,-0.047,0.024,0.053,-0.046,-0.054,-0.052,-0.177
0.008,-0.039,-0.047,0.016,0.027,-0.043,0.032,0.063,-0.05,-0.058,-0.044,-0.182
0.006,-0.04,-0.046,0.017,0.026,-0.042,0.043,0.08,-0.017,-0.043,-0.036,-0.179
-0.004,-0.041,-0.037,0.022,0.017,-0.039,0.038,0.083,-0.033,-0.053,-0.034,-0.176
0.018,-0.039,-0.057,0.011,0.037,-0.048,0.041,0.107,0.002,-0.039,-0.016,-0.172
0.02,-0.04,-0.06,0.011,0.04,-0.05,0.04,0.106,-0.01,-0.044,-0.015,-0.169
0.008,-0.035,-0.043,0.014,0.026,-0.039,0.045,0.117,-0.001,-0.023,-0.002,-0.165
0.012,-0.034,-0.046,0.012,0.029,-0.04,0.045,0.12,0.024,-0.017,0.003,-0.162
0.015,-0.03,-0.045,0.008,0.03,-0.037,0.05,0.134,0.047,-0.007,0.011,-0.154
0.017,-0.028,-0.045,0.006,0.031,-0.036,0.067,0.149,0.058,-0.001,0.019,-0.15
0.021,-0.025,-0.045,0.003,0.033,-0.035,0.065,0.154,0.073,0.007,0.026,-0.144
0.022,-0.023,-0.045,0.001,0.033,-0.033,0.064,0.168,0.088,0.01,0.041,-0.138
0.029,-0.016,-0.045,-0.006,0.038,-0.031,0.06,0.185,0.105,0.036,0.056,-0.134
0.034,-0.011,-0.045,-0.011,0.04,-0.028,0.06,0.2,0.121,0.069,0.064,-0.125
0.043,-0.005,-0.048,-0.019,0.046,-0.026,0.058,0.221,0.148,0.073,0.082,-0.115
0.059,0.006,-0.053,-0.032,0.056,-0.023,0.049,0.235,0.175,0.078,0.089,-0.106
0.073,0.019,-0.054,-0.046,0.063,-0.017,0.043,0.256,0.208,0.105,0.103,-0.093
0.089,0.04,-0.048,-0.064,0.068,-0.004,0.035,0.289,0.262,0.134,0.135,-0.071
0.102,0.062,-0.04,-0.082,0.071,0.011,0.027,0.318,0.298,0.164,0.15,-0.047
0.129,0.09,-0.039,-0.109,0.084,0.025,0.021,0.351,0.355,0.217,0.193,-0.028
0.144,0.113,-0.031,-0.128,0.088,0.041,0.01,0.378,0.412,0.255,0.24,-0.006
0.169,0.141,-0.029,-0.155,0.099,0.056,0.0,0.405,0.469,0.296,0.266,0.026
0.182,0.18,-0.003,-0.181,0.092,0.088,-0.017,0.422,0.53,0.353,0.314,0.063
0.183,0.212,0.028,-0.198,0.077,0.12,-0.043,0.431,0.574,0.393,0.362,0.099
0.24,0.236,-0.004,-0.238,0.122,0.116,-0.063,0.418,0.595,0.423,0.39,0.129
0.241,0.244,0.003,-0.242,0.119,0.123,-0.071,0.369,0.594,0.448,0.425,0.162
0.209,0.236,0.026,-0.223,0.092,0.131,-0.069,0.289,0.564,0.425,0.424,0.165
0.197,0.212,0.016,-0.204,0.09,0.114,-0.072,0.2,0.466,0.358,0.372,0.132
0.147,0.166,0.019,-0.157,0.064,0.092,-0.051,0.129,0.347,0.287,0.297,0.077
0.1,0.111,0.011,-0.106,0.044,0.061,-0.005,0.099,0.224,0.187,0.207,0.008
0.057,0.069,0.012,-0.063,0.022,0.04,0.036,0.092,0.113,0.095,0.136,-0.044
0.014,0.019,0.005,-0.016,0.004,0.012,0.06,0.08,0.045,0.046,0.07,-0.1
0.009,-0.016,-0.025,0.004,0.017,-0.021,0.072,0.075,-0.002,0.015,0.047,-0.133
0.007,-0.024,-0.031,0.008,0.02,-0.028,0.089,0.067,-0.026,-0.012,0.045,-0.14
-0.011,-0.036,-0.024,0.024,0.007,-0.03,0.091,0.061,-0.037,-0.036,0.023,-0.157
-0.016,-0.04,-0.024,0.029,0.004,-0.032,0.089,0.054,-0.047,-0.041,0.018,-0.162
-0.023,-0.04,-0.017,0.031,-0.003,-0.028,0.091,0.051,-0.045,-0.039,0.012,-0.165
-0.024,-0.04,-0.016,0.032,-0.004,-0.028,0.089,0.055,-0.045,-0.04,0.007,-0.165
-0.034,-0.044,-0.01,0.039,-0.012,-0.026,0.09,0.055,-0.044,-0.04,0.001,-0.168
-0.037,-0.045,-0.008,0.042,-0.014,-0.026,0.09,0.055,-0.04,-0.04,-0.004,-0.171
-0.02,-0.045,-0.025,0.033,0.003,-0.035,0.09,0.055,-0.041,-0.036,-0.002,-0.169
-0.024,-0.05,-0.026,0.037,0.001,-0.037,0.09,0.055,-0.039,-0.035,0.002,-0.166
-0.028,-0.051,-0.023,0.04,-0.003,-0.036,0.09,0.055,-0.049,-0.036,0.004,-0.163
-0.029,-0.049,-0.019,0.039,-0.005,-0.034,0.09,0.055,-0.057,-0.035,0.009,-0.161
-0.028,-0.045,-0.017,0.037,-0.005,-0.031,0.086,0.055,-0.052,-0.036,0.01,-0.157
-0.031,-0.045,-0.014,0.039,-0.008,-0.03,0.085,0.055,-0.051,-0.034,0.001,-0.155
-0.039,-0.043,-0.004,0.041,-0.017,-0.024,0.085,0.055,-0.046,-0.03,0.017,-0.155
-0.008,-0.039,-0.032,0.024,0.012,-0.035,0.08,0.054,-0.045,-0.031,0.025,-0.155
0.008,-0.041,-0.048,0.017,0.028,-0.044,0.08,0.05,-0.049,-0.027,0.016,-0.155
0.0,-0.043,-0.043,0.022,0.022,-0.043,0.079,0.05,-0.051,-0.026,0.013,-0.155
0.001,-0.046,-0.047,0.023,0.024,-0.047,0.075,0.05,-0.054,-0.023,0.006,-0.155
-0.002,-0.044,-0.041,0.023,0.02,-0.042,0.075,0.05,-0.057,-0.03,0.001,-0.154
-0.007,-0.047,-0.04,0.027,0.017,-0.043,0.075,0.05,-0.064,-0.05,0.003,-0.151
-0.017,-0.057,-0.04,0.037,0.012,-0.048,0.075,0.047,-0.071,-0.051,0.008,-0.148
-0.019,-0.055,-0.037,0.037,0.01,-0.046,0.075,0.044,-0.075,-0.049,0.009,-0.156
-0.02,-0.055,-0.034,0.038,0.008,-0.044,0.071,0.041,-0.074,-0.051,0.002,-0.166
-0.02,-0.055,-0.035,0.038,0.008,-0.045,0.07,0.038,-0.078,-0.049,-0.002,-0.165
-0.008,-0.055,-0.046,0.032,0.019,-0.05,0.07,0.035,-0.08,-0.051,-0.008,-0.165
-0.009,-0.055,-0.046,0.033,0.019,-0.051,0.065,0.035,-0.08,-0.058,-0.014,-0.165
-0.017,-0.051,-0.034,0.034,0.009,-0.042,0.065,0.035,-0.083,-0.063,-0.019,-0.165
-0.02,-0.05,-0.03,0.035,0.005,-0.039,0.064,0.035,-0.086,-0.068,-0.024,-0.165
-0.031,-0.05,-0.019,0.04,-0.006,-0.034,0.059,0.035,-0.084,-0.069,-0.025,-0.165
-0.029,-0.045,-0.016,0.037,-0.006,-0.031,0.054,0.035,-0.086,-0.065,-0.025,-0.165
-0.007,-0.045,-0.037,0.026,0.016,-0.041,0.049,0.035,-0.103,-0.065,-0.025,-0.165
-0.011,-0.046,-0.035,0.029,0.012,-0.041,0.045,0.032,-0.106,-0.063,-0.025,-0.165
-0.021,-0.05,-0.029,0.036,0.004,-0.04,0.04,0.026,-0.104,-0.059,-0.024,-0.165
-0.026,-0.054,-0.028,0.04,0.002,-0.041,0.04,0.022,-0.106,-0.06,-0.02,-0.159
-0.035,-0.059,-0.024,0.047,-0.005,-0.041,0.04,0.017,-0.104,-0.063,-0.018,-0.153
-0.038,-0.061,-0.022,0.049,-0.008,-0.041,0.04,0.013,-0.105,-0.065,-0.014,-0.149
-0.042,-0.06,-0.018,0.051,-0.012,-0.039,0.04,0.008,-0.105,-0.065,-0.012,-0.142
-0.029,-0.06,-0.031,0.045,0.001,-0.046,0.039,0.005,-0.105,-0.065,-0.009,-0.137
-0.019,-0.059,-0.04,0.04,0.01,-0.049,0.042,0.005,-0.105,-0.065,-0.014,-0.132
-0.032,-0.061,-0.029,0.047,-0.001,-0.045,0.045,0.003,-0.105,-0.063,-0.027,-0.126
-0.04,-0.065,-0.025,0.053,-0.007,-0.045,0.045,-0.001,-0.105,-0.06,-0.03,-0.119
-0.047,-0.065,-0.017,0.056,-0.014,-0.041,0.045,0.0,-0.101,-0.057,-0.025,-0.112
-0.058,-0.067,-0.01,0.063,-0.024,-0.039,0.045,-0.004,-0.1,-0.055,-0.023,-0.106
-0.04,-0.07,-0.03,0.055,-0.005,-0.05,0.045,-0.005,-0.099,-0.052,-0.019,-0.098
-0.027,-0.07,-0.043,0.048,0.008,-0.057,0.041,-0.005,-0.096,-0.049,-0.015,-0.09
-0.03,-0.066,-0.036,0.049,0.003,-0.051,0.04,-0.005,-0.094,-0.055,-0.015,-0.082
-0.029,-0.065,-0.035,0.048,0.004,-0.05,0.04,-0.004,-0.096,-0.064,-0.012,-0.074
-0.033,-0.065,-0.032,0.049,0.0,-0.048,0.036,-0.007,-0.1,-0.065,-0.01,-0.068
-0.032,-0.06,-0.028,0.046,-0.002,-0.044,0.034,-0.01,-0.1,-0.065,-0.01,-0.062
-0.021,-0.06,-0.039,0.041,0.009,-0.049,0.037,-0.013,-0.1,-0.07,-0.006,-0.057
-0.014,-0.06,-0.046,0.037,0.016,-0.052,0.036,-0.015,-0.1,-0.07,-0.004,-0.053
-0.015,-0.06,-0.045,0.038,0.015,-0.052,0.035,-0.019,-0.1,-0.071,-0.006,-0.049
-0.017,-0.06,-0.043,0.039,0.013,-0.051,0.034,-0.021,-0.103,-0.075,-0.01,-0.044
-0.021,-0.06,-0.039,0.04,0.009,-0.05,0.031,-0.016,-0.106,-0.075,-0.015,-0.04
-0.02,-0.06,-0.04,0.04,0.01,-0.05,0.029,-0.015,-0.109,-0.075,-0.018,-0.04
-0.023,-0.06,-0.036,0.042,0.007,-0.048,0.032,-0.015,-0.112,-0.075,-0.023,-0.04
-0.03,-0.064,-0.034,0.047,0.002,-0.049,0.037,-0.015,-0.115,-0.075,-0.025,-0.04
-0.034,-0.065,-0.031,0.05,-0.001,-0.048,0.035,-0.015,-0.114,-0.072,-0.025,-0.04
-0.037,-0.065,-0.028,0.051,-0.004,-0.046,0.035,-0.016,-0.11,-0.069,-0.029,-0.038
-0.039,-0.065,-0.026,0.052,-0.006,-0.045,0.033,-0.02,-0.108,-0.066,-0.03,-0.033
-0.042,-0.066,-0.023,0.054,-0.009,-0.044,0.029,-0.02,-0.105,-0.064,-0.03,-0.03
-0.018,-0.063,-0.046,0.041,0.014,-0.054,0.03,-0.016,-0.101,-0.059,-0.036,-0.027
0.002,-0.059,-0.061,0.029,0.032,-0.06,0.035,-0.015,-0.1,-0.065,-0.042,-0.022
0.0,-0.053,-0.053,0.027,0.027,-0.053,0.035,-0.015,-0.096,-0.076,-0.048,-0.02
0.001,-0.05,-0.051,0.024,0.026,-0.05,0.035,-0.01,-0.095,-0.075,-0.05,-0.013
0.004,-0.046,-0.05,0.021,0.027,-0.047,0.035,-0.009,-0.094,-0.074,-0.05,-0.003
0.012,-0.038,-0.05,0.013,0.031,-0.044,0.035,-0.009,-0.091,-0.07,-0.054,0.007
-0.009,-0.059,-0.05,0.034,0.021,-0.054,0.035,-0.003,-0.088,-0.07,-0.055,0.017
-0.021,-0.072,-0.05,0.046,0.015,-0.061,0.037,-0.006,-0.091,-0.068,-0.055,0.024
-0.014,-0.063,-0.049,0.039,0.017,-0.055,0.05,-0.002,-0.089,-0.06,-0.049,0.031
-0.017,-0.061,-0.043,0.039,0.013,-0.052,0.051,0.001,-0.089,-0.057,-0.054,0.037
-0.019,-0.055,-0.036,0.037,0.009,-0.046,0.047,-0.002,-0.1,-0.05,-0.053,0.045
-0.017,-0.05,-0.033,0.034,0.009,-0.042,0.045,0.008,-0.089,-0.045,-0.047,0.05
-0.02,-0.041,-0.021,0.03,0.001,-0.031,0.048,0.011,-0.074,-0.041,-0.044,0.055
-0.003,-0.032,-0.029,0.018,0.013,-0.03,0.079,0.052,-0.056,-0.032,-0.034,0.06
0.038,-0.024,-0.062,-0.007,0.05,-0.043,0.055,0.064,-0.065,-0.035,-0.035,0.063
0.04,-0.018,-0.058,-0.011,0.049,-0.038,0.019,0.055,-0.052,-0.019,-0.019,0.065
0.038,-0.016,-0.054,-0.01,0.046,-0.035,0.015,0.018,-0.073,-0.046,-0.026,0.054
0.035,-0.02,-0.055,-0.007,0.045,-0.037,0.007,0.029,-0.081,-0.062,-0.037,0.054
-0.009,-0.054,-0.045,0.032,0.018,-0.049,0.036,0.026,-0.094,-0.071,-0.068,0.043
-0.014,-0.061,-0.047,0.038,0.017,-0.054,0.037,0.011,-0.112,-0.061,-0.067,0.043
-0.034,-0.068,-0.034,0.051,0.0,-0.051,0.042,0.042,-0.09,-0.065,-0.078,0.033
-0.041,-0.083,-0.042,0.062,0.001,-0.062,0.032,-0.013,-0.117,-0.069,-0.081,0.018
-0.06,-0.041,0.019,0.051,-0.039,-0.011,0.235,0.408,0.087,-0.015,-0.06,-0.015
0.005,0.148,0.143,-0.077,-0.069,0.145,0.138,0.04,0.225,0.177,0.118,0.141
0.415,0.583,0.168,-0.499,0.123,0.375,-0.699,-1.187,0.573,0.915,0.891,0.772
0.465,0.655,0.19,-0.56,0.137,0.422,-0.975,-1.378,0.348,0.79,0.901,0.932
0.118,0.278,0.16,-0.198,-0.021,0.219,-0.659,-1.059,-0.558,-0.11,0.108,0.401
-0.002,0.066,0.068,-0.033,-0.035,0.067,-0.382,-0.58,-0.41,-0.149,-0.053,0.127
-0.024,-0.004,0.02,0.014,-0.022,0.008,-0.124,-0.17,-0.134,-0.08,-0.066,0.08
-0.012,-0.029,-0.017,0.021,0.003,-0.023,-0.054,-0.054,-0.125,-0.074,-0.077,0.063
-0.015,-0.038,-0.023,0.026,0.004,-0.03,-0.014,0.016,-0.057,-0.035,-0.056,0.068
-0.01,-0.046,-0.036,0.028,0.013,-0.041,0.006,0.028,-0.085,-0.059,-0.072,0.062
0.004,-0.044,-0.048,0.02,0.027,-0.046,0.013,0.06,-0.045,-0.028,-0.052,0.067
0.001,-0.047,-0.048,0.023,0.025,-0.047,0.03,0.065,-0.056,-0.044,-0.064,0.063
0.007,-0.043,-0.051,0.018,0.03,-0.047,0.029,0.079,-0.035,-0.021,-0.049,0.068
0.005,-0.046,-0.051,0.021,0.029,-0.049,0.038,0.083,-0.032,-0.033,-0.052,0.07
0.012,-0.044,-0.056,0.017,0.034,-0.05,0.033,0.085,-0.022,-0.038,-0.046,0.073
0.009,-0.046,-0.055,0.019,0.032,-0.05,0.037,0.096,-0.002,-0.027,-0.042,0.076
0.011,-0.04,-0.051,0.015,0.031,-0.046,0.034,0.106,0.01,-0.019,-0.041,0.078
0.012,-0.032,-0.044,0.01,0.028,-0.038,0.037,0.121,0.03,-0.006,-0.028,0.081
0.014,-0.024,-0.039,0.005,0.027,-0.031,0.05,0.125,0.036,0.0,-0.016,0.078
0.018,-0.016,-0.034,-0.001,0.026,-0.025,0.05,0.136,0.05,0.012,-0.002,0.087
0.019,-0.009,-0.028,-0.005,0.024,-0.019,0.05,0.159,0.082,0.017,0.007,0.1
0.022,-0.002,-0.025,-0.01,0.024,-0.013,0.05,0.18,0.108,0.032,0.015,0.102
0.024,0.004,-0.02,-0.014,0.022,-0.008,0.05,0.196,0.127,0.05,0.024,0.113
0.026,0.011,-0.015,-0.018,0.02,-0.002,0.049,0.215,0.151,0.056,0.032,0.122
0.028,0.016,-0.012,-0.022,0.02,0.002,0.043,0.237,0.177,0.081,0.052,0.133
0.04,0.031,-0.009,-0.036,0.024,0.011,0.038,0.266,0.226,0.12,0.076,0.15
0.059,0.053,-0.006,-0.055,0.033,0.023,0.031,0.283,0.262,0.136,0.093,0.166
0.078,0.075,-0.003,-0.076,0.04,0.036,0.027,0.313,0.308,0.173,0.127,0.189
0.104,0.103,-0.001,-0.104,0.052,0.051,0.018,0.35,0.376,0.23,0.164,0.212
0.124,0.126,0.002,-0.125,0.061,0.064,0.001,0.372,0.428,0.257,0.204,0.247
0.156,0.168,0.012,-0.162,0.072,0.09,-0.015,0.392,0.486,0.304,0.248,0.283
0.181,0.206,0.025,-0.194,0.078,0.115,-0.038,0.393,0.547,0.354,0.281,0.313
0.188,0.23,0.042,-0.209,0.073,0.136,-0.056,0.384,0.582,0.402,0.329,0.361
0.207,0.253,0.046,-0.23,0.08,0.149,-0.078,0.357,0.571,0.417,0.361,0.388
0.212,0.253,0.041,-0.233,0.085,0.147,-0.087,0.294,0.554,0.404,0.358,0.39
0.191,0.231,0.04,-0.211,0.075,0.135,-0.079,0.207,0.505,0.392,0.337,0.375
0.151,0.186,0.035,-0.169,0.057,0.11,-0.073,0.131,0.386,0.31,0.282,0.331
0.104,0.139,0.035,-0.122,0.035,0.087,-0.04,0.078,0.262,0.21,0.195,0.273
0.063,0.093,0.029,-0.078,0.017,0.061,-0.003,0.052,0.149,0.116,0.11,0.208
0.019,0.042,0.023,-0.031,-0.003,0.032,0.028,0.048,0.071,0.048,0.054,0.152
-0.007,0.012,0.019,-0.003,-0.013,0.016,0.051,0.04,0.026,0.011,0.013,0.113
-0.012,0.001,0.012,0.005,-0.012,0.006,0.06,0.034,-0.013,-0.03,-0.018,0.094
-0.022,-0.014,0.008,0.017,-0.015,-0.003,0.071,0.027,-0.03,-0.046,-0.043,0.079
-0.034,-0.032,0.002,0.033,-0.018,-0.015,0.068,0.025,-0.053,-0.049,-0.054,0.069
-0.036,-0.036,0.0,0.036,-0.018,-0.018,0.065,0.027,-0.068,-0.052,-0.056,0.067
-0.034,-0.034,0.0,0.034,-0.017,-0.017,0.063,0.024,-0.064,-0.062,-0.06,0.063
-0.036,-0.035,0.0,0.035,-0.017,-0.017,0.06,0.021,-0.064,-0.067,-0.064,0.06
-0.041,-0.035,0.007,0.038,-0.024,-0.014,0.058,0.018,-0.059,-0.068,-0.064,0.055
-0.05,-0.035,0.014,0.042,-0.031,-0.01,0.053,0.015,-0.06,-0.073,-0.06,0.057
-0.054,-0.033,0.021,0.043,-0.037,-0.005,0.05,0.016,-0.072,-0.074,-0.061,0.06
-0.052,-0.029,0.023,0.04,-0.037,-0.003,0.048,0.021,-0.076,-0.077,-0.057,0.06
-0.043,-0.031,0.013,0.037,-0.028,-0.009,0.041,0.025,-0.075,-0.08,-0.055,0.06
-0.021,-0.03,-0.009,0.025,-0.006,-0.019,0.042,0.029,-0.072,-0.08,-0.054,0.06
-0.013,-0.03,-0.017,0.022,0.002,-0.023,0.059,0.03,-0.07,-0.082,-0.062,0.059
-0.016,-0.029,-0.014,0.023,-0.001,-0.021,0.06,0.03,-0.07,-0.085,-0.071,0.056
-0.01,-0.025,-0.016,0.018,0.003,-0.021,0.055,0.03,-0.078,-0.085,-0.07,0.053
-0.011,-0.025,-0.014,0.019,0.002,-0.02,0.054,0.03,-0.085,-0.081,-0.07,0.05
-0.008,-0.024,-0.016,0.016,0.005,-0.02,0.05,0.03,-0.085,-0.08,-0.07,0.047
-0.009,-0.02,-0.012,0.015,0.001,-0.016,0.049,0.029,-0.089,-0.079,-0.069,0.045
-0.008,-0.019,-0.011,0.013,0.001,-0.015,0.045,0.024,-0.09,-0.076,-0.072,0.043
-0.024,-0.029,-0.005,0.027,-0.009,-0.017,0.042,0.019,-0.092,-0.074,-0.074,0.038
-0.029,-0.036,-0.008,0.033,-0.01,-0.022,0.04,0.015,-0.096,-0.077,-0.078,0.035
-0.006,-0.035,-0.028,0.021,0.011,-0.031,0.036,0.01,-0.094,-0.088,-0.08,0.032
-0.007,-0.033,-0.026,0.02,0.01,-0.029,0.034,0.005,-0.096,-0.092,-0.084,0.027
-0.01,-0.029,-0.019,0.02,0.004,-0.024,0.04,0.002,-0.101,-0.095,-0.085,0.025
-0.015,-0.03,-0.015,0.023,0.0,-0.022,0.041,-0.001,-0.1,-0.095,-0.085,0.025
-0.025,-0.033,-0.008,0.03,-0.008,-0.021,0.037,-0.004,-0.097,-0.098,-0.09,0.025
-0.033,-0.035,-0.003,0.034,-0.014,-0.019,0.035,-0.007,-0.093,-0.103,-0.09,0.025
-0.025,-0.035,-0.009,0.03,-0.008,-0.022,0.031,-0.009,-0.108,-0.106,-0.091,0.025
-0.018,-0.035,-0.017,0.027,0.0,-0.026,0.03,-0.012,-0.126,-0.11,-0.095,0.025
-0.023,-0.035,-0.012,0.029,-0.005,-0.023,0.027,-0.015,-0.125,-0.11,-0.095,0.023
-0.026,-0.036,-0.009,0.031,-0.008,-0.022,0.025,-0.015,-0.125,-0.11,-0.097,0.019
-0.035,-0.043,-0.008,0.039,-0.013,-0.025,0.025,-0.015,-0.125,-0.11,-0.101,0.017
-0.039,-0.042,-0.002,0.041,-0.018,-0.022,0.025,-0.015,-0.125,-0.11,-0.1,0.014
-0.032,-0.04,-0.008,0.036,-0.012,-0.023,0.025,-0.015,-0.125,-0.113,-0.097,0.011
-0.021,-0.04,-0.019,0.031,-0.001,-0.029,0.026,-0.015,-0.125,-0.118,-0.094,0.009
-0.021,-0.035,-0.015,0.028,-0.003,-0.025,0.03,-0.015,-0.125,-0.119,-0.091,0.006
-0.027,-0.035,-0.008,0.031,-0.009,-0.021,0.03,-0.015,-0.125,-0.115,-0.089,0.004
-0.031,-0.034,-0.003,0.033,-0.013,-0.018,0.03,-0.015,-0.125,-0.115,-0.084,-0.001
-0.032,-0.029,0.002,0.03,-0.017,-0.013,0.03,-0.015,-0.125,-0.115,-0.086,0.006
-0.038,-0.026,0.012,0.031,-0.025,-0.006,0.03,-0.016,-0.124,-0.115,-0.09,0.016
-0.027,-0.023,0.004,0.025,-0.015,-0.009,0.026,-0.02,-0.129,-0.115,-0.09,0.014
-0.011,-0.018,-0.007,0.015,-0.002,-0.012,0.024,-0.02,-0.135,-0.111,-0.102,0.015
-0.019,-0.015,0.005,0.017,-0.011,-0.005,0.025,-0.022,-0.135,-0.106,-0.105,0.015
-0.027,-0.019,0.009,0.023,-0.018,-0.005,0.025,-0.025,-0.135,-0.101,-0.099,0.015
-0.024,-0.021,0.003,0.022,-0.014,-0.008,0.025,-0.025,-0.135,-0.098,-0.097,0.013
-0.037,-0.02,0.017,0.028,-0.027,-0.001,0.023,-0.025,-0.135,-0.091,-0.092,0.009
-0.047,-0.02,0.027,0.033,-0.037,0.003,0.02,-0.025,-0.135,-0.093,-0.089,0.01
-0.044,-0.02,0.025,0.032,-0.035,0.002,0.018,-0.025,-0.135,-0.109,-0.095,0.01
-0.045,-0.02,0.025,0.032,-0.035,0.002,0.015,-0.025,-0.135,-0.11,-0.101,0.01
-0.04,-0.02,0.02,0.03,-0.03,0.0,0.012,-0.025,-0.135,-0.11,-0.099,0.01
-0.037,-0.016,0.021,0.027,-0.029,0.002,0.01,-0.025,-0.135,-0.11,-0.101,0.005
-0.029,-0.015,0.014,0.022,-0.021,-0.001,0.01,-0.025,-0.134,-0.11,-0.099,0.005
-0.031,-0.015,0.016,0.023,-0.023,0.0,0.01,-0.025,-0.136,-0.109,-0.1,0.004
-0.048,-0.015,0.033,0.031,-0.04,0.009,0.01,-0.025,-0.133,-0.104,-0.095,0.0
-0.027,-0.015,0.012,0.021,-0.019,-0.002,0.01,-0.025,-0.141,-0.106,-0.077,0.001
-0.019,-0.015,0.004,0.017,-0.011,-0.005,0.01,-0.024,-0.152,-0.102,-0.1,-0.003
-0.058,-0.015,0.044,0.037,-0.051,0.014,0.01,-0.035,-0.147,-0.1,-0.118,-0.005
-0.057,-0.015,0.042,0.036,-0.049,0.013,0.01,-0.041,-0.145,-0.099,-0.113,-0.005
-0.044,-0.015,0.029,0.029,-0.036,0.007,0.01,-0.043,-0.142,-0.106,-0.113,-0.005
-0.034,-0.015,0.019,0.024,-0.026,0.002,0.01,-0.046,-0.139,-0.111,-0.109,-0.005
-0.039,-0.015,0.024,0.026,-0.031,0.004,0.01,-0.049,-0.137,-0.109,-0.11,-0.005
-0.063,-0.012,0.051,0.037,-0.057,0.019,0.01,-0.05,-0.134,-0.111,-0.106,-0.005
-0.043,-0.007,0.036,0.025,-0.039,0.014,0.007,-0.045,-0.136,-0.108,-0.104,-0.005
-0.033,-0.004,0.029,0.018,-0.03,0.012,0.004,-0.045,-0.134,-0.119,-0.106,-0.005
-0.015,-0.001,0.015,0.008,-0.015,0.007,0.001,-0.044,-0.136,-0.126,-0.104,-0.005
0.017,0.004,-0.013,-0.01,0.014,-0.004,-0.002,-0.04,-0.133,-0.124,-0.106,-0.004
-0.008,0.005,0.014,0.002,-0.012,0.009,-0.004,-0.04,-0.13,-0.125,-0.104,-0.008
-0.023,0.005,0.028,0.009,-0.026,0.016,-0.007,-0.04,-0.138,-0.125,-0.106,-0.017
0.002,0.005,0.003,-0.004,-0.001,0.004,-0.01,-0.04,-0.141,-0.125,-0.116,-0.016
0.003,0.005,0.002,-0.004,0.0,0.003,-0.01,-0.04,-0.139,-0.121,-0.118,-0.015
-0.021,0.009,0.03,0.006,-0.025,0.019,-0.01,-0.04,-0.138,-0.12,-0.115,-0.014
-0.024,0.01,0.035,0.007,-0.029,0.022,-0.01,-0.04,-0.134,-0.12,-0.111,-0.01
-0.011,0.01,0.021,0.001,-0.016,0.015,-0.011,-0.041,-0.136,-0.116,-0.11,-0.01
-0.002,0.015,0.017,-0.007,-0.01,0.016,-0.005,-0.044,-0.139,-0.115,-0.105,-0.013
0.011,0.014,0.003,-0.013,0.004,0.008,-0.001,-0.047,-0.141,-0.117,-0.107,-0.015
0.017,0.017,-0.001,-0.017,0.009,0.008,-0.005,-0.05,-0.136,-0.12,-0.12,-0.019
0.026,0.02,-0.006,-0.023,0.016,0.007,-0.004,-0.055,-0.134,-0.12,-0.117,-0.02
0.008,0.02,0.012,-0.015,-0.002,0.016,-0.006,-0.053,-0.151,-0.124,-0.11,-0.015
0.002,0.025,0.022,-0.014,-0.011,0.023,-0.004,-0.045,-0.158,-0.127,-0.108,-0.01
0.006,0.024,0.019,-0.015,-0.007,0.021,-0.007,-0.041,-0.146,-0.122,-0.102,-0.005
-0.005,0.03,0.035,-0.013,-0.02,0.032,0.001,-0.03,-0.137,-0.12,-0.099,-0.001
0.01,0.039,0.029,-0.025,-0.009,0.034,0.009,-0.03,-0.13,-0.117,-0.095,0.003
0.04,0.05,0.01,-0.045,0.014,0.03,0.021,-0.01,-0.104,-0.103,-0.09,0.009
0.074,0.051,-0.023,-0.062,0.048,0.014,0.027,-0.002,-0.109,-0.108,-0.089,0.012
0.052,0.06,0.008,-0.056,0.022,0.034,-0.014,0.006,-0.1,-0.101,-0.081,0.021
0.057,0.058,0.001,-0.057,0.028,0.029,-0.037,-0.029,-0.117,-0.109,-0.082,0.022
0.074,0.038,-0.036,-0.056,0.055,0.001,-0.036,-0.052,-0.133,-0.102,-0.084,0.013
0.039,0.025,-0.015,-0.032,0.027,0.005,-0.026,-0.041,-0.13,-0.116,-0.125,-0.022
0.036,0.013,-0.023,-0.024,0.03,-0.005,-0.035,-0.082,-0.166,-0.132,-0.129,-0.029
0.008,0.005,-0.003,-0.006,0.005,0.001,-0.016,-0.027,-0.118,-0.112,-0.118,-0.031
0.008,-0.013,-0.021,0.003,0.015,-0.016,-0.034,-0.105,-0.173,-0.146,-0.12,-0.029
-0.014,0.01,0.024,0.002,-0.019,0.017,0.135,0.261,-0.005,-0.077,-0.1,-0.046
-0.013,0.137,0.15,-0.063,-0.081,0.143,0.191,0.203,0.178,0.058,-0.021,0.011
0.396,0.557,0.161,-0.477,0.117,0.359,-0.577,-1.024,0.439,0.72,0.679,0.603
0.558,0.758,0.2,-0.658,0.179,0.479,-1.037,-1.456,0.423,0.882,0.949,0.937
0.173,0.401,0.227,-0.287,-0.027,0.314,-0.765,-1.181,-0.481,-0.044,0.18,0.457
0.029,0.156,0.127,-0.093,-0.049,0.141,-0.484,-0.745,-0.549,-0.248,-0.151,0.108
0.037,0.079,0.042,-0.058,-0.003,0.06,-0.218,-0.283,-0.189,-0.132,-0.108,0.041
0.013,0.023,0.01,-0.019,0.001,0.016,-0.113,-0.141,-0.193,-0.173,-0.113,0.025
0.014,0.014,0.0,-0.014,0.007,0.007,-0.075,-0.059,-0.104,-0.116,-0.11,0.034
0.011,0.003,-0.008,-0.007,0.009,-0.002,-0.042,-0.041,-0.12,-0.143,-0.133,0.031
0.024,0.006,-0.018,-0.015,0.021,-0.006,-0.04,-0.006,-0.092,-0.114,-0.112,0.038
0.021,-0.002,-0.023,-0.009,0.022,-0.012,-0.026,0.0,-0.095,-0.126,-0.118,0.041
0.032,-0.004,-0.036,-0.014,0.034,-0.02,-0.025,0.003,-0.087,-0.112,-0.108,0.042
0.036,-0.004,-0.039,-0.016,0.038,-0.021,-0.014,0.015,-0.076,-0.113,-0.106,0.04
0.037,0.004,-0.033,-0.02,0.034,-0.014,-0.01,0.016,-0.075,-0.098,-0.102,0.066
0.04,0.011,-0.029,-0.025,0.034,-0.009,-0.004,0.034,-0.06,-0.081,-0.093,0.077
0.041,0.017,-0.024,-0.029,0.032,-0.003,-0.005,0.04,-0.055,-0.099,-0.089,0.076
0.044,0.024,-0.02,-0.034,0.032,0.002,-0.005,0.049,-0.033,-0.082,-0.08,0.082
0.043,0.03,-0.013,-0.037,0.028,0.008,-0.005,0.057,-0.023,-0.072,-0.075,0.083
0.043,0.034,-0.009,-0.038,0.025,0.013,-0.005,0.071,-0.008,-0.056,-0.068,0.086
0.037,0.036,0.0,-0.036,0.018,0.018,-0.005,0.089,0.005,-0.043,-0.061,0.095
0.04,0.056,0.016,-0.048,0.011,0.036,-0.009,0.105,0.032,-0.028,-0.049,0.112
0.045,0.067,0.023,-0.056,0.011,0.045,-0.011,0.119,0.061,-0.011,-0.041,0.121
0.05,0.067,0.017,-0.058,0.016,0.042,-0.013,0.127,0.08,-0.004,-0.031,0.126
0.055,0.071,0.016,-0.064,0.019,0.043,-0.017,0.143,0.106,0.025,-0.024,0.134
0.068,0.08,0.012,-0.074,0.028,0.046,-0.019,0.165,0.145,0.06,0.017,0.148
0.084,0.093,0.009,-0.089,0.037,0.051,-0.021,0.189,0.188,0.076,0.045,0.166
0.104,0.115,0.011,-0.109,0.046,0.063,-0.027,0.219,0.227,0.107,0.058,0.194
0.15,0.139,-0.01,-0.144,0.08,0.064,-0.035,0.247,0.291,0.153,0.106,0.226
0.163,0.166,0.003,-0.165,0.08,0.084,-0.042,0.281,0.352,0.199,0.13,0.254
0.16,0.197,0.037,-0.179,0.061,0.117,-0.063,0.297,0.412,0.26,0.185,0.292
0.197,0.232,0.034,-0.215,0.081,0.133,-0.085,0.294,0.474,0.299,0.234,0.338
0.231,0.266,0.035,-0.249,0.097,0.15,-0.106,0.298,0.508,0.337,0.269,0.372
0.234,0.291,0.057,-0.263,0.088,0.174,-0.134,0.273,0.537,0.384,0.313,0.413
0.229,0.294,0.065,-0.262,0.082,0.179,-0.138,0.214,0.527,0.385,0.298,0.427
0.227,0.273,0.046,-0.25,0.09,0.159,-0.132,0.14,0.47,0.354,0.29,0.414
0.217,0.25,0.032,-0.234,0.092,0.14,-0.132,0.062,0.368,0.281,0.244,0.391
0.174,0.204,0.03,-0.189,0.072,0.117,-0.089,0.012,0.235,0.18,0.153,0.319
0.113,0.143,0.03,-0.128,0.041,0.086,-0.044,-0.004,0.122,0.107,0.076,0.246
0.069,0.096,0.027,-0.083,0.021,0.061,-0.021,-0.008,0.037,0.043,0.007,0.19
0.029,0.054,0.025,-0.042,0.002,0.039,0.011,-0.013,-0.017,-0.03,-0.052,0.139
0.008,0.033,0.025,-0.021,-0.009,0.029,0.028,-0.027,-0.056,-0.076,-0.092,0.118
0.009,0.029,0.02,-0.019,-0.006,0.024,0.036,-0.037,-0.073,-0.074,-0.096,0.113
0.009,0.024,0.015,-0.017,-0.003,0.019,0.038,-0.034,-0.091,-0.086,-0.103,0.106
0.007,0.018,0.011,-0.013,-0.002,0.014,0.034,-0.035,-0.11,-0.102,-0.117,0.099
0.006,0.012,0.006,-0.009,0.0,0.009,0.036,-0.035,-0.107,-0.098,-0.121,0.092
0.008,0.01,0.002,-0.009,0.003,0.005,0.031,-0.035,-0.101,-0.113,-0.135,0.092
0.009,0.01,0.001,-0.01,0.004,0.006,0.03,-0.034,-0.098,-0.121,-0.138,0.096
-0.004,0.01,0.014,-0.003,-0.009,0.011,0.03,-0.03,-0.091,-0.113,-0.131,0.094
0.0,0.01,0.01,-0.006,-0.005,0.009,0.03,-0.03,-0.091,-0.11,-0.123,0.095
0.027,0.01,-0.017,-0.018,0.022,-0.004,0.03,-0.03,-0.089,-0.105,-0.119,0.094
0.028,0.01,-0.018,-0.019,0.023,-0.004,0.03,-0.03,-0.091,-0.099,-0.109,0.096
0.025,0.015,-0.01,-0.02,0.017,0.002,0.03,-0.03,-0.103,-0.111,-0.111,0.099
0.011,0.013,0.002,-0.012,0.004,0.007,0.03,-0.03,-0.107,-0.115,-0.138,0.102
0.01,0.009,-0.001,-0.01,0.006,0.004,0.028,-0.03,-0.104,-0.103,-0.136,0.104
0.016,0.011,-0.006,-0.013,0.011,0.003,0.025,-0.03,-0.102,-0.118,-0.129,0.107
-0.003,0.006,0.009,-0.002,-0.006,0.007,0.022,-0.03,-0.099,-0.115,-0.125,0.11
-0.01,0.005,0.015,0.002,-0.013,0.01,0.019,-0.03,-0.103,-0.1,-0.117,0.107
-0.021,0.004,0.026,0.008,-0.024,0.015,0.016,-0.031,-0.115,-0.1,-0.117,0.105
-0.016,0.001,0.017,0.007,-0.017,0.009,0.014,-0.035,-0.114,-0.1,-0.112,0.102
-0.013,-0.002,0.011,0.007,-0.012,0.004,0.01,-0.035,-0.119,-0.1,-0.141,0.099
-0.009,-0.005,0.004,0.006,-0.006,0.0,0.005,-0.035,-0.131,-0.1,-0.157,0.095
-0.005,-0.007,-0.003,0.006,-0.001,-0.005,0.001,-0.038,-0.125,-0.1,-0.145,0.095
-0.003,-0.011,-0.008,0.007,0.002,-0.009,-0.004,-0.041,-0.12,-0.087,-0.144,0.1
0.022,-0.007,-0.029,-0.007,0.026,-0.018,-0.008,-0.044,-0.117,-0.113,-0.135,0.1
0.021,-0.005,-0.025,-0.008,0.023,-0.015,-0.013,-0.047,-0.11,-0.134,-0.131,0.1
0.023,-0.005,-0.028,-0.009,0.026,-0.016,-0.015,-0.05,-0.116,-0.124,-0.133,0.1
-0.001,-0.005,-0.004,0.003,0.002,-0.004,-0.015,-0.05,-0.121,-0.124,-0.139,0.1
-0.028,-0.005,0.023,0.016,-0.025,0.009,-0.015,-0.05,-0.12,-0.119,-0.145,0.098
-0.01,-0.005,0.005,0.007,-0.007,-0.001,-0.015,-0.05,-0.12,-0.124,-0.145,0.094
-0.009,-0.009,0.0,0.009,-0.004,-0.005,-0.014,-0.053,-0.12,-0.125,-0.15,0.095
0.009,-0.01,-0.019,0.001,0.014,-0.014,-0.011,-0.055,-0.12,-0.124,-0.15,0.095
0.015,-0.01,-0.025,-0.003,0.02,-0.017,-0.01,-0.055,-0.12,-0.125,-0.146,0.095
0.006,-0.01,-0.016,0.003,0.011,-0.013,-0.01,-0.055,-0.12,-0.125,-0.145,0.095
0.004,-0.009,-0.014,0.003,0.009,-0.011,-0.01,-0.056,-0.12,-0.124,-0.139,0.095
-0.006,-0.011,-0.005,0.009,0.0,-0.007,-0.011,-0.054,-0.12,-0.119,-0.141,0.095
-0.007,-0.009,-0.002,0.008,-0.002,-0.006,-0.007,-0.06,-0.119,-0.121,-0.13,0.095
-0.011,-0.012,-0.001,0.012,-0.005,-0.006,-0.005,-0.072,-0.121,-0.117,-0.133,0.095
-0.006,-0.024,-0.018,0.015,0.006,-0.021,-0.005,-0.068,-0.125,-0.115,-0.16,0.095
0.014,-0.022,-0.036,0.005,0.025,-0.029,-0.001,-0.065,-0.125,-0.115,-0.16,0.092
0.017,-0.015,-0.032,-0.001,0.025,-0.023,0.0,-0.063,-0.125,-0.111,-0.155,0.09
0.013,-0.014,-0.028,0.001,0.021,-0.021,0.0,-0.059,-0.125,-0.109,-0.154,0.09
0.021,-0.005,-0.026,-0.008,0.024,-0.015,0.005,-0.064,-0.129,-0.108,-0.149,0.09
0.007,-0.011,-0.018,0.002,0.013,-0.014,0.005,-0.065,-0.13,-0.103,-0.152,0.09
-0.004,-0.031,-0.026,0.018,0.011,-0.028,0.005,-0.065,-0.13,-0.108,-0.155,0.09
0.008,-0.028,-0.036,0.011,0.022,-0.031,0.005,-0.065,-0.134,-0.12,-0.155,0.096
0.001,-0.024,-0.024,0.012,0.013,-0.024,0.005,-0.065,-0.135,-0.117,-0.155,0.098
-0.011,-0.021,-0.01,0.017,-0.001,-0.015,0.005,-0.065,-0.134,-0.108,-0.155,0.094
-0.003,-0.015,-0.012,0.01,0.005,-0.014,0.005,-0.061,-0.13,-0.103,-0.155,0.092
0.011,-0.016,-0.027,0.003,0.019,-0.021,0.005,-0.06,-0.13,-0.095,-0.159,0.089
-0.003,-0.024,-0.021,0.014,0.009,-0.022,0.005,-0.06,-0.128,-0.09,-0.16,0.085
-0.019,-0.036,-0.016,0.028,-0.001,-0.026,0.005,-0.055,-0.124,-0.096,-0.16,0.085
-0.028,-0.037,-0.009,0.032,-0.009,-0.022,0.004,-0.055,-0.125,-0.101,-0.164,0.089
-0.023,-0.031,-0.008,0.027,-0.007,-0.019,0.0,-0.054,-0.121,-0.1,-0.165,0.092
0.002,-0.026,-0.029,0.012,0.016,-0.027,0.0,-0.05,-0.12,-0.1,-0.164,0.094
0.008,-0.023,-0.031,0.007,0.02,-0.027,0.0,-0.05,-0.119,-0.1,-0.159,0.098
0.012,-0.017,-0.029,0.002,0.021,-0.023,0.0,-0.05,-0.116,-0.1,-0.154,0.1
0.01,-0.016,-0.025,0.004,0.018,-0.02,0.0,-0.05,-0.114,-0.1,-0.149,0.1
0.003,-0.022,-0.025,0.01,0.015,-0.024,0.003,-0.05,-0.117,-0.095,-0.146,0.1
-0.005,-0.028,-0.022,0.017,0.009,-0.025,0.005,-0.054,-0.12,-0.092,-0.139,0.1
-0.007,-0.034,-0.027,0.021,0.01,-0.03,0.005,-0.055,-0.127,-0.088,-0.137,0.099
0.016,-0.032,-0.047,0.008,0.032,-0.039,0.005,-0.055,-0.128,-0.085,-0.121,0.096
0.014,-0.03,-0.043,0.008,0.028,-0.036,0.0,-0.06,-0.125,-0.079,-0.125,0.093
0.009,-0.03,-0.039,0.01,0.024,-0.035,0.0,-0.059,-0.141,-0.084,-0.155,0.09
0.018,-0.025,-0.043,0.004,0.031,-0.034,0.0,-0.061,-0.137,-0.091,-0.153,0.087
0.023,-0.025,-0.048,0.001,0.036,-0.036,0.0,-0.065,-0.123,-0.089,-0.145,0.085
0.033,-0.024,-0.057,-0.004,0.045,-0.04,0.0,-0.064,-0.119,-0.091,-0.144,0.085
0.015,-0.019,-0.034,0.003,0.025,-0.026,0.0,-0.068,-0.11,-0.088,-0.136,0.085
0.006,-0.021,-0.027,0.008,0.017,-0.023,0.001,-0.069,-0.104,-0.099,-0.135,0.084
0.03,-0.018,-0.047,-0.005,0.039,-0.032,-0.001,-0.073,-0.098,-0.105,-0.135,0.085
0.03,-0.014,-0.044,-0.008,0.038,-0.029,0.01,-0.056,-0.089,-0.093,-0.133,0.085
0.029,-0.017,-0.045,-0.005,0.037,-0.031,0.021,-0.035,-0.097,-0.087,-0.146,0.094
0.039,-0.006,-0.045,-0.016,0.042,-0.025,0.032,0.0,-0.091,-0.072,-0.137,0.107
0.053,0.009,-0.045,-0.031,0.049,-0.017,0.037,0.002,-0.099,-0.069,-0.111,0.11
0.089,0.045,-0.044,-0.066,0.066,0.0,0.011,-0.022,-0.091,-0.061,-0.1,0.126
0.082,0.045,-0.036,-0.063,0.059,0.005,-0.01,-0.051,-0.097,-0.067,-0.107,0.121
0.044,0.006,-0.038,-0.025,0.041,-0.015,-0.013,-0.062,-0.096,-0.068,-0.093,0.108
0.016,-0.008,-0.024,-0.004,0.021,-0.016,-0.006,-0.052,-0.091,-0.091,-0.127,0.088
0.012,-0.01,-0.022,-0.001,0.017,-0.015,-0.013,-0.091,-0.127,-0.092,-0.136,0.082
-0.012,-0.014,-0.002,0.013,-0.005,-0.008,0.004,-0.048,-0.094,-0.089,-0.129,0.071
-0.017,-0.023,-0.005,0.02,-0.006,-0.014,-0.019,-0.11,-0.144,-0.125,-0.162,0.063
-0.033,0.005,0.039,0.013,-0.036,0.022,0.133,0.225,0.041,-0.041,-0.135,0.046
-0.024,0.13,0.154,-0.053,-0.089,0.142,0.205,0.251,0.22,0.08,-0.056,0.076
0.362,0.532,0.169,-0.447,0.096,0.35,-0.514,-0.836,0.524,0.816,0.723,0.709
0.515,0.777,0.262,-0.646,0.126,0.52,-1.009,-1.33,0.485,0.996,1.029,1.094
0.169,0.481,0.312,-0.325,-0.072,0.396,-0.749,-1.112,-0.513,-0.002,0.159,0.554
-0.006,0.174,0.18,-0.084,-0.093,0.177,-0.454,-0.709,-0.576,-0.217,-0.159,0.201
-0.025,0.057,0.081,-0.016,-0.053,0.068,-0.207,-0.284,-0.178,-0.1,-0.108,0.141
-0.009,0.013,0.021,-0.002,-0.015,0.017,-0.089,-0.14,-0.166,-0.126,-0.126,0.092
-0.007,-0.006,0.001,0.007,-0.004,-0.003,-0.05,-0.062,-0.08,-0.06,-0.103,0.099
-0.013,-0.018,-0.004,0.016,-0.004,-0.011,-0.026,-0.053,-0.097,-0.087,-0.126,0.092
-0.002,-0.013,-0.011,0.008,0.005,-0.012,-0.027,-0.026,-0.057,-0.05,-0.103,0.102
-0.003,-0.017,-0.014,0.01,0.006,-0.015,-0.016,-0.015,-0.058,-0.063,-0.115,0.101
0.01,-0.013,-0.023,0.002,0.017,-0.018,-0.017,-0.011,-0.047,-0.05,-0.107,0.105
-0.001,-0.024,-0.023,0.013,0.011,-0.024,-0.009,0.003,-0.031,-0.048,-0.105,0.108
-0.009,-0.029,-0.02,0.019,0.006,-0.025,-0.006,0.004,-0.027,-0.045,-0.1,0.109
0.0,-0.02,-0.02,0.01,0.01,-0.02,-0.001,0.03,-0.006,-0.033,-0.091,0.112
0.005,-0.015,-0.02,0.005,0.013,-0.017,0.001,0.042,-0.001,-0.027,-0.09,0.114
0.013,-0.007,-0.02,-0.003,0.017,-0.013,-0.001,0.053,0.019,-0.014,-0.078,0.116
0.019,-0.001,-0.02,-0.009,0.02,-0.011,0.001,0.06,0.029,-0.004,-0.058,0.12
0.021,0.005,-0.016,-0.013,0.018,-0.006,0.0,0.071,0.045,0.009,-0.041,0.128
0.027,0.012,-0.015,-0.019,0.021,-0.001,-0.001,0.088,0.073,0.019,-0.036,0.134
0.035,0.02,-0.015,-0.027,0.025,0.002,-0.006,0.097,0.091,0.045,-0.026,0.146
0.037,0.022,-0.015,-0.029,0.026,0.003,-0.009,0.105,0.111,0.058,-0.021,0.155
0.052,0.037,-0.015,-0.044,0.033,0.01,-0.012,0.115,0.136,0.065,-0.008,0.159
0.068,0.054,-0.015,-0.061,0.041,0.019,-0.017,0.135,0.158,0.078,0.023,0.175
0.087,0.071,-0.016,-0.079,0.051,0.027,-0.019,0.146,0.201,0.115,0.034,0.189
0.098,0.089,-0.009,-0.093,0.053,0.04,-0.028,0.166,0.245,0.151,0.053,0.205
0.102,0.105,0.003,-0.104,0.05,0.054,-0.039,0.196,0.286,0.173,0.093,0.229
0.12,0.138,0.018,-0.13,0.051,0.078,-0.046,0.219,0.336,0.206,0.113,0.244
0.139,0.167,0.028,-0.153,0.055,0.097,-0.064,0.251,0.399,0.263,0.166,0.282
0.178,0.209,0.031,-0.193,0.073,0.12,-0.091,0.259,0.458,0.313,0.227,0.327
0.196,0.251,0.056,-0.224,0.07,0.153,-0.117,0.249,0.511,0.356,0.262,0.362
0.198,0.27,0.071,-0.234,0.063,0.17,-0.143,0.249,0.557,0.417,0.319,0.41
0.216,0.285,0.069,-0.251,0.073,0.177,-0.168,0.239,0.583,0.438,0.354,0.44
0.216,0.287,0.07,-0.251,0.073,0.178,-0.177,0.189,0.572,0.437,0.356,0.436
0.2,0.27,0.07,-0.235,0.065,0.169,-0.171,0.119,0.502,0.408,0.342,0.424
0.157,0.227,0.07,-0.192,0.043,0.148,-0.15,0.059,0.397,0.337,0.285,0.404
0.109,0.175,0.066,-0.142,0.022,0.12,-0.11,0.007,0.261,0.248,0.181,0.328
0.067,0.122,0.055,-0.095,0.006,0.088,-0.063,-0.015,0.134,0.13,0.087,0.252
0.023,0.068,0.045,-0.046,-0.012,0.057,-0.02,-0.015,0.054,0.05,0.028,0.2
-0.006,0.029,0.035,-0.011,-0.021,0.032,0.006,-0.015,-0.009,0.013,-0.02,0.152
-0.023,0.004,0.027,0.009,-0.026,0.015,0.015,-0.015,-0.049,-0.027,-0.052,0.135
-0.023,-0.002,0.021,0.012,-0.022,0.009,0.02,-0.015,-0.065,-0.039,-0.073,0.119
-0.018,-0.005,0.014,0.011,-0.015,0.004,0.028,-0.015,-0.074,-0.045,-0.091,0.108
-0.017,-0.008,0.008,0.012,-0.013,0.0,0.033,-0.015,-0.081,-0.065,-0.096,0.104
-0.012,-0.013,-0.001,0.012,-0.005,-0.006,0.031,-0.015,-0.088,-0.072,-0.097,0.098
-0.023,-0.015,0.008,0.019,-0.015,-0.004,0.026,-0.015,-0.087,-0.075,-0.101,0.093
-0.025,-0.009,0.016,0.017,-0.02,0.003,0.024,-0.015,-0.084,-0.074,-0.098,0.087
-0.024,-0.004,0.02,0.014,-0.022,0.008,0.019,-0.015,-0.081,-0.084,-0.095,0.082
-0.034,0.001,0.036,0.016,-0.035,0.018,0.016,-0.018,-0.079,-0.09,-0.095,0.08
-0.028,0.007,0.035,0.01,-0.032,0.021,0.012,-0.021,-0.074,-0.082,-0.093,0.08
-0.022,0.013,0.035,0.004,-0.028,0.024,0.01,-0.019,-0.079,-0.078,-0.09,0.08
-0.022,0.013,0.035,0.004,-0.029,0.024,0.01,-0.015,-0.09,-0.072,-0.09,0.08
-0.026,0.009,0.035,0.008,-0.03,0.022,0.006,-0.016,-0.091,-0.066,-0.094,0.08
-0.023,0.01,0.034,0.006,-0.029,0.022,0.005,-0.012,-0.089,-0.063,-0.095,0.084
-0.023,0.006,0.029,0.008,-0.026,0.017,0.005,-0.01,-0.091,-0.056,-0.095,0.085
-0.019,0.005,0.023,0.007,-0.021,0.014,0.005,-0.009,-0.089,-0.057,-0.095,0.086
-0.015,0.005,0.02,0.005,-0.018,0.012,0.005,-0.018,-0.09,-0.068,-0.095,0.09
-0.015,0.0,0.015,0.007,-0.015,0.007,0.005,-0.034,-0.11,-0.071,-0.094,0.09
-0.01,0.0,0.01,0.005,-0.01,0.005,0.003,-0.035,-0.118,-0.07,-0.09,0.087
-0.027,-0.001,0.026,0.014,-0.026,0.012,0.004,-0.035,-0.119,-0.069,-0.09,0.085
-0.033,-0.005,0.028,0.019,-0.03,0.011,0.006,-0.035,-0.121,-0.072,-0.09,0.082
-0.026,-0.005,0.021,0.015,-0.023,0.008,0.002,-0.035,-0.119,-0.066,-0.089,0.079
-0.022,-0.007,0.016,0.014,-0.019,0.004,0.0,-0.034,-0.12,-0.076,-0.096,0.075
-0.026,-0.015,0.011,0.02,-0.018,-0.002,0.0,-0.029,-0.12,-0.097,-0.101,0.075
-0.022,-0.019,0.003,0.02,-0.012,-0.008,-0.004,-0.031,-0.125,-0.088,-0.1,0.08
-0.009,-0.016,-0.006,0.013,-0.001,-0.011,-0.005,-0.027,-0.125,-0.084,-0.1,0.08
-0.017,-0.015,0.002,0.016,-0.009,-0.006,-0.005,-0.024,-0.122,-0.078,-0.1,0.08
-0.03,-0.015,0.015,0.022,-0.022,0.0,-0.01,-0.026,-0.119,-0.071,-0.1,0.08
-0.037,-0.015,0.021,0.026,-0.029,0.003,-0.01,-0.021,-0.116,-0.073,-0.1,0.08
-0.029,-0.015,0.015,0.022,-0.021,0.0,-0.01,-0.02,-0.114,-0.068,-0.1,0.077
-0.036,-0.017,0.018,0.026,-0.027,0.0,-0.01,-0.02,-0.122,-0.083,-0.1,0.075
-0.037,-0.021,0.017,0.029,-0.027,-0.002,-0.01,-0.02,-0.139,-0.097,-0.1,0.075
-0.028,-0.02,0.008,0.024,-0.018,-0.005,-0.012,-0.02,-0.138,-0.094,-0.101,0.072
-0.03,-0.024,0.006,0.026,-0.017,-0.009,-0.017,-0.02,-0.133,-0.095,-0.098,0.069
-0.022,-0.025,-0.004,0.024,-0.009,-0.014,-0.02,-0.032,-0.131,-0.095,-0.095,0.071
-0.024,-0.025,0.0,0.025,-0.011,-0.013,-0.02,-0.035,-0.125,-0.095,-0.092,0.074
-0.029,-0.025,0.004,0.027,-0.016,-0.01,-0.02,-0.029,-0.126,-0.091,-0.09,0.077
-0.043,-0.025,0.018,0.034,-0.03,-0.003,-0.02,-0.028,-0.13,-0.09,-0.086,0.079
-0.059,-0.025,0.034,0.042,-0.046,0.004,-0.02,-0.021,-0.13,-0.09,-0.084,0.083
-0.049,-0.025,0.024,0.037,-0.036,-0.001,-0.02,-0.021,-0.13,-0.086,-0.089,0.085
-0.048,-0.025,0.023,0.037,-0.035,-0.001,-0.023,-0.024,-0.133,-0.084,-0.087,0.083
-0.039,-0.023,0.017,0.031,-0.028,-0.002,-0.025,-0.026,-0.136,-0.086,-0.084,0.078
-0.032,-0.02,0.013,0.025,-0.022,-0.003,-0.025,-0.03,-0.139,-0.09,-0.085,0.075
-0.026,-0.017,0.009,0.021,-0.017,-0.004,-0.028,-0.028,-0.142,-0.094,-0.085,0.072
0.003,-0.014,-0.017,0.006,0.01,-0.015,-0.031,-0.024,-0.145,-0.111,-0.084,0.067
-0.011,-0.011,0.0,0.011,-0.006,-0.005,-0.029,-0.025,-0.144,-0.115,-0.087,0.065
-0.025,-0.01,0.015,0.017,-0.02,0.003,-0.026,-0.025,-0.14,-0.109,-0.091,0.065
-0.044,-0.016,0.028,0.03,-0.036,0.006,-0.019,-0.025,-0.14,-0.105,-0.09,0.065
-0.057,-0.023,0.034,0.039,-0.045,0.005,-0.016,-0.024,-0.138,-0.098,-0.09,0.065
-0.041,-0.025,0.015,0.033,-0.027,-0.005,-0.011,-0.021,-0.134,-0.093,-0.087,0.065
-0.044,-0.025,0.019,0.034,-0.031,-0.003,-0.006,-0.02,-0.136,-0.087,-0.084,0.065
-0.016,-0.025,-0.009,0.02,-0.003,-0.017,-0.007,-0.02,-0.13,-0.085,-0.085,0.063
0.001,-0.025,-0.026,0.012,0.014,-0.025,-0.011,-0.02,-0.133,-0.081,-0.085,0.058
-0.028,-0.025,0.003,0.026,-0.015,-0.011,-0.013,-0.02,-0.154,-0.079,-0.085,0.055
-0.042,-0.026,0.016,0.033,-0.029,-0.004,-0.016,-0.02,-0.153,-0.076,-0.085,0.052
-0.033,-0.029,0.004,0.031,-0.018,-0.013,-0.019,-0.02,-0.148,-0.073,-0.085,0.047
-0.008,-0.03,-0.022,0.02,0.007,-0.026,-0.021,-0.02,-0.146,-0.085,-0.085,0.046
0.019,-0.03,-0.049,0.005,0.034,-0.039,-0.024,-0.019,-0.141,-0.085,-0.082,0.051
0.011,-0.03,-0.041,0.01,0.026,-0.035,-0.025,-0.033,-0.139,-0.098,-0.079,0.05
0.003,-0.03,-0.033,0.014,0.018,-0.031,-0.025,-0.04,-0.134,-0.109,-0.08,0.05
0.002,-0.03,-0.032,0.014,0.017,-0.031,-0.025,-0.032,-0.128,-0.097,-0.08,0.05
-0.008,-0.03,-0.022,0.019,0.007,-0.026,-0.026,-0.028,-0.125,-0.093,-0.08,0.049
-0.014,-0.025,-0.012,0.02,-0.001,-0.018,-0.022,-0.021,-0.12,-0.093,-0.08,0.05
-0.044,-0.026,0.019,0.035,-0.031,-0.003,-0.019,-0.015,-0.116,-0.096,-0.076,0.054
-0.031,-0.024,0.007,0.027,-0.019,-0.008,-0.02,-0.022,-0.118,-0.095,-0.075,0.056
0.009,-0.02,-0.028,0.006,0.019,-0.024,-0.02,-0.031,-0.121,-0.099,-0.075,0.054
-0.007,-0.02,-0.013,0.014,0.003,-0.017,-0.02,-0.025,-0.124,-0.101,-0.075,0.056
-0.012,-0.017,-0.005,0.015,-0.003,-0.011,-0.019,-0.018,-0.126,-0.098,-0.075,0.054
-0.024,-0.015,0.009,0.019,-0.016,-0.003,-0.031,-0.017,-0.132,-0.089,-0.073,0.058
-0.035,-0.011,0.024,0.023,-0.03,0.006,-0.03,-0.005,-0.126,-0.074,-0.068,0.067
-0.033,-0.01,0.023,0.021,-0.028,0.006,-0.021,-0.008,-0.117,-0.067,-0.068,0.07
-0.027,-0.005,0.023,0.016,-0.025,0.009,-0.01,0.027,-0.089,-0.054,-0.06,0.074
0.022,-0.006,-0.028,-0.008,0.026,-0.017,0.005,0.042,-0.079,-0.054,-0.063,0.074
0.02,0.007,-0.013,-0.013,0.016,-0.003,-0.021,0.02,-0.071,-0.053,-0.062,0.083
0.038,0.032,-0.006,-0.035,0.022,0.013,-0.045,-0.004,-0.082,-0.063,-0.068,0.074
0.041,0.024,-0.017,-0.032,0.029,0.004,-0.048,-0.021,-0.107,-0.064,-0.067,0.074
-0.03,0.005,0.035,0.012,-0.033,0.02,-0.037,-0.008,-0.107,-0.072,-0.07,0.064
-0.013,-0.005,0.008,0.008,-0.01,0.002,-0.045,-0.055,-0.143,-0.092,-0.075,0.061
-0.036,-0.007,0.029,0.021,-0.032,0.01,-0.028,0.003,-0.101,-0.077,-0.07,0.056
-0.042,-0.025,0.017,0.034,-0.029,-0.004,-0.046,-0.068,-0.142,-0.098,-0.084,0.044
-0.033,-0.012,0.02,0.022,-0.026,0.004,0.095,0.253,0.014,-0.046,-0.075,0.043
-0.046,0.099,0.146,-0.027,-0.097,0.122,0.195,0.284,0.185,0.069,-0.01,0.058
0.319,0.495,0.177,-0.407,0.071,0.336,-0.526,-0.878,0.484,0.744,0.691,0.613
0.538,0.752,0.214,-0.645,0.162,0.483,-1.066,-1.388,0.559,1.02,1.08,1.036
0.204,0.438,0.234,-0.322,-0.015,0.335,-0.827,-1.164,-0.407,0.076,0.309,0.575
-0.016,0.145,0.16,-0.065,-0.088,0.152,-0.523,-0.75,-0.566,-0.237,-0.09,0.186
-0.026,0.048,0.074,-0.011,-0.051,0.061,-0.239,-0.276,-0.163,-0.075,-0.043,0.111
-0.038,0.001,0.038,0.018,-0.038,0.019,-0.121,-0.117,-0.167,-0.107,-0.052,0.086
-0.028,0.001,0.029,0.013,-0.028,0.015,-0.091,-0.027,-0.08,-0.056,-0.043,0.082
-0.014,-0.011,0.003,0.012,-0.008,-0.003,-0.064,-0.018,-0.098,-0.075,-0.074,0.07
-0.03,-0.009,0.02,0.02,-0.025,0.005,-0.064,0.006,-0.066,-0.052,-0.052,0.078
-0.036,-0.018,0.019,0.027,-0.027,0.0,-0.048,0.019,-0.059,-0.056,-0.054,0.073
-0.032,-0.019,0.013,0.025,-0.022,-0.003,-0.052,0.03,-0.049,-0.048,-0.043,0.076
-0.028,-0.016,0.012,0.022,-0.019,-0.001,-0.045,0.037,-0.03,-0.039,-0.037,0.075
-0.017,-0.012,0.005,0.014,-0.011,-0.003,-0.044,0.036,-0.031,-0.037,-0.034,0.079
-0.012,-0.008,0.004,0.01,-0.008,-0.002,-0.04,0.063,-0.012,-0.024,-0.024,0.083
0.014,-0.005,-0.018,-0.004,0.017,-0.011,-0.038,0.068,-0.013,-0.024,-0.023,0.085
0.025,0.0,-0.025,-0.012,0.025,-0.013,-0.033,0.083,0.01,-0.001,-0.015,0.09
0.006,0.002,-0.005,-0.004,0.005,-0.001,-0.027,0.098,0.027,0.015,-0.01,0.09
0.0,0.01,0.01,-0.005,-0.005,0.009,-0.023,0.111,0.05,0.025,-0.006,0.09
0.015,0.013,-0.002,-0.014,0.008,0.005,-0.016,0.122,0.066,0.039,0.007,0.108
0.022,0.021,-0.002,-0.021,0.012,0.009,-0.01,0.139,0.082,0.043,0.019,0.116
0.018,0.023,0.005,-0.021,0.007,0.014,-0.021,0.15,0.108,0.058,0.034,0.114
0.04,0.033,-0.008,-0.036,0.024,0.012,-0.04,0.164,0.128,0.075,0.041,0.121
0.046,0.042,-0.004,-0.044,0.025,0.019,-0.039,0.193,0.161,0.096,0.054,0.134
0.04,0.046,0.006,-0.043,0.017,0.025,-0.042,0.212,0.202,0.121,0.084,0.146
0.062,0.072,0.009,-0.067,0.026,0.04,-0.045,0.234,0.234,0.125,0.091,0.162
0.061,0.086,0.025,-0.074,0.017,0.056,-0.046,0.265,0.284,0.175,0.123,0.187
0.084,0.116,0.032,-0.1,0.026,0.074,-0.055,0.289,0.342,0.22,0.157,0.208
0.115,0.155,0.04,-0.136,0.037,0.097,-0.067,0.304,0.401,0.26,0.192,0.24
0.121,0.188,0.067,-0.155,0.027,0.127,-0.084,0.311,0.476,0.326,0.256,0.282
0.152,0.223,0.071,-0.188,0.04,0.147,-0.107,0.304,0.528,0.36,0.3,0.319
0.186,0.255,0.069,-0.22,0.058,0.161,-0.126,0.287,0.573,0.405,0.341,0.354
0.207,0.278,0.071,-0.243,0.068,0.174,-0.144,0.266,0.603,0.454,0.383,0.387
0.204,0.273,0.069,-0.239,0.067,0.171,-0.162,0.216,0.591,0.449,0.397,0.4
0.191,0.261,0.07,-0.226,0.06,0.166,-0.16,0.13,0.536,0.42,0.379,0.391
0.153,0.222,0.07,-0.187,0.041,0.146,-0.151,0.046,0.426,0.369,0.336,0.37
0.098,0.169,0.071,-0.133,0.013,0.119,-0.116,-0.02,0.299,0.26,0.251,0.31
0.057,0.121,0.064,-0.089,-0.004,0.092,-0.063,-0.054,0.176,0.159,0.154,0.233
0.022,0.074,0.051,-0.048,-0.015,0.062,-0.029,-0.067,0.077,0.089,0.09,0.172
-0.001,0.039,0.04,-0.019,-0.02,0.039,-0.01,-0.076,0.009,0.03,0.052,0.129
-0.022,0.012,0.035,0.004,-0.029,0.023,0.001,-0.078,-0.021,-0.001,0.016,0.097
-0.032,0.004,0.035,0.013,-0.034,0.019,0.014,-0.082,-0.033,-0.016,-0.015,0.078
-0.034,0.001,0.035,0.016,-0.034,0.018,0.017,-0.085,-0.053,-0.025,-0.028,0.071
-0.038,-0.003,0.035,0.02,-0.036,0.016,0.015,-0.085,-0.064,-0.035,-0.031,0.066
-0.042,-0.006,0.035,0.023,-0.038,0.015,0.015,-0.085,-0.066,-0.037,-0.029,0.061
-0.041,-0.01,0.031,0.026,-0.036,0.01,0.015,-0.085,-0.064,-0.034,-0.031,0.055
-0.038,-0.013,0.025,0.025,-0.031,0.006,0.015,-0.085,-0.061,-0.035,-0.03,0.05
-0.036,-0.016,0.02,0.026,-0.028,0.002,0.015,-0.085,-0.06,-0.03,-0.031,0.05
-0.033,-0.019,0.014,0.026,-0.024,-0.002,0.022,-0.087,-0.061,-0.03,-0.029,0.05
-0.03,-0.022,0.009,0.026,-0.019,-0.006,0.021,-0.09,-0.068,-0.03,-0.032,0.05
-0.03,-0.025,0.005,0.027,-0.017,-0.01,0.02,-0.09,-0.074,-0.03,-0.043,0.05
-0.043,-0.024,0.019,0.033,-0.031,-0.002,0.019,-0.09,-0.075,-0.03,-0.046,0.05
-0.049,-0.02,0.029,0.034,-0.039,0.004,0.014,-0.089,-0.075,-0.03,-0.044,0.048
-0.039,-0.02,0.019,0.029,-0.029,0.0,0.016,-0.091,-0.075,-0.03,-0.046,0.044
-0.033,-0.021,0.012,0.026,-0.023,-0.004,0.013,-0.078,-0.075,-0.03,-0.045,0.042
-0.023,-0.019,0.004,0.021,-0.014,-0.007,0.009,-0.048,-0.075,-0.033,-0.046,0.039
-0.019,-0.021,-0.002,0.02,-0.008,-0.012,0.011,-0.037,-0.074,-0.038,-0.05,0.036
-0.012,-0.018,-0.007,0.015,-0.003,-0.012,0.01,-0.033,-0.07,-0.039,-0.05,0.035
-0.016,-0.026,-0.01,0.021,-0.003,-0.018,0.011,-0.027,-0.07,-0.035,-0.051,0.035
-0.043,-0.045,-0.002,0.044,-0.02,-0.024,0.009,-0.022,-0.066,-0.035,-0.055,0.035
-0.048,-0.045,0.003,0.046,-0.025,-0.021,0.006,-0.015,-0.064,-0.036,-0.054,0.035
-0.039,-0.046,-0.007,0.043,-0.016,-0.026,0.003,-0.019,-0.08,-0.034,-0.058,0.035
-0.037,-0.05,-0.013,0.044,-0.012,-0.031,0.0,-0.028,-0.092,-0.043,-0.06,0.035
-0.034,-0.05,-0.016,0.043,-0.009,-0.032,-0.002,-0.035,-0.089,-0.05,-0.06,0.033
-0.033,-0.048,-0.014,0.041,-0.009,-0.031,-0.006,-0.045,-0.09,-0.052,-0.06,0.029
-0.032,-0.044,-0.012,0.039,-0.009,-0.028,-0.002,-0.049,-0.094,-0.055,-0.06,0.03
-0.019,-0.045,-0.027,0.032,0.005,-0.036,0.0,-0.067,-0.094,-0.059,-0.06,0.026
-0.01,-0.041,-0.031,0.025,0.011,-0.036,0.0,-0.082,-0.1,-0.06,-0.055,0.025
-0.016,-0.04,-0.024,0.028,0.004,-0.032,0.0,-0.078,-0.11,-0.056,-0.055,0.025
-0.015,-0.039,-0.025,0.027,0.005,-0.032,0.0,-0.091,-0.102,-0.054,-0.054,0.02
-0.026,-0.045,-0.019,0.035,-0.003,-0.032,0.005,-0.101,-0.095,-0.05,-0.049,0.02
-0.033,-0.051,-0.018,0.042,-0.007,-0.034,0.005,-0.099,-0.09,-0.051,-0.051,0.02
-0.014,-0.05,-0.035,0.032,0.01,-0.042,0.005,-0.103,-0.081,-0.055,-0.047,0.02
-0.013,-0.05,-0.037,0.032,0.012,-0.043,0.005,-0.105,-0.084,-0.058,-0.046,0.02
-0.022,-0.05,-0.028,0.036,0.003,-0.039,0.005,-0.105,-0.089,-0.061,-0.043,0.018
-0.024,-0.05,-0.026,0.037,0.001,-0.038,0.005,-0.101,-0.093,-0.065,-0.042,0.014
-0.037,-0.053,-0.016,0.045,-0.01,-0.034,0.005,-0.1,-0.104,-0.079,-0.036,0.012
-0.038,-0.058,-0.021,0.048,-0.008,-0.039,0.005,-0.1,-0.105,-0.074,-0.045,0.009
-0.023,-0.059,-0.036,0.041,0.006,-0.047,0.005,-0.1,-0.105,-0.057,-0.066,0.006
-0.034,-0.069,-0.035,0.052,0.001,-0.051,0.005,-0.099,-0.105,-0.051,-0.06,0.004
-0.046,-0.076,-0.03,0.061,-0.007,-0.053,0.005,-0.102,-0.105,-0.05,-0.055,0.0
-0.041,-0.07,-0.029,0.055,-0.006,-0.049,0.009,-0.112,-0.104,-0.049,-0.052,0.0
-0.044,-0.068,-0.024,0.056,-0.009,-0.046,0.01,-0.11,-0.1,-0.045,-0.046,-0.001
-0.039,-0.063,-0.024,0.051,-0.007,-0.044,0.01,-0.11,-0.098,-0.043,-0.042,-0.005
-0.022,-0.06,-0.038,0.041,0.008,-0.049,0.01,-0.108,-0.094,-0.056,-0.04,-0.005
-0.023,-0.064,-0.041,0.043,0.01,-0.052,0.009,-0.104,-0.092,-0.067,-0.04,-0.003
-0.031,-0.065,-0.034,0.048,0.002,-0.05,0.013,-0.106,-0.089,-0.062,-0.037,0.0
-0.03,-0.065,-0.035,0.048,0.003,-0.05,0.015,-0.1,-0.095,-0.06,-0.034,0.0
-0.036,-0.065,-0.029,0.05,-0.003,-0.046,0.015,-0.09,-0.104,-0.057,-0.037,0.004
-0.034,-0.065,-0.032,0.05,0.0,-0.048,0.019,-0.073,-0.105,-0.054,-0.056,0.005
-0.015,-0.063,-0.048,0.039,0.017,-0.056,0.02,-0.06,-0.105,-0.052,-0.062,0.005
-0.009,-0.06,-0.051,0.034,0.021,-0.055,0.02,-0.055,-0.109,-0.049,-0.059,0.01
-0.011,-0.06,-0.049,0.035,0.019,-0.054,0.02,-0.05,-0.11,-0.051,-0.061,0.01
-0.014,-0.06,-0.046,0.038,0.016,-0.052,0.02,-0.044,-0.109,-0.049,-0.06,0.01
-0.015,-0.06,-0.045,0.038,0.015,-0.052,0.02,-0.038,-0.105,-0.051,-0.059,0.01
-0.016,-0.06,-0.044,0.038,0.014,-0.052,0.02,-0.035,-0.105,-0.048,-0.054,0.01
-0.024,-0.063,-0.04,0.044,0.008,-0.051,0.02,-0.034,-0.105,-0.045,-0.051,0.008
-0.025,-0.065,-0.04,0.045,0.008,-0.052,0.022,-0.048,-0.105,-0.045,-0.048,0.005
-0.027,-0.065,-0.038,0.046,0.006,-0.051,0.026,-0.067,-0.105,-0.043,-0.043,0.002
-0.031,-0.065,-0.034,0.048,0.002,-0.049,0.025,-0.065,-0.101,-0.039,-0.04,-0.001
-0.031,-0.067,-0.036,0.049,0.003,-0.051,0.025,-0.067,-0.1,-0.04,-0.036,-0.005
-0.029,-0.066,-0.038,0.048,0.005,-0.051,0.025,-0.087,-0.099,-0.043,-0.035,-0.005
-0.022,-0.065,-0.043,0.043,0.011,-0.054,0.026,-0.091,-0.096,-0.046,-0.034,0.0
-0.02,-0.064,-0.044,0.043,0.012,-0.054,0.029,-0.089,-0.094,-0.049,-0.028,0.0
-0.025,-0.061,-0.035,0.043,0.005,-0.048,0.03,-0.09,-0.097,-0.05,-0.037,0.0
-0.029,-0.059,-0.03,0.044,0.001,-0.045,0.03,-0.09,-0.1,-0.044,-0.05,0.0
-0.042,-0.062,-0.02,0.052,-0.011,-0.04,0.03,-0.09,-0.1,-0.042,-0.043,0.0
-0.029,-0.065,-0.036,0.047,0.004,-0.05,0.03,-0.085,-0.1,-0.038,-0.035,-0.002
-0.006,-0.065,-0.059,0.036,0.027,-0.062,0.028,-0.082,-0.1,-0.035,-0.03,-0.006
-0.014,-0.065,-0.05,0.04,0.019,-0.057,0.025,-0.077,-0.1,-0.054,-0.021,-0.008
-0.026,-0.065,-0.039,0.046,0.007,-0.052,0.022,-0.068,-0.097,-0.06,-0.026,-0.011
-0.032,-0.065,-0.032,0.049,0.001,-0.048,0.019,-0.06,-0.094,-0.051,-0.036,-0.014
-0.019,-0.062,-0.042,0.041,0.012,-0.052,0.015,-0.051,-0.096,-0.05,-0.034,-0.015
-0.009,-0.057,-0.048,0.034,0.02,-0.053,0.015,-0.045,-0.094,-0.043,-0.039,-0.015
-0.01,-0.054,-0.044,0.032,0.018,-0.049,0.02,-0.04,-0.096,-0.04,-0.041,-0.015
-0.009,-0.051,-0.042,0.03,0.016,-0.047,0.02,-0.036,-0.094,-0.045,-0.04,-0.015
-0.006,-0.045,-0.039,0.026,0.017,-0.042,0.021,-0.031,-0.09,-0.045,-0.039,-0.016
-0.012,-0.048,-0.036,0.031,0.012,-0.042,0.017,-0.026,-0.091,-0.045,-0.035,-0.015
-0.022,-0.056,-0.034,0.04,0.006,-0.045,0.015,-0.022,-0.087,-0.045,-0.034,-0.018
-0.008,-0.055,-0.046,0.032,0.02,-0.05,0.015,-0.019,-0.085,-0.045,-0.038,-0.024
0.001,-0.054,-0.055,0.027,0.028,-0.055,0.015,-0.017,-0.084,-0.044,-0.047,-0.029
0.004,-0.051,-0.055,0.024,0.03,-0.052,0.015,-0.012,-0.097,-0.045,-0.046,-0.035
0.006,-0.05,-0.056,0.022,0.031,-0.052,0.014,-0.014,-0.106,-0.045,-0.04,-0.029
0.012,-0.049,-0.061,0.019,0.037,-0.055,0.026,-0.005,-0.093,-0.037,-0.036,-0.022
0.016,-0.042,-0.058,0.013,0.037,-0.05,0.037,-0.006,-0.097,-0.031,-0.038,-0.016
0.027,-0.037,-0.064,0.005,0.046,-0.051,0.058,0.035,-0.07,-0.017,-0.039,-0.008
0.042,-0.032,-0.074,-0.005,0.058,-0.052,0.038,0.047,-0.044,-0.021,-0.042,-0.008
0.017,-0.029,-0.046,0.006,0.032,-0.037,0.012,0.021,-0.029,-0.022,-0.037,-0.012
0.017,-0.031,-0.049,0.007,0.033,-0.04,0.021,0.001,-0.059,-0.04,-0.044,-0.021
0.035,-0.03,-0.064,-0.002,0.05,-0.047,0.021,0.003,-0.077,-0.04,-0.036,-0.022
-0.001,-0.058,-0.057,0.03,0.028,-0.057,0.035,0.005,-0.084,-0.047,-0.048,-0.033
-0.01,-0.067,-0.057,0.039,0.024,-0.062,0.018,-0.022,-0.111,-0.054,-0.044,-0.032
-0.023,-0.069,-0.046,0.046,0.012,-0.058,0.026,0.018,-0.11,-0.048,-0.043,-0.038
-0.027,-0.078,-0.052,0.053,0.013,-0.065,0.009,-0.028,-0.139,-0.053,-0.054,-0.033
-0.055,-0.047,0.008,0.051,-0.031,-0.019,0.201,0.35,0.077,0.003,-0.049,-0.076
-0.007,0.104,0.111,-0.049,-0.059,0.107,0.178,0.119,0.225,0.153,0.093,0.018
0.406,0.545,0.139,-0.476,0.133,0.342,-0.633,-1.094,0.559,0.894,0.864,0.648
0.496,0.68,0.185,-0.588,0.155,0.432,-0.998,-1.403,0.431,0.918,1.008,0.882
0.117,0.299,0.182,-0.209,-0.033,0.24,-0.707,-1.105,-0.513,-0.052,0.195,0.372
-0.026,0.057,0.083,-0.016,-0.055,0.069,-0.423,-0.637,-0.463,-0.17,-0.044,0.081
-0.027,-0.011,0.016,0.019,-0.022,0.003,-0.157,-0.205,-0.133,-0.058,-0.028,0.019
-0.022,-0.044,-0.021,0.033,0.0,-0.032,-0.061,-0.091,-0.132,-0.086,-0.045,-0.01
-0.017,-0.059,-0.042,0.038,0.012,-0.05,-0.015,-0.015,-0.056,-0.038,-0.019,-0.009
-0.024,-0.062,-0.038,0.043,0.007,-0.05,0.008,0.005,-0.074,-0.062,-0.034,-0.022
-0.026,-0.058,-0.032,0.042,0.003,-0.044,0.011,0.038,-0.038,-0.031,-0.013,-0.023
-0.032,-0.062,-0.03,0.047,-0.001,-0.046,0.022,0.051,-0.044,-0.044,-0.022,-0.035
-0.037,-0.059,-0.022,0.048,-0.008,-0.04,0.022,0.059,-0.03,-0.026,-0.008,-0.032
-0.036,-0.059,-0.023,0.047,-0.006,-0.041,0.032,0.07,-0.02,-0.028,-0.008,-0.03
-0.004,-0.052,-0.048,0.028,0.023,-0.05,0.034,0.072,-0.016,-0.014,-0.003,-0.03
0.001,-0.048,-0.049,0.024,0.025,-0.048,0.041,0.088,0.001,0.002,0.003,-0.03
-0.001,-0.044,-0.043,0.023,0.021,-0.043,0.04,0.096,0.025,-0.016,0.005,-0.031
0.003,-0.039,-0.042,0.018,0.023,-0.04,0.041,0.106,0.049,0.0,0.015,-0.029
0.001,-0.035,-0.035,0.017,0.019,-0.035,0.046,0.118,0.048,0.01,0.021,-0.025
0.005,-0.029,-0.034,0.013,0.02,-0.031,0.045,0.128,0.057,0.02,0.03,-0.018
0.005,-0.024,-0.029,0.009,0.017,-0.026,0.043,0.143,0.084,0.029,0.038,-0.014
0.008,-0.018,-0.026,0.005,0.017,-0.022,0.037,0.154,0.099,0.044,0.044,-0.007
0.01,-0.013,-0.023,0.002,0.016,-0.018,0.033,0.173,0.12,0.064,0.045,-0.003
0.012,-0.006,-0.018,-0.003,0.015,-0.012,0.029,0.195,0.157,0.085,0.056,0.003
0.023,0.007,-0.016,-0.015,0.019,-0.004,0.024,0.211,0.18,0.113,0.085,0.01
0.034,0.024,-0.01,-0.029,0.022,0.007,0.02,0.233,0.212,0.119,0.106,0.021
0.043,0.041,-0.002,-0.042,0.022,0.019,0.012,0.258,0.251,0.142,0.12,0.043
0.06,0.067,0.007,-0.064,0.027,0.037,0.003,0.291,0.298,0.18,0.135,0.062
0.081,0.095,0.013,-0.088,0.034,0.054,-0.006,0.33,0.362,0.231,0.177,0.088
0.102,0.124,0.022,-0.113,0.04,0.073,-0.013,0.364,0.422,0.272,0.23,0.122
0.136,0.16,0.024,-0.148,0.056,0.092,-0.029,0.385,0.481,0.312,0.255,0.157
0.164,0.191,0.027,-0.178,0.068,0.109,-0.057,0.39,0.537,0.37,0.307,0.19
0.187,0.226,0.039,-0.206,0.073,0.132,-0.067,0.392,0.578,0.4,0.359,0.229
0.199,0.24,0.041,-0.22,0.079,0.14,-0.077,0.369,0.603,0.429,0.389,0.263
0.201,0.24,0.039,-0.221,0.081,0.14,-0.09,0.306,0.592,0.44,0.405,0.259
0.203,0.238,0.036,-0.221,0.083,0.137,-0.086,0.224,0.534,0.414,0.381,0.242
0.172,0.206,0.035,-0.19,0.068,0.12,-0.079,0.134,0.424,0.338,0.335,0.222
0.124,0.159,0.034,-0.142,0.045,0.096,-0.057,0.074,0.299,0.254,0.258,0.174
0.079,0.105,0.026,-0.092,0.026,0.065,-0.015,0.045,0.185,0.173,0.168,0.105
0.033,0.051,0.018,-0.043,0.008,0.034,0.016,0.033,0.08,0.074,0.102,0.039
-0.005,0.007,0.012,-0.001,-0.008,0.009,0.037,0.032,0.014,0.021,0.052,-0.006
-0.03,-0.022,0.009,0.026,-0.019,-0.006,0.054,0.027,-0.015,0.001,0.012,-0.032
-0.037,-0.031,0.007,0.034,-0.022,-0.012,0.057,0.024,-0.029,-0.013,-0.009,-0.041
-0.044,-0.042,0.003,0.043,-0.023,-0.019,0.054,0.02,-0.045,-0.032,-0.016,-0.046
-0.046,-0.045,0.001,0.046,-0.023,-0.022,0.055,0.017,-0.053,-0.051,-0.023,-0.062
-0.039,-0.039,0.0,0.039,-0.02,-0.019,0.055,0.012,-0.06,-0.055,-0.029,-0.075
-0.044,-0.038,0.006,0.04,-0.024,-0.016,0.055,0.009,-0.071,-0.055,-0.036,-0.075
-0.042,-0.032,0.01,0.036,-0.025,-0.011,0.054,0.006,-0.07,-0.057,-0.039,-0.075
-0.033,-0.03,0.002,0.032,-0.018,-0.014,0.05,0.001,-0.07,-0.061,-0.033,-0.075
-0.051,-0.035,0.016,0.043,-0.033,-0.009,0.05,0.001,-0.07,-0.06,-0.026,-0.075
-0.06,-0.035,0.025,0.047,-0.042,-0.005,0.05,0.005,-0.07,-0.057,-0.019,-0.075
-0.047,-0.035,0.012,0.041,-0.029,-0.011,0.05,0.004,-0.068,-0.053,-0.013,-0.075
-0.044,-0.035,0.009,0.039,-0.026,-0.013,0.05,0.007,-0.065,-0.048,-0.006,-0.075
-0.034,-0.035,0.0,0.035,-0.016,-0.017,0.05,0.01,-0.066,-0.045,-0.01,-0.075
-0.031,-0.035,-0.004,0.034,-0.013,-0.02,0.05,0.01,-0.062,-0.044,-0.02,-0.075
-0.051,-0.04,0.011,0.045,-0.031,-0.014,0.05,0.01,-0.059,-0.053,-0.031,-0.076
-0.053,-0.04,0.013,0.046,-0.033,-0.013,0.05,0.01,-0.061,-0.061,-0.038,-0.08
-0.037,-0.04,-0.003,0.039,-0.017,-0.021,0.05,0.01,-0.064,-0.059,-0.033,-0.08
-0.033,-0.04,-0.007,0.037,-0.013,-0.023,0.05,0.01,-0.069,-0.063,-0.028,-0.08
-0.047,-0.04,0.007,0.043,-0.027,-0.016,0.05,0.01,-0.075,-0.065,-0.022,-0.08
-0.046,-0.042,0.004,0.044,-0.025,-0.019,0.05,0.009,-0.075,-0.065,-0.017,-0.079
-0.044,-0.045,-0.001,0.045,-0.021,-0.023,0.05,0.005,-0.077,-0.065,-0.009,-0.082
-0.05,-0.057,-0.007,0.054,-0.021,-0.032,0.05,0.006,-0.081,-0.065,-0.023,-0.089
-0.053,-0.06,-0.007,0.057,-0.023,-0.033,0.05,0.002,-0.079,-0.066,-0.049,-0.095
-0.071,-0.054,0.017,0.062,-0.044,-0.018,0.046,0.0,-0.085,-0.064,-0.051,-0.1
-0.073,-0.053,0.021,0.062,-0.047,-0.016,0.04,0.0,-0.088,-0.07,-0.044,-0.1
-0.057,-0.047,0.01,0.051,-0.033,-0.018,0.035,-0.003,-0.085,-0.08,-0.044,-0.1
-0.055,-0.045,0.01,0.05,-0.032,-0.018,0.03,-0.006,-0.085,-0.074,-0.037,-0.1
-0.05,-0.05,0.0,0.049,-0.025,-0.025,0.022,-0.009,-0.085,-0.068,-0.036,-0.1
-0.046,-0.05,-0.004,0.048,-0.021,-0.026,0.022,-0.012,-0.085,-0.064,-0.046,-0.102
-0.061,-0.051,0.009,0.056,-0.035,-0.021,0.026,-0.015,-0.085,-0.054,-0.044,-0.105
-0.059,-0.055,0.004,0.057,-0.031,-0.025,0.025,-0.014,-0.081,-0.068,-0.035,-0.108
-0.074,-0.055,0.019,0.065,-0.046,-0.018,0.025,-0.009,-0.08,-0.081,-0.023,-0.111
-0.089,-0.052,0.036,0.07,-0.062,-0.008,0.025,-0.011,-0.079,-0.08,-0.055,-0.114
-0.071,-0.05,0.022,0.06,-0.047,-0.014,0.025,-0.007,-0.076,-0.079,-0.076,-0.115
-0.068,-0.05,0.018,0.059,-0.043,-0.016,0.024,-0.005,-0.074,-0.079,-0.047,-0.115
-0.057,-0.047,0.01,0.051,-0.033,-0.018,0.032,-0.005,-0.076,-0.094,-0.045,-0.115
-0.044,-0.044,0.0,0.044,-0.021,-0.022,0.041,-0.005,-0.08,-0.093,-0.046,-0.115
-0.056,-0.046,0.01,0.051,-0.033,-0.017,0.04,-0.005,-0.08,-0.085,-0.044,-0.115
-0.055,-0.049,0.006,0.052,-0.03,-0.022,0.038,-0.005,-0.085,-0.084,-0.046,-0.115
-0.058,-0.05,0.008,0.054,-0.033,-0.021,0.034,-0.005,-0.086,-0.076,-0.044,-0.115
-0.065,-0.05,0.015,0.057,-0.04,-0.017,0.035,-0.005,-0.084,-0.074,-0.04,-0.115
-0.045,-0.05,-0.005,0.048,-0.02,-0.027,0.035,-0.006,-0.086,-0.069,-0.036,-0.115
-0.046,-0.05,-0.004,0.048,-0.021,-0.027,0.035,-0.014,-0.084,-0.065,-0.03,-0.115
-0.058,-0.05,0.008,0.054,-0.033,-0.021,0.035,-0.021,-0.095,-0.081,-0.037,-0.115
-0.08,-0.05,0.03,0.064,-0.055,-0.01,0.035,-0.027,-0.101,-0.086,-0.052,-0.115
-0.088,-0.05,0.038,0.068,-0.063,-0.006,0.035,-0.027,-0.099,-0.084,-0.048,-0.12
-0.083,-0.05,0.033,0.066,-0.058,-0.008,0.036,-0.023,-0.1,-0.085,-0.045,-0.12
-0.086,-0.05,0.036,0.067,-0.061,-0.006,0.04,-0.022,-0.1,-0.085,-0.043,-0.121
-0.085,-0.05,0.034,0.067,-0.06,-0.007,0.04,-0.018,-0.1,-0.085,-0.04,-0.125
-0.085,-0.05,0.035,0.067,-0.06,-0.007,0.04,-0.016,-0.096,-0.08,-0.038,-0.125
-0.08,-0.05,0.03,0.065,-0.055,-0.01,0.04,-0.013,-0.095,-0.081,-0.051,-0.123
-0.08,-0.05,0.03,0.065,-0.055,-0.01,0.04,-0.01,-0.095,-0.078,-0.057,-0.119
-0.08,-0.05,0.03,0.065,-0.055,-0.01,0.037,-0.01,-0.09,-0.091,-0.051,-0.12
-0.081,-0.05,0.031,0.066,-0.056,-0.01,0.034,-0.008,-0.089,-0.101,-0.049,-0.12
-0.074,-0.047,0.027,0.061,-0.05,-0.01,0.035,-0.005,-0.091,-0.093,-0.046,-0.12
-0.068,-0.045,0.024,0.056,-0.046,-0.01,0.035,-0.004,-0.095,-0.089,-0.044,-0.119
-0.061,-0.045,0.016,0.053,-0.038,-0.014,0.035,-0.019,-0.091,-0.086,-0.04,-0.116
-0.062,-0.045,0.017,0.053,-0.039,-0.014,0.034,-0.027,-0.09,-0.079,-0.04,-0.113
-0.049,-0.045,0.004,0.047,-0.026,-0.02,0.029,-0.024,-0.09,-0.073,-0.039,-0.11
-0.056,-0.045,0.011,0.051,-0.033,-0.017,0.026,-0.023,-0.085,-0.085,-0.046,-0.108
-0.093,-0.05,0.043,0.071,-0.068,-0.003,0.022,-0.019,-0.085,-0.084,-0.056,-0.103
-0.077,-0.05,0.027,0.063,-0.052,-0.011,0.019,-0.02,-0.085,-0.079,-0.055,-0.111
-0.081,-0.051,0.03,0.066,-0.056,-0.01,0.014,-0.023,-0.085,-0.078,-0.055,-0.121
-0.093,-0.055,0.037,0.073,-0.064,-0.009,0.02,-0.026,-0.085,-0.074,-0.055,-0.119
-0.082,-0.055,0.027,0.069,-0.054,-0.013,0.029,-0.024,-0.085,-0.078,-0.055,-0.12
-0.081,-0.053,0.028,0.067,-0.055,-0.012,0.03,-0.02,-0.085,-0.081,-0.052,-0.12
-0.07,-0.048,0.022,0.059,-0.046,-0.013,0.03,-0.02,-0.085,-0.079,-0.047,-0.12
-0.064,-0.045,0.019,0.054,-0.04,-0.013,0.029,-0.018,-0.089,-0.076,-0.045,-0.123
-0.077,-0.042,0.036,0.059,-0.056,-0.003,0.025,-0.015,-0.094,-0.071,-0.04,-0.125
-0.077,-0.037,0.039,0.057,-0.058,0.001,0.025,-0.014,-0.09,-0.069,-0.037,-0.125
-0.069,-0.035,0.035,0.051,-0.051,0.0,0.025,-0.018,-0.088,-0.065,-0.034,-0.125
-0.062,-0.03,0.032,0.046,-0.047,0.001,0.025,-0.021,-0.084,-0.059,-0.02,-0.125
-0.053,-0.027,0.026,0.04,-0.039,0.0,0.025,-0.025,-0.081,-0.067,-0.031,-0.126
-0.05,-0.023,0.027,0.036,-0.038,0.002,0.025,-0.028,-0.08,-0.066,-0.04,-0.135
-0.031,-0.02,0.011,0.025,-0.021,-0.005,0.026,-0.029,-0.075,-0.084,-0.03,-0.137
-0.044,-0.015,0.029,0.029,-0.036,0.007,0.024,-0.019,-0.082,-0.086,-0.024,-0.132
-0.046,-0.013,0.033,0.029,-0.039,0.01,0.028,-0.003,-0.088,-0.062,-0.018,-0.13
-0.035,-0.01,0.026,0.022,-0.031,0.008,0.044,0.006,-0.073,-0.052,-0.01,-0.125
-0.045,-0.006,0.039,0.025,-0.041,0.016,0.052,0.048,-0.054,-0.04,-0.02,-0.122
-0.027,-0.006,0.021,0.016,-0.024,0.008,0.032,0.033,-0.06,-0.042,-0.028,-0.119
0.007,0.015,0.008,-0.011,-0.001,0.012,0.028,0.01,-0.048,-0.038,-0.022,-0.114
0.021,0.014,-0.007,-0.017,0.014,0.004,0.024,-0.025,-0.07,-0.042,-0.029,-0.111
-0.003,-0.009,-0.006,0.006,0.001,-0.007,0.025,-0.017,-0.07,-0.049,-0.023,-0.118
-0.048,-0.042,0.006,0.045,-0.027,-0.018,0.027,-0.035,-0.089,-0.078,-0.054,-0.146
-0.07,-0.055,0.015,0.062,-0.042,-0.019,0.02,-0.048,-0.082,-0.064,-0.037,-0.135
-0.074,-0.054,0.02,0.064,-0.046,-0.017,0.032,-0.019,-0.066,-0.074,-0.052,-0.143
-0.055,-0.062,-0.007,0.058,-0.023,-0.034,0.028,-0.024,-0.093,-0.065,-0.041,-0.146
-0.109,-0.04,0.07,0.074,-0.089,0.015,0.268,0.403,0.128,-0.01,-0.026,-0.181
-0.01,0.178,0.188,-0.084,-0.099,0.183,0.082,-0.084,0.296,0.251,0.204,0.012
0.436,0.627,0.191,-0.532,0.122,0.409,-0.765,-1.241,0.62,0.975,0.981,0.65
0.4,0.633,0.233,-0.517,0.083,0.433,-0.941,-1.346,0.267,0.714,0.841,0.691
0.029,0.252,0.223,-0.141,-0.098,0.238,-0.611,-1.039,-0.582,-0.143,0.086,0.156
-0.047,0.068,0.115,-0.011,-0.081,0.091,-0.333,-0.55,-0.354,-0.142,-0.018,-0.062
-0.083,-0.009,0.073,0.046,-0.078,0.032,-0.103,-0.187,-0.106,-0.075,-0.048,-0.106
-0.066,-0.034,0.032,0.049,-0.048,-0.001,-0.038,-0.093,-0.082,-0.067,-0.047,-0.125
-0.07,-0.047,0.022,0.058,-0.046,-0.012,0.003,-0.023,-0.025,-0.043,-0.04,-0.142
-0.086,-0.054,0.032,0.07,-0.059,-0.011,0.012,-0.009,-0.055,-0.056,-0.052,-0.15
-0.071,-0.047,0.024,0.059,-0.048,-0.012,0.019,0.019,-0.014,-0.03,-0.039,-0.152
-0.07,-0.052,0.018,0.061,-0.044,-0.017,0.031,0.018,-0.027,-0.04,-0.048,-0.158
-0.037,-0.048,-0.012,0.043,-0.013,-0.03,0.035,0.035,0.0,-0.023,-0.025,-0.15
-0.045,-0.051,-0.007,0.048,-0.019,-0.029,0.05,0.04,0.004,-0.024,-0.021,-0.151
-0.043,-0.048,-0.006,0.046,-0.018,-0.027,0.049,0.049,0.021,-0.013,-0.008,-0.146
-0.037,-0.043,-0.006,0.04,-0.015,-0.024,0.055,0.061,0.048,-0.007,-0.004,-0.145
-0.057,-0.038,0.02,0.047,-0.038,-0.009,0.054,0.071,0.052,-0.002,0.0,-0.142
-0.063,-0.032,0.031,0.047,-0.047,-0.001,0.051,0.075,0.068,0.006,0.009,-0.136
-0.055,-0.027,0.029,0.041,-0.042,0.001,0.049,0.083,0.076,0.011,0.01,-0.132
-0.046,-0.021,0.025,0.033,-0.035,0.001,0.045,0.101,0.089,0.022,0.021,-0.127
-0.038,-0.016,0.022,0.027,-0.03,0.003,0.043,0.112,0.113,0.03,0.035,-0.122
-0.023,-0.006,0.017,0.015,-0.02,0.005,0.039,0.124,0.122,0.036,0.042,-0.119
-0.015,0.0,0.015,0.007,-0.015,0.007,0.044,0.131,0.141,0.055,0.047,-0.11
0.007,0.009,0.002,-0.008,0.002,0.005,0.048,0.151,0.179,0.076,0.058,-0.1
0.023,0.016,-0.007,-0.02,0.015,0.004,0.039,0.176,0.21,0.098,0.085,-0.088
0.011,0.021,0.01,-0.016,0.0,0.016,0.033,0.201,0.243,0.127,0.104,-0.067
0.015,0.045,0.03,-0.03,-0.007,0.037,0.024,0.224,0.29,0.148,0.132,-0.048
0.039,0.073,0.034,-0.056,0.002,0.053,0.018,0.247,0.342,0.191,0.156,-0.029
0.055,0.102,0.047,-0.078,0.004,0.074,0.01,0.282,0.4,0.247,0.183,-0.005
0.06,0.127,0.067,-0.094,-0.004,0.097,-0.007,0.309,0.463,0.289,0.235,0.035
0.099,0.164,0.066,-0.132,0.016,0.115,-0.034,0.312,0.516,0.33,0.284,0.073
0.142,0.205,0.063,-0.174,0.04,0.133,-0.061,0.308,0.575,0.375,0.335,0.101
0.155,0.236,0.081,-0.196,0.037,0.158,-0.073,0.302,0.619,0.422,0.366,0.142
0.163,0.258,0.095,-0.21,0.033,0.176,-0.094,0.264,0.623,0.452,0.394,0.172
0.144,0.248,0.105,-0.196,0.019,0.176,-0.099,0.213,0.602,0.444,0.41,0.182
0.126,0.225,0.099,-0.176,0.013,0.162,-0.091,0.143,0.537,0.416,0.386,0.177
0.118,0.193,0.075,-0.156,0.021,0.134,-0.077,0.065,0.429,0.342,0.32,0.129
0.073,0.144,0.071,-0.108,0.001,0.107,-0.041,0.026,0.309,0.234,0.233,0.059
0.012,0.08,0.067,-0.046,-0.028,0.073,0.001,0.014,0.193,0.149,0.159,-0.017
-0.034,0.028,0.062,0.003,-0.048,0.044,0.033,0.013,0.115,0.085,0.089,-0.079
-0.061,-0.002,0.059,0.031,-0.06,0.028,0.052,0.01,0.06,0.027,0.036,-0.122
-0.073,-0.02,0.052,0.046,-0.062,0.016,0.074,0.006,0.006,-0.003,0.012,-0.146
-0.078,-0.029,0.049,0.053,-0.063,0.009,0.082,0.005,-0.018,-0.017,0.001,-0.151
-0.071,-0.03,0.041,0.05,-0.056,0.006,0.079,0.001,-0.021,-0.03,-0.015,-0.168
-0.07,-0.032,0.038,0.051,-0.054,0.003,0.081,0.0,-0.019,-0.04,-0.032,-0.177
-0.07,-0.039,0.031,0.054,-0.05,-0.004,0.08,-0.001,-0.022,-0.054,-0.04,-0.174
-0.067,-0.041,0.026,0.054,-0.046,-0.007,0.08,-0.004,-0.027,-0.056,-0.04,-0.176
-0.086,-0.039,0.047,0.062,-0.066,0.004,0.086,-0.006,-0.025,-0.055,-0.04,-0.174
-0.099,-0.045,0.054,0.072,-0.077,0.004,0.088,-0.003,-0.025,-0.055,-0.04,-0.175
-0.094,-0.052,0.042,0.073,-0.068,-0.005,0.083,0.0,-0.023,-0.055,-0.04,-0.18
-0.089,-0.05,0.039,0.069,-0.064,-0.005,0.08,0.0,-0.019,-0.054,-0.038,-0.188
-0.08,-0.05,0.03,0.065,-0.055,-0.01,0.077,0.0,-0.021,-0.05,-0.034,-0.19
-0.076,-0.05,0.026,0.062,-0.051,-0.012,0.072,0.0,-0.022,-0.048,-0.036,-0.19
-0.095,-0.05,0.045,0.072,-0.07,-0.003,0.07,0.0,-0.031,-0.045,-0.031,-0.19
-0.1,-0.05,0.05,0.075,-0.075,0.0,0.075,0.0,-0.041,-0.042,-0.03,-0.19
-0.086,-0.045,0.041,0.065,-0.063,-0.002,0.075,0.0,-0.037,-0.039,-0.029,-0.19
-0.085,-0.045,0.04,0.065,-0.062,-0.003,0.076,0.0,-0.033,-0.048,-0.031,-0.189
-0.076,-0.044,0.033,0.06,-0.054,-0.005,0.08,0.0,-0.031,-0.056,-0.036,-0.186
-0.07,-0.04,0.03,0.055,-0.05,-0.005,0.08,0.0,-0.023,-0.054,-0.034,-0.184
-0.078,-0.04,0.038,0.059,-0.058,-0.001,0.078,-0.001,-0.033,-0.063,-0.031,-0.186
-0.082,-0.043,0.04,0.062,-0.061,-0.001,0.075,-0.005,-0.046,-0.071,-0.028,-0.183
-0.079,-0.045,0.034,0.062,-0.056,-0.006,0.071,-0.004,-0.045,-0.069,-0.04,-0.191
-0.082,-0.046,0.036,0.063,-0.058,-0.005,0.069,-0.008,-0.043,-0.07,-0.05,-0.21
-0.085,-0.05,0.035,0.067,-0.06,-0.007,0.065,-0.01,-0.041,-0.07,-0.057,-0.21
-0.084,-0.05,0.035,0.066,-0.059,-0.007,0.066,-0.01,-0.038,-0.07,-0.067,-0.209
-0.096,-0.045,0.051,0.07,-0.073,0.003,0.07,-0.013,-0.047,-0.073,-0.064,-0.211
-0.102,-0.045,0.056,0.073,-0.078,0.005,0.07,-0.016,-0.058,-0.076,-0.065,-0.209
-0.098,-0.043,0.054,0.07,-0.076,0.005,0.069,-0.019,-0.064,-0.079,-0.065,-0.211
-0.095,-0.04,0.055,0.067,-0.075,0.007,0.066,-0.021,-0.076,-0.08,-0.065,-0.224
-0.094,-0.039,0.055,0.066,-0.075,0.007,0.065,-0.025,-0.07,-0.08,-0.069,-0.231
-0.097,-0.043,0.055,0.07,-0.076,0.006,0.065,-0.024,-0.059,-0.08,-0.071,-0.229
-0.095,-0.045,0.05,0.07,-0.072,0.002,0.065,-0.02,-0.061,-0.079,-0.074,-0.23
-0.087,-0.045,0.042,0.066,-0.064,-0.001,0.065,-0.02,-0.058,-0.08,-0.076,-0.229
-0.08,-0.044,0.036,0.062,-0.057,-0.004,0.065,-0.02,-0.055,-0.08,-0.08,-0.23
-0.071,-0.041,0.03,0.055,-0.05,-0.005,0.065,-0.021,-0.054,-0.077,-0.079,-0.226
-0.06,-0.04,0.02,0.05,-0.04,-0.009,0.065,-0.019,-0.058,-0.072,-0.073,-0.225
-0.074,-0.04,0.033,0.057,-0.054,-0.004,0.068,-0.027,-0.059,-0.07,-0.068,-0.224
-0.087,-0.04,0.047,0.063,-0.067,0.003,0.07,-0.037,-0.066,-0.082,-0.062,-0.22
-0.084,-0.04,0.044,0.061,-0.064,0.002,0.07,-0.036,-0.072,-0.083,-0.057,-0.219
-0.088,-0.042,0.045,0.065,-0.066,0.001,0.07,-0.032,-0.069,-0.075,-0.049,-0.221
-0.09,-0.045,0.045,0.067,-0.067,0.0,0.069,-0.03,-0.07,-0.072,-0.062,-0.23
-0.091,-0.046,0.045,0.068,-0.068,0.0,0.071,-0.026,-0.07,-0.064,-0.077,-0.235
-0.088,-0.05,0.038,0.069,-0.063,-0.006,0.075,-0.025,-0.07,-0.061,-0.074,-0.237
-0.099,-0.049,0.049,0.074,-0.074,0.0,0.075,-0.029,-0.068,-0.064,-0.075,-0.24
-0.099,-0.045,0.054,0.072,-0.076,0.004,0.075,-0.03,-0.063,-0.065,-0.075,-0.243
-0.072,-0.045,0.028,0.058,-0.049,-0.008,0.075,-0.032,-0.061,-0.064,-0.075,-0.245
-0.078,-0.045,0.033,0.061,-0.055,-0.006,0.075,-0.036,-0.056,-0.07,-0.072,-0.248
-0.104,-0.045,0.059,0.074,-0.081,0.007,0.078,-0.033,-0.053,-0.077,-0.068,-0.25
-0.103,-0.045,0.058,0.074,-0.08,0.006,0.081,-0.03,-0.047,-0.065,-0.07,-0.25
-0.097,-0.045,0.052,0.071,-0.074,0.003,0.079,-0.03,-0.061,-0.069,-0.061,-0.254
-0.094,-0.045,0.049,0.069,-0.071,0.001,0.08,-0.03,-0.093,-0.092,-0.073,-0.256
-0.089,-0.045,0.044,0.066,-0.066,0.0,0.092,-0.03,-0.092,-0.088,-0.096,-0.253
-0.084,-0.045,0.039,0.065,-0.061,-0.003,0.096,-0.03,-0.083,-0.078,-0.078,-0.25
-0.081,-0.045,0.036,0.062,-0.058,-0.004,0.094,-0.033,-0.078,-0.076,-0.068,-0.25
-0.079,-0.045,0.033,0.062,-0.056,-0.006,0.092,-0.047,-0.07,-0.074,-0.072,-0.248
-0.079,-0.05,0.03,0.065,-0.055,-0.01,0.089,-0.047,-0.065,-0.075,-0.066,-0.244
-0.079,-0.05,0.029,0.064,-0.054,-0.011,0.091,-0.041,-0.06,-0.075,-0.065,-0.245
-0.072,-0.05,0.022,0.06,-0.047,-0.013,0.094,-0.036,-0.061,-0.075,-0.065,-0.245
-0.091,-0.05,0.041,0.07,-0.066,-0.004,0.095,-0.029,-0.058,-0.075,-0.062,-0.244
-0.113,-0.05,0.063,0.082,-0.088,0.006,0.094,-0.026,-0.055,-0.075,-0.059,-0.246
-0.107,-0.048,0.059,0.077,-0.083,0.005,0.098,-0.024,-0.055,-0.075,-0.061,-0.243
-0.101,-0.045,0.057,0.073,-0.079,0.006,0.1,-0.03,-0.058,-0.075,-0.06,-0.251
-0.1,-0.046,0.054,0.072,-0.077,0.004,0.101,-0.037,-0.06,-0.076,-0.061,-0.261
-0.096,-0.041,0.055,0.068,-0.075,0.006,0.105,-0.033,-0.059,-0.073,-0.058,-0.26
-0.095,-0.04,0.055,0.067,-0.075,0.007,0.105,-0.036,-0.063,-0.068,-0.055,-0.258
-0.095,-0.04,0.055,0.067,-0.075,0.007,0.105,-0.033,-0.064,-0.06,-0.054,-0.255
-0.09,-0.035,0.055,0.062,-0.072,0.01,0.106,-0.035,-0.065,-0.055,-0.062,-0.255
-0.104,-0.035,0.068,0.069,-0.085,0.016,0.104,-0.032,-0.055,-0.046,-0.073,-0.253
-0.102,-0.034,0.068,0.068,-0.085,0.017,0.109,-0.016,-0.043,-0.042,-0.068,-0.248
-0.078,-0.03,0.048,0.053,-0.063,0.009,0.121,-0.012,-0.032,-0.046,-0.055,-0.243
-0.08,-0.031,0.049,0.055,-0.065,0.009,0.122,0.024,-0.023,-0.042,-0.052,-0.24
-0.063,-0.028,0.036,0.045,-0.049,0.004,0.104,0.032,-0.019,-0.027,-0.031,-0.233
-0.077,-0.021,0.056,0.049,-0.066,0.017,0.104,0.009,-0.007,-0.028,-0.021,-0.232
-0.077,-0.015,0.062,0.046,-0.069,0.023,0.096,-0.026,-0.043,-0.038,-0.024,-0.228
-0.074,-0.027,0.047,0.05,-0.06,0.01,0.097,-0.021,-0.054,-0.052,-0.037,-0.24
-0.125,-0.048,0.077,0.086,-0.101,0.014,0.093,-0.042,-0.057,-0.061,-0.065,-0.261
-0.101,-0.042,0.059,0.071,-0.08,0.008,0.087,-0.025,-0.048,-0.044,-0.048,-0.248
-0.103,-0.035,0.068,0.069,-0.085,0.016,0.098,-0.028,-0.052,-0.073,-0.082,-0.264
-0.086,-0.025,0.061,0.056,-0.074,0.018,0.121,0.012,-0.032,-0.022,-0.04,-0.253
-0.133,0.002,0.135,0.065,-0.134,0.068,0.347,0.422,0.181,0.009,-0.072,-0.323
0.041,0.258,0.217,-0.15,-0.088,0.237,0.042,-0.172,0.409,0.408,0.313,-0.025
0.443,0.681,0.238,-0.562,0.102,0.459,-0.752,-1.217,0.661,1.079,1.068,0.645
0.326,0.651,0.325,-0.488,0.0,0.488,-0.849,-1.222,0.206,0.664,0.796,0.582
