0.199,0.084,-0.115,-0.142,0.157,-0.015,-0.146,0.038,0.157,-0.038,0.041,0.127
0.231,0.085,-0.146,-0.158,0.188,-0.031,-0.157,0.065,0.184,-0.009,0.074,0.159
0.251,0.089,-0.163,-0.17,0.207,-0.037,-0.176,0.092,0.23,0.039,0.138,0.216
0.279,0.087,-0.193,-0.183,0.236,-0.053,-0.189,0.089,0.267,0.082,0.18,0.262
0.308,0.121,-0.187,-0.214,0.247,-0.032,-0.212,0.077,0.27,0.102,0.212,0.287
0.312,0.143,-0.17,-0.227,0.241,-0.013,-0.218,0.064,0.269,0.092,0.213,0.294
0.294,0.114,-0.18,-0.204,0.237,-0.033,-0.198,0.037,0.253,0.09,0.203,0.291
0.247,0.068,-0.179,-0.157,0.213,-0.056,-0.177,-0.01,0.206,0.07,0.178,0.247
0.195,0.019,-0.176,-0.106,0.185,-0.078,-0.134,-0.065,0.138,0.001,0.114,0.176
0.117,-0.05,-0.167,-0.034,0.142,-0.108,-0.078,-0.12,0.068,-0.067,0.051,0.113
0.052,-0.107,-0.158,0.028,0.105,-0.132,-0.044,-0.171,0.001,-0.122,-0.002,0.056
0.035,-0.119,-0.154,0.042,0.095,-0.136,-0.033,-0.217,-0.075,-0.186,-0.043,0.009
0.012,-0.126,-0.138,0.057,0.075,-0.131,-0.031,-0.254,-0.124,-0.222,-0.066,-0.016
-0.004,-0.118,-0.113,0.061,0.055,-0.115,-0.027,-0.268,-0.154,-0.241,-0.093,-0.036
-0.005,-0.104,-0.098,0.055,0.047,-0.1,-0.024,-0.277,-0.172,-0.252,-0.102,-0.051
-0.004,-0.095,-0.092,0.05,0.044,-0.093,-0.02,-0.279,-0.173,-0.243,-0.099,-0.052
-0.014,-0.085,-0.072,0.05,0.029,-0.078,-0.017,-0.27,-0.169,-0.238,-0.097,-0.055
-0.029,-0.073,-0.044,0.052,0.008,-0.058,-0.014,-0.262,-0.158,-0.231,-0.094,-0.058
-0.045,-0.075,-0.03,0.06,-0.007,-0.052,-0.011,-0.254,-0.15,-0.224,-0.096,-0.061
-0.036,-0.072,-0.036,0.055,0.0,-0.054,-0.008,-0.246,-0.141,-0.218,-0.088,-0.054
-0.019,-0.083,-0.064,0.051,0.023,-0.073,-0.005,-0.232,-0.129,-0.212,-0.081,-0.041
-0.035,-0.113,-0.077,0.074,0.021,-0.095,-0.004,-0.218,-0.118,-0.208,-0.074,-0.03
-0.027,-0.12,-0.093,0.074,0.033,-0.106,0.001,-0.215,-0.118,-0.202,-0.067,-0.024
-0.029,-0.154,-0.125,0.091,0.048,-0.139,0.007,-0.215,-0.122,-0.199,-0.065,-0.025
-0.029,-0.175,-0.146,0.102,0.058,-0.16,0.01,-0.215,-0.124,-0.193,-0.062,-0.025
-0.019,-0.174,-0.155,0.096,0.069,-0.164,0.015,-0.215,-0.128,-0.19,-0.059,-0.025
-0.026,-0.182,-0.156,0.105,0.065,-0.169,0.02,-0.215,-0.131,-0.19,-0.056,-0.025
-0.025,-0.178,-0.152,0.102,0.064,-0.165,0.024,-0.213,-0.128,-0.19,-0.054,-0.022
-0.041,-0.189,-0.148,0.115,0.054,-0.168,0.028,-0.207,-0.124,-0.19,-0.051,-0.018
-0.043,-0.219,-0.176,0.131,0.067,-0.197,0.031,-0.202,-0.126,-0.19,-0.045,-0.014
-0.045,-0.232,-0.186,0.139,0.07,-0.208,0.03,-0.198,-0.121,-0.19,-0.041,-0.011
-0.043,-0.229,-0.186,0.136,0.072,-0.207,0.03,-0.194,-0.12,-0.188,-0.036,-0.006
-0.023,-0.234,-0.211,0.129,0.094,-0.223,0.03,-0.189,-0.12,-0.181,-0.031,-0.006
-0.023,-0.24,-0.217,0.132,0.097,-0.228,0.029,-0.185,-0.115,-0.176,-0.027,-0.011
-0.03,-0.248,-0.218,0.139,0.094,-0.233,0.044,-0.181,-0.11,-0.171,-0.023,-0.015
-0.037,-0.259,-0.222,0.148,0.093,-0.24,0.052,-0.178,-0.105,-0.165,-0.017,-0.02
-0.026,-0.271,-0.245,0.148,0.11,-0.258,0.049,-0.174,-0.101,-0.16,-0.014,-0.016
-0.029,-0.286,-0.256,0.158,0.114,-0.271,0.05,-0.17,-0.096,-0.155,-0.008,-0.015
-0.04,-0.285,-0.246,0.163,0.104,-0.265,0.05,-0.17,-0.097,-0.155,-0.005,-0.015
-0.039,-0.281,-0.242,0.16,0.102,-0.261,0.05,-0.17,-0.104,-0.153,-0.01,-0.01
-0.046,-0.28,-0.233,0.163,0.094,-0.256,0.045,-0.17,-0.11,-0.15,-0.01,-0.01
-0.047,-0.275,-0.228,0.161,0.091,-0.251,0.04,-0.17,-0.11,-0.149,-0.011,-0.009
-0.054,-0.275,-0.222,0.165,0.084,-0.248,0.036,-0.17,-0.11,-0.152,-0.015,-0.004
-0.049,-0.264,-0.215,0.157,0.083,-0.239,0.031,-0.169,-0.11,-0.159,-0.016,-0.001
-0.04,-0.25,-0.211,0.145,0.086,-0.23,0.027,-0.164,-0.111,-0.153,-0.013,0.002
-0.033,-0.233,-0.2,0.134,0.084,-0.216,0.027,-0.158,-0.107,-0.143,-0.007,0.006
-0.009,-0.196,-0.186,0.103,0.088,-0.191,0.031,-0.152,-0.087,-0.132,-0.001,0.01
-0.014,-0.165,-0.151,0.09,0.069,-0.158,0.039,-0.147,-0.074,-0.125,0.004,0.006
-0.007,-0.131,-0.125,0.069,0.059,-0.127,0.048,-0.144,-0.068,-0.125,0.011,-0.001
0.019,-0.09,-0.109,0.035,0.065,-0.099,0.011,-0.146,-0.064,-0.125,0.015,-0.008
0.031,-0.078,-0.109,0.024,0.07,-0.094,-0.042,-0.144,-0.054,-0.124,0.005,-0.014
0.052,-0.102,-0.154,0.025,0.103,-0.128,-0.039,-0.147,-0.068,-0.129,-0.011,-0.021
0.04,-0.116,-0.156,0.038,0.098,-0.135,-0.027,-0.167,-0.114,-0.157,-0.022,-0.025
0.018,-0.121,-0.139,0.051,0.079,-0.129,-0.017,-0.184,-0.121,-0.16,-0.03,-0.027
-0.018,-0.15,-0.132,0.084,0.057,-0.141,-0.011,-0.19,-0.128,-0.17,-0.053,-0.048
-0.055,-0.159,-0.104,0.107,0.025,-0.131,-0.008,-0.209,-0.155,-0.194,-0.067,-0.062
-0.037,-0.171,-0.134,0.104,0.048,-0.152,-0.012,-0.224,-0.16,-0.191,-0.067,-0.075
-0.052,-0.18,-0.128,0.116,0.039,-0.154,-0.008,-0.205,-0.157,-0.194,-0.076,-0.076
-0.045,-0.201,-0.156,0.123,0.056,-0.179,-0.011,-0.213,-0.147,-0.176,-0.07,-0.072
-0.075,-0.216,-0.141,0.146,0.033,-0.178,-0.006,-0.192,-0.15,-0.185,-0.085,-0.08
-0.083,-0.208,-0.125,0.145,0.022,-0.166,0.023,-0.189,-0.14,-0.169,-0.072,-0.066
-0.039,-0.269,-0.229,0.154,0.095,-0.249,0.075,0.038,-0.112,-0.219,-0.107,-0.142
-0.022,-0.128,-0.106,0.075,0.042,-0.117,0.237,0.292,0.15,-0.042,0.004,-0.062
0.265,0.282,0.018,-0.274,0.123,0.15,-0.078,-0.444,0.331,0.394,0.43,0.375
0.554,0.702,0.148,-0.628,0.203,0.424,-0.868,-1.494,0.271,0.848,0.97,0.947
0.568,0.593,0.025,-0.58,0.271,0.309,-1.118,-1.643,0.419,1.168,1.104,1.021
0.266,-0.029,-0.295,-0.118,0.281,-0.162,-0.669,-1.073,0.064,0.382,0.355,0.338
-0.007,-0.23,-0.223,0.119,0.108,-0.226,-0.208,-0.481,-0.285,-0.258,-0.097,-0.029
-0.012,-0.167,-0.155,0.089,0.072,-0.161,-0.06,-0.21,-0.082,-0.074,0.018,0.005
-0.074,-0.198,-0.125,0.136,0.026,-0.161,-0.003,-0.11,-0.08,-0.137,-0.023,-0.053
-0.07,-0.184,-0.113,0.127,0.021,-0.148,0.03,-0.075,-0.065,-0.127,-0.013,-0.04
-0.066,-0.197,-0.131,0.132,0.033,-0.164,0.045,-0.054,-0.061,-0.125,-0.025,-0.043
-0.061,-0.194,-0.134,0.128,0.037,-0.164,0.055,-0.031,-0.061,-0.133,-0.02,-0.039
-0.019,-0.19,-0.171,0.105,0.077,-0.181,0.054,-0.008,-0.019,-0.114,-0.007,-0.033
-0.022,-0.182,-0.16,0.102,0.069,-0.171,0.057,0.006,-0.026,-0.129,-0.009,-0.033
-0.017,-0.171,-0.154,0.094,0.069,-0.163,0.053,0.017,-0.01,-0.11,0.007,-0.029
-0.023,-0.165,-0.142,0.094,0.06,-0.153,0.05,0.02,-0.014,-0.117,0.005,-0.039
-0.008,-0.129,-0.121,0.069,0.057,-0.125,0.05,0.024,0.0,-0.1,0.016,-0.035
-0.008,-0.099,-0.092,0.054,0.042,-0.095,0.048,0.03,0.005,-0.1,0.014,-0.036
0.0,-0.076,-0.076,0.038,0.038,-0.075,0.039,0.034,0.013,-0.089,0.015,-0.034
0.023,-0.059,-0.082,0.018,0.053,-0.07,0.031,0.063,0.023,-0.086,0.02,-0.035
0.014,-0.044,-0.058,0.015,0.036,-0.05,0.022,0.078,0.031,-0.079,0.019,-0.035
0.0,-0.044,-0.044,0.022,0.022,-0.044,0.013,0.101,0.07,-0.053,0.023,-0.017
0.026,-0.037,-0.063,0.005,0.045,-0.05,0.004,0.138,0.106,-0.025,0.052,0.008
0.049,-0.006,-0.055,-0.021,0.052,-0.03,-0.003,0.163,0.128,0.003,0.066,0.02
0.062,0.028,-0.034,-0.045,0.048,-0.003,-0.016,0.19,0.155,0.021,0.078,0.031
0.124,0.099,-0.024,-0.111,0.074,0.037,-0.032,0.231,0.189,0.052,0.103,0.06
0.147,0.14,-0.006,-0.143,0.076,0.067,-0.056,0.275,0.23,0.091,0.136,0.102
0.142,0.187,0.045,-0.165,0.048,0.116,-0.093,0.292,0.265,0.132,0.183,0.148
0.181,0.257,0.076,-0.219,0.053,0.166,-0.125,0.295,0.294,0.171,0.223,0.185
0.219,0.298,0.079,-0.259,0.07,0.188,-0.156,0.288,0.317,0.195,0.246,0.217
0.223,0.319,0.097,-0.271,0.063,0.208,-0.173,0.276,0.327,0.22,0.269,0.25
0.217,0.312,0.094,-0.265,0.061,0.203,-0.176,0.245,0.319,0.23,0.29,0.264
0.212,0.307,0.096,-0.26,0.058,0.201,-0.175,0.194,0.303,0.219,0.274,0.253
0.168,0.262,0.095,-0.215,0.036,0.178,-0.154,0.137,0.257,0.174,0.221,0.197
0.116,0.212,0.096,-0.165,0.01,0.154,-0.118,0.054,0.167,0.087,0.14,0.106
0.062,0.15,0.089,-0.107,-0.014,0.119,-0.08,-0.013,0.082,0.015,0.071,0.045
0.02,0.069,0.049,-0.045,-0.015,0.059,-0.047,-0.063,0.016,-0.047,0.028,0.002
0.007,0.03,0.023,-0.018,-0.009,0.026,-0.028,-0.123,-0.038,-0.098,-0.017,-0.04
-0.025,-0.016,0.009,0.02,-0.017,-0.003,-0.018,-0.145,-0.079,-0.122,-0.044,-0.056
-0.055,-0.06,-0.004,0.057,-0.026,-0.032,-0.009,-0.144,-0.096,-0.142,-0.045,-0.062
-0.034,-0.083,-0.05,0.058,0.008,-0.066,-0.002,-0.15,-0.094,-0.146,-0.045,-0.06
-0.024,-0.096,-0.072,0.06,0.024,-0.084,0.013,-0.147,-0.093,-0.145,-0.045,-0.06
-0.036,-0.108,-0.072,0.073,0.019,-0.09,0.026,-0.138,-0.089,-0.143,-0.045,-0.06
-0.037,-0.128,-0.092,0.083,0.028,-0.11,0.037,-0.129,-0.087,-0.139,-0.044,-0.06
-0.034,-0.13,-0.095,0.082,0.03,-0.112,0.054,-0.116,-0.085,-0.14,-0.04,-0.06
-0.016,-0.124,-0.109,0.07,0.047,-0.116,0.051,-0.106,-0.082,-0.137,-0.04,-0.056
-0.028,-0.122,-0.095,0.075,0.034,-0.108,0.044,-0.105,-0.076,-0.132,-0.04,-0.055
-0.035,-0.117,-0.082,0.076,0.024,-0.099,0.04,-0.105,-0.071,-0.129,-0.041,-0.055
-0.027,-0.115,-0.088,0.071,0.031,-0.101,0.033,-0.105,-0.068,-0.126,-0.038,-0.055
-0.03,-0.111,-0.081,0.07,0.026,-0.096,0.029,-0.105,-0.062,-0.121,-0.048,-0.055
-0.028,-0.109,-0.081,0.068,0.026,-0.094,0.025,-0.105,-0.061,-0.119,-0.062,-0.057
-0.026,-0.105,-0.08,0.065,0.027,-0.092,0.023,-0.109,-0.066,-0.113,-0.06,-0.06
-0.019,-0.103,-0.083,0.061,0.032,-0.093,0.02,-0.113,-0.07,-0.13,-0.06,-0.063
-0.014,-0.1,-0.086,0.057,0.036,-0.092,0.017,-0.118,-0.07,-0.156,-0.06,-0.066
-0.018,-0.102,-0.083,0.06,0.033,-0.092,0.014,-0.119,-0.07,-0.154,-0.06,-0.061
-0.037,-0.127,-0.09,0.082,0.027,-0.108,0.022,-0.115,-0.071,-0.155,-0.058,-0.06
-0.039,-0.153,-0.114,0.096,0.038,-0.133,0.031,-0.112,-0.069,-0.16,-0.054,-0.06
-0.035,-0.173,-0.138,0.104,0.052,-0.155,0.034,-0.11,-0.083,-0.159,-0.055,-0.06
-0.042,-0.188,-0.146,0.116,0.052,-0.167,0.032,-0.107,-0.097,-0.161,-0.055,-0.06
-0.041,-0.193,-0.152,0.117,0.056,-0.173,0.029,-0.103,-0.094,-0.165,-0.055,-0.06
-0.034,-0.194,-0.159,0.114,0.063,-0.176,0.03,-0.116,-0.095,-0.165,-0.055,-0.06
-0.033,-0.19,-0.156,0.112,0.061,-0.173,0.03,-0.126,-0.095,-0.167,-0.061,-0.06
-0.035,-0.19,-0.154,0.113,0.06,-0.172,0.03,-0.124,-0.095,-0.17,-0.067,-0.06
-0.035,-0.19,-0.155,0.113,0.06,-0.172,0.031,-0.125,-0.092,-0.17,-0.071,-0.06
-0.04,-0.189,-0.15,0.115,0.055,-0.17,0.036,-0.125,-0.088,-0.166,-0.074,-0.06
-0.04,-0.19,-0.15,0.115,0.055,-0.17,0.034,-0.125,-0.087,-0.159,-0.078,-0.057
-0.038,-0.186,-0.149,0.112,0.056,-0.167,0.038,-0.121,-0.082,-0.153,-0.08,-0.054
-0.039,-0.181,-0.143,0.11,0.052,-0.162,0.041,-0.115,-0.081,-0.146,-0.075,-0.052
-0.042,-0.178,-0.136,0.111,0.047,-0.157,0.04,-0.109,-0.078,-0.14,-0.068,-0.048
-0.044,-0.173,-0.129,0.109,0.043,-0.15,0.045,-0.103,-0.069,-0.134,-0.061,-0.046
-0.046,-0.169,-0.123,0.107,0.039,-0.145,0.049,-0.095,-0.054,-0.125,-0.054,-0.043
-0.046,-0.161,-0.115,0.104,0.035,-0.138,0.067,-0.085,-0.046,-0.117,-0.047,-0.037
-0.03,-0.157,-0.126,0.094,0.048,-0.141,0.065,-0.074,-0.043,-0.107,-0.047,-0.027
0.006,-0.157,-0.163,0.076,0.084,-0.16,0.049,-0.067,-0.01,-0.108,-0.05,-0.022
0.029,-0.165,-0.194,0.068,0.112,-0.18,0.051,-0.064,0.001,-0.112,-0.052,-0.019
0.027,-0.187,-0.214,0.08,0.121,-0.2,0.05,-0.068,-0.029,-0.114,-0.054,-0.021
0.018,-0.189,-0.207,0.085,0.113,-0.198,0.05,-0.087,-0.045,-0.12,-0.057,-0.028
-0.016,-0.227,-0.211,0.121,0.098,-0.219,0.05,-0.09,-0.054,-0.12,-0.057,-0.033
-0.056,-0.265,-0.21,0.16,0.077,-0.237,0.051,-0.1,-0.073,-0.143,-0.079,-0.063
-0.059,-0.27,-0.211,0.164,0.076,-0.24,0.055,-0.112,-0.074,-0.138,-0.092,-0.072
-0.057,-0.296,-0.239,0.177,0.091,-0.267,0.058,-0.104,-0.074,-0.141,-0.098,-0.078
-0.081,-0.297,-0.216,0.189,0.068,-0.257,0.062,-0.103,-0.068,-0.141,-0.092,-0.076
-0.07,-0.327,-0.257,0.199,0.094,-0.292,0.064,-0.098,-0.065,-0.136,-0.097,-0.084
-0.064,-0.294,-0.23,0.179,0.083,-0.262,0.068,-0.097,-0.064,-0.147,-0.094,-0.083
-0.05,-0.333,-0.283,0.191,0.117,-0.308,0.08,-0.06,-0.055,-0.141,-0.101,-0.091
-0.072,-0.371,-0.299,0.222,0.114,-0.334,0.178,0.244,0.041,-0.173,-0.157,-0.159
0.004,-0.071,-0.075,0.034,0.04,-0.073,0.248,0.322,0.38,0.162,0.108,0.057
0.259,0.356,0.097,-0.308,0.081,0.226,-0.148,-0.534,0.417,0.576,0.591,0.553
0.474,0.66,0.187,-0.567,0.143,0.423,-0.845,-1.362,0.433,1.118,1.096,1.025
0.422,0.311,-0.111,-0.366,0.267,0.1,-0.9,-1.303,0.437,1.134,0.914,0.809
0.062,-0.247,-0.31,0.093,0.186,-0.278,-0.364,-0.783,-0.128,0.034,0.035,0.073
-0.048,-0.276,-0.228,0.162,0.091,-0.252,-0.075,-0.303,-0.178,-0.228,-0.142,-0.081
-0.008,-0.242,-0.234,0.125,0.113,-0.238,0.006,-0.107,0.024,-0.054,-0.039,-0.011
-0.045,-0.246,-0.201,0.146,0.078,-0.224,0.064,-0.046,-0.022,-0.148,-0.086,-0.052
-0.024,-0.228,-0.204,0.126,0.091,-0.216,0.079,-0.01,0.021,-0.082,-0.051,-0.043
-0.041,-0.23,-0.189,0.136,0.075,-0.209,0.095,0.013,-0.001,-0.121,-0.074,-0.055
-0.031,-0.215,-0.183,0.123,0.076,-0.199,0.088,0.039,0.026,-0.097,-0.059,-0.041
-0.033,-0.213,-0.179,0.123,0.073,-0.196,0.091,0.039,0.042,-0.108,-0.068,-0.045
-0.032,-0.2,-0.169,0.116,0.069,-0.184,0.085,0.041,0.05,-0.106,-0.065,-0.039
-0.023,-0.194,-0.171,0.108,0.074,-0.182,0.085,0.044,0.051,-0.101,-0.067,-0.04
-0.019,-0.182,-0.162,0.101,0.072,-0.172,0.085,0.055,0.053,-0.109,-0.072,-0.041
-0.007,-0.17,-0.164,0.089,0.079,-0.167,0.074,0.065,0.079,-0.101,-0.068,-0.039
0.001,-0.154,-0.155,0.077,0.078,-0.155,0.066,0.072,0.08,-0.107,-0.072,-0.041
0.004,-0.128,-0.132,0.062,0.068,-0.13,0.054,0.076,0.079,-0.093,-0.069,-0.039
-0.004,-0.099,-0.095,0.052,0.046,-0.096,0.044,0.079,0.083,-0.088,-0.07,-0.04
0.022,-0.062,-0.084,0.021,0.053,-0.073,0.031,0.09,0.098,-0.078,-0.061,-0.034
0.042,-0.028,-0.069,-0.007,0.056,-0.048,0.022,0.095,0.113,-0.068,-0.053,-0.028
0.047,0.019,-0.028,-0.033,0.038,-0.005,0.008,0.117,0.13,-0.058,-0.045,-0.021
0.061,0.066,0.005,-0.063,0.028,0.035,-0.015,0.143,0.151,-0.043,-0.038,-0.015
0.07,0.113,0.043,-0.092,0.014,0.078,-0.043,0.169,0.186,-0.023,-0.024,-0.004
0.096,0.154,0.058,-0.125,0.019,0.106,-0.071,0.198,0.222,0.015,0.008,0.021
0.135,0.189,0.053,-0.163,0.041,0.121,-0.089,0.23,0.267,0.061,0.045,0.065
0.174,0.23,0.056,-0.202,0.059,0.143,-0.115,0.259,0.31,0.099,0.079,0.109
0.207,0.262,0.055,-0.235,0.076,0.159,-0.143,0.25,0.341,0.135,0.118,0.144
0.248,0.301,0.053,-0.275,0.097,0.177,-0.171,0.238,0.352,0.146,0.139,0.172
0.236,0.308,0.072,-0.272,0.082,0.19,-0.184,0.228,0.349,0.152,0.13,0.176
0.206,0.294,0.088,-0.251,0.059,0.191,-0.171,0.201,0.348,0.162,0.129,0.178
0.198,0.277,0.079,-0.237,0.059,0.178,-0.155,0.161,0.304,0.144,0.121,0.153
0.156,0.234,0.078,-0.195,0.039,0.156,-0.129,0.112,0.231,0.088,0.065,0.093
0.105,0.179,0.074,-0.142,0.015,0.126,-0.092,0.061,0.15,0.017,0.004,0.032
0.053,0.12,0.067,-0.086,-0.007,0.094,-0.044,0.003,0.073,-0.045,-0.045,-0.027
0.001,0.078,0.077,-0.039,-0.038,0.077,-0.012,-0.056,0.012,-0.115,-0.096,-0.062
-0.03,0.058,0.087,-0.014,-0.059,0.072,-0.013,-0.095,-0.047,-0.166,-0.131,-0.096
-0.054,0.029,0.082,0.012,-0.068,0.055,-0.004,-0.117,-0.074,-0.185,-0.151,-0.122
-0.08,0.011,0.092,0.034,-0.086,0.051,0.004,-0.127,-0.09,-0.199,-0.157,-0.119
-0.073,0.022,0.094,0.025,-0.084,0.058,0.018,-0.122,-0.097,-0.201,-0.159,-0.116
-0.059,0.003,0.062,0.028,-0.061,0.032,0.036,-0.113,-0.086,-0.197,-0.155,-0.113
-0.068,-0.025,0.043,0.047,-0.055,0.008,0.036,-0.105,-0.082,-0.195,-0.15,-0.11
-0.068,-0.032,0.036,0.05,-0.052,0.002,0.041,-0.097,-0.073,-0.194,-0.147,-0.109
-0.075,-0.03,0.045,0.053,-0.06,0.008,0.038,-0.092,-0.068,-0.186,-0.142,-0.104
-0.054,-0.027,0.027,0.04,-0.04,0.0,0.034,-0.089,-0.064,-0.174,-0.139,-0.098
-0.019,-0.024,-0.005,0.022,-0.006,-0.014,0.032,-0.091,-0.062,-0.165,-0.14,-0.095
-0.027,-0.021,0.006,0.024,-0.016,-0.008,0.028,-0.088,-0.059,-0.159,-0.14,-0.089
-0.013,-0.019,-0.006,0.016,-0.003,-0.013,0.027,-0.085,-0.056,-0.161,-0.14,-0.086
-0.011,-0.016,-0.005,0.014,-0.003,-0.01,0.022,-0.085,-0.055,-0.159,-0.141,-0.08
-0.033,-0.015,0.019,0.024,-0.025,0.002,0.032,-0.083,-0.048,-0.162,-0.13,-0.083
-0.011,-0.015,-0.004,0.013,-0.003,-0.009,0.041,-0.08,-0.065,-0.17,-0.141,-0.098
-0.02,-0.015,0.005,0.018,-0.012,-0.005,0.033,-0.079,-0.083,-0.169,-0.158,-0.101
-0.056,-0.014,0.042,0.034,-0.048,0.014,0.03,-0.092,-0.079,-0.172,-0.152,-0.1
-0.046,-0.026,0.02,0.036,-0.033,-0.003,0.025,-0.102,-0.079,-0.175,-0.148,-0.099
-0.056,-0.037,0.019,0.046,-0.037,-0.009,0.02,-0.099,-0.095,-0.189,-0.165,-0.113
-0.065,-0.034,0.031,0.049,-0.047,-0.002,0.025,-0.098,-0.106,-0.195,-0.176,-0.12
-0.032,-0.035,-0.003,0.033,-0.014,-0.019,0.027,-0.094,-0.098,-0.186,-0.168,-0.111
-0.008,-0.036,-0.028,0.022,0.011,-0.032,0.024,-0.095,-0.095,-0.183,-0.165,-0.108
-0.008,-0.034,-0.026,0.021,0.009,-0.029,0.026,-0.091,-0.091,-0.176,-0.16,-0.101
-0.036,-0.042,-0.006,0.039,-0.015,-0.024,0.024,-0.084,-0.084,-0.171,-0.155,-0.096
-0.046,-0.059,-0.013,0.053,-0.016,-0.036,0.028,-0.078,-0.094,-0.166,-0.151,-0.091
-0.017,-0.071,-0.055,0.044,0.019,-0.063,0.037,-0.071,-0.098,-0.161,-0.144,-0.086
-0.01,-0.078,-0.068,0.044,0.029,-0.073,0.034,-0.064,-0.087,-0.156,-0.14,-0.082
-0.006,-0.094,-0.088,0.05,0.042,-0.091,0.053,-0.059,-0.085,-0.153,-0.134,-0.077
-0.012,-0.118,-0.106,0.065,0.047,-0.112,0.068,-0.054,-0.085,-0.146,-0.129,-0.073
-0.042,-0.117,-0.075,0.08,0.017,-0.096,0.062,-0.05,-0.085,-0.148,-0.124,-0.069
-0.023,-0.108,-0.084,0.066,0.031,-0.096,0.063,-0.048,-0.084,-0.156,-0.118,-0.063
-0.006,-0.105,-0.099,0.056,0.047,-0.102,0.056,-0.043,-0.06,-0.145,-0.111,-0.057
-0.018,-0.091,-0.073,0.055,0.028,-0.082,0.071,-0.04,-0.04,-0.135,-0.104,-0.051
-0.005,-0.082,-0.077,0.044,0.036,-0.079,0.074,-0.036,-0.034,-0.125,-0.097,-0.046
0.017,-0.065,-0.082,0.024,0.05,-0.073,0.029,-0.03,-0.03,-0.107,-0.098,-0.044
0.03,-0.057,-0.087,0.014,0.059,-0.072,0.027,-0.024,-0.037,-0.099,-0.101,-0.046
0.024,-0.092,-0.115,0.034,0.07,-0.103,0.051,-0.019,-0.038,-0.104,-0.099,-0.043
0.014,-0.103,-0.117,0.045,0.065,-0.109,0.048,-0.04,-0.046,-0.122,-0.1,-0.047
-0.003,-0.122,-0.119,0.062,0.058,-0.12,0.053,-0.044,-0.056,-0.123,-0.105,-0.041
-0.039,-0.152,-0.113,0.096,0.037,-0.132,0.063,-0.053,-0.07,-0.145,-0.125,-0.052
-0.045,-0.136,-0.09,0.091,0.023,-0.113,0.062,-0.079,-0.099,-0.174,-0.142,-0.081
-0.027,-0.144,-0.117,0.086,0.045,-0.13,0.054,-0.082,-0.105,-0.178,-0.157,-0.097
-0.035,-0.129,-0.094,0.082,0.03,-0.111,0.05,-0.078,-0.107,-0.185,-0.156,-0.093
-0.036,-0.135,-0.099,0.086,0.031,-0.116,0.044,-0.077,-0.101,-0.171,-0.152,-0.096
-0.053,-0.124,-0.071,0.089,0.009,-0.098,0.038,-0.074,-0.11,-0.192,-0.161,-0.104
-0.034,-0.108,-0.074,0.071,0.02,-0.09,0.054,-0.07,-0.102,-0.168,-0.158,-0.111
-0.042,-0.166,-0.125,0.104,0.042,-0.145,0.133,0.164,-0.059,-0.229,-0.24,-0.197
-0.034,0.054,0.088,-0.01,-0.061,0.071,0.262,0.411,0.247,0.012,-0.058,-0.061
0.204,0.498,0.294,-0.352,-0.045,0.396,-0.029,-0.243,0.432,0.457,0.398,0.378
0.458,0.885,0.427,-0.672,0.015,0.656,-0.791,-1.198,0.366,0.95,0.928,0.901
0.492,0.717,0.224,-0.605,0.134,0.47,-1.063,-1.336,0.49,1.321,1.029,0.921
0.195,0.097,-0.098,-0.145,0.147,-0.001,-0.564,-0.895,0.035,0.351,0.179,0.182
-0.037,-0.08,-0.043,0.059,0.004,-0.062,-0.146,-0.387,-0.283,-0.313,-0.238,-0.153
-0.029,-0.032,-0.003,0.031,-0.013,-0.017,-0.034,-0.117,-0.044,-0.092,-0.096,-0.058
-0.061,-0.054,0.007,0.057,-0.033,-0.023,0.049,-0.036,-0.068,-0.166,-0.144,-0.085
-0.04,-0.038,0.002,0.039,-0.02,-0.018,0.062,-0.007,-0.035,-0.112,-0.114,-0.063
-0.028,-0.053,-0.025,0.041,-0.001,-0.039,0.079,0.027,-0.022,-0.122,-0.119,-0.066
-0.041,-0.072,-0.03,0.057,-0.005,-0.051,0.097,0.057,-0.018,-0.12,-0.107,-0.059
-0.037,-0.073,-0.037,0.055,0.0,-0.055,0.093,0.062,0.009,-0.101,-0.097,-0.054
-0.043,-0.066,-0.023,0.054,-0.01,-0.044,0.1,0.084,0.007,-0.113,-0.096,-0.053
-0.034,-0.063,-0.029,0.049,-0.002,-0.046,0.099,0.088,0.033,-0.089,-0.082,-0.044
-0.009,-0.058,-0.049,0.034,0.02,-0.053,0.101,0.096,0.034,-0.085,-0.083,-0.041
0.004,-0.053,-0.057,0.025,0.031,-0.055,0.098,0.108,0.057,-0.054,-0.07,-0.031
0.005,-0.049,-0.054,0.023,0.029,-0.051,0.095,0.122,0.077,-0.054,-0.068,-0.027
0.008,-0.044,-0.052,0.019,0.03,-0.048,0.095,0.146,0.086,-0.037,-0.059,-0.019
0.01,-0.04,-0.049,0.015,0.03,-0.044,0.092,0.158,0.101,-0.017,-0.053,-0.014
0.014,-0.037,-0.05,0.012,0.032,-0.043,0.083,0.171,0.127,0.0,-0.043,-0.006
0.022,-0.023,-0.045,0.001,0.034,-0.034,0.075,0.189,0.142,0.015,-0.031,0.005
0.048,0.002,-0.046,-0.024,0.047,-0.022,0.066,0.213,0.154,0.024,-0.02,0.01
0.076,0.034,-0.042,-0.055,0.059,-0.004,0.059,0.244,0.184,0.049,0.004,0.03
0.095,0.055,-0.04,-0.075,0.067,0.007,0.044,0.274,0.222,0.08,0.026,0.06
0.126,0.086,-0.04,-0.106,0.083,0.023,0.019,0.316,0.257,0.113,0.057,0.083
0.172,0.132,-0.04,-0.152,0.106,0.046,-0.003,0.359,0.311,0.167,0.101,0.122
0.182,0.142,-0.04,-0.162,0.111,0.051,-0.013,0.389,0.356,0.218,0.15,0.167
0.198,0.16,-0.038,-0.179,0.118,0.06,-0.034,0.401,0.392,0.255,0.196,0.214
0.232,0.17,-0.062,-0.201,0.147,0.054,-0.066,0.393,0.415,0.289,0.225,0.258
0.224,0.155,-0.069,-0.19,0.146,0.043,-0.065,0.382,0.401,0.316,0.254,0.284
0.212,0.152,-0.06,-0.181,0.135,0.046,-0.053,0.36,0.391,0.31,0.252,0.294
0.197,0.141,-0.055,-0.169,0.126,0.043,-0.048,0.316,0.377,0.283,0.219,0.268
0.176,0.131,-0.044,-0.153,0.11,0.043,-0.026,0.255,0.317,0.242,0.18,0.206
0.125,0.096,-0.029,-0.11,0.077,0.033,-0.001,0.186,0.225,0.169,0.113,0.129
0.053,0.039,-0.014,-0.046,0.033,0.012,0.028,0.126,0.143,0.09,0.044,0.065
0.025,0.007,-0.017,-0.016,0.021,-0.005,0.061,0.08,0.074,0.026,-0.001,0.026
-0.007,-0.023,-0.016,0.015,0.005,-0.019,0.075,0.035,0.021,-0.015,-0.035,-0.007
-0.039,-0.045,-0.006,0.042,-0.016,-0.025,0.078,-0.002,-0.02,-0.036,-0.056,-0.024
-0.042,-0.044,-0.002,0.044,-0.02,-0.023,0.08,-0.026,-0.049,-0.052,-0.065,-0.033
-0.053,-0.045,0.008,0.049,-0.03,-0.019,0.085,-0.032,-0.056,-0.058,-0.072,-0.041
-0.073,-0.045,0.028,0.059,-0.05,-0.008,0.084,-0.026,-0.049,-0.051,-0.066,-0.034
-0.07,-0.068,0.002,0.069,-0.036,-0.033,0.089,-0.019,-0.042,-0.046,-0.059,-0.027
-0.048,-0.095,-0.047,0.072,0.0,-0.071,0.099,-0.012,-0.036,-0.04,-0.053,-0.021
-0.041,-0.097,-0.057,0.07,0.008,-0.077,0.102,-0.006,-0.029,-0.035,-0.045,-0.014
-0.049,-0.106,-0.057,0.077,0.004,-0.081,0.121,0.006,-0.023,-0.028,-0.04,-0.009
-0.052,-0.113,-0.061,0.082,0.005,-0.087,0.128,0.019,-0.016,-0.02,-0.035,-0.003
-0.053,-0.124,-0.071,0.089,0.009,-0.097,0.129,0.038,-0.009,-0.012,-0.03,0.004
-0.045,-0.129,-0.084,0.087,0.02,-0.106,0.135,0.054,-0.002,-0.003,-0.027,0.011
-0.04,-0.129,-0.089,0.085,0.025,-0.109,0.135,0.058,0.004,0.005,-0.022,0.017
-0.054,-0.168,-0.115,0.111,0.031,-0.141,0.135,0.067,0.009,0.013,-0.016,0.024
-0.037,-0.189,-0.152,0.113,0.058,-0.171,0.135,0.069,0.009,0.026,-0.011,0.029
-0.038,-0.2,-0.162,0.119,0.062,-0.181,0.134,0.064,0.004,0.033,-0.006,0.036
-0.048,-0.227,-0.18,0.138,0.066,-0.203,0.143,0.066,0.001,0.026,0.001,0.039
-0.044,-0.238,-0.194,0.141,0.075,-0.216,0.149,0.062,-0.003,0.019,0.004,0.033
-0.056,-0.244,-0.188,0.15,0.066,-0.215,0.142,0.06,-0.007,0.013,0.001,0.027
-0.058,-0.249,-0.191,0.153,0.067,-0.22,0.137,0.06,-0.01,0.006,-0.002,0.022
-0.049,-0.25,-0.201,0.15,0.076,-0.225,0.132,0.056,-0.013,-0.004,-0.004,0.016
-0.044,-0.25,-0.206,0.148,0.081,-0.228,0.125,0.055,-0.016,-0.018,-0.008,0.011
-0.051,-0.25,-0.198,0.15,0.074,-0.224,0.133,0.055,-0.019,-0.022,-0.01,0.013
-0.053,-0.25,-0.198,0.152,0.072,-0.224,0.137,0.055,-0.022,-0.02,-0.01,0.018
-0.057,-0.249,-0.192,0.153,0.067,-0.22,0.134,0.055,-0.025,-0.017,-0.01,0.019
-0.053,-0.243,-0.19,0.148,0.068,-0.216,0.135,0.054,-0.026,-0.014,-0.01,0.014
-0.029,-0.237,-0.208,0.133,0.09,-0.223,0.135,0.049,-0.03,-0.01,-0.01,0.011
-0.027,-0.232,-0.206,0.13,0.09,-0.219,0.135,0.046,-0.03,-0.01,-0.01,0.008
-0.035,-0.226,-0.191,0.131,0.078,-0.208,0.134,0.043,-0.032,-0.014,-0.01,0.003
-0.035,-0.221,-0.187,0.128,0.076,-0.204,0.129,0.038,-0.036,-0.016,-0.015,0.0
-0.043,-0.216,-0.173,0.129,0.065,-0.194,0.124,0.035,-0.034,-0.02,-0.014,-0.003
-0.057,-0.209,-0.152,0.133,0.048,-0.181,0.119,0.031,-0.039,-0.022,-0.023,-0.008
-0.065,-0.203,-0.138,0.134,0.037,-0.17,0.115,0.03,-0.046,-0.026,-0.032,-0.011
-0.057,-0.191,-0.134,0.124,0.038,-0.162,0.11,0.03,-0.051,-0.029,-0.029,-0.014
-0.052,-0.176,-0.123,0.114,0.036,-0.149,0.107,0.026,-0.054,-0.033,-0.03,-0.019
-0.07,-0.166,-0.095,0.118,0.013,-0.13,0.101,0.024,-0.059,-0.035,-0.03,-0.019
-0.061,-0.154,-0.093,0.108,0.016,-0.123,0.096,0.027,-0.067,-0.029,-0.03,-0.014
-0.058,-0.146,-0.089,0.102,0.016,-0.117,0.093,0.03,-0.069,-0.023,-0.027,-0.009
-0.087,-0.132,-0.045,0.11,-0.021,-0.089,0.087,0.031,-0.065,-0.016,-0.019,-0.005
-0.061,-0.094,-0.033,0.078,-0.013,-0.063,0.087,0.03,-0.062,-0.01,-0.016,0.0
-0.049,-0.048,0.001,0.048,-0.025,-0.023,0.101,0.03,-0.058,-0.001,-0.009,0.005
-0.066,-0.016,0.05,0.041,-0.058,0.017,0.122,0.03,-0.055,0.001,-0.004,0.001
-0.04,-0.018,0.022,0.029,-0.031,0.002,0.082,0.035,-0.049,0.012,0.002,0.0
0.001,-0.031,-0.032,0.015,0.017,-0.031,0.035,0.044,-0.031,0.027,0.014,0.008
0.025,-0.039,-0.065,0.007,0.045,-0.052,0.07,0.028,-0.027,0.003,-0.01,0.004
0.015,-0.043,-0.057,0.014,0.036,-0.05,0.082,0.014,-0.061,-0.022,-0.036,-0.013
-0.002,-0.04,-0.038,0.021,0.018,-0.039,0.078,0.006,-0.084,-0.031,-0.035,-0.024
-0.025,-0.063,-0.038,0.044,0.006,-0.05,0.081,-0.007,-0.097,-0.043,-0.049,-0.042
-0.067,-0.085,-0.018,0.076,-0.025,-0.051,0.079,-0.012,-0.124,-0.059,-0.061,-0.056
-0.074,-0.097,-0.023,0.085,-0.025,-0.059,0.082,-0.036,-0.124,-0.049,-0.063,-0.063
-0.085,-0.097,-0.012,0.091,-0.036,-0.054,0.074,-0.038,-0.129,-0.062,-0.075,-0.067
-0.087,-0.099,-0.011,0.093,-0.038,-0.055,0.077,-0.04,-0.121,-0.057,-0.067,-0.07
-0.095,-0.108,-0.013,0.102,-0.041,-0.06,0.071,-0.023,-0.122,-0.076,-0.085,-0.088
-0.104,-0.096,0.007,0.1,-0.055,-0.044,0.079,-0.033,-0.122,-0.051,-0.07,-0.07
-0.061,-0.16,-0.099,0.111,0.019,-0.129,0.133,0.156,-0.088,-0.058,-0.116,-0.125
-0.077,-0.067,0.011,0.072,-0.044,-0.028,0.292,0.498,0.13,0.024,-0.058,-0.096
0.147,0.314,0.167,-0.231,-0.01,0.24,0.093,-0.055,0.362,0.446,0.347,0.292
0.482,0.751,0.268,-0.617,0.107,0.509,-0.679,-1.149,0.303,0.899,0.878,0.868
0.542,0.752,0.21,-0.647,0.166,0.48,-1.069,-1.459,0.491,1.336,1.146,1.075
0.305,0.149,-0.156,-0.227,0.23,-0.003,-0.681,-0.985,0.267,0.716,0.492,0.459
-0.007,-0.142,-0.135,0.075,0.064,-0.138,-0.185,-0.394,-0.231,-0.136,-0.1,-0.043
-0.04,-0.063,-0.023,0.052,-0.008,-0.043,0.002,-0.076,-0.074,-0.004,-0.006,-0.013
-0.039,-0.082,-0.042,0.061,0.002,-0.062,0.073,0.037,-0.029,-0.013,-0.031,-0.03
-0.052,-0.072,-0.019,0.062,-0.016,-0.045,0.113,0.078,-0.033,-0.012,-0.025,-0.021
-0.038,-0.076,-0.038,0.057,0.0,-0.056,0.12,0.108,-0.005,0.021,-0.015,-0.014
-0.048,-0.076,-0.028,0.062,-0.009,-0.052,0.136,0.128,-0.025,0.001,-0.027,-0.015
-0.034,-0.072,-0.038,0.054,0.003,-0.055,0.137,0.141,0.004,0.037,-0.011,-0.004
-0.038,-0.072,-0.034,0.055,-0.002,-0.052,0.14,0.156,-0.009,0.021,-0.015,-0.006
-0.029,-0.068,-0.039,0.048,0.005,-0.054,0.135,0.161,0.01,0.047,0.002,0.005
-0.031,-0.072,-0.041,0.051,0.005,-0.056,0.135,0.171,0.012,0.041,0.001,0.006
-0.029,-0.069,-0.039,0.049,0.005,-0.054,0.135,0.187,0.034,0.055,0.014,0.018
-0.023,-0.071,-0.048,0.047,0.012,-0.059,0.135,0.205,0.045,0.063,0.022,0.021
-0.032,-0.073,-0.041,0.053,0.005,-0.057,0.135,0.222,0.058,0.079,0.032,0.033
-0.025,-0.081,-0.056,0.054,0.015,-0.068,0.142,0.241,0.08,0.093,0.042,0.044
-0.01,-0.078,-0.067,0.044,0.028,-0.072,0.148,0.268,0.107,0.116,0.063,0.051
-0.001,-0.083,-0.082,0.042,0.041,-0.083,0.14,0.296,0.132,0.127,0.079,0.064
0.011,-0.094,-0.105,0.042,0.058,-0.099,0.137,0.331,0.162,0.135,0.099,0.081
0.019,-0.088,-0.108,0.035,0.064,-0.098,0.133,0.37,0.204,0.167,0.127,0.109
0.041,-0.079,-0.12,0.019,0.081,-0.099,0.128,0.407,0.235,0.192,0.149,0.133
0.072,-0.054,-0.126,-0.009,0.099,-0.09,0.124,0.447,0.279,0.23,0.185,0.164
0.102,-0.027,-0.129,-0.037,0.116,-0.078,0.109,0.492,0.323,0.28,0.232,0.212
0.125,-0.005,-0.131,-0.06,0.128,-0.068,0.088,0.522,0.372,0.333,0.285,0.266
0.152,0.025,-0.126,-0.088,0.139,-0.05,0.067,0.516,0.41,0.377,0.333,0.314
0.192,0.069,-0.124,-0.13,0.158,-0.027,0.036,0.506,0.425,0.41,0.368,0.35
0.22,0.098,-0.121,-0.159,0.17,-0.011,0.016,0.499,0.426,0.429,0.394,0.388
0.219,0.101,-0.119,-0.16,0.169,-0.009,0.011,0.48,0.424,0.436,0.411,0.401
0.206,0.084,-0.122,-0.146,0.164,-0.018,0.012,0.439,0.426,0.433,0.407,0.384
0.176,0.034,-0.141,-0.105,0.158,-0.053,0.035,0.384,0.39,0.407,0.371,0.349
0.113,-0.033,-0.146,-0.039,0.13,-0.09,0.07,0.321,0.315,0.341,0.304,0.28
0.063,-0.086,-0.149,0.011,0.107,-0.118,0.104,0.248,0.228,0.254,0.225,0.202
0.02,-0.129,-0.149,0.054,0.085,-0.139,0.134,0.192,0.145,0.182,0.159,0.14
-0.021,-0.177,-0.156,0.099,0.067,-0.166,0.154,0.136,0.084,0.129,0.107,0.091
-0.038,-0.213,-0.175,0.126,0.068,-0.194,0.156,0.095,0.036,0.091,0.077,0.061
-0.044,-0.221,-0.177,0.133,0.067,-0.198,0.159,0.095,0.008,0.063,0.062,0.05
-0.049,-0.227,-0.178,0.138,0.065,-0.202,0.162,0.094,0.003,0.059,0.047,0.05
-0.06,-0.247,-0.187,0.154,0.063,-0.216,0.164,0.09,0.007,0.065,0.045,0.05
-0.066,-0.261,-0.195,0.164,0.065,-0.228,0.169,0.09,0.009,0.068,0.045,0.05
-0.071,-0.261,-0.19,0.166,0.06,-0.225,0.17,0.091,0.013,0.073,0.045,0.05
-0.07,-0.255,-0.185,0.163,0.058,-0.22,0.175,0.097,0.015,0.075,0.045,0.049
-0.068,-0.25,-0.182,0.159,0.057,-0.216,0.174,0.104,0.018,0.075,0.045,0.045
-0.069,-0.244,-0.175,0.157,0.053,-0.209,0.17,0.105,0.031,0.078,0.049,0.045
-0.06,-0.238,-0.178,0.149,0.059,-0.207,0.17,0.105,0.031,0.08,0.054,0.042
-0.057,-0.236,-0.18,0.146,0.062,-0.208,0.17,0.105,0.024,0.079,0.053,0.039
-0.06,-0.24,-0.18,0.15,0.06,-0.21,0.17,0.105,0.021,0.075,0.049,0.04
-0.063,-0.242,-0.18,0.153,0.058,-0.211,0.17,0.105,0.016,0.075,0.05,0.04
-0.065,-0.245,-0.18,0.155,0.058,-0.212,0.17,0.103,0.012,0.074,0.05,0.04
-0.069,-0.249,-0.18,0.159,0.056,-0.214,0.17,0.1,0.007,0.069,0.05,0.04
-0.064,-0.249,-0.186,0.157,0.061,-0.217,0.17,0.097,0.005,0.07,0.05,0.04
-0.051,-0.257,-0.206,0.154,0.078,-0.232,0.17,0.095,0.005,0.067,0.05,0.039
-0.054,-0.27,-0.216,0.163,0.081,-0.243,0.17,0.091,0.001,0.064,0.05,0.041
-0.058,-0.283,-0.224,0.171,0.083,-0.253,0.17,0.09,0.0,0.065,0.05,0.045
-0.06,-0.29,-0.23,0.175,0.085,-0.26,0.182,0.086,0.0,0.061,0.05,0.045
-0.051,-0.292,-0.241,0.172,0.095,-0.266,0.186,0.08,-0.005,0.06,0.05,0.045
-0.043,-0.295,-0.253,0.169,0.105,-0.274,0.184,0.075,-0.009,0.06,0.048,0.045
-0.045,-0.291,-0.246,0.168,0.101,-0.268,0.185,0.07,-0.014,0.055,0.044,0.045
-0.044,-0.289,-0.245,0.167,0.101,-0.267,0.185,0.062,-0.019,0.055,0.045,0.041
-0.048,-0.289,-0.241,0.168,0.097,-0.264,0.184,0.066,-0.023,0.055,0.045,0.04
-0.042,-0.282,-0.24,0.162,0.1,-0.261,0.181,0.082,-0.025,0.055,0.045,0.04
-0.055,-0.291,-0.235,0.173,0.09,-0.263,0.178,0.078,-0.025,0.055,0.044,0.035
-0.06,-0.3,-0.24,0.18,0.09,-0.269,0.175,0.075,-0.025,0.053,0.041,0.035
-0.043,-0.292,-0.249,0.168,0.103,-0.27,0.172,0.073,-0.025,0.048,0.038,0.034
-0.047,-0.286,-0.238,0.167,0.096,-0.262,0.17,0.07,-0.025,0.045,0.035,0.029
-0.049,-0.279,-0.23,0.164,0.091,-0.255,0.168,0.068,-0.026,0.042,0.032,0.024
-0.05,-0.272,-0.222,0.162,0.086,-0.247,0.163,0.061,-0.023,0.037,0.03,0.019
-0.052,-0.267,-0.215,0.16,0.082,-0.241,0.16,0.057,-0.035,0.034,0.028,0.015
-0.051,-0.261,-0.21,0.156,0.08,-0.236,0.157,0.051,-0.047,0.03,0.023,0.01
-0.052,-0.256,-0.204,0.154,0.076,-0.23,0.152,0.045,-0.044,0.025,0.02,0.007
-0.051,-0.25,-0.199,0.151,0.074,-0.224,0.149,0.04,-0.045,0.021,0.017,0.004
-0.052,-0.245,-0.193,0.149,0.071,-0.219,0.145,0.036,-0.045,0.016,0.012,0.001
-0.049,-0.236,-0.187,0.143,0.07,-0.211,0.145,0.033,-0.045,0.011,0.01,-0.002
-0.041,-0.223,-0.182,0.132,0.071,-0.202,0.145,0.03,-0.049,0.007,0.01,-0.005
-0.04,-0.212,-0.172,0.127,0.066,-0.192,0.145,0.028,-0.05,0.004,0.01,-0.004
-0.046,-0.209,-0.164,0.128,0.059,-0.186,0.145,0.024,-0.05,0.0,0.01,0.0
-0.049,-0.207,-0.158,0.128,0.055,-0.182,0.145,0.027,-0.05,-0.011,0.01,0.002
-0.054,-0.204,-0.15,0.129,0.048,-0.176,0.145,0.031,-0.05,-0.03,0.01,0.005
-0.055,-0.2,-0.146,0.128,0.045,-0.173,0.144,0.03,-0.049,-0.038,0.01,0.008
-0.065,-0.2,-0.135,0.133,0.035,-0.167,0.145,0.03,-0.045,-0.034,0.01,0.011
-0.065,-0.205,-0.14,0.136,0.038,-0.172,0.145,0.029,-0.045,-0.035,0.01,0.013
-0.06,-0.213,-0.153,0.137,0.047,-0.183,0.145,0.031,-0.043,-0.031,0.01,0.016
-0.055,-0.213,-0.158,0.134,0.052,-0.185,0.15,0.035,-0.039,-0.03,0.01,0.019
-0.039,-0.202,-0.163,0.121,0.062,-0.182,0.15,0.036,-0.041,-0.031,0.009,0.021
-0.042,-0.194,-0.152,0.118,0.055,-0.173,0.155,0.034,-0.035,-0.02,0.017,0.024
-0.033,-0.165,-0.132,0.099,0.049,-0.148,0.153,0.041,-0.026,-0.005,0.027,0.026
-0.026,-0.135,-0.108,0.081,0.041,-0.121,0.161,0.063,-0.018,0.008,0.038,0.03
-0.041,-0.135,-0.095,0.088,0.028,-0.115,0.162,0.062,-0.007,0.016,0.046,0.035
-0.017,-0.135,-0.117,0.076,0.051,-0.126,0.135,0.059,0.0,0.025,0.053,0.031
0.029,-0.135,-0.163,0.053,0.097,-0.149,0.128,0.078,0.018,0.025,0.056,0.024
0.034,-0.153,-0.187,0.06,0.111,-0.17,0.132,0.061,0.001,0.02,0.043,0.02
-0.01,-0.168,-0.158,0.09,0.074,-0.163,0.128,0.036,-0.036,0.002,0.022,0.012
-0.032,-0.162,-0.13,0.097,0.05,-0.146,0.132,0.02,-0.048,-0.016,0.004,0.01
-0.021,-0.168,-0.148,0.095,0.064,-0.157,0.128,0.009,-0.069,-0.035,-0.017,-0.001
-0.062,-0.199,-0.137,0.131,0.038,-0.168,0.128,0.001,-0.078,-0.052,-0.021,-0.009
-0.082,-0.222,-0.14,0.152,0.029,-0.181,0.123,-0.013,-0.089,-0.063,-0.03,-0.021
-0.086,-0.222,-0.136,0.155,0.025,-0.179,0.125,-0.009,-0.084,-0.069,-0.025,-0.029
-0.067,-0.245,-0.178,0.156,0.056,-0.211,0.129,-0.01,-0.072,-0.057,-0.02,-0.028
-0.083,-0.248,-0.165,0.165,0.041,-0.206,0.131,0.002,-0.074,-0.076,-0.025,-0.034
-0.08,-0.262,-0.182,0.171,0.051,-0.221,0.145,0.005,-0.054,-0.051,-0.011,-0.024
-0.047,-0.317,-0.27,0.182,0.112,-0.293,0.232,0.284,-0.002,-0.077,-0.087,-0.097
-0.044,-0.135,-0.091,0.09,0.024,-0.113,0.359,0.416,0.273,0.138,0.07,0.015
0.276,0.285,0.009,-0.281,0.133,0.147,-0.053,-0.5,0.346,0.541,0.513,0.487
0.53,0.676,0.145,-0.604,0.192,0.41,-0.803,-1.481,0.287,0.971,1.035,1.04
0.468,0.492,0.024,-0.48,0.221,0.258,-0.921,-1.455,0.428,1.147,1.044,1.006
0.207,-0.091,-0.298,-0.058,0.252,-0.194,-0.448,-0.81,0.042,0.328,0.295,0.284
-0.026,-0.203,-0.177,0.114,0.076,-0.189,-0.054,-0.26,-0.184,-0.128,-0.01,-0.033
-0.013,-0.143,-0.129,0.078,0.058,-0.136,0.078,-0.045,-0.001,0.011,0.037,0.013
-0.048,-0.164,-0.116,0.106,0.034,-0.139,0.135,0.035,-0.02,-0.057,-0.018,-0.024
-0.056,-0.138,-0.082,0.098,0.014,-0.11,0.147,0.07,0.012,-0.013,0.005,-0.013
-0.031,-0.141,-0.11,0.086,0.04,-0.125,0.152,0.092,0.007,-0.03,-0.024,-0.027
-0.045,-0.119,-0.074,0.083,0.014,-0.096,0.149,0.116,0.012,-0.018,-0.026,-0.019
-0.059,-0.115,-0.056,0.087,-0.001,-0.085,0.143,0.129,0.024,-0.006,-0.031,-0.02
-0.064,-0.102,-0.038,0.083,-0.013,-0.07,0.142,0.135,0.02,-0.008,-0.026,-0.022
-0.042,-0.084,-0.041,0.063,0.0,-0.062,0.135,0.145,0.035,0.01,-0.021,-0.018
-0.042,-0.06,-0.018,0.051,-0.011,-0.039,0.135,0.153,0.031,0.006,-0.02,-0.022
-0.042,-0.025,0.017,0.033,-0.03,-0.004,0.125,0.157,0.041,0.021,-0.013,-0.014
-0.011,0.002,0.014,0.004,-0.013,0.008,0.119,0.161,0.042,0.022,-0.013,-0.016
-0.029,0.022,0.051,0.003,-0.04,0.037,0.112,0.169,0.049,0.032,-0.007,-0.014
-0.047,0.027,0.074,0.01,-0.061,0.05,0.104,0.185,0.062,0.035,-0.006,-0.011
-0.032,0.05,0.081,-0.009,-0.057,0.065,0.098,0.196,0.071,0.043,-0.001,-0.01
-0.026,0.074,0.1,-0.024,-0.063,0.087,0.09,0.212,0.085,0.053,0.001,-0.009
0.018,0.096,0.078,-0.057,-0.03,0.087,0.082,0.239,0.111,0.072,0.017,0.004
0.035,0.132,0.097,-0.084,-0.031,0.114,0.077,0.272,0.135,0.088,0.037,0.018
0.053,0.163,0.109,-0.108,-0.028,0.136,0.068,0.309,0.163,0.106,0.061,0.038
0.075,0.195,0.12,-0.135,-0.023,0.157,0.045,0.342,0.191,0.146,0.092,0.073
0.101,0.242,0.141,-0.172,-0.02,0.191,0.011,0.369,0.226,0.186,0.128,0.11
0.15,0.306,0.156,-0.228,-0.003,0.23,-0.015,0.384,0.259,0.229,0.173,0.156
0.182,0.37,0.189,-0.276,-0.004,0.279,-0.041,0.375,0.281,0.266,0.207,0.193
0.205,0.415,0.21,-0.31,-0.003,0.312,-0.079,0.371,0.294,0.288,0.241,0.226
0.221,0.462,0.241,-0.341,-0.01,0.351,-0.103,0.342,0.287,0.296,0.264,0.25
0.236,0.497,0.261,-0.367,-0.013,0.379,-0.13,0.291,0.282,0.29,0.261,0.246
0.192,0.485,0.292,-0.339,-0.05,0.388,-0.14,0.248,0.264,0.28,0.244,0.234
0.152,0.456,0.304,-0.304,-0.076,0.38,-0.113,0.185,0.22,0.241,0.199,0.185
0.119,0.415,0.296,-0.267,-0.089,0.356,-0.076,0.123,0.151,0.172,0.126,0.108
0.05,0.353,0.303,-0.201,-0.127,0.328,-0.046,0.054,0.081,0.1,0.055,0.036
-0.001,0.296,0.297,-0.147,-0.149,0.296,-0.032,-0.014,0.003,0.022,-0.005,-0.029
-0.029,0.275,0.303,-0.123,-0.166,0.289,-0.03,-0.062,-0.07,-0.04,-0.062,-0.075
-0.028,0.274,0.302,-0.123,-0.165,0.288,-0.03,-0.097,-0.106,-0.073,-0.1,-0.107
-0.039,0.277,0.316,-0.119,-0.178,0.296,-0.025,-0.123,-0.15,-0.106,-0.124,-0.136
-0.053,0.279,0.332,-0.114,-0.192,0.305,-0.025,-0.144,-0.168,-0.119,-0.139,-0.148
-0.057,0.281,0.338,-0.113,-0.197,0.309,-0.025,-0.145,-0.16,-0.119,-0.144,-0.155
-0.062,0.285,0.346,-0.112,-0.204,0.315,-0.025,-0.145,-0.161,-0.121,-0.146,-0.163
-0.057,0.291,0.349,-0.118,-0.203,0.32,-0.025,-0.145,-0.159,-0.118,-0.144,-0.164
-0.059,0.316,0.375,-0.129,-0.217,0.345,-0.025,-0.145,-0.16,-0.128,-0.148,-0.171
-0.056,0.328,0.384,-0.136,-0.221,0.356,-0.025,-0.145,-0.16,-0.139,-0.153,-0.175
-0.06,0.339,0.399,-0.14,-0.23,0.369,-0.03,-0.141,-0.161,-0.149,-0.156,-0.168
-0.065,0.346,0.411,-0.141,-0.238,0.378,-0.036,-0.14,-0.165,-0.161,-0.153,-0.165
-0.064,0.355,0.419,-0.146,-0.242,0.387,-0.039,-0.14,-0.169,-0.163,-0.161,-0.16
-0.068,0.371,0.439,-0.152,-0.253,0.404,-0.04,-0.14,-0.171,-0.166,-0.18,-0.155
-0.061,0.371,0.432,-0.156,-0.247,0.402,-0.04,-0.14,-0.176,-0.171,-0.18,-0.159
-0.061,0.376,0.436,-0.158,-0.249,0.406,-0.039,-0.143,-0.17,-0.165,-0.183,-0.161
-0.054,0.379,0.433,-0.163,-0.244,0.406,-0.043,-0.146,-0.175,-0.167,-0.186,-0.169
-0.048,0.382,0.43,-0.167,-0.239,0.406,-0.044,-0.156,-0.199,-0.174,-0.187,-0.179
-0.061,0.387,0.448,-0.163,-0.255,0.417,-0.05,-0.162,-0.203,-0.179,-0.198,-0.183
-0.056,0.389,0.445,-0.167,-0.251,0.417,-0.061,-0.179,-0.216,-0.19,-0.205,-0.198
-0.051,0.385,0.436,-0.167,-0.244,0.41,-0.06,-0.197,-0.227,-0.19,-0.213,-0.201
-0.056,0.377,0.433,-0.161,-0.244,0.404,-0.058,-0.194,-0.224,-0.19,-0.213,-0.199
-0.05,0.371,0.421,-0.161,-0.236,0.396,-0.055,-0.195,-0.226,-0.19,-0.209,-0.2
-0.063,0.364,0.427,-0.15,-0.245,0.395,-0.055,-0.195,-0.225,-0.19,-0.21,-0.2
-0.077,0.358,0.435,-0.14,-0.256,0.396,-0.053,-0.194,-0.225,-0.19,-0.206,-0.199
-0.067,0.352,0.419,-0.143,-0.243,0.385,-0.049,-0.192,-0.225,-0.19,-0.205,-0.195
-0.059,0.348,0.408,-0.145,-0.233,0.378,-0.051,-0.188,-0.225,-0.19,-0.205,-0.193
-0.058,0.345,0.402,-0.144,-0.231,0.373,-0.049,-0.187,-0.225,-0.19,-0.199,-0.19
-0.057,0.341,0.398,-0.142,-0.227,0.369,-0.051,-0.183,-0.225,-0.19,-0.192,-0.186
-0.057,0.337,0.395,-0.14,-0.226,0.366,-0.049,-0.18,-0.226,-0.19,-0.186,-0.185
-0.055,0.333,0.388,-0.14,-0.222,0.36,-0.041,-0.178,-0.224,-0.184,-0.179,-0.179
-0.049,0.331,0.38,-0.142,-0.214,0.355,-0.028,-0.173,-0.213,-0.169,-0.173,-0.163
-0.045,0.327,0.372,-0.142,-0.208,0.349,-0.016,-0.158,-0.193,-0.148,-0.167,-0.15
-0.038,0.326,0.364,-0.145,-0.201,0.345,-0.006,-0.133,-0.173,-0.127,-0.158,-0.141
-0.034,0.321,0.355,-0.144,-0.194,0.337,0.01,-0.116,-0.159,-0.113,-0.147,-0.132
-0.001,0.322,0.323,-0.161,-0.162,0.322,-0.023,-0.108,-0.159,-0.115,-0.145,-0.134
0.032,0.306,0.274,-0.17,-0.121,0.29,-0.06,-0.089,-0.164,-0.115,-0.145,-0.135
0.01,0.254,0.243,-0.132,-0.117,0.248,-0.049,-0.106,-0.167,-0.118,-0.145,-0.135
-0.004,0.233,0.237,-0.115,-0.121,0.235,-0.038,-0.138,-0.172,-0.122,-0.145,-0.135
-0.023,0.209,0.232,-0.093,-0.128,0.22,-0.028,-0.143,-0.178,-0.117,-0.146,-0.135
-0.072,0.176,0.247,-0.052,-0.16,0.211,-0.025,-0.15,-0.195,-0.139,-0.168,-0.151
-0.071,0.171,0.242,-0.05,-0.156,0.206,-0.016,-0.16,-0.208,-0.145,-0.167,-0.156
-0.071,0.153,0.224,-0.041,-0.148,0.188,-0.015,-0.156,-0.216,-0.154,-0.168,-0.166
-0.094,0.154,0.247,-0.03,-0.171,0.2,-0.005,-0.148,-0.206,-0.153,-0.161,-0.162
-0.083,0.13,0.212,-0.024,-0.148,0.171,-0.006,-0.15,-0.202,-0.149,-0.165,-0.168
-0.117,0.137,0.254,-0.011,-0.186,0.196,0.003,-0.138,-0.193,-0.144,-0.155,-0.161
-0.075,0.09,0.165,-0.008,-0.12,0.127,0.025,-0.121,-0.191,-0.143,-0.175,-0.177
-0.071,0.042,0.114,0.014,-0.093,0.078,0.123,0.185,-0.107,-0.165,-0.236,-0.24
0.006,0.276,0.271,-0.141,-0.133,0.273,0.21,0.231,0.232,0.147,0.019,-0.032
0.334,0.706,0.373,-0.52,-0.02,0.539,-0.256,-0.765,0.303,0.541,0.497,0.492
0.506,1.032,0.525,-0.769,-0.01,0.778,-0.921,-1.636,0.304,0.98,0.99,0.999
0.393,0.666,0.272,-0.53,0.06,0.469,-0.903,-1.449,0.292,0.914,0.781,0.758
0.075,0.136,0.061,-0.106,0.007,0.098,-0.406,-0.792,-0.193,0.032,-0.014,0.038
-0.047,0.101,0.147,-0.028,-0.097,0.124,-0.104,-0.316,-0.246,-0.162,-0.146,-0.134
-0.027,0.096,0.123,-0.035,-0.075,0.109,-0.028,-0.118,-0.074,-0.044,-0.07,-0.093
-0.06,0.081,0.142,-0.011,-0.101,0.111,0.029,-0.048,-0.117,-0.113,-0.119,-0.114
-0.042,0.08,0.121,-0.019,-0.082,0.101,0.052,-0.03,-0.078,-0.068,-0.086,-0.092
-0.055,0.065,0.12,-0.005,-0.087,0.092,0.059,-0.008,-0.091,-0.103,-0.104,-0.101
-0.039,0.075,0.113,-0.018,-0.076,0.094,0.064,0.006,-0.07,-0.083,-0.086,-0.089
-0.044,0.065,0.109,-0.01,-0.077,0.087,0.078,0.025,-0.061,-0.088,-0.09,-0.09
-0.053,0.068,0.12,-0.008,-0.087,0.094,0.08,0.041,-0.051,-0.075,-0.084,-0.084
-0.055,0.063,0.118,-0.003,-0.087,0.09,0.074,0.055,-0.038,-0.063,-0.079,-0.082
-0.055,0.069,0.124,-0.008,-0.09,0.096,0.073,0.075,-0.035,-0.058,-0.074,-0.078
-0.042,0.083,0.125,-0.021,-0.084,0.104,0.066,0.079,-0.021,-0.044,-0.064,-0.074
-0.033,0.083,0.116,-0.026,-0.075,0.099,0.065,0.092,-0.017,-0.04,-0.061,-0.07
-0.011,0.103,0.114,-0.046,-0.062,0.108,0.059,0.096,-0.005,-0.028,-0.05,-0.062
-0.023,0.133,0.157,-0.055,-0.09,0.145,0.054,0.093,0.001,-0.021,-0.054,-0.056
-0.008,0.158,0.166,-0.075,-0.088,0.162,0.049,0.122,0.014,-0.009,-0.051,-0.05
0.022,0.18,0.158,-0.101,-0.068,0.168,0.042,0.145,0.03,0.0,-0.044,-0.041
0.026,0.182,0.156,-0.104,-0.066,0.169,0.038,0.176,0.062,0.028,-0.028,-0.027
0.046,0.196,0.151,-0.121,-0.053,0.173,0.03,0.217,0.087,0.05,0.002,-0.015
0.069,0.216,0.148,-0.143,-0.04,0.182,0.015,0.248,0.127,0.082,0.036,0.026
0.087,0.23,0.143,-0.159,-0.029,0.187,-0.01,0.296,0.175,0.129,0.072,0.076
0.126,0.265,0.14,-0.195,-0.007,0.203,-0.028,0.326,0.211,0.179,0.119,0.13
0.171,0.307,0.136,-0.239,0.017,0.222,-0.064,0.338,0.257,0.217,0.161,0.172
0.212,0.346,0.134,-0.279,0.039,0.24,-0.1,0.342,0.275,0.248,0.194,0.206
0.258,0.385,0.127,-0.321,0.065,0.256,-0.116,0.336,0.279,0.285,0.234,0.233
0.238,0.394,0.156,-0.316,0.041,0.274,-0.134,0.308,0.276,0.28,0.248,0.228
0.212,0.388,0.176,-0.3,0.018,0.282,-0.126,0.256,0.265,0.269,0.238,0.222
0.191,0.368,0.177,-0.279,0.007,0.272,-0.112,0.207,0.24,0.25,0.207,0.194
0.13,0.325,0.195,-0.228,-0.033,0.26,-0.087,0.157,0.182,0.195,0.144,0.138
0.102,0.29,0.188,-0.196,-0.043,0.239,-0.049,0.099,0.119,0.126,0.085,0.075
0.037,0.217,0.179,-0.127,-0.071,0.197,-0.024,0.034,0.044,0.061,0.021,0.015
-0.017,0.159,0.177,-0.071,-0.097,0.168,-0.008,-0.034,-0.031,0.001,-0.037,-0.039
-0.015,0.148,0.163,-0.067,-0.089,0.155,-0.003,-0.075,-0.081,-0.055,-0.073,-0.076
-0.045,0.132,0.177,-0.044,-0.111,0.154,0.002,-0.089,-0.111,-0.082,-0.092,-0.091
-0.061,0.122,0.183,-0.03,-0.122,0.152,0.009,-0.1,-0.11,-0.08,-0.089,-0.091
-0.053,0.105,0.158,-0.026,-0.106,0.131,0.013,-0.103,-0.11,-0.077,-0.09,-0.09
-0.062,0.088,0.151,-0.013,-0.107,0.119,0.022,-0.096,-0.107,-0.074,-0.09,-0.09
-0.067,0.079,0.146,-0.006,-0.107,0.112,0.041,-0.088,-0.104,-0.071,-0.09,-0.085
-0.067,0.073,0.139,-0.003,-0.103,0.106,0.047,-0.084,-0.106,-0.069,-0.088,-0.085
-0.07,0.065,0.135,0.002,-0.103,0.1,0.048,-0.067,-0.094,-0.066,-0.084,-0.084
-0.07,0.06,0.13,0.005,-0.1,0.095,0.052,-0.046,-0.08,-0.061,-0.082,-0.08
-0.078,0.051,0.129,0.013,-0.104,0.089,0.055,-0.044,-0.068,-0.059,-0.079,-0.078
-0.07,0.055,0.125,0.007,-0.097,0.09,0.054,-0.046,-0.064,-0.055,-0.076,-0.075
-0.049,0.074,0.123,-0.012,-0.087,0.098,0.047,-0.049,-0.066,-0.05,-0.075,-0.072
-0.042,0.076,0.118,-0.017,-0.081,0.097,0.043,-0.051,-0.077,-0.052,-0.083,-0.069
-0.042,0.082,0.124,-0.02,-0.083,0.103,0.036,-0.053,-0.083,-0.056,-0.09,-0.074
-0.048,0.09,0.137,-0.021,-0.093,0.113,0.031,-0.055,-0.086,-0.063,-0.09,-0.081
-0.055,0.089,0.144,-0.018,-0.099,0.116,0.026,-0.064,-0.104,-0.078,-0.092,-0.087
-0.06,0.091,0.151,-0.016,-0.105,0.121,0.02,-0.075,-0.112,-0.08,-0.096,-0.09
-0.065,0.089,0.154,-0.012,-0.109,0.121,0.015,-0.082,-0.108,-0.08,-0.094,-0.092
-0.064,0.093,0.157,-0.015,-0.111,0.125,0.009,-0.088,-0.119,-0.1,-0.104,-0.096
-0.051,0.108,0.158,-0.028,-0.105,0.133,0.003,-0.084,-0.126,-0.109,-0.113,-0.092
-0.051,0.112,0.164,-0.031,-0.108,0.138,0.001,-0.082,-0.12,-0.102,-0.108,-0.086
-0.049,0.117,0.166,-0.034,-0.108,0.141,0.01,-0.078,-0.115,-0.098,-0.103,-0.082
-0.036,0.16,0.195,-0.062,-0.116,0.177,0.02,-0.075,-0.109,-0.093,-0.099,-0.078
-0.017,0.214,0.231,-0.099,-0.125,0.223,0.031,-0.075,-0.104,-0.089,-0.094,-0.072
0.018,0.227,0.209,-0.122,-0.096,0.217,0.02,-0.07,-0.098,-0.084,-0.09,-0.071
0.052,0.224,0.173,-0.138,-0.061,0.198,-0.036,-0.071,-0.093,-0.086,-0.095,-0.076
0.053,0.209,0.156,-0.131,-0.052,0.183,-0.062,-0.067,-0.084,-0.084,-0.099,-0.075
0.016,0.162,0.146,-0.089,-0.065,0.154,-0.049,-0.083,-0.101,-0.09,-0.103,-0.074
0.006,0.155,0.149,-0.08,-0.072,0.151,-0.04,-0.11,-0.134,-0.113,-0.109,-0.081
-0.012,0.131,0.143,-0.06,-0.078,0.136,-0.011,-0.115,-0.139,-0.12,-0.115,-0.093
-0.06,0.08,0.14,-0.01,-0.1,0.11,0.002,-0.126,-0.16,-0.136,-0.131,-0.108
-0.071,0.072,0.143,0.0,-0.107,0.107,-0.005,-0.137,-0.17,-0.146,-0.133,-0.115
-0.079,0.06,0.139,0.009,-0.11,0.1,-0.01,-0.135,-0.179,-0.161,-0.154,-0.125
-0.078,0.083,0.16,-0.003,-0.119,0.121,-0.015,-0.127,-0.172,-0.15,-0.148,-0.114
-0.056,0.079,0.135,-0.012,-0.096,0.107,-0.022,-0.127,-0.176,-0.159,-0.162,-0.126
-0.076,0.094,0.17,-0.009,-0.124,0.132,-0.023,-0.119,-0.175,-0.152,-0.147,-0.112
-0.068,0.06,0.129,0.004,-0.099,0.094,0.005,-0.091,-0.173,-0.168,-0.176,-0.151
-0.091,0.037,0.128,0.026,-0.109,0.082,0.113,0.215,-0.068,-0.17,-0.214,-0.207
0.022,0.298,0.276,-0.161,-0.127,0.287,0.17,0.292,0.335,0.209,0.093,0.052
0.312,0.765,0.452,-0.539,-0.07,0.608,-0.261,-0.618,0.409,0.61,0.567,0.567
0.484,1.072,0.587,-0.778,-0.052,0.829,-0.911,-1.428,0.419,1.075,1.028,1.016
0.372,0.652,0.28,-0.512,0.046,0.466,-0.887,-1.308,0.307,0.87,0.695,0.669
0.044,0.16,0.116,-0.102,-0.036,0.138,-0.399,-0.767,-0.271,-0.099,-0.096,-0.034
-0.038,0.156,0.195,-0.059,-0.117,0.175,-0.157,-0.318,-0.249,-0.208,-0.167,-0.13
-0.02,0.167,0.187,-0.073,-0.104,0.177,-0.074,-0.14,-0.096,-0.093,-0.13,-0.105
-0.054,0.175,0.229,-0.061,-0.142,0.202,-0.029,-0.08,-0.137,-0.159,-0.158,-0.124
-0.044,0.177,0.221,-0.067,-0.133,0.198,-0.03,-0.058,-0.089,-0.117,-0.128,-0.107
-0.07,0.171,0.24,-0.051,-0.156,0.205,-0.021,-0.038,-0.117,-0.149,-0.15,-0.121
-0.054,0.19,0.244,-0.068,-0.149,0.216,-0.021,-0.027,-0.093,-0.123,-0.132,-0.107
-0.037,0.209,0.247,-0.086,-0.142,0.228,-0.018,-0.025,-0.1,-0.134,-0.139,-0.109
-0.033,0.232,0.265,-0.1,-0.149,0.248,-0.012,-0.018,-0.093,-0.129,-0.133,-0.1
-0.034,0.249,0.283,-0.108,-0.159,0.266,-0.027,-0.016,-0.086,-0.122,-0.133,-0.098
-0.028,0.258,0.287,-0.115,-0.158,0.272,-0.051,-0.01,-0.083,-0.117,-0.13,-0.093
-0.025,0.259,0.284,-0.118,-0.154,0.271,-0.051,-0.005,-0.071,-0.104,-0.13,-0.088
-0.007,0.276,0.283,-0.135,-0.145,0.28,-0.056,0.005,-0.071,-0.101,-0.126,-0.086
0.006,0.283,0.276,-0.145,-0.135,0.279,-0.054,0.015,-0.052,-0.091,-0.116,-0.085
0.009,0.309,0.3,-0.16,-0.145,0.304,-0.056,0.025,-0.033,-0.083,-0.11,-0.083
0.01,0.327,0.317,-0.168,-0.154,0.322,-0.067,0.042,-0.013,-0.072,-0.1,-0.079
0.012,0.334,0.322,-0.174,-0.155,0.328,-0.073,0.071,-0.004,-0.062,-0.094,-0.081
0.041,0.368,0.327,-0.205,-0.143,0.347,-0.087,0.095,0.021,-0.044,-0.079,-0.07
0.053,0.38,0.328,-0.216,-0.138,0.354,-0.091,0.126,0.056,-0.02,-0.058,-0.046
0.08,0.412,0.332,-0.246,-0.127,0.372,-0.111,0.16,0.082,0.007,-0.032,-0.015
0.117,0.452,0.334,-0.285,-0.109,0.393,-0.137,0.189,0.117,0.042,-0.005,0.02
0.158,0.493,0.334,-0.326,-0.088,0.413,-0.17,0.214,0.154,0.084,0.028,0.055
0.197,0.544,0.347,-0.37,-0.076,0.445,-0.2,0.221,0.187,0.123,0.071,0.097
0.226,0.577,0.351,-0.402,-0.063,0.464,-0.225,0.209,0.198,0.155,0.105,0.133
0.252,0.601,0.349,-0.427,-0.049,0.475,-0.255,0.194,0.193,0.167,0.121,0.158
0.247,0.596,0.349,-0.421,-0.052,0.472,-0.247,0.184,0.192,0.175,0.128,0.174
0.227,0.581,0.354,-0.404,-0.064,0.467,-0.239,0.156,0.187,0.164,0.114,0.151
0.182,0.554,0.372,-0.368,-0.095,0.462,-0.219,0.11,0.166,0.127,0.088,0.113
0.123,0.491,0.368,-0.307,-0.123,0.43,-0.166,0.056,0.106,0.077,0.03,0.05
0.064,0.434,0.371,-0.249,-0.154,0.402,-0.131,0.004,0.035,0.008,-0.045,-0.023
0.009,0.394,0.385,-0.202,-0.188,0.39,-0.099,-0.052,-0.028,-0.053,-0.092,-0.067
-0.02,0.356,0.376,-0.169,-0.198,0.366,-0.073,-0.102,-0.086,-0.103,-0.131,-0.107
-0.045,0.319,0.365,-0.137,-0.205,0.342,-0.064,-0.128,-0.129,-0.138,-0.151,-0.125
-0.076,0.283,0.359,-0.104,-0.218,0.321,-0.056,-0.152,-0.15,-0.152,-0.164,-0.135
-0.079,0.263,0.342,-0.093,-0.211,0.303,-0.048,-0.155,-0.158,-0.151,-0.171,-0.138
-0.049,0.264,0.313,-0.108,-0.182,0.288,-0.041,-0.146,-0.161,-0.147,-0.164,-0.133
-0.049,0.265,0.315,-0.108,-0.182,0.289,-0.044,-0.143,-0.159,-0.145,-0.162,-0.131
-0.068,0.264,0.333,-0.098,-0.201,0.298,-0.045,-0.135,-0.161,-0.141,-0.158,-0.128
-0.06,0.265,0.326,-0.103,-0.193,0.295,-0.045,-0.132,-0.148,-0.14,-0.155,-0.125
-0.061,0.264,0.326,-0.102,-0.194,0.295,-0.045,-0.126,-0.13,-0.143,-0.149,-0.126
-0.051,0.267,0.318,-0.108,-0.185,0.293,-0.044,-0.125,-0.13,-0.147,-0.154,-0.132
-0.051,0.271,0.322,-0.11,-0.186,0.296,-0.046,-0.125,-0.129,-0.15,-0.168,-0.135
-0.078,0.269,0.346,-0.096,-0.212,0.307,-0.043,-0.125,-0.131,-0.153,-0.17,-0.14
-0.073,0.279,0.352,-0.103,-0.213,0.315,-0.058,-0.125,-0.136,-0.156,-0.173,-0.139
-0.056,0.292,0.348,-0.118,-0.202,0.319,-0.076,-0.126,-0.142,-0.162,-0.176,-0.144
-0.044,0.306,0.35,-0.131,-0.198,0.328,-0.074,-0.139,-0.161,-0.169,-0.178,-0.154
-0.049,0.321,0.369,-0.136,-0.209,0.345,-0.075,-0.148,-0.173,-0.176,-0.183,-0.158
-0.059,0.319,0.378,-0.131,-0.218,0.348,-0.075,-0.153,-0.175,-0.181,-0.192,-0.17
-0.051,0.321,0.372,-0.136,-0.212,0.346,-0.074,-0.158,-0.186,-0.186,-0.196,-0.17
-0.047,0.325,0.372,-0.139,-0.21,0.348,-0.076,-0.161,-0.189,-0.191,-0.199,-0.17
-0.043,0.325,0.368,-0.141,-0.207,0.346,-0.074,-0.17,-0.192,-0.194,-0.203,-0.17
-0.047,0.323,0.369,-0.138,-0.208,0.346,-0.076,-0.172,-0.204,-0.199,-0.205,-0.17
-0.07,0.316,0.386,-0.123,-0.228,0.35,-0.074,-0.169,-0.206,-0.2,-0.205,-0.169
-0.077,0.309,0.386,-0.116,-0.232,0.347,-0.075,-0.17,-0.204,-0.199,-0.205,-0.165
-0.073,0.303,0.376,-0.115,-0.225,0.339,-0.075,-0.165,-0.201,-0.201,-0.205,-0.165
-0.076,0.295,0.371,-0.11,-0.224,0.333,-0.07,-0.165,-0.2,-0.2,-0.2,-0.165
-0.075,0.29,0.365,-0.108,-0.22,0.327,-0.071,-0.164,-0.199,-0.212,-0.2,-0.165
-0.082,0.29,0.372,-0.104,-0.227,0.331,-0.067,-0.158,-0.192,-0.23,-0.199,-0.165
-0.074,0.289,0.364,-0.108,-0.219,0.326,-0.067,-0.152,-0.188,-0.227,-0.201,-0.168
-0.068,0.291,0.359,-0.112,-0.213,0.324,-0.062,-0.147,-0.182,-0.222,-0.198,-0.171
-0.061,0.288,0.349,-0.113,-0.205,0.318,-0.071,-0.141,-0.176,-0.218,-0.204,-0.169
-0.05,0.296,0.347,-0.123,-0.199,0.321,-0.081,-0.135,-0.172,-0.214,-0.211,-0.163
-0.057,0.33,0.387,-0.137,-0.222,0.358,-0.078,-0.143,-0.165,-0.198,-0.191,-0.155
-0.051,0.356,0.407,-0.153,-0.229,0.381,-0.061,-0.146,-0.156,-0.178,-0.189,-0.15
-0.046,0.358,0.405,-0.156,-0.226,0.381,-0.049,-0.144,-0.148,-0.167,-0.191,-0.142
-0.008,0.364,0.372,-0.178,-0.19,0.367,-0.107,-0.148,-0.138,-0.154,-0.192,-0.143
0.019,0.332,0.313,-0.176,-0.147,0.322,-0.109,-0.151,-0.133,-0.156,-0.198,-0.146
0.001,0.29,0.289,-0.146,-0.144,0.289,-0.076,-0.148,-0.145,-0.16,-0.198,-0.148
-0.032,0.287,0.319,-0.128,-0.176,0.303,-0.081,-0.153,-0.171,-0.172,-0.206,-0.153
-0.084,0.246,0.33,-0.081,-0.207,0.287,-0.071,-0.174,-0.187,-0.189,-0.202,-0.152
-0.111,0.218,0.33,-0.053,-0.221,0.274,-0.074,-0.185,-0.213,-0.212,-0.218,-0.162
-0.124,0.229,0.353,-0.053,-0.239,0.291,-0.063,-0.188,-0.227,-0.218,-0.231,-0.161
-0.122,0.21,0.332,-0.045,-0.227,0.271,-0.07,-0.193,-0.232,-0.22,-0.234,-0.177
-0.126,0.218,0.344,-0.046,-0.235,0.281,-0.083,-0.182,-0.225,-0.216,-0.222,-0.174
-0.112,0.196,0.309,-0.042,-0.211,0.252,-0.079,-0.186,-0.221,-0.207,-0.221,-0.169
-0.131,0.186,0.317,-0.028,-0.224,0.252,-0.066,-0.177,-0.224,-0.215,-0.213,-0.156
-0.124,0.142,0.267,-0.009,-0.196,0.204,-0.031,-0.143,-0.192,-0.194,-0.213,-0.163
-0.118,0.109,0.227,0.004,-0.173,0.168,0.05,0.111,-0.137,-0.244,-0.298,-0.259
-0.043,0.34,0.383,-0.149,-0.213,0.362,0.154,0.328,0.193,0.047,-0.077,-0.083
0.22,0.736,0.516,-0.479,-0.148,0.626,-0.152,-0.397,0.323,0.472,0.383,0.388
0.421,1.112,0.691,-0.767,-0.135,0.901,-0.86,-1.328,0.36,0.978,0.909,0.911
0.415,0.873,0.458,-0.644,-0.022,0.666,-1.051,-1.374,0.472,1.153,0.868,0.809
0.105,0.311,0.206,-0.209,-0.051,0.259,-0.57,-0.903,-0.119,0.14,0.016,0.063
-0.048,0.218,0.265,-0.085,-0.157,0.241,-0.217,-0.42,-0.344,-0.29,-0.27,-0.187
-0.029,0.228,0.258,-0.1,-0.144,0.243,-0.114,-0.173,-0.126,-0.096,-0.176,-0.131
-0.089,0.211,0.3,-0.062,-0.195,0.256,-0.041,-0.092,-0.159,-0.179,-0.219,-0.156
-0.071,0.216,0.287,-0.073,-0.179,0.252,-0.033,-0.058,-0.115,-0.124,-0.18,-0.13
-0.083,0.201,0.284,-0.059,-0.184,0.242,-0.029,-0.044,-0.132,-0.149,-0.194,-0.137
-0.067,0.213,0.28,-0.073,-0.173,0.246,-0.03,-0.031,-0.121,-0.133,-0.175,-0.127
-0.06,0.208,0.268,-0.075,-0.164,0.238,-0.031,-0.023,-0.117,-0.13,-0.173,-0.131
-0.056,0.211,0.266,-0.078,-0.161,0.238,-0.029,-0.012,-0.108,-0.129,-0.167,-0.13
-0.052,0.207,0.259,-0.078,-0.156,0.233,-0.032,-0.002,-0.078,-0.11,-0.157,-0.129
-0.072,0.201,0.274,-0.065,-0.173,0.237,-0.034,0.003,-0.077,-0.113,-0.155,-0.131
-0.049,0.221,0.27,-0.086,-0.16,0.245,-0.036,0.013,-0.059,-0.093,-0.145,-0.128
-0.042,0.227,0.269,-0.093,-0.155,0.248,-0.034,0.04,-0.055,-0.091,-0.143,-0.125
-0.036,0.236,0.272,-0.1,-0.154,0.254,-0.036,0.049,-0.041,-0.076,-0.133,-0.118
-0.01,0.257,0.267,-0.123,-0.139,0.261,-0.034,0.057,-0.033,-0.071,-0.128,-0.113
-0.005,0.278,0.283,-0.137,-0.144,0.28,-0.041,0.067,-0.021,-0.065,-0.12,-0.107
-0.001,0.31,0.312,-0.155,-0.157,0.311,-0.053,0.081,-0.006,-0.048,-0.115,-0.101
0.021,0.336,0.315,-0.179,-0.147,0.325,-0.076,0.105,0.006,-0.027,-0.106,-0.084
0.025,0.362,0.337,-0.194,-0.156,0.349,-0.094,0.125,0.032,-0.008,-0.091,-0.069
0.037,0.386,0.349,-0.212,-0.156,0.367,-0.1,0.161,0.064,0.019,-0.073,-0.044
0.081,0.423,0.342,-0.252,-0.131,0.382,-0.12,0.187,0.095,0.041,-0.041,-0.006
0.111,0.459,0.347,-0.285,-0.118,0.403,-0.148,0.213,0.131,0.073,0.003,0.035
0.156,0.499,0.343,-0.328,-0.094,0.421,-0.17,0.231,0.169,0.124,0.049,0.077
0.187,0.533,0.346,-0.36,-0.08,0.439,-0.202,0.228,0.185,0.155,0.085,0.11
0.205,0.562,0.358,-0.384,-0.077,0.46,-0.237,0.222,0.189,0.174,0.109,0.139
0.229,0.6,0.372,-0.414,-0.072,0.486,-0.251,0.192,0.181,0.18,0.119,0.148
0.214,0.6,0.386,-0.407,-0.087,0.493,-0.257,0.156,0.17,0.169,0.104,0.146
0.198,0.581,0.384,-0.39,-0.093,0.482,-0.242,0.128,0.159,0.162,0.094,0.127
0.141,0.544,0.402,-0.343,-0.131,0.473,-0.206,0.082,0.116,0.133,0.06,0.073
0.057,0.478,0.42,-0.268,-0.182,0.449,-0.165,0.035,0.06,0.069,-0.008,0.009
0.01,0.416,0.406,-0.214,-0.198,0.411,-0.127,-0.013,-0.01,0.004,-0.062,-0.051
-0.025,0.374,0.398,-0.175,-0.212,0.386,-0.098,-0.068,-0.08,-0.058,-0.122,-0.107
-0.059,0.327,0.386,-0.134,-0.223,0.356,-0.082,-0.103,-0.119,-0.099,-0.161,-0.14
-0.078,0.291,0.37,-0.107,-0.224,0.33,-0.071,-0.124,-0.152,-0.106,-0.161,-0.142
-0.082,0.273,0.354,-0.096,-0.218,0.313,-0.06,-0.134,-0.16,-0.105,-0.16,-0.14
-0.084,0.253,0.337,-0.085,-0.21,0.295,-0.05,-0.125,-0.151,-0.102,-0.157,-0.14
-0.081,0.238,0.319,-0.079,-0.2,0.278,-0.04,-0.119,-0.148,-0.099,-0.154,-0.14
-0.083,0.225,0.308,-0.071,-0.196,0.266,-0.03,-0.112,-0.141,-0.096,-0.151,-0.14
-0.083,0.219,0.302,-0.068,-0.193,0.26,-0.024,-0.099,-0.136,-0.094,-0.149,-0.139
-0.069,0.212,0.281,-0.072,-0.176,0.247,-0.025,-0.088,-0.131,-0.091,-0.146,-0.136
-0.066,0.206,0.272,-0.07,-0.169,0.239,-0.022,-0.072,-0.126,-0.088,-0.145,-0.131
-0.07,0.199,0.269,-0.064,-0.17,0.234,-0.019,-0.057,-0.121,-0.086,-0.144,-0.129
-0.07,0.185,0.256,-0.058,-0.163,0.221,-0.02,-0.055,-0.118,-0.082,-0.14,-0.124
-0.074,0.171,0.245,-0.048,-0.16,0.207,-0.02,-0.055,-0.112,-0.079,-0.14,-0.12
-0.075,0.161,0.236,-0.044,-0.156,0.198,-0.02,-0.052,-0.11,-0.083,-0.142,-0.122
-0.074,0.159,0.232,-0.043,-0.153,0.195,-0.02,-0.049,-0.11,-0.085,-0.145,-0.126
-0.073,0.156,0.229,-0.042,-0.152,0.192,-0.02,-0.052,-0.116,-0.085,-0.148,-0.128
-0.073,0.153,0.225,-0.041,-0.149,0.189,-0.02,-0.065,-0.134,-0.091,-0.151,-0.131
-0.071,0.15,0.221,-0.04,-0.146,0.186,-0.018,-0.065,-0.139,-0.098,-0.154,-0.135
-0.07,0.148,0.218,-0.039,-0.144,0.183,-0.015,-0.065,-0.146,-0.1,-0.155,-0.135
-0.075,0.138,0.213,-0.032,-0.144,0.175,-0.012,-0.065,-0.156,-0.1,-0.15,-0.131
-0.081,0.125,0.206,-0.022,-0.144,0.165,-0.01,-0.065,-0.154,-0.1,-0.146,-0.128
-0.084,0.115,0.199,-0.016,-0.142,0.157,-0.006,-0.064,-0.155,-0.1,-0.143,-0.125
-0.075,0.106,0.181,-0.016,-0.128,0.143,-0.004,-0.059,-0.155,-0.1,-0.139,-0.122
-0.08,0.097,0.177,-0.009,-0.129,0.137,-0.009,-0.06,-0.155,-0.099,-0.136,-0.12
-0.084,0.089,0.173,-0.003,-0.129,0.131,-0.01,-0.057,-0.151,-0.096,-0.132,-0.117
-0.075,0.082,0.158,-0.004,-0.117,0.12,-0.01,-0.055,-0.15,-0.093,-0.129,-0.115
-0.086,0.076,0.161,0.005,-0.124,0.118,-0.01,-0.055,-0.15,-0.09,-0.13,-0.115
-0.096,0.069,0.165,0.013,-0.131,0.117,-0.01,-0.059,-0.145,-0.087,-0.13,-0.111
-0.096,0.062,0.159,0.017,-0.128,0.11,-0.01,-0.065,-0.145,-0.085,-0.13,-0.109
-0.098,0.056,0.154,0.021,-0.126,0.105,-0.01,-0.065,-0.145,-0.085,-0.13,-0.11
-0.097,0.051,0.148,0.023,-0.123,0.1,-0.01,-0.065,-0.145,-0.085,-0.125,-0.11
-0.094,0.049,0.143,0.022,-0.118,0.095,-0.01,-0.065,-0.145,-0.085,-0.125,-0.11
-0.092,0.046,0.137,0.023,-0.115,0.091,-0.01,-0.065,-0.145,-0.085,-0.124,-0.11
-0.089,0.043,0.132,0.022,-0.111,0.088,-0.01,-0.065,-0.145,-0.085,-0.12,-0.11
-0.088,0.04,0.128,0.024,-0.108,0.084,-0.006,-0.061,-0.145,-0.086,-0.12,-0.11
-0.081,0.041,0.121,0.02,-0.101,0.081,-0.005,-0.06,-0.148,-0.089,-0.12,-0.112
-0.071,0.049,0.12,0.011,-0.095,0.084,-0.005,-0.06,-0.151,-0.092,-0.12,-0.116
-0.062,0.05,0.112,0.006,-0.087,0.081,-0.005,-0.06,-0.154,-0.094,-0.12,-0.119
-0.062,0.05,0.112,0.006,-0.087,0.081,-0.005,-0.06,-0.157,-0.099,-0.119,-0.122
-0.078,0.049,0.128,0.014,-0.103,0.089,-0.006,-0.061,-0.159,-0.098,-0.12,-0.126
-0.078,0.06,0.138,0.009,-0.108,0.098,-0.015,-0.066,-0.162,-0.11,-0.128,-0.129
-0.087,0.085,0.173,0.001,-0.13,0.129,-0.023,-0.075,-0.165,-0.126,-0.131,-0.131
-0.103,0.09,0.193,0.006,-0.148,0.141,-0.023,-0.077,-0.165,-0.118,-0.138,-0.135
-0.092,0.09,0.183,0.001,-0.138,0.136,-0.017,-0.071,-0.165,-0.114,-0.139,-0.133
-0.093,0.089,0.182,0.002,-0.137,0.135,-0.028,-0.067,-0.165,-0.109,-0.13,-0.128
-0.085,0.09,0.176,-0.003,-0.13,0.133,-0.043,-0.062,-0.165,-0.101,-0.125,-0.125
-0.082,0.089,0.17,-0.004,-0.126,0.129,-0.032,-0.057,-0.158,-0.105,-0.117,-0.122
-0.083,0.095,0.178,-0.006,-0.131,0.137,-0.022,-0.053,-0.143,-0.093,-0.112,-0.117
-0.06,0.149,0.208,-0.045,-0.134,0.178,-0.011,-0.047,-0.131,-0.076,-0.106,-0.115
-0.067,0.166,0.233,-0.05,-0.15,0.199,0.016,-0.037,-0.13,-0.073,-0.099,-0.119
-0.047,0.166,0.214,-0.06,-0.131,0.19,-0.017,-0.03,-0.133,-0.07,-0.094,-0.122
0.002,0.165,0.162,-0.084,-0.08,0.163,-0.07,-0.02,-0.137,-0.078,-0.08,-0.126
0.001,0.132,0.131,-0.066,-0.065,0.131,-0.051,-0.012,-0.14,-0.083,-0.087,-0.124
-0.016,0.114,0.13,-0.049,-0.073,0.122,-0.04,-0.042,-0.143,-0.089,-0.113,-0.129
-0.028,0.101,0.129,-0.036,-0.079,0.114,-0.039,-0.059,-0.147,-0.097,-0.108,-0.13
-0.067,0.071,0.138,-0.002,-0.103,0.104,-0.035,-0.064,-0.154,-0.1,-0.113,-0.13
-0.116,0.048,0.164,0.034,-0.14,0.106,-0.034,-0.081,-0.181,-0.129,-0.14,-0.14
-0.117,0.055,0.172,0.03,-0.145,0.113,-0.028,-0.088,-0.189,-0.137,-0.145,-0.154
-0.116,0.059,0.176,0.028,-0.146,0.117,-0.031,-0.077,-0.192,-0.154,-0.148,-0.164
-0.112,0.056,0.168,0.028,-0.14,0.112,-0.018,-0.081,-0.187,-0.146,-0.14,-0.152
-0.1,0.04,0.14,0.03,-0.12,0.09,-0.025,-0.07,-0.185,-0.155,-0.151,-0.15
-0.134,0.043,0.176,0.045,-0.156,0.109,-0.007,-0.076,-0.186,-0.155,-0.137,-0.137
-0.104,0.001,0.105,0.051,-0.105,0.053,0.009,0.013,-0.176,-0.153,-0.18,-0.181
-0.106,0.02,0.126,0.042,-0.116,0.073,0.149,0.374,-0.013,-0.108,-0.183,-0.201
0.058,0.308,0.25,-0.184,-0.096,0.279,0.094,0.034,0.25,0.257,0.142,0.08
0.403,0.786,0.383,-0.594,0.01,0.584,-0.608,-1.127,0.17,0.652,0.646,0.64
0.498,0.97,0.472,-0.734,0.013,0.721,-1.132,-1.667,0.27,1.104,1.049,1.024
0.331,0.459,0.128,-0.395,0.102,0.293,-0.886,-1.24,0.206,0.763,0.591,0.555
0.029,0.042,0.013,-0.036,0.008,0.027,-0.377,-0.56,-0.272,-0.108,-0.121,-0.083
-0.085,0.06,0.145,0.012,-0.115,0.103,-0.12,-0.17,-0.189,-0.086,-0.123,-0.125
-0.081,0.046,0.127,0.017,-0.104,0.086,-0.047,-0.023,-0.095,-0.032,-0.106,-0.115
-0.103,0.046,0.149,0.029,-0.126,0.097,-0.009,0.03,-0.123,-0.074,-0.118,-0.124
-0.093,0.042,0.135,0.025,-0.114,0.088,-0.01,0.049,-0.077,-0.03,-0.093,-0.108
-0.104,0.037,0.142,0.033,-0.123,0.09,0.002,0.081,-0.099,-0.062,-0.107,-0.121
-0.098,0.043,0.141,0.028,-0.119,0.092,0.003,0.088,-0.066,-0.032,-0.085,-0.106
-0.098,0.037,0.136,0.03,-0.117,0.086,0.018,0.102,-0.068,-0.047,-0.091,-0.108
-0.091,0.042,0.133,0.024,-0.112,0.087,0.032,0.122,-0.045,-0.023,-0.076,-0.098
-0.083,0.039,0.121,0.022,-0.102,0.08,0.029,0.137,-0.038,-0.019,-0.074,-0.095
-0.079,0.041,0.12,0.019,-0.1,0.08,0.031,0.151,-0.03,-0.008,-0.065,-0.088
-0.065,0.044,0.109,0.01,-0.087,0.076,0.026,0.16,-0.018,0.003,-0.059,-0.084
-0.051,0.056,0.107,-0.003,-0.08,0.082,0.025,0.167,-0.013,0.007,-0.053,-0.078
-0.056,0.059,0.115,-0.002,-0.085,0.087,0.025,0.184,0.005,0.02,-0.045,-0.07
-0.047,0.067,0.115,-0.01,-0.081,0.091,0.019,0.21,0.015,0.022,-0.04,-0.064
-0.031,0.08,0.111,-0.024,-0.071,0.095,0.013,0.23,0.029,0.034,-0.031,-0.058
-0.022,0.086,0.108,-0.032,-0.066,0.097,0.009,0.258,0.053,0.056,-0.013,-0.043
-0.011,0.094,0.105,-0.042,-0.058,0.099,0.002,0.288,0.08,0.084,0.012,-0.012
0.004,0.107,0.103,-0.056,-0.05,0.105,-0.001,0.322,0.112,0.111,0.033,0.014
0.023,0.122,0.099,-0.073,-0.039,0.111,-0.011,0.367,0.149,0.148,0.071,0.042
0.039,0.135,0.096,-0.088,-0.028,0.115,-0.033,0.401,0.188,0.191,0.11,0.077
0.086,0.178,0.093,-0.132,-0.004,0.135,-0.052,0.426,0.222,0.227,0.151,0.12
0.13,0.219,0.089,-0.175,0.02,0.153,-0.082,0.425,0.255,0.273,0.203,0.173
0.164,0.247,0.084,-0.206,0.04,0.165,-0.115,0.412,0.269,0.314,0.237,0.209
0.179,0.273,0.094,-0.227,0.043,0.183,-0.142,0.407,0.263,0.34,0.271,0.24
0.173,0.27,0.097,-0.222,0.038,0.183,-0.155,0.389,0.261,0.355,0.29,0.26
0.182,0.266,0.084,-0.224,0.049,0.175,-0.156,0.35,0.254,0.356,0.278,0.252
0.158,0.231,0.073,-0.195,0.042,0.152,-0.145,0.31,0.253,0.351,0.273,0.243
0.105,0.157,0.052,-0.131,0.026,0.104,-0.105,0.27,0.224,0.31,0.235,0.198
0.053,0.086,0.033,-0.07,0.009,0.06,-0.06,0.216,0.159,0.246,0.166,0.123
0.003,0.009,0.006,-0.006,-0.002,0.008,-0.022,0.159,0.092,0.179,0.108,0.061
-0.033,-0.06,-0.027,0.047,-0.003,-0.044,0.004,0.111,0.031,0.12,0.057,0.012
-0.065,-0.1,-0.035,0.083,-0.014,-0.068,0.016,0.075,-0.011,0.081,0.023,-0.017
-0.083,-0.12,-0.037,0.102,-0.023,-0.078,0.022,0.058,-0.047,0.059,0.007,-0.046
-0.085,-0.125,-0.04,0.105,-0.022,-0.082,0.027,0.06,-0.058,0.047,0.002,-0.059
-0.084,-0.128,-0.043,0.106,-0.02,-0.085,0.033,0.06,-0.05,0.042,-0.001,-0.056
-0.087,-0.132,-0.045,0.11,-0.021,-0.088,0.035,0.06,-0.047,0.046,-0.004,-0.054
-0.085,-0.134,-0.049,0.109,-0.017,-0.091,0.035,0.06,-0.042,0.044,-0.009,-0.051
-0.088,-0.143,-0.055,0.116,-0.016,-0.099,0.035,0.06,-0.038,0.045,-0.009,-0.049
-0.099,-0.154,-0.055,0.127,-0.022,-0.104,0.043,0.075,-0.033,0.057,-0.005,-0.045
-0.1,-0.155,-0.055,0.128,-0.022,-0.105,0.05,0.085,-0.03,0.055,-0.005,-0.045
-0.1,-0.155,-0.055,0.128,-0.022,-0.105,0.052,0.09,-0.03,0.047,-0.005,-0.044
-0.1,-0.155,-0.055,0.128,-0.022,-0.105,0.055,0.095,-0.03,0.04,-0.005,-0.052
-0.101,-0.155,-0.054,0.129,-0.023,-0.105,0.057,0.097,-0.03,0.032,-0.005,-0.061
-0.091,-0.154,-0.063,0.123,-0.013,-0.109,0.061,0.101,-0.03,0.026,-0.009,-0.06
-0.086,-0.172,-0.086,0.129,0.0,-0.128,0.058,0.105,-0.034,0.02,-0.01,-0.06
-0.091,-0.189,-0.098,0.14,0.004,-0.143,0.052,0.102,-0.039,0.016,-0.01,-0.06
-0.089,-0.189,-0.101,0.139,0.006,-0.145,0.047,0.094,-0.042,0.013,-0.015,-0.06
-0.09,-0.19,-0.1,0.14,0.005,-0.145,0.044,0.086,-0.047,0.009,-0.015,-0.06
-0.094,-0.193,-0.1,0.143,0.003,-0.146,0.038,0.078,-0.054,0.005,-0.015,-0.06
-0.095,-0.196,-0.101,0.145,0.004,-0.148,0.035,0.071,-0.066,0.007,-0.015,-0.06
-0.096,-0.193,-0.098,0.145,0.001,-0.145,0.034,0.07,-0.07,0.011,-0.015,-0.06
-0.086,-0.203,-0.117,0.145,0.016,-0.16,0.039,0.07,-0.07,0.009,-0.015,-0.06
-0.076,-0.217,-0.141,0.147,0.033,-0.179,0.05,0.07,-0.07,0.01,-0.015,-0.061
-0.063,-0.213,-0.15,0.139,0.044,-0.181,0.05,0.07,-0.07,0.01,-0.015,-0.065
-0.075,-0.222,-0.146,0.148,0.036,-0.184,0.05,0.069,-0.07,0.01,-0.012,-0.065
-0.1,-0.246,-0.147,0.173,0.024,-0.196,0.05,0.073,-0.066,0.02,-0.007,-0.065
-0.087,-0.257,-0.17,0.172,0.042,-0.213,0.049,0.075,-0.065,0.026,-0.004,-0.065
-0.087,-0.265,-0.178,0.177,0.046,-0.221,0.051,0.075,-0.065,0.028,0.0,-0.065
-0.096,-0.267,-0.171,0.182,0.038,-0.219,0.048,0.075,-0.06,0.031,0.003,-0.061
-0.094,-0.276,-0.181,0.185,0.044,-0.228,0.059,0.075,-0.06,0.034,0.007,-0.054
-0.088,-0.298,-0.21,0.194,0.061,-0.254,0.066,0.08,-0.06,0.036,0.01,-0.048
-0.089,-0.307,-0.218,0.199,0.065,-0.262,0.065,0.08,-0.06,0.039,0.01,-0.041
-0.103,-0.314,-0.211,0.209,0.054,-0.262,0.062,0.082,-0.06,0.04,0.01,-0.034
-0.089,-0.32,-0.231,0.204,0.071,-0.275,0.06,0.085,-0.06,0.041,0.01,-0.029
-0.079,-0.322,-0.242,0.2,0.082,-0.282,0.06,0.085,-0.06,0.045,0.01,-0.024
-0.089,-0.326,-0.238,0.207,0.075,-0.282,0.056,0.085,-0.06,0.046,0.013,-0.021
-0.086,-0.328,-0.242,0.207,0.078,-0.285,0.074,0.086,-0.056,0.042,0.016,-0.018
-0.097,-0.333,-0.236,0.215,0.069,-0.284,0.08,0.089,-0.05,0.04,0.019,-0.013
-0.099,-0.342,-0.243,0.221,0.072,-0.292,0.07,0.086,-0.045,0.04,0.022,-0.01
-0.08,-0.341,-0.261,0.211,0.09,-0.301,0.07,0.085,-0.039,0.037,0.025,-0.006
-0.088,-0.339,-0.252,0.214,0.082,-0.295,0.062,0.085,-0.033,0.034,0.024,-0.005
-0.094,-0.34,-0.246,0.217,0.076,-0.293,0.062,0.085,-0.031,0.035,0.02,-0.005
-0.1,-0.34,-0.239,0.22,0.07,-0.289,0.069,0.085,-0.037,0.045,0.017,-0.005
-0.109,-0.34,-0.232,0.225,0.062,-0.286,0.071,0.085,-0.044,0.047,0.015,-0.005
-0.106,-0.337,-0.231,0.222,0.063,-0.284,0.069,0.084,-0.049,0.044,0.011,-0.006
-0.094,-0.332,-0.238,0.213,0.072,-0.285,0.066,0.086,-0.044,0.044,0.009,-0.012
-0.075,-0.324,-0.25,0.2,0.088,-0.287,0.064,0.085,-0.041,0.039,0.014,-0.016
-0.083,-0.322,-0.239,0.203,0.078,-0.28,0.067,0.086,-0.038,0.04,0.024,-0.021
-0.053,-0.294,-0.241,0.174,0.093,-0.267,0.07,0.097,-0.033,0.043,0.032,-0.013
-0.044,-0.264,-0.22,0.155,0.088,-0.242,0.074,0.106,-0.031,0.059,0.039,0.008
-0.091,-0.265,-0.174,0.178,0.042,-0.219,0.093,0.126,-0.024,0.075,0.046,0.02
-0.066,-0.27,-0.203,0.168,0.068,-0.236,0.085,0.14,-0.016,0.082,0.049,0.03
-0.029,-0.272,-0.243,0.151,0.107,-0.257,0.072,0.152,0.023,0.099,0.061,0.041
-0.002,-0.275,-0.273,0.138,0.136,-0.274,0.077,0.147,0.027,0.087,0.047,0.039
0.0,-0.302,-0.302,0.152,0.151,-0.302,0.074,0.13,-0.025,0.065,0.025,0.027
-0.025,-0.317,-0.292,0.171,0.134,-0.304,0.076,0.125,-0.037,0.059,0.026,0.016
-0.049,-0.352,-0.303,0.201,0.127,-0.328,0.074,0.11,-0.037,0.047,0.017,0.005
-0.107,-0.377,-0.27,0.242,0.082,-0.324,0.078,0.108,-0.055,0.037,0.013,-0.001
-0.103,-0.378,-0.275,0.241,0.086,-0.326,0.081,0.099,-0.063,0.036,0.007,-0.003
-0.103,-0.401,-0.298,0.252,0.098,-0.349,0.082,0.098,-0.068,0.02,0.005,-0.009
-0.106,-0.4,-0.294,0.253,0.095,-0.347,0.087,0.087,-0.062,0.023,0.014,-0.01
-0.11,-0.411,-0.301,0.261,0.096,-0.356,0.087,0.088,-0.068,0.005,0.007,-0.017
-0.138,-0.394,-0.256,0.266,0.06,-0.325,0.092,0.089,-0.063,0.004,0.024,-0.028
-0.089,-0.445,-0.356,0.267,0.134,-0.401,0.103,0.184,-0.06,-0.036,-0.048,-0.091
-0.108,-0.424,-0.315,0.266,0.104,-0.37,0.263,0.525,0.148,0.054,-0.003,-0.058
0.089,-0.082,-0.171,-0.003,0.131,-0.126,0.198,0.198,0.453,0.443,0.347,0.27
0.404,0.381,-0.023,-0.392,0.214,0.178,-0.465,-0.916,0.415,0.836,0.855,0.841
0.478,0.486,0.008,-0.482,0.235,0.246,-0.942,-1.412,0.479,1.23,1.188,1.15
0.284,-0.051,-0.335,-0.116,0.309,-0.192,-0.676,-0.982,0.276,0.774,0.651,0.611
-0.05,-0.444,-0.394,0.248,0.172,-0.419,-0.199,-0.35,-0.157,-0.009,0.062,0.077
-0.069,-0.387,-0.318,0.228,0.125,-0.352,-0.007,0.006,-0.027,0.052,0.083,0.066
-0.053,-0.382,-0.329,0.218,0.138,-0.355,0.053,0.134,0.034,0.077,0.066,0.035
-0.089,-0.394,-0.305,0.242,0.108,-0.349,0.117,0.186,0.015,0.051,0.058,0.023
-0.078,-0.4,-0.323,0.24,0.123,-0.361,0.125,0.206,0.05,0.079,0.058,0.028
-0.1,-0.408,-0.308,0.254,0.105,-0.358,0.135,0.239,0.035,0.053,0.045,0.021
-0.072,-0.402,-0.33,0.237,0.129,-0.366,0.15,0.268,0.074,0.098,0.062,0.029
-0.073,-0.407,-0.334,0.24,0.131,-0.371,0.15,0.269,0.058,0.082,0.049,0.043
-0.077,-0.403,-0.325,0.24,0.125,-0.364,0.15,0.272,0.074,0.096,0.062,0.06
-0.081,-0.407,-0.325,0.244,0.122,-0.366,0.15,0.301,0.095,0.102,0.078,0.052
-0.084,-0.401,-0.318,0.243,0.117,-0.359,0.15,0.317,0.107,0.105,0.089,0.057
-0.082,-0.394,-0.313,0.238,0.116,-0.353,0.149,0.318,0.113,0.125,0.082,0.054
-0.055,-0.386,-0.33,0.221,0.138,-0.358,0.144,0.326,0.118,0.137,0.087,0.056
-0.029,-0.378,-0.349,0.204,0.16,-0.363,0.138,0.339,0.137,0.135,0.096,0.062
-0.027,-0.37,-0.343,0.199,0.158,-0.356,0.135,0.354,0.147,0.134,0.103,0.073
-0.012,-0.362,-0.349,0.187,0.169,-0.355,0.13,0.38,0.17,0.159,0.119,0.084
-0.004,-0.354,-0.35,0.179,0.174,-0.352,0.126,0.414,0.198,0.185,0.133,0.101
0.001,-0.347,-0.348,0.173,0.175,-0.347,0.129,0.446,0.223,0.209,0.159,0.13
0.016,-0.346,-0.362,0.165,0.19,-0.354,0.121,0.48,0.255,0.239,0.183,0.149
0.045,-0.31,-0.355,0.133,0.2,-0.332,0.107,0.517,0.284,0.265,0.213,0.176
0.078,-0.258,-0.335,0.09,0.207,-0.296,0.088,0.544,0.314,0.298,0.248,0.207
0.11,-0.219,-0.329,0.055,0.219,-0.273,0.058,0.561,0.35,0.337,0.281,0.243
0.146,-0.17,-0.316,0.012,0.232,-0.243,0.02,0.56,0.379,0.378,0.325,0.296
0.18,-0.13,-0.309,-0.025,0.245,-0.219,-0.014,0.549,0.401,0.413,0.361,0.335
0.206,-0.094,-0.3,-0.056,0.253,-0.197,-0.03,0.541,0.408,0.437,0.386,0.357
0.219,-0.065,-0.284,-0.077,0.252,-0.174,-0.041,0.512,0.408,0.441,0.397,0.377
0.2,-0.058,-0.259,-0.071,0.23,-0.158,-0.049,0.466,0.394,0.426,0.387,0.365
0.16,-0.06,-0.22,-0.049,0.19,-0.14,-0.049,0.413,0.367,0.408,0.359,0.327
0.119,-0.085,-0.204,-0.017,0.161,-0.144,-0.014,0.363,0.314,0.358,0.304,0.267
0.052,-0.149,-0.2,0.049,0.126,-0.174,0.026,0.309,0.239,0.282,0.227,0.195
-0.017,-0.212,-0.195,0.115,0.089,-0.203,0.046,0.248,0.169,0.214,0.161,0.141
-0.052,-0.243,-0.191,0.148,0.07,-0.217,0.082,0.202,0.098,0.155,0.113,0.089
-0.079,-0.265,-0.186,0.173,0.053,-0.225,0.093,0.155,0.046,0.111,0.069,0.05
-0.096,-0.287,-0.191,0.192,0.048,-0.239,0.088,0.133,0.014,0.079,0.034,0.028
-0.083,-0.297,-0.214,0.19,0.066,-0.255,0.091,0.133,-0.004,0.065,0.023,0.014
-0.067,-0.293,-0.226,0.18,0.08,-0.26,0.089,0.127,-0.009,0.06,0.021,0.003
-0.079,-0.286,-0.208,0.183,0.065,-0.247,0.09,0.125,-0.012,0.052,0.017,-0.006
-0.087,-0.282,-0.195,0.185,0.054,-0.238,0.086,0.119,-0.018,0.044,0.014,-0.004
-0.085,-0.273,-0.188,0.179,0.052,-0.231,0.083,0.122,-0.019,0.037,0.01,-0.006
-0.081,-0.261,-0.18,0.172,0.05,-0.22,0.08,0.129,-0.015,0.032,0.006,-0.01
-0.075,-0.25,-0.175,0.162,0.05,-0.212,0.077,0.125,-0.015,0.027,0.004,-0.01
-0.073,-0.24,-0.167,0.157,0.047,-0.203,0.075,0.125,-0.013,0.024,0.005,-0.012
-0.068,-0.23,-0.162,0.149,0.047,-0.196,0.073,0.124,-0.01,0.02,0.005,-0.019
-0.072,-0.221,-0.149,0.146,0.038,-0.184,0.069,0.119,-0.01,0.016,0.005,-0.024
-0.093,-0.22,-0.127,0.157,0.017,-0.173,0.065,0.12,-0.016,0.014,0.004,-0.029
-0.102,-0.219,-0.117,0.161,0.008,-0.168,0.062,0.117,-0.028,0.005,-0.002,-0.035
-0.1,-0.216,-0.116,0.158,0.008,-0.166,0.057,0.109,-0.039,-0.003,-0.009,-0.04
-0.106,-0.214,-0.108,0.16,0.002,-0.161,0.055,0.103,-0.05,-0.012,-0.016,-0.045
-0.092,-0.217,-0.125,0.154,0.017,-0.17,0.06,0.095,-0.058,-0.021,-0.023,-0.045
-0.067,-0.22,-0.153,0.144,0.043,-0.186,0.06,0.087,-0.064,-0.034,-0.029,-0.045
-0.065,-0.22,-0.155,0.143,0.045,-0.187,0.061,0.081,-0.069,-0.043,-0.027,-0.045
-0.065,-0.22,-0.155,0.143,0.045,-0.187,0.065,0.075,-0.072,-0.04,-0.025,-0.045
-0.065,-0.219,-0.155,0.142,0.045,-0.187,0.065,0.075,-0.077,-0.04,-0.025,-0.045
-0.071,-0.226,-0.155,0.149,0.042,-0.19,0.065,0.075,-0.08,-0.038,-0.025,-0.045
-0.077,-0.231,-0.154,0.154,0.038,-0.192,0.065,0.075,-0.08,-0.034,-0.025,-0.045
-0.085,-0.233,-0.148,0.159,0.032,-0.19,0.065,0.075,-0.082,-0.035,-0.026,-0.045
-0.096,-0.236,-0.14,0.166,0.023,-0.188,0.065,0.077,-0.086,-0.039,-0.03,-0.045
-0.1,-0.234,-0.134,0.167,0.018,-0.184,0.065,0.082,-0.085,-0.041,-0.029,-0.046
-0.108,-0.235,-0.127,0.172,0.01,-0.181,0.065,0.084,-0.089,-0.04,-0.033,-0.049
-0.114,-0.234,-0.12,0.174,0.004,-0.177,0.06,0.081,-0.09,-0.04,-0.035,-0.051
-0.097,-0.235,-0.139,0.166,0.021,-0.187,0.056,0.078,-0.09,-0.04,-0.035,-0.049
-0.089,-0.23,-0.141,0.16,0.027,-0.186,0.053,0.076,-0.095,-0.04,-0.039,-0.053
-0.089,-0.22,-0.131,0.154,0.021,-0.175,0.05,0.072,-0.095,-0.044,-0.041,-0.055
-0.083,-0.21,-0.127,0.147,0.022,-0.168,0.045,0.07,-0.095,-0.056,-0.045,-0.055
-0.078,-0.181,-0.103,0.13,0.013,-0.142,0.047,0.072,-0.096,-0.063,-0.044,-0.065
-0.096,-0.168,-0.072,0.132,-0.012,-0.12,0.05,0.076,-0.094,-0.068,-0.039,-0.072
-0.106,-0.176,-0.069,0.141,-0.018,-0.122,0.05,0.078,-0.098,-0.069,-0.04,-0.074
-0.084,-0.184,-0.1,0.134,0.008,-0.142,0.05,0.081,-0.098,-0.063,-0.04,-0.069
-0.069,-0.189,-0.12,0.129,0.026,-0.154,0.05,0.085,-0.091,-0.056,-0.04,-0.06
-0.059,-0.178,-0.119,0.119,0.03,-0.148,0.051,0.085,-0.084,-0.05,-0.041,-0.053
-0.07,-0.167,-0.097,0.118,0.014,-0.132,0.054,0.093,-0.077,-0.042,-0.035,-0.043
-0.071,-0.16,-0.089,0.115,0.009,-0.124,0.06,0.099,-0.067,-0.036,-0.026,-0.04
-0.059,-0.149,-0.091,0.104,0.016,-0.12,0.068,0.109,-0.058,-0.026,-0.018,-0.04
-0.058,-0.146,-0.088,0.102,0.016,-0.117,0.058,0.112,-0.059,-0.02,-0.007,-0.04
-0.029,-0.143,-0.113,0.086,0.042,-0.128,0.026,0.099,-0.06,-0.009,0.009,-0.04
-0.003,-0.14,-0.137,0.072,0.067,-0.138,0.018,0.09,-0.064,-0.01,0.001,-0.04
-0.008,-0.143,-0.135,0.076,0.063,-0.139,0.024,0.081,-0.065,-0.025,-0.019,-0.041
-0.044,-0.172,-0.128,0.108,0.042,-0.15,0.031,0.074,-0.071,-0.037,-0.03,-0.049
-0.089,-0.225,-0.136,0.157,0.024,-0.18,0.05,0.067,-0.095,-0.069,-0.052,-0.069
-0.096,-0.244,-0.148,0.171,0.026,-0.196,0.055,0.062,-0.096,-0.074,-0.049,-0.069
-0.105,-0.268,-0.163,0.187,0.03,-0.215,0.055,0.053,-0.111,-0.075,-0.059,-0.078
-0.121,-0.261,-0.14,0.191,0.01,-0.2,0.055,0.052,-0.119,-0.078,-0.059,-0.077
-0.108,-0.269,-0.161,0.188,0.027,-0.215,0.055,0.056,-0.108,-0.07,-0.059,-0.082
-0.131,-0.261,-0.131,0.197,0.001,-0.196,0.055,0.065,-0.117,-0.082,-0.064,-0.079
-0.104,-0.27,-0.166,0.188,0.031,-0.218,0.059,0.07,-0.102,-0.068,-0.06,-0.084
-0.102,-0.337,-0.235,0.22,0.067,-0.286,0.148,0.304,-0.056,-0.127,-0.145,-0.165
-0.064,-0.132,-0.067,0.098,0.001,-0.099,0.252,0.559,0.282,0.138,0.057,-0.016
0.172,0.284,0.112,-0.228,0.029,0.198,-0.007,-0.113,0.437,0.557,0.511,0.427
0.386,0.657,0.272,-0.522,0.057,0.464,-0.665,-1.07,0.447,1.058,1.041,0.991
0.406,0.436,0.03,-0.421,0.188,0.233,-0.899,-1.164,0.539,1.256,1.061,0.935
0.09,-0.178,-0.268,0.044,0.179,-0.222,-0.446,-0.706,-0.02,0.289,0.225,0.224
-0.099,-0.311,-0.212,0.205,0.057,-0.261,-0.1,-0.201,-0.232,-0.152,-0.103,-0.019
-0.047,-0.265,-0.217,0.156,0.085,-0.241,0.011,0.053,-0.001,0.048,0.012,-0.002
-0.077,-0.283,-0.206,0.18,0.065,-0.244,0.085,0.129,-0.033,-0.03,-0.038,-0.044
-0.062,-0.272,-0.211,0.167,0.075,-0.241,0.096,0.172,0.013,0.021,-0.016,-0.028
-0.079,-0.29,-0.211,0.185,0.066,-0.25,0.107,0.188,0.004,0.001,-0.022,-0.037
-0.071,-0.295,-0.224,0.183,0.077,-0.259,0.106,0.207,0.016,0.014,-0.007,-0.015
-0.042,-0.302,-0.26,0.172,0.109,-0.281,0.131,0.228,0.029,0.021,-0.001,-0.013
-0.056,-0.315,-0.259,0.185,0.102,-0.287,0.135,0.244,0.042,0.022,0.004,-0.009
-0.047,-0.314,-0.267,0.181,0.11,-0.291,0.125,0.248,0.057,0.044,0.014,-0.009
-0.046,-0.31,-0.263,0.178,0.109,-0.286,0.126,0.257,0.049,0.039,0.014,-0.006
-0.032,-0.298,-0.266,0.166,0.117,-0.282,0.117,0.27,0.064,0.051,0.023,-0.004
-0.016,-0.278,-0.262,0.147,0.124,-0.27,0.116,0.285,0.064,0.049,0.023,-0.005
-0.012,-0.268,-0.256,0.141,0.122,-0.262,0.108,0.283,0.087,0.055,0.031,0.006
-0.01,-0.261,-0.251,0.136,0.121,-0.256,0.101,0.294,0.1,0.059,0.029,0.015
-0.006,-0.252,-0.246,0.129,0.12,-0.248,0.094,0.309,0.115,0.072,0.032,0.025
-0.007,-0.247,-0.24,0.127,0.117,-0.243,0.085,0.319,0.135,0.087,0.055,0.033
0.001,-0.233,-0.234,0.116,0.118,-0.233,0.08,0.348,0.148,0.112,0.071,0.043
0.029,-0.221,-0.25,0.097,0.139,-0.235,0.071,0.371,0.175,0.129,0.089,0.067
0.051,-0.203,-0.254,0.076,0.152,-0.228,0.057,0.405,0.215,0.16,0.122,0.095
0.078,-0.167,-0.245,0.045,0.162,-0.205,0.043,0.438,0.244,0.199,0.149,0.119
0.112,-0.13,-0.242,0.009,0.177,-0.186,0.019,0.461,0.277,0.232,0.187,0.16
0.144,-0.089,-0.234,-0.027,0.19,-0.162,-0.016,0.483,0.317,0.272,0.223,0.202
0.18,-0.051,-0.231,-0.064,0.206,-0.14,-0.049,0.478,0.333,0.302,0.256,0.241
0.216,-0.008,-0.224,-0.104,0.22,-0.116,-0.083,0.468,0.331,0.323,0.283,0.266
0.235,0.017,-0.218,-0.125,0.226,-0.1,-0.096,0.454,0.321,0.333,0.3,0.29
0.22,0.009,-0.211,-0.114,0.215,-0.101,-0.085,0.425,0.311,0.341,0.306,0.3
0.195,0.001,-0.193,-0.098,0.194,-0.096,-0.08,0.391,0.306,0.331,0.284,0.27
0.162,-0.022,-0.184,-0.07,0.173,-0.103,-0.052,0.346,0.27,0.272,0.235,0.225
0.108,-0.072,-0.18,-0.018,0.144,-0.126,-0.027,0.291,0.203,0.199,0.17,0.155
0.037,-0.138,-0.175,0.051,0.106,-0.157,0.026,0.234,0.136,0.126,0.109,0.09
-0.015,-0.186,-0.172,0.101,0.079,-0.179,0.047,0.182,0.063,0.069,0.06,0.047
-0.043,-0.208,-0.166,0.126,0.062,-0.187,0.076,0.142,0.008,0.024,0.021,0.014
-0.072,-0.238,-0.166,0.156,0.047,-0.202,0.088,0.112,-0.026,-0.004,-0.002,-0.007
-0.089,-0.249,-0.16,0.169,0.036,-0.205,-0.038,0.093,-0.048,-0.02,-0.014,-0.024
-0.09,-0.239,-0.15,0.165,0.03,-0.195,-0.024,0.088,-0.055,-0.041,-0.033,-0.038
-0.092,-0.232,-0.14,0.162,0.024,-0.186,0.014,0.092,-0.055,-0.028,-0.041,-0.04
-0.093,-0.224,-0.131,0.159,0.019,-0.177,-0.01,0.094,-0.055,-0.044,-0.039,-0.04
-0.087,-0.217,-0.129,0.152,0.021,-0.173,0.007,0.098,-0.055,-0.024,-0.04,-0.044
-0.079,-0.209,-0.13,0.144,0.026,-0.17,-0.004,0.1,-0.054,-0.048,-0.04,-0.045
-0.072,-0.2,-0.129,0.136,0.029,-0.164,0.002,0.098,-0.057,-0.015,-0.04,-0.044
-0.078,-0.191,-0.113,0.134,0.018,-0.152,0.0,0.094,-0.06,0.119,-0.044,-0.039
-0.082,-0.175,-0.094,0.129,0.006,-0.134,-0.001,0.092,-0.06,0.048,-0.045,-0.029
-0.072,-0.159,-0.088,0.116,0.008,-0.123,0.001,0.088,-0.06,-0.026,-0.046,-0.023
