-0.07,0.051,0.12,0.01,-0.095,0.085,-0.18,0.15,0.167,0.123,0.073,0.014
-0.07,0.049,0.119,0.01,-0.094,0.084,-0.171,0.149,0.16,0.112,0.062,0.007
-0.062,0.052,0.114,0.004,-0.088,0.083,-0.161,0.145,0.181,0.144,0.09,0.029
-0.039,0.066,0.106,-0.014,-0.073,0.086,-0.159,0.126,0.197,0.183,0.134,0.062
-0.042,0.05,0.092,-0.004,-0.067,0.071,-0.123,0.094,0.18,0.159,0.122,0.052
-0.046,0.041,0.086,0.002,-0.067,0.063,-0.127,0.065,0.132,0.122,0.097,0.045
-0.045,0.034,0.08,0.005,-0.063,0.057,-0.15,0.043,0.107,0.128,0.088,0.035
-0.08,-0.022,0.058,0.051,-0.069,0.018,-0.137,0.02,0.094,0.138,0.082,0.027
-0.072,-0.056,0.016,0.064,-0.044,-0.019,-0.131,-0.009,0.055,0.105,0.059,0.006
-0.059,-0.077,-0.018,0.069,-0.021,-0.047,-0.122,-0.051,0.02,0.058,0.022,-0.026
-0.106,-0.147,-0.041,0.127,-0.032,-0.094,-0.1,-0.07,-0.019,0.02,-0.028,-0.054
-0.117,-0.2,-0.084,0.159,-0.016,-0.142,-0.118,-0.076,-0.055,-0.001,-0.074,-0.086
-0.124,-0.231,-0.108,0.177,-0.007,-0.169,-0.138,-0.101,-0.072,-0.016,-0.076,-0.094
-0.102,-0.218,-0.117,0.16,0.008,-0.167,-0.13,-0.083,-0.049,0.002,-0.049,-0.083
-0.052,-0.154,-0.103,0.103,0.026,-0.128,-0.108,-0.045,0.004,0.044,-0.01,-0.05
-0.035,-0.048,-0.013,0.042,-0.011,-0.03,-0.085,-0.009,0.062,0.086,0.047,0.006
-0.045,0.029,0.074,0.008,-0.06,0.051,-0.011,0.054,0.13,0.165,0.127,0.052
-0.074,0.046,0.12,0.013,-0.097,0.083,0.053,0.073,0.164,0.192,0.152,0.071
-0.058,0.112,0.171,-0.027,-0.115,0.141,-0.065,0.022,0.176,0.203,0.158,0.089
-0.013,0.134,0.147,-0.061,-0.08,0.14,-0.157,0.005,0.208,0.259,0.174,0.096
-0.005,0.112,0.117,-0.054,-0.061,0.114,-0.134,-0.003,0.191,0.237,0.166,0.095
0.001,0.102,0.102,-0.052,-0.051,0.102,-0.182,-0.032,0.185,0.242,0.176,0.094
0.005,0.087,0.082,-0.046,-0.039,0.084,-0.212,0.027,0.18,0.229,0.141,0.098
0.032,0.071,0.039,-0.052,-0.004,0.055,-0.192,0.146,0.26,0.262,0.152,0.087
0.099,0.088,-0.011,-0.093,0.055,0.038,-0.202,0.226,0.527,0.564,0.431,0.238
0.456,0.387,-0.069,-0.421,0.262,0.159,-0.611,-0.591,0.318,0.861,0.973,0.831
0.839,0.544,-0.294,-0.691,0.566,0.125,-1.082,-1.68,-0.287,0.706,0.94,1.084
0.252,0.04,-0.212,-0.145,0.232,-0.086,-0.547,-1.459,-0.819,-0.25,-0.061,0.329
-0.409,-0.372,0.037,0.391,-0.223,-0.167,0.024,-0.908,-0.925,-0.802,-0.602,-0.27
-0.292,-0.321,-0.029,0.307,-0.131,-0.175,-0.092,-0.495,-0.409,-0.34,-0.306,-0.21
-0.192,-0.252,-0.059,0.222,-0.066,-0.155,-0.129,-0.079,-0.066,-0.081,-0.138,-0.142
-0.181,-0.236,-0.055,0.209,-0.063,-0.145,-0.133,-0.01,-0.022,-0.054,-0.095,-0.114
-0.146,-0.241,-0.095,0.194,-0.025,-0.168,-0.17,0.005,-0.005,-0.02,-0.053,-0.133
-0.143,-0.271,-0.128,0.207,-0.007,-0.199,-0.16,0.009,0.014,-0.058,-0.117,-0.169
-0.126,-0.279,-0.153,0.203,0.013,-0.215,-0.161,0.015,0.02,-0.064,-0.14,-0.157
-0.088,-0.234,-0.146,0.162,0.029,-0.19,-0.148,0.06,-0.011,-0.048,-0.098,-0.137
-0.059,-0.171,-0.112,0.116,0.026,-0.141,-0.122,0.093,0.042,0.015,-0.051,-0.093
-0.073,-0.087,-0.015,0.08,-0.029,-0.051,-0.098,0.139,0.094,0.085,0.017,-0.056
-0.094,-0.011,0.083,0.052,-0.088,0.036,0.024,0.212,0.141,0.126,0.067,-0.014
-0.11,0.044,0.153,0.033,-0.131,0.098,0.037,0.237,0.21,0.181,0.098,0.022
-0.075,0.106,0.181,-0.016,-0.128,0.143,-0.151,0.221,0.226,0.2,0.121,0.035
-0.053,0.113,0.166,-0.03,-0.11,0.139,-0.216,0.219,0.219,0.187,0.122,0.041
-0.067,0.083,0.149,-0.008,-0.108,0.116,-0.213,0.208,0.215,0.168,0.109,0.04
-0.052,0.07,0.122,-0.009,-0.087,0.096,-0.218,0.202,0.211,0.166,0.109,0.039
-0.039,0.065,0.103,-0.013,-0.072,0.084,-0.219,0.196,0.205,0.164,0.102,0.048
-0.048,0.057,0.105,-0.005,-0.076,0.08,-0.209,0.184,0.206,0.164,0.106,0.057
-0.061,0.049,0.11,0.005,-0.085,0.079,-0.204,0.187,0.212,0.225,0.169,0.099
-0.051,0.042,0.093,0.004,-0.072,0.067,-0.221,0.171,0.179,0.225,0.162,0.125
-0.027,0.034,0.061,-0.004,-0.044,0.048,-0.205,0.126,0.166,0.206,0.123,0.106
-0.034,0.018,0.052,0.008,-0.043,0.035,-0.198,0.103,0.142,0.184,0.118,0.095
-0.052,-0.001,0.05,0.026,-0.051,0.024,-0.197,0.072,0.098,0.138,0.096,0.067
-0.043,-0.029,0.014,0.036,-0.028,-0.007,-0.189,0.032,0.09,0.113,0.084,0.042
-0.052,-0.072,-0.019,0.062,-0.016,-0.045,-0.182,0.015,0.061,0.075,0.062,0.014
-0.087,-0.119,-0.032,0.104,-0.027,-0.075,-0.168,-0.002,0.026,0.047,0.019,-0.025
-0.109,-0.177,-0.068,0.144,-0.021,-0.122,-0.163,-0.008,0.003,0.019,-0.038,-0.047
-0.113,-0.206,-0.093,0.16,-0.01,-0.149,-0.151,-0.025,-0.027,0.009,-0.053,-0.054
-0.097,-0.218,-0.121,0.158,0.012,-0.169,-0.151,-0.021,-0.04,-0.014,-0.045,-0.042
-0.065,-0.189,-0.124,0.127,0.03,-0.156,-0.13,0.03,0.003,0.029,-0.015,-0.029
-0.02,-0.074,-0.055,0.047,0.018,-0.064,-0.11,0.057,0.079,0.119,0.065,0.011
-0.043,-0.004,0.039,0.023,-0.041,0.018,-0.044,0.106,0.121,0.129,0.09,0.054
-0.089,0.037,0.126,0.026,-0.108,0.081,0.071,0.138,0.164,0.178,0.117,0.072
-0.071,0.111,0.182,-0.02,-0.127,0.147,-0.005,0.105,0.205,0.237,0.179,0.111
-0.039,0.142,0.181,-0.052,-0.11,0.161,-0.116,0.087,0.206,0.259,0.186,0.13
-0.035,0.138,0.174,-0.052,-0.104,0.156,-0.138,0.1,0.201,0.247,0.177,0.12
-0.04,0.105,0.145,-0.032,-0.093,0.125,-0.187,0.07,0.181,0.23,0.18,0.124
-0.026,0.08,0.106,-0.027,-0.066,0.092,-0.17,0.092,0.172,0.211,0.169,0.111
0.006,0.08,0.074,-0.043,-0.035,0.076,-0.17,0.17,0.229,0.219,0.172,0.088
0.075,0.072,-0.002,-0.074,0.038,0.035,-0.149,0.333,0.478,0.463,0.309,0.165
0.295,0.283,-0.012,-0.289,0.153,0.135,-0.38,-0.15,0.444,0.813,0.822,0.654
0.739,0.593,-0.145,-0.666,0.441,0.224,-0.983,-1.436,-0.079,0.932,1.159,1.205
0.514,0.277,-0.237,-0.395,0.376,0.02,-0.769,-1.618,-0.652,0.198,0.362,0.719
-0.263,-0.318,-0.055,0.29,-0.104,-0.186,-0.052,-1.015,-0.987,-0.751,-0.549,-0.141
-0.36,-0.344,0.016,0.351,-0.187,-0.164,0.008,-0.61,-0.604,-0.522,-0.425,-0.219
-0.208,-0.233,-0.024,0.221,-0.092,-0.128,-0.09,-0.141,-0.102,-0.065,-0.124,-0.088
-0.193,-0.254,-0.062,0.224,-0.065,-0.158,-0.078,0.023,0.0,-0.032,-0.101,-0.085
-0.153,-0.238,-0.085,0.196,-0.034,-0.161,-0.096,0.037,0.036,0.008,-0.095,-0.076
-0.136,-0.253,-0.116,0.195,-0.01,-0.185,-0.093,0.054,0.018,-0.051,-0.092,-0.117
-0.093,-0.269,-0.176,0.181,0.042,-0.222,-0.11,0.055,-0.011,-0.053,-0.092,-0.115
-0.09,-0.268,-0.179,0.179,0.045,-0.223,-0.127,0.066,-0.002,-0.031,-0.109,-0.111
-0.078,-0.215,-0.137,0.147,0.03,-0.176,-0.114,0.072,0.036,-0.01,-0.05,-0.09
-0.058,-0.108,-0.05,0.083,-0.003,-0.079,-0.091,0.124,0.088,0.077,0.02,-0.026
-0.084,-0.019,0.065,0.051,-0.075,0.023,0.01,0.193,0.163,0.136,0.067,0.015
-0.116,0.024,0.139,0.046,-0.127,0.081,0.07,0.233,0.198,0.17,0.12,0.039
-0.098,0.081,0.179,0.008,-0.139,0.13,-0.048,0.199,0.217,0.196,0.141,0.046
-0.056,0.118,0.174,-0.032,-0.115,0.146,-0.127,0.195,0.229,0.195,0.135,0.073
-0.042,0.106,0.148,-0.032,-0.095,0.126,-0.143,0.205,0.213,0.183,0.104,0.083
-0.047,0.102,0.149,-0.028,-0.098,0.125,-0.168,0.204,0.206,0.181,0.094,0.079
-0.062,0.084,0.146,-0.011,-0.104,0.115,-0.198,0.205,0.195,0.167,0.094,0.088
-0.063,0.07,0.134,-0.004,-0.099,0.102,-0.192,0.206,0.184,0.171,0.115,0.084
-0.054,0.054,0.108,0.0,-0.081,0.081,-0.171,0.201,0.18,0.18,0.131,0.095
-0.039,0.06,0.098,-0.011,-0.069,0.079,-0.191,0.148,0.163,0.203,0.156,0.111
-0.024,0.071,0.095,-0.024,-0.06,0.083,-0.186,0.12,0.17,0.211,0.158,0.109
-0.052,0.038,0.09,0.007,-0.071,0.064,-0.181,0.113,0.172,0.185,0.114,0.095
-0.06,0.025,0.085,0.017,-0.073,0.055,-0.177,0.097,0.132,0.157,0.106,0.086
-0.072,0.003,0.076,0.034,-0.074,0.039,-0.168,0.084,0.1,0.113,0.089,0.066
-0.083,-0.039,0.044,0.061,-0.063,0.002,-0.164,0.07,0.06,0.107,0.06,0.025
-0.074,-0.067,0.006,0.071,-0.04,-0.03,-0.154,0.053,0.025,0.067,0.02,0.003
-0.111,-0.144,-0.033,0.128,-0.039,-0.089,-0.15,0.039,-0.017,0.018,-0.042,-0.024
-0.12,-0.209,-0.089,0.165,-0.015,-0.149,-0.141,0.014,-0.037,0.007,-0.074,-0.057
-0.115,-0.194,-0.078,0.155,-0.018,-0.136,-0.134,-0.018,-0.021,-0.014,-0.051,-0.067
-0.105,-0.196,-0.091,0.151,-0.007,-0.143,-0.124,0.014,-0.006,0.0,-0.056,-0.057
-0.072,-0.116,-0.045,0.094,-0.013,-0.08,-0.117,0.057,0.065,0.074,-0.004,-0.006
-0.074,-0.011,0.063,0.042,-0.068,0.026,-0.063,0.114,0.13,0.167,0.104,0.03
-0.094,0.023,0.117,0.035,-0.106,0.069,0.054,0.17,0.165,0.165,0.104,0.061
-0.087,0.106,0.193,-0.01,-0.14,0.149,0.038,0.157,0.187,0.172,0.131,0.094
-0.061,0.144,0.204,-0.042,-0.133,0.174,-0.084,0.124,0.203,0.237,0.18,0.103
-0.078,0.125,0.203,-0.024,-0.141,0.164,-0.117,0.137,0.228,0.234,0.159,0.105
-0.066,0.11,0.175,-0.022,-0.121,0.142,-0.149,0.104,0.197,0.213,0.147,0.105
-0.017,0.105,0.122,-0.045,-0.07,0.114,-0.149,0.095,0.194,0.231,0.146,0.106
-0.043,0.095,0.138,-0.026,-0.091,0.116,-0.098,0.181,0.198,0.199,0.141,0.086
0.011,0.07,0.059,-0.041,-0.024,0.064,-0.092,0.364,0.396,0.355,0.217,0.102
0.18,0.21,0.03,-0.195,0.075,0.119,-0.226,0.16,0.505,0.68,0.613,0.443
0.624,0.586,-0.039,-0.605,0.331,0.273,-0.814,-1.079,0.096,0.963,1.149,1.105
0.728,0.508,-0.221,-0.618,0.474,0.143,-0.938,-1.709,-0.471,0.559,0.718,0.977
-0.079,-0.188,-0.109,0.134,0.015,-0.149,-0.182,-1.181,-0.993,-0.609,-0.41,0.039
-0.447,-0.402,0.046,0.425,-0.246,-0.178,0.084,-0.715,-0.808,-0.734,-0.588,-0.277
-0.237,-0.211,0.026,0.224,-0.131,-0.092,-0.029,-0.226,-0.232,-0.19,-0.211,-0.144
-0.161,-0.176,-0.015,0.169,-0.073,-0.095,-0.047,0.049,-0.066,-0.085,-0.131,-0.14
-0.12,-0.168,-0.048,0.144,-0.035,-0.108,-0.1,0.081,-0.037,-0.035,-0.122,-0.131
-0.158,-0.222,-0.064,0.19,-0.047,-0.142,-0.084,0.114,-0.042,-0.042,-0.126,-0.137
-0.133,-0.25,-0.117,0.192,-0.008,-0.183,-0.084,0.109,-0.012,-0.03,-0.128,-0.133
-0.118,-0.254,-0.136,0.186,0.009,-0.195,-0.083,0.103,-0.026,-0.068,-0.15,-0.137
-0.127,-0.23,-0.102,0.179,-0.012,-0.166,-0.07,0.126,-0.002,-0.052,-0.113,-0.117
-0.056,-0.123,-0.067,0.09,0.005,-0.094,-0.044,0.178,0.068,0.019,-0.041,-0.067
-0.065,-0.036,0.029,0.051,-0.047,-0.004,0.02,0.232,0.126,0.077,0.0,-0.034
-0.118,0.03,0.148,0.044,-0.133,0.089,0.109,0.278,0.193,0.141,0.067,-0.004
-0.099,0.102,0.201,-0.002,-0.15,0.151,0.046,0.246,0.206,0.14,0.089,0.021
-0.082,0.119,0.2,-0.019,-0.141,0.159,-0.088,0.234,0.242,0.178,0.091,0.041
-0.084,0.093,0.176,-0.005,-0.13,0.134,-0.099,0.238,0.225,0.161,0.078,0.04
-0.06,0.089,0.149,-0.015,-0.104,0.119,-0.101,0.224,0.2,0.128,0.054,0.039
-0.043,0.091,0.134,-0.024,-0.089,0.113,-0.099,0.223,0.207,0.14,0.076,0.041
-0.042,0.085,0.127,-0.022,-0.085,0.106,-0.101,0.213,0.197,0.123,0.091,0.038
-0.033,0.085,0.118,-0.026,-0.076,0.101,-0.099,0.21,0.199,0.14,0.089,0.05
-0.026,0.085,0.11,-0.03,-0.068,0.097,-0.103,0.201,0.194,0.16,0.102,0.06
-0.022,0.079,0.102,-0.029,-0.062,0.09,-0.142,0.184,0.192,0.152,0.102,0.05
-0.025,0.069,0.094,-0.022,-0.06,0.082,-0.125,0.157,0.175,0.166,0.094,0.04
-0.044,0.034,0.078,0.005,-0.062,0.056,-0.099,0.125,0.156,0.124,0.066,0.029
-0.043,0.01,0.053,0.016,-0.048,0.031,-0.095,0.091,0.148,0.085,0.012,0.005
-0.046,-0.023,0.024,0.034,-0.035,0.0,-0.089,0.058,0.099,0.075,-0.005,-0.021
-0.082,-0.08,0.002,0.081,-0.042,-0.039,-0.08,0.029,0.045,0.016,-0.036,-0.043
-0.114,-0.131,-0.017,0.123,-0.048,-0.074,-0.07,0.011,0.011,-0.043,-0.089,-0.072
-0.124,-0.191,-0.067,0.158,-0.028,-0.129,-0.061,0.004,-0.026,-0.077,-0.118,-0.099
-0.102,-0.196,-0.094,0.15,-0.004,-0.145,-0.052,0.002,-0.051,-0.073,-0.132,-0.116
-0.084,-0.187,-0.103,0.136,0.01,-0.144,-0.056,0.043,-0.042,-0.059,-0.117,-0.111
-0.072,-0.15,-0.078,0.111,0.003,-0.114,-0.029,0.084,0.022,-0.024,-0.081,-0.072
-0.063,-0.044,0.019,0.054,-0.04,-0.013,0.026,0.115,0.075,0.017,-0.01,-0.032
-0.091,0.026,0.117,0.032,-0.104,0.071,0.137,0.171,0.126,0.084,0.055,0.0
-0.104,0.099,0.203,0.002,-0.154,0.15,0.14,0.19,0.168,0.131,0.071,0.023
-0.061,0.148,0.209,-0.044,-0.136,0.179,0.009,0.137,0.154,0.112,0.069,0.038
-0.041,0.13,0.171,-0.044,-0.106,0.15,-0.032,0.136,0.165,0.121,0.06,0.043
-0.054,0.102,0.156,-0.024,-0.105,0.128,-0.055,0.123,0.149,0.095,0.045,0.032
-0.039,0.083,0.122,-0.022,-0.081,0.102,-0.058,0.103,0.159,0.133,0.06,0.024
-0.049,0.074,0.124,-0.013,-0.087,0.099,-0.027,0.164,0.162,0.132,0.059,0.01
0.01,0.056,0.047,-0.033,-0.019,0.051,-0.036,0.326,0.321,0.233,0.105,0.023
0.15,0.146,-0.004,-0.148,0.077,0.071,-0.095,0.291,0.532,0.562,0.43,0.269
0.544,0.49,-0.055,-0.517,0.299,0.217,-0.631,-0.842,0.193,0.871,0.994,0.892
0.792,0.549,-0.243,-0.671,0.518,0.153,-0.954,-1.775,-0.419,0.599,0.78,0.986
0.089,-0.054,-0.142,-0.017,0.115,-0.098,-0.271,-1.36,-0.99,-0.528,-0.336,0.116
-0.431,-0.401,0.03,0.416,-0.23,-0.185,0.146,-0.798,-0.92,-0.855,-0.679,-0.344
-0.26,-0.263,-0.003,0.261,-0.129,-0.133,0.076,-0.303,-0.324,-0.325,-0.324,-0.22
-0.182,-0.202,-0.02,0.192,-0.081,-0.11,0.079,0.037,-0.069,-0.131,-0.209,-0.21
-0.155,-0.191,-0.036,0.173,-0.059,-0.113,0.026,0.092,-0.025,-0.099,-0.196,-0.203
-0.145,-0.231,-0.087,0.188,-0.029,-0.159,0.02,0.108,-0.048,-0.142,-0.205,-0.204
-0.138,-0.27,-0.132,0.204,-0.003,-0.201,0.029,0.093,-0.051,-0.141,-0.205,-0.2
-0.118,-0.262,-0.144,0.19,0.013,-0.202,0.02,0.098,-0.062,-0.155,-0.216,-0.2
-0.084,-0.247,-0.163,0.165,0.04,-0.205,0.032,0.134,-0.037,-0.119,-0.184,-0.191
-0.065,-0.155,-0.09,0.11,0.013,-0.122,0.058,0.182,0.034,-0.048,-0.119,-0.138
-0.083,-0.062,0.021,0.072,-0.052,-0.021,0.131,0.236,0.082,-0.016,-0.084,-0.112
-0.09,0.003,0.092,0.043,-0.091,0.047,0.239,0.281,0.152,0.067,-0.037,-0.073
-0.089,0.083,0.171,0.003,-0.13,0.127,0.169,0.25,0.164,0.084,-0.005,-0.04
-0.093,0.095,0.188,-0.002,-0.141,0.142,0.054,0.244,0.169,0.075,0.002,-0.032
-0.08,0.085,0.166,-0.002,-0.123,0.125,0.039,0.259,0.164,0.065,-0.003,-0.027
-0.048,0.078,0.126,-0.015,-0.088,0.102,0.015,0.252,0.147,0.054,-0.006,-0.024
-0.044,0.061,0.105,-0.009,-0.075,0.083,0.006,0.257,0.15,0.05,-0.007,-0.018
-0.032,0.065,0.097,-0.017,-0.065,0.081,-0.002,0.254,0.152,0.05,-0.014,-0.015
-0.018,0.065,0.083,-0.024,-0.051,0.074,-0.028,0.256,0.156,0.072,0.006,0.001
-0.011,0.066,0.077,-0.028,-0.045,0.071,-0.053,0.244,0.16,0.092,0.042,0.021
-0.005,0.061,0.067,-0.028,-0.036,0.064,-0.008,0.227,0.155,0.114,0.062,0.025
-0.006,0.054,0.06,-0.025,-0.033,0.057,0.01,0.211,0.129,0.109,0.045,0.016
-0.018,0.035,0.053,-0.009,-0.036,0.044,-0.012,0.18,0.102,0.07,0.013,-0.002
-0.058,-0.005,0.054,0.031,-0.056,0.024,0.025,0.153,0.073,0.03,-0.015,-0.02
-0.074,-0.044,0.03,0.059,-0.052,-0.007,0.067,0.124,0.025,-0.002,-0.059,-0.05
-0.077,-0.083,-0.007,0.08,-0.035,-0.045,0.055,0.091,-0.011,-0.032,-0.094,-0.082
-0.093,-0.15,-0.057,0.122,-0.018,-0.104,0.031,0.083,-0.052,-0.085,-0.14,-0.125
-0.092,-0.189,-0.097,0.141,0.003,-0.143,0.056,0.086,-0.09,-0.12,-0.163,-0.152
-0.08,-0.188,-0.108,0.134,0.015,-0.148,0.069,0.085,-0.092,-0.138,-0.165,-0.152
-0.069,-0.19,-0.121,0.129,0.026,-0.155,0.071,0.084,-0.062,-0.122,-0.15,-0.146
-0.039,-0.13,-0.09,0.085,0.026,-0.11,0.078,0.097,-0.015,-0.058,-0.109,-0.11
-0.021,-0.036,-0.015,0.028,-0.003,-0.026,0.111,0.143,0.03,-0.015,-0.084,-0.071
-0.057,0.022,0.079,0.017,-0.068,0.05,0.218,0.176,0.082,0.037,-0.027,-0.029
-0.071,0.087,0.158,-0.008,-0.115,0.123,0.223,0.165,0.119,0.072,0.014,-0.005
-0.046,0.133,0.179,-0.044,-0.113,0.155,0.11,0.126,0.119,0.087,0.043,-0.006
-0.025,0.128,0.153,-0.052,-0.089,0.14,0.045,0.132,0.129,0.099,0.047,-0.003
-0.048,0.088,0.136,-0.02,-0.092,0.111,0.028,0.129,0.107,0.079,0.034,-0.004
-0.036,0.057,0.093,-0.011,-0.065,0.075,0.001,0.117,0.102,0.092,0.033,0.006
-0.011,0.056,0.068,-0.023,-0.04,0.062,0.04,0.152,0.103,0.064,-0.002,-0.017
0.042,0.047,0.005,-0.045,0.018,0.026,0.071,0.292,0.25,0.168,0.051,-0.022
0.148,0.129,-0.019,-0.138,0.083,0.055,0.004,0.31,0.487,0.482,0.344,0.194
0.533,0.462,-0.071,-0.497,0.302,0.195,-0.498,-0.76,0.243,0.816,0.889,0.772
0.903,0.573,-0.33,-0.738,0.616,0.122,-0.917,-1.792,-0.34,0.622,0.77,0.934
0.215,-0.033,-0.248,-0.091,0.232,-0.14,-0.282,-1.469,-0.967,-0.485,-0.293,0.143
-0.416,-0.425,-0.009,0.42,-0.203,-0.216,0.221,-0.882,-0.985,-0.904,-0.701,-0.363
-0.222,-0.279,-0.057,0.251,-0.082,-0.168,0.15,-0.346,-0.361,-0.369,-0.363,-0.248
-0.164,-0.249,-0.085,0.206,-0.039,-0.166,0.143,0.032,-0.096,-0.191,-0.229,-0.203
-0.172,-0.245,-0.073,0.208,-0.049,-0.158,0.081,0.092,-0.07,-0.175,-0.199,-0.199
-0.116,-0.245,-0.129,0.18,0.007,-0.187,0.066,0.114,-0.055,-0.161,-0.218,-0.216
-0.096,-0.268,-0.173,0.182,0.039,-0.22,0.056,0.119,-0.06,-0.164,-0.231,-0.217
-0.077,-0.273,-0.196,0.175,0.059,-0.234,0.046,0.123,-0.043,-0.145,-0.215,-0.201
-0.071,-0.248,-0.177,0.16,0.053,-0.212,0.054,0.148,-0.032,-0.133,-0.2,-0.2
-0.021,-0.139,-0.118,0.08,0.048,-0.128,0.06,0.197,0.022,-0.078,-0.149,-0.152
-0.018,-0.065,-0.046,0.041,0.015,-0.056,0.169,0.244,0.089,-0.014,-0.106,-0.117
-0.069,-0.002,0.067,0.035,-0.068,0.032,0.257,0.293,0.143,0.04,-0.055,-0.095
-0.046,0.09,0.136,-0.023,-0.091,0.113,0.157,0.296,0.167,0.056,-0.017,-0.064
-0.041,0.111,0.152,-0.035,-0.097,0.132,0.064,0.293,0.174,0.065,-0.003,-0.049
-0.023,0.093,0.116,-0.035,-0.07,0.104,0.047,0.296,0.165,0.052,-0.009,-0.046
0.006,0.072,0.066,-0.039,-0.03,0.069,0.022,0.294,0.16,0.048,-0.013,-0.041
-0.003,0.058,0.062,-0.028,-0.033,0.06,0.021,0.295,0.156,0.042,-0.017,-0.036
-0.01,0.048,0.058,-0.019,-0.034,0.052,0.017,0.285,0.153,0.031,-0.021,-0.032
0.006,0.055,0.049,-0.031,-0.022,0.052,0.014,0.275,0.151,0.067,-0.003,-0.016
0.05,0.082,0.032,-0.066,0.009,0.057,0.012,0.264,0.15,0.065,0.005,-0.004
0.033,0.07,0.037,-0.051,-0.002,0.053,0.009,0.25,0.18,0.077,0.026,-0.006
0.021,0.046,0.025,-0.033,-0.003,0.036,0.015,0.216,0.18,0.087,0.019,-0.016
0.012,0.034,0.021,-0.023,-0.005,0.027,0.041,0.181,0.146,0.048,-0.016,-0.02
-0.018,0.01,0.029,0.004,-0.024,0.019,0.053,0.148,0.121,0.042,-0.022,-0.03
-0.028,-0.044,-0.016,0.036,-0.006,-0.03,0.049,0.136,0.083,-0.003,-0.063,-0.071
-0.027,-0.089,-0.061,0.058,0.017,-0.075,0.053,0.115,0.046,-0.055,-0.108,-0.104
-0.052,-0.161,-0.108,0.107,0.028,-0.134,0.05,0.079,-0.003,-0.108,-0.145,-0.137
-0.085,-0.231,-0.147,0.158,0.031,-0.189,0.07,0.094,-0.035,-0.137,-0.174,-0.167
-0.06,-0.239,-0.179,0.149,0.06,-0.209,0.059,0.088,-0.04,-0.143,-0.183,-0.173
-0.047,-0.216,-0.169,0.131,0.062,-0.192,0.05,0.089,-0.026,-0.135,-0.169,-0.163
-0.018,-0.128,-0.11,0.073,0.047,-0.119,0.086,0.129,0.032,-0.078,-0.113,-0.124
-0.006,-0.049,-0.043,0.028,0.019,-0.046,0.139,0.184,0.091,-0.027,-0.054,-0.078
-0.06,-0.01,0.05,0.035,-0.055,0.02,0.231,0.212,0.141,0.029,-0.008,-0.05
-0.053,0.077,0.13,-0.012,-0.092,0.103,0.202,0.198,0.174,0.074,0.019,-0.044
-0.019,0.119,0.139,-0.05,-0.08,0.129,0.07,0.182,0.177,0.089,0.041,-0.045
-0.014,0.082,0.095,-0.034,-0.055,0.088,0.056,0.185,0.171,0.079,0.04,-0.045
-0.02,0.058,0.078,-0.02,-0.049,0.068,0.054,0.166,0.149,0.074,0.025,-0.05
-0.005,0.047,0.052,-0.021,-0.028,0.049,0.012,0.164,0.159,0.094,0.02,-0.05
-0.004,0.038,0.042,-0.017,-0.023,0.039,0.054,0.22,0.161,0.063,-0.006,-0.052
0.064,0.021,-0.043,-0.042,0.054,-0.011,0.072,0.398,0.316,0.165,0.046,-0.031
0.192,0.139,-0.053,-0.165,0.122,0.043,-0.023,0.282,0.522,0.498,0.382,0.217
0.652,0.478,-0.175,-0.565,0.413,0.151,-0.586,-0.929,0.24,0.809,0.877,0.777
0.895,0.468,-0.428,-0.681,0.661,0.02,-0.865,-1.792,-0.406,0.406,0.561,0.76
0.082,-0.143,-0.226,0.031,0.154,-0.184,-0.156,-1.4,-1.036,-0.696,-0.465,-0.041
-0.366,-0.417,-0.051,0.392,-0.157,-0.234,0.226,-0.817,-0.893,-0.854,-0.658,-0.365
-0.187,-0.269,-0.082,0.228,-0.052,-0.175,0.138,-0.229,-0.278,-0.308,-0.313,-0.246
-0.154,-0.244,-0.09,0.2,-0.032,-0.167,0.11,0.087,-0.099,-0.184,-0.242,-0.256
-0.108,-0.222,-0.114,0.165,0.003,-0.167,0.051,0.114,-0.05,-0.16,-0.215,-0.247
-0.11,-0.253,-0.143,0.182,0.016,-0.198,0.074,0.135,-0.046,-0.18,-0.234,-0.251
-0.098,-0.299,-0.201,0.199,0.052,-0.25,0.103,0.139,-0.059,-0.191,-0.239,-0.25
-0.074,-0.3,-0.225,0.187,0.076,-0.262,0.105,0.147,-0.037,-0.178,-0.229,-0.249
-0.031,-0.25,-0.219,0.141,0.094,-0.235,0.119,0.182,-0.005,-0.131,-0.187,-0.218
-0.005,-0.128,-0.124,0.067,0.06,-0.126,0.108,0.234,0.048,-0.062,-0.117,-0.158
-0.021,-0.068,-0.048,0.045,0.013,-0.058,0.199,0.286,0.087,-0.036,-0.079,-0.119
-0.057,-0.014,0.043,0.036,-0.05,0.014,0.302,0.347,0.151,0.021,-0.038,-0.089
-0.044,0.073,0.117,-0.015,-0.081,0.094,0.178,0.329,0.173,0.042,-0.013,-0.08
-0.009,0.087,0.096,-0.04,-0.053,0.092,0.09,0.304,0.162,0.037,0.003,-0.073
-0.024,0.067,0.091,-0.021,-0.058,0.078,0.084,0.3,0.151,0.034,-0.001,-0.068
-0.023,0.042,0.064,-0.01,-0.044,0.053,0.046,0.286,0.139,0.027,-0.004,-0.063
-0.016,0.027,0.044,-0.006,-0.03,0.035,0.036,0.286,0.135,0.026,-0.007,-0.056
-0.005,0.032,0.036,-0.014,-0.021,0.034,0.033,0.281,0.135,0.016,-0.011,-0.053
0.005,0.028,0.023,-0.017,-0.009,0.026,0.036,0.28,0.135,0.028,0.008,-0.031
0.017,0.033,0.016,-0.025,0.0,0.025,0.038,0.259,0.134,0.059,0.021,-0.014
0.011,0.024,0.012,-0.017,-0.001,0.018,0.042,0.225,0.137,0.057,0.014,-0.021
0.015,0.007,-0.008,-0.011,0.011,0.0,0.039,0.199,0.123,0.049,0.007,-0.03
0.015,-0.011,-0.026,-0.002,0.021,-0.019,0.053,0.172,0.097,0.024,0.002,-0.046
-0.018,-0.035,-0.017,0.027,0.0,-0.026,0.064,0.139,0.054,-0.023,-0.034,-0.065
-0.026,-0.078,-0.052,0.052,0.013,-0.064,0.058,0.112,0.013,-0.055,-0.084,-0.098
-0.05,-0.128,-0.078,0.089,0.014,-0.103,0.063,0.073,-0.035,-0.097,-0.118,-0.133
-0.069,-0.183,-0.114,0.127,0.022,-0.149,0.08,0.049,-0.068,-0.134,-0.156,-0.164
-0.075,-0.239,-0.164,0.157,0.045,-0.201,0.095,0.054,-0.072,-0.149,-0.18,-0.201
-0.074,-0.246,-0.173,0.16,0.05,-0.209,0.083,0.044,-0.101,-0.164,-0.185,-0.206
-0.032,-0.21,-0.179,0.121,0.074,-0.194,0.111,0.078,-0.067,-0.133,-0.159,-0.166
-0.014,-0.123,-0.109,0.069,0.048,-0.115,0.119,0.118,0.0,-0.069,-0.102,-0.118
-0.033,-0.049,-0.016,0.042,-0.009,-0.032,0.18,0.158,0.046,-0.022,-0.054,-0.084
-0.038,0.003,0.041,0.017,-0.039,0.021,0.263,0.194,0.092,0.02,-0.016,-0.066
-0.041,0.076,0.117,-0.018,-0.079,0.096,0.178,0.188,0.117,0.043,0.013,-0.047
-0.028,0.102,0.131,-0.037,-0.08,0.116,0.106,0.164,0.126,0.057,0.032,-0.015
0.001,0.084,0.083,-0.042,-0.042,0.083,0.1,0.167,0.121,0.054,0.02,-0.015
0.027,0.069,0.042,-0.048,-0.008,0.055,0.071,0.151,0.105,0.048,0.018,-0.018
0.022,0.036,0.014,-0.029,0.004,0.025,0.047,0.143,0.104,0.05,0.007,-0.018
0.002,-0.015,-0.017,0.007,0.009,-0.016,0.078,0.22,0.122,0.041,-0.006,-0.04
0.103,0.014,-0.089,-0.058,0.096,-0.038,0.1,0.404,0.319,0.191,0.09,-0.007
0.235,0.186,-0.049,-0.21,0.142,0.068,-0.067,0.153,0.484,0.537,0.461,0.291
0.758,0.515,-0.244,-0.636,0.501,0.136,-0.679,-1.129,0.159,0.787,0.878,0.802
0.883,0.414,-0.469,-0.648,0.675,-0.027,-0.807,-1.845,-0.522,0.21,0.391,0.63
-0.012,-0.214,-0.202,0.113,0.095,-0.208,-0.076,-1.372,-1.078,-0.777,-0.544,-0.133
-0.316,-0.39,-0.074,0.353,-0.12,-0.232,0.203,-0.775,-0.814,-0.747,-0.584,-0.348
-0.163,-0.252,-0.089,0.208,-0.037,-0.17,0.134,-0.193,-0.257,-0.313,-0.283,-0.235
-0.164,-0.228,-0.064,0.196,-0.049,-0.146,0.13,0.066,-0.119,-0.225,-0.252,-0.232
-0.095,-0.215,-0.12,0.155,0.013,-0.167,0.079,0.076,-0.09,-0.195,-0.228,-0.219
-0.114,-0.265,-0.152,0.19,0.019,-0.208,0.092,0.097,-0.097,-0.203,-0.225,-0.233
-0.108,-0.283,-0.175,0.196,0.034,-0.229,0.08,0.085,-0.087,-0.189,-0.217,-0.231
-0.079,-0.266,-0.188,0.173,0.055,-0.227,0.077,0.088,-0.085,-0.182,-0.215,-0.219
-0.042,-0.221,-0.179,0.131,0.069,-0.2,0.079,0.127,-0.051,-0.145,-0.195,-0.202
-0.024,-0.13,-0.106,0.077,0.041,-0.118,0.099,0.184,0.021,-0.092,-0.129,-0.146
-0.055,-0.059,-0.004,0.057,-0.025,-0.031,0.213,0.254,0.07,-0.053,-0.088,-0.102
-0.067,0.027,0.095,0.02,-0.081,0.061,0.233,0.288,0.121,0.002,-0.036,-0.078
-0.029,0.105,0.133,-0.038,-0.081,0.119,0.108,0.257,0.14,0.032,-0.006,-0.057
-0.02,0.094,0.114,-0.038,-0.067,0.104,0.063,0.254,0.145,0.031,-0.012,-0.05
-0.025,0.06,0.085,-0.018,-0.056,0.072,0.055,0.263,0.138,0.022,-0.008,-0.047
-0.012,0.046,0.058,-0.017,-0.036,0.051,0.037,0.275,0.132,0.015,-0.011,-0.045
-0.015,0.036,0.051,-0.011,-0.033,0.043,0.014,0.269,0.128,0.008,-0.007,-0.041
-0.012,0.032,0.044,-0.01,-0.029,0.038,0.002,0.252,0.123,0.0,0.001,-0.041
0.005,0.043,0.038,-0.024,-0.017,0.04,0.02,0.244,0.119,0.019,0.008,-0.029
0.031,0.061,0.031,-0.046,0.0,0.046,-0.001,0.222,0.115,0.047,0.021,-0.004
0.026,0.052,0.026,-0.04,0.0,0.039,0.005,0.193,0.104,0.049,0.027,-0.006
0.009,0.033,0.025,-0.022,-0.008,0.029,0.03,0.168,0.087,0.052,0.019,-0.008
-0.022,0.0,0.021,0.01,-0.021,0.01,0.041,0.144,0.069,0.018,-0.017,-0.025
-0.039,-0.05,-0.011,0.045,-0.014,-0.03,0.063,0.113,0.036,-0.023,-0.042,-0.061
-0.027,-0.083,-0.055,0.055,0.014,-0.069,0.071,0.076,-0.01,-0.064,-0.083,-0.087
-0.056,-0.128,-0.072,0.092,0.009,-0.1,0.076,0.049,-0.064,-0.121,-0.134,-0.116
-0.089,-0.196,-0.107,0.143,0.009,-0.151,0.088,0.047,-0.091,-0.151,-0.17,-0.154
-0.085,-0.234,-0.149,0.159,0.032,-0.191,0.081,0.037,-0.112,-0.18,-0.194,-0.173
-0.069,-0.231,-0.162,0.15,0.047,-0.196,0.074,0.038,-0.119,-0.179,-0.179,-0.16
-0.046,-0.188,-0.141,0.117,0.048,-0.164,0.067,0.07,-0.076,-0.131,-0.156,-0.147
-0.022,-0.102,-0.08,0.062,0.03,-0.091,0.098,0.11,-0.017,-0.087,-0.122,-0.126
-0.042,-0.045,-0.003,0.043,-0.019,-0.024,0.214,0.151,0.035,-0.046,-0.067,-0.084
-0.059,0.022,0.081,0.018,-0.07,0.051,0.238,0.168,0.081,0.013,-0.017,-0.038
-0.049,0.098,0.147,-0.025,-0.098,0.122,0.167,0.161,0.1,0.049,0.012,-0.015
-0.015,0.103,0.118,-0.045,-0.067,0.11,0.099,0.133,0.088,0.046,0.025,-0.014
0.005,0.09,0.085,-0.048,-0.04,0.087,0.062,0.138,0.086,0.04,0.022,-0.017
0.008,0.058,0.05,-0.033,-0.021,0.054,0.029,0.114,0.067,0.034,0.008,-0.012
0.02,0.045,0.026,-0.033,-0.004,0.035,0.01,0.116,0.07,0.028,-0.004,-0.023
0.007,0.042,0.035,-0.025,-0.014,0.038,0.031,0.205,0.112,0.033,-0.008,-0.04
0.093,0.04,-0.053,-0.066,0.073,-0.007,0.044,0.406,0.346,0.221,0.108,0.024
0.325,0.254,-0.071,-0.289,0.198,0.091,-0.169,-0.039,0.458,0.598,0.552,0.399
0.875,0.552,-0.322,-0.713,0.598,0.115,-0.823,-1.397,0.005,0.704,0.832,0.83
0.77,0.305,-0.465,-0.537,0.617,-0.08,-0.744,-1.845,-0.712,-0.058,0.152,0.47
-0.189,-0.275,-0.086,0.232,-0.051,-0.18,0.025,-1.294,-1.12,-0.902,-0.637,-0.23
-0.372,-0.365,0.007,0.369,-0.189,-0.179,0.187,-0.689,-0.717,-0.682,-0.536,-0.318
-0.156,-0.249,-0.093,0.203,-0.031,-0.17,0.128,-0.139,-0.217,-0.276,-0.267,-0.215
-0.192,-0.258,-0.066,0.225,-0.063,-0.162,0.095,0.014,-0.139,-0.22,-0.264,-0.227
-0.137,-0.243,-0.105,0.191,-0.016,-0.174,0.048,0.044,-0.123,-0.193,-0.258,-0.214
-0.106,-0.261,-0.155,0.184,0.025,-0.207,0.073,0.084,-0.139,-0.215,-0.264,-0.227
-0.098,-0.27,-0.172,0.185,0.037,-0.221,0.059,0.062,-0.13,-0.199,-0.268,-0.236
-0.061,-0.251,-0.191,0.156,0.065,-0.221,0.069,0.093,-0.096,-0.193,-0.236,-0.213
-0.036,-0.182,-0.146,0.109,0.056,-0.164,0.063,0.136,-0.051,-0.151,-0.183,-0.169
-0.017,-0.077,-0.059,0.047,0.021,-0.068,0.075,0.178,0.001,-0.086,-0.124,-0.131
-0.046,-0.013,0.033,0.03,-0.039,0.01,0.198,0.239,0.057,-0.04,-0.074,-0.107
-0.063,0.059,0.123,0.002,-0.093,0.091,0.195,0.258,0.091,-0.006,-0.046,-0.083
-0.045,0.099,0.144,-0.027,-0.095,0.122,0.074,0.253,0.105,0.013,-0.031,-0.058
-0.043,0.085,0.128,-0.021,-0.086,0.106,0.041,0.256,0.106,0.036,-0.024,-0.048
-0.013,0.082,0.096,-0.034,-0.055,0.089,0.023,0.254,0.09,0.025,-0.026,-0.048
-0.01,0.073,0.083,-0.032,-0.046,0.078,0.011,0.256,0.081,0.007,-0.023,-0.042
0.003,0.068,0.064,-0.036,-0.031,0.066,0.009,0.247,0.069,-0.005,-0.03,-0.041
0.021,0.063,0.041,-0.043,-0.01,0.052,0.016,0.233,0.064,-0.009,-0.028,-0.033
0.011,0.057,0.046,-0.034,-0.017,0.051,0.016,0.22,0.059,-0.001,-0.013,-0.013
0.017,0.054,0.037,-0.036,-0.01,0.045,0.0,0.204,0.055,0.017,-0.005,-0.004
0.009,0.047,0.038,-0.029,-0.014,0.042,0.0,0.184,0.05,0.034,-0.002,-0.005
0.018,0.046,0.028,-0.033,-0.006,0.037,0.016,0.173,0.047,0.016,-0.009,-0.011
0.01,0.014,0.003,-0.012,0.003,0.008,0.04,0.159,0.029,-0.023,-0.036,-0.026
0.003,-0.035,-0.037,0.016,0.02,-0.036,0.054,0.128,-0.018,-0.052,-0.066,-0.058
-0.006,-0.062,-0.056,0.035,0.025,-0.059,0.061,0.083,-0.058,-0.091,-0.103,-0.087
-0.064,-0.122,-0.058,0.093,-0.003,-0.089,0.053,0.032,-0.097,-0.145,-0.155,-0.118
-0.068,-0.188,-0.12,0.128,0.026,-0.153,0.052,0.017,-0.127,-0.174,-0.189,-0.154
-0.054,-0.21,-0.156,0.132,0.051,-0.183,0.048,0.009,-0.133,-0.183,-0.2,-0.163
-0.056,-0.201,-0.145,0.129,0.045,-0.173,0.042,0.03,-0.121,-0.165,-0.183,-0.159
-0.022,-0.139,-0.117,0.081,0.048,-0.128,0.069,0.076,-0.072,-0.124,-0.144,-0.133
0.024,-0.036,-0.059,0.006,0.042,-0.047,0.105,0.113,-0.014,-0.076,-0.101,-0.086
-0.018,0.017,0.035,0.001,-0.027,0.026,0.222,0.158,0.026,-0.036,-0.062,-0.045
-0.072,0.051,0.123,0.01,-0.098,0.087,0.256,0.178,0.066,0.0,-0.025,-0.01
-0.005,0.114,0.119,-0.055,-0.062,0.117,0.143,0.162,0.076,0.025,0.0,0.0
0.033,0.131,0.098,-0.082,-0.033,0.114,0.094,0.149,0.079,0.034,0.0,0.002
-0.003,0.103,0.106,-0.05,-0.054,0.104,0.088,0.14,0.075,0.025,-0.001,-0.003
0.021,0.067,0.046,-0.044,-0.012,0.056,0.037,0.102,0.065,0.029,0.002,-0.002
0.026,0.06,0.034,-0.043,-0.004,0.047,0.036,0.127,0.071,0.02,-0.005,-0.01
0.048,0.057,0.009,-0.053,0.02,0.033,0.081,0.261,0.137,0.059,0.007,-0.018
0.122,0.081,-0.041,-0.102,0.081,0.02,0.065,0.412,0.391,0.311,0.19,0.1
0.456,0.352,-0.104,-0.403,0.28,0.124,-0.327,-0.354,0.37,0.671,0.665,0.547
1.01,0.584,-0.426,-0.797,0.718,0.079,-0.898,-1.634,-0.17,0.586,0.73,0.828
0.533,0.143,-0.391,-0.338,0.462,-0.124,-0.52,-1.71,-0.897,-0.365,-0.142,0.256
-0.299,-0.354,-0.055,0.327,-0.122,-0.204,0.162,-1.108,-1.098,-0.923,-0.69,-0.292
-0.25,-0.294,-0.044,0.272,-0.103,-0.169,0.198,-0.499,-0.545,-0.519,-0.429,-0.264
-0.128,-0.229,-0.101,0.179,-0.013,-0.164,0.135,-0.037,-0.202,-0.259,-0.268,-0.206
-0.128,-0.234,-0.106,0.182,-0.011,-0.17,0.091,0.052,-0.145,-0.223,-0.259,-0.189
-0.106,-0.226,-0.12,0.166,0.007,-0.173,0.072,0.09,-0.103,-0.214,-0.245,-0.208
-0.094,-0.257,-0.163,0.176,0.035,-0.21,0.082,0.09,-0.108,-0.215,-0.246,-0.22
-0.063,-0.263,-0.2,0.164,0.069,-0.231,0.061,0.078,-0.092,-0.203,-0.233,-0.213
-0.042,-0.255,-0.212,0.149,0.085,-0.233,0.074,0.122,-0.088,-0.191,-0.209,-0.2
-0.001,-0.156,-0.156,0.079,0.078,-0.156,0.067,0.163,-0.031,-0.117,-0.151,-0.147
0.005,-0.053,-0.058,0.024,0.032,-0.055,0.157,0.214,0.029,-0.061,-0.097,-0.112
-0.044,0.002,0.046,0.021,-0.045,0.023,0.288,0.271,0.073,-0.022,-0.056,-0.069
-0.039,0.075,0.114,-0.018,-0.077,0.094,0.185,0.282,0.103,0.014,-0.023,-0.033
0.001,0.109,0.108,-0.055,-0.054,0.109,0.078,0.278,0.124,0.035,-0.004,-0.023
-0.013,0.096,0.109,-0.042,-0.061,0.102,0.065,0.281,0.117,0.034,-0.008,-0.019
0.005,0.09,0.085,-0.047,-0.041,0.087,0.033,0.279,0.1,0.025,-0.015,-0.015
0.019,0.083,0.064,-0.051,-0.023,0.073,0.028,0.281,0.096,0.019,-0.019,-0.01
0.018,0.078,0.06,-0.048,-0.021,0.069,0.016,0.268,0.084,0.013,-0.021,-0.005
0.019,0.072,0.053,-0.046,-0.017,0.062,0.011,0.252,0.077,0.004,-0.02,-0.001
0.025,0.064,0.039,-0.044,-0.007,0.051,0.002,0.235,0.068,0.017,-0.018,0.011
0.038,0.057,0.019,-0.047,0.009,0.038,0.006,0.212,0.059,0.025,-0.008,0.017
0.035,0.046,0.012,-0.041,0.011,0.029,0.03,0.19,0.051,0.011,0.003,0.012
0.041,0.043,0.003,-0.042,0.019,0.023,0.043,0.165,0.041,-0.001,-0.013,-0.008
0.014,0.007,-0.007,-0.01,0.01,0.0,0.055,0.144,0.022,-0.03,-0.045,-0.031
-0.005,-0.032,-0.027,0.018,0.012,-0.029,0.057,0.109,-0.014,-0.059,-0.075,-0.051
-0.011,-0.057,-0.046,0.035,0.017,-0.051,0.063,0.078,-0.067,-0.105,-0.117,-0.089
-0.049,-0.126,-0.077,0.088,0.014,-0.101,0.072,0.063,-0.103,-0.149,-0.163,-0.121
-0.055,-0.175,-0.12,0.115,0.033,-0.147,0.091,0.054,-0.12,-0.17,-0.185,-0.151
-0.046,-0.192,-0.146,0.119,0.05,-0.169,0.091,0.053,-0.124,-0.187,-0.189,-0.164
-0.028,-0.182,-0.154,0.105,0.064,-0.168,0.102,0.068,-0.103,-0.158,-0.174,-0.138
0.01,-0.105,-0.116,0.048,0.063,-0.11,0.124,0.113,-0.059,-0.103,-0.12,-0.101
-0.004,-0.04,-0.036,0.022,0.016,-0.038,0.166,0.154,-0.002,-0.057,-0.073,-0.06
-0.032,0.008,0.041,0.012,-0.036,0.025,0.279,0.186,0.044,-0.014,-0.045,-0.025
-0.015,0.097,0.112,-0.041,-0.064,0.104,0.243,0.203,0.082,0.011,-0.016,-0.009
0.0,0.129,0.129,-0.065,-0.065,0.129,0.127,0.171,0.082,0.018,0.01,-0.007
0.024,0.118,0.093,-0.071,-0.035,0.105,0.092,0.175,0.085,0.033,0.016,-0.003
0.025,0.093,0.068,-0.06,-0.021,0.08,0.06,0.177,0.074,0.037,0.01,-0.001
0.055,0.069,0.015,-0.062,0.02,0.042,0.025,0.167,0.074,0.05,0.0,0.007
0.074,0.071,-0.003,-0.073,0.039,0.034,0.049,0.207,0.076,0.038,-0.018,-0.009
0.09,0.055,-0.035,-0.072,0.062,0.01,0.094,0.367,0.214,0.122,0.035,-0.013
0.187,0.15,-0.037,-0.168,0.112,0.056,0.021,0.347,0.456,0.432,0.32,0.213
0.664,0.437,-0.227,-0.55,0.445,0.105,-0.528,-0.776,0.228,0.7,0.739,0.668
0.995,0.474,-0.521,-0.734,0.758,-0.024,-0.881,-1.825,-0.439,0.297,0.457,0.667
0.187,-0.076,-0.263,-0.055,0.225,-0.169,-0.217,-1.547,-1.076,-0.702,-0.439,0.001
-0.395,-0.401,-0.006,0.398,-0.194,-0.204,0.223,-0.905,-0.966,-0.867,-0.646,-0.338
-0.206,-0.266,-0.06,0.237,-0.073,-0.163,0.13,-0.294,-0.37,-0.377,-0.351,-0.229
-0.16,-0.234,-0.074,0.197,-0.043,-0.154,0.106,0.046,-0.166,-0.245,-0.258,-0.213
-0.147,-0.234,-0.087,0.191,-0.029,-0.161,0.054,0.079,-0.122,-0.216,-0.225,-0.215
-0.12,-0.244,-0.124,0.182,0.002,-0.184,0.07,0.093,-0.115,-0.216,-0.241,-0.219
-0.109,-0.278,-0.169,0.193,0.03,-0.223,0.073,0.075,-0.129,-0.211,-0.254,-0.213
-0.102,-0.277,-0.175,0.19,0.037,-0.226,0.063,0.088,-0.112,-0.202,-0.243,-0.206
-0.04,-0.204,-0.164,0.122,0.062,-0.184,0.082,0.139,-0.077,-0.169,-0.213,-0.187
-0.015,-0.098,-0.084,0.057,0.035,-0.091,0.101,0.199,-0.006,-0.103,-0.151,-0.138
-0.059,-0.054,0.005,0.057,-0.032,-0.024,0.223,0.26,0.039,-0.069,-0.112,-0.11
-0.057,0.016,0.073,0.02,-0.065,0.045,0.26,0.305,0.083,-0.022,-0.069,-0.072
-0.037,0.095,0.132,-0.029,-0.085,0.113,0.125,0.3,0.11,-0.003,-0.055,-0.051
-0.02,0.106,0.127,-0.043,-0.074,0.116,0.065,0.294,0.114,0.004,-0.052,-0.05
-0.016,0.087,0.103,-0.036,-0.06,0.095,0.041,0.29,0.105,0.012,-0.048,-0.05
-0.022,0.062,0.084,-0.02,-0.053,0.073,0.008,0.282,0.097,0.011,-0.045,-0.045
-0.014,0.053,0.068,-0.019,-0.041,0.06,0.017,0.28,0.089,-0.007,-0.039,-0.045
-0.004,0.051,0.055,-0.024,-0.029,0.053,0.037,0.269,0.083,-0.028,-0.049,-0.044
-0.003,0.044,0.048,-0.021,-0.026,0.046,0.043,0.261,0.075,-0.019,-0.044,-0.028
-0.001,0.04,0.041,-0.019,-0.021,0.04,0.037,0.243,0.067,0.002,-0.032,-0.022
-0.002,0.033,0.035,-0.016,-0.019,0.034,0.043,0.214,0.062,0.008,-0.038,-0.027
0.002,0.029,0.026,-0.016,-0.012,0.027,0.037,0.195,0.048,0.002,-0.042,-0.029
-0.01,0.014,0.024,-0.002,-0.017,0.019,0.044,0.167,0.034,-0.017,-0.047,-0.032
-0.023,-0.019,0.004,0.021,-0.013,-0.007,0.056,0.125,0.01,-0.054,-0.082,-0.062
-0.033,-0.065,-0.032,0.049,0.0,-0.049,0.064,0.094,-0.034,-0.094,-0.122,-0.096
-0.051,-0.116,-0.065,0.083,0.007,-0.09,0.079,0.083,-0.083,-0.135,-0.158,-0.128
-0.073,-0.178,-0.105,0.126,0.016,-0.141,0.088,0.086,-0.108,-0.178,-0.206,-0.163
-0.089,-0.221,-0.133,0.155,0.022,-0.177,0.083,0.085,-0.137,-0.205,-0.227,-0.179
-0.066,-0.22,-0.154,0.143,0.044,-0.187,0.064,0.085,-0.147,-0.206,-0.225,-0.178
-0.047,-0.171,-0.124,0.109,0.038,-0.148,0.093,0.087,-0.105,-0.163,-0.193,-0.151
-0.018,-0.075,-0.057,0.047,0.02,-0.065,0.116,0.11,-0.045,-0.104,-0.137,-0.104
-0.037,-0.014,0.022,0.025,-0.029,0.004,0.203,0.157,0.012,-0.077,-0.089,-0.067
-0.071,0.038,0.109,0.016,-0.09,0.073,0.254,0.185,0.041,-0.043,-0.053,-0.047
-0.039,0.109,0.148,-0.035,-0.094,0.128,0.159,0.182,0.056,-0.018,-0.035,-0.039
0.008,0.13,0.122,-0.069,-0.057,0.125,0.1,0.157,0.059,-0.003,-0.034,-0.035
0.018,0.11,0.092,-0.064,-0.037,0.101,0.074,0.164,0.058,0.009,-0.039,-0.034
0.03,0.083,0.053,-0.057,-0.011,0.068,0.019,0.136,0.048,0.001,-0.042,-0.027
0.063,0.093,0.03,-0.078,0.016,0.061,0.019,0.138,0.053,-0.002,-0.045,-0.025
0.05,0.087,0.037,-0.069,0.007,0.062,0.078,0.229,0.085,0.004,-0.052,-0.042
0.097,0.101,0.004,-0.099,0.046,0.052,0.091,0.435,0.32,0.202,0.073,0.016
0.314,0.281,-0.034,-0.298,0.174,0.123,-0.155,-0.011,0.42,0.553,0.485,0.367
0.916,0.566,-0.35,-0.741,0.633,0.108,-0.807,-1.371,-0.013,0.632,0.72,0.753
0.807,0.334,-0.473,-0.57,0.639,-0.069,-0.723,-1.863,-0.744,-0.133,0.06,0.398
-0.201,-0.275,-0.074,0.238,-0.063,-0.175,0.031,-1.338,-1.181,-0.958,-0.693,-0.26
-0.382,-0.339,0.043,0.36,-0.212,-0.147,0.177,-0.673,-0.733,-0.683,-0.56,-0.331
-0.17,-0.195,-0.025,0.182,-0.072,-0.11,0.12,-0.112,-0.24,-0.294,-0.299,-0.232
-0.159,-0.176,-0.017,0.168,-0.071,-0.096,0.104,0.058,-0.176,-0.271,-0.283,-0.242
-0.109,-0.179,-0.07,0.144,-0.019,-0.124,0.064,0.089,-0.149,-0.244,-0.267,-0.236
-0.105,-0.234,-0.129,0.17,0.012,-0.181,0.094,0.091,-0.162,-0.253,-0.273,-0.248
-0.076,-0.22,-0.144,0.148,0.034,-0.181,0.069,0.089,-0.149,-0.241,-0.265,-0.236
-0.066,-0.206,-0.14,0.137,0.037,-0.173,0.088,0.124,-0.115,-0.225,-0.256,-0.219
-0.009,-0.125,-0.116,0.067,0.054,-0.12,0.097,0.166,-0.063,-0.146,-0.195,-0.18
-0.01,-0.016,-0.006,0.013,-0.002,-0.011,0.144,0.216,-0.002,-0.087,-0.127,-0.132
-0.052,0.035,0.087,0.008,-0.07,0.061,0.279,0.286,0.058,-0.055,-0.086,-0.09
-0.048,0.099,0.147,-0.025,-0.098,0.123,0.181,0.313,0.089,-0.016,-0.049,-0.053
-0.038,0.131,0.168,-0.047,-0.103,0.149,0.06,0.295,0.104,-0.002,-0.035,-0.044
-0.023,0.135,0.158,-0.056,-0.091,0.146,0.079,0.292,0.107,0.018,-0.034,-0.045
-0.009,0.13,0.138,-0.061,-0.074,0.134,0.057,0.279,0.095,0.018,-0.039,-0.045
-0.011,0.094,0.105,-0.041,-0.058,0.099,0.056,0.272,0.084,-0.006,-0.04,-0.045
-0.036,0.078,0.114,-0.022,-0.075,0.096,0.047,0.266,0.063,-0.011,-0.033,-0.046
-0.035,0.078,0.113,-0.022,-0.075,0.095,0.04,0.26,0.056,-0.002,-0.026,-0.038
-0.006,0.081,0.087,-0.038,-0.047,0.084,0.033,0.256,0.052,0.003,-0.019,-0.02
0.031,0.096,0.065,-0.064,-0.018,0.08,0.025,0.243,0.045,0.011,-0.015,-0.019
0.027,0.087,0.06,-0.057,-0.017,0.073,0.033,0.225,0.04,0.012,-0.016,-0.022
0.015,0.067,0.052,-0.041,-0.019,0.059,0.065,0.199,0.036,-0.007,-0.022,-0.017
0.014,0.048,0.034,-0.031,-0.01,0.041,0.085,0.162,0.015,-0.034,-0.049,-0.037
0.003,0.008,0.005,-0.006,-0.001,0.007,0.073,0.12,-0.024,-0.064,-0.08,-0.067
-0.017,-0.04,-0.023,0.029,0.003,-0.031,0.079,0.08,-0.077,-0.112,-0.125,-0.093
-0.043,-0.098,-0.055,0.07,0.006,-0.076,0.067,0.057,-0.112,-0.153,-0.168,-0.131
-0.052,-0.161,-0.109,0.107,0.028,-0.135,0.075,0.062,-0.129,-0.179,-0.186,-0.161
-0.044,-0.181,-0.137,0.113,0.047,-0.159,0.061,0.057,-0.142,-0.188,-0.203,-0.164
-0.035,-0.18,-0.145,0.107,0.056,-0.162,0.073,0.064,-0.119,-0.176,-0.19,-0.151
-0.003,-0.108,-0.104,0.056,0.051,-0.106,0.112,0.11,-0.069,-0.13,-0.138,-0.13
-0.002,-0.016,-0.014,0.009,0.007,-0.015,0.156,0.155,-0.02,-0.065,-0.08,-0.091
-0.058,0.017,0.074,0.02,-0.066,0.045,0.254,0.187,0.008,-0.025,-0.039,-0.051
-0.052,0.096,0.149,-0.022,-0.101,0.122,0.202,0.208,0.047,0.004,-0.01,-0.026
-0.01,0.14,0.15,-0.066,-0.08,0.145,0.112,0.182,0.072,0.023,0.011,-0.024
0.011,0.115,0.104,-0.063,-0.047,0.109,0.099,0.176,0.075,0.034,0.012,-0.025
0.01,0.1,0.09,-0.056,-0.04,0.095,0.058,0.168,0.053,0.026,0.004,-0.025
0.016,0.08,0.063,-0.048,-0.024,0.071,0.003,0.129,0.05,0.034,-0.009,-0.025
-0.007,0.042,0.049,-0.018,-0.028,0.045,0.046,0.172,0.055,0.025,-0.022,-0.027
0.066,0.045,-0.021,-0.056,0.043,0.012,0.095,0.35,0.177,0.095,0.025,-0.02
0.171,0.15,-0.021,-0.161,0.095,0.065,0.029,0.377,0.443,0.414,0.301,0.171
0.61,0.427,-0.183,-0.518,0.396,0.121,-0.474,-0.674,0.271,0.711,0.725,0.622
1.066,0.513,-0.553,-0.789,0.809,-0.02,-0.92,-1.809,-0.392,0.355,0.508,0.684
0.297,-0.034,-0.331,-0.131,0.314,-0.182,-0.315,-1.643,-1.093,-0.673,-0.403,0.026
-0.372,-0.402,-0.03,0.387,-0.171,-0.215,0.22,-0.999,-1.054,-0.929,-0.689,-0.36
-0.199,-0.263,-0.064,0.231,-0.067,-0.163,0.14,-0.352,-0.424,-0.405,-0.351,-0.238
-0.167,-0.228,-0.061,0.197,-0.053,-0.144,0.113,0.016,-0.194,-0.243,-0.239,-0.215
-0.139,-0.23,-0.09,0.185,-0.024,-0.16,0.08,0.049,-0.161,-0.223,-0.236,-0.219
-0.103,-0.236,-0.134,0.17,0.016,-0.185,0.072,0.072,-0.137,-0.213,-0.232,-0.221
-0.097,-0.25,-0.153,0.173,0.028,-0.201,0.07,0.066,-0.158,-0.212,-0.24,-0.226
-0.07,-0.229,-0.159,0.149,0.045,-0.194,0.076,0.081,-0.15,-0.197,-0.229,-0.206
-0.022,-0.179,-0.157,0.101,0.068,-0.168,0.097,0.131,-0.11,-0.17,-0.189,-0.184
-0.018,-0.076,-0.057,0.047,0.02,-0.066,0.103,0.17,-0.04,-0.098,-0.119,-0.137
-0.048,-0.015,0.033,0.031,-0.04,0.009,0.229,0.245,0.018,-0.052,-0.066,-0.103
-0.044,0.062,0.106,-0.009,-0.076,0.084,0.266,0.276,0.072,-0.013,-0.036,-0.058
-0.045,0.133,0.178,-0.044,-0.111,0.155,0.136,0.238,0.079,0.001,-0.034,-0.034
-0.02,0.126,0.147,-0.053,-0.084,0.136,0.089,0.232,0.07,0.011,-0.032,-0.036
-0.017,0.11,0.127,-0.047,-0.072,0.118,0.063,0.239,0.065,0.012,-0.027,-0.034
-0.025,0.105,0.13,-0.04,-0.078,0.117,0.044,0.248,0.055,0.009,-0.026,-0.036
-0.014,0.102,0.116,-0.044,-0.066,0.109,0.047,0.241,0.049,0.009,-0.023,-0.034
0.005,0.1,0.095,-0.053,-0.045,0.097,0.042,0.233,0.042,0.004,-0.021,-0.037
-0.004,0.095,0.1,-0.046,-0.052,0.097,0.042,0.227,0.037,0.004,-0.018,-0.04
0.015,0.096,0.081,-0.056,-0.033,0.088,0.039,0.219,0.033,0.008,-0.015,-0.04
0.026,0.087,0.061,-0.057,-0.017,0.073,0.042,0.211,0.028,0.016,-0.013,-0.04
0.008,0.071,0.063,-0.04,-0.028,0.067,0.056,0.184,0.025,0.017,-0.007,-0.04
0.001,0.053,0.052,-0.027,-0.026,0.053,0.064,0.164,0.019,-0.005,-0.026,-0.04
-0.035,0.014,0.049,0.011,-0.042,0.031,0.059,0.139,0.0,-0.033,-0.056,-0.046
-0.042,-0.035,0.008,0.038,-0.025,-0.013,0.048,0.1,-0.056,-0.084,-0.1,-0.085
-0.054,-0.087,-0.033,0.07,-0.01,-0.06,0.055,0.075,-0.112,-0.139,-0.152,-0.125
-0.064,-0.128,-0.063,0.096,0.0,-0.095,0.094,0.069,-0.13,-0.157,-0.168,-0.146
-0.052,-0.175,-0.123,0.113,0.036,-0.149,0.104,0.062,-0.153,-0.183,-0.182,-0.168
-0.033,-0.167,-0.134,0.1,0.051,-0.151,0.105,0.068,-0.142,-0.168,-0.159,-0.165
-0.001,-0.08,-0.079,0.041,0.039,-0.079,0.115,0.096,-0.089,-0.106,-0.108,-0.12
0.014,-0.011,-0.025,-0.002,0.02,-0.018,0.144,0.141,-0.036,-0.061,-0.062,-0.069
-0.019,0.052,0.072,-0.017,-0.046,0.062,0.248,0.178,-0.01,-0.031,-0.011,-0.037
-0.045,0.113,0.158,-0.035,-0.102,0.135,0.248,0.185,0.017,-0.006,0.008,-0.018
-0.006,0.149,0.154,-0.072,-0.08,0.152,0.149,0.172,0.046,0.017,0.022,-0.001
0.02,0.149,0.129,-0.085,-0.055,0.139,0.102,0.156,0.053,0.039,0.032,0.017
0.016,0.124,0.107,-0.07,-0.046,0.115,0.071,0.155,0.048,0.033,0.021,0.014
0.066,0.116,0.05,-0.091,0.008,0.083,0.021,0.119,0.05,0.033,0.016,0.01
0.043,0.088,0.044,-0.066,-0.001,0.066,0.041,0.133,0.05,0.029,0.003,-0.008
0.037,0.07,0.033,-0.053,0.002,0.051,0.087,0.263,0.102,0.055,0.014,-0.025
0.146,0.146,0.0,-0.146,0.072,0.073,0.085,0.427,0.37,0.321,0.211,0.108
0.464,0.375,-0.089,-0.419,0.277,0.142,-0.281,-0.248,0.388,0.689,0.659,0.526
1.032,0.555,-0.477,-0.793,0.754,0.039,-0.871,-1.543,-0.177,0.545,0.675,0.773
0.578,0.114,-0.464,-0.346,0.521,-0.175,-0.531,-1.758,-0.981,-0.447,-0.197,0.212
-0.326,-0.39,-0.064,0.358,-0.131,-0.227,0.134,-1.157,-1.187,-0.991,-0.717,-0.334
-0.311,-0.312,-0.001,0.311,-0.155,-0.156,0.195,-0.498,-0.607,-0.531,-0.421,-0.256
-0.171,-0.203,-0.032,0.187,-0.069,-0.117,0.149,-0.038,-0.244,-0.26,-0.244,-0.184
-0.139,-0.187,-0.047,0.163,-0.046,-0.117,0.082,0.048,-0.202,-0.24,-0.236,-0.196
-0.091,-0.21,-0.119,0.151,0.014,-0.164,0.075,0.077,-0.194,-0.227,-0.219,-0.203
-0.091,-0.241,-0.15,0.166,0.03,-0.196,0.104,0.085,-0.213,-0.244,-0.217,-0.213
-0.094,-0.234,-0.14,0.164,0.024,-0.187,0.078,0.079,-0.198,-0.211,-0.207,-0.19
-0.06,-0.194,-0.134,0.128,0.037,-0.164,0.084,0.117,-0.143,-0.168,-0.179,-0.169
-0.007,-0.076,-0.069,0.042,0.032,-0.072,0.1,0.157,-0.075,-0.118,-0.12,-0.123
-0.032,-0.015,0.016,0.023,-0.024,0.0,0.221,0.208,-0.037,-0.073,-0.093,-0.087
-0.055,0.056,0.111,-0.001,-0.083,0.083,0.27,0.25,0.013,-0.026,-0.049,-0.044
-0.042,0.129,0.171,-0.044,-0.107,0.15,0.14,0.226,0.041,-0.008,-0.02,-0.02
-0.03,0.124,0.154,-0.047,-0.093,0.139,0.087,0.207,0.045,0.012,-0.019,-0.02
-0.033,0.118,0.15,-0.043,-0.092,0.134,0.056,0.204,0.035,0.018,-0.013,-0.015
-0.012,0.11,0.122,-0.049,-0.068,0.116,0.034,0.195,0.018,0.004,-0.012,-0.014
-0.017,0.101,0.119,-0.042,-0.068,0.11,0.044,0.19,0.011,-0.001,-0.005,-0.01
-0.023,0.097,0.12,-0.038,-0.071,0.108,0.038,0.182,0.009,-0.013,-0.007,-0.009
-0.009,0.086,0.095,-0.039,-0.052,0.091,0.047,0.177,0.01,-0.025,-0.017,0.0
0.002,0.094,0.092,-0.048,-0.046,0.093,0.044,0.168,0.01,-0.014,-0.015,0.01
0.016,0.104,0.088,-0.06,-0.036,0.096,0.05,0.159,0.01,-0.008,-0.015,0.02
-0.001,0.091,0.093,-0.045,-0.047,0.092,0.05,0.152,0.011,-0.018,-0.015,0.027
0.002,0.084,0.082,-0.043,-0.041,0.083,0.052,0.141,-0.002,-0.025,-0.014,0.008
0.008,0.066,0.058,-0.037,-0.025,0.061,0.073,0.135,-0.021,-0.03,-0.032,-0.017
-0.013,0.004,0.018,0.004,-0.016,0.011,0.081,0.115,-0.06,-0.079,-0.075,-0.048
-0.042,-0.057,-0.016,0.05,-0.013,-0.036,0.078,0.068,-0.109,-0.131,-0.119,-0.086
-0.059,-0.105,-0.045,0.082,-0.007,-0.075,0.091,0.051,-0.136,-0.15,-0.153,-0.113
-0.072,-0.155,-0.084,0.114,0.006,-0.119,0.103,0.058,-0.168,-0.19,-0.165,-0.132
-0.081,-0.182,-0.101,0.132,0.011,-0.141,0.1,0.05,-0.162,-0.191,-0.155,-0.142
-0.044,-0.133,-0.089,0.089,0.023,-0.111,0.11,0.075,-0.12,-0.154,-0.137,-0.115
0.003,-0.034,-0.037,0.016,0.02,-0.035,0.11,0.116,-0.071,-0.093,-0.09,-0.063
0.011,0.048,0.037,-0.029,-0.013,0.042,0.185,0.16,-0.015,-0.034,-0.035,-0.036
-0.042,0.095,0.137,-0.027,-0.09,0.116,0.27,0.195,0.017,-0.009,0.002,-0.011
-0.046,0.145,0.191,-0.05,-0.119,0.168,0.21,0.178,0.044,0.021,0.031,0.018
0.023,0.185,0.162,-0.104,-0.07,0.173,0.126,0.134,0.053,0.045,0.047,0.037
0.013,0.17,0.157,-0.092,-0.072,0.164,0.098,0.139,0.053,0.054,0.057,0.039
0.008,0.139,0.131,-0.074,-0.062,0.135,0.035,0.107,0.043,0.048,0.063,0.027
0.036,0.125,0.089,-0.081,-0.027,0.107,0.008,0.087,0.035,0.032,0.053,0.018
0.048,0.111,0.063,-0.08,-0.008,0.086,0.064,0.183,0.068,0.033,0.032,0.006
0.121,0.136,0.014,-0.128,0.053,0.075,0.079,0.384,0.288,0.229,0.158,0.078
0.361,0.316,-0.045,-0.338,0.203,0.135,-0.107,0.099,0.412,0.581,0.561,0.438
0.93,0.553,-0.377,-0.741,0.653,0.088,-0.719,-1.161,-0.042,0.584,0.736,0.815
0.771,0.372,-0.399,-0.571,0.585,-0.014,-0.692,-1.718,-0.749,-0.134,0.119,0.476
-0.187,-0.139,0.048,0.163,-0.117,-0.046,0.091,-1.164,-1.079,-0.859,-0.571,-0.16
-0.382,-0.276,0.106,0.328,-0.244,-0.085,0.265,-0.659,-0.732,-0.672,-0.505,-0.263
-0.21,-0.181,0.029,0.195,-0.119,-0.076,0.17,-0.19,-0.283,-0.275,-0.242,-0.167
-0.203,-0.179,0.024,0.191,-0.113,-0.077,0.152,0.031,-0.141,-0.204,-0.196,-0.155
-0.136,-0.155,-0.019,0.146,-0.058,-0.087,0.089,0.051,-0.115,-0.186,-0.191,-0.154
-0.112,-0.173,-0.061,0.143,-0.025,-0.117,0.092,0.069,-0.153,-0.191,-0.203,-0.177
-0.092,-0.2,-0.108,0.147,0.008,-0.154,0.098,0.073,-0.156,-0.182,-0.191,-0.175
-0.074,-0.195,-0.121,0.135,0.024,-0.158,0.11,0.084,-0.15,-0.21,-0.195,-0.17
-0.052,-0.14,-0.089,0.097,0.019,-0.114,0.109,0.11,-0.088,-0.165,-0.169,-0.147
-0.009,-0.023,-0.014,0.016,0.003,-0.019,0.101,0.166,-0.006,-0.072,-0.092,-0.093
-0.019,0.045,0.064,-0.013,-0.042,0.054,0.209,0.195,0.042,-0.039,-0.045,-0.057
-0.076,0.092,0.168,-0.008,-0.122,0.13,0.3,0.237,0.097,-0.004,-0.009,-0.028
-0.066,0.151,0.217,-0.043,-0.142,0.184,0.178,0.225,0.115,0.028,0.019,-0.004
-0.054,0.169,0.223,-0.058,-0.139,0.196,0.085,0.207,0.118,0.048,0.034,-0.001
-0.047,0.156,0.203,-0.055,-0.125,0.179,0.047,0.206,0.111,0.052,0.037,0.007
-0.016,0.138,0.154,-0.061,-0.086,0.146,0.025,0.198,0.103,0.041,0.033,0.011
-0.014,0.129,0.143,-0.058,-0.079,0.136,0.031,0.196,0.098,0.044,0.037,0.017
-0.017,0.122,0.14,-0.053,-0.079,0.131,0.017,0.19,0.09,0.046,0.033,0.029
-0.019,0.116,0.135,-0.049,-0.077,0.125,0.018,0.179,0.088,0.044,0.035,0.04
-0.023,0.109,0.131,-0.043,-0.077,0.12,0.008,0.148,0.104,0.066,0.06,0.057
-0.019,0.103,0.123,-0.042,-0.071,0.113,0.025,0.129,0.105,0.086,0.07,0.06
-0.01,0.096,0.106,-0.043,-0.058,0.101,0.046,0.106,0.092,0.069,0.057,0.054
0.005,0.096,0.09,-0.051,-0.043,0.093,0.046,0.065,0.061,0.01,0.033,0.037
-0.007,0.066,0.073,-0.029,-0.04,0.069,0.054,0.032,0.006,-0.016,-0.02,0.004
-0.03,0.018,0.049,0.006,-0.04,0.033,0.052,0.008,-0.033,-0.052,-0.072,-0.025
-0.043,-0.018,0.026,0.03,-0.034,0.004,0.061,-0.003,-0.071,-0.102,-0.089,-0.052
-0.068,-0.084,-0.015,0.076,-0.026,-0.049,0.074,-0.015,-0.102,-0.116,-0.121,-0.09
-0.075,-0.12,-0.045,0.098,-0.015,-0.082,0.077,-0.033,-0.114,-0.136,-0.135,-0.116
-0.077,-0.147,-0.07,0.112,-0.004,-0.108,0.072,-0.035,-0.13,-0.161,-0.158,-0.113
-0.056,-0.131,-0.075,0.094,0.01,-0.103,0.07,0.001,-0.1,-0.122,-0.146,-0.089
-0.016,-0.035,-0.019,0.026,0.001,-0.027,0.072,0.041,-0.045,-0.055,-0.06,-0.051
-0.007,0.044,0.051,-0.019,-0.029,0.047,0.096,0.081,0.008,-0.014,-0.01,0.0
-0.026,0.096,0.122,-0.035,-0.075,0.109,0.208,0.122,0.057,0.032,0.025,0.033
-0.042,0.143,0.185,-0.051,-0.114,0.163,0.221,0.123,0.083,0.052,0.043,0.052
-0.01,0.202,0.213,-0.096,-0.112,0.207,0.098,0.082,0.119,0.112,0.097,0.083
0.018,0.21,0.193,-0.114,-0.088,0.201,0.05,0.072,0.119,0.125,0.11,0.09
0.02,0.183,0.163,-0.102,-0.072,0.173,0.023,0.059,0.085,0.078,0.078,0.081
0.064,0.176,0.111,-0.12,-0.024,0.143,-0.021,0.028,0.088,0.081,0.078,0.076
0.065,0.156,0.091,-0.111,-0.013,0.123,0.028,0.088,0.079,0.05,0.046,0.08
0.105,0.143,0.039,-0.124,0.033,0.091,0.047,0.246,0.22,0.158,0.096,0.078
0.209,0.211,0.002,-0.21,0.103,0.106,-0.039,0.22,0.433,0.48,0.412,0.287
0.656,0.523,-0.133,-0.59,0.395,0.195,-0.574,-0.81,0.16,0.711,0.855,0.839
0.971,0.599,-0.373,-0.785,0.672,0.113,-0.923,-1.755,-0.453,0.348,0.595,0.882
0.179,0.054,-0.125,-0.116,0.152,-0.035,-0.226,-1.37,-0.953,-0.564,-0.302,0.131
-0.371,-0.256,0.115,0.314,-0.243,-0.07,0.227,-0.826,-0.887,-0.805,-0.57,-0.27
-0.209,-0.173,0.035,0.191,-0.122,-0.069,0.126,-0.386,-0.365,-0.344,-0.282,-0.171
-0.156,-0.141,0.015,0.148,-0.085,-0.063,0.098,-0.043,-0.11,-0.178,-0.161,-0.15
-0.121,-0.129,-0.007,0.125,-0.057,-0.068,0.063,0.002,-0.085,-0.176,-0.166,-0.142
-0.121,-0.166,-0.045,0.144,-0.038,-0.105,0.072,0.012,-0.094,-0.172,-0.182,-0.135
-0.098,-0.2,-0.102,0.149,0.002,-0.15,0.071,-0.012,-0.099,-0.178,-0.18,-0.13
-0.091,-0.216,-0.125,0.153,0.017,-0.17,0.068,-0.005,-0.082,-0.143,-0.169,-0.122
-0.054,-0.176,-0.122,0.116,0.034,-0.149,0.072,0.04,-0.042,-0.117,-0.135,-0.112
-0.017,-0.076,-0.059,0.046,0.021,-0.067,0.077,0.095,0.026,-0.068,-0.078,-0.068
-0.027,0.027,0.055,0.0,-0.041,0.041,0.114,0.149,0.082,-0.013,-0.025,-0.043
-0.051,0.086,0.136,-0.018,-0.094,0.111,0.221,0.206,0.129,0.048,0.019,-0.02
-0.083,0.122,0.205,-0.019,-0.144,0.163,0.178,0.202,0.163,0.079,0.038,0.005
-0.05,0.182,0.231,-0.066,-0.141,0.206,0.051,0.172,0.165,0.094,0.061,0.032
-0.055,0.163,0.218,-0.054,-0.137,0.19,0.044,0.173,0.153,0.111,0.07,0.046
-0.077,0.127,0.205,-0.025,-0.141,0.166,0.028,0.165,0.145,0.095,0.056,0.047
-0.055,0.132,0.187,-0.039,-0.121,0.16,0.021,0.163,0.136,0.078,0.044,0.05
-0.044,0.128,0.172,-0.042,-0.108,0.15,0.017,0.158,0.14,0.06,0.043,0.054
-0.03,0.126,0.156,-0.048,-0.093,0.141,0.01,0.152,0.139,0.06,0.052,0.054
-0.016,0.124,0.14,-0.055,-0.078,0.132,0.01,0.126,0.141,0.072,0.073,0.062
-0.009,0.124,0.133,-0.058,-0.071,0.128,0.0,0.091,0.137,0.071,0.07,0.078
0.0,0.127,0.126,-0.064,-0.063,0.126,0.002,0.064,0.147,0.105,0.07,0.071
-0.017,0.106,0.123,-0.045,-0.07,0.115,0.007,0.034,0.109,0.089,0.092,0.058
-0.035,0.065,0.101,-0.015,-0.068,0.083,0.013,0.013,0.044,0.02,0.057,0.045
-0.02,0.031,0.052,-0.006,-0.036,0.041,0.019,-0.006,0.027,0.011,0.002,0.021
-0.028,-0.001,0.027,0.014,-0.027,0.013,0.015,-0.039,-0.017,-0.015,-0.027,0.0
-0.067,-0.064,0.003,0.066,-0.035,-0.03,0.011,-0.073,-0.058,-0.067,-0.058,-0.031
-0.074,-0.121,-0.046,0.098,-0.014,-0.083,0.001,-0.07,-0.075,-0.107,-0.098,-0.069
-0.062,-0.148,-0.086,0.105,0.012,-0.117,0.004,-0.069,-0.102,-0.151,-0.118,-0.083
-0.052,-0.147,-0.095,0.099,0.022,-0.121,0.008,-0.061,-0.089,-0.127,-0.104,-0.08
-0.015,-0.087,-0.072,0.051,0.029,-0.079,0.033,-0.016,-0.033,-0.056,-0.068,-0.052
0.019,0.007,-0.013,-0.013,0.016,-0.003,0.056,0.029,0.018,-0.022,-0.017,0.003
-0.012,0.082,0.094,-0.035,-0.054,0.088,0.127,0.084,0.081,0.056,0.056,0.055
-0.041,0.12,0.16,-0.04,-0.101,0.14,0.22,0.104,0.129,0.128,0.092,0.08
-0.015,0.174,0.189,-0.08,-0.102,0.181,0.125,0.067,0.138,0.125,0.108,0.1
0.003,0.19,0.187,-0.097,-0.092,0.188,0.029,0.044,0.158,0.131,0.129,0.114
-0.013,0.152,0.166,-0.07,-0.09,0.159,0.016,0.035,0.139,0.102,0.108,0.106
0.013,0.142,0.129,-0.078,-0.059,0.135,-0.042,0.001,0.106,0.098,0.095,0.101
0.004,0.118,0.114,-0.061,-0.055,0.116,-0.016,0.035,0.124,0.114,0.083,0.096
0.017,0.111,0.094,-0.065,-0.039,0.103,0.005,0.135,0.19,0.156,0.105,0.087
0.142,0.145,0.003,-0.144,0.069,0.074,-0.023,0.295,0.419,0.377,0.278,0.185
0.424,0.401,-0.024,-0.412,0.224,0.188,-0.333,-0.299,0.365,0.717,0.79,0.692
0.919,0.678,-0.241,-0.798,0.58,0.218,-0.902,-1.514,-0.181,0.71,0.965,1.092
0.518,0.26,-0.258,-0.389,0.388,0.001,-0.558,-1.575,-0.79,-0.166,0.072,0.498
-0.319,-0.26,0.059,0.29,-0.189,-0.101,0.129,-1.0,-0.991,-0.833,-0.602,-0.2
-0.309,-0.248,0.061,0.278,-0.185,-0.094,0.108,-0.579,-0.554,-0.501,-0.395,-0.2
-0.179,-0.164,0.015,0.171,-0.096,-0.074,0.039,-0.154,-0.154,-0.186,-0.177,-0.114
-0.134,-0.135,-0.001,0.135,-0.066,-0.068,0.031,-0.029,-0.065,-0.129,-0.125,-0.109
-0.076,-0.138,-0.062,0.107,-0.007,-0.1,0.005,-0.003,-0.037,-0.105,-0.125,-0.099
-0.085,-0.173,-0.088,0.129,0.002,-0.13,0.004,0.016,-0.051,-0.12,-0.139,-0.118
-0.065,-0.189,-0.125,0.128,0.03,-0.157,-0.027,0.02,-0.067,-0.135,-0.151,-0.118
-0.049,-0.181,-0.132,0.115,0.041,-0.156,-0.024,0.034,-0.031,-0.108,-0.138,-0.113
-0.023,-0.125,-0.102,0.074,0.04,-0.113,0.014,0.068,0.012,-0.05,-0.073,-0.085
0.005,-0.008,-0.012,0.002,0.009,-0.01,0.047,0.127,0.058,0.008,-0.021,-0.033
-0.027,0.068,0.095,-0.021,-0.062,0.081,0.139,0.189,0.122,0.092,0.016,0.005
-0.065,0.11,0.175,-0.023,-0.12,0.143,0.177,0.204,0.141,0.113,0.055,0.034
-0.039,0.178,0.216,-0.07,-0.128,0.197,0.055,0.171,0.162,0.136,0.094,0.054
-0.025,0.183,0.208,-0.079,-0.117,0.195,0.002,0.188,0.157,0.157,0.094,0.055
-0.005,0.162,0.167,-0.079,-0.086,0.164,-0.006,0.196,0.17,0.148,0.089,0.054
0.007,0.144,0.137,-0.076,-0.065,0.14,-0.02,0.193,0.189,0.118,0.096,0.056
0.001,0.138,0.137,-0.069,-0.068,0.137,-0.03,0.197,0.175,0.089,0.096,0.053
-0.003,0.141,0.144,-0.07,-0.073,0.142,-0.029,0.193,0.177,0.114,0.101,0.07
-0.004,0.139,0.143,-0.068,-0.074,0.141,-0.038,0.18,0.168,0.123,0.114,0.103
0.006,0.137,0.131,-0.072,-0.063,0.134,-0.064,0.147,0.167,0.134,0.116,0.102
0.008,0.124,0.116,-0.066,-0.054,0.12,-0.053,0.113,0.153,0.146,0.106,0.095
0.012,0.113,0.101,-0.062,-0.045,0.106,-0.051,0.079,0.115,0.12,0.101,0.09
0.018,0.092,0.074,-0.055,-0.028,0.083,-0.046,0.054,0.073,0.105,0.083,0.074
0.0,0.056,0.055,-0.028,-0.028,0.055,-0.041,0.033,0.021,0.069,0.053,0.047
-0.014,0.009,0.023,0.002,-0.018,0.015,-0.038,0.014,-0.007,0.035,0.016,0.004
-0.033,-0.042,-0.009,0.038,-0.012,-0.025,-0.03,-0.007,-0.052,0.007,-0.031,-0.023
-0.057,-0.089,-0.032,0.073,-0.012,-0.061,-0.027,-0.016,-0.101,-0.056,-0.075,-0.036
-0.066,-0.137,-0.072,0.102,0.003,-0.104,-0.019,-0.022,-0.116,-0.092,-0.109,-0.057
-0.057,-0.141,-0.084,0.099,0.014,-0.112,-0.016,-0.03,-0.111,-0.102,-0.112,-0.065
-0.034,-0.11,-0.076,0.072,0.021,-0.093,-0.005,-0.006,-0.076,-0.072,-0.071,-0.037
-0.002,-0.045,-0.042,0.024,0.02,-0.043,0.015,0.038,-0.021,-0.002,-0.021,0.008
0.015,0.064,0.049,-0.04,-0.017,0.056,0.071,0.098,0.05,0.068,0.05,0.049
-0.043,0.104,0.147,-0.031,-0.095,0.125,0.15,0.118,0.089,0.096,0.101,0.078
-0.049,0.152,0.201,-0.052,-0.125,0.176,0.098,0.079,0.116,0.115,0.112,0.1
0.005,0.212,0.207,-0.109,-0.101,0.209,-0.006,0.046,0.14,0.169,0.141,0.117
0.015,0.198,0.183,-0.107,-0.084,0.19,-0.043,0.06,0.145,0.17,0.135,0.116
0.025,0.178,0.153,-0.102,-0.064,0.165,-0.091,0.01,0.12,0.143,0.124,0.106
0.02,0.143,0.123,-0.081,-0.052,0.133,-0.096,0.014,0.123,0.143,0.111,0.102
0.05,0.135,0.085,-0.093,-0.018,0.11,-0.103,0.094,0.131,0.126,0.09,0.103
0.112,0.126,0.013,-0.119,0.049,0.069,-0.096,0.24,0.316,0.302,0.202,0.124
0.256,0.278,0.022,-0.267,0.116,0.15,-0.234,-0.001,0.426,0.651,0.644,0.49
0.754,0.633,-0.121,-0.694,0.437,0.256,-0.83,-1.227,-0.008,0.851,1.077,1.105
0.717,0.444,-0.273,-0.58,0.494,0.086,-0.842,-1.724,-0.587,0.314,0.521,0.847
-0.093,-0.155,-0.062,0.124,-0.015,-0.108,-0.089,-1.153,-1.025,-0.697,-0.47,-0.036
-0.339,-0.298,0.041,0.318,-0.19,-0.128,0.132,-0.73,-0.792,-0.712,-0.541,-0.26
-0.191,-0.193,-0.002,0.192,-0.094,-0.097,0.017,-0.266,-0.242,-0.211,-0.208,-0.145
-0.167,-0.169,-0.003,0.168,-0.082,-0.086,-0.008,-0.039,-0.102,-0.117,-0.125,-0.144
-0.114,-0.159,-0.045,0.137,-0.034,-0.102,-0.046,-0.014,-0.061,-0.073,-0.095,-0.126
-0.094,-0.182,-0.088,0.138,-0.003,-0.135,-0.048,0.028,-0.068,-0.069,-0.114,-0.127
-0.111,-0.214,-0.103,0.163,-0.004,-0.158,-0.071,0.015,-0.069,-0.114,-0.136,-0.115
-0.074,-0.215,-0.14,0.145,0.033,-0.177,-0.067,0.021,-0.049,-0.106,-0.129,-0.113
-0.039,-0.178,-0.139,0.109,0.05,-0.158,-0.034,0.037,-0.028,-0.058,-0.113,-0.098
-0.05,-0.083,-0.032,0.066,-0.009,-0.057,-0.017,0.08,0.039,-0.008,-0.07,-0.067
-0.041,0.032,0.073,0.004,-0.057,0.052,0.072,0.148,0.125,0.071,-0.017,-0.019
-0.061,0.1,0.162,-0.02,-0.112,0.131,0.154,0.192,0.167,0.111,0.047,0.021
-0.047,0.153,0.2,-0.053,-0.124,0.176,0.063,0.16,0.193,0.129,0.079,0.035
-0.043,0.169,0.212,-0.063,-0.127,0.19,-0.029,0.154,0.219,0.155,0.094,0.062
-0.051,0.152,0.204,-0.051,-0.128,0.178,-0.053,0.16,0.184,0.118,0.067,0.067
-0.015,0.154,0.169,-0.07,-0.092,0.162,-0.073,0.151,0.185,0.113,0.045,0.063
-0.003,0.155,0.157,-0.076,-0.081,0.156,-0.078,0.153,0.193,0.115,0.056,0.066
0.015,0.155,0.14,-0.085,-0.063,0.147,-0.083,0.146,0.187,0.117,0.071,0.063
0.025,0.155,0.13,-0.09,-0.053,0.142,-0.079,0.147,0.192,0.134,0.101,0.067
0.034,0.155,0.12,-0.095,-0.043,0.137,-0.08,0.142,0.188,0.134,0.101,0.09
0.043,0.153,0.11,-0.098,-0.034,0.131,-0.076,0.104,0.189,0.154,0.13,0.104
0.013,0.114,0.101,-0.064,-0.044,0.107,-0.074,0.066,0.141,0.113,0.11,0.088
-0.011,0.083,0.095,-0.036,-0.053,0.089,-0.075,0.049,0.098,0.098,0.064,0.067
-0.018,0.068,0.087,-0.025,-0.053,0.077,-0.064,0.027,0.077,0.089,0.07,0.045
-0.022,0.029,0.051,-0.004,-0.037,0.04,-0.06,0.005,0.025,0.022,0.023,0.02
-0.033,-0.021,0.012,0.027,-0.022,-0.005,-0.048,-0.026,-0.018,0.023,0.001,-0.003
-0.06,-0.077,-0.017,0.069,-0.021,-0.046,-0.043,-0.04,-0.067,-0.035,-0.046,-0.034
-0.079,-0.127,-0.048,0.103,-0.015,-0.087,-0.051,-0.026,-0.071,-0.07,-0.107,-0.065
-0.07,-0.161,-0.091,0.116,0.011,-0.126,-0.052,-0.024,-0.074,-0.064,-0.106,-0.079
-0.038,-0.132,-0.093,0.085,0.028,-0.112,-0.046,-0.005,-0.086,-0.084,-0.082,-0.061
-0.01,-0.066,-0.056,0.038,0.023,-0.061,-0.024,0.019,-0.029,-0.016,-0.033,-0.023
-0.008,0.014,0.022,-0.003,-0.015,0.018,0.003,0.064,0.032,0.029,0.003,0.012
-0.025,0.099,0.124,-0.037,-0.075,0.111,0.124,0.129,0.111,0.101,0.071,0.051
-0.041,0.143,0.184,-0.052,-0.112,0.163,0.146,0.138,0.147,0.128,0.088,0.075
-0.02,0.184,0.205,-0.082,-0.113,0.194,0.01,0.084,0.152,0.139,0.104,0.088
0.01,0.203,0.193,-0.107,-0.092,0.198,-0.035,0.072,0.196,0.203,0.153,0.096
0.012,0.169,0.157,-0.091,-0.072,0.163,-0.075,0.064,0.165,0.177,0.135,0.097
0.039,0.144,0.105,-0.092,-0.033,0.124,-0.115,0.033,0.172,0.182,0.129,0.101
0.049,0.137,0.088,-0.094,-0.019,0.112,-0.059,0.093,0.167,0.13,0.113,0.096
0.095,0.108,0.013,-0.101,0.041,0.061,-0.035,0.236,0.273,0.215,0.134,0.085
0.209,0.19,-0.019,-0.199,0.114,0.085,-0.116,0.222,0.49,0.543,0.443,0.305
0.602,0.547,-0.055,-0.574,0.328,0.246,-0.627,-0.817,0.182,0.852,1.034,0.953
0.866,0.619,-0.247,-0.742,0.556,0.185,-0.964,-1.741,-0.412,0.623,0.854,1.058
0.17,0.013,-0.157,-0.091,0.164,-0.072,-0.275,-1.348,-0.938,-0.472,-0.248,0.189
-0.371,-0.335,0.036,0.353,-0.203,-0.149,0.175,-0.854,-0.924,-0.833,-0.623,-0.279
-0.195,-0.202,-0.007,0.199,-0.094,-0.104,0.039,-0.393,-0.344,-0.313,-0.273,-0.164
-0.133,-0.167,-0.034,0.151,-0.05,-0.1,0.02,-0.042,-0.082,-0.114,-0.138,-0.149
-0.126,-0.156,-0.03,0.141,-0.048,-0.093,-0.007,0.003,-0.061,-0.06,-0.115,-0.143
-0.086,-0.164,-0.077,0.125,-0.005,-0.12,-0.017,0.046,-0.053,-0.092,-0.122,-0.145
-0.092,-0.212,-0.12,0.152,0.014,-0.166,-0.025,0.042,-0.054,-0.106,-0.138,-0.148
-0.066,-0.224,-0.157,0.145,0.046,-0.19,-0.037,0.052,-0.041,-0.117,-0.153,-0.155
-0.047,-0.192,-0.145,0.12,0.049,-0.168,-0.019,0.07,-0.027,-0.095,-0.131,-0.146
-0.02,-0.087,-0.067,0.054,0.024,-0.077,0.005,0.109,0.031,-0.029,-0.063,-0.093
0.001,0.002,0.001,-0.001,0.0,0.001,0.057,0.165,0.103,0.018,-0.011,-0.058
-0.057,0.064,0.121,-0.004,-0.089,0.092,0.175,0.227,0.162,0.087,0.036,-0.019
-0.058,0.142,0.2,-0.042,-0.13,0.171,0.132,0.215,0.187,0.122,0.067,0.014
-0.03,0.17,0.2,-0.07,-0.116,0.185,0.002,0.179,0.205,0.136,0.088,0.042
-0.047,0.154,0.201,-0.054,-0.124,0.177,-0.024,0.198,0.21,0.123,0.08,0.056
-0.028,0.143,0.171,-0.057,-0.1,0.157,-0.071,0.201,0.195,0.135,0.072,0.054
-0.01,0.138,0.148,-0.064,-0.079,0.143,-0.081,0.192,0.167,0.102,0.057,0.059
-0.001,0.135,0.136,-0.067,-0.07,0.135,-0.071,0.182,0.161,0.082,0.055,0.06
0.007,0.132,0.125,-0.07,-0.059,0.128,-0.072,0.191,0.158,0.123,0.091,0.063
0.029,0.127,0.098,-0.078,-0.035,0.112,-0.063,0.174,0.165,0.152,0.112,0.08
0.031,0.125,0.093,-0.078,-0.032,0.109,-0.061,0.135,0.181,0.165,0.131,0.086
0.035,0.108,0.073,-0.072,-0.019,0.091,-0.067,0.123,0.153,0.158,0.14,0.082
0.025,0.077,0.052,-0.051,-0.014,0.064,-0.044,0.105,0.113,0.142,0.136,0.078
-0.023,0.043,0.066,-0.01,-0.045,0.054,-0.033,0.079,0.085,0.085,0.071,0.046
0.009,0.002,-0.006,-0.006,0.008,-0.002,-0.037,0.048,0.047,0.026,0.01,0.012
0.01,-0.024,-0.034,0.008,0.022,-0.029,-0.013,0.019,-0.005,-0.002,-0.002,-0.013
-0.051,-0.068,-0.017,0.06,-0.016,-0.043,-0.017,0.001,-0.026,-0.007,-0.022,-0.041
-0.049,-0.118,-0.069,0.084,0.01,-0.094,-0.013,-0.006,-0.054,-0.048,-0.045,-0.056
-0.06,-0.165,-0.105,0.112,0.023,-0.135,-0.008,-0.025,-0.085,-0.092,-0.097,-0.081
-0.068,-0.19,-0.122,0.129,0.028,-0.156,-0.011,-0.001,-0.073,-0.084,-0.098,-0.09
-0.035,-0.12,-0.085,0.078,0.026,-0.102,0.022,0.047,-0.041,-0.045,-0.039,-0.059
0.002,-0.026,-0.028,0.013,0.015,-0.027,0.035,0.092,0.042,0.036,0.017,-0.016
-0.002,0.047,0.049,-0.022,-0.026,0.048,0.133,0.144,0.094,0.073,0.067,0.035
-0.054,0.11,0.163,-0.028,-0.109,0.136,0.21,0.153,0.132,0.11,0.094,0.072
-0.044,0.159,0.203,-0.058,-0.124,0.181,0.096,0.11,0.148,0.128,0.108,0.076
0.002,0.181,0.179,-0.092,-0.088,0.179,0.012,0.065,0.139,0.151,0.127,0.071
-0.016,0.149,0.165,-0.067,-0.091,0.157,-0.032,0.055,0.133,0.162,0.145,0.069
-0.002,0.125,0.126,-0.062,-0.064,0.125,-0.084,0.04,0.11,0.129,0.14,0.065
0.014,0.088,0.074,-0.051,-0.031,0.081,-0.061,0.078,0.131,0.153,0.151,0.065
0.034,0.057,0.023,-0.045,0.005,0.04,-0.055,0.188,0.207,0.178,0.145,0.064
0.113,0.113,0.0,-0.113,0.056,0.056,-0.06,0.317,0.44,0.402,0.303,0.184
0.437,0.428,-0.009,-0.433,0.223,0.209,-0.434,-0.472,0.332,0.807,0.908,0.759
0.908,0.681,-0.227,-0.794,0.568,0.227,-0.967,-1.671,-0.219,0.834,1.069,1.16
0.408,0.171,-0.237,-0.289,0.322,-0.033,-0.497,-1.557,-0.81,-0.151,0.056,0.464
-0.334,-0.345,-0.011,0.34,-0.161,-0.178,0.152,-0.986,-1.026,-0.905,-0.649,-0.25
-0.263,-0.273,-0.01,0.268,-0.126,-0.142,0.105,-0.507,-0.507,-0.447,-0.358,-0.211
-0.162,-0.197,-0.035,0.18,-0.063,-0.116,0.037,-0.073,-0.12,-0.158,-0.17,-0.129
-0.118,-0.165,-0.047,0.142,-0.035,-0.106,0.009,0.007,-0.074,-0.13,-0.184,-0.12
-0.09,-0.186,-0.096,0.138,0.003,-0.141,-0.001,0.048,-0.036,-0.097,-0.167,-0.13
-0.104,-0.237,-0.132,0.171,0.014,-0.184,0.028,0.049,-0.043,-0.15,-0.181,-0.153
-0.077,-0.224,-0.147,0.151,0.035,-0.185,0.008,0.022,-0.049,-0.112,-0.169,-0.157
-0.059,-0.222,-0.162,0.141,0.052,-0.192,-0.006,0.055,-0.059,-0.117,-0.153,-0.155
-0.014,-0.148,-0.134,0.081,0.06,-0.141,0.009,0.115,0.02,-0.035,-0.08,-0.1
-0.018,-0.05,-0.032,0.034,0.007,-0.041,0.05,0.156,0.075,0.012,-0.027,-0.057
-0.054,0.007,0.061,0.023,-0.057,0.034,0.156,0.211,0.128,0.037,0.0,-0.026
-0.06,0.084,0.144,-0.012,-0.102,0.114,0.17,0.232,0.189,0.099,0.061,-0.008
-0.057,0.137,0.194,-0.04,-0.125,0.165,0.058,0.205,0.188,0.099,0.079,0.012
-0.047,0.14,0.187,-0.047,-0.117,0.164,0.015,0.212,0.204,0.117,0.084,0.021
-0.015,0.128,0.143,-0.057,-0.08,0.136,-0.012,0.21,0.204,0.119,0.105,0.022
0.008,0.118,0.11,-0.063,-0.052,0.114,-0.025,0.209,0.172,0.1,0.105,0.038
0.014,0.112,0.099,-0.063,-0.043,0.105,-0.039,0.218,0.17,0.1,0.105,0.041
0.023,0.108,0.084,-0.066,-0.031,0.096,-0.057,0.207,0.169,0.101,0.105,0.049
0.03,0.103,0.073,-0.067,-0.022,0.088,-0.045,0.178,0.164,0.101,0.105,0.065
0.037,0.099,0.062,-0.068,-0.013,0.08,-0.042,0.153,0.166,0.121,0.101,0.071
0.039,0.095,0.056,-0.067,-0.009,0.075,-0.033,0.134,0.137,0.112,0.087,0.064
0.032,0.076,0.045,-0.054,-0.007,0.06,-0.028,0.106,0.096,0.082,0.072,0.062
0.003,0.042,0.039,-0.023,-0.018,0.041,-0.022,0.068,0.065,0.07,0.054,0.053
-0.032,-0.009,0.023,0.02,-0.027,0.007,-0.016,0.04,0.037,0.035,0.021,0.015
-0.026,-0.036,-0.009,0.031,-0.008,-0.022,-0.01,0.018,0.008,-0.009,-0.004,-0.016
-0.05,-0.081,-0.031,0.066,-0.009,-0.056,-0.001,0.002,-0.041,-0.07,-0.059,-0.053
-0.067,-0.161,-0.094,0.114,0.014,-0.127,0.001,-0.008,-0.063,-0.08,-0.105,-0.086
-0.078,-0.193,-0.115,0.136,0.019,-0.154,0.018,-0.044,-0.074,-0.096,-0.102,-0.1
-0.055,-0.193,-0.139,0.124,0.042,-0.166,0.021,-0.043,-0.085,-0.118,-0.11,-0.109
0.001,-0.144,-0.145,0.072,0.073,-0.144,0.049,0.009,-0.036,-0.059,-0.077,-0.077
-0.008,-0.056,-0.049,0.032,0.021,-0.052,0.064,0.047,0.014,-0.035,-0.035,-0.033
-0.022,0.007,0.029,0.008,-0.025,0.018,0.125,0.099,0.064,0.02,0.017,-0.003
-0.045,0.075,0.12,-0.015,-0.083,0.097,0.243,0.135,0.14,0.08,0.066,0.016
-0.015,0.153,0.168,-0.069,-0.092,0.16,0.168,0.12,0.159,0.089,0.079,0.043
0.024,0.163,0.14,-0.094,-0.058,0.151,0.054,0.084,0.149,0.131,0.098,0.058
-0.003,0.135,0.139,-0.066,-0.071,0.137,0.042,0.086,0.142,0.111,0.093,0.054
0.016,0.119,0.104,-0.067,-0.044,0.111,0.0,0.057,0.121,0.094,0.097,0.055
0.036,0.097,0.061,-0.067,-0.013,0.079,0.007,0.078,0.12,0.087,0.094,0.056
0.07,0.083,0.013,-0.077,0.028,0.048,0.034,0.177,0.165,0.101,0.096,0.052
0.13,0.083,-0.046,-0.106,0.087,0.018,0.038,0.342,0.411,0.336,0.229,0.106
0.342,0.318,-0.024,-0.33,0.183,0.147,-0.252,-0.205,0.391,0.677,0.724,0.567
0.862,0.645,-0.217,-0.754,0.539,0.214,-0.886,-1.505,-0.105,0.832,1.064,1.097
0.611,0.299,-0.311,-0.455,0.461,-0.006,-0.639,-1.698,-0.74,0.032,0.255,0.61
-0.221,-0.284,-0.063,0.253,-0.078,-0.173,0.1,-1.1,-1.093,-0.888,-0.614,-0.189
-0.311,-0.315,-0.004,0.313,-0.153,-0.159,0.167,-0.596,-0.639,-0.586,-0.45,-0.243
-0.168,-0.217,-0.049,0.193,-0.059,-0.133,0.097,-0.106,-0.161,-0.188,-0.177,-0.146
-0.141,-0.216,-0.075,0.179,-0.033,-0.145,0.078,0.048,-0.086,-0.13,-0.138,-0.135
-0.106,-0.214,-0.108,0.16,0.001,-0.161,0.052,0.086,-0.066,-0.105,-0.137,-0.14
-0.093,-0.231,-0.139,0.162,0.023,-0.185,0.06,0.097,-0.061,-0.163,-0.16,-0.178
-0.055,-0.234,-0.18,0.145,0.063,-0.207,0.073,0.093,-0.067,-0.168,-0.15,-0.167
-0.03,-0.231,-0.2,0.131,0.085,-0.215,0.082,0.105,-0.065,-0.149,-0.144,-0.165
-0.003,-0.181,-0.178,0.092,0.088,-0.179,0.085,0.133,0.009,-0.079,-0.099,-0.122
0.01,-0.076,-0.086,0.033,0.048,-0.081,0.111,0.179,0.062,-0.031,-0.047,-0.082
-0.009,-0.004,0.005,0.007,-0.007,0.001,0.211,0.246,0.122,0.013,-0.013,-0.057
-0.034,0.067,0.1,-0.017,-0.067,0.083,0.256,0.283,0.166,0.065,0.035,-0.012
-0.015,0.123,0.137,-0.054,-0.076,0.13,0.138,0.238,0.178,0.103,0.07,0.013
-0.005,0.108,0.112,-0.052,-0.059,0.11,0.086,0.242,0.182,0.106,0.068,0.017
-0.003,0.095,0.097,-0.046,-0.05,0.096,0.047,0.247,0.178,0.091,0.063,0.018
0.002,0.09,0.088,-0.046,-0.043,0.089,0.019,0.243,0.181,0.096,0.061,0.023
0.015,0.089,0.075,-0.052,-0.03,0.082,0.03,0.246,0.179,0.094,0.055,0.024
0.041,0.089,0.048,-0.065,-0.004,0.068,0.021,0.244,0.179,0.099,0.058,0.029
0.044,0.083,0.039,-0.063,0.002,0.061,0.028,0.235,0.172,0.1,0.082,0.051
0.047,0.087,0.04,-0.067,0.003,0.063,0.024,0.202,0.168,0.098,0.109,0.062
0.039,0.077,0.038,-0.058,0.0,0.057,0.036,0.173,0.161,0.09,0.101,0.06
0.039,0.061,0.023,-0.05,0.008,0.042,0.05,0.144,0.157,0.086,0.086,0.049
0.029,0.044,0.015,-0.036,0.007,0.029,0.054,0.113,0.144,0.066,0.069,0.027
0.01,0.001,-0.009,-0.005,0.009,-0.004,0.065,0.104,0.111,0.032,0.045,-0.001
-0.006,-0.049,-0.043,0.028,0.019,-0.046,0.048,0.082,0.066,-0.008,0.001,-0.036
-0.041,-0.109,-0.068,0.075,0.013,-0.088,0.027,0.034,0.014,-0.063,-0.055,-0.064
-0.046,-0.16,-0.113,0.103,0.034,-0.136,0.026,0.022,-0.021,-0.09,-0.082,-0.095
-0.051,-0.193,-0.142,0.122,0.046,-0.167,0.023,0.01,-0.057,-0.123,-0.111,-0.128
-0.04,-0.21,-0.17,0.125,0.065,-0.19,0.012,0.029,-0.052,-0.13,-0.118,-0.125
-0.016,-0.171,-0.155,0.094,0.07,-0.163,0.027,0.078,-0.009,-0.083,-0.074,-0.096
0.005,-0.087,-0.092,0.041,0.048,-0.089,0.051,0.097,0.031,-0.043,-0.032,-0.061
-0.013,-0.009,0.004,0.011,-0.008,-0.003,0.134,0.147,0.089,0.0,0.006,-0.023
-0.041,0.049,0.089,-0.004,-0.065,0.069,0.185,0.173,0.131,0.057,0.056,0.002
-0.023,0.114,0.137,-0.045,-0.08,0.125,0.09,0.156,0.145,0.077,0.084,0.02
0.002,0.137,0.135,-0.069,-0.067,0.135,0.016,0.144,0.149,0.083,0.09,0.034
0.017,0.111,0.094,-0.064,-0.039,0.102,0.003,0.158,0.147,0.082,0.084,0.04
0.042,0.084,0.043,-0.063,-0.001,0.063,-0.022,0.141,0.125,0.07,0.08,0.041
0.032,0.046,0.015,-0.039,0.008,0.03,-0.027,0.157,0.135,0.081,0.077,0.037
0.028,0.045,0.017,-0.037,0.006,0.031,-0.001,0.22,0.189,0.103,0.086,0.036
0.107,0.066,-0.041,-0.086,0.073,0.012,0.036,0.376,0.401,0.276,0.204,0.079
0.308,0.267,-0.04,-0.287,0.174,0.113,-0.218,-0.116,0.447,0.65,0.681,0.494
0.892,0.618,-0.274,-0.755,0.583,0.172,-0.853,-1.432,0.021,0.857,1.045,1.019
0.725,0.309,-0.415,-0.517,0.57,-0.053,-0.692,-1.743,-0.66,0.062,0.284,0.596
-0.183,-0.336,-0.152,0.26,-0.015,-0.244,0.053,-1.181,-1.091,-0.898,-0.606,-0.203
-0.275,-0.364,-0.089,0.32,-0.093,-0.226,0.185,-0.639,-0.655,-0.635,-0.47,-0.289
-0.15,-0.244,-0.094,0.197,-0.028,-0.169,0.105,-0.109,-0.153,-0.219,-0.175,-0.168
-0.166,-0.252,-0.086,0.209,-0.04,-0.169,0.077,0.054,-0.093,-0.171,-0.144,-0.167
-0.096,-0.227,-0.131,0.161,0.018,-0.179,0.043,0.078,-0.07,-0.116,-0.137,-0.162
-0.076,-0.258,-0.182,0.167,0.054,-0.22,0.045,0.097,-0.075,-0.162,-0.157,-0.179
-0.048,-0.275,-0.228,0.162,0.09,-0.251,0.033,0.085,-0.063,-0.173,-0.159,-0.185
-0.058,-0.267,-0.209,0.163,0.076,-0.238,0.029,0.1,-0.052,-0.146,-0.134,-0.178
-0.019,-0.2,-0.181,0.11,0.081,-0.19,0.049,0.145,0.003,-0.104,-0.088,-0.132
0.018,-0.083,-0.101,0.033,0.06,-0.092,0.111,0.202,0.078,-0.05,-0.027,-0.083
-0.014,-0.005,0.008,0.01,-0.011,0.001,0.245,0.265,0.127,0.007,0.024,-0.057
-0.024,0.069,0.093,-0.023,-0.058,0.08,0.242,0.305,0.16,0.049,0.058,-0.023
-0.018,0.109,0.127,-0.046,-0.073,0.118,0.091,0.281,0.188,0.063,0.074,-0.001
0.001,0.1,0.099,-0.051,-0.049,0.099,0.056,0.274,0.199,0.075,0.076,0.003
0.033,0.097,0.063,-0.065,-0.015,0.08,0.042,0.276,0.187,0.062,0.072,0.009
0.035,0.091,0.056,-0.063,-0.011,0.073,0.032,0.271,0.178,0.059,0.07,0.012
0.04,0.085,0.045,-0.062,-0.003,0.064,0.03,0.27,0.16,0.048,0.066,0.018
0.046,0.081,0.035,-0.064,0.005,0.058,0.016,0.27,0.149,0.027,0.064,0.022
0.059,0.084,0.025,-0.072,0.016,0.055,0.015,0.26,0.141,0.061,0.081,0.033
0.067,0.082,0.015,-0.075,0.026,0.048,0.024,0.237,0.132,0.075,0.108,0.051
0.06,0.066,0.006,-0.063,0.027,0.035,0.042,0.219,0.124,0.054,0.106,0.049
0.059,0.054,-0.005,-0.056,0.032,0.024,0.036,0.188,0.109,0.044,0.075,0.037
0.041,0.029,-0.013,-0.035,0.027,0.008,0.051,0.145,0.077,0.021,0.052,0.018
0.016,-0.006,-0.022,-0.005,0.019,-0.014,0.08,0.125,0.054,-0.003,0.026,-0.011
0.001,-0.033,-0.034,0.016,0.018,-0.033,0.074,0.094,0.019,-0.043,-0.007,-0.044
-0.028,-0.089,-0.061,0.058,0.017,-0.075,0.074,0.051,-0.043,-0.099,-0.038,-0.069
-0.047,-0.163,-0.116,0.105,0.035,-0.14,0.103,0.056,-0.071,-0.123,-0.085,-0.103
-0.043,-0.206,-0.163,0.125,0.061,-0.185,0.102,0.044,-0.087,-0.137,-0.113,-0.133
-0.04,-0.199,-0.159,0.119,0.06,-0.178,0.11,0.054,-0.074,-0.141,-0.102,-0.12
-0.002,-0.14,-0.138,0.071,0.069,-0.138,0.114,0.105,-0.037,-0.105,-0.066,-0.091
0.023,-0.062,-0.085,0.019,0.055,-0.073,0.134,0.141,0.011,-0.066,-0.014,-0.046
-0.038,-0.014,0.024,0.026,-0.031,0.005,0.244,0.187,0.058,-0.032,0.025,-0.016
-0.058,0.046,0.103,0.006,-0.081,0.074,0.257,0.198,0.081,0.011,0.047,0.001
0.002,0.134,0.132,-0.068,-0.066,0.133,0.199,0.175,0.112,0.046,0.092,0.034
0.049,0.15,0.101,-0.1,-0.026,0.125,0.149,0.163,0.127,0.068,0.112,0.041
0.041,0.111,0.071,-0.076,-0.015,0.091,0.112,0.172,0.106,0.056,0.093,0.032
0.052,0.078,0.026,-0.065,0.013,0.052,0.068,0.147,0.09,0.054,0.093,0.029
0.051,0.063,0.012,-0.057,0.019,0.037,0.07,0.169,0.091,0.046,0.067,0.022
0.076,0.059,-0.017,-0.067,0.046,0.021,0.118,0.285,0.153,0.068,0.081,0.019
0.143,0.087,-0.057,-0.115,0.1,0.015,0.106,0.43,0.399,0.298,0.266,0.11
0.404,0.34,-0.064,-0.371,0.233,0.138,-0.241,-0.275,0.376,0.658,0.752,0.571
0.978,0.606,-0.372,-0.792,0.675,0.117,-0.843,-1.56,-0.113,0.711,0.935,0.949
0.578,0.191,-0.386,-0.384,0.482,-0.097,-0.506,-1.69,-0.823,-0.215,0.071,0.39
-0.269,-0.351,-0.082,0.31,-0.093,-0.217,0.192,-1.106,-1.125,-0.97,-0.62,-0.255
-0.232,-0.304,-0.072,0.268,-0.08,-0.188,0.222,-0.51,-0.579,-0.553,-0.371,-0.237
-0.145,-0.221,-0.076,0.184,-0.034,-0.148,0.175,-0.032,-0.167,-0.229,-0.163,-0.157
-0.136,-0.225,-0.089,0.181,-0.024,-0.156,0.128,0.07,-0.122,-0.195,-0.161,-0.138
-0.073,-0.215,-0.142,0.144,0.034,-0.178,0.089,0.089,-0.102,-0.162,-0.146,-0.154
-0.061,-0.244,-0.183,0.153,0.061,-0.213,0.1,0.088,-0.127,-0.18,-0.149,-0.174
-0.041,-0.236,-0.194,0.138,0.077,-0.215,0.074,0.076,-0.111,-0.154,-0.137,-0.15
-0.036,-0.223,-0.187,0.13,0.076,-0.205,0.094,0.107,-0.084,-0.162,-0.116,-0.155
0.009,-0.142,-0.151,0.067,0.08,-0.146,0.116,0.159,-0.036,-0.117,-0.06,-0.119
0.013,-0.047,-0.061,0.017,0.037,-0.054,0.176,0.198,0.028,-0.052,-0.006,-0.078
-0.019,0.03,0.049,-0.005,-0.034,0.039,0.305,0.263,0.097,0.001,0.053,-0.048
-0.032,0.109,0.141,-0.038,-0.087,0.125,0.261,0.274,0.128,0.031,0.087,-0.009
-0.03,0.113,0.143,-0.041,-0.087,0.127,0.142,0.238,0.138,0.027,0.081,0.006
-0.031,0.1,0.131,-0.035,-0.081,0.115,0.117,0.259,0.133,0.037,0.077,0.012
-0.017,0.095,0.111,-0.04,-0.064,0.103,0.083,0.264,0.123,0.04,0.071,0.021
0.015,0.084,0.069,-0.05,-0.028,0.077,0.076,0.259,0.118,0.021,0.065,0.02
0.036,0.086,0.05,-0.061,-0.008,0.068,0.075,0.254,0.11,0.018,0.06,0.019
0.048,0.084,0.036,-0.066,0.006,0.059,0.074,0.252,0.104,0.021,0.071,0.024
0.053,0.08,0.027,-0.067,0.013,0.053,0.077,0.236,0.098,0.024,0.082,0.03
0.06,0.08,0.021,-0.07,0.02,0.05,0.073,0.198,0.091,0.021,0.075,0.025
0.058,0.077,0.019,-0.068,0.02,0.048,0.081,0.191,0.087,0.011,0.069,0.019
0.047,0.059,0.013,-0.053,0.017,0.036,0.091,0.174,0.078,0.002,0.062,0.014
0.026,0.026,0.0,-0.026,0.013,0.013,0.107,0.128,0.047,-0.005,0.057,0.008
0.005,-0.014,-0.019,0.005,0.012,-0.016,0.111,0.102,0.01,-0.031,0.032,-0.014
-0.01,-0.046,-0.036,0.029,0.013,-0.041,0.105,0.065,-0.031,-0.083,-0.01,-0.046
-0.035,-0.089,-0.055,0.063,0.01,-0.072,0.112,0.017,-0.072,-0.124,-0.051,-0.079
-0.047,-0.155,-0.108,0.102,0.03,-0.131,0.138,0.011,-0.103,-0.151,-0.08,-0.115
-0.04,-0.187,-0.147,0.114,0.054,-0.167,0.134,0.007,-0.111,-0.167,-0.093,-0.118
-0.011,-0.165,-0.154,0.088,0.072,-0.159,0.137,0.033,-0.085,-0.156,-0.071,-0.103
0.002,-0.107,-0.109,0.052,0.056,-0.108,0.165,0.081,-0.052,-0.115,-0.035,-0.076
0.009,-0.03,-0.039,0.011,0.024,-0.034,0.203,0.12,0.0,-0.077,-0.003,-0.038
-0.022,0.021,0.043,0.001,-0.033,0.032,0.315,0.156,0.045,-0.033,0.042,-0.002
-0.061,0.073,0.135,-0.006,-0.099,0.104,0.301,0.164,0.066,-0.003,0.067,0.024
-0.004,0.141,0.144,-0.069,-0.074,0.142,0.174,0.14,0.084,0.013,0.101,0.041
0.029,0.148,0.119,-0.089,-0.045,0.133,0.135,0.128,0.092,0.049,0.116,0.048
0.012,0.115,0.103,-0.064,-0.045,0.108,0.121,0.126,0.085,0.036,0.094,0.042
0.042,0.09,0.048,-0.066,-0.004,0.069,0.063,0.096,0.071,0.037,0.09,0.049
0.025,0.044,0.019,-0.035,0.003,0.031,0.089,0.136,0.057,0.02,0.059,0.031
0.063,0.039,-0.025,-0.051,0.044,0.007,0.142,0.294,0.178,0.092,0.101,0.016
0.162,0.142,-0.019,-0.152,0.09,0.061,0.083,0.367,0.422,0.379,0.358,0.185
0.535,0.433,-0.102,-0.484,0.318,0.165,-0.366,-0.567,0.311,0.714,0.846,0.691
1.008,0.566,-0.442,-0.787,0.725,0.062,-0.847,-1.735,-0.245,0.551,0.795,0.889
0.375,0.046,-0.329,-0.211,0.352,-0.141,-0.325,-1.646,-0.955,-0.475,-0.151,0.222
-0.373,-0.365,0.009,0.369,-0.191,-0.178,0.252,-1.035,-1.048,-0.916,-0.579,-0.272
-0.229,-0.279,-0.05,0.254,-0.089,-0.164,0.226,-0.406,-0.461,-0.443,-0.281,-0.194
-0.119,-0.208,-0.089,0.164,-0.015,-0.148,0.218,0.014,-0.153,-0.217,-0.138,-0.158
-0.083,-0.168,-0.085,0.126,0.001,-0.126,0.169,0.09,-0.114,-0.164,-0.111,-0.157
-0.059,-0.208,-0.149,0.134,0.045,-0.179,0.147,0.104,-0.105,-0.179,-0.128,-0.16
-0.071,-0.247,-0.177,0.159,0.053,-0.212,0.142,0.09,-0.101,-0.182,-0.138,-0.167
-0.017,-0.224,-0.207,0.121,0.095,-0.216,0.124,0.089,-0.11,-0.161,-0.132,-0.152
0.009,-0.211,-0.22,0.101,0.114,-0.215,0.148,0.127,-0.091,-0.163,-0.105,-0.128
0.007,-0.126,-0.133,0.06,0.071,-0.129,0.151,0.185,-0.024,-0.113,-0.038,-0.079
-0.005,-0.039,-0.034,0.022,0.015,-0.036,0.253,0.241,0.028,-0.06,0.002,-0.047
-0.031,0.027,0.057,0.001,-0.044,0.042,0.342,0.3,0.091,-0.005,0.041,-0.02
-0.023,0.104,0.128,-0.041,-0.076,0.116,0.229,0.293,0.114,0.022,0.073,0.003
0.007,0.125,0.119,-0.066,-0.056,0.122,0.156,0.27,0.119,0.032,0.089,0.02
-0.01,0.105,0.115,-0.047,-0.063,0.11,0.148,0.269,0.112,0.025,0.091,0.031
0.003,0.091,0.088,-0.047,-0.043,0.089,0.122,0.256,0.101,0.019,0.09,0.03
0.026,0.083,0.057,-0.054,-0.016,0.069,0.117,0.26,0.095,0.015,0.09,0.03
0.026,0.077,0.051,-0.052,-0.012,0.064,0.101,0.247,0.088,0.007,0.09,0.03
0.037,0.073,0.036,-0.055,0.0,0.054,0.095,0.25,0.086,0.007,0.09,0.029
0.03,0.066,0.036,-0.048,-0.003,0.05,0.091,0.237,0.082,0.019,0.097,0.042
0.035,0.062,0.026,-0.049,0.004,0.044,0.086,0.201,0.079,0.035,0.099,0.044
0.056,0.069,0.012,-0.063,0.022,0.04,0.089,0.182,0.076,0.035,0.087,0.033
0.042,0.051,0.009,-0.047,0.016,0.029,0.117,0.154,0.069,0.011,0.074,0.027
0.017,0.016,-0.001,-0.016,0.009,0.007,0.134,0.158,0.046,-0.02,0.045,0.012
0.002,-0.027,-0.03,0.013,0.016,-0.028,0.142,0.082,0.016,-0.051,0.009,-0.022
-0.025,-0.082,-0.058,0.054,0.017,-0.07,0.152,0.115,-0.025,-0.088,-0.03,-0.064
-0.054,-0.136,-0.082,0.095,0.014,-0.109,0.153,-0.118,-0.072,-0.137,-0.067,-0.096
-0.048,-0.179,-0.13,0.114,0.041,-0.154,0.148,-0.319,-0.095,-0.161,-0.082,-0.116
