-0.244,-0.301,-0.057,0.273,-0.093,-0.179,0.146,-0.659,-0.749,-0.681,-0.527,-0.302
-0.211,-0.273,-0.062,0.242,-0.074,-0.167,0.128,-0.397,-0.447,-0.447,-0.376,-0.272
-0.117,-0.163,-0.046,0.14,-0.035,-0.104,0.118,0.001,-0.039,-0.12,-0.142,-0.162
-0.077,-0.123,-0.046,0.1,-0.015,-0.084,0.092,0.141,0.071,-0.058,-0.087,-0.124
-0.063,-0.122,-0.058,0.093,-0.002,-0.09,0.087,0.188,0.098,-0.042,-0.087,-0.131
-0.02,-0.116,-0.096,0.069,0.038,-0.106,0.083,0.194,0.089,-0.053,-0.094,-0.143
-0.068,-0.201,-0.134,0.135,0.033,-0.167,0.066,0.186,0.072,-0.079,-0.12,-0.168
-0.071,-0.23,-0.159,0.151,0.044,-0.194,0.064,0.196,0.07,-0.087,-0.144,-0.188
-0.041,-0.222,-0.181,0.132,0.071,-0.201,0.045,0.185,0.05,-0.104,-0.145,-0.189
-0.055,-0.211,-0.156,0.133,0.05,-0.183,0.051,0.199,0.067,-0.088,-0.123,-0.175
0.008,-0.131,-0.14,0.062,0.074,-0.135,0.083,0.235,0.123,-0.033,-0.086,-0.152
0.023,-0.042,-0.066,0.01,0.045,-0.054,0.108,0.285,0.182,0.044,-0.039,-0.109
-0.055,0.014,0.069,0.02,-0.062,0.041,0.208,0.358,0.236,0.097,0.008,-0.061
-0.06,0.062,0.122,-0.002,-0.091,0.092,0.226,0.352,0.26,0.117,0.035,-0.028
-0.031,0.14,0.171,-0.054,-0.102,0.155,0.137,0.334,0.261,0.135,0.061,-0.016
-0.02,0.158,0.179,-0.069,-0.1,0.168,0.088,0.345,0.257,0.135,0.086,-0.005
-0.002,0.126,0.128,-0.062,-0.066,0.127,0.066,0.319,0.243,0.107,0.085,0.003
-0.011,0.093,0.104,-0.041,-0.058,0.098,0.05,0.308,0.248,0.104,0.09,0.008
-0.007,0.072,0.079,-0.033,-0.043,0.075,0.028,0.29,0.218,0.087,0.091,0.014
0.01,0.078,0.068,-0.044,-0.03,0.073,0.026,0.273,0.196,0.087,0.097,0.019
0.023,0.069,0.046,-0.047,-0.011,0.058,0.015,0.253,0.213,0.115,0.091,0.032
0.051,0.072,0.021,-0.062,0.015,0.046,-0.018,0.236,0.22,0.124,0.09,0.031
0.031,0.062,0.032,-0.047,0.0,0.047,-0.011,0.219,0.2,0.136,0.11,0.02
0.009,0.026,0.017,-0.018,-0.004,0.021,0.018,0.195,0.16,0.105,0.078,0.013
-0.001,-0.006,-0.005,0.003,0.002,-0.005,0.036,0.165,0.141,0.081,0.048,0.006
0.008,-0.033,-0.041,0.012,0.025,-0.036,0.041,0.129,0.123,0.08,0.043,-0.015
0.024,-0.036,-0.06,0.006,0.042,-0.048,0.04,0.119,0.092,0.043,0.011,-0.04
-0.009,-0.071,-0.062,0.04,0.026,-0.066,0.04,0.122,0.065,0.01,-0.018,-0.062
-0.024,-0.112,-0.088,0.069,0.032,-0.1,0.04,0.106,0.038,-0.007,-0.037,-0.077
-0.043,-0.146,-0.102,0.094,0.03,-0.124,0.04,0.075,0.006,-0.054,-0.087,-0.111
-0.055,-0.206,-0.151,0.131,0.048,-0.178,0.037,0.076,-0.023,-0.099,-0.111,-0.149
-0.047,-0.224,-0.176,0.136,0.065,-0.2,0.032,0.083,-0.026,-0.09,-0.095,-0.142
-0.057,-0.222,-0.165,0.14,0.055,-0.193,0.032,0.098,0.002,-0.084,-0.089,-0.143
-0.026,-0.189,-0.163,0.108,0.068,-0.175,0.057,0.13,0.038,-0.055,-0.073,-0.12
0.02,-0.097,-0.117,0.039,0.069,-0.106,0.078,0.171,0.088,-0.004,-0.043,-0.071
0.003,-0.032,-0.034,0.014,0.019,-0.033,0.15,0.227,0.133,0.041,0.002,-0.036
-0.051,0.009,0.059,0.021,-0.055,0.034,0.224,0.244,0.186,0.114,0.052,-0.013
-0.038,0.057,0.096,-0.01,-0.067,0.076,0.153,0.202,0.192,0.126,0.066,0.008
0.005,0.098,0.092,-0.052,-0.044,0.095,0.087,0.188,0.178,0.126,0.067,0.026
-0.018,0.088,0.105,-0.035,-0.062,0.096,0.057,0.199,0.174,0.123,0.057,0.02
0.004,0.061,0.057,-0.033,-0.027,0.059,0.01,0.166,0.151,0.127,0.049,0.012
0.035,0.055,0.02,-0.045,0.007,0.037,0.039,0.212,0.16,0.126,0.034,-0.018
0.049,0.029,-0.02,-0.038,0.034,0.005,0.027,0.317,0.235,0.124,0.041,-0.034
0.132,0.069,-0.063,-0.1,0.097,0.003,-0.001,0.42,0.509,0.386,0.262,0.114
0.381,0.381,0.001,-0.381,0.19,0.191,-0.283,-0.302,0.427,0.791,0.839,0.604
0.861,0.637,-0.224,-0.749,0.542,0.206,-0.792,-1.517,-0.095,0.922,1.164,0.978
0.604,0.193,-0.411,-0.398,0.507,-0.108,-0.538,-1.527,-0.678,0.118,0.35,0.448
-0.178,-0.363,-0.186,0.271,0.004,-0.274,0.052,-0.934,-0.984,-0.744,-0.522,-0.255
-0.242,-0.371,-0.129,0.307,-0.056,-0.25,0.119,-0.448,-0.525,-0.497,-0.433,-0.302
-0.142,-0.256,-0.114,0.199,-0.014,-0.185,0.092,-0.004,-0.089,-0.153,-0.197,-0.203
-0.15,-0.235,-0.085,0.193,-0.032,-0.16,0.087,0.159,0.029,-0.106,-0.122,-0.181
-0.077,-0.227,-0.15,0.152,0.037,-0.188,0.062,0.187,0.06,-0.093,-0.118,-0.16
-0.065,-0.214,-0.149,0.14,0.042,-0.181,0.075,0.185,0.013,-0.107,-0.151,-0.179
-0.077,-0.257,-0.18,0.167,0.052,-0.218,0.066,0.184,0.019,-0.11,-0.175,-0.211
-0.085,-0.287,-0.202,0.186,0.059,-0.245,0.075,0.187,-0.001,-0.139,-0.199,-0.226
-0.066,-0.298,-0.232,0.182,0.083,-0.264,0.075,0.182,-0.005,-0.134,-0.194,-0.213
-0.058,-0.301,-0.243,0.18,0.093,-0.272,0.073,0.197,0.008,-0.125,-0.186,-0.212
-0.022,-0.206,-0.184,0.114,0.081,-0.195,0.084,0.254,0.07,-0.069,-0.132,-0.174
-0.023,-0.118,-0.095,0.071,0.036,-0.106,0.101,0.292,0.124,-0.016,-0.086,-0.116
-0.072,-0.052,0.02,0.062,-0.046,-0.016,0.213,0.349,0.166,0.033,-0.045,-0.094
-0.068,0.007,0.075,0.03,-0.071,0.041,0.235,0.38,0.208,0.086,-0.012,-0.072
-0.046,0.058,0.103,-0.006,-0.075,0.08,0.118,0.347,0.202,0.088,-0.008,-0.055
-0.065,0.074,0.139,-0.005,-0.102,0.106,0.082,0.342,0.202,0.09,-0.002,-0.046
-0.046,0.057,0.103,-0.006,-0.075,0.08,0.058,0.329,0.197,0.091,0.001,-0.037
-0.034,0.045,0.079,-0.005,-0.057,0.062,0.036,0.32,0.169,0.078,0.006,-0.029
-0.063,0.022,0.084,0.02,-0.074,0.053,0.02,0.31,0.144,0.059,0.01,-0.023
-0.021,0.004,0.025,0.009,-0.023,0.014,0.003,0.276,0.14,0.034,0.008,-0.016
-0.014,-0.009,0.005,0.011,-0.009,-0.002,0.001,0.242,0.132,0.049,0.015,-0.009
0.001,0.009,0.008,-0.005,-0.003,0.008,-0.019,0.226,0.126,0.066,0.026,-0.003
0.044,0.005,-0.038,-0.024,0.041,-0.016,-0.025,0.209,0.119,0.051,0.019,0.006
0.024,-0.021,-0.045,-0.001,0.035,-0.033,-0.016,0.175,0.084,0.043,0.006,-0.008
0.013,-0.052,-0.065,0.02,0.039,-0.058,-0.008,0.157,0.068,0.029,-0.01,-0.042
-0.031,-0.101,-0.07,0.066,0.02,-0.085,0.006,0.133,0.05,0.007,-0.042,-0.062
-0.035,-0.104,-0.069,0.07,0.017,-0.086,0.022,0.102,0.021,-0.022,-0.064,-0.068
-0.018,-0.113,-0.095,0.066,0.039,-0.104,0.018,0.082,-0.003,-0.051,-0.08,-0.088
-0.052,-0.144,-0.092,0.098,0.02,-0.117,0.021,0.066,-0.054,-0.096,-0.119,-0.12
-0.067,-0.197,-0.13,0.132,0.032,-0.164,0.019,0.046,-0.084,-0.132,-0.152,-0.147
-0.075,-0.235,-0.16,0.155,0.043,-0.197,0.02,0.043,-0.097,-0.149,-0.165,-0.169
-0.066,-0.239,-0.174,0.153,0.054,-0.206,0.038,0.059,-0.099,-0.149,-0.179,-0.18
-0.041,-0.228,-0.186,0.135,0.073,-0.207,0.028,0.073,-0.059,-0.115,-0.169,-0.176
-0.015,-0.178,-0.163,0.097,0.074,-0.17,0.03,0.091,-0.018,-0.075,-0.126,-0.145
0.005,-0.111,-0.116,0.054,0.061,-0.114,0.056,0.132,0.024,-0.034,-0.093,-0.106
-0.012,-0.045,-0.033,0.029,0.01,-0.039,0.133,0.185,0.062,0.001,-0.054,-0.066
-0.054,-0.012,0.042,0.033,-0.048,0.015,0.181,0.198,0.092,0.036,-0.019,-0.038
-0.066,0.049,0.115,0.008,-0.09,0.082,0.112,0.16,0.107,0.06,-0.009,-0.024
-0.029,0.086,0.114,-0.029,-0.072,0.1,0.048,0.159,0.126,0.07,0.0,-0.012
-0.011,0.068,0.079,-0.029,-0.045,0.073,0.025,0.165,0.113,0.06,0.01,-0.012
0.035,0.058,0.023,-0.047,0.006,0.04,0.008,0.136,0.107,0.071,0.016,-0.005
0.047,0.023,-0.024,-0.035,0.035,-0.001,0.005,0.178,0.113,0.04,-0.017,-0.031
0.053,-0.007,-0.059,-0.023,0.056,-0.033,0.009,0.302,0.173,0.057,-0.014,-0.053
0.15,0.093,-0.057,-0.121,0.103,0.018,-0.021,0.37,0.443,0.346,0.233,0.127
0.447,0.428,-0.019,-0.437,0.233,0.204,-0.397,-0.536,0.326,0.749,0.82,0.629
0.912,0.576,-0.336,-0.744,0.624,0.12,-0.839,-1.708,-0.241,0.729,0.959,0.851
0.481,0.082,-0.4,-0.281,0.44,-0.159,-0.489,-1.599,-0.883,-0.216,0.033,0.233
-0.291,-0.365,-0.074,0.328,-0.108,-0.219,0.041,-0.996,-1.057,-0.843,-0.608,-0.312
-0.255,-0.323,-0.069,0.289,-0.093,-0.196,0.067,-0.42,-0.496,-0.466,-0.404,-0.278
-0.151,-0.248,-0.097,0.2,-0.027,-0.172,0.06,0.01,-0.138,-0.2,-0.248,-0.209
-0.108,-0.2,-0.092,0.155,-0.007,-0.146,0.076,0.124,-0.085,-0.132,-0.202,-0.173
-0.059,-0.174,-0.114,0.117,0.028,-0.144,0.037,0.153,-0.075,-0.116,-0.182,-0.151
-0.106,-0.218,-0.112,0.162,0.003,-0.164,0.021,0.115,-0.095,-0.168,-0.203,-0.193
-0.096,-0.279,-0.183,0.188,0.044,-0.231,0.024,0.118,-0.086,-0.181,-0.213,-0.219
-0.109,-0.311,-0.202,0.21,0.047,-0.257,0.034,0.12,-0.098,-0.193,-0.231,-0.224
-0.107,-0.304,-0.198,0.206,0.046,-0.25,0.015,0.113,-0.097,-0.198,-0.233,-0.225
-0.049,-0.283,-0.234,0.167,0.092,-0.258,0.029,0.168,-0.056,-0.165,-0.207,-0.209
-0.029,-0.192,-0.163,0.111,0.067,-0.177,0.042,0.215,0.002,-0.113,-0.16,-0.168
-0.044,-0.099,-0.055,0.072,0.006,-0.077,0.084,0.253,0.05,-0.082,-0.135,-0.142
-0.092,-0.05,0.042,0.072,-0.067,-0.004,0.196,0.321,0.105,-0.026,-0.1,-0.111
-0.095,0.028,0.123,0.033,-0.109,0.075,0.163,0.334,0.121,-0.005,-0.064,-0.072
-0.062,0.081,0.143,-0.009,-0.103,0.111,0.075,0.305,0.137,0.012,-0.052,-0.057
-0.081,0.07,0.151,0.005,-0.116,0.11,0.056,0.298,0.129,0.034,-0.042,-0.043
-0.055,0.057,0.112,-0.001,-0.084,0.084,0.029,0.284,0.107,0.028,-0.034,-0.034
-0.063,0.043,0.106,0.01,-0.084,0.074,-0.012,0.269,0.095,0.026,-0.031,-0.029
-0.048,0.032,0.079,0.008,-0.064,0.056,-0.048,0.244,0.078,0.024,-0.027,-0.023
-0.03,0.022,0.051,0.004,-0.04,0.036,-0.042,0.223,0.076,0.026,-0.021,-0.017
-0.038,0.007,0.046,0.015,-0.042,0.026,-0.051,0.209,0.066,0.024,-0.02,-0.015
0.018,0.013,-0.005,-0.015,0.011,0.004,-0.067,0.202,0.063,0.027,-0.019,-0.015
0.005,0.012,0.006,-0.009,-0.001,0.009,-0.053,0.176,0.051,0.019,-0.021,-0.015
-0.012,-0.01,0.002,0.011,-0.006,-0.004,-0.04,0.131,0.035,-0.006,-0.019,-0.015
-0.034,-0.041,-0.008,0.038,-0.013,-0.024,-0.033,0.109,0.004,-0.025,-0.038,-0.027
-0.023,-0.052,-0.029,0.038,0.003,-0.04,-0.029,0.099,-0.032,-0.049,-0.061,-0.05
0.008,-0.069,-0.077,0.03,0.043,-0.072,-0.025,0.076,-0.041,-0.07,-0.071,-0.072
-0.037,-0.109,-0.073,0.073,0.018,-0.091,-0.022,0.044,-0.074,-0.097,-0.104,-0.092
-0.078,-0.153,-0.076,0.116,-0.001,-0.114,-0.015,0.033,-0.108,-0.138,-0.139,-0.113
-0.075,-0.201,-0.126,0.138,0.025,-0.163,-0.013,0.036,-0.13,-0.177,-0.178,-0.153
-0.052,-0.234,-0.181,0.143,0.065,-0.207,-0.006,0.035,-0.139,-0.18,-0.195,-0.178
-0.093,-0.258,-0.166,0.176,0.037,-0.212,-0.005,0.032,-0.123,-0.163,-0.184,-0.173
-0.074,-0.209,-0.135,0.142,0.03,-0.171,0.007,0.051,-0.108,-0.155,-0.161,-0.15
-0.014,-0.117,-0.103,0.066,0.044,-0.11,0.013,0.086,-0.07,-0.113,-0.115,-0.108
-0.009,-0.049,-0.041,0.029,0.016,-0.045,0.052,0.116,-0.026,-0.055,-0.07,-0.065
-0.041,-0.001,0.04,0.021,-0.04,0.019,0.145,0.132,0.024,-0.022,-0.039,-0.033
-0.069,0.052,0.121,0.008,-0.095,0.086,0.116,0.142,0.057,-0.004,-0.018,-0.016
-0.045,0.11,0.155,-0.033,-0.1,0.132,0.048,0.118,0.056,0.029,-0.005,-0.005
-0.021,0.11,0.131,-0.045,-0.076,0.12,0.031,0.131,0.073,0.047,-0.007,-0.002
-0.03,0.079,0.109,-0.025,-0.07,0.094,-0.025,0.101,0.041,0.022,-0.002,0.009
-0.021,0.045,0.066,-0.012,-0.044,0.055,-0.016,0.104,0.041,0.014,-0.012,0.002
-0.001,0.01,0.012,-0.004,-0.007,0.011,0.002,0.197,0.068,0.005,-0.033,-0.034
0.044,0.031,-0.012,-0.038,0.028,0.009,-0.022,0.348,0.259,0.138,0.053,0.004
0.194,0.236,0.042,-0.215,0.076,0.139,-0.154,0.093,0.436,0.501,0.464,0.328
0.686,0.573,-0.113,-0.629,0.399,0.23,-0.679,-1.191,0.088,0.798,0.974,0.802
0.849,0.421,-0.428,-0.635,0.638,-0.003,-0.829,-1.89,-0.555,0.326,0.579,0.622
0.081,-0.202,-0.283,0.061,0.182,-0.242,-0.257,-1.406,-1.115,-0.686,-0.395,-0.091
-0.307,-0.387,-0.08,0.347,-0.113,-0.234,0.038,-0.795,-0.897,-0.756,-0.562,-0.318
-0.168,-0.258,-0.089,0.213,-0.039,-0.173,0.02,-0.214,-0.301,-0.306,-0.287,-0.209
-0.151,-0.203,-0.051,0.177,-0.05,-0.127,0.022,0.055,-0.137,-0.211,-0.212,-0.176
-0.089,-0.158,-0.068,0.124,-0.011,-0.113,-0.002,0.106,-0.103,-0.153,-0.17,-0.144
-0.097,-0.183,-0.085,0.14,-0.005,-0.134,-0.004,0.116,-0.103,-0.174,-0.185,-0.162
-0.11,-0.213,-0.103,0.162,-0.004,-0.158,-0.022,0.104,-0.099,-0.2,-0.207,-0.185
-0.094,-0.249,-0.155,0.172,0.031,-0.202,-0.033,0.121,-0.117,-0.206,-0.228,-0.197
-0.085,-0.271,-0.186,0.178,0.051,-0.228,-0.04,0.11,-0.139,-0.226,-0.244,-0.196
-0.081,-0.263,-0.182,0.172,0.051,-0.223,-0.019,0.119,-0.099,-0.2,-0.22,-0.185
-0.052,-0.194,-0.142,0.123,0.045,-0.168,0.018,0.166,-0.045,-0.147,-0.179,-0.162
-0.007,-0.082,-0.075,0.045,0.034,-0.078,0.031,0.207,0.0,-0.094,-0.126,-0.109
-0.076,-0.036,0.04,0.056,-0.058,0.002,0.146,0.268,0.057,-0.056,-0.092,-0.083
-0.116,0.024,0.14,0.046,-0.128,0.082,0.172,0.299,0.099,-0.017,-0.061,-0.057
-0.072,0.098,0.17,-0.014,-0.121,0.134,0.062,0.271,0.106,0.005,-0.028,-0.023
-0.062,0.108,0.17,-0.023,-0.117,0.139,0.024,0.27,0.109,0.005,-0.019,-0.013
-0.058,0.093,0.151,-0.018,-0.105,0.122,-0.004,0.271,0.098,-0.002,-0.02,-0.009
-0.043,0.084,0.127,-0.021,-0.085,0.105,-0.032,0.248,0.077,-0.005,-0.02,-0.005
-0.036,0.064,0.099,-0.014,-0.067,0.081,-0.07,0.218,0.048,-0.011,-0.021,0.0
-0.044,0.057,0.1,-0.007,-0.072,0.078,-0.081,0.209,0.046,-0.014,-0.019,0.005
-0.017,0.065,0.081,-0.024,-0.049,0.073,-0.07,0.202,0.039,-0.019,-0.024,0.008
0.006,0.058,0.052,-0.033,-0.023,0.055,-0.069,0.184,0.033,-0.02,-0.025,0.017
0.001,0.053,0.053,-0.027,-0.026,0.053,-0.06,0.159,0.03,-0.019,-0.025,0.016
-0.018,0.044,0.062,-0.013,-0.04,0.053,-0.057,0.126,0.012,-0.022,-0.025,0.015
-0.039,0.015,0.054,0.011,-0.047,0.034,-0.05,0.097,0.001,-0.024,-0.026,0.014
-0.012,-0.018,-0.006,0.015,-0.003,-0.012,-0.045,0.079,-0.034,-0.064,-0.065,-0.002
-0.044,-0.049,-0.005,0.047,-0.019,-0.027,-0.036,0.057,-0.059,-0.099,-0.093,-0.028
-0.04,-0.073,-0.033,0.057,-0.003,-0.053,-0.033,0.039,-0.079,-0.108,-0.109,-0.065
-0.031,-0.114,-0.083,0.073,0.026,-0.098,-0.021,0.02,-0.111,-0.142,-0.148,-0.099
-0.073,-0.163,-0.091,0.118,0.009,-0.127,-0.028,0.021,-0.134,-0.174,-0.174,-0.12
-0.057,-0.193,-0.136,0.125,0.04,-0.164,-0.044,0.021,-0.149,-0.198,-0.192,-0.134
-0.066,-0.208,-0.142,0.137,0.038,-0.174,-0.051,-0.012,-0.137,-0.193,-0.198,-0.15
-0.063,-0.194,-0.131,0.129,0.035,-0.163,-0.047,0.019,-0.123,-0.161,-0.181,-0.143
-0.039,-0.139,-0.1,0.089,0.03,-0.118,-0.009,0.071,-0.086,-0.127,-0.135,-0.1
-0.021,-0.045,-0.024,0.033,0.001,-0.034,0.037,0.108,-0.036,-0.082,-0.089,-0.063
-0.045,0.002,0.047,0.021,-0.046,0.025,0.111,0.141,0.007,-0.036,-0.061,-0.041
-0.07,0.042,0.111,0.014,-0.091,0.076,0.12,0.164,0.043,0.001,-0.035,-0.01
-0.043,0.111,0.154,-0.034,-0.098,0.132,0.055,0.13,0.039,0.003,-0.022,0.018
-0.008,0.129,0.137,-0.061,-0.073,0.133,0.017,0.121,0.07,0.009,-0.026,0.021
-0.016,0.107,0.123,-0.046,-0.07,0.115,-0.032,0.114,0.068,0.01,-0.025,0.017
-0.019,0.075,0.094,-0.028,-0.057,0.084,-0.056,0.091,0.07,0.001,-0.022,0.008
0.037,0.068,0.032,-0.052,0.002,0.05,-0.037,0.18,0.077,-0.013,-0.042,-0.014
0.061,0.049,-0.012,-0.055,0.036,0.018,-0.028,0.331,0.203,0.08,0.003,0.001
0.15,0.178,0.028,-0.164,0.061,0.103,-0.106,0.217,0.421,0.388,0.325,0.241
0.63,0.536,-0.094,-0.583,0.362,0.221,-0.587,-0.926,0.157,0.706,0.842,0.718
0.933,0.493,-0.44,-0.713,0.686,0.027,-0.871,-1.871,-0.493,0.364,0.625,0.671
0.224,-0.087,-0.311,-0.068,0.268,-0.199,-0.336,-1.539,-1.125,-0.638,-0.35,-0.02
-0.341,-0.376,-0.035,0.359,-0.153,-0.205,0.049,-0.916,-1.028,-0.846,-0.633,-0.326
-0.188,-0.254,-0.067,0.221,-0.06,-0.16,0.03,-0.311,-0.39,-0.378,-0.332,-0.205
-0.095,-0.166,-0.071,0.13,-0.011,-0.118,0.043,0.025,-0.155,-0.21,-0.239,-0.147
-0.077,-0.133,-0.057,0.105,-0.01,-0.095,0.017,0.086,-0.116,-0.15,-0.195,-0.133
-0.08,-0.156,-0.076,0.118,-0.002,-0.115,-0.008,0.093,-0.113,-0.173,-0.201,-0.149
-0.083,-0.207,-0.124,0.145,0.021,-0.165,-0.019,0.069,-0.113,-0.197,-0.216,-0.166
-0.062,-0.218,-0.156,0.14,0.047,-0.187,-0.028,0.073,-0.119,-0.199,-0.218,-0.177
-0.063,-0.249,-0.186,0.156,0.062,-0.217,-0.037,0.053,-0.141,-0.216,-0.237,-0.188
-0.062,-0.245,-0.183,0.154,0.061,-0.214,-0.031,0.078,-0.105,-0.188,-0.213,-0.166
-0.012,-0.16,-0.148,0.086,0.068,-0.154,-0.008,0.14,-0.066,-0.149,-0.169,-0.13
0.028,-0.073,-0.101,0.023,0.065,-0.087,0.005,0.184,-0.015,-0.097,-0.119,-0.09
-0.03,-0.006,0.024,0.018,-0.027,0.009,0.116,0.242,0.047,-0.048,-0.083,-0.054
-0.083,0.05,0.133,0.017,-0.108,0.091,0.173,0.277,0.087,-0.009,-0.065,-0.022
-0.055,0.115,0.171,-0.03,-0.113,0.143,0.079,0.258,0.103,0.007,-0.034,0.006
-0.025,0.143,0.168,-0.059,-0.097,0.155,0.029,0.248,0.11,0.016,-0.004,0.017
-0.038,0.122,0.16,-0.042,-0.1,0.141,-0.013,0.237,0.096,0.017,-0.007,0.019
-0.047,0.106,0.153,-0.03,-0.1,0.129,-0.043,0.227,0.085,0.013,-0.012,0.021
-0.023,0.096,0.119,-0.037,-0.072,0.108,-0.055,0.218,0.075,0.013,-0.016,0.019
-0.009,0.093,0.103,-0.042,-0.057,0.098,-0.079,0.206,0.065,0.008,-0.022,0.021
0.001,0.091,0.09,-0.047,-0.044,0.09,-0.075,0.195,0.055,0.015,-0.012,0.033
0.005,0.088,0.083,-0.047,-0.039,0.085,-0.07,0.181,0.046,0.023,-0.003,0.034
0.002,0.074,0.072,-0.038,-0.035,0.073,-0.065,0.17,0.035,0.012,0.009,0.026
0.022,0.053,0.031,-0.038,-0.005,0.042,-0.058,0.14,0.03,0.003,0.01,0.024
0.016,0.031,0.015,-0.023,0.0,0.023,-0.054,0.107,0.011,-0.008,-0.022,0.014
0.016,0.006,-0.01,-0.011,0.013,-0.002,-0.049,0.09,-0.014,-0.03,-0.039,0.014
0.025,-0.024,-0.049,-0.001,0.037,-0.036,-0.047,0.075,-0.036,-0.067,-0.07,-0.007
-0.003,-0.043,-0.041,0.023,0.019,-0.042,-0.044,0.052,-0.064,-0.096,-0.103,-0.038
-0.038,-0.089,-0.051,0.064,0.007,-0.07,-0.039,0.028,-0.086,-0.116,-0.122,-0.057
-0.05,-0.158,-0.108,0.104,0.029,-0.133,-0.041,0.023,-0.133,-0.172,-0.176,-0.11
-0.055,-0.185,-0.13,0.12,0.038,-0.157,-0.038,0.02,-0.154,-0.196,-0.191,-0.131
-0.054,-0.211,-0.157,0.133,0.052,-0.184,-0.046,0.013,-0.142,-0.187,-0.187,-0.13
-0.026,-0.193,-0.167,0.11,0.071,-0.18,-0.04,0.016,-0.126,-0.177,-0.176,-0.121
0.0,-0.109,-0.108,0.055,0.055,-0.109,0.001,0.056,-0.085,-0.13,-0.131,-0.079
0.005,-0.03,-0.035,0.013,0.02,-0.032,0.041,0.113,-0.039,-0.086,-0.09,-0.041
-0.031,0.02,0.051,0.005,-0.041,0.035,0.115,0.138,-0.002,-0.043,-0.053,-0.003
-0.043,0.065,0.109,-0.011,-0.076,0.087,0.123,0.165,0.036,0.005,-0.015,0.034
0.01,0.129,0.119,-0.07,-0.055,0.124,0.053,0.125,0.046,0.022,0.01,0.065
0.05,0.153,0.103,-0.102,-0.026,0.128,0.016,0.114,0.058,0.038,0.016,0.073
0.021,0.12,0.099,-0.071,-0.039,0.109,-0.026,0.111,0.04,0.03,0.024,0.069
0.011,0.096,0.085,-0.054,-0.037,0.09,-0.062,0.073,0.019,0.005,0.001,0.056
0.063,0.093,0.03,-0.078,0.016,0.061,-0.046,0.161,0.046,-0.004,-0.02,0.04
0.09,0.073,-0.017,-0.081,0.053,0.028,-0.031,0.281,0.171,0.079,0.026,0.054
0.177,0.193,0.016,-0.185,0.08,0.104,-0.102,0.205,0.377,0.37,0.328,0.284
0.645,0.551,-0.093,-0.598,0.369,0.229,-0.558,-0.805,0.188,0.712,0.88,0.786
0.99,0.531,-0.46,-0.76,0.725,0.035,-0.872,-1.768,-0.469,0.377,0.66,0.742
0.304,-0.067,-0.371,-0.119,0.337,-0.218,-0.35,-1.487,-1.103,-0.62,-0.326,0.024
-0.312,-0.366,-0.054,0.34,-0.129,-0.21,0.055,-0.883,-1.002,-0.831,-0.6,-0.279
-0.161,-0.24,-0.079,0.201,-0.041,-0.159,0.02,-0.333,-0.401,-0.359,-0.299,-0.15
-0.083,-0.171,-0.088,0.127,0.003,-0.129,0.035,0.001,-0.162,-0.206,-0.191,-0.105
-0.066,-0.152,-0.086,0.11,0.01,-0.119,0.017,0.068,-0.133,-0.193,-0.152,-0.075
-0.062,-0.138,-0.076,0.1,0.007,-0.107,-0.003,0.089,-0.135,-0.198,-0.14,-0.073
-0.081,-0.184,-0.104,0.133,0.012,-0.144,-0.02,0.073,-0.144,-0.203,-0.171,-0.103
-0.066,-0.238,-0.171,0.152,0.053,-0.204,-0.028,0.085,-0.138,-0.201,-0.203,-0.12
-0.074,-0.242,-0.168,0.158,0.047,-0.205,-0.022,0.077,-0.151,-0.208,-0.198,-0.13
-0.043,-0.219,-0.176,0.131,0.067,-0.197,-0.018,0.082,-0.117,-0.187,-0.18,-0.106
-0.021,-0.165,-0.144,0.093,0.062,-0.154,0.015,0.127,-0.062,-0.135,-0.143,-0.066
0.008,-0.083,-0.091,0.038,0.05,-0.087,0.027,0.163,-0.014,-0.077,-0.089,-0.039
-0.015,-0.024,-0.009,0.02,-0.003,-0.017,0.107,0.214,0.039,-0.041,-0.051,-0.005
-0.069,0.017,0.087,0.026,-0.078,0.052,0.191,0.253,0.092,-0.006,-0.019,0.028
-0.057,0.101,0.158,-0.022,-0.107,0.129,0.124,0.243,0.102,0.027,0.003,0.063
-0.05,0.135,0.185,-0.043,-0.118,0.16,0.054,0.238,0.091,0.037,0.015,0.087
-0.04,0.111,0.151,-0.036,-0.096,0.131,0.039,0.231,0.083,0.048,0.034,0.092
-0.015,0.106,0.12,-0.046,-0.068,0.112,0.007,0.223,0.071,0.048,0.044,0.095
-0.017,0.08,0.097,-0.031,-0.058,0.088,-0.038,0.195,0.063,0.018,0.032,0.095
-0.011,0.076,0.086,-0.033,-0.049,0.081,-0.058,0.169,0.057,0.007,0.022,0.094
0.0,0.074,0.074,-0.037,-0.037,0.074,-0.05,0.164,0.053,-0.002,0.007,0.095
0.012,0.075,0.064,-0.044,-0.026,0.069,-0.047,0.153,0.049,0.014,0.03,0.11
0.049,0.097,0.048,-0.073,0.0,0.072,-0.042,0.139,0.043,0.038,0.058,0.11
0.062,0.073,0.012,-0.068,0.025,0.042,-0.038,0.121,0.041,0.018,0.037,0.102
0.053,0.044,-0.009,-0.048,0.031,0.017,-0.034,0.105,0.022,0.004,0.018,0.096
0.053,0.04,-0.013,-0.046,0.033,0.013,-0.027,0.074,0.004,-0.011,-0.003,0.08
0.049,0.02,-0.029,-0.035,0.039,-0.004,-0.021,0.047,-0.017,-0.039,-0.021,0.063
0.012,-0.034,-0.046,0.011,0.029,-0.039,-0.014,0.033,-0.027,-0.043,-0.035,0.049
-0.022,-0.054,-0.032,0.038,0.005,-0.043,-0.008,0.021,-0.049,-0.07,-0.062,0.022
-0.036,-0.093,-0.057,0.065,0.011,-0.075,0.0,0.019,-0.093,-0.112,-0.093,-0.02
-0.048,-0.164,-0.115,0.106,0.034,-0.139,-0.006,0.021,-0.09,-0.14,-0.124,-0.039
-0.037,-0.174,-0.137,0.106,0.05,-0.155,-0.019,0.019,-0.103,-0.15,-0.136,-0.053
-0.033,-0.181,-0.147,0.108,0.057,-0.164,-0.028,0.02,-0.107,-0.128,-0.125,-0.052
-0.006,-0.151,-0.144,0.079,0.069,-0.147,-0.015,0.032,-0.075,-0.101,-0.09,-0.022
0.026,-0.075,-0.1,0.025,0.064,-0.087,0.013,0.08,-0.025,-0.043,-0.046,0.014
0.017,-0.007,-0.024,-0.005,0.02,-0.016,0.044,0.124,0.027,0.008,-0.008,0.057
-0.01,0.044,0.054,-0.017,-0.032,0.048,0.141,0.144,0.063,0.027,0.024,0.084
-0.025,0.083,0.107,-0.029,-0.066,0.095,0.146,0.139,0.089,0.061,0.056,0.107
0.021,0.149,0.127,-0.085,-0.053,0.138,0.051,0.111,0.099,0.09,0.08,0.133
0.033,0.171,0.138,-0.103,-0.053,0.154,0.03,0.115,0.104,0.094,0.08,0.148
0.044,0.132,0.088,-0.088,-0.022,0.109,0.013,0.076,0.074,0.085,0.073,0.138
0.047,0.118,0.071,-0.083,-0.012,0.094,0.016,0.113,0.091,0.059,0.05,0.123
0.067,0.104,0.037,-0.086,0.015,0.07,0.008,0.242,0.188,0.112,0.082,0.122
0.165,0.132,-0.033,-0.148,0.099,0.049,-0.026,0.324,0.368,0.302,0.26,0.215
0.445,0.388,-0.057,-0.417,0.251,0.165,-0.297,-0.232,0.302,0.538,0.665,0.619
0.956,0.592,-0.364,-0.774,0.66,0.114,-0.783,-1.349,-0.237,0.492,0.785,0.861
0.622,0.243,-0.379,-0.432,0.501,-0.068,-0.544,-1.507,-0.835,-0.206,0.092,0.363
-0.19,-0.21,-0.02,0.2,-0.085,-0.115,0.054,-0.939,-0.984,-0.752,-0.501,-0.166
-0.259,-0.265,-0.006,0.262,-0.126,-0.135,0.108,-0.518,-0.58,-0.526,-0.404,-0.194
-0.136,-0.189,-0.053,0.163,-0.041,-0.12,0.059,-0.14,-0.196,-0.224,-0.195,-0.094
-0.075,-0.108,-0.033,0.091,-0.021,-0.07,0.059,0.053,-0.06,-0.105,-0.105,-0.055
-0.046,-0.084,-0.038,0.065,-0.003,-0.061,0.03,0.099,-0.026,-0.082,-0.084,-0.055
-0.065,-0.11,-0.046,0.088,-0.009,-0.078,0.034,0.102,-0.024,-0.105,-0.101,-0.054
-0.061,-0.15,-0.089,0.106,0.014,-0.119,0.014,0.097,-0.033,-0.124,-0.123,-0.062
-0.084,-0.208,-0.124,0.147,0.02,-0.166,0.016,0.098,-0.058,-0.15,-0.141,-0.077
-0.072,-0.202,-0.13,0.138,0.029,-0.166,0.02,0.092,-0.047,-0.139,-0.134,-0.064
-0.031,-0.194,-0.162,0.113,0.066,-0.178,0.014,0.1,-0.035,-0.147,-0.127,-0.059
-0.014,-0.143,-0.129,0.079,0.058,-0.135,0.044,0.146,0.021,-0.098,-0.095,-0.045
-0.005,-0.044,-0.039,0.025,0.017,-0.041,0.055,0.194,0.08,-0.03,-0.046,-0.002
0.01,0.037,0.027,-0.024,-0.009,0.032,0.102,0.243,0.128,0.03,0.019,0.05
-0.061,0.068,0.129,-0.004,-0.095,0.099,0.184,0.283,0.176,0.059,0.042,0.065
-0.063,0.119,0.182,-0.028,-0.123,0.15,0.155,0.261,0.177,0.07,0.06,0.092
-0.009,0.197,0.206,-0.094,-0.108,0.201,0.092,0.239,0.169,0.112,0.097,0.135
-0.017,0.186,0.203,-0.084,-0.11,0.194,0.05,0.231,0.163,0.107,0.085,0.136
-0.009,0.165,0.174,-0.079,-0.092,0.17,0.013,0.217,0.155,0.104,0.107,0.14
-0.018,0.15,0.169,-0.066,-0.094,0.159,-0.023,0.208,0.15,0.056,0.1,0.142
-0.009,0.135,0.144,-0.063,-0.077,0.139,-0.051,0.187,0.147,0.081,0.11,0.151
0.028,0.13,0.102,-0.079,-0.037,0.116,-0.044,0.173,0.144,0.136,0.142,0.166
0.038,0.115,0.077,-0.077,-0.02,0.096,-0.037,0.166,0.139,0.091,0.108,0.158
0.026,0.109,0.082,-0.067,-0.028,0.095,-0.031,0.16,0.136,0.084,0.096,0.154
0.014,0.09,0.076,-0.052,-0.031,0.082,-0.023,0.149,0.131,0.088,0.089,0.145
0.031,0.089,0.058,-0.06,-0.014,0.073,-0.019,0.12,0.114,0.063,0.083,0.13
0.036,0.074,0.038,-0.055,-0.001,0.056,-0.006,0.098,0.079,0.013,0.068,0.102
0.009,0.031,0.022,-0.02,-0.007,0.026,0.009,0.083,0.045,0.004,0.038,0.072
-0.005,0.0,0.004,0.002,-0.005,0.002,0.029,0.067,0.033,0.0,0.018,0.055
-0.008,-0.034,-0.027,0.021,0.01,-0.03,0.036,0.054,0.029,-0.022,0.005,0.039
-0.037,-0.07,-0.033,0.053,-0.002,-0.051,0.033,0.044,0.012,-0.047,-0.026,0.018
-0.022,-0.101,-0.08,0.062,0.029,-0.09,0.029,0.041,0.003,-0.088,-0.07,-0.015
0.002,-0.13,-0.132,0.064,0.067,-0.13,0.026,0.036,-0.019,-0.109,-0.077,-0.036
-0.029,-0.164,-0.135,0.097,0.053,-0.149,0.021,0.031,-0.047,-0.105,-0.068,-0.037
-0.002,-0.153,-0.151,0.078,0.074,-0.152,0.02,0.036,-0.037,-0.088,-0.06,-0.017
0.037,-0.085,-0.123,0.024,0.08,-0.104,0.044,0.069,0.019,-0.027,-0.007,0.025
0.057,0.015,-0.042,-0.036,0.049,-0.013,0.063,0.116,0.1,0.064,0.06,0.082
0.041,0.082,0.041,-0.062,0.0,0.061,0.135,0.15,0.128,0.084,0.079,0.112
-0.008,0.108,0.116,-0.05,-0.062,0.112,0.205,0.165,0.154,0.112,0.107,0.12
0.008,0.171,0.162,-0.09,-0.077,0.167,0.133,0.117,0.173,0.161,0.144,0.15
0.043,0.204,0.161,-0.124,-0.059,0.182,0.065,0.101,0.174,0.165,0.162,0.171
0.038,0.186,0.148,-0.112,-0.055,0.167,0.052,0.086,0.158,0.152,0.156,0.17
0.05,0.162,0.113,-0.106,-0.032,0.137,0.046,0.092,0.169,0.155,0.153,0.17
0.048,0.127,0.079,-0.087,-0.016,0.103,0.057,0.172,0.182,0.132,0.138,0.167
0.075,0.118,0.044,-0.097,0.015,0.081,0.034,0.295,0.318,0.233,0.182,0.169
0.211,0.277,0.066,-0.245,0.072,0.171,-0.055,0.237,0.534,0.548,0.538,0.424
0.683,0.622,-0.061,-0.652,0.371,0.28,-0.497,-0.721,0.24,0.811,1.065,0.953
0.973,0.589,-0.385,-0.781,0.679,0.102,-0.783,-1.55,-0.369,0.52,0.856,0.91
0.273,0.016,-0.257,-0.144,0.265,-0.12,-0.243,-1.205,-0.847,-0.383,-0.12,0.158
-0.278,-0.287,-0.008,0.283,-0.134,-0.147,0.143,-0.691,-0.782,-0.672,-0.486,-0.21
-0.167,-0.206,-0.039,0.186,-0.063,-0.123,0.072,-0.314,-0.307,-0.296,-0.23,-0.11
-0.093,-0.125,-0.032,0.109,-0.03,-0.079,0.09,0.003,-0.038,-0.099,-0.087,-0.048
-0.052,-0.074,-0.022,0.063,-0.014,-0.048,0.089,0.124,0.078,-0.017,-0.003,0.001
-0.035,-0.065,-0.031,0.05,-0.002,-0.048,0.073,0.145,0.088,0.005,0.002,0.006
-0.02,-0.07,-0.051,0.045,0.016,-0.06,0.068,0.122,0.075,-0.003,-0.029,-0.008
-0.031,-0.139,-0.109,0.085,0.039,-0.124,0.052,0.124,0.074,-0.065,-0.067,-0.033
-0.063,-0.193,-0.13,0.128,0.034,-0.161,0.052,0.106,0.047,-0.055,-0.089,-0.06
-0.042,-0.171,-0.129,0.107,0.044,-0.15,0.056,0.108,0.041,-0.024,-0.076,-0.047
-0.001,-0.138,-0.137,0.069,0.068,-0.137,0.081,0.175,0.085,-0.032,-0.062,-0.026
0.024,-0.051,-0.075,0.014,0.05,-0.063,0.111,0.213,0.146,0.027,-0.004,0.01
0.025,0.034,0.009,-0.029,0.007,0.021,0.13,0.256,0.199,0.091,0.07,0.059
-0.033,0.079,0.112,-0.023,-0.072,0.095,0.219,0.307,0.241,0.128,0.111,0.103
-0.086,0.129,0.215,-0.022,-0.151,0.172,0.243,0.307,0.248,0.147,0.127,0.12
-0.053,0.181,0.234,-0.064,-0.144,0.207,0.151,0.292,0.267,0.177,0.155,0.135
-0.023,0.205,0.228,-0.092,-0.126,0.216,0.111,0.279,0.262,0.193,0.161,0.168
0.016,0.209,0.193,-0.113,-0.089,0.201,0.07,0.264,0.248,0.163,0.152,0.176
0.025,0.184,0.159,-0.104,-0.068,0.171,0.043,0.268,0.246,0.144,0.151,0.176
-0.013,0.165,0.178,-0.076,-0.095,0.171,0.035,0.249,0.241,0.179,0.143,0.179
0.018,0.177,0.158,-0.098,-0.07,0.167,0.022,0.218,0.234,0.187,0.177,0.182
0.009,0.171,0.162,-0.09,-0.077,0.166,0.04,0.215,0.228,0.197,0.206,0.197
0.023,0.164,0.141,-0.094,-0.059,0.152,0.04,0.19,0.221,0.201,0.194,0.188
0.07,0.138,0.068,-0.104,0.001,0.102,0.039,0.167,0.215,0.184,0.185,0.175
0.025,0.107,0.082,-0.066,-0.029,0.094,0.042,0.154,0.207,0.181,0.175,0.165
0.058,0.09,0.032,-0.074,0.013,0.061,0.035,0.136,0.18,0.155,0.161,0.155
0.055,0.073,0.018,-0.064,0.018,0.045,0.057,0.122,0.15,0.14,0.152,0.149
-0.015,0.048,0.062,-0.017,-0.038,0.055,0.073,0.105,0.108,0.091,0.126,0.131
-0.03,0.005,0.035,0.013,-0.032,0.02,0.069,0.092,0.072,0.058,0.081,0.097
-0.04,-0.008,0.032,0.024,-0.036,0.012,0.07,0.08,0.056,0.062,0.059,0.07
-0.038,-0.045,-0.007,0.042,-0.015,-0.026,0.07,0.071,0.042,0.024,0.047,0.043
-0.025,-0.09,-0.065,0.058,0.021,-0.078,0.065,0.062,0.05,0.028,0.026,0.017
0.018,-0.103,-0.121,0.043,0.07,-0.112,0.065,0.055,0.047,-0.004,-0.014,0.008
0.007,-0.118,-0.126,0.056,0.067,-0.122,0.066,0.044,0.031,-0.016,-0.012,-0.002
0.021,-0.071,-0.093,0.025,0.057,-0.082,0.063,0.083,0.066,0.054,0.058,0.029
0.041,-0.012,-0.054,-0.014,0.048,-0.033,0.075,0.139,0.132,0.1,0.106,0.092
0.022,0.058,0.036,-0.04,-0.008,0.047,0.122,0.165,0.185,0.16,0.161,0.142
0.038,0.144,0.107,-0.091,-0.035,0.125,0.22,0.216,0.219,0.199,0.209,0.173
0.002,0.179,0.177,-0.09,-0.088,0.178,0.191,0.191,0.209,0.215,0.221,0.197
0.029,0.228,0.199,-0.129,-0.086,0.214,0.096,0.14,0.236,0.242,0.237,0.215
0.054,0.25,0.196,-0.152,-0.071,0.222,0.094,0.152,0.26,0.26,0.239,0.211
0.025,0.198,0.173,-0.112,-0.074,0.185,0.046,0.092,0.223,0.243,0.241,0.2
0.068,0.181,0.113,-0.125,-0.023,0.147,0.044,0.134,0.248,0.255,0.24,0.193
0.08,0.189,0.109,-0.135,-0.015,0.149,0.052,0.234,0.266,0.243,0.214,0.18
0.136,0.19,0.054,-0.164,0.041,0.122,0.02,0.369,0.48,0.387,0.334,0.253
0.356,0.41,0.054,-0.383,0.15,0.232,-0.163,0.0,0.536,0.77,0.876,0.696
0.827,0.719,-0.108,-0.773,0.467,0.305,-0.668,-1.16,0.031,0.941,1.305,1.158
0.772,0.44,-0.332,-0.606,0.552,0.054,-0.594,-1.461,-0.532,0.344,0.666,0.761
-0.051,-0.152,-0.101,0.101,0.025,-0.126,0.037,-0.904,-0.861,-0.558,-0.304,-0.012
-0.284,-0.269,0.015,0.276,-0.149,-0.127,0.165,-0.52,-0.587,-0.519,-0.367,-0.175
-0.113,-0.137,-0.024,0.125,-0.045,-0.08,0.101,-0.145,-0.113,-0.093,-0.076,-0.042
-0.109,-0.06,0.05,0.084,-0.079,-0.005,0.113,0.071,0.045,0.006,0.014,0.015
-0.032,-0.015,0.017,0.024,-0.025,0.001,0.085,0.122,0.136,0.091,0.077,0.042
-0.059,-0.036,0.024,0.047,-0.041,-0.006,0.092,0.141,0.134,0.099,0.064,0.024
-0.081,-0.092,-0.011,0.087,-0.035,-0.051,0.079,0.131,0.072,0.047,0.029,0.009
-0.045,-0.122,-0.077,0.084,0.017,-0.1,0.08,0.141,0.084,0.043,-0.01,-0.006
-0.051,-0.123,-0.072,0.087,0.011,-0.097,0.074,0.14,0.088,0.042,-0.036,-0.022
-0.019,-0.132,-0.114,0.076,0.048,-0.123,0.068,0.136,0.072,0.01,-0.01,-0.023
-0.002,-0.079,-0.077,0.041,0.037,-0.077,0.091,0.168,0.137,0.05,0.035,0.015
-0.011,0.01,0.022,0.0,-0.017,0.016,0.104,0.206,0.184,0.1,0.084,0.052
-0.006,0.107,0.112,-0.051,-0.06,0.109,0.171,0.26,0.254,0.179,0.147,0.102
-0.035,0.172,0.207,-0.069,-0.121,0.189,0.26,0.299,0.305,0.228,0.204,0.142
-0.036,0.195,0.231,-0.08,-0.133,0.212,0.203,0.265,0.288,0.209,0.203,0.141
-0.02,0.256,0.276,-0.118,-0.148,0.266,0.117,0.251,0.316,0.25,0.194,0.162
-0.016,0.253,0.269,-0.119,-0.143,0.261,0.087,0.254,0.306,0.246,0.195,0.163
-0.009,0.224,0.233,-0.108,-0.121,0.228,0.062,0.235,0.29,0.242,0.184,0.15
-0.002,0.225,0.227,-0.112,-0.115,0.226,0.051,0.214,0.295,0.251,0.191,0.158
0.012,0.209,0.197,-0.111,-0.093,0.202,0.043,0.202,0.27,0.243,0.227,0.181
0.018,0.206,0.188,-0.112,-0.085,0.196,0.046,0.188,0.231,0.227,0.231,0.197
0.013,0.191,0.178,-0.102,-0.083,0.184,0.044,0.17,0.219,0.218,0.229,0.195
0.014,0.177,0.163,-0.096,-0.075,0.17,0.046,0.156,0.219,0.203,0.231,0.193
0.008,0.159,0.151,-0.084,-0.071,0.155,0.044,0.138,0.228,0.201,0.228,0.188
-0.004,0.132,0.135,-0.064,-0.07,0.133,0.045,0.118,0.22,0.24,0.24,0.187
0.02,0.14,0.12,-0.081,-0.05,0.13,0.058,0.098,0.178,0.204,0.205,0.178
0.037,0.129,0.093,-0.083,-0.028,0.111,0.067,0.085,0.159,0.178,0.169,0.157
0.02,0.083,0.063,-0.052,-0.021,0.072,0.081,0.073,0.129,0.154,0.152,0.131
-0.013,0.04,0.054,-0.014,-0.034,0.047,0.076,0.062,0.093,0.111,0.114,0.101
-0.029,0.012,0.041,0.008,-0.035,0.026,0.073,0.056,0.076,0.091,0.093,0.085
-0.05,-0.04,0.01,0.045,-0.03,-0.015,0.07,0.046,0.035,0.06,0.072,0.055
-0.065,-0.091,-0.026,0.078,-0.019,-0.058,0.064,0.041,0.026,0.046,0.053,0.023
-0.037,-0.108,-0.07,0.073,0.017,-0.089,0.065,0.029,0.035,0.017,0.034,0.027
-0.011,-0.099,-0.089,0.055,0.039,-0.094,0.055,0.039,0.022,0.025,0.029,0.021
0.016,-0.036,-0.052,0.01,0.034,-0.044,0.08,0.087,0.077,0.085,0.083,0.052
0.03,0.056,0.025,-0.043,0.002,0.04,0.103,0.117,0.139,0.129,0.142,0.107
0.018,0.133,0.115,-0.075,-0.049,0.124,0.173,0.17,0.181,0.198,0.206,0.144
-0.007,0.174,0.181,-0.084,-0.094,0.177,0.24,0.209,0.244,0.255,0.24,0.173
-0.005,0.227,0.232,-0.111,-0.119,0.229,0.152,0.158,0.225,0.232,0.232,0.189
0.028,0.276,0.247,-0.152,-0.11,0.261,0.092,0.155,0.231,0.267,0.274,0.205
0.029,0.252,0.223,-0.141,-0.097,0.237,0.07,0.162,0.223,0.286,0.297,0.199
0.026,0.213,0.186,-0.12,-0.08,0.199,0.037,0.153,0.183,0.258,0.262,0.181
0.03,0.192,0.162,-0.112,-0.066,0.177,0.061,0.199,0.217,0.235,0.208,0.145
0.055,0.185,0.13,-0.12,-0.038,0.157,0.042,0.296,0.352,0.298,0.244,0.155
0.168,0.298,0.13,-0.233,0.019,0.213,-0.017,0.314,0.606,0.654,0.63,0.421
0.526,0.665,0.139,-0.596,0.193,0.402,-0.408,-0.602,0.34,1.033,1.287,1.038
0.85,0.738,-0.113,-0.794,0.481,0.312,-0.779,-1.574,-0.259,0.909,1.283,1.197
0.359,0.12,-0.239,-0.239,0.299,-0.059,-0.324,-1.266,-0.744,-0.072,0.217,0.39
-0.252,-0.281,-0.03,0.267,-0.111,-0.155,0.124,-0.743,-0.85,-0.679,-0.447,-0.191
-0.215,-0.205,0.01,0.21,-0.112,-0.097,0.084,-0.386,-0.36,-0.275,-0.197,-0.123
-0.117,-0.1,0.017,0.109,-0.067,-0.041,0.077,-0.027,-0.027,-0.044,0.002,-0.05
-0.059,-0.008,0.051,0.033,-0.054,0.021,0.074,0.099,0.095,0.035,0.063,-0.001
-0.022,-0.02,0.002,0.021,-0.012,-0.009,0.066,0.138,0.137,0.113,0.087,0.029
-0.064,-0.052,0.011,0.058,-0.037,-0.02,0.067,0.136,0.083,0.05,0.046,0.0
-0.055,-0.079,-0.024,0.067,-0.015,-0.052,0.056,0.128,0.075,0.031,0.021,-0.034
-0.049,-0.119,-0.069,0.084,0.01,-0.094,0.056,0.124,0.066,0.022,-0.008,-0.048
-0.049,-0.133,-0.084,0.091,0.018,-0.108,0.042,0.113,0.067,-0.008,-0.019,-0.057
-0.021,-0.124,-0.103,0.073,0.042,-0.113,0.046,0.134,0.091,0.014,0.002,-0.047
-0.008,-0.048,-0.04,0.028,0.016,-0.044,0.078,0.188,0.152,0.082,0.066,-0.003
-0.009,0.054,0.064,-0.023,-0.036,0.059,0.097,0.223,0.212,0.131,0.117,0.032
-0.028,0.129,0.158,-0.051,-0.093,0.143,0.195,0.276,0.265,0.198,0.161,0.083
-0.065,0.166,0.231,-0.05,-0.149,0.198,0.238,0.303,0.29,0.199,0.215,0.11
-0.05,0.226,0.276,-0.088,-0.163,0.251,0.125,0.255,0.297,0.218,0.229,0.128
-0.034,0.251,0.285,-0.109,-0.16,0.268,0.084,0.239,0.308,0.256,0.227,0.154
-0.029,0.224,0.254,-0.098,-0.142,0.239,0.063,0.233,0.291,0.22,0.206,0.151
-0.019,0.213,0.232,-0.098,-0.126,0.222,0.028,0.222,0.258,0.192,0.192,0.157
-0.007,0.192,0.199,-0.093,-0.103,0.195,0.002,0.214,0.245,0.18,0.194,0.159
0.002,0.18,0.178,-0.091,-0.088,0.179,-0.025,0.191,0.239,0.211,0.214,0.167
0.019,0.175,0.157,-0.097,-0.069,0.166,-0.024,0.184,0.233,0.236,0.226,0.174
0.026,0.166,0.14,-0.096,-0.057,0.153,-0.016,0.167,0.223,0.23,0.214,0.167
0.007,0.16,0.153,-0.084,-0.073,0.156,-0.004,0.142,0.206,0.225,0.233,0.177
0.01,0.152,0.142,-0.081,-0.066,0.147,0.001,0.133,0.189,0.22,0.225,0.173
0.015,0.137,0.123,-0.076,-0.054,0.13,0.021,0.114,0.165,0.211,0.195,0.145
0.001,0.101,0.1,-0.051,-0.05,0.1,0.032,0.085,0.138,0.172,0.177,0.118
-0.027,0.055,0.082,-0.014,-0.055,0.068,0.032,0.068,0.112,0.122,0.143,0.098
-0.03,0.037,0.067,-0.004,-0.049,0.052,0.036,0.06,0.101,0.095,0.128,0.078
-0.025,0.032,0.057,-0.004,-0.041,0.044,0.039,0.053,0.081,0.087,0.114,0.051
-0.049,-0.018,0.031,0.033,-0.04,0.007,0.041,0.047,0.042,0.066,0.075,0.027
-0.077,-0.091,-0.013,0.084,-0.031,-0.052,0.045,0.044,0.042,0.06,0.054,0.008
-0.055,-0.111,-0.056,0.083,0.001,-0.083,0.068,0.037,0.041,0.002,0.029,-0.009
-0.021,-0.105,-0.084,0.063,0.032,-0.094,0.069,0.037,0.028,-0.02,0.029,-0.021
0.002,-0.09,-0.092,0.045,0.047,-0.091,0.071,0.065,0.059,0.053,0.053,-0.006
0.015,-0.015,-0.03,0.0,0.022,-0.022,0.068,0.11,0.108,0.087,0.083,0.038
0.024,0.076,0.052,-0.051,-0.014,0.064,0.097,0.154,0.156,0.143,0.164,0.093
0.008,0.129,0.121,-0.069,-0.057,0.125,0.196,0.191,0.207,0.189,0.191,0.128
-0.023,0.171,0.194,-0.075,-0.109,0.182,0.175,0.167,0.222,0.209,0.205,0.151
0.013,0.223,0.21,-0.118,-0.099,0.216,0.075,0.117,0.225,0.236,0.228,0.164
0.033,0.246,0.213,-0.14,-0.09,0.229,0.047,0.123,0.238,0.265,0.237,0.173
0.048,0.217,0.169,-0.133,-0.06,0.193,0.011,0.083,0.201,0.245,0.25,0.175
0.027,0.158,0.131,-0.093,-0.052,0.144,0.019,0.113,0.201,0.195,0.202,0.141
-0.012,0.121,0.132,-0.055,-0.072,0.126,0.035,0.197,0.227,0.192,0.176,0.107
0.055,0.169,0.115,-0.113,-0.03,0.141,0.013,0.354,0.483,0.407,0.345,0.184
0.301,0.433,0.132,-0.368,0.084,0.282,-0.181,-0.031,0.532,0.809,0.914,0.654
0.798,0.763,-0.035,-0.78,0.416,0.364,-0.703,-1.24,0.015,1.033,1.418,1.2
0.715,0.497,-0.218,-0.606,0.466,0.139,-0.647,-1.546,-0.5,0.505,0.825,0.837
-0.047,-0.155,-0.107,0.101,0.03,-0.131,-0.029,-0.982,-0.906,-0.541,-0.274,-0.034
-0.278,-0.306,-0.028,0.292,-0.125,-0.167,0.123,-0.573,-0.681,-0.617,-0.43,-0.256
-0.138,-0.152,-0.014,0.145,-0.062,-0.082,0.08,-0.18,-0.159,-0.147,-0.112,-0.099
-0.104,-0.076,0.028,0.09,-0.066,-0.024,0.085,0.054,0.026,-0.042,-0.02,-0.054
-0.075,-0.053,0.023,0.064,-0.049,-0.015,0.049,0.114,0.093,0.048,0.022,-0.029
-0.085,-0.074,0.011,0.079,-0.047,-0.031,0.051,0.116,0.06,0.026,0.003,-0.034
-0.069,-0.102,-0.032,0.086,-0.018,-0.067,0.05,0.117,0.062,-0.012,-0.012,-0.07
-0.044,-0.148,-0.104,0.097,0.03,-0.126,0.049,0.123,0.055,-0.015,-0.018,-0.097
-0.057,-0.17,-0.113,0.113,0.028,-0.141,0.052,0.123,0.039,-0.05,-0.051,-0.106
-0.075,-0.175,-0.1,0.125,0.013,-0.138,0.047,0.127,0.058,-0.05,-0.061,-0.105
-0.039,-0.12,-0.081,0.08,0.021,-0.1,0.057,0.15,0.097,-0.016,-0.006,-0.08
-0.005,-0.027,-0.022,0.016,0.008,-0.024,0.066,0.184,0.132,0.04,0.045,-0.04
-0.007,0.053,0.061,-0.023,-0.034,0.057,0.121,0.243,0.186,0.099,0.081,-0.001
-0.044,0.128,0.173,-0.042,-0.109,0.15,0.226,0.294,0.262,0.164,0.133,0.041
-0.06,0.159,0.219,-0.049,-0.14,0.189,0.171,0.254,0.274,0.174,0.137,0.062
-0.02,0.187,0.207,-0.083,-0.114,0.196,0.076,0.224,0.264,0.164,0.146,0.081
-0.034,0.172,0.207,-0.069,-0.121,0.189,0.044,0.223,0.255,0.163,0.148,0.092
-0.028,0.168,0.196,-0.07,-0.112,0.182,0.001,0.213,0.228,0.178,0.136,0.094
0.003,0.18,0.177,-0.092,-0.087,0.178,-0.017,0.208,0.196,0.181,0.132,0.096
0.003,0.157,0.153,-0.08,-0.075,0.155,-0.039,0.187,0.189,0.128,0.117,0.092
0.004,0.151,0.148,-0.078,-0.072,0.149,-0.039,0.168,0.213,0.166,0.164,0.107
0.006,0.145,0.139,-0.075,-0.067,0.141,-0.031,0.152,0.207,0.191,0.192,0.115
0.034,0.136,0.102,-0.085,-0.035,0.119,-0.028,0.136,0.17,0.148,0.172,0.109
0.015,0.119,0.104,-0.067,-0.045,0.111,-0.02,0.118,0.145,0.159,0.167,0.107
-0.004,0.097,0.101,-0.047,-0.053,0.099,-0.016,0.09,0.12,0.15,0.152,0.105
0.005,0.077,0.072,-0.041,-0.034,0.074,-0.004,0.064,0.104,0.115,0.131,0.081
0.001,0.063,0.061,-0.032,-0.03,0.062,0.005,0.053,0.082,0.083,0.117,0.042
-0.01,0.041,0.051,-0.016,-0.031,0.045,0.012,0.046,0.056,0.072,0.095,0.024
-0.021,-0.001,0.021,0.011,-0.021,0.01,0.027,0.035,0.041,0.059,0.058,0.01
-0.029,-0.029,0.0,0.029,-0.014,-0.014,0.042,0.031,0.005,0.018,0.028,-0.018
-0.048,-0.075,-0.027,0.062,-0.01,-0.051,0.04,0.029,-0.022,-0.024,-0.002,-0.049
-0.051,-0.131,-0.08,0.091,0.015,-0.106,0.039,0.028,-0.029,-0.056,-0.025,-0.074
-0.059,-0.153,-0.093,0.106,0.017,-0.123,0.042,0.021,-0.023,-0.072,-0.048,-0.087
-0.029,-0.126,-0.098,0.077,0.035,-0.112,0.036,0.036,-0.014,-0.052,-0.04,-0.075
-0.003,-0.07,-0.067,0.036,0.032,-0.068,0.047,0.07,0.026,0.013,0.017,-0.032
0.024,0.018,-0.005,-0.021,0.014,0.006,0.061,0.111,0.083,0.048,0.058,0.017
0.013,0.094,0.081,-0.054,-0.034,0.087,0.153,0.154,0.129,0.094,0.111,0.061
-0.038,0.141,0.179,-0.052,-0.108,0.16,0.204,0.149,0.178,0.171,0.157,0.092
-0.003,0.185,0.188,-0.092,-0.096,0.186,0.097,0.11,0.171,0.169,0.164,0.098
-0.006,0.192,0.198,-0.094,-0.102,0.195,0.056,0.125,0.179,0.163,0.172,0.095
-0.009,0.175,0.184,-0.083,-0.097,0.179,0.031,0.122,0.171,0.151,0.155,0.086
0.033,0.149,0.116,-0.091,-0.042,0.132,0.015,0.119,0.178,0.152,0.142,0.082
0.045,0.142,0.097,-0.093,-0.027,0.119,0.028,0.167,0.182,0.136,0.125,0.072
0.074,0.123,0.05,-0.099,0.011,0.086,-0.013,0.277,0.325,0.242,0.185,0.086
0.168,0.269,0.102,-0.219,0.033,0.185,-0.074,0.199,0.544,0.602,0.591,0.378
0.568,0.665,0.098,-0.616,0.235,0.381,-0.517,-0.851,0.207,0.985,1.27,0.99
0.842,0.672,-0.17,-0.756,0.506,0.25,-0.817,-1.685,-0.344,0.84,1.181,1.059
0.243,0.041,-0.202,-0.142,0.223,-0.081,-0.275,-1.26,-0.826,-0.233,0.036,0.232
-0.287,-0.344,-0.057,0.316,-0.115,-0.2,0.121,-0.757,-0.877,-0.759,-0.54,-0.294
-0.183,-0.221,-0.038,0.202,-0.072,-0.129,0.074,-0.347,-0.361,-0.323,-0.263,-0.201
-0.104,-0.134,-0.03,0.119,-0.037,-0.082,0.077,-0.009,-0.061,-0.097,-0.098,-0.119
-0.097,-0.132,-0.035,0.114,-0.031,-0.083,0.062,0.085,0.031,-0.05,-0.06,-0.096
-0.102,-0.128,-0.025,0.115,-0.039,-0.076,0.056,0.117,0.052,-0.048,-0.054,-0.085
-0.099,-0.134,-0.035,0.117,-0.032,-0.084,0.049,0.095,0.033,-0.064,-0.072,-0.114
-0.061,-0.165,-0.104,0.114,0.022,-0.134,0.039,0.095,0.032,-0.082,-0.103,-0.144
-0.049,-0.18,-0.131,0.115,0.041,-0.155,0.043,0.08,0.013,-0.084,-0.106,-0.147
-0.07,-0.202,-0.133,0.136,0.032,-0.167,0.037,0.082,0.006,-0.089,-0.107,-0.166
-0.062,-0.189,-0.126,0.126,0.032,-0.157,0.05,0.139,0.026,-0.089,-0.111,-0.156
-0.008,-0.091,-0.083,0.05,0.038,-0.087,0.058,0.18,0.09,-0.02,-0.049,-0.107
-0.021,-0.011,0.01,0.016,-0.015,-0.001,0.093,0.212,0.14,0.034,-0.011,-0.061
-0.062,0.058,0.12,0.002,-0.092,0.089,0.195,0.274,0.196,0.082,0.026,-0.032
-0.07,0.111,0.18,-0.021,-0.125,0.145,0.182,0.279,0.216,0.116,0.068,-0.01
-0.046,0.17,0.215,-0.062,-0.131,0.193,0.083,0.237,0.201,0.134,0.086,0.03
-0.034,0.181,0.216,-0.074,-0.125,0.198,0.05,0.228,0.196,0.123,0.096,0.036
-0.038,0.158,0.196,-0.061,-0.117,0.176,0.027,0.219,0.184,0.119,0.094,0.042
-0.027,0.152,0.179,-0.063,-0.103,0.166,-0.002,0.21,0.177,0.106,0.095,0.057
-0.017,0.132,0.148,-0.058,-0.083,0.14,-0.038,0.202,0.169,0.09,0.093,0.058
0.002,0.126,0.124,-0.065,-0.061,0.125,-0.045,0.188,0.163,0.129,0.117,0.06
0.016,0.124,0.108,-0.071,-0.047,0.116,-0.062,0.168,0.156,0.141,0.131,0.062
0.023,0.125,0.102,-0.074,-0.04,0.113,-0.07,0.153,0.147,0.126,0.115,0.064
0.013,0.109,0.096,-0.061,-0.042,0.102,-0.048,0.138,0.141,0.125,0.114,0.052
0.015,0.078,0.063,-0.046,-0.024,0.07,-0.058,0.122,0.13,0.113,0.106,0.04
-0.005,0.053,0.057,-0.024,-0.031,0.055,-0.053,0.104,0.113,0.09,0.081,0.03
-0.031,0.016,0.047,0.008,-0.039,0.031,-0.043,0.071,0.076,0.041,0.049,0.014
-0.019,0.007,0.026,0.006,-0.022,0.016,-0.039,0.048,0.047,0.015,0.041,0.003
-0.03,-0.018,0.011,0.024,-0.02,-0.004,-0.032,0.032,0.026,0.009,0.021,-0.023
-0.049,-0.069,-0.02,0.059,-0.014,-0.044,-0.028,0.018,-0.016,-0.034,-0.047,-0.065
-0.069,-0.1,-0.031,0.085,-0.019,-0.065,-0.021,0.011,-0.038,-0.059,-0.074,-0.085
-0.056,-0.151,-0.095,0.104,0.02,-0.123,-0.019,0.006,-0.051,-0.07,-0.082,-0.105
-0.032,-0.169,-0.137,0.1,0.053,-0.152,-0.011,-0.001,-0.057,-0.092,-0.103,-0.121
-0.051,-0.179,-0.128,0.115,0.039,-0.153,-0.014,0.02,-0.033,-0.095,-0.1,-0.11
-0.026,-0.147,-0.121,0.087,0.048,-0.134,0.019,0.067,0.003,-0.038,-0.057,-0.082
0.04,-0.03,-0.07,-0.005,0.055,-0.05,0.039,0.096,0.061,0.019,-0.006,-0.047
0.029,0.039,0.009,-0.034,0.01,0.024,0.093,0.138,0.104,0.061,0.044,-0.002
-0.011,0.094,0.104,-0.042,-0.058,0.099,0.181,0.173,0.159,0.127,0.088,0.028
-0.024,0.133,0.157,-0.055,-0.091,0.145,0.097,0.132,0.152,0.131,0.096,0.042
0.012,0.158,0.146,-0.086,-0.067,0.152,0.03,0.113,0.155,0.152,0.12,0.065
0.029,0.177,0.149,-0.103,-0.06,0.163,0.022,0.12,0.166,0.153,0.123,0.058
0.018,0.137,0.119,-0.077,-0.051,0.127,-0.027,0.102,0.109,0.14,0.101,0.043
0.025,0.106,0.081,-0.066,-0.028,0.093,0.007,0.146,0.138,0.14,0.076,0.02
0.025,0.083,0.058,-0.054,-0.017,0.07,-0.001,0.241,0.228,0.144,0.078,0.006
0.113,0.158,0.045,-0.136,0.034,0.102,-0.045,0.318,0.48,0.43,0.343,0.187
0.418,0.505,0.088,-0.462,0.165,0.296,-0.369,-0.469,0.341,0.832,0.98,0.726
0.852,0.706,-0.147,-0.779,0.499,0.279,-0.857,-1.61,-0.212,0.913,1.224,1.049
0.512,0.215,-0.296,-0.363,0.404,-0.041,-0.52,-1.513,-0.758,0.036,0.301,0.433
-0.205,-0.297,-0.092,0.251,-0.056,-0.195,0.046,-0.922,-1.01,-0.8,-0.541,-0.267
-0.25,-0.297,-0.047,0.274,-0.101,-0.172,0.043,-0.483,-0.535,-0.479,-0.393,-0.283
-0.152,-0.181,-0.029,0.167,-0.061,-0.105,0.025,-0.087,-0.147,-0.153,-0.171,-0.167
-0.088,-0.106,-0.019,0.097,-0.034,-0.062,0.041,0.072,-0.048,-0.071,-0.118,-0.143
-0.045,-0.117,-0.073,0.081,0.014,-0.095,0.008,0.107,0.021,-0.042,-0.093,-0.131
-0.079,-0.14,-0.061,0.109,-0.009,-0.1,0.013,0.086,0.0,-0.094,-0.119,-0.152
-0.064,-0.169,-0.105,0.117,0.021,-0.137,-0.004,0.076,-0.018,-0.102,-0.138,-0.175
-0.079,-0.213,-0.134,0.146,0.028,-0.173,-0.004,0.088,-0.043,-0.136,-0.156,-0.193
-0.072,-0.232,-0.159,0.152,0.043,-0.195,-0.016,0.082,-0.036,-0.124,-0.15,-0.202
-0.05,-0.221,-0.171,0.136,0.06,-0.195,-0.018,0.112,-0.016,-0.126,-0.145,-0.2
-0.071,-0.163,-0.092,0.118,0.011,-0.127,0.017,0.166,0.025,-0.085,-0.121,-0.166
-0.032,-0.076,-0.045,0.054,0.007,-0.06,0.037,0.191,0.074,-0.025,-0.07,-0.118
-0.033,0.025,0.058,0.004,-0.046,0.042,0.139,0.256,0.137,0.033,-0.023,-0.088
-0.094,0.049,0.143,0.022,-0.118,0.096,0.189,0.295,0.153,0.057,-0.007,-0.079
-0.065,0.095,0.16,-0.015,-0.112,0.127,0.08,0.264,0.17,0.081,0.029,-0.043
-0.058,0.144,0.202,-0.044,-0.13,0.173,0.033,0.256,0.18,0.123,0.056,-0.011
-0.062,0.118,0.18,-0.029,-0.121,0.149,0.02,0.245,0.164,0.088,0.033,-0.021
-0.076,0.087,0.163,-0.006,-0.119,0.124,-0.025,0.232,0.154,0.077,0.029,-0.014
-0.055,0.084,0.139,-0.015,-0.097,0.111,-0.053,0.215,0.13,0.075,0.025,-0.004
-0.025,0.093,0.118,-0.034,-0.072,0.105,-0.075,0.18,0.138,0.067,0.018,0.001
-0.03,0.08,0.109,-0.025,-0.07,0.094,-0.082,0.155,0.132,0.068,0.04,0.017
-0.019,0.073,0.092,-0.028,-0.055,0.082,-0.07,0.147,0.115,0.056,0.052,0.022
-0.024,0.063,0.087,-0.019,-0.056,0.075,-0.059,0.138,0.084,0.074,0.045,0.01
-0.006,0.031,0.038,-0.013,-0.023,0.034,-0.051,0.095,0.05,0.064,0.034,-0.003
-0.009,-0.003,0.006,0.005,-0.008,0.002,-0.041,0.058,0.038,0.024,0.001,-0.019
-0.037,-0.002,0.035,0.019,-0.035,0.016,-0.035,0.052,0.019,0.012,-0.023,-0.042
-0.046,-0.023,0.024,0.034,-0.035,0.001,-0.027,0.039,-0.009,-0.006,-0.041,-0.058
-0.024,-0.062,-0.039,0.043,0.008,-0.05,-0.023,0.025,-0.034,-0.031,-0.062,-0.072
-0.041,-0.075,-0.034,0.058,-0.003,-0.054,-0.018,0.001,-0.043,-0.046,-0.079,-0.088
-0.082,-0.135,-0.053,0.109,-0.014,-0.094,-0.01,-0.024,-0.085,-0.103,-0.125,-0.127
-0.076,-0.177,-0.101,0.127,0.012,-0.139,-0.008,-0.025,-0.108,-0.131,-0.163,-0.172
-0.09,-0.204,-0.114,0.147,0.012,-0.159,0.008,-0.022,-0.105,-0.138,-0.175,-0.183
-0.075,-0.219,-0.144,0.147,0.035,-0.181,-0.007,-0.008,-0.11,-0.159,-0.182,-0.176
-0.05,-0.169,-0.119,0.11,0.035,-0.144,0.002,0.025,-0.06,-0.101,-0.15,-0.163
-0.027,-0.089,-0.061,0.058,0.017,-0.075,0.03,0.083,-0.013,-0.046,-0.09,-0.117
-0.012,-0.008,0.004,0.01,-0.008,-0.002,0.077,0.124,0.023,-0.016,-0.038,-0.067
-0.078,0.015,0.092,0.031,-0.085,0.053,0.17,0.144,0.092,0.058,-0.014,-0.058
-0.071,0.073,0.144,-0.001,-0.108,0.108,0.103,0.132,0.104,0.079,-0.012,-0.044
-0.004,0.144,0.148,-0.07,-0.077,0.146,0.016,0.1,0.088,0.068,0.016,-0.035
-0.032,0.123,0.155,-0.046,-0.094,0.139,0.025,0.106,0.089,0.064,0.037,-0.029
-0.025,0.083,0.108,-0.029,-0.067,0.095,-0.016,0.069,0.064,0.051,0.011,-0.013
0.017,0.068,0.051,-0.043,-0.017,0.059,-0.028,0.104,0.065,0.033,-0.029,-0.045
0.031,0.061,0.03,-0.046,0.001,0.045,-0.036,0.208,0.141,0.055,-0.008,-0.055
0.086,0.119,0.033,-0.103,0.026,0.076,-0.046,0.318,0.407,0.315,0.204,0.084
0.349,0.429,0.08,-0.389,0.134,0.254,-0.331,-0.368,0.353,0.715,0.787,0.578
0.822,0.675,-0.147,-0.748,0.484,0.263,-0.842,-1.591,-0.149,0.873,1.134,0.968
0.576,0.247,-0.329,-0.411,0.453,-0.041,-0.596,-1.632,-0.738,0.087,0.329,0.441
-0.186,-0.312,-0.126,0.249,-0.03,-0.218,-0.012,-1.053,-1.071,-0.823,-0.566,-0.274
-0.297,-0.337,-0.04,0.317,-0.128,-0.189,0.071,-0.555,-0.638,-0.58,-0.482,-0.34
-0.159,-0.211,-0.052,0.185,-0.054,-0.131,0.059,-0.111,-0.195,-0.225,-0.24,-0.228
-0.126,-0.154,-0.028,0.14,-0.049,-0.09,0.052,0.052,-0.08,-0.151,-0.198,-0.186
-0.083,-0.143,-0.06,0.113,-0.011,-0.101,0.03,0.104,-0.038,-0.1,-0.182,-0.167
-0.089,-0.175,-0.086,0.132,-0.001,-0.13,0.016,0.078,-0.079,-0.164,-0.198,-0.198
-0.095,-0.206,-0.111,0.151,0.008,-0.158,-0.008,0.078,-0.077,-0.167,-0.208,-0.218
-0.079,-0.239,-0.16,0.159,0.041,-0.199,0.018,0.085,-0.108,-0.185,-0.229,-0.237
-0.085,-0.259,-0.174,0.172,0.045,-0.216,0.004,0.072,-0.113,-0.185,-0.23,-0.25
-0.107,-0.252,-0.145,0.18,0.019,-0.199,0.003,0.105,-0.08,-0.165,-0.206,-0.235
-0.07,-0.187,-0.117,0.129,0.024,-0.151,0.036,0.148,-0.032,-0.137,-0.172,-0.196
-0.047,-0.086,-0.039,0.067,-0.004,-0.062,0.061,0.186,0.041,-0.068,-0.137,-0.154
-0.092,-0.022,0.07,0.057,-0.08,0.024,0.159,0.253,0.094,-0.035,-0.091,-0.123
-0.114,0.021,0.135,0.046,-0.124,0.078,0.194,0.284,0.103,-0.024,-0.064,-0.091
-0.097,0.095,0.192,0.001,-0.145,0.143,0.116,0.268,0.131,0.027,-0.054,-0.059
-0.064,0.124,0.188,-0.031,-0.126,0.156,0.07,0.257,0.138,0.031,-0.042,-0.047
-0.044,0.1,0.144,-0.028,-0.094,0.121,0.039,0.237,0.11,0.013,-0.039,-0.043
-0.075,0.075,0.15,0.0,-0.113,0.112,0.011,0.236,0.094,0.011,-0.035,-0.037
-0.05,0.06,0.111,-0.005,-0.081,0.085,-0.026,0.228,0.081,0.008,-0.032,-0.031
-0.02,0.057,0.077,-0.018,-0.049,0.067,-0.056,0.192,0.079,0.011,-0.027,-0.026
-0.036,0.049,0.084,-0.007,-0.06,0.066,-0.052,0.169,0.071,0.01,-0.025,-0.028
-0.043,0.043,0.086,0.0,-0.065,0.064,-0.048,0.16,0.068,0.029,-0.029,-0.03
-0.012,0.037,0.049,-0.012,-0.031,0.043,-0.043,0.141,0.053,0.025,-0.032,-0.035
0.0,0.024,0.024,-0.012,-0.013,0.024,-0.039,0.108,0.027,0.0,-0.027,-0.034
-0.018,0.002,0.02,0.008,-0.019,0.011,-0.034,0.062,-0.004,-0.023,-0.043,-0.052
-0.024,-0.025,-0.001,0.025,-0.012,-0.013,-0.03,0.043,-0.033,-0.053,-0.067,-0.075
-0.043,-0.037,0.005,0.04,-0.024,-0.016,-0.022,0.035,-0.05,-0.076,-0.088,-0.089
-0.032,-0.078,-0.046,0.055,0.007,-0.062,-0.017,0.012,-0.079,-0.101,-0.115,-0.112
-0.062,-0.12,-0.057,0.091,-0.003,-0.088,-0.009,-0.004,-0.11,-0.126,-0.139,-0.13
-0.085,-0.154,-0.069,0.12,-0.008,-0.111,-0.002,-0.018,-0.135,-0.16,-0.175,-0.165
-0.08,-0.198,-0.118,0.14,0.019,-0.158,-0.003,-0.015,-0.148,-0.178,-0.195,-0.19
-0.096,-0.215,-0.119,0.156,0.012,-0.167,-0.01,-0.017,-0.158,-0.177,-0.201,-0.191
-0.085,-0.219,-0.134,0.152,0.025,-0.176,-0.021,-0.001,-0.135,-0.165,-0.188,-0.184
-0.053,-0.173,-0.12,0.113,0.034,-0.146,0.007,0.039,-0.085,-0.119,-0.15,-0.161
-0.01,-0.092,-0.082,0.051,0.036,-0.087,0.032,0.073,-0.039,-0.072,-0.104,-0.12
-0.026,-0.02,0.006,0.023,-0.016,-0.007,0.101,0.115,-0.002,-0.041,-0.061,-0.07
-0.068,0.032,0.1,0.018,-0.084,0.066,0.164,0.144,0.029,-0.004,-0.036,-0.048
-0.045,0.083,0.128,-0.019,-0.087,0.105,0.092,0.1,0.051,0.038,-0.021,-0.051
-0.031,0.116,0.147,-0.043,-0.089,0.131,0.027,0.081,0.072,0.054,-0.008,-0.05
-0.032,0.099,0.131,-0.034,-0.082,0.115,-0.003,0.084,0.039,0.028,-0.003,-0.05
-0.005,0.079,0.084,-0.037,-0.045,0.081,-0.041,0.047,0.013,0.017,-0.015,-0.05
0.015,0.075,0.06,-0.045,-0.023,0.067,-0.042,0.109,0.042,0.006,-0.032,-0.053
0.052,0.041,-0.011,-0.046,0.031,0.015,-0.045,0.232,0.139,0.045,-0.023,-0.054
0.11,0.113,0.003,-0.112,0.053,0.058,-0.067,0.249,0.383,0.324,0.233,0.123
0.466,0.486,0.019,-0.476,0.223,0.252,-0.456,-0.664,0.248,0.728,0.846,0.65
0.908,0.62,-0.288,-0.763,0.597,0.166,-0.881,-1.752,-0.3,0.684,0.949,0.855
0.425,0.076,-0.349,-0.25,0.387,-0.137,-0.474,-1.585,-0.937,-0.279,-0.02,0.189
-0.287,-0.361,-0.074,0.325,-0.107,-0.217,0.035,-0.999,-1.085,-0.87,-0.643,-0.342
-0.249,-0.294,-0.045,0.272,-0.102,-0.169,0.076,-0.461,-0.513,-0.463,-0.4,-0.286
-0.14,-0.193,-0.052,0.166,-0.044,-0.122,0.064,-0.066,-0.175,-0.223,-0.237,-0.228
-0.122,-0.154,-0.032,0.138,-0.044,-0.093,0.07,0.048,-0.118,-0.175,-0.193,-0.196
-0.056,-0.149,-0.093,0.103,0.019,-0.121,0.033,0.076,-0.108,-0.151,-0.182,-0.176
-0.08,-0.191,-0.111,0.135,0.016,-0.15,-0.032,0.053,-0.123,-0.188,-0.21,-0.205
-0.109,-0.236,-0.127,0.173,0.009,-0.182,-0.041,0.049,-0.11,-0.198,-0.222,-0.227
-0.103,-0.265,-0.162,0.185,0.03,-0.214,-0.024,0.042,-0.132,-0.227,-0.248,-0.249
-0.081,-0.275,-0.194,0.178,0.057,-0.234,-0.023,0.045,-0.121,-0.213,-0.251,-0.255
-0.06,-0.252,-0.192,0.156,0.066,-0.222,-0.012,0.084,-0.088,-0.172,-0.216,-0.233
-0.035,-0.163,-0.128,0.099,0.047,-0.145,0.004,0.127,-0.042,-0.129,-0.166,-0.184
-0.038,-0.061,-0.023,0.05,-0.008,-0.041,0.038,0.174,0.006,-0.087,-0.122,-0.141
-0.108,-0.026,0.083,0.067,-0.095,0.028,0.167,0.249,0.068,-0.051,-0.075,-0.107
-0.119,0.026,0.145,0.047,-0.132,0.085,0.203,0.244,0.092,-0.032,-0.063,-0.081
-0.068,0.101,0.169,-0.017,-0.119,0.135,0.121,0.223,0.097,-0.025,-0.066,-0.067
-0.082,0.101,0.183,-0.01,-0.132,0.141,0.098,0.232,0.101,-0.023,-0.062,-0.062
-0.074,0.09,0.164,-0.008,-0.119,0.126,0.055,0.213,0.084,-0.02,-0.06,-0.059
-0.049,0.072,0.121,-0.012,-0.085,0.096,0.027,0.201,0.07,-0.016,-0.06,-0.056
-0.051,0.041,0.092,0.005,-0.072,0.066,0.023,0.176,0.046,-0.016,-0.057,-0.051
-0.054,0.034,0.088,0.01,-0.071,0.061,0.002,0.16,0.038,-0.01,-0.054,-0.051
-0.039,0.05,0.089,-0.005,-0.065,0.069,0.002,0.143,0.033,-0.007,-0.055,-0.055
0.007,0.054,0.046,-0.031,-0.02,0.05,0.023,0.13,0.026,-0.001,-0.055,-0.055
0.026,0.043,0.017,-0.035,0.004,0.03,0.025,0.119,0.023,-0.001,-0.055,-0.059
-0.01,0.026,0.037,-0.008,-0.024,0.031,0.015,0.085,0.007,-0.018,-0.057,-0.061
-0.06,-0.021,0.039,0.04,-0.049,0.009,0.016,0.052,-0.016,-0.032,-0.061,-0.064
-0.045,-0.046,0.0,0.046,-0.022,-0.023,0.006,0.036,-0.052,-0.068,-0.085,-0.09
-0.02,-0.056,-0.036,0.038,0.008,-0.046,0.008,0.021,-0.072,-0.085,-0.105,-0.108
-0.052,-0.085,-0.033,0.069,-0.009,-0.059,0.024,-0.016,-0.099,-0.11,-0.13,-0.128
-0.07,-0.132,-0.062,0.101,-0.004,-0.097,0.029,-0.034,-0.136,-0.151,-0.17,-0.157
-0.096,-0.206,-0.11,0.152,0.007,-0.157,-0.006,-0.04,-0.162,-0.18,-0.198,-0.186
-0.109,-0.241,-0.132,0.175,0.011,-0.186,-0.013,-0.047,-0.179,-0.202,-0.217,-0.21
-0.085,-0.244,-0.16,0.165,0.038,-0.202,-0.005,-0.036,-0.169,-0.196,-0.216,-0.203
-0.07,-0.215,-0.144,0.143,0.037,-0.179,0.009,-0.011,-0.145,-0.176,-0.197,-0.181
-0.022,-0.112,-0.089,0.067,0.034,-0.1,0.055,0.03,-0.096,-0.124,-0.147,-0.146
0.007,-0.014,-0.021,0.004,0.014,-0.017,0.097,0.079,-0.042,-0.061,-0.08,-0.104
-0.052,0.022,0.074,0.015,-0.063,0.048,0.184,0.116,-0.01,-0.013,-0.045,-0.067
-0.074,0.06,0.134,0.006,-0.104,0.097,0.18,0.098,0.016,0.009,-0.024,-0.034
-0.03,0.121,0.151,-0.046,-0.09,0.135,0.093,0.056,0.039,0.023,0.007,-0.012
-0.024,0.127,0.151,-0.052,-0.088,0.139,0.054,0.07,0.052,0.029,0.003,-0.018
-0.007,0.099,0.106,-0.046,-0.057,0.102,0.026,0.034,0.025,0.019,-0.001,-0.012
0.02,0.081,0.061,-0.051,-0.021,0.071,0.024,0.06,0.035,0.033,-0.002,-0.023
0.007,0.058,0.051,-0.033,-0.022,0.054,0.019,0.15,0.042,-0.005,-0.035,-0.068
0.056,0.061,0.006,-0.059,0.025,0.033,0.015,0.298,0.231,0.135,0.057,-0.009
0.225,0.266,0.041,-0.245,0.091,0.154,-0.133,0.03,0.404,0.517,0.484,0.329
0.713,0.64,-0.073,-0.676,0.392,0.284,-0.644,-1.213,0.059,0.85,1.036,0.834
0.875,0.493,-0.382,-0.683,0.628,0.055,-0.767,-1.846,-0.57,0.391,0.646,0.658
0.083,-0.163,-0.246,0.04,0.165,-0.204,-0.184,-1.364,-1.115,-0.677,-0.388,-0.101
-0.327,-0.366,-0.039,0.347,-0.144,-0.202,0.095,-0.796,-0.908,-0.768,-0.58,-0.342
-0.142,-0.233,-0.091,0.187,-0.025,-0.162,0.055,-0.271,-0.337,-0.311,-0.297,-0.232
-0.115,-0.174,-0.06,0.145,-0.027,-0.117,0.072,-0.004,-0.145,-0.177,-0.192,-0.206
-0.05,-0.139,-0.089,0.095,0.02,-0.114,0.034,0.045,-0.091,-0.13,-0.163,-0.196
-0.055,-0.159,-0.104,0.107,0.024,-0.131,0.024,0.049,-0.119,-0.172,-0.191,-0.202
-0.084,-0.198,-0.114,0.141,0.016,-0.156,0.013,0.033,-0.138,-0.192,-0.212,-0.209
-0.075,-0.247,-0.172,0.161,0.049,-0.209,0.003,0.031,-0.148,-0.213,-0.231,-0.23
-0.077,-0.262,-0.185,0.17,0.054,-0.224,-0.002,0.025,-0.163,-0.226,-0.241,-0.24
-0.068,-0.251,-0.183,0.16,0.057,-0.217,-0.01,0.04,-0.147,-0.205,-0.23,-0.23
-0.053,-0.19,-0.136,0.122,0.042,-0.163,0.026,0.084,-0.098,-0.161,-0.188,-0.196
0.013,-0.074,-0.088,0.031,0.051,-0.081,0.061,0.124,-0.037,-0.108,-0.139,-0.154
-0.033,-0.007,0.026,0.02,-0.03,0.01,0.155,0.176,-0.001,-0.062,-0.101,-0.119
-0.088,0.042,0.13,0.022,-0.109,0.086,0.216,0.213,0.033,-0.015,-0.058,-0.08
-0.054,0.109,0.163,-0.027,-0.109,0.136,0.125,0.203,0.063,-0.003,-0.04,-0.051
-0.057,0.117,0.175,-0.03,-0.116,0.146,0.08,0.197,0.072,0.0,-0.039,-0.034
-0.06,0.091,0.151,-0.016,-0.106,0.121,0.052,0.193,0.059,0.006,-0.035,-0.025
-0.036,0.081,0.117,-0.023,-0.076,0.099,0.014,0.183,0.048,0.0,-0.033,-0.019
-0.009,0.072,0.08,-0.032,-0.045,0.076,-0.029,0.159,0.035,-0.005,-0.03,-0.013
-0.009,0.066,0.074,-0.029,-0.042,0.07,-0.069,0.14,0.025,-0.012,-0.033,-0.006
0.003,0.059,0.057,-0.031,-0.027,0.058,-0.033,0.131,0.02,-0.014,-0.036,-0.001
0.008,0.052,0.044,-0.03,-0.018,0.048,-0.031,0.117,0.012,-0.008,-0.034,-0.004
0.004,0.047,0.043,-0.026,-0.02,0.045,-0.033,0.105,0.004,-0.005,-0.035,-0.011
0.006,0.034,0.029,-0.02,-0.012,0.031,-0.023,0.081,-0.002,0.001,-0.035,-0.012
-0.014,0.007,0.02,0.003,-0.017,0.013,-0.021,0.058,-0.016,-0.012,-0.035,-0.023
-0.016,-0.011,0.004,0.014,-0.01,-0.003,-0.012,0.036,-0.038,-0.037,-0.055,-0.04
-0.006,-0.036,-0.03,0.022,0.012,-0.032,-0.012,-0.007,-0.064,-0.062,-0.079,-0.061
-0.012,-0.066,-0.053,0.039,0.021,-0.059,-0.015,-0.023,-0.088,-0.084,-0.094,-0.09
-0.042,-0.095,-0.054,0.069,0.006,-0.074,-0.015,-0.037,-0.121,-0.112,-0.128,-0.109
-0.056,-0.154,-0.098,0.105,0.022,-0.126,-0.015,-0.062,-0.152,-0.15,-0.159,-0.144
-0.062,-0.204,-0.143,0.133,0.041,-0.173,-0.015,-0.06,-0.159,-0.167,-0.183,-0.171
-0.051,-0.215,-0.164,0.134,0.056,-0.189,-0.015,-0.067,-0.162,-0.163,-0.192,-0.16
-0.037,-0.198,-0.162,0.118,0.063,-0.18,-0.01,-0.055,-0.149,-0.153,-0.172,-0.149
-0.027,-0.154,-0.127,0.091,0.05,-0.14,0.005,-0.016,-0.095,-0.114,-0.136,-0.131
0.018,-0.062,-0.08,0.022,0.049,-0.071,0.019,0.033,-0.041,-0.057,-0.088,-0.082
0.005,-0.005,-0.01,0.0,0.008,-0.007,0.117,0.087,0.002,-0.016,-0.048,-0.051
-0.018,0.027,0.045,-0.005,-0.032,0.036,0.171,0.12,0.05,0.009,-0.028,-0.033
0.008,0.089,0.081,-0.049,-0.037,0.085,0.073,0.082,0.047,0.038,-0.008,0.005
0.005,0.1,0.095,-0.053,-0.045,0.097,0.041,0.077,0.054,0.071,0.006,0.015
0.003,0.081,0.078,-0.042,-0.038,0.079,0.022,0.069,0.037,0.053,0.012,0.004
0.05,0.074,0.024,-0.062,0.013,0.049,-0.035,0.046,0.038,0.051,0.01,0.002
0.079,0.064,-0.014,-0.071,0.046,0.025,-0.015,0.117,0.056,0.026,-0.019,-0.024
0.097,0.052,-0.045,-0.074,0.07,0.003,0.003,0.239,0.179,0.098,0.018,-0.028
0.181,0.16,-0.021,-0.171,0.101,0.07,-0.066,0.18,0.378,0.399,0.33,0.208
0.594,0.522,-0.072,-0.558,0.332,0.225,-0.504,-0.854,0.145,0.775,0.927,0.734
0.94,0.56,-0.379,-0.75,0.659,0.09,-0.828,-1.791,-0.433,0.575,0.835,0.787
0.294,-0.065,-0.36,-0.114,0.327,-0.212,-0.33,-1.516,-1.101,-0.523,-0.227,0.051
-0.302,-0.408,-0.106,0.355,-0.098,-0.257,0.099,-0.935,-1.079,-0.887,-0.656,-0.356
-0.153,-0.272,-0.119,0.213,-0.017,-0.195,0.063,-0.366,-0.421,-0.365,-0.327,-0.232
-0.081,-0.197,-0.115,0.139,0.017,-0.156,0.051,-0.023,-0.152,-0.192,-0.193,-0.199
-0.052,-0.168,-0.116,0.11,0.033,-0.142,0.018,0.057,-0.1,-0.164,-0.168,-0.194
-0.027,-0.17,-0.143,0.099,0.058,-0.156,-0.015,0.061,-0.103,-0.17,-0.179,-0.193
-0.047,-0.203,-0.156,0.125,0.055,-0.18,-0.028,0.023,-0.116,-0.173,-0.193,-0.2
-0.061,-0.263,-0.203,0.162,0.071,-0.232,-0.023,0.028,-0.128,-0.164,-0.197,-0.202
-0.067,-0.285,-0.218,0.176,0.076,-0.251,-0.018,0.02,-0.145,-0.188,-0.213,-0.215
0.008,-0.241,-0.249,0.117,0.129,-0.245,-0.03,0.019,-0.113,-0.164,-0.192,-0.201
0.018,-0.208,-0.226,0.095,0.122,-0.217,0.019,0.065,-0.077,-0.134,-0.154,-0.167
0.018,-0.125,-0.143,0.054,0.081,-0.134,0.025,0.112,-0.029,-0.095,-0.116,-0.124
0.012,-0.03,-0.042,0.009,0.027,-0.036,0.112,0.165,0.009,-0.05,-0.074,-0.103
-0.05,0.02,0.07,0.014,-0.06,0.045,0.199,0.221,0.069,-0.01,-0.042,-0.075
-0.04,0.081,0.121,-0.021,-0.08,0.101,0.088,0.194,0.087,0.023,-0.028,-0.038
-0.039,0.094,0.133,-0.028,-0.086,0.113,0.03,0.169,0.074,0.044,-0.018,-0.03
-0.039,0.078,0.116,-0.02,-0.078,0.097,0.017,0.166,0.071,0.039,-0.019,-0.028
-0.004,0.069,0.074,-0.033,-0.039,0.071,-0.014,0.153,0.061,0.026,-0.023,-0.024
-0.003,0.049,0.052,-0.023,-0.028,0.05,-0.029,0.149,0.056,0.014,-0.026,-0.022
-0.009,0.036,0.046,-0.014,-0.028,0.041,-0.044,0.14,0.049,0.014,-0.025,-0.019
-0.013,0.024,0.037,-0.006,-0.026,0.031,-0.039,0.136,0.043,0.023,-0.025,-0.025
-0.013,0.02,0.034,-0.004,-0.024,0.027,-0.035,0.124,0.037,0.03,-0.025,-0.025
-0.026,0.012,0.038,0.007,-0.032,0.024,-0.031,0.106,0.029,0.034,-0.025,-0.025
-0.002,0.006,0.008,-0.002,-0.005,0.007,-0.026,0.092,0.023,0.025,-0.025,-0.025
0.016,-0.007,-0.023,-0.004,0.019,-0.015,-0.022,0.072,0.009,0.009,-0.026,-0.025
0.015,-0.035,-0.049,0.01,0.032,-0.042,-0.017,0.054,-0.022,-0.016,-0.049,-0.051
0.023,-0.056,-0.079,0.017,0.051,-0.067,-0.015,0.033,-0.048,-0.044,-0.079,-0.081
0.0,-0.092,-0.093,0.047,0.047,-0.092,-0.015,0.007,-0.067,-0.065,-0.105,-0.099
-0.03,-0.124,-0.093,0.077,0.032,-0.108,0.008,-0.021,-0.103,-0.099,-0.129,-0.12
-0.044,-0.172,-0.128,0.108,0.042,-0.149,-0.002,-0.028,-0.138,-0.137,-0.169,-0.161
-0.053,-0.217,-0.165,0.135,0.056,-0.191,-0.019,-0.033,-0.145,-0.146,-0.188,-0.185
-0.054,-0.22,-0.166,0.137,0.056,-0.193,-0.017,-0.035,-0.142,-0.145,-0.178,-0.19
-0.03,-0.203,-0.173,0.116,0.072,-0.187,-0.005,-0.002,-0.13,-0.129,-0.172,-0.183
-0.014,-0.146,-0.133,0.08,0.06,-0.139,0.032,0.029,-0.09,-0.082,-0.131,-0.136
0.002,-0.066,-0.068,0.032,0.035,-0.067,0.061,0.072,-0.04,-0.04,-0.084,-0.095
-0.031,-0.012,0.019,0.021,-0.024,0.003,0.149,0.104,-0.014,-0.003,-0.048,-0.059
-0.044,0.031,0.076,0.006,-0.06,0.053,0.167,0.119,0.022,0.032,-0.022,-0.033
-0.02,0.097,0.117,-0.039,-0.069,0.107,0.092,0.096,0.053,0.053,-0.004,-0.013
-0.019,0.109,0.128,-0.045,-0.074,0.118,0.062,0.094,0.067,0.083,0.009,0.0
-0.005,0.066,0.071,-0.031,-0.038,0.068,0.024,0.076,0.047,0.087,0.017,0.009
0.011,0.057,0.046,-0.034,-0.018,0.051,-0.002,0.056,0.044,0.084,0.01,0.001
0.048,0.054,0.007,-0.051,0.02,0.03,0.01,0.137,0.066,0.063,-0.02,-0.041
0.094,0.039,-0.055,-0.066,0.075,-0.008,0.018,0.277,0.192,0.121,0.018,-0.018
0.165,0.159,-0.006,-0.162,0.085,0.076,-0.05,0.191,0.401,0.418,0.343,0.228
0.588,0.507,-0.081,-0.547,0.334,0.213,-0.509,-0.861,0.178,0.802,0.927,0.749
0.942,0.493,-0.449,-0.717,0.695,0.022,-0.801,-1.773,-0.477,0.476,0.721,0.729
0.252,-0.137,-0.389,-0.057,0.32,-0.262,-0.299,-1.489,-1.134,-0.608,-0.327,-0.024
-0.329,-0.432,-0.103,0.381,-0.112,-0.267,0.084,-0.903,-1.047,-0.856,-0.647,-0.353
-0.17,-0.272,-0.102,0.221,-0.034,-0.187,0.061,-0.337,-0.415,-0.366,-0.33,-0.22
-0.143,-0.221,-0.078,0.182,-0.033,-0.149,0.045,-0.025,-0.161,-0.176,-0.227,-0.167
-0.127,-0.224,-0.097,0.176,-0.014,-0.161,0.026,0.038,-0.121,-0.14,-0.223,-0.156
-0.11,-0.223,-0.114,0.167,0.002,-0.168,0.01,0.053,-0.123,-0.155,-0.226,-0.163
-0.11,-0.244,-0.134,0.177,0.012,-0.189,-0.009,0.007,-0.138,-0.164,-0.225,-0.182
-0.095,-0.272,-0.177,0.183,0.042,-0.224,-0.017,0.012,-0.161,-0.204,-0.225,-0.198
-0.079,-0.285,-0.206,0.182,0.064,-0.245,-0.03,0.01,-0.182,-0.218,-0.223,-0.208
-0.036,-0.277,-0.241,0.157,0.103,-0.259,-0.03,0.022,-0.154,-0.187,-0.21,-0.208
-0.02,-0.203,-0.183,0.112,0.082,-0.193,0.007,0.072,-0.115,-0.146,-0.173,-0.158
0.006,-0.103,-0.109,0.049,0.058,-0.106,0.041,0.11,-0.058,-0.079,-0.122,-0.105
-0.042,-0.054,-0.012,0.049,-0.015,-0.033,0.137,0.166,-0.008,-0.055,-0.097,-0.091
-0.099,0.004,0.103,0.047,-0.101,0.053,0.213,0.185,0.026,-0.022,-0.06,-0.054
-0.065,0.076,0.141,-0.005,-0.103,0.108,0.142,0.159,0.046,0.012,-0.029,-0.024
-0.071,0.103,0.173,-0.016,-0.122,0.138,0.089,0.165,0.063,0.025,-0.031,-0.018
-0.071,0.093,0.164,-0.011,-0.118,0.129,0.05,0.155,0.06,0.035,-0.019,-0.009
-0.039,0.087,0.126,-0.024,-0.083,0.106,-0.005,0.14,0.046,0.017,-0.006,-0.003
-0.055,0.065,0.12,-0.005,-0.087,0.092,-0.033,0.124,0.013,-0.028,-0.038,0.002
-0.04,0.038,0.078,0.001,-0.059,0.058,-0.042,0.103,-0.02,-0.037,-0.047,0.009
-0.034,0.034,0.067,-0.001,-0.051,0.05,-0.031,0.092,-0.033,-0.024,-0.022,0.013
-0.025,0.037,0.061,-0.006,-0.044,0.049,-0.032,0.077,-0.045,-0.026,-0.019,0.023
0.0,0.033,0.033,-0.016,-0.017,0.033,-0.023,0.069,-0.044,-0.018,-0.001,0.032
0.014,0.037,0.023,-0.026,-0.005,0.03,-0.023,0.06,-0.052,-0.013,0.0,0.027
0.014,0.012,-0.003,-0.013,0.008,0.004,-0.001,0.051,-0.043,-0.044,-0.028,0.005
-0.018,-0.022,-0.004,0.02,-0.007,-0.012,0.038,0.04,-0.042,-0.072,-0.045,-0.033
-0.025,-0.06,-0.035,0.042,0.006,-0.047,0.041,0.025,-0.103,-0.1,-0.1,-0.062
-0.032,-0.106,-0.075,0.069,0.022,-0.09,0.039,0.012,-0.13,-0.132,-0.132,-0.081
-0.051,-0.116,-0.065,0.084,0.008,-0.09,0.041,-0.002,-0.128,-0.12,-0.127,-0.097
-0.072,-0.168,-0.096,0.12,0.013,-0.132,0.039,-0.023,-0.151,-0.137,-0.158,-0.126
-0.079,-0.213,-0.135,0.146,0.028,-0.173,0.042,-0.038,-0.185,-0.207,-0.21,-0.158
-0.089,-0.234,-0.145,0.162,0.028,-0.189,0.027,-0.043,-0.196,-0.207,-0.218,-0.176
-0.084,-0.24,-0.156,0.162,0.036,-0.198,0.013,-0.037,-0.163,-0.152,-0.182,-0.167
-0.039,-0.191,-0.152,0.115,0.056,-0.171,0.045,0.013,-0.122,-0.117,-0.148,-0.126
-0.019,-0.108,-0.089,0.064,0.035,-0.098,0.053,0.063,-0.067,-0.065,-0.101,-0.092
-0.011,-0.039,-0.027,0.025,0.008,-0.033,0.101,0.089,-0.031,-0.029,-0.067,-0.049
-0.046,-0.01,0.035,0.028,-0.041,0.013,0.214,0.124,-0.003,-0.006,-0.036,-0.018
-0.058,0.064,0.121,-0.003,-0.09,0.093,0.162,0.083,0.015,0.03,0.005,0.005
-0.007,0.122,0.128,-0.058,-0.068,0.125,0.079,0.066,0.039,0.057,0.027,0.034
-0.004,0.097,0.101,-0.046,-0.053,0.098,0.077,0.076,0.055,0.068,0.037,0.041
0.014,0.074,0.06,-0.044,-0.023,0.067,0.063,0.065,0.037,0.05,0.018,0.033
0.015,0.075,0.059,-0.045,-0.022,0.067,0.062,0.129,0.064,0.05,0.009,0.013
0.07,0.063,-0.007,-0.067,0.038,0.028,0.031,0.249,0.211,0.16,0.072,0.035
0.215,0.193,-0.022,-0.204,0.118,0.086,-0.051,0.168,0.368,0.43,0.396,0.296
0.653,0.488,-0.165,-0.57,0.409,0.161,-0.486,-0.772,0.031,0.567,0.776,0.724
0.888,0.438,-0.45,-0.663,0.669,-0.006,-0.742,-1.61,-0.638,0.16,0.464,0.612
0.147,-0.038,-0.184,-0.054,0.165,-0.11,-0.185,-1.267,-1.04,-0.58,-0.324,-0.021
-0.362,-0.336,0.026,0.349,-0.194,-0.155,0.191,-0.752,-0.913,-0.773,-0.598,-0.311
-0.227,-0.292,-0.065,0.259,-0.081,-0.178,0.137,-0.403,-0.447,-0.397,-0.359,-0.234
-0.159,-0.201,-0.041,0.18,-0.059,-0.121,0.133,-0.091,-0.177,-0.19,-0.192,-0.168
-0.112,-0.154,-0.042,0.133,-0.035,-0.098,0.088,-0.001,-0.09,-0.121,-0.156,-0.127
-0.088,-0.132,-0.044,0.11,-0.022,-0.088,0.06,0.024,-0.083,-0.112,-0.16,-0.125
-0.096,-0.173,-0.077,0.135,-0.01,-0.124,0.06,0.023,-0.127,-0.168,-0.179,-0.149
-0.111,-0.231,-0.12,0.171,0.005,-0.175,0.053,0.014,-0.131,-0.183,-0.202,-0.171
-0.117,-0.253,-0.136,0.185,0.01,-0.194,0.053,0.012,-0.131,-0.189,-0.22,-0.185
-0.125,-0.261,-0.136,0.193,0.006,-0.198,0.049,0.003,-0.115,-0.166,-0.209,-0.179
-0.091,-0.233,-0.142,0.162,0.026,-0.187,0.058,0.036,-0.097,-0.159,-0.199,-0.172
-0.054,-0.175,-0.12,0.115,0.033,-0.147,0.068,0.091,-0.069,-0.135,-0.16,-0.136
-0.051,-0.081,-0.03,0.066,-0.01,-0.055,0.069,0.125,0.01,-0.066,-0.098,-0.088
-0.076,-0.004,0.072,0.04,-0.074,0.034,0.146,0.178,0.059,-0.011,-0.054,-0.057
-0.128,0.015,0.143,0.057,-0.136,0.079,0.214,0.205,0.056,0.016,-0.045,-0.04
-0.105,0.081,0.186,0.011,-0.145,0.133,0.155,0.172,0.078,0.01,-0.045,-0.009
-0.072,0.124,0.196,-0.026,-0.134,0.159,0.098,0.157,0.086,0.015,-0.018,0.02
-0.08,0.104,0.184,-0.012,-0.132,0.144,0.074,0.147,0.074,0.02,-0.004,0.02
-0.087,0.099,0.186,-0.006,-0.136,0.142,0.045,0.134,0.065,0.011,-0.006,0.019
-0.068,0.087,0.155,-0.009,-0.112,0.12,0.014,0.125,0.055,0.002,-0.005,0.02
-0.043,0.082,0.125,-0.02,-0.084,0.104,-0.015,0.111,0.049,0.011,-0.003,0.038
-0.042,0.079,0.122,-0.019,-0.082,0.1,-0.02,0.1,0.045,0.04,0.018,0.046
-0.044,0.072,0.116,-0.014,-0.08,0.094,-0.009,0.085,0.04,0.035,0.03,0.034
-0.007,0.072,0.079,-0.033,-0.043,0.075,0.002,0.072,0.036,0.025,0.019,0.028
-0.002,0.045,0.047,-0.022,-0.024,0.046,0.016,0.057,0.028,0.017,0.009,0.019
-0.041,0.027,0.068,0.007,-0.055,0.047,0.019,0.037,0.006,-0.002,-0.015,0.011
-0.037,0.022,0.059,0.008,-0.048,0.04,0.025,0.018,-0.022,-0.036,-0.035,-0.001
-0.067,-0.016,0.051,0.041,-0.059,0.018,0.036,-0.006,-0.05,-0.06,-0.058,-0.024
-0.083,-0.046,0.037,0.064,-0.06,-0.004,0.025,-0.031,-0.066,-0.07,-0.081,-0.046
-0.066,-0.062,0.004,0.064,-0.035,-0.028,0.04,-0.035,-0.097,-0.102,-0.097,-0.066
-0.091,-0.107,-0.016,0.099,-0.037,-0.061,0.059,-0.034,-0.132,-0.138,-0.141,-0.1
-0.098,-0.16,-0.061,0.129,-0.018,-0.11,0.048,-0.048,-0.151,-0.172,-0.169,-0.129
-0.101,-0.186,-0.085,0.144,-0.008,-0.135,0.037,-0.061,-0.163,-0.179,-0.179,-0.142
-0.09,-0.194,-0.104,0.142,0.007,-0.149,-0.02,-0.064,-0.158,-0.169,-0.158,-0.135
-0.057,-0.167,-0.11,0.113,0.026,-0.138,-0.02,-0.048,-0.133,-0.143,-0.117,-0.108
-0.014,-0.095,-0.081,0.054,0.034,-0.087,0.038,-0.011,-0.076,-0.093,-0.1,-0.082
0.014,0.008,-0.007,-0.011,0.01,0.001,0.071,0.037,-0.011,-0.033,-0.056,-0.038
-0.032,0.067,0.099,-0.018,-0.066,0.082,0.16,0.081,0.028,0.013,-0.014,0.001
-0.069,0.099,0.168,-0.015,-0.119,0.133,0.172,0.071,0.045,0.031,0.01,0.023
-0.034,0.159,0.193,-0.063,-0.114,0.176,0.093,0.013,0.05,0.052,0.038,0.049
-0.024,0.163,0.187,-0.07,-0.106,0.175,0.071,0.029,0.071,0.067,0.038,0.045
-0.02,0.147,0.167,-0.064,-0.094,0.157,0.052,-0.004,0.054,0.062,0.028,0.037
-0.002,0.125,0.127,-0.062,-0.065,0.126,0.051,0.001,0.051,0.045,0.024,0.031
-0.016,0.096,0.112,-0.04,-0.064,0.104,0.048,0.108,0.076,0.032,0.013,0.006
0.05,0.104,0.054,-0.077,-0.002,0.079,0.03,0.234,0.279,0.2,0.117,0.064
0.243,0.309,0.066,-0.276,0.089,0.187,-0.153,-0.022,0.402,0.554,0.586,0.455
0.754,0.655,-0.099,-0.705,0.427,0.278,-0.646,-1.097,-0.021,0.738,1.021,0.926
0.812,0.451,-0.361,-0.631,0.586,0.045,-0.673,-1.594,-0.62,0.225,0.517,0.627
-0.022,-0.135,-0.112,0.079,0.045,-0.123,-0.105,-1.1,-1.011,-0.657,-0.416,-0.113
-0.36,-0.317,0.043,0.338,-0.202,-0.136,0.129,-0.684,-0.805,-0.717,-0.57,-0.339
-0.203,-0.215,-0.012,0.209,-0.095,-0.113,0.086,-0.308,-0.313,-0.287,-0.277,-0.214
-0.165,-0.124,0.041,0.145,-0.103,-0.041,0.075,-0.039,-0.106,-0.153,-0.172,-0.146
-0.116,-0.108,0.008,0.112,-0.062,-0.05,0.057,0.017,-0.055,-0.135,-0.149,-0.126
-0.11,-0.1,0.011,0.105,-0.06,-0.044,0.052,0.028,-0.063,-0.13,-0.148,-0.117
-0.107,-0.123,-0.016,0.115,-0.045,-0.069,0.044,0.019,-0.078,-0.146,-0.172,-0.153
-0.115,-0.198,-0.083,0.157,-0.016,-0.14,0.041,0.019,-0.089,-0.159,-0.196,-0.177
-0.111,-0.198,-0.087,0.155,-0.012,-0.143,0.04,0.012,-0.089,-0.163,-0.202,-0.184
-0.118,-0.202,-0.084,0.16,-0.017,-0.143,0.032,0.011,-0.094,-0.178,-0.211,-0.187
-0.084,-0.154,-0.07,0.119,-0.007,-0.112,0.044,0.056,-0.066,-0.15,-0.182,-0.145
-0.075,-0.069,0.006,0.072,-0.04,-0.032,0.076,0.109,0.015,-0.07,-0.111,-0.104
-0.084,0.011,0.095,0.036,-0.089,0.053,0.121,0.153,0.083,-0.015,-0.062,-0.069
-0.091,0.093,0.183,-0.001,-0.137,0.138,0.195,0.18,0.105,-0.003,-0.048,-0.041
-0.141,0.108,0.249,0.016,-0.195,0.179,0.172,0.166,0.113,0.024,-0.035,-0.013
-0.102,0.169,0.271,-0.034,-0.186,0.22,0.1,0.155,0.124,0.044,-0.01,0.011
-0.076,0.196,0.272,-0.06,-0.174,0.234,0.064,0.145,0.116,0.037,-0.014,0.014
-0.072,0.17,0.242,-0.05,-0.157,0.206,0.026,0.134,0.108,0.031,-0.021,0.021
-0.081,0.162,0.243,-0.041,-0.162,0.202,0.01,0.126,0.098,0.023,-0.013,0.026
-0.087,0.134,0.222,-0.024,-0.155,0.178,-0.007,0.113,0.093,0.019,-0.013,0.031
-0.063,0.124,0.186,-0.03,-0.125,0.155,-0.033,0.099,0.088,0.003,0.003,0.04
-0.074,0.116,0.19,-0.021,-0.132,0.152,-0.04,0.084,0.081,0.03,0.029,0.042
-0.083,0.109,0.192,-0.013,-0.137,0.15,-0.03,0.063,0.092,0.048,0.032,0.035
-0.058,0.101,0.159,-0.022,-0.109,0.13,-0.025,0.044,0.088,0.045,0.028,0.029
-0.031,0.094,0.124,-0.032,-0.078,0.109,-0.016,0.038,0.078,0.064,0.034,0.024
-0.033,0.085,0.118,-0.026,-0.076,0.101,0.004,0.027,0.046,0.014,0.012,0.017
-0.046,0.057,0.103,-0.006,-0.075,0.08,0.005,0.004,-0.006,-0.017,-0.019,-0.002
-0.047,0.039,0.086,0.004,-0.067,0.062,0.019,-0.017,-0.014,-0.036,-0.037,-0.024
-0.074,0.011,0.086,0.031,-0.08,0.048,0.036,-0.036,-0.016,-0.068,-0.068,-0.04
-0.091,-0.03,0.061,0.06,-0.075,0.015,0.046,-0.053,-0.057,-0.101,-0.105,-0.072
-0.093,-0.072,0.021,0.082,-0.057,-0.025,0.061,-0.061,-0.085,-0.113,-0.13,-0.095
-0.131,-0.129,0.002,0.13,-0.066,-0.063,0.044,-0.054,-0.086,-0.113,-0.138,-0.107
-0.108,-0.152,-0.043,0.13,-0.032,-0.097,0.044,-0.041,-0.114,-0.143,-0.148,-0.12
-0.071,-0.144,-0.073,0.108,0.001,-0.108,0.034,-0.031,-0.087,-0.135,-0.155,-0.119
-0.048,-0.099,-0.051,0.074,0.002,-0.075,0.038,0.001,-0.021,-0.095,-0.11,-0.1
-0.008,0.003,0.011,0.002,-0.01,0.007,0.067,0.045,0.013,0.002,-0.034,-0.048
-0.019,0.075,0.094,-0.028,-0.057,0.084,0.114,0.08,0.069,0.06,0.017,-0.001
-0.058,0.102,0.16,-0.022,-0.11,0.131,0.201,0.11,0.111,0.072,0.052,0.015
-0.052,0.154,0.206,-0.051,-0.129,0.18,0.133,0.073,0.116,0.083,0.052,0.038
-0.042,0.196,0.238,-0.077,-0.14,0.217,0.037,0.051,0.125,0.099,0.075,0.078
-0.066,0.196,0.262,-0.065,-0.164,0.229,0.042,0.057,0.119,0.095,0.094,0.083
-0.013,0.183,0.196,-0.085,-0.105,0.189,0.009,-0.013,0.082,0.06,0.071,0.055
-0.013,0.139,0.152,-0.063,-0.083,0.146,0.025,0.04,0.091,0.065,0.066,0.039
-0.029,0.11,0.139,-0.041,-0.084,0.124,0.04,0.139,0.167,0.084,0.044,0.014
0.082,0.172,0.09,-0.127,-0.004,0.131,0.008,0.248,0.416,0.337,0.244,0.134
0.351,0.449,0.098,-0.4,0.127,0.273,-0.243,-0.226,0.377,0.684,0.824,0.65
0.829,0.69,-0.139,-0.76,0.484,0.275,-0.733,-1.336,-0.158,0.765,1.114,1.029
0.589,0.318,-0.272,-0.453,0.43,0.023,-0.549,-1.485,-0.702,0.091,0.358,0.501
-0.217,-0.245,-0.028,0.232,-0.095,-0.136,0.046,-0.925,-0.985,-0.787,-0.564,-0.238
-0.341,-0.288,0.053,0.314,-0.197,-0.117,0.113,-0.546,-0.631,-0.605,-0.495,-0.31
-0.199,-0.14,0.059,0.169,-0.129,-0.04,0.063,-0.198,-0.183,-0.188,-0.185,-0.171
-0.168,-0.094,0.075,0.131,-0.121,-0.009,0.091,-0.038,-0.062,-0.126,-0.164,-0.149
-0.119,-0.066,0.054,0.092,-0.087,-0.006,0.058,-0.027,-0.028,-0.081,-0.114,-0.115
-0.133,-0.077,0.056,0.105,-0.094,-0.01,0.055,-0.023,-0.049,-0.099,-0.115,-0.118
-0.122,-0.124,-0.001,0.123,-0.06,-0.062,0.042,-0.019,-0.032,-0.104,-0.139,-0.145
-0.124,-0.16,-0.037,0.142,-0.043,-0.098,0.029,-0.014,-0.044,-0.12,-0.142,-0.161
-0.116,-0.167,-0.051,0.142,-0.032,-0.109,0.052,-0.01,-0.062,-0.14,-0.177,-0.186
-0.082,-0.156,-0.074,0.119,-0.004,-0.114,0.055,0.012,-0.045,-0.136,-0.172,-0.177
-0.07,-0.089,-0.019,0.08,-0.025,-0.053,0.066,0.057,0.029,-0.086,-0.117,-0.123
-0.072,0.001,0.074,0.035,-0.073,0.037,0.107,0.097,0.088,-0.044,-0.075,-0.08
-0.09,0.073,0.163,0.008,-0.126,0.118,0.165,0.155,0.126,0.032,-0.026,-0.056
-0.125,0.123,0.248,0.001,-0.187,0.185,0.229,0.188,0.174,0.104,0.021,-0.03
-0.116,0.169,0.285,-0.027,-0.201,0.226,0.156,0.152,0.168,0.093,0.027,-0.009
-0.103,0.199,0.302,-0.048,-0.203,0.25,0.076,0.137,0.17,0.091,0.047,-0.003
-0.114,0.184,0.298,-0.035,-0.207,0.241,0.058,0.135,0.163,0.084,0.05,0.007
-0.109,0.171,0.28,-0.031,-0.195,0.225,0.024,0.131,0.168,0.078,0.041,0.013
-0.098,0.172,0.27,-0.037,-0.184,0.221,0.021,0.113,0.156,0.076,0.043,0.025
-0.073,0.179,0.252,-0.053,-0.162,0.215,0.02,0.071,0.131,0.081,0.032,0.041
-0.071,0.163,0.234,-0.046,-0.153,0.198,0.018,0.054,0.113,0.085,0.042,0.04
-0.079,0.143,0.221,-0.032,-0.15,0.182,0.014,0.047,0.102,0.081,0.056,0.045
-0.065,0.148,0.214,-0.042,-0.14,0.181,0.015,0.037,0.15,0.119,0.088,0.06
-0.066,0.124,0.19,-0.029,-0.128,0.156,0.019,0.029,0.124,0.105,0.095,0.051
-0.074,0.089,0.163,-0.008,-0.119,0.126,0.031,0.018,0.069,0.045,0.048,0.027
-0.071,0.081,0.152,-0.005,-0.112,0.116,0.04,0.008,0.069,0.044,0.025,0.008
-0.064,0.075,0.14,-0.006,-0.103,0.107,0.05,-0.006,0.057,0.039,-0.01,-0.008
-0.086,0.038,0.124,0.024,-0.105,0.08,0.065,-0.019,0.032,0.032,-0.031,-0.026
-0.103,0.01,0.114,0.046,-0.109,0.062,0.063,-0.034,-0.003,0.016,-0.026,-0.047
-0.113,-0.008,0.104,0.06,-0.109,0.048,0.062,-0.053,-0.039,-0.055,-0.064,-0.077
-0.142,-0.071,0.071,0.106,-0.106,0.0,0.052,-0.052,-0.071,-0.127,-0.134,-0.126
-0.148,-0.109,0.039,0.129,-0.093,-0.035,0.066,-0.044,-0.075,-0.135,-0.151,-0.144
-0.15,-0.12,0.029,0.135,-0.089,-0.045,0.027,-0.038,-0.059,-0.103,-0.126,-0.126
-0.111,-0.095,0.016,0.102,-0.063,-0.039,-0.002,-0.03,-0.046,-0.109,-0.12,-0.116
-0.052,-0.036,0.015,0.044,-0.033,-0.01,0.066,-0.027,-0.007,-0.059,-0.071,-0.087
-0.035,0.048,0.083,-0.007,-0.059,0.065,0.087,0.01,0.052,0.02,-0.024,-0.036
-0.056,0.127,0.183,-0.036,-0.119,0.155,0.181,0.072,0.113,0.081,0.043,0.012
-0.097,0.156,0.253,-0.03,-0.175,0.204,0.219,0.072,0.15,0.128,0.097,0.038
-0.063,0.205,0.268,-0.071,-0.166,0.236,0.102,0.012,0.133,0.107,0.085,0.046
-0.024,0.246,0.27,-0.111,-0.148,0.258,0.077,0.009,0.135,0.143,0.106,0.059
-0.053,0.222,0.274,-0.085,-0.164,0.248,0.052,-0.022,0.121,0.16,0.111,0.055
-0.023,0.188,0.211,-0.083,-0.117,0.199,0.029,-0.012,0.115,0.145,0.082,0.047
0.002,0.187,0.185,-0.095,-0.092,0.186,0.045,0.077,0.122,0.097,0.037,0.024
-0.008,0.176,0.184,-0.084,-0.096,0.18,0.014,0.186,0.321,0.232,0.136,0.048
0.112,0.323,0.211,-0.218,-0.049,0.266,-0.064,0.104,0.521,0.613,0.596,0.397
0.554,0.728,0.174,-0.641,0.19,0.451,-0.516,-0.899,0.146,0.929,1.244,1.022
0.775,0.638,-0.137,-0.706,0.456,0.25,-0.758,-1.645,-0.424,0.681,1.02,0.972
0.114,-0.039,-0.152,-0.037,0.133,-0.095,-0.193,-1.211,-0.909,-0.418,-0.173,0.078
-0.368,-0.31,0.058,0.339,-0.213,-0.126,0.145,-0.766,-0.878,-0.797,-0.616,-0.37
-0.246,-0.199,0.048,0.222,-0.146,-0.075,0.031,-0.418,-0.363,-0.329,-0.3,-0.238
-0.174,-0.092,0.082,0.133,-0.128,-0.005,-0.004,-0.106,-0.091,-0.13,-0.13,-0.151
-0.139,-0.044,0.095,0.091,-0.117,0.025,0.015,-0.029,0.029,-0.006,-0.065,-0.115
-0.127,-0.048,0.079,0.087,-0.103,0.015,0.042,-0.006,0.035,-0.045,-0.071,-0.112
-0.124,-0.065,0.059,0.094,-0.091,-0.003,0.053,-0.016,0.008,-0.089,-0.096,-0.133
-0.131,-0.13,0.002,0.131,-0.066,-0.064,0.063,-0.018,0.017,-0.096,-0.136,-0.166
-0.12,-0.134,-0.014,0.127,-0.052,-0.074,0.068,-0.013,-0.006,-0.099,-0.127,-0.162
-0.098,-0.129,-0.032,0.114,-0.033,-0.08,0.06,0.01,-0.021,-0.086,-0.116,-0.156
-0.109,-0.125,-0.015,0.117,-0.047,-0.07,0.075,0.047,0.006,-0.089,-0.107,-0.153
-0.083,-0.037,0.045,0.06,-0.064,0.004,0.096,0.073,0.081,-0.001,-0.045,-0.106
-0.077,0.056,0.134,0.011,-0.106,0.095,0.123,0.108,0.132,0.061,-0.017,-0.069
-0.111,0.138,0.249,-0.014,-0.18,0.193,0.2,0.175,0.181,0.092,0.008,-0.038
-0.113,0.193,0.306,-0.04,-0.21,0.249,0.206,0.186,0.2,0.103,0.042,-0.014
