-0.09,-0.101,-0.011,0.096,-0.039,-0.056,-0.085,-0.107,-0.175,-0.151,-0.12,-0.025
-0.072,-0.098,-0.026,0.086,-0.023,-0.062,-0.083,-0.108,-0.173,-0.15,-0.12,-0.022
-0.03,-0.081,-0.051,0.056,0.011,-0.066,-0.078,-0.087,-0.169,-0.141,-0.116,-0.016
-0.007,-0.072,-0.065,0.04,0.03,-0.069,-0.076,-0.057,-0.166,-0.145,-0.114,-0.011
-0.015,-0.061,-0.046,0.038,0.016,-0.053,-0.073,-0.038,-0.163,-0.148,-0.11,-0.004
-0.047,-0.08,-0.034,0.063,-0.006,-0.057,-0.083,-0.057,-0.158,-0.149,-0.11,-0.001
-0.032,-0.105,-0.073,0.068,0.021,-0.089,-0.105,-0.096,-0.183,-0.156,-0.116,-0.005
-0.056,-0.105,-0.049,0.081,-0.003,-0.077,-0.105,-0.114,-0.191,-0.152,-0.113,-0.009
-0.1,-0.112,-0.012,0.106,-0.044,-0.062,-0.095,-0.118,-0.2,-0.155,-0.117,-0.016
-0.065,-0.111,-0.045,0.088,-0.01,-0.078,-0.101,-0.123,-0.204,-0.145,-0.116,-0.016
-0.076,-0.118,-0.043,0.097,-0.016,-0.08,-0.084,-0.123,-0.206,-0.15,-0.133,-0.026
-0.07,-0.104,-0.034,0.087,-0.018,-0.069,-0.098,-0.142,-0.209,-0.141,-0.128,-0.023
-0.07,-0.116,-0.046,0.093,-0.012,-0.081,-0.089,-0.117,-0.194,-0.139,-0.13,-0.026
-0.093,-0.104,-0.011,0.099,-0.041,-0.057,-0.1,-0.131,-0.214,-0.145,-0.14,-0.025
-0.073,-0.115,-0.042,0.095,-0.016,-0.078,-0.079,-0.097,-0.177,-0.12,-0.125,-0.024
-0.103,-0.089,0.014,0.096,-0.058,-0.038,0.012,-0.008,-0.184,-0.147,-0.148,-0.034
-0.103,-0.003,0.1,0.053,-0.102,0.049,0.119,0.1,-0.037,-0.047,-0.072,0.017
0.014,0.171,0.157,-0.093,-0.071,0.164,0.091,0.004,0.245,0.191,0.147,0.158
0.282,0.814,0.532,-0.548,-0.125,0.673,-0.903,-0.907,1.003,0.929,0.785,0.655
0.279,0.722,0.442,-0.501,-0.082,0.582,-1.533,-1.487,1.327,1.003,0.828,0.715
-0.035,-0.064,-0.029,0.05,-0.003,-0.047,-0.81,-1.017,0.146,-0.017,-0.005,0.129
-0.101,-0.155,-0.054,0.128,-0.023,-0.104,-0.29,-0.43,-0.344,-0.222,-0.168,-0.012
-0.07,-0.107,-0.037,0.088,-0.016,-0.072,-0.127,-0.153,-0.177,-0.113,-0.106,0.002
-0.092,-0.119,-0.027,0.105,-0.032,-0.073,-0.073,-0.119,-0.263,-0.16,-0.148,-0.029
-0.079,-0.1,-0.021,0.09,-0.029,-0.061,-0.088,-0.084,-0.199,-0.112,-0.105,-0.004
-0.074,-0.119,-0.045,0.097,-0.015,-0.082,-0.068,-0.076,-0.234,-0.145,-0.131,-0.024
-0.082,-0.102,-0.021,0.093,-0.031,-0.061,-0.08,-0.071,-0.208,-0.12,-0.104,-0.009
-0.06,-0.116,-0.056,0.088,-0.002,-0.085,-0.065,-0.058,-0.216,-0.132,-0.115,-0.019
-0.051,-0.104,-0.053,0.078,0.001,-0.078,-0.072,-0.056,-0.217,-0.122,-0.103,-0.008
-0.049,-0.104,-0.055,0.077,0.003,-0.079,-0.061,-0.039,-0.202,-0.125,-0.103,-0.01
-0.033,-0.097,-0.064,0.065,0.016,-0.08,-0.057,-0.027,-0.198,-0.121,-0.099,-0.01
-0.03,-0.093,-0.063,0.062,0.017,-0.078,-0.053,-0.009,-0.178,-0.111,-0.094,-0.003
-0.021,-0.089,-0.068,0.055,0.024,-0.078,-0.045,0.015,-0.183,-0.11,-0.092,-0.007
-0.043,-0.084,-0.041,0.064,-0.001,-0.062,-0.043,0.058,-0.159,-0.101,-0.078,0.0
-0.022,-0.075,-0.053,0.049,0.016,-0.064,-0.033,0.094,-0.13,-0.095,-0.072,0.013
0.015,-0.059,-0.075,0.023,0.045,-0.067,-0.022,0.167,-0.09,-0.067,-0.057,0.027
0.038,-0.044,-0.082,0.003,0.06,-0.062,-0.009,0.267,-0.051,-0.037,-0.04,0.04
0.048,-0.011,-0.059,-0.018,0.054,-0.035,-0.002,0.374,0.019,0.014,0.004,0.075
0.078,0.035,-0.043,-0.056,0.06,-0.004,0.009,0.475,0.113,0.093,0.075,0.13
0.135,0.106,-0.029,-0.12,0.082,0.038,-0.001,0.523,0.204,0.183,0.15,0.184
0.155,0.163,0.008,-0.159,0.073,0.085,-0.032,0.52,0.277,0.249,0.207,0.229
0.174,0.187,0.013,-0.181,0.08,0.1,-0.045,0.478,0.29,0.275,0.243,0.254
0.141,0.196,0.055,-0.169,0.043,0.125,-0.055,0.422,0.272,0.272,0.234,0.245
0.089,0.169,0.08,-0.129,0.004,0.124,-0.055,0.339,0.227,0.226,0.187,0.21
0.084,0.111,0.027,-0.098,0.028,0.069,-0.048,0.244,0.133,0.143,0.124,0.16
0.048,0.047,-0.001,-0.047,0.024,0.022,-0.045,0.166,0.041,0.061,0.053,0.106
-0.016,-0.006,0.01,0.011,-0.013,0.002,-0.039,0.098,-0.035,-0.001,0.005,0.062
-0.037,-0.053,-0.016,0.045,-0.01,-0.034,-0.036,0.047,-0.085,-0.042,-0.028,0.034
-0.034,-0.088,-0.055,0.061,0.01,-0.071,-0.034,0.004,-0.11,-0.068,-0.057,0.022
-0.005,-0.101,-0.095,0.053,0.045,-0.098,-0.037,-0.019,-0.13,-0.085,-0.07,0.016
0.003,-0.105,-0.108,0.052,0.056,-0.106,-0.045,-0.021,-0.132,-0.09,-0.07,0.009
-0.006,-0.109,-0.103,0.058,0.049,-0.105,-0.045,-0.028,-0.13,-0.09,-0.07,0.003
-0.006,-0.116,-0.11,0.061,0.052,-0.113,-0.045,-0.027,-0.13,-0.09,-0.07,-0.004
-0.011,-0.119,-0.108,0.065,0.049,-0.113,-0.042,-0.019,-0.126,-0.09,-0.07,-0.009
-0.001,-0.115,-0.113,0.058,0.056,-0.113,-0.039,-0.013,-0.125,-0.09,-0.07,-0.01
-0.028,-0.115,-0.087,0.072,0.03,-0.101,-0.04,-0.006,-0.125,-0.086,-0.068,-0.015
-0.019,-0.115,-0.096,0.067,0.039,-0.105,-0.04,0.001,-0.12,-0.08,-0.064,-0.014
-0.008,-0.115,-0.107,0.062,0.05,-0.111,-0.04,0.005,-0.115,-0.075,-0.062,-0.01
-0.032,-0.115,-0.083,0.074,0.026,-0.099,-0.04,0.005,-0.11,-0.069,-0.059,-0.011
-0.01,-0.115,-0.105,0.063,0.048,-0.11,-0.04,0.005,-0.107,-0.063,-0.056,-0.008
-0.003,-0.115,-0.112,0.059,0.055,-0.113,-0.039,0.005,-0.101,-0.06,-0.054,-0.005
-0.006,-0.115,-0.109,0.061,0.052,-0.111,-0.043,0.005,-0.1,-0.06,-0.051,-0.005
-0.007,-0.115,-0.108,0.062,0.051,-0.111,-0.045,0.005,-0.1,-0.06,-0.05,-0.009
-0.011,-0.115,-0.104,0.064,0.047,-0.11,-0.045,0.0,-0.1,-0.06,-0.05,-0.011
-0.011,-0.115,-0.104,0.063,0.047,-0.11,-0.049,-0.008,-0.1,-0.06,-0.05,-0.01
0.005,-0.115,-0.12,0.055,0.063,-0.117,-0.051,-0.014,-0.1,-0.061,-0.05,-0.01
0.018,-0.115,-0.133,0.049,0.076,-0.123,-0.049,-0.022,-0.11,-0.062,-0.052,-0.01
0.014,-0.115,-0.128,0.05,0.071,-0.121,-0.046,-0.03,-0.12,-0.076,-0.055,-0.011
0.012,-0.12,-0.131,0.054,0.072,-0.125,-0.041,-0.034,-0.125,-0.095,-0.055,-0.016
0.003,-0.126,-0.128,0.061,0.066,-0.126,-0.039,-0.035,-0.129,-0.095,-0.054,-0.019
0.004,-0.128,-0.132,0.062,0.068,-0.13,-0.035,-0.035,-0.132,-0.096,-0.061,-0.022
-0.022,-0.132,-0.109,0.077,0.044,-0.12,-0.03,-0.035,-0.135,-0.1,-0.071,-0.027
-0.032,-0.135,-0.103,0.084,0.036,-0.119,-0.032,-0.042,-0.137,-0.1,-0.07,-0.03
0.005,-0.135,-0.139,0.065,0.072,-0.137,-0.036,-0.046,-0.14,-0.098,-0.069,-0.026
0.0,-0.135,-0.136,0.067,0.068,-0.135,-0.035,-0.044,-0.14,-0.094,-0.071,-0.025
-0.003,-0.135,-0.132,0.069,0.065,-0.133,-0.035,-0.045,-0.14,-0.096,-0.068,-0.025
0.006,-0.135,-0.141,0.065,0.074,-0.138,-0.035,-0.045,-0.14,-0.1,-0.075,-0.025
0.001,-0.134,-0.136,0.067,0.069,-0.135,-0.035,-0.044,-0.14,-0.1,-0.086,-0.024
-0.003,-0.136,-0.133,0.07,0.066,-0.135,-0.029,-0.041,-0.135,-0.1,-0.083,-0.027
-0.022,-0.145,-0.123,0.084,0.051,-0.134,-0.023,-0.038,-0.135,-0.097,-0.08,-0.031
-0.024,-0.148,-0.123,0.086,0.05,-0.135,-0.019,-0.036,-0.135,-0.094,-0.078,-0.025
-0.011,-0.143,-0.133,0.077,0.061,-0.138,-0.012,-0.031,-0.129,-0.096,-0.075,-0.02
0.002,-0.141,-0.143,0.07,0.073,-0.142,-0.008,-0.031,-0.131,-0.1,-0.073,-0.017
0.014,-0.138,-0.152,0.062,0.083,-0.145,-0.001,-0.023,-0.124,-0.101,-0.07,-0.01
0.036,-0.123,-0.159,0.044,0.098,-0.141,0.002,0.003,-0.099,-0.095,-0.066,-0.012
0.028,-0.105,-0.133,0.039,0.081,-0.119,0.025,0.031,-0.08,-0.095,-0.065,-0.016
0.014,-0.106,-0.12,0.046,0.068,-0.113,0.028,0.033,-0.085,-0.089,-0.059,-0.014
0.027,-0.139,-0.165,0.056,0.096,-0.152,-0.008,-0.002,-0.112,-0.091,-0.062,-0.02
-0.005,-0.161,-0.156,0.083,0.076,-0.158,-0.025,-0.037,-0.12,-0.107,-0.073,-0.019
-0.015,-0.168,-0.153,0.092,0.069,-0.16,-0.014,-0.047,-0.131,-0.123,-0.087,-0.021
-0.011,-0.167,-0.156,0.09,0.072,-0.161,-0.018,-0.054,-0.132,-0.119,-0.088,-0.027
-0.019,-0.171,-0.152,0.095,0.067,-0.161,-0.011,-0.046,-0.124,-0.119,-0.09,-0.035
-0.016,-0.162,-0.146,0.089,0.066,-0.154,-0.009,-0.053,-0.133,-0.124,-0.092,-0.036
-0.016,-0.155,-0.139,0.086,0.062,-0.147,-0.016,-0.049,-0.113,-0.111,-0.086,-0.036
-0.019,-0.158,-0.139,0.089,0.06,-0.148,-0.008,-0.048,-0.144,-0.135,-0.097,-0.045
0.004,-0.136,-0.139,0.066,0.072,-0.137,-0.027,-0.058,-0.121,-0.11,-0.081,-0.035
-0.017,-0.158,-0.141,0.088,0.062,-0.149,0.051,0.026,-0.134,-0.151,-0.111,-0.069
-0.051,-0.09,-0.039,0.071,-0.006,-0.064,0.157,0.148,-0.027,-0.069,-0.055,-0.039
0.02,-0.002,-0.022,-0.009,0.021,-0.012,0.269,0.19,0.178,0.098,0.069,0.057
0.248,0.545,0.297,-0.397,-0.025,0.421,-0.392,-0.471,0.723,0.674,0.598,0.488
0.427,0.883,0.456,-0.655,-0.015,0.67,-1.405,-1.298,1.408,1.184,1.024,0.837
0.145,0.086,-0.059,-0.115,0.102,0.014,-1.04,-1.134,0.569,0.301,0.289,0.31
-0.07,-0.283,-0.213,0.177,0.072,-0.248,-0.324,-0.523,-0.279,-0.263,-0.18,-0.048
-0.019,-0.167,-0.148,0.093,0.065,-0.158,-0.111,-0.136,-0.137,-0.117,-0.084,-0.012
-0.047,-0.204,-0.157,0.126,0.055,-0.18,-0.006,-0.041,-0.182,-0.181,-0.138,-0.062
-0.017,-0.162,-0.145,0.09,0.065,-0.153,-0.003,-0.024,-0.152,-0.124,-0.1,-0.038
-0.013,-0.183,-0.17,0.098,0.079,-0.176,0.017,0.001,-0.156,-0.146,-0.115,-0.055
-0.014,-0.166,-0.153,0.09,0.07,-0.16,0.007,0.003,-0.157,-0.133,-0.103,-0.052
-0.002,-0.166,-0.165,0.084,0.082,-0.165,0.011,0.032,-0.142,-0.128,-0.1,-0.054
-0.011,-0.168,-0.157,0.09,0.073,-0.162,0.011,0.036,-0.152,-0.131,-0.099,-0.054
-0.006,-0.168,-0.162,0.087,0.078,-0.165,0.027,0.04,-0.128,-0.118,-0.087,-0.043
-0.025,-0.173,-0.148,0.099,0.062,-0.16,0.039,0.048,-0.136,-0.123,-0.091,-0.044
-0.015,-0.167,-0.151,0.091,0.068,-0.159,0.033,0.064,-0.117,-0.108,-0.079,-0.035
0.001,-0.168,-0.168,0.084,0.085,-0.168,0.043,0.09,-0.112,-0.111,-0.081,-0.034
-0.001,-0.163,-0.163,0.083,0.081,-0.163,0.038,0.113,-0.097,-0.099,-0.069,-0.028
0.017,-0.164,-0.182,0.074,0.1,-0.173,0.048,0.157,-0.078,-0.098,-0.062,-0.02
0.031,-0.152,-0.183,0.061,0.107,-0.167,0.061,0.225,-0.047,-0.082,-0.054,-0.011
0.042,-0.133,-0.175,0.046,0.108,-0.154,0.076,0.313,-0.004,-0.045,-0.038,0.009
0.059,-0.112,-0.171,0.026,0.115,-0.141,0.097,0.421,0.052,-0.006,-0.005,0.034
0.101,-0.063,-0.164,-0.019,0.133,-0.114,0.104,0.527,0.132,0.055,0.051,0.073
0.16,0.005,-0.155,-0.082,0.157,-0.074,0.09,0.602,0.221,0.135,0.125,0.133
0.204,0.076,-0.128,-0.139,0.166,-0.026,0.065,0.612,0.293,0.208,0.196,0.185
0.214,0.123,-0.091,-0.168,0.152,0.016,0.042,0.582,0.324,0.251,0.241,0.224
0.198,0.124,-0.073,-0.161,0.135,0.025,0.034,0.535,0.316,0.256,0.252,0.229
0.195,0.12,-0.075,-0.157,0.135,0.022,0.035,0.45,0.279,0.23,0.226,0.204
0.146,0.079,-0.067,-0.113,0.106,0.006,0.035,0.347,0.204,0.157,0.16,0.152
0.09,0.01,-0.08,-0.05,0.085,-0.035,0.035,0.256,0.113,0.073,0.082,0.088
0.069,-0.044,-0.113,-0.012,0.091,-0.078,0.035,0.175,0.043,0.005,0.025,0.041
0.037,-0.097,-0.134,0.03,0.086,-0.115,0.032,0.11,-0.015,-0.046,-0.027,0.0
0.02,-0.134,-0.154,0.057,0.088,-0.144,0.03,0.069,-0.053,-0.076,-0.064,-0.017
0.004,-0.155,-0.159,0.075,0.082,-0.156,0.03,0.054,-0.07,-0.098,-0.076,-0.022
-0.004,-0.165,-0.162,0.085,0.079,-0.163,0.03,0.044,-0.083,-0.106,-0.08,-0.029
0.008,-0.174,-0.182,0.083,0.095,-0.178,0.03,0.032,-0.09,-0.108,-0.08,-0.036
0.01,-0.175,-0.186,0.083,0.099,-0.181,0.03,0.035,-0.09,-0.11,-0.08,-0.041
0.01,-0.174,-0.185,0.083,0.098,-0.179,0.035,0.035,-0.09,-0.11,-0.08,-0.04
0.015,-0.175,-0.19,0.08,0.103,-0.182,0.035,0.039,-0.09,-0.11,-0.08,-0.04
0.015,-0.175,-0.19,0.08,0.103,-0.182,0.036,0.04,-0.09,-0.11,-0.077,-0.04
0.015,-0.173,-0.189,0.079,0.102,-0.181,0.04,0.04,-0.09,-0.109,-0.072,-0.04
0.015,-0.17,-0.185,0.078,0.1,-0.177,0.04,0.052,-0.084,-0.104,-0.069,-0.04
0.015,-0.167,-0.183,0.076,0.099,-0.174,0.037,0.057,-0.079,-0.098,-0.066,-0.035
0.015,-0.165,-0.18,0.075,0.098,-0.172,0.035,0.059,-0.074,-0.095,-0.061,-0.035
0.015,-0.161,-0.176,0.073,0.096,-0.168,0.035,0.068,-0.068,-0.09,-0.06,-0.035
0.015,-0.16,-0.175,0.073,0.095,-0.167,0.035,0.072,-0.062,-0.085,-0.06,-0.035
0.008,-0.163,-0.171,0.078,0.09,-0.167,0.035,0.066,-0.063,-0.089,-0.06,-0.035
0.004,-0.166,-0.17,0.081,0.087,-0.167,0.035,0.061,-0.065,-0.096,-0.06,-0.037
0.001,-0.169,-0.169,0.084,0.085,-0.169,0.039,0.057,-0.066,-0.101,-0.06,-0.04
-0.001,-0.172,-0.171,0.086,0.085,-0.171,0.04,0.052,-0.07,-0.106,-0.06,-0.04
-0.007,-0.175,-0.168,0.091,0.081,-0.171,0.043,0.049,-0.071,-0.111,-0.063,-0.04
0.002,-0.174,-0.176,0.086,0.089,-0.174,0.046,0.041,-0.074,-0.114,-0.066,-0.04
0.021,-0.17,-0.19,0.074,0.106,-0.18,0.042,0.034,-0.078,-0.119,-0.069,-0.04
0.02,-0.17,-0.19,0.075,0.105,-0.18,0.04,0.027,-0.08,-0.12,-0.071,-0.045
0.02,-0.17,-0.19,0.075,0.105,-0.18,0.037,0.019,-0.087,-0.12,-0.077,-0.053
0.02,-0.17,-0.19,0.075,0.105,-0.18,0.034,0.012,-0.095,-0.125,-0.084,-0.053
0.02,-0.17,-0.19,0.075,0.105,-0.18,0.031,0.01,-0.099,-0.125,-0.089,-0.049
0.018,-0.17,-0.188,0.076,0.103,-0.178,0.03,0.01,-0.104,-0.126,-0.09,-0.05
0.011,-0.17,-0.181,0.08,0.096,-0.175,0.035,0.01,-0.105,-0.13,-0.09,-0.05
0.007,-0.17,-0.176,0.082,0.091,-0.173,0.035,0.01,-0.105,-0.133,-0.094,-0.05
0.0,-0.17,-0.171,0.085,0.086,-0.17,0.035,0.01,-0.105,-0.137,-0.096,-0.051
-0.005,-0.17,-0.165,0.087,0.08,-0.167,0.035,0.01,-0.105,-0.14,-0.093,-0.054
-0.011,-0.171,-0.16,0.091,0.074,-0.165,0.035,0.01,-0.105,-0.144,-0.09,-0.058
0.0,-0.175,-0.176,0.088,0.088,-0.175,0.038,0.01,-0.105,-0.145,-0.09,-0.061
0.016,-0.174,-0.19,0.08,0.103,-0.182,0.04,0.01,-0.11,-0.145,-0.09,-0.064
0.006,-0.177,-0.183,0.086,0.095,-0.18,0.044,0.01,-0.11,-0.145,-0.09,-0.067
-0.002,-0.18,-0.178,0.092,0.088,-0.179,0.046,0.01,-0.111,-0.145,-0.09,-0.07
-0.005,-0.179,-0.174,0.093,0.084,-0.176,0.05,0.006,-0.115,-0.144,-0.093,-0.073
-0.02,-0.184,-0.164,0.102,0.073,-0.174,0.05,0.005,-0.115,-0.147,-0.096,-0.076
-0.011,-0.185,-0.174,0.098,0.082,-0.179,0.045,0.005,-0.115,-0.152,-0.094,-0.079
0.011,-0.185,-0.196,0.088,0.104,-0.191,0.045,0.005,-0.115,-0.15,-0.096,-0.08
0.005,-0.19,-0.195,0.093,0.1,-0.192,0.043,0.005,-0.115,-0.15,-0.1,-0.08
0.001,-0.19,-0.191,0.095,0.096,-0.191,0.041,0.006,-0.115,-0.151,-0.1,-0.08
0.001,-0.189,-0.19,0.094,0.096,-0.189,0.039,0.013,-0.115,-0.15,-0.103,-0.08
0.016,-0.181,-0.196,0.082,0.106,-0.188,0.048,0.018,-0.115,-0.151,-0.105,-0.08
0.033,-0.169,-0.202,0.068,0.118,-0.186,0.059,0.024,-0.108,-0.145,-0.105,-0.08
0.018,-0.161,-0.179,0.072,0.099,-0.17,0.064,0.029,-0.098,-0.136,-0.101,-0.078
0.046,-0.142,-0.188,0.049,0.117,-0.165,0.061,0.034,-0.087,-0.124,-0.096,-0.073
0.096,-0.125,-0.221,0.014,0.159,-0.172,0.075,0.071,-0.078,-0.118,-0.101,-0.07
0.086,-0.117,-0.203,0.016,0.144,-0.159,0.08,0.08,-0.074,-0.122,-0.1,-0.066
0.074,-0.134,-0.208,0.03,0.141,-0.171,0.049,0.048,-0.09,-0.13,-0.1,-0.063
0.075,-0.158,-0.233,0.042,0.155,-0.196,0.039,0.011,-0.115,-0.141,-0.101,-0.059
0.025,-0.165,-0.19,0.07,0.108,-0.177,0.038,-0.008,-0.122,-0.143,-0.099,-0.068
-0.016,-0.168,-0.153,0.092,0.069,-0.16,0.036,-0.014,-0.129,-0.151,-0.099,-0.084
0.017,-0.168,-0.185,0.076,0.101,-0.176,0.029,-0.025,-0.12,-0.151,-0.091,-0.083
0.009,-0.17,-0.18,0.081,0.095,-0.175,0.034,-0.028,-0.13,-0.168,-0.1,-0.091
0.017,-0.153,-0.17,0.068,0.094,-0.162,0.028,-0.038,-0.12,-0.159,-0.085,-0.088
0.032,-0.163,-0.195,0.066,0.113,-0.179,0.038,-0.018,-0.128,-0.175,-0.094,-0.097
0.008,-0.14,-0.148,0.066,0.078,-0.144,0.023,-0.03,-0.125,-0.169,-0.088,-0.094
0.005,-0.153,-0.158,0.074,0.082,-0.155,0.064,0.014,-0.12,-0.175,-0.106,-0.102
-0.04,-0.127,-0.087,0.083,0.024,-0.106,0.163,0.124,-0.093,-0.163,-0.115,-0.093
0.0,-0.057,-0.057,0.028,0.029,-0.057,0.299,0.25,0.082,-0.038,-0.014,-0.042
0.162,0.277,0.115,-0.219,0.024,0.195,0.074,-0.077,0.396,0.303,0.315,0.222
0.427,0.932,0.505,-0.68,-0.039,0.718,-1.033,-1.028,1.197,1.078,1.005,0.785
0.327,0.516,0.188,-0.422,0.069,0.352,-1.3,-1.281,1.025,0.757,0.719,0.597
0.003,-0.227,-0.229,0.112,0.116,-0.228,-0.488,-0.721,-0.092,-0.211,-0.107,-0.028
0.007,-0.178,-0.185,0.086,0.096,-0.181,-0.101,-0.224,-0.214,-0.197,-0.123,-0.084
-0.013,-0.168,-0.154,0.091,0.07,-0.161,0.041,-0.013,-0.132,-0.163,-0.116,-0.077
-0.013,-0.161,-0.148,0.088,0.068,-0.154,0.065,-0.003,-0.16,-0.183,-0.128,-0.089
0.004,-0.151,-0.155,0.074,0.08,-0.153,0.074,0.027,-0.126,-0.156,-0.104,-0.084
-0.014,-0.161,-0.147,0.088,0.067,-0.154,0.088,0.03,-0.161,-0.184,-0.12,-0.097
0.001,-0.143,-0.145,0.072,0.073,-0.144,0.072,0.037,-0.133,-0.158,-0.109,-0.083
-0.015,-0.156,-0.141,0.085,0.063,-0.148,0.09,0.055,-0.15,-0.179,-0.132,-0.09
0.003,-0.141,-0.144,0.069,0.074,-0.142,0.085,0.057,-0.135,-0.161,-0.109,-0.081
0.009,-0.145,-0.153,0.068,0.081,-0.149,0.093,0.067,-0.142,-0.168,-0.113,-0.086
0.01,-0.137,-0.147,0.063,0.078,-0.142,0.088,0.082,-0.133,-0.16,-0.101,-0.079
0.011,-0.135,-0.146,0.062,0.079,-0.14,0.091,0.1,-0.122,-0.159,-0.095,-0.078
0.012,-0.131,-0.143,0.06,0.077,-0.137,0.089,0.118,-0.118,-0.157,-0.103,-0.075
0.012,-0.126,-0.138,0.057,0.075,-0.132,0.097,0.155,-0.101,-0.153,-0.104,-0.071
0.029,-0.115,-0.145,0.043,0.087,-0.13,0.111,0.211,-0.073,-0.15,-0.09,-0.071
0.057,-0.101,-0.158,0.022,0.107,-0.129,0.121,0.292,-0.029,-0.131,-0.062,-0.062
0.065,-0.084,-0.149,0.01,0.107,-0.116,0.153,0.393,0.011,-0.097,-0.031,-0.041
0.094,-0.047,-0.14,-0.023,0.117,-0.093,0.16,0.504,0.079,-0.032,0.014,0.005
0.147,0.018,-0.129,-0.082,0.138,-0.055,0.147,0.601,0.162,0.033,0.068,0.056
0.194,0.094,-0.1,-0.144,0.147,-0.003,0.144,0.636,0.241,0.112,0.147,0.114
0.223,0.154,-0.069,-0.188,0.146,0.042,0.115,0.624,0.291,0.184,0.212,0.168
0.238,0.186,-0.053,-0.212,0.145,0.066,0.082,0.59,0.296,0.203,0.236,0.184
0.227,0.184,-0.043,-0.205,0.135,0.07,0.079,0.519,0.278,0.189,0.225,0.175
0.175,0.158,-0.017,-0.166,0.096,0.07,0.08,0.417,0.236,0.15,0.187,0.144
0.129,0.102,-0.027,-0.115,0.078,0.037,0.08,0.313,0.159,0.075,0.131,0.09
0.091,0.031,-0.06,-0.06,0.075,-0.014,0.08,0.219,0.068,0.003,0.049,0.034
0.048,-0.021,-0.069,-0.014,0.059,-0.044,0.079,0.149,0.002,-0.054,-0.012,-0.011
0.048,-0.064,-0.113,0.008,0.081,-0.088,0.076,0.102,-0.044,-0.103,-0.048,-0.043
0.045,-0.094,-0.139,0.025,0.093,-0.116,0.075,0.068,-0.073,-0.126,-0.074,-0.063
0.026,-0.107,-0.133,0.041,0.079,-0.12,0.075,0.051,-0.09,-0.142,-0.078,-0.072
0.025,-0.111,-0.136,0.043,0.081,-0.123,0.075,0.046,-0.096,-0.146,-0.084,-0.075
0.025,-0.109,-0.134,0.043,0.079,-0.121,0.075,0.041,-0.098,-0.144,-0.085,-0.075
0.025,-0.11,-0.135,0.043,0.08,-0.122,0.072,0.038,-0.101,-0.146,-0.085,-0.075
0.021,-0.11,-0.131,0.044,0.076,-0.121,0.069,0.032,-0.094,-0.145,-0.084,-0.075
0.018,-0.109,-0.127,0.046,0.073,-0.118,0.07,0.031,-0.089,-0.145,-0.079,-0.074
0.018,-0.106,-0.124,0.044,0.071,-0.115,0.07,0.038,-0.084,-0.14,-0.08,-0.07
0.018,-0.103,-0.121,0.042,0.07,-0.112,0.07,0.044,-0.078,-0.136,-0.077,-0.07
0.014,-0.1,-0.115,0.043,0.064,-0.107,0.07,0.049,-0.073,-0.133,-0.075,-0.07
0.022,-0.097,-0.12,0.038,0.071,-0.108,0.065,0.054,-0.067,-0.13,-0.075,-0.07
0.036,-0.095,-0.131,0.029,0.084,-0.113,0.065,0.055,-0.065,-0.125,-0.075,-0.069
0.031,-0.095,-0.126,0.032,0.079,-0.11,0.064,0.055,-0.062,-0.127,-0.075,-0.074
0.028,-0.095,-0.123,0.034,0.076,-0.109,0.059,0.055,-0.059,-0.131,-0.076,-0.081
0.025,-0.095,-0.12,0.035,0.073,-0.107,0.061,0.055,-0.056,-0.13,-0.079,-0.08
0.02,-0.095,-0.115,0.038,0.068,-0.105,0.057,0.054,-0.055,-0.134,-0.082,-0.08
0.021,-0.095,-0.116,0.037,0.069,-0.105,0.055,0.046,-0.06,-0.135,-0.084,-0.08
0.034,-0.095,-0.129,0.031,0.082,-0.111,0.055,0.038,-0.063,-0.135,-0.088,-0.08
0.042,-0.095,-0.137,0.027,0.09,-0.116,0.052,0.03,-0.068,-0.142,-0.09,-0.08
0.037,-0.095,-0.132,0.029,0.085,-0.113,0.049,0.022,-0.074,-0.15,-0.092,-0.079
0.035,-0.095,-0.13,0.03,0.083,-0.112,0.05,0.017,-0.08,-0.149,-0.095,-0.081
0.031,-0.095,-0.126,0.032,0.079,-0.111,0.062,0.012,-0.084,-0.151,-0.095,-0.085
0.03,-0.095,-0.125,0.033,0.078,-0.11,0.066,0.009,-0.087,-0.155,-0.095,-0.085
0.024,-0.097,-0.121,0.037,0.073,-0.109,0.064,0.005,-0.092,-0.155,-0.095,-0.085
0.014,-0.1,-0.115,0.043,0.064,-0.107,0.062,0.001,-0.095,-0.157,-0.095,-0.085
0.01,-0.1,-0.11,0.045,0.06,-0.105,0.059,-0.002,-0.1,-0.161,-0.1,-0.085
0.005,-0.1,-0.105,0.048,0.055,-0.102,0.06,-0.005,-0.1,-0.163,-0.105,-0.085
-0.004,-0.1,-0.096,0.052,0.046,-0.098,0.055,-0.005,-0.1,-0.166,-0.108,-0.09
0.002,-0.1,-0.102,0.049,0.052,-0.1,0.055,-0.008,-0.1,-0.169,-0.113,-0.098
0.016,-0.1,-0.116,0.043,0.066,-0.107,0.055,-0.01,-0.099,-0.17,-0.115,-0.102
0.012,-0.1,-0.112,0.044,0.062,-0.106,0.055,-0.01,-0.103,-0.173,-0.115,-0.105
0.007,-0.1,-0.107,0.046,0.057,-0.104,0.055,-0.014,-0.105,-0.175,-0.119,-0.105
0.006,-0.1,-0.106,0.047,0.056,-0.103,0.057,-0.015,-0.105,-0.177,-0.12,-0.105
-0.002,-0.1,-0.098,0.051,0.048,-0.099,0.061,-0.015,-0.105,-0.18,-0.12,-0.109
0.003,-0.1,-0.103,0.049,0.053,-0.101,0.063,-0.015,-0.106,-0.18,-0.12,-0.11
0.013,-0.1,-0.113,0.044,0.063,-0.106,0.066,-0.015,-0.109,-0.185,-0.12,-0.113
0.01,-0.1,-0.11,0.045,0.06,-0.105,0.069,-0.014,-0.112,-0.193,-0.12,-0.116
0.002,-0.1,-0.102,0.049,0.052,-0.101,0.071,-0.009,-0.115,-0.193,-0.12,-0.112
-0.001,-0.1,-0.099,0.051,0.049,-0.1,0.075,-0.003,-0.118,-0.188,-0.121,-0.108
-0.009,-0.1,-0.091,0.055,0.041,-0.095,0.076,0.0,-0.121,-0.182,-0.118,-0.102
0.006,-0.09,-0.095,0.042,0.051,-0.092,0.078,0.006,-0.116,-0.179,-0.111,-0.099
0.049,-0.074,-0.123,0.013,0.087,-0.099,0.081,0.008,-0.102,-0.174,-0.106,-0.093
0.057,-0.065,-0.122,0.004,0.09,-0.093,0.081,0.022,-0.088,-0.169,-0.1,-0.09
0.057,-0.066,-0.122,0.005,0.09,-0.094,0.103,0.053,-0.09,-0.176,-0.095,-0.095
0.066,-0.064,-0.13,-0.001,0.098,-0.097,0.095,0.05,-0.089,-0.179,-0.09,-0.095
0.055,-0.066,-0.122,0.006,0.089,-0.094,0.058,0.024,-0.096,-0.184,-0.101,-0.099
0.044,-0.072,-0.116,0.014,0.08,-0.094,0.048,-0.011,-0.11,-0.188,-0.112,-0.101
0.032,-0.079,-0.111,0.024,0.072,-0.095,0.051,-0.025,-0.111,-0.19,-0.115,-0.101
0.021,-0.083,-0.104,0.031,0.063,-0.093,0.05,-0.028,-0.119,-0.198,-0.129,-0.113
0.016,-0.082,-0.098,0.033,0.057,-0.09,0.048,-0.033,-0.122,-0.196,-0.132,-0.124
0.009,-0.084,-0.093,0.037,0.051,-0.088,0.055,-0.039,-0.141,-0.21,-0.14,-0.125
0.006,-0.072,-0.078,0.033,0.042,-0.074,0.042,-0.05,-0.117,-0.187,-0.129,-0.116
-0.003,-0.083,-0.079,0.043,0.039,-0.081,0.061,-0.03,-0.127,-0.2,-0.142,-0.121
-0.007,-0.061,-0.054,0.034,0.024,-0.057,0.034,-0.045,-0.107,-0.179,-0.129,-0.11
-0.03,-0.083,-0.053,0.057,0.011,-0.068,0.091,0.005,-0.108,-0.183,-0.143,-0.137
-0.022,-0.03,-0.009,0.026,-0.006,-0.019,0.191,0.122,-0.083,-0.18,-0.121,-0.127
0.033,0.043,0.01,-0.038,0.011,0.026,0.326,0.248,0.104,-0.054,-0.021,-0.062
0.193,0.429,0.236,-0.311,-0.022,0.333,0.01,-0.169,0.461,0.345,0.353,0.25
0.452,1.045,0.593,-0.749,-0.071,0.819,-1.109,-1.113,1.231,1.074,1.009,0.775
0.286,0.502,0.216,-0.395,0.035,0.359,-1.208,-1.264,0.856,0.57,0.562,0.466
-0.013,-0.166,-0.153,0.09,0.07,-0.16,-0.402,-0.684,-0.18,-0.299,-0.186,-0.105
0.003,-0.078,-0.081,0.038,0.043,-0.08,-0.077,-0.204,-0.17,-0.202,-0.131,-0.114
-0.006,-0.091,-0.086,0.049,0.04,-0.089,0.054,-0.033,-0.141,-0.222,-0.156,-0.133
-0.014,-0.077,-0.063,0.046,0.024,-0.07,0.08,-0.023,-0.16,-0.217,-0.152,-0.132
-0.005,-0.078,-0.073,0.041,0.034,-0.075,0.084,0.004,-0.13,-0.201,-0.143,-0.126
-0.01,-0.08,-0.07,0.045,0.031,-0.075,0.088,0.004,-0.156,-0.219,-0.159,-0.135
-0.001,-0.069,-0.068,0.035,0.034,-0.068,0.081,0.019,-0.127,-0.193,-0.138,-0.125
-0.007,-0.08,-0.072,0.044,0.033,-0.076,0.089,0.027,-0.146,-0.213,-0.151,-0.134
-0.002,-0.064,-0.062,0.033,0.03,-0.063,0.082,0.036,-0.123,-0.189,-0.135,-0.122
-0.002,-0.069,-0.067,0.036,0.033,-0.068,0.087,0.044,-0.129,-0.198,-0.142,-0.124
0.002,-0.061,-0.063,0.03,0.033,-0.061,0.084,0.049,-0.118,-0.186,-0.133,-0.117
0.008,-0.059,-0.066,0.026,0.037,-0.062,0.085,0.074,-0.113,-0.185,-0.134,-0.115
0.008,-0.056,-0.064,0.024,0.036,-0.06,0.09,0.095,-0.11,-0.18,-0.127,-0.111
0.019,-0.049,-0.069,0.015,0.044,-0.059,0.099,0.133,-0.092,-0.174,-0.117,-0.107
0.029,-0.041,-0.071,0.006,0.05,-0.056,0.117,0.192,-0.074,-0.165,-0.11,-0.098
0.037,-0.028,-0.065,-0.004,0.051,-0.046,0.135,0.267,-0.045,-0.137,-0.093,-0.087
0.064,0.003,-0.061,-0.033,0.062,-0.029,0.142,0.369,0.008,-0.101,-0.053,-0.062
0.096,0.039,-0.057,-0.067,0.076,-0.009,0.154,0.478,0.072,-0.047,-0.008,-0.017
0.149,0.101,-0.048,-0.124,0.098,0.026,0.146,0.57,0.147,0.026,0.055,0.032
0.198,0.182,-0.017,-0.19,0.107,0.082,0.128,0.604,0.23,0.106,0.137,0.097
0.222,0.236,0.015,-0.229,0.103,0.125,0.113,0.59,0.279,0.167,0.197,0.143
0.23,0.259,0.029,-0.245,0.101,0.144,0.093,0.556,0.294,0.19,0.222,0.152
0.207,0.258,0.05,-0.233,0.078,0.154,0.089,0.484,0.269,0.175,0.203,0.144
0.165,0.225,0.059,-0.195,0.053,0.142,0.09,0.379,0.203,0.128,0.155,0.106
0.115,0.157,0.042,-0.136,0.036,0.099,0.09,0.27,0.119,0.05,0.088,0.052
0.069,0.095,0.026,-0.082,0.021,0.06,0.09,0.178,0.04,-0.03,0.014,0.003
0.042,0.051,0.009,-0.046,0.016,0.03,0.09,0.112,-0.022,-0.093,-0.039,-0.041
0.019,0.013,-0.006,-0.016,0.013,0.003,0.086,0.063,-0.066,-0.13,-0.074,-0.072
0.008,-0.013,-0.021,0.003,0.014,-0.017,0.085,0.029,-0.096,-0.149,-0.096,-0.088
-0.003,-0.031,-0.028,0.017,0.013,-0.029,0.085,0.011,-0.113,-0.165,-0.101,-0.093
-0.013,-0.036,-0.023,0.025,0.005,-0.03,0.08,-0.001,-0.117,-0.166,-0.11,-0.098
-0.013,-0.033,-0.02,0.023,0.004,-0.026,0.079,-0.006,-0.131,-0.164,-0.116,-0.099
-0.026,-0.042,-0.016,0.034,-0.004,-0.029,0.081,-0.005,-0.136,-0.165,-0.114,-0.094
-0.039,-0.052,-0.013,0.046,-0.013,-0.032,0.085,-0.005,-0.134,-0.165,-0.115,-0.095
-0.037,-0.046,-0.009,0.042,-0.014,-0.027,0.085,-0.005,-0.135,-0.165,-0.11,-0.092
-0.018,-0.041,-0.023,0.03,0.002,-0.032,0.087,-0.005,-0.135,-0.162,-0.11,-0.089
-0.001,-0.038,-0.037,0.02,0.018,-0.037,0.09,-0.003,-0.135,-0.159,-0.109,-0.09
-0.001,-0.032,-0.031,0.017,0.015,-0.032,0.09,0.002,-0.129,-0.157,-0.105,-0.093
-0.004,-0.03,-0.026,0.017,0.011,-0.028,0.094,0.005,-0.122,-0.154,-0.105,-0.096
-0.011,-0.03,-0.02,0.02,0.005,-0.025,0.095,0.008,-0.116,-0.151,-0.107,-0.095
-0.014,-0.03,-0.016,0.023,0.001,-0.022,0.095,0.013,-0.109,-0.15,-0.11,-0.095
-0.017,-0.03,-0.013,0.024,-0.002,-0.021,0.095,0.015,-0.102,-0.15,-0.11,-0.095
-0.019,-0.03,-0.01,0.025,-0.004,-0.02,0.095,0.009,-0.102,-0.15,-0.114,-0.096
-0.023,-0.03,-0.007,0.027,-0.008,-0.018,0.093,0.002,-0.106,-0.15,-0.116,-0.1
-0.028,-0.033,-0.005,0.031,-0.011,-0.019,0.09,-0.004,-0.105,-0.15,-0.114,-0.099
-0.034,-0.036,-0.002,0.035,-0.015,-0.019,0.087,-0.012,-0.105,-0.15,-0.111,-0.102
-0.04,-0.039,0.001,0.039,-0.02,-0.019,0.085,-0.017,-0.116,-0.152,-0.109,-0.106
-0.048,-0.042,0.006,0.044,-0.027,-0.018,0.082,-0.023,-0.12,-0.156,-0.111,-0.104
-0.052,-0.045,0.008,0.049,-0.03,-0.018,0.079,-0.032,-0.123,-0.159,-0.109,-0.109
-0.058,-0.045,0.013,0.051,-0.035,-0.016,0.084,-0.031,-0.129,-0.162,-0.111,-0.11
-0.06,-0.045,0.016,0.052,-0.038,-0.015,0.085,-0.03,-0.134,-0.166,-0.109,-0.11
-0.031,-0.045,-0.014,0.038,-0.008,-0.029,0.085,-0.029,-0.148,-0.169,-0.112,-0.115
-0.02,-0.045,-0.025,0.033,0.003,-0.035,0.09,-0.038,-0.15,-0.17,-0.125,-0.115
-0.033,-0.045,-0.012,0.039,-0.01,-0.028,0.09,-0.046,-0.15,-0.17,-0.125,-0.115
-0.044,-0.045,-0.001,0.045,-0.021,-0.023,0.089,-0.047,-0.15,-0.17,-0.12,-0.115
-0.042,-0.045,-0.003,0.044,-0.019,-0.024,0.084,-0.056,-0.15,-0.17,-0.119,-0.115
-0.04,-0.045,-0.005,0.043,-0.017,-0.025,0.078,-0.055,-0.15,-0.168,-0.114,-0.115
-0.055,-0.045,0.01,0.05,-0.032,-0.017,0.075,-0.055,-0.145,-0.164,-0.116,-0.115
-0.067,-0.045,0.022,0.056,-0.044,-0.011,0.07,-0.056,-0.145,-0.165,-0.122,-0.115
-0.079,-0.045,0.034,0.062,-0.056,-0.005,0.065,-0.054,-0.144,-0.165,-0.129,-0.115
-0.07,-0.046,0.024,0.057,-0.046,-0.011,0.07,-0.058,-0.14,-0.166,-0.127,-0.116
-0.065,-0.045,0.021,0.055,-0.043,-0.012,0.077,-0.052,-0.14,-0.165,-0.121,-0.113
-0.054,-0.045,0.009,0.049,-0.031,-0.018,0.076,-0.044,-0.138,-0.158,-0.118,-0.121
-0.051,-0.046,0.005,0.048,-0.028,-0.02,0.083,-0.035,-0.13,-0.147,-0.112,-0.124
-0.034,-0.038,-0.004,0.036,-0.015,-0.021,0.086,-0.024,-0.126,-0.137,-0.109,-0.106
0.005,-0.018,-0.023,0.007,0.014,-0.021,0.104,-0.001,-0.129,-0.128,-0.11,-0.105
-0.028,-0.006,0.021,0.017,-0.025,0.008,0.117,0.016,-0.132,-0.12,-0.11,-0.105
-0.027,-0.035,-0.007,0.031,-0.01,-0.021,0.093,-0.007,-0.133,-0.14,-0.109,-0.101
-0.023,-0.052,-0.028,0.038,0.003,-0.04,0.08,-0.052,-0.141,-0.152,-0.118,-0.1
-0.064,-0.049,0.015,0.056,-0.04,-0.017,0.081,-0.074,-0.147,-0.15,-0.125,-0.099
-0.092,-0.051,0.041,0.071,-0.066,-0.005,0.077,-0.084,-0.155,-0.159,-0.127,-0.113
-0.111,-0.056,0.055,0.084,-0.083,-0.001,0.069,-0.078,-0.144,-0.15,-0.123,-0.118
-0.109,-0.064,0.044,0.087,-0.077,-0.01,0.075,-0.079,-0.157,-0.161,-0.136,-0.122
-0.105,-0.054,0.05,0.079,-0.078,-0.001,0.062,-0.084,-0.143,-0.148,-0.123,-0.118
-0.103,-0.067,0.036,0.085,-0.069,-0.016,0.08,-0.073,-0.153,-0.161,-0.133,-0.129
-0.099,-0.051,0.048,0.075,-0.074,-0.001,0.057,-0.1,-0.139,-0.151,-0.119,-0.122
-0.106,-0.071,0.035,0.089,-0.071,-0.018,0.095,-0.035,-0.13,-0.152,-0.128,-0.129
-0.115,-0.023,0.091,0.069,-0.103,0.034,0.19,0.073,-0.097,-0.121,-0.125,-0.133
-0.078,0.042,0.12,0.017,-0.099,0.081,0.333,0.258,0.12,0.016,-0.01,-0.069
0.074,0.374,0.3,-0.224,-0.113,0.337,0.13,-0.09,0.453,0.373,0.333,0.211
0.291,0.951,0.66,-0.621,-0.185,0.805,-0.917,-1.102,1.204,1.057,0.927,0.685
0.135,0.496,0.361,-0.316,-0.113,0.428,-1.137,-1.346,0.926,0.62,0.54,0.423
-0.162,-0.145,0.017,0.153,-0.089,-0.064,-0.416,-0.807,-0.153,-0.221,-0.163,-0.112
-0.136,-0.094,0.041,0.115,-0.088,-0.026,-0.083,-0.298,-0.197,-0.15,-0.108,-0.112
-0.118,-0.093,0.025,0.105,-0.071,-0.033,0.073,-0.095,-0.139,-0.158,-0.124,-0.121
-0.13,-0.072,0.059,0.101,-0.094,-0.006,0.09,-0.075,-0.162,-0.149,-0.121,-0.12
-0.11,-0.074,0.036,0.092,-0.073,-0.018,0.098,-0.038,-0.125,-0.122,-0.107,-0.109
-0.106,-0.079,0.027,0.093,-0.066,-0.026,0.116,-0.038,-0.153,-0.139,-0.119,-0.117
-0.089,-0.07,0.02,0.079,-0.054,-0.025,0.104,-0.021,-0.12,-0.111,-0.093,-0.103
-0.086,-0.08,0.006,0.083,-0.045,-0.037,0.116,-0.013,-0.138,-0.128,-0.104,-0.11
-0.073,-0.067,0.006,0.07,-0.04,-0.03,0.106,-0.006,-0.115,-0.106,-0.083,-0.093
-0.064,-0.072,-0.008,0.069,-0.028,-0.04,0.113,0.006,-0.116,-0.114,-0.087,-0.094
-0.074,-0.064,0.01,0.069,-0.041,-0.027,0.112,0.013,-0.104,-0.101,-0.075,-0.083
-0.081,-0.064,0.017,0.072,-0.049,-0.023,0.116,0.027,-0.097,-0.096,-0.07,-0.078
-0.075,-0.06,0.015,0.067,-0.045,-0.022,0.114,0.045,-0.091,-0.09,-0.062,-0.073
-0.074,-0.058,0.016,0.066,-0.045,-0.021,0.116,0.082,-0.072,-0.08,-0.051,-0.062
-0.059,-0.048,0.011,0.053,-0.034,-0.018,0.13,0.132,-0.044,-0.064,-0.048,-0.054
-0.046,-0.036,0.01,0.041,-0.028,-0.012,0.144,0.197,-0.002,-0.034,-0.022,-0.041
-0.025,-0.016,0.009,0.02,-0.017,-0.003,0.151,0.289,0.032,-0.003,0.012,-0.023
0.023,0.025,0.003,-0.024,0.01,0.014,0.144,0.392,0.103,0.062,0.062,0.018
0.086,0.083,-0.003,-0.084,0.044,0.04,0.137,0.479,0.201,0.147,0.138,0.076
0.133,0.151,0.018,-0.142,0.057,0.084,0.127,0.507,0.285,0.231,0.21,0.129
0.144,0.202,0.058,-0.173,0.043,0.13,0.122,0.49,0.339,0.297,0.264,0.172
0.151,0.229,0.078,-0.19,0.036,0.154,0.125,0.478,0.359,0.323,0.287,0.185
0.134,0.231,0.097,-0.183,0.018,0.164,0.125,0.42,0.348,0.314,0.28,0.17
0.1,0.196,0.096,-0.148,0.002,0.145,0.127,0.337,0.283,0.261,0.229,0.132
0.053,0.132,0.079,-0.093,-0.014,0.105,0.131,0.248,0.197,0.177,0.151,0.077
-0.006,0.066,0.071,-0.03,-0.039,0.068,0.129,0.158,0.115,0.093,0.079,0.028
-0.044,0.013,0.057,0.015,-0.05,0.035,0.127,0.099,0.045,0.033,0.027,-0.017
-0.062,-0.021,0.041,0.041,-0.051,0.01,0.124,0.052,0.006,-0.001,-0.001,-0.046
-0.071,-0.046,0.025,0.058,-0.048,-0.01,0.121,0.018,-0.01,-0.015,-0.013,-0.058
-0.089,-0.069,0.019,0.079,-0.053,-0.025,0.118,0.002,-0.015,-0.02,-0.024,-0.065
-0.097,-0.076,0.021,0.087,-0.058,-0.027,0.115,-0.001,-0.023,-0.028,-0.034,-0.069
-0.091,-0.074,0.017,0.083,-0.054,-0.028,0.116,0.001,-0.031,-0.036,-0.035,-0.068
-0.094,-0.079,0.015,0.086,-0.054,-0.032,0.12,0.0,-0.038,-0.043,-0.035,-0.064
-0.095,-0.08,0.015,0.087,-0.055,-0.032,0.125,0.0,-0.037,-0.041,-0.035,-0.065
-0.091,-0.079,0.011,0.085,-0.051,-0.034,0.121,0.001,-0.029,-0.034,-0.035,-0.065
-0.085,-0.075,0.009,0.08,-0.047,-0.033,0.122,0.005,-0.023,-0.028,-0.035,-0.065
-0.08,-0.07,0.01,0.075,-0.045,-0.029,0.126,0.007,-0.016,-0.021,-0.032,-0.065
-0.075,-0.066,0.01,0.071,-0.042,-0.028,0.125,0.01,-0.009,-0.014,-0.029,-0.06
-0.072,-0.061,0.011,0.066,-0.041,-0.025,0.125,0.013,-0.005,-0.011,-0.026,-0.06
-0.076,-0.056,0.02,0.066,-0.048,-0.018,0.12,0.015,-0.003,-0.015,-0.024,-0.059
-0.08,-0.055,0.026,0.067,-0.052,-0.014,0.12,0.012,0.0,-0.015,-0.02,-0.055
-0.08,-0.055,0.025,0.067,-0.052,-0.015,0.119,0.007,0.004,-0.015,-0.021,-0.055
-0.08,-0.055,0.025,0.067,-0.052,-0.015,0.115,0.004,0.005,-0.015,-0.025,-0.057
-0.079,-0.055,0.024,0.067,-0.051,-0.015,0.113,0.0,0.002,-0.015,-0.028,-0.06
-0.081,-0.055,0.026,0.068,-0.053,-0.015,0.109,-0.003,-0.003,-0.019,-0.032,-0.063
-0.078,-0.055,0.023,0.066,-0.05,-0.016,0.107,-0.007,-0.005,-0.024,-0.035,-0.066
-0.093,-0.061,0.031,0.077,-0.062,-0.015,0.104,-0.014,-0.01,-0.028,-0.039,-0.069
-0.109,-0.063,0.046,0.086,-0.077,-0.008,0.105,-0.021,-0.013,-0.033,-0.04,-0.072
-0.101,-0.059,0.041,0.08,-0.071,-0.009,0.105,-0.028,-0.016,-0.037,-0.042,-0.074
-0.098,-0.06,0.038,0.079,-0.068,-0.011,0.105,-0.036,-0.029,-0.042,-0.045,-0.078
-0.095,-0.06,0.036,0.077,-0.065,-0.012,0.105,-0.042,-0.032,-0.045,-0.045,-0.08
-0.088,-0.06,0.028,0.074,-0.058,-0.016,0.104,-0.046,-0.029,-0.045,-0.045,-0.08
-0.097,-0.06,0.037,0.078,-0.067,-0.011,0.107,-0.045,-0.03,-0.045,-0.045,-0.08
-0.104,-0.055,0.048,0.079,-0.076,-0.003,0.11,-0.045,-0.026,-0.045,-0.045,-0.08
-0.091,-0.05,0.041,0.071,-0.066,-0.005,0.113,-0.044,-0.025,-0.046,-0.045,-0.08
-0.077,-0.045,0.032,0.061,-0.054,-0.006,0.115,-0.045,-0.024,-0.04,-0.045,-0.075
-0.076,-0.042,0.034,0.059,-0.055,-0.004,0.119,-0.043,-0.018,-0.03,-0.041,-0.07
-0.068,-0.035,0.033,0.051,-0.05,-0.001,0.12,-0.023,-0.017,-0.019,-0.04,-0.066
-0.062,-0.038,0.024,0.05,-0.043,-0.006,0.12,-0.004,-0.003,-0.012,-0.04,-0.061
-0.078,-0.041,0.038,0.059,-0.058,-0.001,0.129,0.009,0.014,-0.018,-0.036,-0.056
-0.068,-0.039,0.029,0.053,-0.048,-0.004,0.122,0.017,0.013,-0.021,-0.034,-0.056
-0.04,-0.053,-0.013,0.046,-0.013,-0.033,0.115,-0.013,0.002,-0.031,-0.036,-0.062
-0.064,-0.059,0.005,0.061,-0.034,-0.027,0.106,-0.04,0.0,-0.031,-0.033,-0.058
-0.104,-0.067,0.037,0.085,-0.07,-0.015,0.107,-0.029,-0.013,-0.041,-0.036,-0.061
-0.121,-0.065,0.056,0.093,-0.088,-0.005,0.095,-0.044,-0.017,-0.039,-0.036,-0.069
-0.138,-0.072,0.066,0.105,-0.102,-0.003,0.094,-0.049,-0.024,-0.04,-0.053,-0.084
-0.132,-0.057,0.075,0.095,-0.103,0.009,0.097,-0.06,-0.04,-0.044,-0.061,-0.091
-0.123,-0.058,0.065,0.09,-0.094,0.003,0.111,-0.041,-0.014,-0.036,-0.057,-0.087
-0.126,-0.052,0.074,0.089,-0.1,0.01,0.115,-0.044,-0.039,-0.05,-0.073,-0.095
-0.106,-0.038,0.068,0.072,-0.087,0.015,0.097,-0.04,0.003,-0.021,-0.055,-0.082
-0.128,-0.054,0.074,0.091,-0.101,0.01,0.175,0.033,-0.014,-0.052,-0.088,-0.104
-0.127,0.038,0.165,0.044,-0.146,0.102,0.272,0.132,0.093,0.035,-0.032,-0.085
-0.043,0.151,0.194,-0.054,-0.119,0.172,0.341,0.164,0.36,0.221,0.142,0.037
0.198,0.741,0.543,-0.47,-0.173,0.642,-0.444,-0.639,0.997,0.867,0.696,0.475
0.284,0.895,0.611,-0.59,-0.164,0.753,-1.297,-1.44,1.532,1.177,0.919,0.676
-0.045,0.09,0.135,-0.023,-0.09,0.112,-0.767,-1.109,0.528,0.213,0.154,0.138
-0.175,-0.109,0.066,0.142,-0.12,-0.022,-0.168,-0.482,-0.182,-0.147,-0.13,-0.107
-0.114,-0.023,0.091,0.069,-0.103,0.034,0.014,-0.141,0.0,-0.001,-0.039,-0.059
-0.123,-0.054,0.069,0.088,-0.096,0.008,0.108,-0.079,-0.047,-0.077,-0.093,-0.095
-0.101,-0.012,0.089,0.057,-0.095,0.038,0.097,-0.062,0.001,-0.02,-0.047,-0.072
-0.105,-0.032,0.073,0.069,-0.089,0.02,0.122,-0.043,-0.022,-0.053,-0.071,-0.092
-0.096,-0.007,0.089,0.051,-0.092,0.041,0.11,-0.042,-0.011,-0.029,-0.049,-0.082
-0.097,-0.01,0.087,0.053,-0.091,0.038,0.118,-0.023,-0.004,-0.036,-0.054,-0.082
-0.118,-0.011,0.108,0.064,-0.113,0.048,0.114,-0.025,-0.012,-0.033,-0.048,-0.075
-0.12,-0.02,0.099,0.07,-0.109,0.04,0.114,-0.013,0.003,-0.024,-0.042,-0.069
-0.108,-0.013,0.095,0.06,-0.101,0.04,0.117,-0.012,-0.003,-0.03,-0.044,-0.066
-0.097,-0.004,0.093,0.05,-0.095,0.044,0.119,0.009,0.017,-0.018,-0.033,-0.056
-0.085,-0.001,0.084,0.042,-0.084,0.041,0.121,0.029,0.012,-0.024,-0.037,-0.056
-0.081,0.008,0.089,0.036,-0.085,0.049,0.12,0.054,0.035,-0.013,-0.023,-0.044
-0.075,0.014,0.089,0.031,-0.082,0.051,0.119,0.103,0.055,-0.002,-0.016,-0.04
-0.067,0.024,0.092,0.021,-0.08,0.058,0.124,0.158,0.083,0.027,-0.005,-0.028
-0.045,0.05,0.095,-0.003,-0.07,0.072,0.15,0.246,0.132,0.048,0.014,-0.025
-0.007,0.088,0.095,-0.041,-0.051,0.091,0.156,0.343,0.202,0.088,0.055,0.001
0.044,0.139,0.095,-0.092,-0.026,0.117,0.148,0.438,0.298,0.174,0.128,0.062
0.088,0.207,0.119,-0.148,-0.015,0.163,0.145,0.506,0.396,0.264,0.204,0.111
0.106,0.266,0.16,-0.186,-0.027,0.213,0.133,0.504,0.478,0.345,0.263,0.161
0.125,0.31,0.186,-0.218,-0.031,0.248,0.113,0.476,0.508,0.38,0.298,0.176
0.122,0.318,0.196,-0.22,-0.038,0.257,0.109,0.429,0.502,0.374,0.301,0.165
0.102,0.295,0.193,-0.199,-0.046,0.244,0.115,0.344,0.458,0.336,0.26,0.152
0.053,0.244,0.191,-0.149,-0.069,0.217,0.119,0.247,0.358,0.255,0.187,0.1
-0.01,0.174,0.185,-0.082,-0.098,0.179,0.118,0.16,0.26,0.171,0.118,0.044
-0.039,0.119,0.158,-0.04,-0.099,0.138,0.114,0.086,0.178,0.101,0.064,0.011
-0.061,0.077,0.138,-0.008,-0.1,0.107,0.115,0.031,0.118,0.049,0.028,-0.024
-0.073,0.048,0.122,0.012,-0.098,0.085,0.111,-0.002,0.084,0.014,-0.001,-0.051
-0.069,0.039,0.107,0.015,-0.088,0.073,0.11,-0.028,0.071,0.002,-0.02,-0.049
-0.068,0.036,0.104,0.016,-0.087,0.07,0.11,-0.045,0.068,-0.004,-0.028,-0.056
-0.069,0.033,0.102,0.018,-0.086,0.067,0.105,-0.047,0.062,-0.011,-0.035,-0.067
-0.07,0.028,0.099,0.021,-0.085,0.064,0.102,-0.044,0.057,-0.017,-0.035,-0.064
-0.071,0.025,0.096,0.023,-0.084,0.06,0.098,-0.041,0.051,-0.024,-0.035,-0.068
-0.066,0.029,0.095,0.018,-0.08,0.061,0.094,-0.038,0.054,-0.022,-0.035,-0.07
-0.059,0.03,0.089,0.015,-0.074,0.06,0.091,-0.036,0.061,-0.019,-0.035,-0.07
-0.068,0.032,0.1,0.018,-0.084,0.066,0.087,-0.033,0.067,-0.016,-0.035,-0.067
-0.077,0.035,0.113,0.021,-0.096,0.073,0.085,-0.03,0.074,-0.013,-0.031,-0.062
-0.072,0.036,0.108,0.018,-0.09,0.071,0.085,-0.03,0.075,-0.011,-0.03,-0.059
-0.066,0.041,0.107,0.012,-0.086,0.073,0.085,-0.031,0.075,-0.008,-0.03,-0.056
-0.059,0.044,0.103,0.007,-0.081,0.074,0.085,-0.03,0.075,-0.005,-0.03,-0.05
-0.065,0.048,0.114,0.008,-0.09,0.081,0.085,-0.03,0.075,-0.005,-0.03,-0.053
-0.081,0.053,0.134,0.014,-0.108,0.093,0.08,-0.033,0.075,-0.005,-0.031,-0.061
-0.082,0.055,0.137,0.013,-0.11,0.096,0.08,-0.037,0.074,-0.005,-0.035,-0.06
-0.079,0.055,0.133,0.011,-0.106,0.094,0.079,-0.049,0.067,-0.005,-0.035,-0.059
-0.075,0.055,0.13,0.01,-0.103,0.092,0.074,-0.057,0.061,-0.008,-0.037,-0.056
-0.072,0.055,0.127,0.008,-0.1,0.091,0.076,-0.059,0.054,-0.013,-0.041,-0.054
-0.067,0.055,0.122,0.006,-0.095,0.088,0.072,-0.06,0.047,-0.016,-0.04,-0.057
-0.065,0.055,0.12,0.005,-0.093,0.087,0.07,-0.063,0.041,-0.019,-0.04,-0.061
-0.073,0.052,0.124,0.01,-0.099,0.087,0.07,-0.072,0.036,-0.024,-0.04,-0.066
-0.078,0.049,0.127,0.014,-0.103,0.088,0.067,-0.074,0.033,-0.024,-0.04,-0.07
-0.08,0.05,0.13,0.015,-0.105,0.09,0.064,-0.077,0.029,-0.02,-0.04,-0.067
-0.085,0.05,0.134,0.017,-0.11,0.091,0.067,-0.08,0.025,-0.018,-0.041,-0.059
-0.084,0.05,0.133,0.017,-0.108,0.091,0.069,-0.075,0.021,-0.015,-0.039,-0.053
-0.075,0.052,0.127,0.011,-0.101,0.089,0.07,-0.065,0.02,-0.011,-0.035,-0.046
-0.068,0.055,0.123,0.006,-0.096,0.089,0.074,-0.054,0.032,-0.01,-0.035,-0.039
-0.039,0.079,0.118,-0.02,-0.079,0.099,0.073,-0.047,0.052,-0.01,-0.032,-0.036
-0.02,0.094,0.114,-0.038,-0.067,0.104,0.083,-0.024,0.058,-0.011,-0.03,-0.041
-0.027,0.083,0.11,-0.028,-0.069,0.096,0.065,-0.031,0.049,-0.009,-0.03,-0.041
-0.044,0.071,0.115,-0.014,-0.08,0.093,0.039,-0.065,0.031,-0.011,-0.034,-0.041
-0.052,0.072,0.124,-0.01,-0.088,0.098,0.039,-0.097,0.025,-0.01,-0.035,-0.038
-0.061,0.064,0.125,-0.002,-0.093,0.094,0.041,-0.117,0.023,-0.016,-0.039,-0.047
-0.086,0.067,0.153,0.01,-0.12,0.109,0.034,-0.123,0.015,-0.021,-0.042,-0.061
-0.087,0.059,0.146,0.014,-0.116,0.102,0.035,-0.118,0.02,-0.019,-0.052,-0.068
-0.089,0.059,0.149,0.014,-0.119,0.104,0.037,-0.12,0.002,-0.033,-0.059,-0.073
-0.074,0.068,0.142,0.002,-0.108,0.105,0.029,-0.122,0.022,-0.021,-0.049,-0.066
-0.081,0.057,0.138,0.012,-0.11,0.097,0.045,-0.113,0.005,-0.038,-0.063,-0.08
-0.065,0.081,0.145,-0.008,-0.105,0.113,0.021,-0.12,0.025,-0.006,-0.045,-0.069
-0.067,0.051,0.119,0.007,-0.093,0.085,0.091,-0.047,0.008,-0.028,-0.062,-0.08
-0.102,0.114,0.216,-0.006,-0.159,0.164,0.188,0.053,0.066,0.007,-0.009,-0.059
-0.035,0.189,0.225,-0.077,-0.13,0.207,0.304,0.126,0.299,0.159,0.09,0.016
0.184,0.685,0.501,-0.435,-0.159,0.593,-0.277,-0.434,0.836,0.698,0.562,0.379
0.39,1.097,0.708,-0.743,-0.159,0.902,-1.336,-1.347,1.628,1.287,1.041,0.765
0.114,0.374,0.26,-0.244,-0.073,0.317,-1.059,-1.272,0.916,0.516,0.399,0.339
-0.106,-0.061,0.044,0.083,-0.075,-0.009,-0.307,-0.627,-0.123,-0.14,-0.095,-0.049
-0.058,0.038,0.097,0.01,-0.077,0.067,-0.077,-0.221,-0.025,0.015,-0.017,-0.016
-0.094,0.024,0.118,0.035,-0.107,0.071,0.028,-0.109,-0.044,-0.039,-0.072,-0.054
-0.063,0.065,0.128,-0.001,-0.096,0.097,0.029,-0.091,-0.034,-0.001,-0.029,-0.028
-0.07,0.041,0.11,0.014,-0.09,0.075,0.051,-0.059,-0.017,-0.011,-0.038,-0.035
-0.063,0.054,0.117,0.004,-0.09,0.085,0.042,-0.062,-0.031,-0.008,-0.025,-0.029
-0.055,0.05,0.105,0.003,-0.08,0.077,0.05,-0.046,-0.003,0.006,-0.017,-0.022
-0.057,0.048,0.105,0.004,-0.081,0.076,0.058,-0.043,-0.02,-0.01,-0.025,-0.033
-0.036,0.058,0.094,-0.011,-0.065,0.076,0.052,-0.033,0.006,0.002,-0.014,-0.027
-0.054,0.057,0.111,-0.002,-0.083,0.084,0.058,-0.023,-0.002,-0.011,-0.019,-0.028
-0.052,0.066,0.118,-0.007,-0.085,0.092,0.053,-0.011,0.014,0.0,-0.012,-0.021
-0.04,0.065,0.105,-0.012,-0.073,0.084,0.056,0.003,0.016,-0.008,-0.015,-0.019
-0.031,0.071,0.102,-0.021,-0.066,0.087,0.057,0.023,0.027,-0.003,-0.003,-0.015
-0.018,0.072,0.091,-0.027,-0.055,0.081,0.064,0.074,0.043,0.006,0.002,-0.01
-0.009,0.078,0.087,-0.035,-0.048,0.082,0.077,0.131,0.064,0.024,0.008,-0.002
0.01,0.096,0.085,-0.054,-0.038,0.09,0.095,0.215,0.111,0.054,0.035,0.007
0.019,0.126,0.107,-0.072,-0.045,0.116,0.109,0.319,0.167,0.093,0.073,0.038
0.061,0.171,0.111,-0.116,-0.025,0.141,0.116,0.418,0.256,0.169,0.124,0.08
0.135,0.235,0.1,-0.185,0.017,0.167,0.108,0.489,0.353,0.248,0.189,0.13
0.155,0.296,0.142,-0.226,0.006,0.219,0.098,0.509,0.426,0.321,0.261,0.183
0.177,0.338,0.162,-0.258,0.007,0.25,0.077,0.491,0.466,0.37,0.309,0.219
0.168,0.352,0.184,-0.26,-0.008,0.267,0.053,0.447,0.466,0.367,0.318,0.224
0.127,0.337,0.21,-0.232,-0.042,0.273,0.05,0.37,0.418,0.346,0.294,0.196
0.105,0.291,0.186,-0.199,-0.04,0.238,0.05,0.272,0.333,0.281,0.225,0.151
0.073,0.223,0.15,-0.148,-0.039,0.186,0.049,0.178,0.242,0.189,0.155,0.099
0.045,0.163,0.118,-0.104,-0.037,0.141,0.051,0.094,0.161,0.119,0.102,0.061
0.002,0.108,0.106,-0.055,-0.052,0.107,0.049,0.033,0.099,0.072,0.055,0.031
-0.023,0.072,0.096,-0.025,-0.06,0.084,0.046,0.002,0.065,0.046,0.024,0.009
-0.028,0.059,0.086,-0.016,-0.057,0.072,0.043,-0.015,0.052,0.031,0.014,0.003
-0.038,0.045,0.082,-0.004,-0.06,0.063,0.04,-0.025,0.046,0.03,0.013,0.0
-0.033,0.04,0.073,-0.003,-0.053,0.056,0.038,-0.038,0.042,0.03,0.009,-0.003
-0.023,0.038,0.06,-0.008,-0.042,0.049,0.034,-0.043,0.038,0.025,0.007,-0.008
-0.018,0.035,0.052,-0.009,-0.035,0.043,0.039,-0.037,0.032,0.025,0.005,-0.01
-0.014,0.031,0.046,-0.009,-0.03,0.038,0.042,-0.033,0.03,0.026,0.008,-0.006
-0.009,0.03,0.039,-0.01,-0.024,0.034,0.04,-0.028,0.038,0.03,0.013,-0.003
0.001,0.033,0.033,-0.017,-0.017,0.033,0.036,-0.024,0.043,0.03,0.016,0.0
0.011,0.036,0.025,-0.024,-0.007,0.03,0.036,-0.019,0.05,0.03,0.019,0.002
-0.003,0.039,0.042,-0.018,-0.023,0.04,0.046,-0.016,0.054,0.034,0.024,0.006
-0.015,0.042,0.056,-0.014,-0.036,0.049,0.044,-0.015,0.049,0.041,0.024,0.002
-0.012,0.045,0.056,-0.017,-0.035,0.05,0.039,-0.015,0.045,0.044,0.02,0.0
-0.016,0.045,0.061,-0.014,-0.039,0.052,0.037,-0.015,0.043,0.04,0.02,0.0
-0.012,0.047,0.059,-0.017,-0.036,0.053,0.031,-0.015,0.038,0.037,0.02,0.0
-0.01,0.051,0.06,-0.021,-0.035,0.055,0.031,-0.018,0.035,0.035,0.02,0.0
-0.01,0.05,0.06,-0.019,-0.035,0.055,0.036,-0.027,0.036,0.031,0.02,-0.005
-0.013,0.047,0.06,-0.017,-0.037,0.053,0.035,-0.038,0.031,0.03,0.017,-0.005
-0.013,0.042,0.055,-0.015,-0.034,0.048,0.031,-0.044,0.024,0.026,0.012,-0.005
-0.009,0.039,0.048,-0.016,-0.028,0.044,0.029,-0.047,0.018,0.02,0.009,-0.005
-0.009,0.036,0.044,-0.014,-0.027,0.04,0.026,-0.05,0.01,0.015,0.006,-0.004
-0.006,0.031,0.037,-0.013,-0.022,0.034,0.025,-0.053,0.005,0.009,0.002,-0.008
-0.003,0.03,0.033,-0.013,-0.018,0.031,0.03,-0.055,0.0,0.004,-0.002,-0.01
0.002,0.03,0.029,-0.016,-0.014,0.029,0.038,-0.055,-0.004,-0.001,-0.005,-0.01
-0.003,0.03,0.033,-0.014,-0.018,0.031,0.038,-0.058,-0.009,-0.006,-0.008,-0.01
-0.019,0.03,0.049,-0.005,-0.034,0.039,0.035,-0.061,-0.013,-0.011,-0.01,-0.01
-0.019,0.03,0.049,-0.006,-0.034,0.039,0.035,-0.059,-0.018,-0.015,-0.014,-0.01
-0.013,0.03,0.043,-0.009,-0.028,0.036,0.032,-0.056,-0.02,-0.02,-0.015,-0.006
-0.009,0.034,0.042,-0.013,-0.026,0.037,0.029,-0.049,-0.02,-0.025,-0.019,-0.005
0.001,0.035,0.034,-0.018,-0.017,0.034,0.032,-0.045,-0.024,-0.021,-0.02,-0.006
-0.001,0.037,0.038,-0.019,-0.02,0.038,0.028,-0.041,-0.025,-0.014,-0.012,-0.005
0.001,0.04,0.039,-0.021,-0.019,0.039,0.034,-0.037,-0.025,-0.007,-0.008,-0.006
0.024,0.04,0.016,-0.033,0.004,0.028,0.042,-0.031,-0.008,-0.001,-0.002,-0.002
0.063,0.052,-0.011,-0.058,0.037,0.02,0.048,-0.013,0.019,0.007,0.004,0.0
0.064,0.058,-0.007,-0.061,0.035,0.025,0.081,0.004,0.015,0.007,0.009,0.001
0.03,0.049,0.019,-0.04,0.005,0.034,0.061,-0.006,0.003,-0.011,0.007,0.006
0.024,0.04,0.016,-0.032,0.004,0.027,0.029,-0.043,-0.013,-0.031,-0.007,0.004
0.031,0.035,0.004,-0.033,0.013,0.02,0.029,-0.065,-0.024,-0.03,-0.011,0.001
0.014,0.023,0.009,-0.018,0.002,0.015,0.032,-0.054,-0.035,-0.038,-0.024,-0.009
-0.01,0.024,0.034,-0.007,-0.022,0.029,0.028,-0.072,-0.036,-0.041,-0.03,-0.013
-0.011,0.015,0.027,-0.002,-0.019,0.021,0.032,-0.077,-0.032,-0.048,-0.039,-0.021
-0.012,0.018,0.03,-0.003,-0.022,0.024,0.03,-0.083,-0.041,-0.054,-0.052,-0.029
-0.01,0.012,0.022,-0.001,-0.016,0.017,0.027,-0.079,-0.026,-0.043,-0.045,-0.025
-0.012,0.008,0.019,0.002,-0.015,0.013,0.038,-0.077,-0.047,-0.06,-0.058,-0.029
-0.023,0.018,0.041,0.002,-0.032,0.029,0.016,-0.09,-0.015,-0.036,-0.039,-0.02
-0.034,0.013,0.047,0.01,-0.041,0.029,0.095,-0.003,-0.029,-0.064,-0.063,-0.042
-0.047,0.089,0.136,-0.021,-0.092,0.112,0.201,0.118,0.075,0.012,-0.012,-0.011
0.027,0.19,0.163,-0.109,-0.068,0.176,0.298,0.159,0.292,0.174,0.136,0.081
0.286,0.758,0.472,-0.522,-0.093,0.615,-0.395,-0.508,0.873,0.785,0.693,0.523
0.416,0.991,0.575,-0.704,-0.08,0.783,-1.371,-1.306,1.493,1.232,1.068,0.842
0.142,0.237,0.094,-0.189,0.023,0.165,-0.955,-1.119,0.612,0.343,0.306,0.288
-0.044,-0.05,-0.005,0.047,-0.019,-0.028,-0.258,-0.53,-0.171,-0.154,-0.122,-0.033
-0.028,0.013,0.04,0.007,-0.034,0.026,-0.051,-0.154,-0.031,-0.021,-0.023,0.03
-0.046,-0.025,0.021,0.035,-0.033,-0.002,0.043,-0.077,-0.08,-0.089,-0.077,-0.019
-0.025,0.02,0.045,0.002,-0.035,0.032,0.033,-0.056,-0.05,-0.033,-0.035,0.001
-0.016,0.004,0.02,0.006,-0.018,0.012,0.061,-0.026,-0.062,-0.055,-0.053,-0.022
-0.011,0.021,0.032,-0.005,-0.022,0.026,0.053,-0.034,-0.063,-0.042,-0.037,-0.017
-0.005,0.012,0.018,-0.004,-0.012,0.015,0.056,-0.015,-0.054,-0.044,-0.036,-0.014
-0.005,0.015,0.02,-0.005,-0.013,0.017,0.055,-0.018,-0.06,-0.049,-0.037,-0.018
0.002,0.017,0.015,-0.01,-0.007,0.016,0.054,-0.003,-0.037,-0.04,-0.027,-0.01
-0.002,0.012,0.014,-0.006,-0.008,0.013,0.057,0.007,-0.042,-0.05,-0.032,-0.012
0.005,0.021,0.016,-0.014,-0.006,0.019,0.053,0.022,-0.021,-0.036,-0.022,-0.008
0.008,0.021,0.014,-0.015,-0.003,0.017,0.062,0.044,-0.018,-0.034,-0.027,-0.007
0.017,0.029,0.012,-0.024,0.002,0.02,0.067,0.073,0.0,-0.021,-0.014,0.004
0.033,0.032,-0.001,-0.032,0.017,0.015,0.078,0.122,0.015,-0.015,-0.006,0.008
0.043,0.037,-0.007,-0.04,0.025,0.015,0.084,0.181,0.043,0.001,0.005,0.016
0.074,0.055,-0.018,-0.064,0.046,0.018,0.101,0.273,0.088,0.026,0.023,0.032
0.097,0.073,-0.024,-0.085,0.06,0.024,0.124,0.378,0.141,0.063,0.058,0.058
0.135,0.123,-0.012,-0.129,0.073,0.055,0.123,0.481,0.225,0.127,0.117,0.105
0.195,0.193,-0.002,-0.194,0.098,0.095,0.108,0.549,0.307,0.205,0.19,0.163
0.23,0.25,0.021,-0.24,0.104,0.135,0.095,0.553,0.371,0.284,0.264,0.217
0.242,0.298,0.056,-0.271,0.093,0.177,0.079,0.54,0.405,0.327,0.305,0.245
0.218,0.293,0.075,-0.256,0.071,0.184,0.062,0.493,0.402,0.332,0.307,0.252
0.204,0.279,0.075,-0.241,0.064,0.176,0.054,0.405,0.36,0.307,0.277,0.231
0.185,0.248,0.064,-0.217,0.06,0.156,0.055,0.305,0.285,0.233,0.222,0.179
0.118,0.175,0.057,-0.147,0.03,0.116,0.055,0.206,0.207,0.15,0.147,0.131
0.073,0.116,0.043,-0.095,0.015,0.079,0.055,0.133,0.133,0.086,0.08,0.079
0.05,0.072,0.022,-0.061,0.014,0.047,0.056,0.076,0.072,0.037,0.034,0.038
0.034,0.039,0.005,-0.036,0.014,0.022,0.053,0.033,0.038,0.008,0.01,0.017
0.034,0.023,-0.011,-0.028,0.022,0.005,0.05,0.008,0.022,-0.003,0.005,0.009
0.036,0.015,-0.021,-0.025,0.029,-0.003,0.047,-0.001,0.013,-0.007,0.0,0.011
0.033,0.007,-0.026,-0.02,0.029,-0.009,0.045,0.001,0.014,-0.013,-0.005,0.007
0.031,-0.001,-0.032,-0.015,0.032,-0.017,0.042,-0.003,0.015,-0.019,-0.012,0.005
0.03,-0.008,-0.038,-0.011,0.034,-0.023,0.039,-0.005,0.015,-0.024,-0.014,0.005
0.03,-0.01,-0.04,-0.01,0.035,-0.025,0.044,-0.005,0.015,-0.021,-0.01,0.009
0.03,-0.01,-0.04,-0.01,0.035,-0.025,0.045,-0.001,0.015,-0.015,-0.01,0.01
0.03,-0.01,-0.04,-0.01,0.035,-0.025,0.046,0.006,0.02,-0.01,-0.007,0.01
0.03,-0.01,-0.04,-0.01,0.035,-0.025,0.05,0.012,0.028,-0.004,-0.005,0.014
0.03,-0.01,-0.04,-0.01,0.035,-0.025,0.05,0.019,0.035,0.002,-0.005,0.015
0.03,-0.006,-0.035,-0.012,0.033,-0.02,0.054,0.026,0.035,0.004,-0.009,0.014
0.03,-0.005,-0.035,-0.012,0.033,-0.02,0.055,0.029,0.035,-0.001,-0.01,0.01
0.028,-0.005,-0.034,-0.011,0.031,-0.019,0.055,0.022,0.035,-0.004,-0.01,0.01
0.025,-0.005,-0.03,-0.01,0.028,-0.017,0.06,0.016,0.035,-0.007,-0.015,0.008
0.025,-0.005,-0.029,-0.01,0.028,-0.017,0.06,0.009,0.035,-0.012,-0.015,0.004
0.025,-0.007,-0.033,-0.009,0.029,-0.02,0.058,0.002,0.03,-0.015,-0.016,0.005
0.024,-0.011,-0.035,-0.006,0.03,-0.022,0.055,-0.004,0.022,-0.018,-0.02,0.001
0.025,-0.01,-0.035,-0.007,0.03,-0.022,0.052,-0.009,0.016,-0.023,-0.022,0.0
0.025,-0.014,-0.038,-0.005,0.032,-0.026,0.05,-0.015,0.008,-0.026,-0.025,0.0
0.025,-0.015,-0.04,-0.005,0.033,-0.027,0.046,-0.02,0.001,-0.024,-0.028,0.0
0.025,-0.015,-0.04,-0.005,0.033,-0.027,0.045,-0.026,-0.006,-0.033,-0.031,0.001
0.014,-0.02,-0.034,0.003,0.024,-0.026,0.045,-0.031,-0.012,-0.041,-0.03,-0.002
0.026,-0.02,-0.046,-0.002,0.036,-0.033,0.045,-0.036,-0.015,-0.04,-0.03,-0.005
0.037,-0.02,-0.057,-0.008,0.047,-0.038,0.045,-0.04,-0.02,-0.045,-0.03,-0.008
0.029,-0.02,-0.049,-0.004,0.039,-0.035,0.045,-0.039,-0.025,-0.045,-0.03,-0.01
0.029,-0.019,-0.048,-0.005,0.039,-0.034,0.045,-0.043,-0.021,-0.048,-0.03,-0.013
0.02,-0.023,-0.043,0.002,0.032,-0.033,0.044,-0.045,-0.02,-0.051,-0.031,-0.016
0.014,-0.025,-0.04,0.005,0.028,-0.032,0.04,-0.045,-0.02,-0.049,-0.038,-0.011
0.019,-0.025,-0.044,0.003,0.032,-0.034,0.04,-0.049,-0.016,-0.05,-0.044,-0.01
0.017,-0.028,-0.045,0.006,0.031,-0.036,0.038,-0.05,-0.014,-0.049,-0.049,-0.01
0.014,-0.031,-0.045,0.009,0.03,-0.037,0.034,-0.05,-0.017,-0.052,-0.05,-0.006
0.016,-0.029,-0.045,0.007,0.03,-0.037,0.035,-0.05,-0.02,-0.055,-0.05,-0.004
0.02,-0.026,-0.045,0.003,0.033,-0.035,0.035,-0.05,-0.02,-0.059,-0.05,-0.007
0.02,-0.025,-0.045,0.003,0.033,-0.035,0.035,-0.049,-0.022,-0.06,-0.05,-0.01
0.021,-0.024,-0.044,0.002,0.033,-0.034,0.035,-0.044,-0.026,-0.06,-0.049,-0.013
0.042,-0.02,-0.063,-0.011,0.053,-0.042,0.035,-0.04,-0.025,-0.06,-0.043,-0.015
0.053,-0.019,-0.073,-0.017,0.063,-0.046,0.036,-0.037,-0.022,-0.061,-0.038,-0.019
0.04,-0.028,-0.068,-0.006,0.054,-0.048,0.035,-0.032,-0.016,-0.059,-0.032,-0.02
0.042,-0.03,-0.072,-0.006,0.057,-0.051,0.043,-0.031,-0.013,-0.051,-0.026,-0.017
0.054,-0.014,-0.067,-0.02,0.061,-0.04,0.048,-0.018,-0.008,-0.043,-0.021,-0.013
0.069,-0.005,-0.074,-0.032,0.072,-0.039,0.056,0.011,0.016,-0.043,-0.023,-0.01
0.084,0.009,-0.075,-0.047,0.079,-0.032,0.073,0.035,0.023,-0.047,-0.026,-0.011
0.091,0.018,-0.072,-0.054,0.081,-0.027,0.046,0.026,0.006,-0.047,-0.024,-0.007
0.099,0.004,-0.095,-0.051,0.097,-0.046,0.02,-0.015,-0.011,-0.054,-0.026,-0.006
0.082,-0.011,-0.092,-0.035,0.087,-0.051,0.019,-0.045,-0.022,-0.051,-0.024,-0.003
0.037,-0.028,-0.065,-0.004,0.052,-0.046,0.022,-0.051,-0.035,-0.06,-0.034,-0.011
0.006,-0.031,-0.038,0.013,0.022,-0.034,0.017,-0.065,-0.037,-0.059,-0.041,-0.017
-0.007,-0.047,-0.04,0.027,0.017,-0.043,0.023,-0.06,-0.038,-0.062,-0.048,-0.027
-0.011,-0.039,-0.028,0.025,0.009,-0.034,0.017,-0.062,-0.039,-0.058,-0.045,-0.031
-0.008,-0.037,-0.03,0.023,0.011,-0.033,0.015,-0.049,-0.024,-0.051,-0.042,-0.027
-0.011,-0.034,-0.023,0.023,0.006,-0.028,0.018,-0.048,-0.04,-0.06,-0.052,-0.037
-0.008,-0.023,-0.015,0.016,0.004,-0.019,0.019,-0.045,-0.009,-0.035,-0.035,-0.028
-0.01,-0.029,-0.019,0.02,0.005,-0.024,0.106,0.025,-0.03,-0.079,-0.058,-0.046
-0.002,0.053,0.055,-0.026,-0.028,0.054,0.207,0.17,0.094,0.015,0.009,-0.008
0.083,0.182,0.099,-0.132,-0.008,0.14,0.271,0.153,0.3,0.196,0.174,0.129
0.358,0.834,0.475,-0.596,-0.059,0.654,-0.535,-0.655,0.93,0.871,0.797,0.635
0.469,1.005,0.535,-0.737,-0.033,0.77,-1.415,-1.357,1.409,1.203,1.063,0.872
0.159,0.128,-0.031,-0.144,0.095,0.049,-0.871,-1.038,0.418,0.221,0.221,0.259
0.012,-0.108,-0.12,0.048,0.066,-0.114,-0.231,-0.454,-0.18,-0.167,-0.11,-0.025
0.038,-0.014,-0.052,-0.011,0.045,-0.033,-0.057,-0.121,-0.027,-0.043,-0.02,0.011
0.017,-0.061,-0.078,0.022,0.048,-0.069,0.032,-0.057,-0.093,-0.104,-0.077,-0.033
0.036,-0.018,-0.054,-0.008,0.045,-0.036,0.028,-0.031,-0.041,-0.043,-0.032,-0.003
0.03,-0.044,-0.074,0.007,0.052,-0.058,0.048,-0.009,-0.059,-0.079,-0.057,-0.023
0.039,-0.02,-0.059,-0.009,0.049,-0.039,0.035,-0.012,-0.042,-0.058,-0.038,-0.011
0.04,-0.029,-0.069,-0.005,0.055,-0.049,0.047,0.003,-0.036,-0.067,-0.043,-0.017
0.034,-0.029,-0.063,-0.002,0.048,-0.045,0.044,0.004,-0.039,-0.067,-0.035,-0.011
0.037,-0.029,-0.066,-0.004,0.051,-0.047,0.046,0.013,-0.027,-0.059,-0.029,-0.003
0.032,-0.033,-0.065,0.001,0.049,-0.049,0.051,0.021,-0.033,-0.06,-0.029,-0.002
0.032,-0.032,-0.064,0.001,0.048,-0.048,0.051,0.04,-0.022,-0.047,-0.019,0.008
0.028,-0.038,-0.066,0.005,0.048,-0.052,0.056,0.059,-0.017,-0.048,-0.019,0.01
0.034,-0.029,-0.064,-0.002,0.049,-0.046,0.059,0.09,0.011,-0.038,-0.006,0.017
0.063,-0.019,-0.081,-0.022,0.072,-0.05,0.069,0.135,0.032,-0.03,-0.001,0.024
0.081,-0.001,-0.082,-0.04,0.082,-0.042,0.079,0.202,0.055,-0.008,0.01,0.036
0.08,0.007,-0.073,-0.043,0.076,-0.033,0.097,0.297,0.093,0.016,0.026,0.045
0.105,0.037,-0.068,-0.071,0.087,-0.015,0.104,0.402,0.153,0.061,0.066,0.078
0.158,0.097,-0.061,-0.127,0.109,0.018,0.095,0.506,0.226,0.13,0.124,0.123
0.212,0.162,-0.049,-0.187,0.13,0.056,0.086,0.565,0.307,0.204,0.195,0.182
0.259,0.232,-0.027,-0.245,0.142,0.102,0.075,0.573,0.367,0.276,0.264,0.24
0.276,0.284,0.008,-0.28,0.134,0.146,0.06,0.551,0.393,0.321,0.297,0.264
0.259,0.3,0.041,-0.28,0.109,0.17,0.042,0.494,0.391,0.32,0.308,0.271
0.236,0.283,0.048,-0.26,0.094,0.165,0.031,0.413,0.357,0.292,0.285,0.245
0.204,0.24,0.035,-0.222,0.084,0.137,0.03,0.311,0.287,0.227,0.219,0.194
0.138,0.168,0.03,-0.153,0.054,0.098,0.03,0.208,0.206,0.145,0.143,0.142
0.088,0.099,0.011,-0.094,0.039,0.055,0.03,0.132,0.145,0.083,0.085,0.094
0.083,0.061,-0.021,-0.072,0.052,0.02,0.031,0.074,0.096,0.033,0.041,0.056
0.069,0.034,-0.035,-0.051,0.052,-0.001,0.028,0.032,0.054,0.004,0.006,0.023
0.059,0.012,-0.047,-0.035,0.053,-0.018,0.025,0.008,0.03,-0.02,-0.015,0.006
0.064,0.004,-0.06,-0.034,0.062,-0.028,0.022,-0.003,0.025,-0.04,-0.026,0.005
0.065,0.001,-0.065,-0.033,0.065,-0.031,0.02,-0.015,0.02,-0.04,-0.03,0.005
0.063,-0.002,-0.065,-0.03,0.064,-0.033,0.016,-0.023,0.014,-0.04,-0.03,0.001
0.058,-0.007,-0.065,-0.025,0.062,-0.036,0.015,-0.018,0.008,-0.04,-0.03,-0.001
0.055,-0.01,-0.065,-0.022,0.06,-0.037,0.018,-0.011,0.006,-0.04,-0.03,0.002
0.058,-0.007,-0.065,-0.025,0.062,-0.036,0.021,-0.004,0.013,-0.039,-0.03,0.005
0.073,-0.004,-0.077,-0.034,0.076,-0.04,0.024,0.003,0.017,-0.035,-0.027,0.008
0.077,-0.001,-0.078,-0.037,0.077,-0.039,0.027,0.009,0.023,-0.033,-0.024,0.01
0.072,0.002,-0.07,-0.037,0.071,-0.034,0.03,0.014,0.029,-0.03,-0.021,0.013
0.072,0.005,-0.066,-0.038,0.068,-0.03,0.03,0.015,0.034,-0.027,-0.018,0.015
0.063,0.004,-0.06,-0.033,0.061,-0.028,0.03,0.015,0.039,-0.024,-0.015,0.011
0.055,0.0,-0.055,-0.027,0.055,-0.027,0.03,0.015,0.04,-0.029,-0.016,0.01
0.048,-0.002,-0.05,-0.023,0.049,-0.026,0.03,0.015,0.04,-0.03,-0.022,0.01
0.041,-0.005,-0.047,-0.017,0.044,-0.026,0.027,0.014,0.04,-0.03,-0.028,0.01
0.035,-0.008,-0.043,-0.013,0.039,-0.026,0.024,0.008,0.04,-0.04,-0.034,0.01
0.029,-0.011,-0.04,-0.009,0.034,-0.025,0.025,0.001,0.039,-0.049,-0.039,0.009
0.025,-0.01,-0.035,-0.007,0.03,-0.022,0.025,-0.006,0.03,-0.051,-0.043,0.004
0.028,-0.01,-0.039,-0.009,0.034,-0.024,0.025,-0.013,0.021,-0.054,-0.046,0.001
0.036,-0.01,-0.046,-0.012,0.041,-0.027,0.024,-0.018,0.013,-0.056,-0.049,-0.002
0.035,-0.01,-0.045,-0.012,0.04,-0.027,0.02,-0.028,0.002,-0.062,-0.052,-0.007
0.035,-0.01,-0.045,-0.012,0.04,-0.027,0.02,-0.039,-0.004,-0.069,-0.054,-0.01
0.036,-0.011,-0.047,-0.012,0.042,-0.029,0.018,-0.04,-0.008,-0.076,-0.057,-0.014
0.03,-0.015,-0.046,-0.007,0.038,-0.03,0.014,-0.04,-0.011,-0.083,-0.06,-0.02
0.03,-0.015,-0.045,-0.007,0.038,-0.03,0.016,-0.045,-0.014,-0.089,-0.063,-0.02
0.03,-0.015,-0.045,-0.007,0.038,-0.03,0.011,-0.045,-0.019,-0.094,-0.065,-0.02
0.031,-0.015,-0.046,-0.008,0.039,-0.031,0.01,-0.046,-0.022,-0.097,-0.069,-0.02
0.047,-0.015,-0.062,-0.016,0.055,-0.038,0.01,-0.05,-0.025,-0.102,-0.07,-0.02
0.047,-0.019,-0.066,-0.014,0.057,-0.042,0.005,-0.05,-0.025,-0.105,-0.072,-0.02
0.041,-0.02,-0.061,-0.01,0.051,-0.04,0.005,-0.05,-0.025,-0.106,-0.075,-0.024
0.039,-0.02,-0.06,-0.01,0.05,-0.04,0.006,-0.05,-0.025,-0.109,-0.076,-0.031
0.031,-0.025,-0.055,-0.003,0.043,-0.04,0.011,-0.05,-0.025,-0.11,-0.085,-0.036
0.029,-0.025,-0.054,-0.002,0.042,-0.04,0.014,-0.046,-0.028,-0.113,-0.094,-0.04
0.026,-0.025,-0.051,0.0,0.039,-0.037,0.017,-0.045,-0.032,-0.116,-0.095,-0.039
0.024,-0.025,-0.049,0.001,0.037,-0.036,0.022,-0.045,-0.035,-0.119,-0.095,-0.043
0.02,-0.025,-0.045,0.003,0.033,-0.035,0.025,-0.04,-0.038,-0.122,-0.095,-0.045
0.023,-0.025,-0.048,0.002,0.036,-0.036,0.029,-0.039,-0.042,-0.125,-0.095,-0.045
0.042,-0.025,-0.067,-0.009,0.055,-0.046,0.03,-0.042,-0.045,-0.126,-0.096,-0.049
0.043,-0.025,-0.069,-0.009,0.056,-0.047,0.03,-0.045,-0.045,-0.129,-0.105,-0.05
0.041,-0.021,-0.062,-0.009,0.051,-0.042,0.03,-0.048,-0.045,-0.13,-0.111,-0.05
0.039,-0.02,-0.059,-0.01,0.049,-0.039,0.03,-0.05,-0.045,-0.127,-0.106,-0.049
0.034,-0.02,-0.054,-0.006,0.044,-0.037,0.031,-0.053,-0.046,-0.125,-0.105,-0.044
0.034,-0.015,-0.049,-0.01,0.042,-0.031,0.03,-0.055,-0.041,-0.121,-0.104,-0.038
0.037,-0.015,-0.052,-0.011,0.045,-0.033,0.03,-0.049,-0.031,-0.118,-0.101,-0.035
0.058,-0.013,-0.071,-0.022,0.065,-0.042,0.03,-0.033,-0.025,-0.115,-0.099,-0.03
0.089,0.009,-0.08,-0.048,0.084,-0.035,0.039,-0.011,-0.014,-0.114,-0.101,-0.025
0.098,0.015,-0.083,-0.056,0.09,-0.033,0.064,0.015,-0.013,-0.116,-0.105,-0.028
0.093,0.005,-0.088,-0.049,0.091,-0.041,0.056,0.027,-0.012,-0.112,-0.105,-0.032
0.084,-0.006,-0.09,-0.039,0.087,-0.047,0.03,-0.007,-0.03,-0.127,-0.11,-0.044
0.07,-0.014,-0.084,-0.027,0.077,-0.048,0.017,-0.052,-0.067,-0.135,-0.11,-0.045
0.058,-0.025,-0.083,-0.016,0.07,-0.054,0.017,-0.056,-0.075,-0.136,-0.113,-0.05
0.041,-0.032,-0.072,-0.004,0.057,-0.052,0.012,-0.063,-0.077,-0.142,-0.118,-0.051
0.027,-0.042,-0.069,0.008,0.048,-0.055,0.007,-0.059,-0.076,-0.139,-0.122,-0.056
0.01,-0.051,-0.061,0.021,0.036,-0.056,0.009,-0.065,-0.086,-0.158,-0.137,-0.073
0.007,-0.045,-0.052,0.02,0.029,-0.048,0.002,-0.068,-0.069,-0.147,-0.132,-0.065
-0.006,-0.059,-0.053,0.033,0.024,-0.056,0.02,-0.058,-0.083,-0.165,-0.151,-0.08
-0.01,-0.047,-0.036,0.029,0.013,-0.041,0.0,-0.08,-0.068,-0.144,-0.14,-0.067
-0.01,-0.064,-0.054,0.037,0.023,-0.059,0.068,-0.004,-0.076,-0.165,-0.155,-0.09
-0.006,0.005,0.011,0.001,-0.009,0.008,0.154,0.122,-0.008,-0.131,-0.114,-0.081
0.054,0.084,0.03,-0.069,0.012,0.056,0.279,0.252,0.173,0.007,-0.017,0.0
0.255,0.551,0.295,-0.404,-0.02,0.423,-0.136,-0.269,0.591,0.479,0.427,0.368
0.472,1.08,0.608,-0.776,-0.068,0.843,-1.222,-1.213,1.307,1.134,1.021,0.844
0.24,0.408,0.168,-0.324,0.036,0.288,-1.158,-1.221,0.745,0.472,0.425,0.429
-0.029,-0.162,-0.133,0.096,0.052,-0.147,-0.391,-0.639,-0.184,-0.283,-0.224,-0.086
0.003,-0.055,-0.058,0.026,0.031,-0.056,-0.115,-0.196,-0.111,-0.156,-0.134,-0.067
0.0,-0.081,-0.081,0.04,0.041,-0.081,0.008,-0.054,-0.106,-0.193,-0.18,-0.095
0.012,-0.051,-0.063,0.02,0.038,-0.057,0.008,-0.045,-0.11,-0.17,-0.16,-0.081
0.015,-0.063,-0.078,0.024,0.046,-0.07,0.018,-0.011,-0.11,-0.172,-0.164,-0.08
0.018,-0.058,-0.076,0.02,0.047,-0.067,0.024,-0.018,-0.126,-0.177,-0.17,-0.083
0.028,-0.051,-0.079,0.011,0.054,-0.064,0.025,0.0,-0.105,-0.162,-0.158,-0.075
0.023,-0.06,-0.084,0.019,0.054,-0.072,0.038,0.004,-0.123,-0.177,-0.172,-0.079
0.027,-0.055,-0.082,0.014,0.055,-0.068,0.035,0.015,-0.102,-0.157,-0.159,-0.071
0.024,-0.064,-0.088,0.02,0.056,-0.076,0.044,0.026,-0.115,-0.166,-0.169,-0.078
0.029,-0.058,-0.087,0.015,0.058,-0.073,0.042,0.039,-0.105,-0.154,-0.162,-0.073
0.025,-0.067,-0.092,0.021,0.059,-0.079,0.048,0.055,-0.098,-0.155,-0.165,-0.076
0.027,-0.065,-0.092,0.019,0.06,-0.078,0.049,0.08,-0.088,-0.15,-0.155,-0.07
0.041,-0.061,-0.102,0.01,0.072,-0.081,0.052,0.125,-0.068,-0.145,-0.146,-0.062
0.058,-0.047,-0.105,-0.005,0.081,-0.076,0.059,0.182,-0.045,-0.135,-0.14,-0.054
0.072,-0.032,-0.105,-0.02,0.089,-0.068,0.076,0.266,-0.004,-0.103,-0.12,-0.039
0.106,-0.01,-0.116,-0.047,0.111,-0.063,0.091,0.366,0.044,-0.072,-0.087,-0.006
0.144,0.034,-0.11,-0.089,0.127,-0.038,0.083,0.474,0.106,-0.016,-0.032,0.039
0.18,0.093,-0.087,-0.136,0.133,0.003,0.074,0.56,0.189,0.062,0.037,0.084
0.218,0.159,-0.059,-0.188,0.139,0.049,0.068,0.588,0.257,0.132,0.101,0.136
0.24,0.215,-0.025,-0.227,0.133,0.095,0.046,0.579,0.297,0.191,0.156,0.181
0.25,0.241,-0.008,-0.245,0.129,0.116,0.028,0.539,0.314,0.214,0.172,0.204
0.247,0.236,-0.011,-0.241,0.129,0.112,0.03,0.459,0.291,0.2,0.152,0.189
0.207,0.198,-0.008,-0.203,0.107,0.095,0.034,0.362,0.231,0.149,0.107,0.139
0.15,0.134,-0.016,-0.142,0.083,0.058,0.036,0.264,0.154,0.071,0.028,0.083
0.105,0.067,-0.038,-0.086,0.071,0.015,0.04,0.178,0.075,-0.002,-0.035,0.035
0.061,0.015,-0.046,-0.038,0.054,-0.015,0.04,0.114,0.009,-0.064,-0.086,-0.004
0.045,-0.025,-0.069,-0.01,0.057,-0.047,0.035,0.068,-0.034,-0.106,-0.127,-0.036
0.036,-0.055,-0.092,0.01,0.064,-0.073,0.035,0.035,-0.065,-0.128,-0.141,-0.05
0.022,-0.075,-0.097,0.027,0.06,-0.085,0.034,0.025,-0.084,-0.132,-0.153,-0.052
0.02,-0.084,-0.105,0.032,0.063,-0.095,0.029,0.02,-0.093,-0.129,-0.157,-0.056
0.02,-0.09,-0.11,0.035,0.065,-0.1,0.031,0.012,-0.091,-0.13,-0.159,-0.06
0.018,-0.1,-0.118,0.041,0.068,-0.109,0.027,0.006,-0.09,-0.125,-0.164,-0.058
0.015,-0.109,-0.124,0.047,0.069,-0.116,0.025,0.0,-0.09,-0.125,-0.164,-0.054
0.018,-0.11,-0.129,0.046,0.073,-0.119,0.025,0.009,-0.085,-0.124,-0.158,-0.055
0.021,-0.11,-0.13,0.044,0.076,-0.12,0.021,0.022,-0.085,-0.12,-0.152,-0.055
0.019,-0.11,-0.129,0.046,0.074,-0.12,0.019,0.032,-0.084,-0.12,-0.148,-0.055
0.022,-0.11,-0.132,0.044,0.077,-0.12,0.021,0.037,-0.08,-0.118,-0.141,-0.055
0.023,-0.111,-0.135,0.045,0.079,-0.123,0.024,0.039,-0.078,-0.114,-0.136,-0.055
0.023,-0.115,-0.137,0.046,0.081,-0.126,0.027,0.036,-0.075,-0.115,-0.138,-0.055
0.023,-0.118,-0.14,0.047,0.082,-0.129,0.03,0.034,-0.072,-0.118,-0.14,-0.055
0.023,-0.12,-0.143,0.049,0.083,-0.131,0.033,0.035,-0.07,-0.121,-0.142,-0.055
0.022,-0.124,-0.146,0.051,0.084,-0.134,0.036,0.034,-0.073,-0.124,-0.145,-0.055
0.023,-0.125,-0.148,0.051,0.086,-0.136,0.033,0.035,-0.077,-0.127,-0.146,-0.057
0.023,-0.129,-0.151,0.053,0.087,-0.14,0.029,0.032,-0.08,-0.13,-0.15,-0.062
0.024,-0.13,-0.154,0.054,0.089,-0.142,0.03,0.024,-0.084,-0.13,-0.153,-0.065
0.026,-0.13,-0.157,0.052,0.092,-0.143,0.03,0.016,-0.086,-0.13,-0.157,-0.07
0.025,-0.135,-0.16,0.055,0.093,-0.147,0.03,0.008,-0.095,-0.13,-0.16,-0.07
0.024,-0.135,-0.159,0.055,0.092,-0.146,0.029,0.0,-0.105,-0.13,-0.16,-0.071
0.018,-0.136,-0.154,0.06,0.086,-0.145,0.025,-0.004,-0.112,-0.13,-0.16,-0.075
0.01,-0.141,-0.151,0.065,0.08,-0.146,0.025,-0.007,-0.123,-0.13,-0.16,-0.075
0.003,-0.144,-0.148,0.071,0.076,-0.146,0.025,-0.01,-0.127,-0.13,-0.16,-0.077
-0.005,-0.148,-0.143,0.077,0.069,-0.146,0.025,-0.013,-0.125,-0.13,-0.159,-0.08
-0.011,-0.151,-0.14,0.081,0.064,-0.145,0.026,-0.015,-0.124,-0.13,-0.161,-0.083
-0.011,-0.154,-0.143,0.083,0.067,-0.148,0.022,-0.017,-0.121,-0.13,-0.165,-0.086
-0.01,-0.157,-0.147,0.084,0.069,-0.152,0.019,-0.02,-0.119,-0.13,-0.165,-0.089
-0.011,-0.16,-0.149,0.085,0.069,-0.155,0.02,-0.02,-0.123,-0.131,-0.167,-0.09
-0.01,-0.163,-0.153,0.087,0.072,-0.158,0.016,-0.02,-0.134,-0.14,-0.17,-0.09
-0.012,-0.167,-0.154,0.09,0.072,-0.16,0.015,-0.02,-0.135,-0.146,-0.17,-0.09
-0.01,-0.17,-0.16,0.09,0.075,-0.165,0.015,-0.019,-0.134,-0.145,-0.166,-0.09
-0.012,-0.173,-0.161,0.093,0.075,-0.167,0.01,-0.016,-0.136,-0.145,-0.165,-0.09
-0.021,-0.175,-0.154,0.099,0.067,-0.165,0.01,-0.014,-0.134,-0.145,-0.164,-0.09
-0.028,-0.175,-0.147,0.102,0.06,-0.161,0.009,-0.016,-0.137,-0.145,-0.161,-0.088
-0.034,-0.175,-0.142,0.105,0.054,-0.158,0.005,-0.014,-0.14,-0.144,-0.158,-0.085
-0.042,-0.175,-0.133,0.109,0.046,-0.154,0.006,-0.015,-0.14,-0.138,-0.166,-0.086
-0.04,-0.174,-0.134,0.107,0.047,-0.153,0.007,-0.013,-0.14,-0.13,-0.173,-0.085
-0.001,-0.166,-0.165,0.084,0.082,-0.165,0.011,-0.001,-0.14,-0.125,-0.163,-0.085
0.029,-0.157,-0.186,0.064,0.108,-0.171,0.014,0.005,-0.141,-0.117,-0.152,-0.084
0.039,-0.158,-0.197,0.06,0.118,-0.177,0.014,0.037,-0.129,-0.111,-0.143,-0.08
0.047,-0.161,-0.208,0.057,0.128,-0.184,0.04,0.06,-0.103,-0.11,-0.14,-0.077
0.043,-0.159,-0.202,0.058,0.123,-0.18,0.037,0.049,-0.103,-0.109,-0.136,-0.073
0.047,-0.162,-0.209,0.058,0.128,-0.185,-0.004,0.021,-0.138,-0.128,-0.135,-0.071
0.018,-0.166,-0.184,0.074,0.101,-0.175,-0.027,-0.017,-0.154,-0.134,-0.129,-0.064
-0.036,-0.175,-0.139,0.106,0.052,-0.157,-0.022,-0.022,-0.162,-0.137,-0.131,-0.069
-0.036,-0.18,-0.144,0.108,0.054,-0.162,-0.028,-0.034,-0.163,-0.134,-0.14,-0.069
-0.032,-0.19,-0.158,0.111,0.063,-0.173,-0.022,-0.034,-0.165,-0.135,-0.159,-0.071
-0.039,-0.183,-0.144,0.111,0.053,-0.163,-0.026,-0.048,-0.173,-0.137,-0.162,-0.075
-0.04,-0.185,-0.145,0.113,0.053,-0.165,-0.027,-0.037,-0.163,-0.126,-0.155,-0.073
-0.052,-0.187,-0.135,0.12,0.042,-0.161,-0.019,-0.042,-0.176,-0.138,-0.172,-0.082
-0.049,-0.179,-0.13,0.115,0.041,-0.154,-0.034,-0.035,-0.151,-0.112,-0.153,-0.076
-0.068,-0.191,-0.123,0.13,0.028,-0.157,0.059,0.054,-0.176,-0.14,-0.183,-0.081
-0.037,-0.122,-0.085,0.08,0.024,-0.104,0.154,0.19,-0.051,-0.051,-0.1,-0.032
0.045,-0.001,-0.046,-0.022,0.045,-0.023,0.244,0.261,0.15,0.12,0.071,0.075
0.266,0.606,0.34,-0.436,-0.037,0.472,-0.433,-0.493,0.71,0.748,0.649,0.555
0.38,0.83,0.45,-0.605,-0.036,0.64,-1.358,-1.29,1.183,1.121,0.964,0.824
0.061,0.007,-0.054,-0.034,0.057,-0.023,-0.941,-1.041,0.292,0.198,0.158,0.226
-0.077,-0.284,-0.207,0.181,0.065,-0.245,-0.295,-0.466,-0.325,-0.235,-0.205,-0.095
-0.027,-0.18,-0.153,0.104,0.064,-0.166,-0.109,-0.096,-0.183,-0.091,-0.104,-0.052
-0.077,-0.215,-0.138,0.146,0.031,-0.176,-0.017,-0.02,-0.223,-0.14,-0.155,-0.083
-0.057,-0.181,-0.124,0.119,0.034,-0.152,-0.022,-0.006,-0.187,-0.087,-0.103,-0.05
-0.045,-0.203,-0.158,0.124,0.057,-0.18,0.003,0.018,-0.211,-0.113,-0.122,-0.061
-0.043,-0.184,-0.141,0.114,0.049,-0.162,-0.005,0.011,-0.205,-0.092,-0.099,-0.044
-0.046,-0.192,-0.146,0.12,0.05,-0.169,0.007,0.029,-0.208,-0.093,-0.097,-0.043
-0.05,-0.188,-0.138,0.119,0.044,-0.163,0.012,0.029,-0.214,-0.091,-0.09,-0.039
-0.046,-0.181,-0.135,0.114,0.045,-0.158,0.015,0.045,-0.197,-0.077,-0.077,-0.03
-0.047,-0.182,-0.135,0.115,0.044,-0.158,0.022,0.051,-0.201,-0.076,-0.076,-0.031
-0.04,-0.174,-0.134,0.108,0.047,-0.154,0.021,0.066,-0.185,-0.06,-0.063,-0.021
-0.038,-0.174,-0.136,0.106,0.049,-0.155,0.029,0.087,-0.185,-0.057,-0.064,-0.022
-0.035,-0.169,-0.134,0.102,0.05,-0.151,0.028,0.106,-0.171,-0.044,-0.056,-0.012
-0.025,-0.161,-0.136,0.094,0.056,-0.148,0.035,0.149,-0.151,-0.034,-0.053,-0.003
-0.015,-0.149,-0.134,0.082,0.06,-0.141,0.045,0.213,-0.12,-0.013,-0.03,0.007
0.014,-0.132,-0.146,0.059,0.08,-0.139,0.053,0.302,-0.08,0.015,0.008,0.019
0.042,-0.098,-0.14,0.028,0.091,-0.119,0.064,0.403,-0.034,0.056,0.037,0.036
0.077,-0.048,-0.125,-0.014,0.101,-0.086,0.061,0.503,0.031,0.117,0.094,0.084
0.131,0.023,-0.109,-0.076,0.12,-0.043,0.054,0.581,0.109,0.207,0.179,0.153
0.164,0.093,-0.071,-0.128,0.117,0.011,0.038,0.59,0.171,0.286,0.252,0.21
0.187,0.145,-0.042,-0.166,0.114,0.051,0.009,0.567,0.201,0.328,0.29,0.242
0.182,0.158,-0.024,-0.169,0.102,0.067,0.004,0.525,0.201,0.339,0.277,0.248
0.165,0.148,-0.017,-0.156,0.091,0.066,0.006,0.434,0.17,0.314,0.263,0.225
0.124,0.11,-0.014,-0.116,0.068,0.048,0.004,0.334,0.101,0.259,0.221,0.18
0.049,0.039,-0.009,-0.044,0.029,0.015,0.006,0.243,0.015,0.188,0.149,0.128
0.011,-0.018,-0.029,0.004,0.02,-0.023,0.001,0.158,-0.066,0.12,0.089,0.07
-0.018,-0.066,-0.048,0.042,0.016,-0.057,0.0,0.09,-0.125,0.073,0.041,0.032
-0.048,-0.094,-0.047,0.071,0.0,-0.07,-0.001,0.043,-0.165,0.05,0.009,0.017
-0.064,-0.109,-0.045,0.087,-0.009,-0.077,-0.004,0.018,-0.193,0.045,-0.006,0.013
-0.072,-0.116,-0.045,0.094,-0.013,-0.08,-0.006,0.002,-0.204,0.04,-0.005,0.011
-0.072,-0.114,-0.042,0.093,-0.014,-0.077,-0.004,-0.007,-0.211,0.034,-0.008,0.008
-0.079,-0.118,-0.039,0.098,-0.02,-0.078,0.0,-0.005,-0.215,0.028,-0.011,0.005
-0.079,-0.12,-0.041,0.099,-0.019,-0.081,0.0,-0.005,-0.215,0.026,-0.007,0.006
-0.07,-0.12,-0.05,0.095,-0.01,-0.085,0.002,-0.005,-0.215,0.03,-0.005,0.01
-0.069,-0.116,-0.047,0.093,-0.011,-0.082,0.005,-0.005,-0.215,0.03,-0.002,0.01
-0.068,-0.109,-0.041,0.089,-0.013,-0.075,0.005,-0.005,-0.215,0.029,0.001,0.01
-0.066,-0.103,-0.036,0.085,-0.015,-0.069,0.001,-0.002,-0.211,0.04,0.004,0.01
-0.066,-0.096,-0.029,0.081,-0.018,-0.062,0.0,0.001,-0.205,0.046,0.006,0.01
-0.064,-0.089,-0.025,0.077,-0.019,-0.057,0.0,0.004,-0.199,0.05,0.01,0.013
-0.065,-0.084,-0.019,0.074,-0.022,-0.051,-0.005,0.006,-0.196,0.057,0.016,0.018
-0.066,-0.079,-0.014,0.073,-0.026,-0.046,-0.005,0.01,-0.201,0.059,0.023,0.02
-0.067,-0.076,-0.009,0.072,-0.029,-0.042,-0.006,0.009,-0.199,0.064,0.023,0.025
-0.07,-0.073,-0.003,0.072,-0.033,-0.038,-0.011,0.001,-0.202,0.065,0.019,0.028
-0.071,-0.068,0.003,0.07,-0.037,-0.033,-0.009,-0.007,-0.206,0.065,0.02,0.032
-0.07,-0.065,0.005,0.067,-0.037,-0.03,-0.013,-0.015,-0.204,0.065,0.02,0.035
-0.066,-0.062,0.005,0.063,-0.035,-0.028,-0.015,-0.022,-0.209,0.065,0.02,0.035
-0.065,-0.059,0.005,0.061,-0.035,-0.027,-0.015,-0.029,-0.216,0.065,0.02,0.035
-0.065,-0.06,0.005,0.062,-0.035,-0.027,-0.019,-0.03,-0.222,0.065,0.025,0.034
-0.07,-0.06,0.011,0.065,-0.041,-0.024,-0.02,-0.032,-0.225,0.065,0.033,0.036
-0.078,-0.06,0.018,0.069,-0.048,-0.021,-0.02,-0.043,-0.227,0.064,0.035,0.032
-0.083,-0.059,0.024,0.07,-0.053,-0.017,-0.02,-0.048,-0.23,0.074,0.035,0.041
-0.086,-0.055,0.031,0.07,-0.058,-0.011,-0.02,-0.051,-0.233,0.081,0.035,0.053
-0.09,-0.055,0.035,0.072,-0.062,-0.01,-0.02,-0.059,-0.238,0.08,0.035,0.047
-0.088,-0.052,0.036,0.07,-0.062,-0.008,-0.02,-0.06,-0.24,0.078,0.035,0.045
-0.083,-0.05,0.033,0.066,-0.058,-0.008,-0.024,-0.06,-0.24,0.074,0.039,0.041
-0.098,-0.05,0.048,0.074,-0.073,-0.001,-0.03,-0.06,-0.24,0.075,0.04,0.04
-0.11,-0.047,0.063,0.078,-0.086,0.008,-0.03,-0.06,-0.24,0.078,0.04,0.04
-0.099,-0.042,0.056,0.07,-0.077,0.007,-0.03,-0.06,-0.239,0.081,0.041,0.04
-0.094,-0.04,0.055,0.066,-0.075,0.007,-0.03,-0.063,-0.241,0.079,0.039,0.04
-0.088,-0.036,0.052,0.061,-0.069,0.008,-0.03,-0.072,-0.235,0.081,0.043,0.041
-0.079,-0.032,0.048,0.056,-0.063,0.008,-0.029,-0.073,-0.242,0.085,0.044,0.048
-0.085,-0.029,0.057,0.057,-0.071,0.014,-0.026,-0.066,-0.254,0.085,0.046,0.051
-0.086,-0.02,0.066,0.053,-0.075,0.023,-0.021,-0.055,-0.241,0.085,0.05,0.049
-0.071,-0.011,0.06,0.041,-0.065,0.025,-0.017,-0.05,-0.238,0.091,0.049,0.052
-0.05,0.007,0.057,0.022,-0.054,0.032,-0.014,-0.029,-0.24,0.113,0.061,0.068
-0.029,0.025,0.054,0.002,-0.042,0.039,0.012,-0.003,-0.24,0.121,0.066,0.071
-0.021,0.027,0.048,-0.003,-0.035,0.037,0.008,-0.014,-0.243,0.117,0.06,0.067
-0.036,0.02,0.056,0.008,-0.047,0.038,-0.037,-0.05,-0.246,0.11,0.054,0.064
-0.048,0.022,0.071,0.013,-0.06,0.047,-0.059,-0.091,-0.244,0.11,0.053,0.062
-0.072,0.013,0.086,0.029,-0.079,0.05,-0.048,-0.094,-0.25,0.1,0.045,0.059
-0.092,0.018,0.109,0.037,-0.101,0.063,-0.051,-0.103,-0.252,0.101,0.045,0.057
-0.102,0.016,0.118,0.043,-0.11,0.067,-0.043,-0.107,-0.246,0.107,0.047,0.053
-0.125,0.022,0.146,0.052,-0.136,0.084,-0.039,-0.112,-0.257,0.1,0.041,0.047
-0.111,0.026,0.137,0.043,-0.125,0.081,-0.047,-0.103,-0.24,0.115,0.052,0.05
-0.114,0.021,0.135,0.046,-0.125,0.078,-0.037,-0.094,-0.261,0.099,0.035,0.034
-0.112,0.045,0.157,0.033,-0.135,0.1,-0.066,-0.104,-0.229,0.125,0.058,0.048
-0.135,0.028,0.162,0.054,-0.149,0.095,0.024,-0.037,-0.24,0.095,0.037,0.019
-0.147,0.1,0.247,0.024,-0.197,0.173,0.118,0.1,-0.13,0.161,0.084,0.041
-0.036,0.199,0.235,-0.082,-0.136,0.217,0.236,0.209,0.082,0.329,0.223,0.145
0.178,0.73,0.553,-0.454,-0.187,0.641,-0.291,-0.456,0.582,0.879,0.716,0.544
0.274,1.044,0.77,-0.659,-0.248,0.907,-1.261,-1.326,1.166,1.329,1.099,0.865
0.005,0.311,0.306,-0.158,-0.151,0.308,-1.005,-1.214,0.36,0.509,0.394,0.348
-0.161,-0.035,0.127,0.098,-0.144,0.046,-0.361,-0.655,-0.387,-0.004,-0.035,0.019
-0.124,0.049,0.174,0.037,-0.149,0.111,-0.142,-0.224,-0.255,0.157,0.09,0.088
-0.155,0.04,0.195,0.058,-0.175,0.117,-0.028,-0.125,-0.299,0.111,0.049,0.039
-0.126,0.099,0.225,0.013,-0.176,0.162,-0.027,-0.13,-0.253,0.149,0.083,0.063
-0.117,0.079,0.195,0.019,-0.156,0.137,-0.009,-0.104,-0.256,0.131,0.064,0.042
-0.118,0.098,0.216,0.01,-0.167,0.156,-0.024,-0.112,-0.251,0.141,0.071,0.047
-0.087,0.095,0.181,-0.004,-0.134,0.138,-0.014,-0.092,-0.235,0.143,0.072,0.051
-0.1,0.102,0.202,-0.001,-0.151,0.151,-0.014,-0.091,-0.241,0.134,0.066,0.048
-0.119,0.111,0.23,0.003,-0.174,0.17,-0.016,-0.071,-0.221,0.148,0.076,0.058
-0.114,0.111,0.225,0.001,-0.169,0.167,-0.007,-0.061,-0.228,0.153,0.08,0.052
-0.111,0.124,0.234,-0.007,-0.173,0.179,-0.013,-0.05,-0.21,0.171,0.099,0.062
-0.109,0.124,0.233,-0.008,-0.171,0.178,-0.006,-0.037,-0.208,0.168,0.098,0.066
-0.099,0.134,0.233,-0.017,-0.166,0.183,-0.002,-0.016,-0.187,0.181,0.107,0.075
-0.089,0.139,0.228,-0.025,-0.159,0.184,0.007,0.028,-0.165,0.195,0.127,0.085
-0.081,0.15,0.231,-0.034,-0.156,0.19,0.012,0.074,-0.142,0.212,0.152,0.094
-0.062,0.168,0.229,-0.053,-0.146,0.198,0.019,0.152,-0.105,0.248,0.172,0.111
-0.035,0.195,0.23,-0.08,-0.133,0.212,0.025,0.248,-0.053,0.287,0.204,0.136
0.015,0.245,0.23,-0.13,-0.108,0.237,0.015,0.347,0.025,0.352,0.268,0.178
0.073,0.316,0.243,-0.195,-0.085,0.279,0.0,0.425,0.11,0.443,0.348,0.242
0.102,0.382,0.281,-0.242,-0.09,0.331,-0.012,0.431,0.184,0.52,0.417,0.292
0.124,0.428,0.304,-0.276,-0.09,0.365,-0.026,0.421,0.226,0.568,0.458,0.323
0.115,0.454,0.339,-0.284,-0.112,0.396,-0.037,0.396,0.225,0.578,0.475,0.331
0.083,0.453,0.369,-0.268,-0.143,0.411,-0.035,0.322,0.2,0.564,0.462,0.315
0.044,0.403,0.359,-0.224,-0.158,0.381,-0.028,0.236,0.138,0.506,0.398,0.274
-0.008,0.336,0.345,-0.164,-0.177,0.34,-0.024,0.145,0.048,0.425,0.324,0.214
-0.046,0.285,0.331,-0.12,-0.189,0.308,-0.018,0.067,-0.024,0.357,0.26,0.165
-0.076,0.239,0.314,-0.082,-0.196,0.276,-0.012,0.01,-0.079,0.306,0.206,0.126
-0.095,0.204,0.299,-0.054,-0.198,0.251,-0.012,-0.037,-0.115,0.274,0.182,0.106
-0.101,0.193,0.294,-0.046,-0.198,0.243,-0.018,-0.066,-0.135,0.259,0.179,0.102
-0.106,0.189,0.295,-0.042,-0.201,0.242,-0.021,-0.078,-0.149,0.257,0.176,0.093
-0.11,0.184,0.295,-0.037,-0.203,0.239,-0.026,-0.088,-0.145,0.253,0.173,0.087
-0.115,0.18,0.295,-0.033,-0.205,0.237,-0.03,-0.093,-0.14,0.249,0.17,0.078
-0.12,0.175,0.295,-0.028,-0.208,0.235,-0.024,-0.087,-0.135,0.245,0.171,0.077
-0.116,0.178,0.294,-0.032,-0.205,0.236,-0.019,-0.082,-0.128,0.247,0.175,0.08
-0.115,0.18,0.296,-0.033,-0.205,0.237,-0.014,-0.079,-0.124,0.253,0.175,0.08
-0.114,0.18,0.294,-0.033,-0.204,0.236,-0.008,-0.073,-0.119,0.256,0.175,0.08
-0.11,0.185,0.296,-0.038,-0.204,0.24,-0.002,-0.07,-0.114,0.26,0.174,0.079
-0.11,0.184,0.294,-0.037,-0.202,0.239,-0.002,-0.07,-0.11,0.265,0.182,0.088
-0.108,0.189,0.297,-0.041,-0.203,0.243,-0.008,-0.07,-0.105,0.273,0.194,0.095
-0.12,0.206,0.326,-0.043,-0.223,0.265,-0.012,-0.07,-0.1,0.273,0.195,0.096
-0.119,0.213,0.332,-0.047,-0.225,0.272,-0.017,-0.07,-0.103,0.269,0.195,0.1
-0.114,0.215,0.328,-0.051,-0.221,0.271,-0.021,-0.07,-0.107,0.27,0.195,0.098
-0.116,0.215,0.331,-0.049,-0.224,0.273,-0.026,-0.072,-0.109,0.269,0.195,0.094
-0.114,0.215,0.328,-0.05,-0.222,0.271,-0.03,-0.08,-0.114,0.27,0.194,0.092
-0.116,0.215,0.331,-0.05,-0.224,0.273,-0.03,-0.084,-0.114,0.269,0.189,0.089
-0.096,0.214,0.31,-0.059,-0.204,0.262,-0.031,-0.089,-0.11,0.265,0.186,0.086
-0.104,0.21,0.314,-0.054,-0.209,0.262,-0.035,-0.102,-0.11,0.259,0.182,0.084
-0.133,0.21,0.343,-0.039,-0.238,0.276,-0.036,-0.109,-0.11,0.255,0.178,0.081
-0.13,0.21,0.34,-0.04,-0.235,0.275,-0.032,-0.114,-0.11,0.251,0.175,0.079
-0.122,0.21,0.331,-0.044,-0.227,0.27,-0.029,-0.111,-0.109,0.246,0.172,0.08
-0.116,0.21,0.326,-0.047,-0.221,0.268,-0.024,-0.109,-0.107,0.245,0.169,0.079
-0.111,0.207,0.319,-0.048,-0.215,0.263,-0.023,-0.111,-0.104,0.245,0.166,0.081
-0.108,0.205,0.313,-0.048,-0.211,0.259,-0.016,-0.108,-0.105,0.245,0.163,0.077
-0.133,0.205,0.338,-0.036,-0.236,0.271,-0.016,-0.119,-0.1,0.245,0.16,0.074
-0.15,0.205,0.355,-0.028,-0.253,0.28,-0.029,-0.126,-0.099,0.245,0.161,0.07
-0.138,0.205,0.343,-0.034,-0.241,0.273,-0.027,-0.122,-0.102,0.244,0.166,0.067
-0.13,0.205,0.336,-0.038,-0.233,0.27,-0.021,-0.117,-0.09,0.251,0.171,0.062
-0.116,0.211,0.327,-0.048,-0.222,0.269,-0.014,-0.117,-0.103,0.252,0.173,0.059
-0.096,0.228,0.324,-0.067,-0.21,0.276,-0.012,-0.095,-0.067,0.261,0.184,0.077
-0.077,0.245,0.321,-0.084,-0.199,0.283,0.009,-0.049,-0.041,0.291,0.197,0.087
-0.079,0.238,0.316,-0.08,-0.198,0.277,0.017,-0.055,-0.035,0.29,0.193,0.084
-0.099,0.217,0.316,-0.06,-0.207,0.266,-0.019,-0.088,-0.068,0.275,0.191,0.083
-0.111,0.207,0.318,-0.048,-0.214,0.262,0.001,-0.128,-0.11,0.272,0.188,0.079
-0.126,0.201,0.328,-0.038,-0.227,0.264,0.009,-0.198,-0.017,0.268,0.185,0.08
-0.155,0.194,0.349,-0.019,-0.253,0.271,-0.006,-0.26,0.015,0.272,0.184,0.083
-0.152,0.188,0.34,-0.018,-0.246,0.263,0.005,-0.305,-0.013,0.263,0.168,0.086
