-0.015,-0.041,-0.026,0.028,0.006,-0.033,0.055,0.045,0.055,0.04,0.015,0.01
-0.023,-0.047,-0.024,0.036,0.001,-0.036,0.055,0.044,0.053,0.036,0.012,0.007
-0.032,-0.05,-0.018,0.041,-0.007,-0.034,0.055,0.04,0.047,0.029,0.006,0.001
-0.016,-0.05,-0.034,0.033,0.009,-0.042,0.052,0.037,0.045,0.023,0.001,-0.004
-0.019,-0.05,-0.031,0.035,0.006,-0.04,0.049,0.032,0.037,0.015,-0.005,-0.01
-0.023,-0.05,-0.027,0.037,0.002,-0.038,0.051,0.03,0.037,0.01,-0.009,-0.014
-0.008,-0.049,-0.042,0.029,0.017,-0.045,0.054,0.043,0.054,0.016,-0.005,-0.01
-0.011,-0.046,-0.035,0.029,0.012,-0.04,0.057,0.046,0.056,0.021,0.003,-0.003
-0.013,-0.043,-0.03,0.028,0.009,-0.036,0.059,0.045,0.054,0.028,0.009,0.001
-0.014,-0.04,-0.027,0.027,0.006,-0.033,0.063,0.05,0.056,0.028,0.016,0.007
-0.017,-0.038,-0.021,0.027,0.003,-0.029,0.065,0.05,0.055,0.024,0.023,0.013
-0.015,-0.034,-0.019,0.025,0.002,-0.026,0.063,0.049,0.054,0.025,0.023,0.013
-0.007,-0.035,-0.028,0.021,0.011,-0.032,0.059,0.043,0.049,0.025,0.019,0.009
0.0,-0.035,-0.035,0.017,0.018,-0.034,0.057,0.037,0.044,0.025,0.02,0.007
-0.01,-0.036,-0.026,0.023,0.009,-0.031,0.054,0.033,0.04,0.025,0.016,0.004
-0.024,-0.048,-0.024,0.036,0.0,-0.036,0.051,0.026,0.035,0.019,0.015,0.001
-0.036,-0.051,-0.015,0.044,-0.011,-0.032,0.049,0.022,0.031,0.012,0.015,-0.001
-0.037,-0.049,-0.013,0.043,-0.012,-0.031,0.045,0.015,0.025,0.006,0.01,-0.004
-0.047,-0.05,-0.003,0.049,-0.022,-0.027,0.045,0.008,0.017,-0.001,0.005,-0.009
-0.05,-0.05,0.001,0.05,-0.026,-0.024,0.044,0.001,0.011,-0.007,0.001,-0.011
-0.033,-0.05,-0.017,0.041,-0.008,-0.033,0.039,-0.007,0.003,-0.013,-0.004,-0.016
-0.036,-0.05,-0.014,0.044,-0.011,-0.032,0.041,-0.015,-0.005,-0.018,-0.008,-0.019
-0.052,-0.049,0.003,0.051,-0.028,-0.023,0.037,-0.018,-0.008,-0.025,-0.013,-0.023
-0.056,-0.051,0.005,0.053,-0.03,-0.023,0.035,-0.015,-0.005,-0.029,-0.015,-0.025
-0.03,-0.049,-0.019,0.039,-0.005,-0.034,0.035,-0.015,-0.005,-0.026,-0.015,-0.028
-0.028,-0.052,-0.024,0.04,-0.002,-0.038,0.031,-0.013,-0.005,-0.025,-0.018,-0.031
-0.053,-0.064,-0.012,0.059,-0.02,-0.038,0.03,-0.01,-0.005,-0.025,-0.021,-0.034
-0.056,-0.066,-0.01,0.061,-0.022,-0.037,0.03,-0.01,-0.005,-0.025,-0.019,-0.035
-0.068,-0.064,0.004,0.066,-0.036,-0.03,0.035,-0.02,-0.008,-0.025,-0.016,-0.03
-0.078,-0.061,0.017,0.069,-0.048,-0.021,0.043,-0.027,-0.017,-0.025,-0.015,-0.03
-0.073,-0.06,0.013,0.066,-0.043,-0.023,0.045,-0.021,-0.019,-0.025,-0.015,-0.03
-0.066,-0.059,0.007,0.062,-0.036,-0.026,0.045,-0.02,-0.014,-0.025,-0.015,-0.03
-0.056,-0.054,0.002,0.055,-0.029,-0.026,0.049,-0.016,-0.016,-0.025,-0.016,-0.03
-0.05,-0.056,-0.005,0.053,-0.022,-0.03,0.05,-0.015,-0.012,-0.025,-0.012,-0.03
-0.059,-0.052,0.006,0.055,-0.032,-0.023,0.05,-0.019,-0.01,-0.025,-0.009,-0.03
-0.081,-0.049,0.032,0.065,-0.056,-0.008,0.05,-0.029,-0.01,-0.033,-0.01,-0.03
-0.086,-0.051,0.036,0.068,-0.061,-0.007,0.05,-0.033,-0.006,-0.038,-0.006,-0.03
-0.078,-0.044,0.034,0.06,-0.056,-0.004,0.05,-0.023,0.001,-0.028,-0.005,-0.03
-0.067,-0.032,0.036,0.049,-0.051,0.002,0.049,-0.007,0.008,-0.02,-0.005,-0.03
-0.053,-0.019,0.034,0.036,-0.044,0.007,0.059,0.011,0.012,-0.012,0.011,-0.035
-0.045,-0.008,0.036,0.026,-0.04,0.014,0.083,0.03,0.028,0.003,0.032,-0.035
-0.023,0.006,0.03,0.008,-0.027,0.018,0.1,0.065,0.06,0.02,0.035,-0.035
-0.024,-0.003,0.021,0.013,-0.023,0.009,0.098,0.067,0.076,0.035,0.031,-0.035
-0.053,-0.045,0.008,0.049,-0.03,-0.018,0.07,0.016,0.027,0.0,0.026,-0.035
-0.042,-0.056,-0.013,0.049,-0.014,-0.034,0.031,-0.012,-0.007,-0.044,0.008,-0.035
-0.011,-0.044,-0.033,0.028,0.011,-0.039,-0.001,-0.03,-0.018,-0.045,-0.001,-0.035
0.007,-0.035,-0.042,0.014,0.025,-0.038,-0.004,-0.046,-0.041,-0.044,0.001,-0.035
0.008,-0.026,-0.034,0.009,0.021,-0.029,0.005,-0.044,-0.028,-0.046,-0.003,-0.036
-0.006,-0.025,-0.019,0.016,0.007,-0.022,0.01,-0.045,-0.02,-0.044,-0.005,-0.034
-0.031,-0.029,0.002,0.03,-0.017,-0.013,0.024,-0.044,-0.019,-0.046,-0.009,-0.036
-0.071,-0.044,0.028,0.057,-0.049,-0.008,0.031,-0.046,-0.026,-0.049,-0.01,-0.034
-0.093,-0.057,0.036,0.075,-0.064,-0.01,0.031,-0.044,-0.03,-0.05,-0.014,-0.035
-0.088,-0.054,0.034,0.07,-0.06,-0.01,0.026,-0.046,-0.031,-0.052,-0.015,-0.043
-0.091,-0.055,0.036,0.073,-0.064,-0.009,0.027,-0.043,-0.028,-0.054,-0.009,-0.051
-0.082,-0.048,0.033,0.064,-0.057,-0.007,0.022,-0.047,-0.032,-0.057,-0.012,-0.051
-0.089,-0.052,0.037,0.07,-0.063,-0.007,0.033,-0.043,-0.029,-0.05,-0.007,-0.046
-0.077,-0.045,0.032,0.06,-0.054,-0.006,0.024,-0.048,-0.018,-0.052,-0.014,-0.048
-0.124,-0.02,0.104,0.072,-0.113,0.042,0.099,0.014,0.032,-0.014,0.0,-0.04
-0.194,-0.001,0.193,0.097,-0.193,0.096,0.328,0.369,0.255,0.138,0.087,-0.032
0.171,0.131,-0.04,-0.151,0.105,0.046,0.177,0.595,0.519,0.438,0.403,0.243
0.621,0.261,-0.36,-0.441,0.49,-0.049,-0.347,0.114,0.492,0.597,0.642,0.581
0.501,0.168,-0.333,-0.334,0.417,-0.082,-0.491,-0.65,-0.066,0.152,0.268,0.367
0.11,-0.055,-0.165,-0.027,0.137,-0.11,-0.264,-0.898,-0.572,-0.37,-0.178,-0.02
-0.053,-0.137,-0.084,0.095,0.016,-0.11,-0.158,-0.589,-0.468,-0.372,-0.216,-0.111
-0.049,-0.08,-0.031,0.065,-0.009,-0.056,-0.085,-0.229,-0.181,-0.159,-0.088,-0.063
-0.058,-0.058,0.0,0.058,-0.029,-0.029,0.012,-0.075,-0.053,-0.066,-0.018,-0.047
-0.061,-0.049,0.012,0.055,-0.037,-0.018,0.025,-0.048,-0.047,-0.072,-0.025,-0.052
-0.078,-0.045,0.033,0.061,-0.055,-0.006,0.039,-0.029,-0.041,-0.063,-0.017,-0.048
-0.08,-0.044,0.036,0.061,-0.058,-0.003,0.044,-0.021,-0.029,-0.058,-0.015,-0.051
-0.069,-0.037,0.032,0.053,-0.05,-0.002,0.044,-0.017,-0.026,-0.053,-0.011,-0.049
-0.066,-0.036,0.03,0.051,-0.048,-0.002,0.046,-0.009,-0.016,-0.047,-0.007,-0.047
-0.06,-0.034,0.026,0.047,-0.043,-0.004,0.048,-0.006,-0.012,-0.043,-0.006,-0.041
-0.061,-0.035,0.025,0.048,-0.042,-0.005,0.051,0.001,-0.004,-0.037,-0.004,-0.036
-0.056,-0.035,0.021,0.045,-0.038,-0.007,0.048,0.007,0.002,-0.034,-0.002,-0.033
-0.05,-0.035,0.015,0.042,-0.032,-0.01,0.046,0.015,0.009,-0.028,0.001,-0.027
-0.045,-0.035,0.01,0.04,-0.027,-0.012,0.042,0.02,0.015,-0.025,-0.001,-0.024
-0.039,-0.034,0.005,0.036,-0.021,-0.014,0.04,0.032,0.024,-0.018,0.008,-0.016
-0.025,-0.028,-0.002,0.026,-0.011,-0.015,0.036,0.048,0.032,-0.008,0.017,-0.008
-0.019,-0.023,-0.003,0.021,-0.008,-0.013,0.035,0.067,0.042,0.003,0.029,0.0
-0.025,-0.016,0.009,0.02,-0.017,-0.003,0.031,0.086,0.055,0.016,0.041,0.007
-0.021,-0.012,0.008,0.016,-0.014,-0.002,0.02,0.102,0.075,0.032,0.05,0.015
0.005,0.002,-0.003,-0.003,0.004,-0.001,0.01,0.13,0.102,0.051,0.067,0.025
0.037,0.032,-0.005,-0.034,0.021,0.013,0.0,0.16,0.129,0.077,0.084,0.034
0.074,0.05,-0.024,-0.062,0.049,0.013,-0.011,0.194,0.169,0.113,0.113,0.061
0.114,0.065,-0.048,-0.089,0.081,0.008,-0.018,0.231,0.202,0.143,0.141,0.091
0.15,0.089,-0.061,-0.119,0.105,0.013,-0.04,0.258,0.228,0.173,0.165,0.117
0.189,0.11,-0.079,-0.15,0.134,0.016,-0.062,0.268,0.249,0.191,0.182,0.138
0.216,0.118,-0.098,-0.167,0.157,0.01,-0.079,0.263,0.247,0.187,0.179,0.139
0.221,0.114,-0.107,-0.167,0.163,0.004,-0.088,0.262,0.24,0.18,0.176,0.136
0.197,0.109,-0.088,-0.153,0.143,0.01,-0.082,0.256,0.235,0.175,0.173,0.129
0.185,0.107,-0.078,-0.146,0.131,0.014,-0.078,0.222,0.231,0.171,0.169,0.124
0.154,0.091,-0.063,-0.123,0.108,0.014,-0.054,0.174,0.201,0.147,0.152,0.118
0.084,0.057,-0.026,-0.07,0.055,0.015,-0.022,0.127,0.152,0.106,0.118,0.094
0.028,0.032,0.004,-0.03,0.012,0.017,0.002,0.084,0.102,0.061,0.082,0.06
-0.007,0.013,0.02,-0.003,-0.014,0.016,0.011,0.049,0.066,0.033,0.056,0.029
-0.032,-0.005,0.027,0.018,-0.03,0.011,0.012,0.027,0.048,0.022,0.042,0.01
-0.048,-0.018,0.03,0.033,-0.039,0.006,0.017,0.017,0.028,0.01,0.033,-0.004
-0.042,-0.021,0.022,0.031,-0.032,0.0,0.019,0.011,0.02,-0.002,0.025,-0.007
-0.056,-0.02,0.036,0.037,-0.046,0.008,0.024,0.004,0.019,-0.012,0.016,-0.004
-0.067,-0.02,0.047,0.043,-0.057,0.013,0.025,-0.003,0.015,-0.011,0.019,-0.006
-0.057,-0.02,0.038,0.039,-0.047,0.009,0.025,-0.009,0.013,-0.008,0.021,-0.005
-0.059,-0.02,0.038,0.039,-0.049,0.009,0.025,-0.014,0.009,-0.006,0.019,-0.006
-0.047,-0.016,0.031,0.032,-0.039,0.007,0.025,-0.015,0.012,-0.002,0.021,-0.004
-0.045,-0.014,0.031,0.03,-0.038,0.008,0.024,-0.015,0.02,0.0,0.019,0.0
-0.05,-0.015,0.034,0.032,-0.042,0.009,0.02,-0.015,0.024,0.0,0.023,-0.001
-0.05,-0.015,0.035,0.032,-0.042,0.01,0.02,-0.015,0.021,0.0,0.025,0.002
-0.062,-0.016,0.047,0.039,-0.054,0.015,0.018,-0.014,0.019,0.0,0.025,0.005
-0.062,-0.013,0.048,0.037,-0.054,0.017,0.014,-0.01,0.02,0.0,0.025,0.005
-0.05,-0.01,0.04,0.03,-0.045,0.015,0.016,-0.01,0.019,0.0,0.025,0.002
-0.047,-0.01,0.037,0.028,-0.042,0.013,0.011,-0.008,0.021,0.0,0.025,-0.001
-0.039,-0.01,0.029,0.024,-0.034,0.009,0.01,-0.005,0.017,-0.006,0.02,0.0
-0.036,-0.01,0.026,0.023,-0.031,0.008,0.01,-0.005,0.009,-0.013,0.02,0.0
-0.051,-0.01,0.041,0.03,-0.046,0.015,0.006,-0.009,0.003,-0.019,0.019,0.0
-0.058,-0.014,0.045,0.036,-0.051,0.015,0.005,-0.015,-0.005,-0.026,0.014,-0.001
-0.051,-0.015,0.036,0.033,-0.043,0.01,0.006,-0.02,-0.013,-0.032,0.015,-0.005
-0.05,-0.015,0.035,0.032,-0.042,0.01,0.01,-0.026,-0.019,-0.038,0.013,-0.005
-0.047,-0.02,0.028,0.033,-0.038,0.004,0.01,-0.031,-0.02,-0.04,0.006,-0.005
-0.046,-0.02,0.026,0.032,-0.036,0.003,0.012,-0.036,-0.02,-0.04,-0.001,-0.005
-0.051,-0.021,0.03,0.036,-0.041,0.004,0.016,-0.041,-0.02,-0.044,-0.007,-0.005
-0.056,-0.025,0.03,0.041,-0.043,0.002,0.015,-0.044,-0.02,-0.045,-0.014,-0.009
-0.054,-0.028,0.026,0.041,-0.04,-0.001,0.019,-0.045,-0.019,-0.045,-0.02,-0.01
-0.056,-0.032,0.025,0.044,-0.04,-0.003,0.02,-0.045,-0.023,-0.045,-0.02,-0.01
-0.055,-0.035,0.02,0.045,-0.037,-0.007,0.02,-0.045,-0.03,-0.045,-0.02,-0.014
-0.051,-0.031,0.02,0.041,-0.035,-0.006,0.02,-0.045,-0.03,-0.045,-0.02,-0.016
-0.062,-0.03,0.032,0.045,-0.047,0.001,0.02,-0.045,-0.034,-0.045,-0.02,-0.013
-0.066,-0.03,0.036,0.048,-0.051,0.002,0.02,-0.046,-0.035,-0.044,-0.02,-0.01
-0.064,-0.03,0.034,0.047,-0.049,0.002,0.02,-0.05,-0.037,-0.048,-0.022,-0.01
-0.062,-0.03,0.032,0.045,-0.047,0.001,0.02,-0.053,-0.041,-0.05,-0.025,-0.01
-0.06,-0.031,0.029,0.046,-0.045,-0.001,0.02,-0.057,-0.04,-0.05,-0.025,-0.01
-0.066,-0.035,0.031,0.051,-0.048,-0.002,0.02,-0.06,-0.04,-0.054,-0.025,-0.01
-0.072,-0.035,0.037,0.053,-0.054,0.001,0.02,-0.057,-0.04,-0.055,-0.025,-0.006
-0.077,-0.035,0.042,0.056,-0.059,0.003,0.017,-0.054,-0.039,-0.054,-0.024,-0.004
-0.072,-0.035,0.037,0.053,-0.054,0.001,0.014,-0.051,-0.036,-0.05,-0.021,-0.005
-0.081,-0.035,0.046,0.058,-0.063,0.005,0.01,-0.049,-0.034,-0.05,-0.018,-0.004
-0.088,-0.031,0.056,0.059,-0.072,0.012,0.009,-0.044,-0.036,-0.049,-0.016,-0.006
-0.081,-0.026,0.055,0.053,-0.067,0.014,0.004,-0.049,-0.034,-0.044,-0.012,-0.004
-0.076,-0.023,0.053,0.049,-0.064,0.015,0.008,-0.053,-0.036,-0.047,-0.011,0.001
-0.066,-0.017,0.049,0.042,-0.058,0.016,0.019,-0.046,-0.03,-0.038,-0.006,0.006
-0.064,-0.014,0.05,0.039,-0.057,0.018,0.035,-0.033,-0.006,-0.019,0.01,0.01
-0.038,0.009,0.047,0.014,-0.042,0.028,0.057,-0.007,0.015,0.004,0.028,0.014
-0.03,0.013,0.043,0.008,-0.037,0.028,0.076,0.031,0.042,0.012,0.041,0.026
-0.039,-0.002,0.038,0.02,-0.038,0.018,0.066,0.047,0.037,-0.001,0.037,0.028
-0.027,-0.017,0.01,0.022,-0.018,-0.004,0.02,0.011,-0.004,-0.012,0.018,0.019
-0.032,-0.051,-0.019,0.042,-0.006,-0.035,0.006,-0.028,-0.027,-0.039,-0.007,0.012
-0.018,-0.052,-0.034,0.036,0.008,-0.043,-0.016,-0.058,-0.048,-0.053,-0.019,0.004
0.006,-0.038,-0.044,0.016,0.025,-0.041,-0.037,-0.07,-0.056,-0.049,-0.023,-0.003
0.007,-0.039,-0.046,0.017,0.027,-0.043,-0.025,-0.071,-0.054,-0.051,-0.03,0.001
-0.015,-0.039,-0.025,0.027,0.005,-0.032,-0.018,-0.076,-0.056,-0.05,-0.029,0.013
-0.049,-0.041,0.008,0.045,-0.029,-0.016,-0.008,-0.076,-0.054,-0.049,-0.033,0.008
-0.076,-0.039,0.036,0.057,-0.056,-0.001,-0.004,-0.082,-0.056,-0.054,-0.035,0.002
-0.082,-0.041,0.041,0.061,-0.062,0.0,0.004,-0.076,-0.053,-0.065,-0.036,-0.002
-0.077,-0.038,0.039,0.058,-0.058,0.0,0.006,-0.076,-0.057,-0.061,-0.041,-0.01
-0.076,-0.034,0.042,0.055,-0.059,0.004,0.016,-0.07,-0.053,-0.053,-0.038,-0.011
-0.066,-0.029,0.037,0.047,-0.051,0.004,0.016,-0.071,-0.056,-0.054,-0.042,-0.023
-0.069,-0.024,0.045,0.046,-0.056,0.01,0.027,-0.064,-0.055,-0.042,-0.037,-0.024
-0.045,-0.021,0.024,0.033,-0.035,0.001,0.022,-0.066,-0.052,-0.051,-0.044,-0.039
-0.099,-0.013,0.086,0.056,-0.092,0.036,0.054,-0.038,-0.03,-0.032,-0.026,-0.032
-0.214,-0.004,0.21,0.108,-0.212,0.103,0.281,0.267,0.18,0.103,0.052,-0.002
0.094,0.102,0.009,-0.098,0.042,0.055,0.225,0.552,0.457,0.371,0.308,0.199
0.628,0.259,-0.369,-0.444,0.499,-0.055,-0.299,0.215,0.48,0.543,0.567,0.537
0.615,0.225,-0.389,-0.42,0.502,-0.082,-0.541,-0.549,0.002,0.194,0.289,0.42
0.206,-0.006,-0.212,-0.099,0.209,-0.109,-0.321,-0.92,-0.546,-0.313,-0.15,0.043
-0.017,-0.138,-0.121,0.078,0.052,-0.129,-0.172,-0.669,-0.521,-0.401,-0.244,-0.073
-0.048,-0.08,-0.032,0.065,-0.008,-0.056,-0.109,-0.286,-0.241,-0.209,-0.138,-0.038
-0.045,-0.044,0.001,0.044,-0.023,-0.021,-0.014,-0.097,-0.106,-0.08,-0.046,-0.012
-0.062,-0.046,0.015,0.054,-0.038,-0.015,0.01,-0.057,-0.07,-0.078,-0.047,-0.017
-0.075,-0.044,0.031,0.059,-0.052,-0.006,0.025,-0.039,-0.058,-0.067,-0.04,-0.013
-0.068,-0.046,0.022,0.057,-0.045,-0.012,0.036,-0.032,-0.049,-0.058,-0.033,-0.01
-0.071,-0.044,0.027,0.057,-0.049,-0.009,0.036,-0.024,-0.042,-0.056,-0.03,-0.011
-0.065,-0.045,0.02,0.055,-0.042,-0.012,0.036,-0.015,-0.033,-0.054,-0.022,-0.007
-0.06,-0.04,0.02,0.05,-0.04,-0.01,0.034,-0.01,-0.029,-0.054,-0.021,-0.005
-0.054,-0.035,0.019,0.045,-0.037,-0.007,0.031,-0.002,-0.024,-0.049,-0.02,-0.005
-0.046,-0.031,0.016,0.038,-0.031,-0.007,0.029,0.004,-0.018,-0.051,-0.018,-0.005
-0.04,-0.026,0.014,0.033,-0.026,-0.006,0.029,0.011,-0.013,-0.045,-0.014,-0.005
-0.032,-0.022,0.01,0.027,-0.021,-0.006,0.024,0.016,-0.007,-0.035,-0.015,-0.005
-0.025,-0.017,0.008,0.021,-0.016,-0.005,0.021,0.027,0.001,-0.025,-0.011,0.002
-0.016,-0.012,0.004,0.013,-0.01,-0.003,0.018,0.04,0.011,-0.015,-0.001,0.01
-0.009,-0.005,0.003,0.007,-0.006,-0.001,0.013,0.052,0.018,-0.005,0.006,0.018
0.004,-0.001,-0.005,-0.001,0.005,-0.002,0.01,0.068,0.032,0.001,0.014,0.026
0.021,0.011,-0.01,-0.016,0.015,0.001,0.006,0.086,0.05,0.017,0.021,0.032
0.039,0.025,-0.015,-0.032,0.027,0.004,-0.005,0.114,0.076,0.042,0.029,0.039
0.059,0.041,-0.018,-0.05,0.038,0.011,-0.012,0.147,0.109,0.062,0.053,0.057
0.085,0.062,-0.023,-0.073,0.054,0.019,-0.023,0.189,0.135,0.091,0.077,0.084
0.13,0.076,-0.054,-0.103,0.092,0.011,-0.031,0.225,0.181,0.131,0.109,0.111
0.172,0.1,-0.072,-0.136,0.122,0.014,-0.045,0.247,0.215,0.164,0.14,0.132
0.202,0.123,-0.079,-0.162,0.14,0.022,-0.066,0.275,0.243,0.19,0.157,0.147
0.232,0.137,-0.095,-0.184,0.163,0.021,-0.082,0.282,0.263,0.212,0.166,0.166
0.248,0.152,-0.096,-0.2,0.172,0.028,-0.103,0.276,0.253,0.209,0.159,0.184
0.237,0.148,-0.089,-0.192,0.163,0.029,-0.1,0.269,0.241,0.2,0.152,0.184
0.212,0.131,-0.081,-0.171,0.146,0.025,-0.085,0.241,0.232,0.188,0.147,0.169
0.178,0.115,-0.064,-0.146,0.121,0.025,-0.07,0.195,0.205,0.156,0.137,0.143
0.128,0.088,-0.04,-0.107,0.083,0.024,-0.046,0.143,0.155,0.116,0.101,0.111
0.075,0.062,-0.014,-0.068,0.044,0.024,-0.01,0.098,0.11,0.076,0.062,0.078
0.037,0.045,0.008,-0.041,0.014,0.026,0.015,0.054,0.07,0.045,0.037,0.05
0.011,0.033,0.021,-0.022,-0.005,0.027,0.018,0.027,0.042,0.022,0.01,0.024
-0.009,0.02,0.029,-0.006,-0.019,0.024,0.023,0.012,0.029,0.007,-0.012,0.002
-0.019,0.011,0.03,0.004,-0.025,0.021,0.025,-0.003,0.015,0.001,-0.022,-0.006
-0.021,0.009,0.03,0.006,-0.025,0.019,0.025,-0.008,0.009,-0.004,-0.02,-0.005
-0.024,0.006,0.03,0.009,-0.027,0.018,0.025,-0.015,0.006,-0.009,-0.02,-0.005
-0.027,0.003,0.03,0.012,-0.029,0.016,0.025,-0.019,0.003,-0.015,-0.02,-0.005
-0.028,0.001,0.028,0.013,-0.028,0.014,0.025,-0.016,-0.001,-0.019,-0.02,-0.005
-0.027,-0.002,0.026,0.014,-0.026,0.012,0.025,-0.013,-0.005,-0.015,-0.02,-0.002
-0.028,-0.005,0.023,0.016,-0.025,0.009,0.021,-0.01,-0.001,-0.01,-0.02,0.001
-0.039,-0.005,0.034,0.022,-0.036,0.014,0.02,-0.008,0.005,-0.006,-0.02,0.004
-0.051,-0.005,0.046,0.027,-0.048,0.021,0.019,-0.004,0.01,-0.001,-0.02,0.007
-0.05,-0.005,0.045,0.027,-0.047,0.02,0.016,-0.008,0.017,0.004,-0.02,0.01
-0.049,-0.005,0.044,0.026,-0.046,0.019,0.015,-0.011,0.019,0.003,-0.02,0.01
-0.042,-0.002,0.04,0.022,-0.041,0.019,0.016,-0.01,0.013,-0.002,-0.021,0.01
-0.039,0.001,0.04,0.019,-0.039,0.02,0.032,-0.014,0.007,-0.005,-0.025,0.01
-0.044,-0.002,0.042,0.022,-0.043,0.02,0.038,-0.015,0.002,-0.008,-0.025,0.01
-0.052,-0.005,0.047,0.028,-0.049,0.021,0.034,-0.015,-0.004,-0.013,-0.027,0.006
-0.054,-0.005,0.05,0.029,-0.051,0.022,0.035,-0.02,-0.009,-0.016,-0.031,-0.004
-0.053,-0.008,0.046,0.03,-0.049,0.019,0.03,-0.02,-0.014,-0.021,-0.029,-0.009
-0.054,-0.011,0.043,0.032,-0.049,0.016,0.03,-0.02,-0.019,-0.027,-0.035,-0.002
-0.05,-0.01,0.04,0.03,-0.045,0.015,0.029,-0.027,-0.024,-0.032,-0.045,-0.004
-0.051,-0.014,0.038,0.032,-0.044,0.012,0.024,-0.031,-0.027,-0.038,-0.051,-0.014
-0.049,-0.015,0.034,0.032,-0.041,0.01,0.026,-0.035,-0.033,-0.042,-0.05,-0.02
-0.053,-0.015,0.038,0.034,-0.045,0.011,0.022,-0.042,-0.035,-0.047,-0.05,-0.02
-0.062,-0.015,0.047,0.038,-0.054,0.016,0.02,-0.048,-0.035,-0.05,-0.05,-0.021
-0.066,-0.015,0.051,0.041,-0.058,0.017,0.02,-0.05,-0.035,-0.05,-0.05,-0.018
-0.063,-0.014,0.049,0.038,-0.056,0.018,0.016,-0.05,-0.035,-0.05,-0.058,-0.026
-0.06,-0.01,0.05,0.035,-0.055,0.02,0.015,-0.05,-0.035,-0.05,-0.061,-0.036
-0.06,-0.01,0.05,0.035,-0.055,0.02,0.014,-0.05,-0.035,-0.05,-0.059,-0.035
-0.06,-0.01,0.05,0.035,-0.055,0.02,0.011,-0.05,-0.043,-0.05,-0.06,-0.034
-0.065,-0.011,0.055,0.038,-0.06,0.022,0.009,-0.045,-0.042,-0.048,-0.06,-0.029
-0.063,-0.008,0.055,0.035,-0.059,0.023,0.015,-0.043,-0.036,-0.042,-0.06,-0.031
-0.075,-0.019,0.056,0.046,-0.065,0.018,0.026,-0.038,-0.031,-0.039,-0.056,-0.028
-0.077,-0.023,0.054,0.05,-0.065,0.015,0.021,-0.037,-0.024,-0.033,-0.046,-0.021
-0.06,-0.003,0.057,0.031,-0.059,0.027,0.023,-0.028,-0.021,-0.031,-0.04,-0.016
-0.031,0.019,0.05,0.006,-0.041,0.034,0.05,0.005,-0.01,-0.013,-0.03,-0.009
-0.009,0.042,0.051,-0.017,-0.03,0.046,0.068,0.021,0.006,0.002,-0.027,-0.006
-0.026,0.033,0.06,-0.004,-0.043,0.046,0.071,0.03,0.012,-0.007,-0.032,0.007
-0.032,0.003,0.035,0.014,-0.034,0.019,0.049,0.026,0.007,-0.017,-0.038,-0.001
-0.028,-0.009,0.019,0.019,-0.023,0.005,0.012,-0.006,-0.024,-0.039,-0.054,-0.022
-0.031,-0.017,0.014,0.024,-0.023,-0.001,-0.014,-0.042,-0.062,-0.059,-0.073,-0.029
-0.024,-0.024,0.0,0.024,-0.011,-0.012,-0.033,-0.074,-0.078,-0.075,-0.079,-0.035
0.004,-0.025,-0.029,0.011,0.017,-0.027,-0.029,-0.08,-0.08,-0.081,-0.081,-0.035
0.003,-0.025,-0.028,0.011,0.016,-0.026,-0.015,-0.08,-0.081,-0.083,-0.084,-0.035
-0.042,-0.03,0.012,0.035,-0.027,-0.008,-0.006,-0.08,-0.079,-0.086,-0.085,-0.034
-0.08,-0.03,0.049,0.055,-0.065,0.009,0.0,-0.08,-0.081,-0.09,-0.087,-0.04
-0.091,-0.028,0.062,0.06,-0.076,0.017,0.005,-0.08,-0.079,-0.089,-0.089,-0.049
-0.084,-0.025,0.059,0.055,-0.071,0.016,0.01,-0.075,-0.076,-0.086,-0.091,-0.052
-0.084,-0.024,0.06,0.054,-0.072,0.018,0.017,-0.076,-0.075,-0.084,-0.09,-0.047
-0.079,-0.027,0.053,0.052,-0.066,0.013,0.02,-0.071,-0.073,-0.086,-0.098,-0.053
-0.081,-0.023,0.058,0.051,-0.069,0.018,0.011,-0.074,-0.073,-0.085,-0.093,-0.049
-0.076,-0.028,0.048,0.052,-0.061,0.009,0.009,-0.064,-0.064,-0.085,-0.096,-0.059
-0.081,-0.015,0.066,0.048,-0.074,0.026,0.01,-0.076,-0.081,-0.079,-0.095,-0.062
-0.165,0.0,0.164,0.082,-0.164,0.082,0.188,0.13,0.063,0.006,-0.049,-0.059
-0.05,0.075,0.126,-0.013,-0.088,0.1,0.29,0.509,0.367,0.256,0.166,0.064
0.414,0.264,-0.15,-0.339,0.281,0.057,-0.126,0.375,0.55,0.614,0.592,0.503
0.592,0.323,-0.27,-0.457,0.431,0.026,-0.503,-0.286,0.301,0.523,0.558,0.616
0.251,0.128,-0.124,-0.189,0.187,0.002,-0.347,-0.779,-0.324,-0.078,0.019,0.186
-0.029,-0.081,-0.052,0.056,0.012,-0.067,-0.12,-0.738,-0.578,-0.416,-0.272,-0.083
-0.069,-0.086,-0.018,0.077,-0.025,-0.052,-0.085,-0.409,-0.359,-0.304,-0.224,-0.087
-0.077,-0.037,0.039,0.057,-0.058,0.001,-0.031,-0.139,-0.136,-0.117,-0.118,-0.06
-0.092,-0.037,0.055,0.064,-0.073,0.009,0.007,-0.062,-0.076,-0.077,-0.092,-0.056
-0.086,-0.033,0.052,0.059,-0.069,0.009,0.003,-0.059,-0.085,-0.09,-0.084,-0.052
-0.082,-0.036,0.046,0.059,-0.063,0.004,0.01,-0.037,-0.069,-0.082,-0.076,-0.047
-0.077,-0.034,0.043,0.056,-0.06,0.004,0.022,-0.035,-0.067,-0.087,-0.074,-0.044
-0.073,-0.036,0.037,0.054,-0.055,0.001,0.038,-0.029,-0.059,-0.084,-0.065,-0.038
-0.067,-0.034,0.034,0.05,-0.05,0.0,0.029,-0.025,-0.055,-0.082,-0.061,-0.036
-0.058,-0.03,0.028,0.044,-0.043,-0.001,0.025,-0.021,-0.05,-0.074,-0.067,-0.032
-0.053,-0.028,0.025,0.04,-0.039,-0.001,0.019,-0.015,-0.042,-0.07,-0.073,-0.03
-0.043,-0.025,0.018,0.034,-0.03,-0.003,0.013,-0.008,-0.043,-0.064,-0.063,-0.026
-0.053,-0.021,0.032,0.037,-0.042,0.005,0.009,0.002,-0.043,-0.058,-0.058,-0.025
-0.059,-0.02,0.039,0.039,-0.049,0.009,0.002,0.008,-0.033,-0.054,-0.051,-0.022
-0.044,-0.014,0.03,0.029,-0.037,0.008,-0.003,0.017,-0.022,-0.045,-0.043,-0.016
-0.026,-0.001,0.024,0.013,-0.025,0.011,-0.012,0.03,-0.016,-0.04,-0.034,-0.013
-0.007,0.01,0.017,-0.002,-0.012,0.013,-0.016,0.049,-0.009,-0.022,-0.019,-0.008
0.005,0.018,0.013,-0.012,-0.004,0.015,-0.026,0.06,0.005,0.001,-0.012,0.002
0.023,0.023,0.0,-0.023,0.011,0.011,-0.019,0.08,0.04,0.035,0.003,0.022
0.038,0.046,0.008,-0.042,0.015,0.027,-0.023,0.114,0.081,0.058,0.032,0.042
0.062,0.065,0.003,-0.063,0.029,0.033,-0.045,0.144,0.116,0.09,0.066,0.062
0.09,0.074,-0.016,-0.082,0.053,0.029,-0.06,0.174,0.15,0.131,0.094,0.088
0.137,0.097,-0.04,-0.117,0.088,0.028,-0.08,0.206,0.186,0.155,0.121,0.121
0.184,0.116,-0.068,-0.149,0.126,0.024,-0.09,0.224,0.217,0.191,0.151,0.14
0.205,0.14,-0.065,-0.172,0.135,0.038,-0.118,0.218,0.238,0.205,0.168,0.159
0.217,0.151,-0.066,-0.184,0.141,0.042,-0.138,0.208,0.252,0.224,0.19,0.185
0.202,0.139,-0.062,-0.17,0.132,0.038,-0.134,0.202,0.24,0.223,0.191,0.182
0.191,0.131,-0.06,-0.161,0.125,0.035,-0.125,0.192,0.217,0.2,0.174,0.174
0.164,0.119,-0.044,-0.141,0.104,0.037,-0.094,0.172,0.188,0.185,0.16,0.159
0.098,0.104,0.006,-0.101,0.045,0.055,-0.062,0.135,0.151,0.15,0.13,0.125
0.044,0.08,0.036,-0.063,0.004,0.058,-0.034,0.09,0.11,0.111,0.086,0.085
0.01,0.049,0.039,-0.03,-0.015,0.044,-0.011,0.057,0.066,0.069,0.038,0.052
-0.017,0.027,0.044,-0.005,-0.031,0.035,0.003,0.028,0.031,0.033,0.004,0.033
-0.032,0.011,0.043,0.01,-0.038,0.027,0.008,0.002,0.011,0.015,-0.01,0.014
-0.027,0.005,0.032,0.011,-0.03,0.018,0.01,-0.008,0.006,0.001,-0.016,-0.001
-0.042,0.0,0.043,0.021,-0.042,0.021,0.015,-0.014,0.001,-0.009,-0.023,-0.016
-0.068,-0.006,0.062,0.037,-0.064,0.028,0.019,-0.021,-0.002,-0.016,-0.031,-0.023
-0.069,-0.011,0.058,0.04,-0.064,0.023,0.02,-0.028,-0.008,-0.019,-0.038,-0.018
-0.071,-0.015,0.055,0.042,-0.062,0.02,0.02,-0.027,-0.009,-0.014,-0.037,-0.015
-0.067,-0.015,0.053,0.041,-0.06,0.019,0.02,-0.024,-0.005,-0.011,-0.034,-0.012
-0.064,-0.015,0.049,0.04,-0.056,0.016,0.02,-0.025,-0.005,-0.008,-0.031,-0.007
-0.067,-0.015,0.052,0.041,-0.059,0.018,0.02,-0.02,-0.005,-0.003,-0.028,-0.005
-0.074,-0.015,0.059,0.044,-0.066,0.022,0.02,-0.021,-0.005,0.0,-0.025,-0.005
-0.08,-0.015,0.065,0.047,-0.072,0.024,0.016,-0.019,-0.005,-0.004,-0.025,-0.005
-0.072,-0.011,0.06,0.041,-0.066,0.025,0.015,-0.015,-0.009,-0.009,-0.025,-0.005
-0.07,-0.01,0.06,0.04,-0.065,0.025,0.015,-0.015,-0.016,-0.013,-0.025,-0.005
-0.07,-0.01,0.06,0.04,-0.065,0.025,0.015,-0.015,-0.022,-0.015,-0.025,-0.005
-0.07,-0.01,0.06,0.04,-0.065,0.025,0.016,-0.016,-0.025,-0.015,-0.025,-0.008
-0.07,-0.01,0.061,0.04,-0.066,0.026,0.013,-0.013,-0.027,-0.015,-0.025,-0.01
-0.068,-0.011,0.057,0.04,-0.062,0.023,0.01,-0.029,-0.03,-0.015,-0.028,-0.01
-0.072,-0.017,0.055,0.044,-0.064,0.019,0.007,-0.042,-0.034,-0.015,-0.031,-0.01
-0.074,-0.023,0.051,0.048,-0.062,0.014,0.005,-0.039,-0.035,-0.015,-0.029,-0.01
-0.079,-0.029,0.05,0.054,-0.064,0.01,0.002,-0.04,-0.038,-0.019,-0.033,-0.009
-0.071,-0.027,0.045,0.049,-0.058,0.009,-0.001,-0.043,-0.044,-0.026,-0.045,-0.006
-0.071,-0.024,0.047,0.047,-0.058,0.011,0.004,-0.051,-0.047,-0.031,-0.045,-0.005
-0.092,-0.026,0.067,0.059,-0.079,0.02,0.005,-0.055,-0.052,-0.038,-0.046,-0.005
-0.096,-0.024,0.072,0.06,-0.083,0.023,0.005,-0.057,-0.055,-0.044,-0.051,-0.005
-0.099,-0.026,0.073,0.062,-0.086,0.024,0.005,-0.06,-0.055,-0.046,-0.049,-0.005
-0.1,-0.023,0.077,0.061,-0.088,0.027,0.005,-0.063,-0.055,-0.049,-0.053,-0.007
-0.1,-0.02,0.08,0.06,-0.09,0.03,0.005,-0.067,-0.055,-0.051,-0.056,-0.012
-0.099,-0.02,0.079,0.059,-0.089,0.029,0.005,-0.072,-0.059,-0.055,-0.054,-0.015
-0.093,-0.02,0.072,0.056,-0.083,0.026,0.005,-0.075,-0.06,-0.054,-0.056,-0.018
-0.086,-0.02,0.066,0.053,-0.076,0.023,0.005,-0.075,-0.06,-0.05,-0.054,-0.023
-0.079,-0.019,0.059,0.049,-0.069,0.02,0.005,-0.075,-0.065,-0.047,-0.056,-0.025
-0.081,-0.029,0.053,0.055,-0.067,0.012,0.004,-0.075,-0.065,-0.045,-0.052,-0.019
-0.072,-0.027,0.045,0.049,-0.058,0.009,0.01,-0.076,-0.064,-0.041,-0.044,-0.013
-0.075,-0.018,0.057,0.046,-0.066,0.019,0.019,-0.068,-0.055,-0.04,-0.036,-0.006
-0.08,-0.013,0.067,0.046,-0.073,0.027,0.028,-0.055,-0.046,-0.035,-0.027,0.001
-0.067,-0.003,0.064,0.034,-0.066,0.03,0.035,-0.027,-0.028,-0.019,-0.022,0.008
-0.053,0.012,0.065,0.02,-0.059,0.038,0.056,-0.003,0.002,-0.005,-0.002,0.016
-0.044,0.022,0.066,0.011,-0.056,0.044,0.075,0.013,0.03,0.024,0.01,0.022
-0.057,-0.006,0.051,0.031,-0.054,0.023,0.052,0.021,0.023,0.017,-0.005,0.029
-0.05,-0.032,0.019,0.041,-0.034,-0.006,0.014,-0.023,-0.036,-0.035,-0.031,0.021
-0.032,-0.028,0.004,0.03,-0.018,-0.012,-0.017,-0.061,-0.07,-0.047,-0.052,0.008
-0.025,-0.025,0.0,0.025,-0.012,-0.012,-0.037,-0.079,-0.072,-0.044,-0.05,-0.004
-0.003,-0.022,-0.019,0.013,0.008,-0.02,-0.033,-0.087,-0.08,-0.045,-0.05,-0.016
0.002,-0.017,-0.019,0.007,0.011,-0.018,-0.023,-0.084,-0.08,-0.045,-0.05,-0.009
-0.023,-0.015,0.008,0.019,-0.015,-0.003,-0.012,-0.084,-0.08,-0.044,-0.05,-0.001
-0.066,-0.022,0.045,0.044,-0.055,0.011,-0.008,-0.079,-0.08,-0.049,-0.05,-0.007
-0.107,-0.036,0.071,0.071,-0.089,0.017,-0.002,-0.081,-0.081,-0.056,-0.045,-0.014
-0.105,-0.037,0.068,0.071,-0.086,0.015,0.001,-0.077,-0.078,-0.055,-0.045,-0.024
-0.105,-0.033,0.072,0.069,-0.088,0.019,0.006,-0.075,-0.077,-0.054,-0.039,-0.03
-0.105,-0.037,0.068,0.071,-0.086,0.015,0.012,-0.067,-0.071,-0.049,-0.039,-0.034
-0.104,-0.032,0.073,0.068,-0.088,0.02,0.007,-0.071,-0.075,-0.051,-0.033,-0.028
-0.105,-0.04,0.066,0.072,-0.085,0.013,0.015,-0.056,-0.064,-0.051,-0.038,-0.031
-0.089,-0.024,0.065,0.057,-0.077,0.02,0.008,-0.068,-0.069,-0.058,-0.041,-0.03
-0.187,-0.011,0.176,0.099,-0.181,0.082,0.17,0.079,0.037,0.006,-0.006,-0.035
-0.103,0.05,0.153,0.026,-0.128,0.101,0.319,0.485,0.333,0.249,0.163,0.061
0.371,0.226,-0.145,-0.299,0.258,0.04,-0.053,0.448,0.541,0.589,0.568,0.462
0.632,0.294,-0.338,-0.463,0.485,-0.021,-0.507,-0.243,0.306,0.528,0.593,0.625
0.332,0.114,-0.218,-0.223,0.275,-0.052,-0.428,-0.848,-0.35,-0.069,0.063,0.232
0.001,-0.1,-0.101,0.05,0.051,-0.1,-0.206,-0.837,-0.639,-0.435,-0.253,-0.057
-0.043,-0.087,-0.044,0.065,0.001,-0.066,-0.158,-0.457,-0.388,-0.299,-0.193,-0.058
-0.08,-0.03,0.051,0.055,-0.065,0.01,-0.071,-0.173,-0.149,-0.102,-0.078,-0.036
-0.114,-0.047,0.067,0.08,-0.09,0.01,-0.008,-0.082,-0.085,-0.064,-0.047,-0.034
-0.1,-0.037,0.063,0.068,-0.082,0.013,0.003,-0.068,-0.09,-0.073,-0.041,-0.032
-0.104,-0.037,0.067,0.07,-0.085,0.015,0.016,-0.055,-0.073,-0.06,-0.034,-0.028
-0.096,-0.032,0.063,0.064,-0.079,0.015,0.017,-0.048,-0.067,-0.059,-0.034,-0.026
-0.095,-0.028,0.066,0.061,-0.08,0.019,0.027,-0.039,-0.06,-0.051,-0.027,-0.023
-0.086,-0.025,0.06,0.055,-0.073,0.017,0.032,-0.034,-0.054,-0.046,-0.026,-0.02
-0.081,-0.021,0.06,0.051,-0.071,0.019,0.033,-0.029,-0.05,-0.042,-0.021,-0.018
-0.079,-0.019,0.06,0.049,-0.07,0.02,0.029,-0.025,-0.043,-0.035,-0.017,-0.015
-0.075,-0.016,0.06,0.046,-0.067,0.021,0.027,-0.02,-0.04,-0.032,-0.014,-0.011
-0.074,-0.013,0.06,0.044,-0.067,0.023,0.024,-0.016,-0.03,-0.027,-0.011,-0.01
-0.069,-0.01,0.059,0.039,-0.064,0.024,0.021,-0.007,-0.024,-0.023,-0.006,-0.006
-0.062,-0.009,0.053,0.035,-0.057,0.022,0.019,0.006,-0.015,-0.018,-0.004,0.0
-0.05,-0.003,0.047,0.026,-0.048,0.022,0.015,0.022,-0.008,-0.008,0.005,0.006
-0.037,0.004,0.041,0.016,-0.039,0.022,0.006,0.04,0.002,0.004,0.014,0.011
-0.026,0.011,0.037,0.007,-0.031,0.024,0.002,0.056,0.025,0.021,0.027,0.017
-0.013,0.016,0.03,-0.002,-0.022,0.023,-0.007,0.081,0.049,0.042,0.043,0.027
0.016,0.037,0.021,-0.027,-0.002,0.028,-0.011,0.105,0.08,0.068,0.064,0.05
0.053,0.065,0.011,-0.059,0.021,0.038,-0.02,0.141,0.114,0.099,0.095,0.077
0.073,0.077,0.004,-0.075,0.034,0.04,-0.042,0.179,0.151,0.126,0.121,0.098
0.111,0.102,-0.009,-0.106,0.06,0.046,-0.056,0.207,0.185,0.158,0.149,0.126
0.156,0.132,-0.024,-0.144,0.09,0.054,-0.08,0.229,0.209,0.184,0.175,0.151
0.186,0.147,-0.039,-0.167,0.112,0.054,-0.1,0.233,0.226,0.205,0.198,0.167
0.214,0.161,-0.053,-0.187,0.133,0.054,-0.114,0.222,0.219,0.209,0.208,0.181
0.211,0.16,-0.051,-0.185,0.131,0.054,-0.113,0.21,0.209,0.2,0.199,0.181
0.194,0.153,-0.041,-0.173,0.117,0.056,-0.097,0.199,0.202,0.191,0.192,0.169
0.169,0.144,-0.025,-0.156,0.097,0.059,-0.087,0.166,0.179,0.171,0.186,0.154
0.11,0.115,0.005,-0.113,0.052,0.06,-0.068,0.124,0.141,0.138,0.163,0.126
0.049,0.085,0.036,-0.067,0.006,0.06,-0.041,0.085,0.1,0.1,0.129,0.089
0.001,0.056,0.054,-0.029,-0.027,0.055,-0.018,0.048,0.064,0.063,0.096,0.055
-0.044,0.031,0.075,0.006,-0.06,0.053,-0.009,0.022,0.037,0.037,0.073,0.031
-0.062,0.02,0.082,0.021,-0.072,0.051,-0.001,0.006,0.02,0.019,0.06,0.02
-0.063,0.016,0.079,0.023,-0.071,0.047,0.005,-0.011,0.004,0.002,0.047,0.017
-0.072,0.014,0.086,0.029,-0.079,0.049,0.008,-0.022,-0.006,-0.01,0.045,0.014
-0.075,0.009,0.084,0.032,-0.079,0.046,0.012,-0.02,-0.009,-0.019,0.045,0.009
-0.081,0.005,0.086,0.038,-0.084,0.046,0.015,-0.02,-0.015,-0.023,0.041,0.005
-0.083,0.007,0.09,0.038,-0.087,0.049,0.019,-0.02,-0.013,-0.02,0.039,0.005
-0.079,0.011,0.089,0.034,-0.084,0.05,0.023,-0.02,-0.01,-0.015,0.041,0.005
-0.08,0.013,0.093,0.033,-0.086,0.053,0.025,-0.02,-0.01,-0.013,0.044,0.005
-0.079,0.016,0.095,0.031,-0.088,0.056,0.025,-0.02,-0.01,-0.008,0.045,0.005
-0.076,0.019,0.095,0.028,-0.086,0.057,0.025,-0.02,-0.01,-0.005,0.048,0.005
-0.071,0.02,0.091,0.025,-0.081,0.055,0.025,-0.02,-0.01,-0.009,0.051,0.005
-0.07,0.02,0.09,0.025,-0.08,0.055,0.025,-0.02,-0.015,-0.01,0.047,0.0
-0.069,0.02,0.089,0.024,-0.079,0.055,0.02,-0.019,-0.015,-0.01,0.045,0.0
-0.066,0.02,0.086,0.023,-0.076,0.053,0.02,-0.022,-0.017,-0.015,0.045,-0.001
-0.064,0.02,0.084,0.021,-0.074,0.051,0.019,-0.025,-0.02,-0.015,0.041,-0.005
-0.07,0.02,0.09,0.024,-0.08,0.055,0.014,-0.026,-0.02,-0.016,0.04,-0.005
-0.084,0.018,0.102,0.033,-0.093,0.059,0.016,-0.03,-0.02,-0.022,0.039,-0.007
-0.083,0.014,0.098,0.034,-0.091,0.056,0.012,-0.03,-0.021,-0.026,0.036,-0.01
-0.08,0.015,0.096,0.032,-0.089,0.056,0.009,-0.034,-0.035,-0.03,0.033,-0.013
-0.077,0.015,0.092,0.031,-0.085,0.053,0.01,-0.041,-0.042,-0.035,0.031,-0.016
-0.075,0.015,0.091,0.03,-0.083,0.052,0.006,-0.046,-0.045,-0.035,0.027,-0.019
-0.072,0.015,0.087,0.029,-0.08,0.051,0.005,-0.05,-0.053,-0.037,0.025,-0.021
-0.069,0.01,0.079,0.029,-0.074,0.045,0.005,-0.052,-0.057,-0.045,0.022,-0.02
-0.082,0.01,0.092,0.035,-0.087,0.051,0.0,-0.055,-0.062,-0.045,0.02,-0.02
-0.088,0.009,0.096,0.039,-0.092,0.052,0.0,-0.059,-0.066,-0.047,0.02,-0.02
-0.089,0.005,0.094,0.041,-0.092,0.049,0.0,-0.06,-0.069,-0.051,0.016,-0.02
-0.091,0.004,0.096,0.043,-0.094,0.05,0.0,-0.064,-0.072,-0.05,0.014,-0.019
-0.087,0.008,0.094,0.039,-0.091,0.051,0.001,-0.065,-0.074,-0.054,0.015,-0.023
-0.085,0.01,0.095,0.037,-0.09,0.052,-0.003,-0.065,-0.078,-0.055,0.015,-0.032
-0.085,0.01,0.095,0.037,-0.09,0.052,-0.005,-0.069,-0.08,-0.055,0.015,-0.031
-0.081,0.014,0.095,0.033,-0.088,0.054,-0.005,-0.071,-0.078,-0.055,0.015,-0.03
-0.08,0.015,0.096,0.032,-0.088,0.056,-0.004,-0.069,-0.071,-0.054,0.015,-0.029
-0.079,0.015,0.094,0.031,-0.087,0.054,-0.006,-0.061,-0.067,-0.055,0.015,-0.024
-0.077,0.019,0.097,0.029,-0.087,0.058,-0.004,-0.053,-0.06,-0.054,0.017,-0.026
-0.064,0.024,0.088,0.019,-0.076,0.056,0.0,-0.045,-0.055,-0.056,0.027,-0.022
-0.062,0.024,0.086,0.019,-0.075,0.055,0.011,-0.038,-0.051,-0.05,0.035,-0.02
-0.063,0.039,0.102,0.012,-0.083,0.07,0.04,-0.023,-0.031,-0.019,0.044,-0.02
-0.042,0.051,0.093,-0.005,-0.068,0.072,0.061,0.015,-0.002,-0.004,0.051,-0.017
-0.038,0.041,0.079,-0.002,-0.059,0.06,0.071,0.038,0.017,0.004,0.057,-0.015
-0.037,0.034,0.071,0.001,-0.054,0.052,0.038,0.008,-0.01,-0.001,0.048,-0.015
-0.029,0.03,0.059,-0.001,-0.044,0.044,-0.007,-0.037,-0.058,-0.04,0.011,-0.025
-0.021,0.03,0.051,-0.005,-0.036,0.04,-0.023,-0.068,-0.082,-0.064,-0.007,-0.032
-0.016,0.031,0.047,-0.007,-0.031,0.039,-0.036,-0.083,-0.092,-0.071,-0.003,-0.029
-0.024,0.029,0.052,-0.003,-0.038,0.041,-0.032,-0.085,-0.094,-0.076,-0.007,-0.031
-0.02,0.032,0.052,-0.006,-0.036,0.041,-0.026,-0.086,-0.096,-0.074,-0.01,-0.03
-0.042,0.018,0.06,0.011,-0.051,0.039,-0.02,-0.083,-0.094,-0.075,-0.01,-0.03
-0.098,-0.007,0.091,0.052,-0.094,0.042,-0.016,-0.081,-0.097,-0.075,-0.012,-0.041
-0.113,-0.016,0.097,0.064,-0.105,0.04,-0.009,-0.079,-0.093,-0.069,-0.015,-0.05
-0.109,-0.014,0.095,0.061,-0.101,0.04,-0.007,-0.078,-0.094,-0.071,-0.019,-0.051
-0.121,-0.018,0.103,0.07,-0.112,0.042,0.0,-0.075,-0.086,-0.069,-0.019,-0.048
-0.116,-0.021,0.095,0.068,-0.106,0.037,0.0,-0.073,-0.085,-0.071,-0.026,-0.052
-0.118,-0.019,0.098,0.068,-0.108,0.039,0.006,-0.073,-0.081,-0.07,-0.023,-0.047
-0.1,-0.016,0.084,0.058,-0.092,0.034,0.01,-0.064,-0.073,-0.067,-0.023,-0.051
-0.113,0.014,0.127,0.05,-0.12,0.07,0.019,-0.06,-0.077,-0.065,-0.012,-0.029
-0.231,0.028,0.259,0.101,-0.246,0.144,0.228,0.178,0.103,0.043,0.038,-0.029
-0.032,0.114,0.147,-0.041,-0.09,0.13,0.28,0.541,0.392,0.308,0.266,0.103
0.512,0.286,-0.226,-0.399,0.369,0.03,-0.185,0.341,0.504,0.551,0.577,0.474
0.615,0.272,-0.343,-0.443,0.479,-0.036,-0.535,-0.447,0.082,0.275,0.382,0.448
0.226,0.05,-0.176,-0.138,0.201,-0.062,-0.382,-0.945,-0.544,-0.308,-0.109,0.05
-0.014,-0.09,-0.076,0.052,0.031,-0.083,-0.199,-0.749,-0.596,-0.446,-0.258,-0.108
-0.048,-0.058,-0.01,0.053,-0.019,-0.034,-0.143,-0.352,-0.308,-0.252,-0.15,-0.076
-0.068,-0.013,0.056,0.04,-0.062,0.021,-0.054,-0.127,-0.127,-0.122,-0.058,-0.053
-0.085,-0.005,0.079,0.044,-0.082,0.037,-0.007,-0.072,-0.097,-0.093,-0.032,-0.054
-0.092,-0.004,0.088,0.048,-0.09,0.042,0.007,-0.059,-0.092,-0.084,-0.021,-0.05
-0.089,-0.006,0.083,0.047,-0.086,0.039,0.012,-0.047,-0.075,-0.078,-0.018,-0.047
-0.09,-0.004,0.086,0.047,-0.087,0.041,0.014,-0.042,-0.076,-0.076,-0.014,-0.045
-0.091,-0.006,0.085,0.048,-0.088,0.04,0.021,-0.031,-0.067,-0.069,-0.008,-0.042
-0.086,-0.003,0.083,0.044,-0.084,0.04,0.024,-0.027,-0.064,-0.066,-0.005,-0.04
-0.078,0.003,0.081,0.038,-0.08,0.041,0.022,-0.019,-0.057,-0.061,0.0,-0.036
-0.071,0.006,0.077,0.032,-0.074,0.041,0.019,-0.013,-0.053,-0.056,0.003,-0.034
-0.064,0.012,0.075,0.025,-0.07,0.043,0.021,-0.006,-0.046,-0.051,0.007,-0.031
-0.056,0.014,0.071,0.021,-0.064,0.042,0.02,0.001,-0.04,-0.048,0.01,-0.029
-0.042,0.027,0.07,0.008,-0.056,0.048,0.02,0.01,-0.032,-0.042,0.015,-0.025
-0.04,0.041,0.082,-0.001,-0.061,0.061,0.019,0.014,-0.027,-0.039,0.017,-0.017
-0.035,0.044,0.079,-0.005,-0.058,0.061,0.012,0.032,-0.013,-0.027,0.027,-0.011
-0.017,0.049,0.066,-0.016,-0.042,0.057,0.006,0.057,0.008,-0.015,0.032,-0.004
-0.006,0.052,0.059,-0.023,-0.033,0.055,-0.001,0.072,0.021,-0.005,0.04,0.006
0.016,0.063,0.047,-0.04,-0.015,0.055,-0.007,0.101,0.053,0.03,0.055,0.028
0.032,0.07,0.039,-0.051,-0.004,0.054,-0.016,0.137,0.075,0.054,0.073,0.046
0.053,0.079,0.026,-0.066,0.013,0.052,-0.029,0.172,0.108,0.076,0.101,0.058
0.092,0.104,0.012,-0.099,0.04,0.058,-0.038,0.203,0.148,0.106,0.123,0.081
0.133,0.132,-0.001,-0.132,0.067,0.065,-0.057,0.241,0.175,0.136,0.146,0.102
0.181,0.151,-0.029,-0.165,0.105,0.061,-0.081,0.265,0.201,0.161,0.166,0.127
0.221,0.168,-0.052,-0.194,0.136,0.058,-0.104,0.259,0.196,0.154,0.165,0.141
0.243,0.18,-0.063,-0.211,0.153,0.059,-0.116,0.258,0.189,0.148,0.164,0.134
0.234,0.174,-0.06,-0.204,0.147,0.057,-0.104,0.247,0.183,0.141,0.158,0.126
0.202,0.161,-0.041,-0.182,0.121,0.06,-0.095,0.21,0.176,0.134,0.157,0.118
0.177,0.152,-0.025,-0.164,0.101,0.063,-0.084,0.164,0.152,0.127,0.147,0.111
0.129,0.13,0.001,-0.13,0.063,0.066,-0.06,0.117,0.109,0.089,0.111,0.089
0.05,0.09,0.04,-0.07,0.005,0.065,-0.037,0.074,0.077,0.043,0.081,0.055
0.013,0.062,0.049,-0.038,-0.018,0.055,-0.018,0.04,0.044,0.009,0.056,0.029
-0.017,0.047,0.064,-0.015,-0.041,0.056,-0.008,0.012,0.017,-0.009,0.031,0.011
-0.046,0.032,0.078,0.006,-0.062,0.055,-0.005,0.0,0.0,-0.018,0.019,0.004
-0.044,0.03,0.073,0.007,-0.058,0.051,0.001,-0.011,-0.016,-0.031,0.014,-0.005
-0.049,0.027,0.076,0.01,-0.063,0.051,0.003,-0.022,-0.027,-0.043,0.009,-0.014
-0.052,0.024,0.075,0.013,-0.064,0.049,0.017,-0.021,-0.037,-0.046,0.003,-0.025
-0.07,0.021,0.091,0.024,-0.081,0.056,0.027,-0.02,-0.041,-0.045,-0.003,-0.037
-0.07,0.019,0.089,0.026,-0.079,0.054,0.024,-0.02,-0.04,-0.043,-0.005,-0.036
-0.07,0.016,0.086,0.026,-0.079,0.051,0.025,-0.02,-0.038,-0.039,-0.005,-0.035
-0.07,0.013,0.083,0.028,-0.077,0.048,0.02,-0.021,-0.035,-0.04,-0.005,-0.034
-0.051,0.01,0.061,0.02,-0.056,0.035,0.02,-0.017,-0.035,-0.044,-0.005,-0.029
-0.068,0.008,0.076,0.03,-0.073,0.042,0.019,-0.015,-0.031,-0.045,-0.005,-0.031
-0.076,0.004,0.079,0.036,-0.078,0.041,0.014,-0.012,-0.029,-0.038,-0.005,-0.027
-0.084,0.009,0.094,0.037,-0.089,0.051,0.031,-0.009,-0.03,-0.035,-0.005,-0.025
-0.082,0.025,0.107,0.028,-0.095,0.066,0.035,-0.006,-0.03,-0.03,-0.005,-0.025
-0.068,0.027,0.095,0.02,-0.082,0.061,0.029,-0.005,-0.03,-0.024,-0.005,-0.021
-0.073,0.023,0.095,0.025,-0.085,0.059,0.027,-0.016,-0.031,-0.042,-0.005,-0.02
-0.067,0.021,0.088,0.023,-0.077,0.054,0.022,-0.021,-0.035,-0.052,-0.005,-0.019
-0.069,0.017,0.086,0.025,-0.077,0.051,0.02,-0.022,-0.037,-0.052,-0.007,-0.028
-0.075,0.015,0.09,0.03,-0.083,0.052,0.015,-0.034,-0.04,-0.057,-0.018,-0.037
-0.085,0.013,0.098,0.036,-0.092,0.055,0.015,-0.039,-0.048,-0.058,-0.027,-0.035
-0.091,0.007,0.098,0.041,-0.094,0.053,0.014,-0.04,-0.051,-0.063,-0.026,-0.033
-0.088,0.003,0.091,0.043,-0.09,0.047,0.01,-0.04,-0.05,-0.065,-0.024,-0.03
-0.088,-0.002,0.087,0.045,-0.087,0.042,0.01,-0.04,-0.05,-0.07,-0.026,-0.029
-0.087,-0.006,0.081,0.046,-0.083,0.037,0.01,-0.055,-0.061,-0.068,-0.024,-0.041
-0.086,-0.011,0.075,0.048,-0.081,0.032,0.01,-0.061,-0.065,-0.063,-0.029,-0.052
-0.082,-0.014,0.068,0.048,-0.075,0.027,0.01,-0.063,-0.066,-0.08,-0.048,-0.055
-0.101,-0.018,0.083,0.059,-0.091,0.032,0.01,-0.065,-0.083,-0.091,-0.057,-0.059
-0.111,-0.02,0.091,0.066,-0.101,0.035,0.01,-0.06,-0.086,-0.089,-0.06,-0.064
-0.103,-0.02,0.083,0.061,-0.093,0.031,0.01,-0.06,-0.084,-0.09,-0.061,-0.065
-0.108,-0.025,0.083,0.066,-0.095,0.029,0.01,-0.059,-0.085,-0.09,-0.059,-0.065
-0.101,-0.025,0.076,0.063,-0.088,0.025,0.01,-0.054,-0.085,-0.089,-0.06,-0.065
-0.101,-0.025,0.076,0.063,-0.088,0.025,0.01,-0.055,-0.084,-0.093,-0.06,-0.065
-0.101,-0.023,0.079,0.062,-0.09,0.028,0.01,-0.057,-0.079,-0.095,-0.06,-0.064
-0.094,-0.014,0.081,0.054,-0.087,0.033,0.01,-0.062,-0.08,-0.088,-0.06,-0.059
-0.084,-0.007,0.077,0.045,-0.08,0.035,0.012,-0.065,-0.075,-0.078,-0.06,-0.056
-0.069,0.003,0.072,0.033,-0.07,0.037,0.022,-0.055,-0.076,-0.067,-0.059,-0.053
-0.076,0.008,0.084,0.033,-0.08,0.046,0.028,-0.043,-0.065,-0.059,-0.032,-0.048
-0.078,0.028,0.105,0.025,-0.091,0.066,0.04,-0.021,-0.036,-0.053,-0.011,-0.045
-0.053,0.041,0.094,0.006,-0.074,0.067,0.06,-0.01,-0.027,-0.053,-0.01,-0.049
-0.038,0.022,0.06,0.007,-0.049,0.041,0.057,0.004,-0.01,-0.043,-0.011,-0.054
-0.036,0.007,0.043,0.014,-0.04,0.024,0.023,-0.01,-0.039,-0.054,-0.025,-0.057
-0.029,-0.002,0.027,0.015,-0.028,0.013,-0.006,-0.061,-0.085,-0.079,-0.043,-0.062
-0.039,-0.01,0.029,0.025,-0.034,0.009,-0.03,-0.076,-0.088,-0.082,-0.054,-0.065
-0.048,-0.02,0.028,0.034,-0.038,0.004,-0.045,-0.088,-0.103,-0.103,-0.055,-0.067
-0.046,-0.026,0.021,0.036,-0.033,-0.002,-0.038,-0.092,-0.106,-0.113,-0.055,-0.071
-0.046,-0.024,0.022,0.035,-0.034,-0.001,-0.027,-0.088,-0.104,-0.108,-0.055,-0.073
-0.068,-0.026,0.043,0.047,-0.055,0.008,-0.019,-0.091,-0.105,-0.111,-0.055,-0.076
-0.102,-0.024,0.078,0.063,-0.089,0.026,-0.014,-0.089,-0.105,-0.109,-0.055,-0.078
-0.1,-0.025,0.075,0.062,-0.087,0.025,-0.007,-0.091,-0.103,-0.11,-0.054,-0.087
-0.105,-0.032,0.073,0.068,-0.089,0.021,-0.005,-0.096,-0.101,-0.106,-0.066,-0.091
-0.111,-0.039,0.072,0.075,-0.091,0.017,0.005,-0.093,-0.097,-0.103,-0.073,-0.094
-0.1,-0.033,0.067,0.067,-0.083,0.016,0.004,-0.1,-0.103,-0.107,-0.067,-0.097
-0.105,-0.031,0.074,0.068,-0.089,0.021,0.015,-0.098,-0.096,-0.095,-0.057,-0.091
-0.083,-0.028,0.054,0.055,-0.068,0.012,0.011,-0.105,-0.105,-0.107,-0.055,-0.105
-0.149,-0.022,0.127,0.085,-0.137,0.052,0.065,-0.044,-0.06,-0.078,-0.043,-0.089
-0.235,-0.01,0.225,0.122,-0.23,0.108,0.285,0.303,0.182,0.071,0.029,-0.068
0.137,0.126,-0.011,-0.131,0.073,0.057,0.149,0.531,0.445,0.375,0.344,0.197
0.605,0.286,-0.319,-0.445,0.462,-0.016,-0.381,0.097,0.444,0.547,0.586,0.547
0.483,0.219,-0.265,-0.351,0.374,-0.023,-0.513,-0.605,-0.052,0.158,0.255,0.346
0.106,-0.019,-0.125,-0.043,0.115,-0.072,-0.242,-0.859,-0.548,-0.359,-0.191,-0.045
-0.073,-0.132,-0.059,0.103,-0.007,-0.095,-0.119,-0.622,-0.516,-0.445,-0.293,-0.169
-0.104,-0.082,0.022,0.093,-0.063,-0.03,-0.092,-0.286,-0.269,-0.245,-0.185,-0.139
-0.1,-0.046,0.054,0.073,-0.077,0.004,-0.017,-0.111,-0.12,-0.125,-0.103,-0.092
-0.094,-0.034,0.06,0.064,-0.076,0.012,0.011,-0.077,-0.102,-0.129,-0.089,-0.083
-0.096,-0.035,0.061,0.065,-0.078,0.012,0.023,-0.062,-0.096,-0.12,-0.082,-0.079
-0.096,-0.033,0.062,0.064,-0.079,0.014,0.022,-0.06,-0.091,-0.118,-0.087,-0.08
-0.095,-0.028,0.067,0.061,-0.081,0.019,0.017,-0.056,-0.092,-0.113,-0.084,-0.081
-0.095,-0.031,0.064,0.063,-0.079,0.016,0.015,-0.05,-0.084,-0.108,-0.086,-0.09
-0.093,-0.032,0.061,0.062,-0.076,0.014,0.01,-0.046,-0.087,-0.105,-0.084,-0.088
-0.094,-0.039,0.055,0.066,-0.074,0.008,0.007,-0.036,-0.079,-0.1,-0.08,-0.083
-0.09,-0.039,0.051,0.064,-0.071,0.006,0.005,-0.029,-0.073,-0.098,-0.078,-0.081
-0.079,-0.033,0.046,0.056,-0.062,0.006,0.016,-0.021,-0.064,-0.093,-0.074,-0.076
-0.07,-0.027,0.042,0.048,-0.056,0.007,0.017,-0.014,-0.056,-0.09,-0.072,-0.074
-0.059,-0.022,0.036,0.04,-0.047,0.007,0.011,-0.006,-0.048,-0.087,-0.07,-0.067
-0.047,-0.016,0.031,0.031,-0.039,0.007,0.007,0.008,-0.038,-0.082,-0.064,-0.061
-0.037,-0.011,0.026,0.024,-0.031,0.007,0.002,0.022,-0.025,-0.078,-0.051,-0.054
-0.025,-0.005,0.02,0.015,-0.022,0.007,-0.002,0.035,-0.01,-0.056,-0.04,-0.047
-0.01,0.005,0.015,0.002,-0.013,0.01,-0.007,0.059,0.014,-0.032,-0.036,-0.042
0.006,0.015,0.009,-0.011,-0.001,0.012,-0.016,0.08,0.04,-0.015,-0.022,-0.029
0.033,0.032,-0.001,-0.032,0.016,0.015,-0.029,0.109,0.064,0.017,0.013,-0.001
0.064,0.056,-0.008,-0.06,0.036,0.024,-0.039,0.148,0.102,0.046,0.04,0.023
0.103,0.074,-0.029,-0.088,0.066,0.022,-0.054,0.183,0.14,0.085,0.061,0.041
0.151,0.093,-0.058,-0.121,0.104,0.017,-0.079,0.204,0.178,0.123,0.094,0.068
0.193,0.121,-0.072,-0.157,0.132,0.024,-0.101,0.201,0.203,0.144,0.114,0.103
0.214,0.131,-0.083,-0.172,0.149,0.024,-0.125,0.194,0.212,0.156,0.131,0.12
0.201,0.124,-0.076,-0.162,0.138,0.024,-0.129,0.188,0.208,0.145,0.134,0.11
0.181,0.117,-0.064,-0.149,0.122,0.027,-0.12,0.181,0.198,0.135,0.122,0.099
0.166,0.111,-0.055,-0.138,0.11,0.027,-0.108,0.162,0.181,0.124,0.109,0.087
0.112,0.104,-0.008,-0.107,0.06,0.048,-0.077,0.128,0.137,0.099,0.076,0.07
0.046,0.07,0.024,-0.059,0.011,0.047,-0.039,0.091,0.094,0.06,0.04,0.041
0.011,0.037,0.026,-0.024,-0.008,0.032,-0.005,0.049,0.056,0.011,0.004,-0.003
-0.02,0.023,0.044,-0.002,-0.032,0.033,0.003,0.014,0.014,-0.027,-0.034,-0.043
-0.035,0.01,0.046,0.012,-0.041,0.028,0.007,-0.005,-0.012,-0.053,-0.063,-0.068
-0.052,-0.008,0.044,0.029,-0.048,0.018,0.012,-0.015,-0.024,-0.073,-0.077,-0.077
-0.071,-0.025,0.045,0.047,-0.058,0.01,0.016,-0.027,-0.041,-0.084,-0.091,-0.088
-0.07,-0.025,0.045,0.047,-0.057,0.01,0.021,-0.036,-0.051,-0.087,-0.1,-0.095
-0.069,-0.025,0.044,0.047,-0.056,0.009,0.024,-0.035,-0.046,-0.085,-0.1,-0.094
-0.06,-0.023,0.038,0.041,-0.049,0.007,0.025,-0.037,-0.045,-0.085,-0.103,-0.097
-0.061,-0.019,0.041,0.039,-0.051,0.011,0.025,-0.04,-0.045,-0.085,-0.106,-0.1
-0.073,-0.021,0.053,0.047,-0.063,0.016,0.025,-0.04,-0.045,-0.085,-0.102,-0.1
-0.082,-0.016,0.066,0.048,-0.073,0.025,0.024,-0.037,-0.045,-0.085,-0.1,-0.097
-0.077,-0.015,0.062,0.046,-0.069,0.023,0.028,-0.035,-0.045,-0.08,-0.1,-0.095
-0.073,-0.015,0.058,0.044,-0.065,0.021,0.03,-0.035,-0.045,-0.08,-0.096,-0.095
-0.071,-0.015,0.056,0.043,-0.063,0.02,0.031,-0.03,-0.045,-0.08,-0.095,-0.095
-0.063,-0.015,0.048,0.039,-0.055,0.016,0.035,-0.03,-0.045,-0.08,-0.095,-0.095
-0.078,-0.016,0.062,0.047,-0.07,0.022,0.035,-0.03,-0.045,-0.08,-0.09,-0.096
-0.097,-0.02,0.076,0.058,-0.086,0.027,0.03,-0.03,-0.045,-0.082,-0.09,-0.099
-0.097,-0.02,0.077,0.058,-0.087,0.028,0.027,-0.03,-0.049,-0.087,-0.09,-0.1
-0.1,-0.02,0.08,0.06,-0.09,0.03,0.024,-0.029,-0.052,-0.092,-0.09,-0.1
-0.104,-0.02,0.084,0.062,-0.094,0.031,0.019,-0.041,-0.058,-0.094,-0.09,-0.1
-0.105,-0.02,0.085,0.062,-0.095,0.032,0.016,-0.052,-0.07,-0.091,-0.092,-0.099
-0.106,-0.024,0.082,0.065,-0.094,0.029,0.012,-0.054,-0.075,-0.088,-0.097,-0.103
-0.102,-0.025,0.077,0.063,-0.089,0.025,0.01,-0.058,-0.078,-0.101,-0.1,-0.105
-0.1,-0.025,0.075,0.062,-0.087,0.025,0.01,-0.065,-0.083,-0.119,-0.106,-0.104
-0.095,-0.025,0.07,0.06,-0.082,0.022,0.01,-0.073,-0.085,-0.123,-0.113,-0.109
-0.092,-0.025,0.067,0.058,-0.079,0.021,0.01,-0.076,-0.086,-0.126,-0.117,-0.11
-0.089,-0.025,0.064,0.057,-0.076,0.019,0.01,-0.074,-0.09,-0.124,-0.122,-0.11
-0.079,-0.025,0.054,0.052,-0.066,0.014,0.015,-0.077,-0.1,-0.127,-0.125,-0.115
-0.097,-0.025,0.072,0.061,-0.084,0.023,0.015,-0.094,-0.11,-0.135,-0.125,-0.115
-0.108,-0.025,0.083,0.066,-0.095,0.028,0.016,-0.095,-0.11,-0.135,-0.125,-0.115
-0.1,-0.025,0.075,0.062,-0.087,0.025,0.02,-0.09,-0.11,-0.135,-0.125,-0.115
-0.101,-0.025,0.075,0.062,-0.087,0.025,0.02,-0.089,-0.11,-0.135,-0.125,-0.115
-0.091,-0.021,0.07,0.056,-0.08,0.024,0.017,-0.085,-0.109,-0.135,-0.125,-0.115
-0.09,-0.02,0.07,0.055,-0.08,0.025,0.015,-0.084,-0.113,-0.135,-0.122,-0.115
-0.094,-0.02,0.074,0.056,-0.084,0.027,0.015,-0.08,-0.115,-0.135,-0.119,-0.115
-0.093,-0.015,0.077,0.054,-0.085,0.031,0.011,-0.08,-0.115,-0.135,-0.12,-0.115
-0.096,-0.015,0.081,0.055,-0.088,0.033,0.01,-0.08,-0.118,-0.135,-0.12,-0.115
-0.099,-0.014,0.084,0.056,-0.091,0.035,0.01,-0.08,-0.121,-0.135,-0.12,-0.115
-0.092,-0.005,0.087,0.048,-0.089,0.041,0.019,-0.08,-0.119,-0.135,-0.119,-0.115
-0.089,0.003,0.092,0.043,-0.09,0.047,0.032,-0.074,-0.104,-0.124,-0.112,-0.112
-0.083,0.012,0.095,0.035,-0.089,0.053,0.043,-0.053,-0.075,-0.102,-0.098,-0.104
-0.054,0.034,0.088,0.01,-0.071,0.061,0.053,-0.032,-0.061,-0.084,-0.089,-0.097
-0.041,0.036,0.077,0.002,-0.059,0.056,0.057,-0.005,-0.041,-0.086,-0.083,-0.099
-0.043,0.024,0.067,0.009,-0.056,0.046,0.051,0.007,-0.032,-0.091,-0.081,-0.105
-0.038,0.02,0.058,0.009,-0.048,0.039,0.016,-0.048,-0.091,-0.108,-0.095,-0.102
-0.039,0.008,0.047,0.015,-0.043,0.027,-0.02,-0.085,-0.118,-0.13,-0.104,-0.1
-0.03,0.008,0.038,0.011,-0.035,0.023,-0.032,-0.107,-0.129,-0.133,-0.101,-0.1
-0.011,0.017,0.028,-0.003,-0.02,0.022,-0.054,-0.129,-0.149,-0.136,-0.097,-0.1
-0.014,0.025,0.039,-0.006,-0.026,0.032,-0.06,-0.119,-0.143,-0.139,-0.095,-0.1
-0.039,0.034,0.073,0.002,-0.056,0.054,-0.029,-0.121,-0.146,-0.141,-0.088,-0.099
-0.063,0.027,0.091,0.017,-0.077,0.059,-0.017,-0.119,-0.144,-0.145,-0.102,-0.111
-0.075,0.022,0.097,0.026,-0.086,0.059,-0.016,-0.116,-0.146,-0.144,-0.117,-0.111
-0.077,0.013,0.09,0.032,-0.084,0.051,-0.007,-0.115,-0.141,-0.139,-0.114,-0.11
-0.083,0.007,0.09,0.038,-0.087,0.048,-0.008,-0.114,-0.14,-0.139,-0.116,-0.11
-0.088,-0.003,0.085,0.045,-0.087,0.041,0.003,-0.109,-0.14,-0.133,-0.113,-0.11
-0.086,-0.002,0.083,0.043,-0.084,0.04,-0.006,-0.11,-0.14,-0.133,-0.117,-0.111
-0.092,0.005,0.097,0.043,-0.095,0.051,-0.004,-0.11,-0.141,-0.128,-0.108,-0.111
-0.081,0.007,0.089,0.037,-0.085,0.048,-0.004,-0.11,-0.136,-0.128,-0.114,-0.121
-0.118,0.033,0.152,0.042,-0.135,0.092,0.035,-0.076,-0.105,-0.108,-0.101,-0.094
-0.198,0.028,0.226,0.084,-0.212,0.127,0.256,0.241,0.109,0.024,-0.035,-0.101
0.083,0.155,0.072,-0.119,0.006,0.113,0.185,0.522,0.406,0.339,0.271,0.121
0.562,0.337,-0.225,-0.449,0.393,0.056,-0.341,0.142,0.463,0.598,0.622,0.541
0.538,0.276,-0.261,-0.407,0.399,0.008,-0.545,-0.573,0.006,0.26,0.334,0.417
0.159,0.043,-0.116,-0.101,0.137,-0.036,-0.296,-0.881,-0.576,-0.339,-0.185,-0.023
-0.043,-0.085,-0.042,0.065,0.0,-0.064,-0.153,-0.665,-0.598,-0.469,-0.314,-0.161
-0.075,-0.025,0.05,0.05,-0.062,0.012,-0.118,-0.317,-0.307,-0.257,-0.2,-0.136
-0.096,-0.001,0.095,0.048,-0.095,0.047,-0.039,-0.128,-0.153,-0.123,-0.097,-0.127
-0.099,-0.006,0.093,0.052,-0.096,0.043,-0.009,-0.093,-0.13,-0.123,-0.109,-0.121
-0.09,0.008,0.097,0.04,-0.094,0.052,0.001,-0.076,-0.124,-0.12,-0.109,-0.114
-0.082,0.007,0.09,0.037,-0.086,0.048,0.0,-0.06,-0.114,-0.114,-0.101,-0.107
-0.074,0.017,0.091,0.029,-0.083,0.054,0.002,-0.052,-0.111,-0.113,-0.101,-0.101
-0.071,0.018,0.089,0.026,-0.08,0.053,0.007,-0.044,-0.101,-0.107,-0.092,-0.096
-0.063,0.023,0.086,0.02,-0.075,0.054,0.004,-0.041,-0.097,-0.104,-0.091,-0.095
-0.059,0.026,0.085,0.016,-0.072,0.055,0.003,-0.034,-0.091,-0.095,-0.083,-0.095
-0.056,0.029,0.085,0.013,-0.071,0.057,-0.002,-0.029,-0.084,-0.09,-0.079,-0.09
-0.052,0.033,0.085,0.009,-0.069,0.059,-0.004,-0.024,-0.078,-0.082,-0.072,-0.09
-0.05,0.035,0.085,0.007,-0.068,0.06,-0.007,-0.015,-0.071,-0.077,-0.067,-0.089
-0.048,0.035,0.083,0.006,-0.066,0.059,-0.01,-0.005,-0.064,-0.07,-0.062,-0.081
-0.035,0.041,0.076,-0.003,-0.056,0.058,-0.011,0.005,-0.058,-0.062,-0.054,-0.073
-0.024,0.047,0.071,-0.012,-0.048,0.059,-0.018,0.017,-0.047,-0.053,-0.047,-0.064
-0.012,0.053,0.066,-0.021,-0.039,0.059,-0.023,0.029,-0.032,-0.033,-0.041,-0.058
0.01,0.07,0.06,-0.04,-0.025,0.065,-0.027,0.048,-0.014,-0.013,-0.023,-0.044
0.025,0.08,0.055,-0.053,-0.015,0.067,-0.035,0.075,0.015,0.009,0.005,-0.022
0.04,0.086,0.046,-0.063,-0.003,0.066,-0.037,0.107,0.049,0.036,0.028,-0.003
0.07,0.103,0.033,-0.086,0.018,0.068,-0.053,0.14,0.085,0.071,0.047,0.016
0.114,0.136,0.022,-0.125,0.046,0.079,-0.072,0.174,0.126,0.104,0.077,0.044
0.155,0.157,0.002,-0.156,0.076,0.079,-0.092,0.204,0.16,0.14,0.117,0.076
0.195,0.173,-0.022,-0.183,0.108,0.075,-0.118,0.214,0.184,0.165,0.143,0.092
0.239,0.2,-0.039,-0.219,0.139,0.081,-0.132,0.211,0.183,0.181,0.156,0.115
0.25,0.208,-0.043,-0.229,0.146,0.082,-0.131,0.201,0.173,0.191,0.152,0.123
0.227,0.194,-0.032,-0.21,0.129,0.081,-0.119,0.194,0.164,0.177,0.145,0.108
0.201,0.178,-0.024,-0.189,0.112,0.077,-0.111,0.176,0.156,0.158,0.141,0.098
0.154,0.159,0.005,-0.156,0.075,0.081,-0.094,0.142,0.14,0.127,0.121,0.076
0.097,0.137,0.04,-0.117,0.028,0.089,-0.071,0.106,0.097,0.089,0.089,0.044
0.065,0.118,0.053,-0.092,0.006,0.085,-0.042,0.064,0.059,0.059,0.051,0.011
0.023,0.098,0.074,-0.061,-0.026,0.086,-0.02,0.029,0.031,0.029,0.022,-0.012
-0.018,0.077,0.095,-0.03,-0.056,0.086,-0.015,0.011,0.002,0.009,0.003,-0.028
-0.026,0.068,0.095,-0.021,-0.061,0.081,-0.008,0.001,-0.015,-0.003,-0.015,-0.043
-0.032,0.064,0.096,-0.016,-0.065,0.08,-0.004,-0.004,-0.025,-0.015,-0.031,-0.052
-0.041,0.059,0.1,-0.009,-0.071,0.08,0.001,-0.009,-0.038,-0.023,-0.036,-0.062
-0.045,0.055,0.1,-0.005,-0.073,0.077,0.006,-0.012,-0.043,-0.02,-0.035,-0.061
-0.048,0.05,0.098,-0.002,-0.073,0.074,0.01,-0.018,-0.037,-0.02,-0.035,-0.059
-0.041,0.053,0.094,-0.006,-0.068,0.073,0.015,-0.019,-0.033,-0.02,-0.035,-0.061
-0.035,0.057,0.092,-0.011,-0.064,0.074,0.019,-0.014,-0.029,-0.02,-0.035,-0.059
-0.029,0.059,0.089,-0.015,-0.059,0.074,0.02,-0.011,-0.024,-0.02,-0.033,-0.061
-0.023,0.063,0.086,-0.02,-0.055,0.074,0.02,-0.008,-0.02,-0.017,-0.027,-0.057
-0.019,0.065,0.084,-0.023,-0.052,0.074,0.02,-0.003,-0.015,-0.012,-0.022,-0.051
-0.012,0.069,0.081,-0.028,-0.047,0.075,0.02,0.0,-0.015,-0.009,-0.019,-0.046
-0.009,0.07,0.08,-0.03,-0.045,0.075,0.019,-0.004,-0.014,-0.006,-0.013,-0.041
-0.014,0.066,0.08,-0.026,-0.047,0.073,0.015,-0.005,-0.01,-0.001,-0.011,-0.035
-0.02,0.061,0.081,-0.021,-0.05,0.071,0.015,-0.005,-0.01,-0.001,-0.014,-0.031
-0.022,0.056,0.078,-0.017,-0.05,0.067,0.013,-0.01,-0.012,-0.006,-0.016,-0.034
-0.041,0.053,0.093,-0.006,-0.067,0.073,0.009,-0.01,-0.019,-0.011,-0.014,-0.038
-0.061,0.047,0.108,0.007,-0.084,0.077,0.01,-0.011,-0.026,-0.015,-0.016,-0.04
-0.055,0.046,0.101,0.004,-0.079,0.074,0.006,-0.018,-0.032,-0.02,-0.014,-0.043
-0.048,0.052,0.1,-0.002,-0.074,0.076,0.005,-0.024,-0.039,-0.024,-0.019,-0.046
-0.048,0.049,0.097,-0.001,-0.072,0.073,0.005,-0.029,-0.045,-0.029,-0.036,-0.05
-0.048,0.046,0.094,0.001,-0.072,0.07,0.005,-0.032,-0.05,-0.033,-0.036,-0.049
-0.049,0.043,0.092,0.003,-0.071,0.068,0.005,-0.037,-0.05,-0.038,-0.035,-0.058
-0.049,0.04,0.088,0.004,-0.069,0.064,0.005,-0.04,-0.05,-0.041,-0.034,-0.067
-0.046,0.04,0.086,0.003,-0.066,0.063,0.005,-0.04,-0.05,-0.045,-0.03,-0.062
-0.043,0.04,0.083,0.001,-0.063,0.061,0.005,-0.04,-0.052,-0.048,-0.03,-0.06
-0.041,0.04,0.081,0.0,-0.061,0.06,0.005,-0.04,-0.058,-0.052,-0.032,-0.056
-0.038,0.04,0.078,-0.001,-0.058,0.059,0.005,-0.04,-0.062,-0.055,-0.043,-0.054
-0.036,0.04,0.075,-0.003,-0.055,0.057,0.005,-0.044,-0.065,-0.051,-0.05,-0.055
-0.032,0.04,0.072,-0.004,-0.052,0.056,0.008,-0.046,-0.065,-0.05,-0.05,-0.055
-0.034,0.036,0.07,-0.001,-0.052,0.053,0.011,-0.045,-0.065,-0.05,-0.05,-0.055
-0.032,0.035,0.066,-0.002,-0.05,0.05,0.014,-0.045,-0.065,-0.05,-0.05,-0.055
-0.03,0.035,0.065,-0.003,-0.048,0.05,0.017,-0.044,-0.065,-0.05,-0.05,-0.055
-0.031,0.03,0.062,0.0,-0.047,0.046,0.02,-0.046,-0.065,-0.051,-0.053,-0.056
-0.03,0.03,0.059,0.0,-0.045,0.045,0.019,-0.05,-0.062,-0.055,-0.055,-0.06
-0.028,0.03,0.058,-0.001,-0.043,0.044,0.015,-0.05,-0.059,-0.055,-0.055,-0.06
-0.023,0.03,0.053,-0.004,-0.038,0.041,0.013,-0.05,-0.06,-0.055,-0.055,-0.06
-0.029,0.03,0.059,-0.001,-0.044,0.044,0.01,-0.05,-0.059,-0.055,-0.055,-0.06
-0.04,0.03,0.07,0.005,-0.055,0.05,0.007,-0.05,-0.061,-0.055,-0.055,-0.06
-0.04,0.03,0.07,0.005,-0.055,0.05,0.004,-0.046,-0.059,-0.052,-0.05,-0.056
-0.04,0.03,0.07,0.005,-0.055,0.05,0.01,-0.04,-0.056,-0.049,-0.05,-0.055
-0.044,0.027,0.07,0.009,-0.058,0.048,0.019,-0.035,-0.053,-0.046,-0.049,-0.055
-0.045,0.024,0.07,0.011,-0.058,0.046,0.02,-0.029,-0.051,-0.044,-0.045,-0.05
-0.047,0.021,0.068,0.013,-0.058,0.044,0.021,-0.023,-0.047,-0.04,-0.045,-0.05
-0.046,0.018,0.064,0.013,-0.055,0.041,0.024,-0.02,-0.044,-0.041,-0.042,-0.049
-0.05,0.015,0.065,0.017,-0.058,0.04,0.025,-0.035,-0.055,-0.042,-0.04,-0.043
-0.043,0.016,0.059,0.013,-0.052,0.037,0.025,-0.038,-0.051,-0.037,-0.04,-0.036
-0.01,0.05,0.06,-0.02,-0.036,0.054,0.03,-0.002,-0.022,-0.034,-0.041,-0.029
-0.012,0.076,0.087,-0.032,-0.05,0.081,0.063,0.028,0.002,-0.01,-0.022,-0.023
-0.02,0.07,0.09,-0.025,-0.055,0.08,0.089,0.042,0.017,0.01,-0.003,-0.016
-0.004,0.07,0.075,-0.033,-0.039,0.072,0.077,0.055,0.032,0.019,-0.013,-0.018
0.005,0.068,0.064,-0.037,-0.03,0.066,0.048,0.054,0.018,0.023,-0.023,-0.024
0.008,0.065,0.057,-0.037,-0.025,0.061,0.013,0.003,-0.025,-0.008,-0.032,-0.027
0.035,0.062,0.027,-0.049,0.004,0.044,-0.011,-0.052,-0.056,-0.042,-0.046,-0.032
0.049,0.06,0.011,-0.054,0.019,0.035,-0.024,-0.061,-0.067,-0.051,-0.049,-0.037
0.048,0.057,0.009,-0.052,0.019,0.032,-0.032,-0.06,-0.064,-0.05,-0.036,-0.04
0.048,0.054,0.007,-0.051,0.02,0.03,-0.013,-0.058,-0.065,-0.05,-0.033,-0.041
-0.001,0.054,0.055,-0.027,-0.028,0.054,0.013,-0.054,-0.065,-0.049,-0.042,-0.044
-0.036,0.027,0.063,0.005,-0.05,0.044,0.015,-0.055,-0.065,-0.051,-0.053,-0.046
-0.049,0.009,0.058,0.02,-0.053,0.034,0.014,-0.052,-0.062,-0.046,-0.061,-0.04
-0.048,0.01,0.058,0.018,-0.053,0.034,0.016,-0.046,-0.058,-0.045,-0.062,-0.041
-0.044,0.01,0.054,0.016,-0.049,0.031,0.013,-0.046,-0.058,-0.045,-0.059,-0.04
-0.044,0.01,0.054,0.017,-0.049,0.031,0.019,-0.038,-0.05,-0.04,-0.061,-0.04
-0.05,0.01,0.06,0.019,-0.055,0.035,0.017,-0.04,-0.054,-0.041,-0.06,-0.041
-0.051,0.01,0.061,0.021,-0.056,0.035,0.041,-0.029,-0.044,-0.038,-0.059,-0.039
-0.03,0.0,0.03,0.014,-0.03,0.015,0.025,-0.035,-0.059,-0.052,-0.057,-0.042
-0.121,0.015,0.136,0.053,-0.129,0.076,0.114,0.048,0.015,0.003,-0.021,-0.038
-0.149,0.052,0.202,0.048,-0.176,0.127,0.337,0.412,0.274,0.185,0.073,-0.011
0.272,0.19,-0.082,-0.231,0.176,0.054,0.116,0.561,0.504,0.484,0.402,0.29
0.716,0.327,-0.389,-0.521,0.552,-0.031,-0.413,0.014,0.419,0.566,0.571,0.58
0.523,0.197,-0.327,-0.36,0.425,-0.065,-0.493,-0.704,-0.167,0.08,0.153,0.309
0.13,-0.032,-0.162,-0.049,0.146,-0.096,-0.24,-0.865,-0.601,-0.388,-0.25,-0.049
0.006,-0.079,-0.086,0.037,0.047,-0.082,-0.139,-0.522,-0.44,-0.343,-0.257,-0.107
-0.012,-0.024,-0.012,0.018,0.001,-0.018,-0.067,-0.18,-0.168,-0.126,-0.126,-0.056
-0.005,-0.007,-0.002,0.006,-0.001,-0.004,0.025,-0.046,-0.057,-0.051,-0.07,-0.026
-0.029,-0.012,0.017,0.02,-0.023,0.003,0.036,-0.017,-0.056,-0.051,-0.063,-0.033
-0.044,-0.01,0.034,0.027,-0.039,0.012,0.045,-0.004,-0.05,-0.036,-0.056,-0.028
-0.038,-0.01,0.027,0.024,-0.032,0.009,0.049,0.0,-0.042,-0.028,-0.057,-0.025
-0.038,-0.006,0.032,0.022,-0.035,0.012,0.053,0.008,-0.038,-0.024,-0.051,-0.022
-0.033,-0.005,0.029,0.019,-0.03,0.011,0.059,0.013,-0.026,-0.025,-0.051,-0.017
-0.036,-0.005,0.031,0.021,-0.033,0.013,0.058,0.027,-0.021,-0.021,-0.048,-0.015
-0.028,0.0,0.027,0.014,-0.028,0.013,0.055,0.043,-0.011,-0.019,-0.041,-0.01
-0.022,0.0,0.022,0.011,-0.022,0.011,0.055,0.047,-0.007,-0.02,-0.034,-0.007
-0.018,0.0,0.017,0.009,-0.017,0.008,0.053,0.051,-0.001,-0.013,-0.028,-0.003
-0.014,0.0,0.014,0.006,-0.014,0.007,0.049,0.056,0.002,-0.006,-0.021,0.001
-0.009,-0.001,0.008,0.005,-0.008,0.004,0.051,0.059,0.007,0.001,-0.015,0.004
-0.003,0.003,0.005,-0.001,-0.004,0.004,0.046,0.073,0.019,0.009,-0.006,0.008
0.024,0.012,-0.013,-0.018,0.018,0.0,0.043,0.094,0.033,0.026,0.007,0.017
0.048,0.021,-0.027,-0.034,0.037,-0.003,0.04,0.109,0.049,0.041,0.018,0.028
0.052,0.028,-0.023,-0.039,0.037,0.002,0.037,0.129,0.071,0.061,0.037,0.036
0.08,0.042,-0.038,-0.06,0.059,0.002,0.033,0.159,0.097,0.084,0.053,0.052
0.1,0.053,-0.048,-0.076,0.074,0.002,0.021,0.189,0.123,0.107,0.071,0.061
0.135,0.075,-0.06,-0.105,0.097,0.007,0.006,0.223,0.165,0.143,0.095,0.08
0.181,0.106,-0.075,-0.144,0.128,0.015,-0.006,0.264,0.201,0.175,0.121,0.109
0.202,0.121,-0.081,-0.161,0.141,0.02,-0.021,0.296,0.237,0.207,0.154,0.13
0.246,0.14,-0.106,-0.193,0.175,0.017,-0.046,0.306,0.258,0.235,0.182,0.162
0.29,0.16,-0.13,-0.225,0.21,0.014,-0.071,0.295,0.246,0.245,0.192,0.177
0.293,0.162,-0.131,-0.227,0.212,0.015,-0.086,0.285,0.239,0.242,0.184,0.171
0.278,0.153,-0.125,-0.216,0.202,0.014,-0.084,0.274,0.231,0.235,0.171,0.166
0.251,0.142,-0.109,-0.196,0.18,0.016,-0.069,0.245,0.223,0.212,0.161,0.16
0.203,0.129,-0.074,-0.166,0.138,0.027,-0.039,0.206,0.191,0.172,0.143,0.143
0.143,0.104,-0.04,-0.123,0.092,0.032,-0.009,0.16,0.15,0.137,0.113,0.114
0.092,0.065,-0.027,-0.078,0.059,0.019,0.015,0.12,0.118,0.104,0.082,0.089
0.059,0.041,-0.018,-0.049,0.038,0.011,0.034,0.088,0.08,0.078,0.054,0.059
0.042,0.035,-0.007,-0.038,0.024,0.014,0.041,0.063,0.048,0.057,0.032,0.034
0.024,0.025,0.0,-0.024,0.012,0.012,0.045,0.05,0.023,0.044,0.022,0.026
0.007,0.017,0.011,-0.012,-0.002,0.014,0.045,0.045,0.014,0.039,0.016,0.021
0.002,0.015,0.013,-0.008,-0.006,0.014,0.047,0.037,0.016,0.034,0.009,0.016
0.003,0.012,0.009,-0.007,-0.003,0.01,0.051,0.029,0.012,0.028,0.002,0.01
0.003,0.009,0.006,-0.007,-0.001,0.007,0.05,0.022,0.01,0.022,-0.004,0.006
0.003,0.005,0.003,-0.004,0.0,0.004,0.05,0.023,0.01,0.022,-0.002,0.01
0.007,0.005,-0.001,-0.006,0.003,0.002,0.05,0.031,0.013,0.025,0.003,0.015
-0.004,0.009,0.013,-0.003,-0.008,0.011,0.049,0.036,0.016,0.025,0.005,0.019
-0.015,0.012,0.027,0.001,-0.021,0.019,0.052,0.041,0.019,0.025,0.01,0.024
-0.01,0.015,0.025,-0.003,-0.018,0.02,0.06,0.044,0.022,0.036,0.013,0.028
-0.008,0.017,0.025,-0.005,-0.017,0.021,0.06,0.045,0.024,0.046,0.016,0.033
-0.004,0.021,0.025,-0.009,-0.015,0.022,0.06,0.045,0.028,0.045,0.022,0.035
-0.008,0.017,0.025,-0.006,-0.017,0.021,0.06,0.045,0.03,0.045,0.028,0.035
-0.011,0.014,0.025,-0.002,-0.018,0.02,0.06,0.045,0.033,0.045,0.034,0.038
-0.004,0.015,0.019,-0.006,-0.012,0.017,0.06,0.045,0.035,0.045,0.031,0.041
0.001,0.015,0.014,-0.008,-0.007,0.014,0.06,0.044,0.031,0.043,0.024,0.039
0.007,0.015,0.009,-0.011,-0.001,0.012,0.06,0.037,0.024,0.036,0.02,0.036
0.011,0.014,0.003,-0.013,0.004,0.008,0.06,0.033,0.018,0.029,0.014,0.031
0.014,0.011,-0.003,-0.012,0.009,0.003,0.06,0.027,0.011,0.022,0.008,0.029
0.011,0.008,-0.003,-0.009,0.007,0.002,0.06,0.021,0.004,0.016,0.005,0.024
0.005,0.005,0.001,-0.005,0.001,0.003,0.056,0.016,-0.001,0.01,0.005,0.021
0.003,0.002,-0.001,-0.003,0.002,0.001,0.054,0.011,-0.004,0.005,0.005,0.018
-0.004,0.0,0.004,0.002,-0.004,0.002,0.055,0.009,-0.007,0.005,0.005,0.015
-0.007,-0.002,0.005,0.004,-0.006,0.001,0.055,0.006,-0.012,0.005,0.005,0.012
-0.011,-0.005,0.005,0.008,-0.007,0.0,0.056,0.003,-0.014,0.005,0.005,0.009
-0.019,-0.008,0.011,0.013,-0.015,0.001,0.053,0.0,-0.02,0.006,0.002,0.006
-0.027,-0.011,0.016,0.019,-0.022,0.002,0.05,0.0,-0.027,0.002,-0.004,0.004
-0.037,-0.014,0.023,0.025,-0.029,0.004,0.05,0.0,-0.035,0.0,-0.008,0.001
-0.039,-0.015,0.023,0.027,-0.03,0.004,0.05,0.0,-0.038,0.0,-0.013,0.0
-0.034,-0.015,0.019,0.024,-0.026,0.002,0.05,0.0,-0.034,-0.004,-0.017,0.0
-0.032,-0.015,0.017,0.023,-0.024,0.001,0.05,0.0,-0.028,-0.005,-0.022,0.0
-0.029,-0.015,0.014,0.022,-0.021,-0.001,0.053,0.0,-0.025,-0.005,-0.025,0.0
-0.025,-0.015,0.011,0.02,-0.018,-0.002,0.056,0.0,-0.02,-0.01,-0.025,-0.002
-0.025,-0.016,0.01,0.02,-0.017,-0.002,0.059,0.0,-0.014,-0.01,-0.028,-0.005
-0.005,-0.012,-0.007,0.009,0.001,-0.009,0.062,0.0,-0.023,-0.01,-0.03,-0.008
0.013,-0.01,-0.022,-0.001,0.017,-0.016,0.065,0.0,-0.032,-0.01,-0.03,-0.011
0.009,-0.01,-0.019,0.0,0.014,-0.015,0.064,0.0,-0.029,-0.009,-0.026,-0.015
0.007,-0.01,-0.017,0.002,0.012,-0.013,0.059,-0.001,-0.026,-0.013,-0.025,-0.015
0.004,-0.01,-0.014,0.004,0.009,-0.012,0.061,-0.005,-0.024,-0.015,-0.025,-0.01
0.001,-0.01,-0.011,0.004,0.006,-0.01,0.057,-0.005,-0.019,-0.015,-0.025,-0.01
-0.012,-0.022,-0.01,0.017,-0.001,-0.015,0.055,-0.005,-0.023,-0.018,-0.026,-0.01
-0.028,-0.031,-0.003,0.03,-0.012,-0.017,0.055,-0.005,-0.032,-0.021,-0.022,-0.01
-0.034,-0.029,0.004,0.031,-0.019,-0.012,0.052,-0.005,-0.029,-0.02,-0.032,-0.011
-0.041,-0.03,0.011,0.036,-0.026,-0.009,0.049,-0.001,-0.031,-0.013,-0.04,-0.008
-0.043,-0.03,0.013,0.036,-0.028,-0.008,0.048,0.009,-0.029,-0.005,-0.031,-0.002
-0.039,-0.03,0.009,0.035,-0.024,-0.011,0.044,0.015,-0.03,0.003,-0.026,0.001
-0.035,-0.027,0.007,0.031,-0.021,-0.01,0.047,0.025,-0.028,0.01,-0.022,0.007
-0.016,-0.012,0.003,0.013,-0.009,-0.004,0.069,0.03,0.001,0.022,-0.013,0.009
-0.005,-0.004,0.001,0.004,-0.003,-0.001,0.093,0.048,0.023,0.041,0.007,0.023
0.009,0.009,0.0,-0.009,0.004,0.004,0.112,0.088,0.053,0.065,0.025,0.033
0.029,0.008,-0.021,-0.018,0.025,-0.006,0.102,0.089,0.057,0.063,0.02,0.024
0.021,-0.03,-0.051,0.005,0.036,-0.04,0.071,0.057,0.017,0.033,-0.009,0.018
0.023,-0.042,-0.065,0.01,0.044,-0.054,0.053,0.021,-0.013,0.023,-0.032,0.01
0.022,-0.036,-0.058,0.007,0.041,-0.047,0.048,-0.013,-0.034,0.022,-0.036,0.002
0.048,-0.034,-0.082,-0.007,0.065,-0.057,0.052,-0.03,-0.036,0.017,-0.035,-0.003
0.077,-0.03,-0.106,-0.023,0.092,-0.068,0.055,-0.03,-0.034,0.014,-0.035,0.001
0.055,-0.025,-0.08,-0.015,0.068,-0.052,0.057,-0.026,-0.036,0.009,-0.035,0.011
0.033,-0.029,-0.061,-0.002,0.047,-0.045,0.06,-0.023,-0.034,0.007,-0.035,0.013
0.005,-0.051,-0.056,0.023,0.031,-0.053,0.062,-0.018,-0.034,0.001,-0.038,0.007
-0.009,-0.055,-0.046,0.033,0.019,-0.05,0.065,-0.016,-0.03,-0.003,-0.043,0.003
-0.009,-0.055,-0.046,0.033,0.019,-0.05,0.065,-0.01,-0.03,-0.007,-0.046,-0.002
-0.011,-0.055,-0.044,0.033,0.017,-0.05,0.067,-0.012,-0.029,-0.014,-0.044,-0.006
-0.012,-0.054,-0.042,0.033,0.015,-0.047,0.073,-0.007,-0.022,-0.013,-0.054,-0.011
-0.021,-0.06,-0.04,0.041,0.01,-0.05,0.065,-0.009,-0.029,-0.007,-0.052,-0.015
-0.026,-0.065,-0.039,0.046,0.007,-0.052,0.071,-0.001,-0.017,0.006,-0.043,-0.023
-0.025,-0.049,-0.025,0.037,0.0,-0.037,0.058,-0.009,-0.024,0.006,-0.04,-0.028
-0.125,-0.033,0.091,0.079,-0.108,0.029,0.179,0.103,0.064,0.057,-0.018,-0.031
-0.101,0.0,0.102,0.05,-0.101,0.051,0.359,0.492,0.339,0.259,0.122,0.035
0.387,0.167,-0.22,-0.276,0.304,-0.027,0.045,0.545,0.545,0.572,0.474,0.388
0.732,0.276,-0.456,-0.504,0.594,-0.09,-0.446,-0.08,0.386,0.586,0.57,0.629
0.456,0.132,-0.324,-0.293,0.389,-0.096,-0.416,-0.712,-0.192,0.086,0.14,0.312
0.066,-0.087,-0.153,0.011,0.11,-0.12,-0.153,-0.768,-0.552,-0.319,-0.226,-0.036
-0.039,-0.142,-0.103,0.091,0.032,-0.122,-0.066,-0.44,-0.382,-0.274,-0.225,-0.068
0.001,-0.079,-0.08,0.039,0.041,-0.08,-0.008,-0.14,-0.128,-0.073,-0.117,-0.029
0.002,-0.065,-0.068,0.032,0.035,-0.066,0.06,-0.023,-0.031,-0.005,-0.073,-0.024
-0.005,-0.065,-0.06,0.035,0.028,-0.062,0.073,-0.02,-0.038,-0.022,-0.06,-0.022
-0.005,-0.064,-0.06,0.035,0.028,-0.061,0.076,0.0,-0.03,-0.011,-0.053,-0.019
-0.006,-0.066,-0.06,0.036,0.028,-0.063,0.076,0.011,-0.026,-0.011,-0.05,-0.016
-0.005,-0.064,-0.06,0.035,0.028,-0.062,0.08,0.022,-0.023,-0.007,-0.042,-0.014
-0.005,-0.065,-0.06,0.035,0.028,-0.062,0.08,0.03,-0.016,-0.002,-0.037,-0.01
0.002,-0.059,-0.061,0.029,0.031,-0.06,0.077,0.037,-0.011,0.0,-0.037,-0.01
-0.01,-0.061,-0.051,0.036,0.02,-0.056,0.075,0.041,-0.001,0.007,-0.041,-0.009
-0.003,-0.057,-0.054,0.031,0.026,-0.056,0.071,0.038,0.003,0.014,-0.04,-0.005
0.026,-0.055,-0.081,0.015,0.054,-0.068,0.069,0.053,0.016,0.021,-0.04,-0.005
0.031,-0.055,-0.086,0.013,0.059,-0.071,0.065,0.054,0.027,0.028,-0.04,-0.007
0.033,-0.051,-0.084,0.01,0.058,-0.067,0.065,0.066,0.032,0.031,-0.04,-0.015
0.042,-0.044,-0.086,0.001,0.065,-0.065,0.059,0.086,0.027,0.029,-0.031,-0.003
0.046,-0.038,-0.084,-0.004,0.065,-0.061,0.052,0.101,0.043,0.045,-0.013,0.014
0.055,-0.031,-0.086,-0.012,0.071,-0.058,0.046,0.121,0.074,0.066,0.007,0.02
0.076,-0.025,-0.101,-0.026,0.089,-0.062,0.039,0.137,0.089,0.085,0.026,0.029
0.089,-0.018,-0.107,-0.035,0.098,-0.062,0.033,0.163,0.109,0.103,0.035,0.032
0.098,-0.005,-0.103,-0.046,0.101,-0.054,0.023,0.196,0.143,0.135,0.055,0.059
0.128,0.008,-0.119,-0.067,0.123,-0.055,0.017,0.233,0.188,0.179,0.09,0.091
0.184,0.032,-0.153,-0.108,0.168,-0.06,0.003,0.265,0.229,0.206,0.114,0.114
0.223,0.06,-0.163,-0.142,0.193,-0.051,-0.02,0.291,0.261,0.238,0.141,0.149
0.249,0.085,-0.164,-0.167,0.207,-0.039,-0.043,0.303,0.289,0.267,0.168,0.175
0.285,0.109,-0.176,-0.197,0.23,-0.033,-0.068,0.298,0.302,0.271,0.187,0.177
0.292,0.117,-0.175,-0.204,0.233,-0.029,-0.08,0.294,0.297,0.265,0.188,0.169
0.278,0.106,-0.172,-0.192,0.225,-0.033,-0.085,0.281,0.283,0.263,0.177,0.159
0.251,0.088,-0.163,-0.17,0.207,-0.037,-0.064,0.248,0.253,0.253,0.169,0.152
0.197,0.06,-0.137,-0.128,0.167,-0.038,-0.029,0.201,0.209,0.216,0.131,0.135
0.12,0.023,-0.097,-0.071,0.108,-0.037,0.004,0.156,0.162,0.175,0.08,0.091
0.07,-0.008,-0.078,-0.03,0.074,-0.043,0.033,0.119,0.123,0.133,0.055,0.061
0.057,-0.03,-0.087,-0.013,0.072,-0.058,0.05,0.094,0.094,0.088,0.02,0.04
0.039,-0.043,-0.082,0.002,0.061,-0.062,0.064,0.069,0.067,0.063,-0.013,0.005
0.027,-0.052,-0.079,0.012,0.054,-0.066,0.065,0.041,0.049,0.05,-0.028,-0.012
0.014,-0.063,-0.077,0.025,0.046,-0.069,0.065,0.037,0.033,0.038,-0.041,-0.017
0.003,-0.071,-0.074,0.034,0.039,-0.072,0.065,0.041,0.02,0.035,-0.041,-0.022
0.003,-0.07,-0.072,0.034,0.037,-0.071,0.065,0.039,0.02,0.032,-0.04,-0.025
-0.003,-0.07,-0.067,0.037,0.032,-0.068,0.064,0.04,0.019,0.029,-0.039,-0.025
-0.005,-0.07,-0.065,0.038,0.03,-0.067,0.069,0.04,0.016,0.026,-0.034,-0.025
-0.01,-0.07,-0.061,0.04,0.025,-0.065,0.08,0.039,0.014,0.025,-0.036,-0.024
-0.013,-0.069,-0.056,0.041,0.022,-0.062,0.08,0.035,0.016,0.03,-0.033,-0.031
-0.01,-0.065,-0.055,0.038,0.023,-0.06,0.08,0.035,0.028,0.03,-0.028,-0.037
-0.008,-0.063,-0.055,0.036,0.024,-0.059,0.08,0.035,0.032,0.03,-0.025,-0.031
-0.005,-0.06,-0.055,0.033,0.025,-0.057,0.08,0.035,0.029,0.03,-0.022,-0.029
-0.002,-0.057,-0.055,0.03,0.027,-0.056,0.078,0.035,0.031,0.03,-0.018,-0.025
0.0,-0.055,-0.055,0.028,0.028,-0.055,0.074,0.031,0.029,0.028,-0.014,-0.02
0.0,-0.055,-0.055,0.028,0.028,-0.055,0.075,0.03,0.03,0.024,-0.028,-0.023
-0.004,-0.055,-0.051,0.03,0.024,-0.053,0.075,0.03,0.029,0.025,-0.041,-0.025
-0.005,-0.055,-0.05,0.03,0.023,-0.052,0.075,0.025,0.021,0.021,-0.04,-0.025
-0.006,-0.055,-0.05,0.03,0.023,-0.052,0.074,0.025,0.014,0.02,-0.04,-0.029
-0.004,-0.054,-0.05,0.029,0.024,-0.052,0.071,0.024,0.007,0.02,-0.04,-0.03
-0.007,-0.056,-0.049,0.032,0.021,-0.053,0.068,0.019,-0.001,0.014,-0.04,-0.03
-0.012,-0.064,-0.052,0.038,0.02,-0.057,0.065,0.016,-0.008,0.007,-0.042,-0.035
-0.008,-0.071,-0.063,0.04,0.028,-0.067,0.062,0.013,-0.014,0.001,-0.053,-0.038
-0.009,-0.075,-0.066,0.043,0.029,-0.071,0.06,0.008,-0.016,-0.006,-0.06,-0.042
-0.011,-0.075,-0.064,0.043,0.027,-0.069,0.06,0.005,-0.019,-0.012,-0.06,-0.046
-0.013,-0.079,-0.066,0.047,0.026,-0.072,0.06,0.002,-0.022,-0.017,-0.06,-0.049
-0.016,-0.08,-0.064,0.048,0.024,-0.071,0.06,-0.003,-0.025,-0.022,-0.06,-0.051
-0.017,-0.082,-0.066,0.05,0.025,-0.074,0.06,-0.006,-0.027,-0.025,-0.06,-0.049
-0.025,-0.085,-0.061,0.055,0.019,-0.073,0.06,-0.009,-0.03,-0.028,-0.062,-0.053
-0.036,-0.086,-0.05,0.061,0.007,-0.068,0.06,-0.014,-0.033,-0.032,-0.069,-0.062
-0.031,-0.1,-0.069,0.066,0.019,-0.084,0.055,-0.014,-0.037,-0.036,-0.07,-0.065
-0.024,-0.106,-0.082,0.065,0.029,-0.093,0.055,-0.01,-0.04,-0.039,-0.07,-0.065
-0.03,-0.104,-0.075,0.068,0.023,-0.089,0.055,-0.01,-0.044,-0.042,-0.07,-0.065
-0.032,-0.105,-0.073,0.069,0.021,-0.089,0.055,-0.01,-0.045,-0.045,-0.07,-0.065
-0.036,-0.105,-0.068,0.071,0.016,-0.086,0.056,-0.01,-0.045,-0.048,-0.07,-0.064
-0.04,-0.105,-0.065,0.073,0.013,-0.085,0.052,-0.01,-0.045,-0.051,-0.067,-0.068
-0.04,-0.101,-0.062,0.071,0.011,-0.081,0.049,-0.013,-0.045,-0.048,-0.064,-0.07
-0.04,-0.099,-0.059,0.07,0.01,-0.079,0.05,-0.022,-0.044,-0.044,-0.065,-0.07
-0.04,-0.101,-0.06,0.07,0.01,-0.081,0.05,-0.024,-0.04,-0.045,-0.065,-0.074
-0.039,-0.099,-0.06,0.069,0.01,-0.079,0.05,-0.02,-0.038,-0.041,-0.065,-0.075
-0.041,-0.101,-0.06,0.071,0.009,-0.08,0.05,-0.017,-0.035,-0.039,-0.065,-0.075
-0.037,-0.099,-0.061,0.068,0.012,-0.08,0.056,-0.013,-0.031,-0.041,-0.058,-0.068
-0.037,-0.102,-0.065,0.07,0.014,-0.083,0.062,-0.01,-0.03,-0.029,-0.049,-0.059
-0.018,-0.086,-0.068,0.052,0.025,-0.077,0.068,-0.004,-0.024,-0.016,-0.04,-0.05
0.014,-0.055,-0.069,0.02,0.042,-0.062,0.087,0.02,-0.01,-0.001,-0.034,-0.047
0.017,-0.058,-0.075,0.021,0.046,-0.066,0.103,0.054,0.022,0.016,-0.036,-0.051
0.011,-0.062,-0.073,0.026,0.042,-0.067,0.107,0.075,0.031,0.023,-0.034,-0.049
0.002,-0.084,-0.086,0.042,0.044,-0.085,0.074,0.049,0.0,0.013,-0.037,-0.054
0.004,-0.112,-0.116,0.054,0.06,-0.113,0.038,-0.003,-0.021,-0.025,-0.045,-0.055
0.016,-0.106,-0.122,0.045,0.07,-0.114,0.041,-0.026,-0.047,-0.042,-0.046,-0.055
0.024,-0.101,-0.124,0.039,0.074,-0.112,0.04,-0.039,-0.067,-0.039,-0.044,-0.06
0.02,-0.098,-0.118,0.039,0.069,-0.108,0.04,-0.042,-0.064,-0.041,-0.042,-0.06
0.015,-0.091,-0.107,0.038,0.061,-0.099,0.04,-0.039,-0.066,-0.04,-0.039,-0.064
0.008,-0.089,-0.098,0.041,0.053,-0.093,0.04,-0.041,-0.064,-0.04,-0.04,-0.065
-0.019,-0.112,-0.093,0.066,0.037,-0.102,0.046,-0.039,-0.065,-0.04,-0.051,-0.068
-0.03,-0.118,-0.088,0.074,0.029,-0.103,0.05,-0.041,-0.063,-0.039,-0.055,-0.069
-0.029,-0.114,-0.085,0.072,0.028,-0.099,0.051,-0.038,-0.058,-0.041,-0.059,-0.072
-0.037,-0.115,-0.078,0.076,0.021,-0.096,0.049,-0.042,-0.063,-0.039,-0.06,-0.068
-0.034,-0.111,-0.077,0.073,0.022,-0.093,0.052,-0.037,-0.053,-0.04,-0.065,-0.072
-0.036,-0.109,-0.073,0.073,0.018,-0.09,0.046,-0.043,-0.059,-0.04,-0.065,-0.067
-0.041,-0.111,-0.07,0.076,0.014,-0.09,0.056,-0.037,-0.05,-0.044,-0.057,-0.066
-0.03,-0.099,-0.069,0.065,0.02,-0.084,0.051,-0.031,-0.036,-0.039,-0.053,-0.057
-0.128,-0.095,0.033,0.112,-0.08,-0.031,0.187,0.104,0.058,0.031,-0.027,-0.055
-0.105,-0.065,0.039,0.085,-0.072,-0.013,0.358,0.497,0.319,0.223,0.107,-0.015
0.361,0.128,-0.233,-0.244,0.297,-0.052,0.026,0.513,0.544,0.588,0.525,0.382
0.68,0.247,-0.433,-0.463,0.556,-0.093,-0.46,-0.128,0.392,0.626,0.646,0.64
0.409,0.074,-0.335,-0.241,0.372,-0.13,-0.411,-0.727,-0.221,0.058,0.146,0.275
0.075,-0.148,-0.223,0.037,0.149,-0.185,-0.149,-0.771,-0.593,-0.369,-0.238,-0.077
-0.018,-0.186,-0.168,0.102,0.075,-0.177,-0.09,-0.443,-0.398,-0.298,-0.225,-0.122
-0.05,-0.148,-0.098,0.1,0.024,-0.123,-0.022,-0.145,-0.149,-0.103,-0.1,-0.077
-0.058,-0.15,-0.092,0.104,0.018,-0.121,0.054,-0.028,-0.057,-0.048,-0.073,-0.053
-0.052,-0.14,-0.088,0.096,0.018,-0.114,0.06,-0.018,-0.045,-0.051,-0.072,-0.056
-0.052,-0.134,-0.082,0.093,0.016,-0.108,0.067,-0.011,-0.038,-0.036,-0.054,-0.058
-0.048,-0.128,-0.08,0.088,0.016,-0.104,0.064,-0.004,-0.033,-0.032,-0.053,-0.061
-0.047,-0.12,-0.073,0.084,0.013,-0.097,0.069,0.002,-0.03,-0.029,-0.047,-0.064
-0.034,-0.117,-0.083,0.076,0.025,-0.1,0.071,0.011,-0.024,-0.03,-0.047,-0.065
-0.019,-0.11,-0.091,0.065,0.037,-0.101,0.069,0.017,-0.021,-0.026,-0.042,-0.059
-0.007,-0.105,-0.098,0.056,0.046,-0.101,0.066,0.024,-0.016,-0.025,-0.04,-0.052
0.001,-0.1,-0.101,0.049,0.051,-0.1,0.064,0.032,-0.012,-0.024,-0.037,-0.046
0.011,-0.095,-0.106,0.042,0.059,-0.1,0.064,0.047,-0.01,-0.008,-0.029,-0.039
0.022,-0.087,-0.109,0.033,0.066,-0.098,0.059,0.052,-0.005,0.012,-0.021,-0.033
0.031,-0.081,-0.112,0.025,0.072,-0.096,0.061,0.055,-0.002,0.024,-0.013,-0.027
0.041,-0.074,-0.114,0.017,0.078,-0.094,0.057,0.072,0.004,0.033,-0.006,-0.023
0.05,-0.068,-0.118,0.009,0.084,-0.092,0.051,0.087,0.02,0.031,0.005,-0.02
0.058,-0.062,-0.12,0.002,0.089,-0.09,0.046,0.11,0.044,0.045,0.021,-0.009
0.07,-0.053,-0.123,-0.008,0.097,-0.088,0.039,0.127,0.064,0.07,0.031,0.013
0.096,-0.042,-0.138,-0.027,0.118,-0.09,0.036,0.147,0.091,0.088,0.046,0.026
0.116,-0.029,-0.145,-0.044,0.131,-0.087,0.019,0.185,0.133,0.126,0.074,0.041
0.158,-0.008,-0.165,-0.075,0.162,-0.086,-0.007,0.216,0.167,0.159,0.105,0.071
0.209,0.019,-0.189,-0.113,0.199,-0.085,-0.019,0.248,0.204,0.191,0.135,0.103
0.229,0.042,-0.186,-0.136,0.207,-0.072,-0.038,0.273,0.234,0.223,0.165,0.13
0.264,0.071,-0.193,-0.167,0.228,-0.061,-0.065,0.289,0.252,0.246,0.198,0.156
0.279,0.076,-0.203,-0.177,0.241,-0.064,-0.079,0.289,0.255,0.252,0.204,0.174
0.259,0.064,-0.195,-0.161,0.227,-0.066,-0.081,0.27,0.245,0.245,0.198,0.172
0.248,0.058,-0.19,-0.152,0.219,-0.066,-0.08,0.255,0.244,0.246,0.201,0.163
0.227,0.049,-0.177,-0.138,0.202,-0.064,-0.07,0.221,0.22,0.222,0.179,0.147
0.183,0.04,-0.142,-0.111,0.162,-0.051,-0.046,0.18,0.171,0.179,0.143,0.112
0.142,0.025,-0.117,-0.084,0.129,-0.045,-0.01,0.14,0.13,0.142,0.107,0.079
0.113,-0.006,-0.119,-0.053,0.116,-0.062,0.018,0.099,0.097,0.107,0.075,0.048
0.068,-0.035,-0.104,-0.016,0.086,-0.069,0.028,0.068,0.067,0.076,0.053,0.023
0.033,-0.046,-0.079,0.006,0.056,-0.062,0.041,0.047,0.042,0.048,0.032,0.009
0.02,-0.061,-0.081,0.02,0.051,-0.071,0.05,0.038,0.026,0.033,0.019,0.0
0.0,-0.073,-0.073,0.037,0.037,-0.073,0.053,0.034,0.019,0.029,0.013,-0.011
0.006,-0.075,-0.081,0.035,0.044,-0.078,0.041,0.03,0.012,0.024,0.006,-0.019
0.021,-0.076,-0.097,0.028,0.059,-0.086,0.049,0.025,0.006,0.018,-0.001,-0.021
0.012,-0.079,-0.091,0.034,0.051,-0.085,0.072,0.02,-0.001,0.012,-0.008,-0.024
0.008,-0.081,-0.089,0.036,0.048,-0.085,0.068,0.023,-0.004,0.012,-0.008,-0.027
0.006,-0.078,-0.084,0.037,0.045,-0.081,0.065,0.026,0.001,0.016,-0.004,-0.03
0.006,-0.075,-0.081,0.034,0.044,-0.077,0.063,0.029,0.004,0.019,-0.005,-0.029
0.007,-0.07,-0.077,0.032,0.042,-0.073,0.06,0.032,0.007,0.023,-0.005,-0.024
0.007,-0.068,-0.075,0.031,0.041,-0.071,0.058,0.035,0.012,0.025,-0.005,-0.019
0.011,-0.063,-0.075,0.026,0.044,-0.069,0.054,0.034,0.015,0.031,-0.005,-0.015
0.012,-0.06,-0.072,0.024,0.042,-0.066,0.056,0.03,0.011,0.033,0.0,-0.01
0.005,-0.064,-0.069,0.029,0.037,-0.066,0.051,0.029,0.009,0.029,0.005,-0.006
0.007,-0.065,-0.072,0.029,0.04,-0.068,0.05,0.029,0.01,0.03,0.01,-0.008
0.022,-0.065,-0.088,0.022,0.055,-0.076,0.05,0.023,0.01,0.03,0.013,-0.011
0.022,-0.069,-0.091,0.024,0.057,-0.08,0.05,0.027,0.01,0.03,0.019,-0.01
0.018,-0.071,-0.089,0.026,0.054,-0.08,0.05,0.019,0.009,0.03,0.018,-0.01
0.022,-0.068,-0.091,0.023,0.057,-0.079,0.05,0.012,0.001,0.024,0.011,-0.011
0.025,-0.065,-0.089,0.02,0.057,-0.077,0.05,0.009,-0.006,0.018,0.006,-0.01
0.025,-0.065,-0.09,0.02,0.058,-0.077,0.049,-0.008,-0.013,0.014,0.001,-0.018
0.027,-0.062,-0.09,0.017,0.059,-0.076,0.053,-0.001,-0.021,0.008,-0.005,-0.016
0.03,-0.06,-0.09,0.015,0.06,-0.075,0.055,-0.028,-0.027,0.002,-0.009,-0.026
0.031,-0.059,-0.09,0.014,0.061,-0.074,0.055,-0.005,-0.034,-0.002,-0.005,-0.023
0.016,-0.074,-0.09,0.029,0.053,-0.082,0.058,-0.037,-0.035,-0.007,-0.005,-0.034
-0.024,-0.115,-0.09,0.069,0.033,-0.102,0.061,-0.002,-0.035,-0.002,-0.005,-0.036
-0.058,-0.144,-0.086,0.101,0.015,-0.115,0.059,-0.034,-0.035,-0.011,-0.006,0.037
-0.063,-0.143,-0.08,0.103,0.009,-0.111,0.056,-0.021,-0.035,-0.008,-0.004,0.018
-0.064,-0.139,-0.075,0.102,0.006,-0.106,0.053,0.253,-0.034,-0.012,-0.014,-0.009
-0.071,-0.141,-0.07,0.106,0.0,-0.105,0.05,0.07,-0.03,-0.015,-0.056,0.006
-0.077,-0.139,-0.062,0.108,-0.007,-0.1,0.047,-0.043,-0.03,-0.012,-0.082,-0.004
-0.076,-0.141,-0.065,0.108,-0.006,-0.103,0.045,0.031,-0.03,-0.022,-0.095,0.003
-0.036,-0.139,-0.103,0.088,0.034,-0.121,0.043,-0.022,-0.029,-0.002,-0.108,-0.001
-0.015,-0.139,-0.124,0.077,0.055,-0.131,0.039,0.014,-0.031,-0.038,-0.11,0.0
-0.007,-0.125,-0.119,0.066,0.056,-0.122,0.037,-0.008,-0.025,0.059,-0.113,0.0
0.008,-0.122,-0.13,0.057,0.069,-0.126,0.034,0.002,-0.026,0.094,-0.116,-0.001
-0.093,-0.15,-0.057,0.122,-0.018,-0.103,0.031,0.001,-0.024,-0.013,-0.119,0.001
-0.168,-0.157,0.011,0.163,-0.089,-0.073,0.029,-0.003,-0.028,0.004,-0.12,-0.001
-0.147,-0.154,-0.007,0.15,-0.07,-0.08,0.021,0.004,-0.058,-0.002,-0.115,0.001
