0.026,-0.073,-0.1,0.024,0.063,-0.086,0.154,0.175,0.946,0.095,0.05,0.045
0.016,-0.078,-0.094,0.031,0.056,-0.086,0.147,0.175,0.959,0.092,0.05,0.045
-0.058,-0.103,-0.046,0.081,-0.006,-0.074,0.139,0.171,0.976,0.089,0.05,0.045
-0.023,-0.097,-0.074,0.06,0.026,-0.085,0.129,0.169,0.911,0.083,0.056,0.048
0.007,-0.092,-0.099,0.043,0.053,-0.095,0.121,0.165,1.05,0.081,0.056,0.051
0.027,-0.081,-0.108,0.028,0.068,-0.094,0.114,0.165,0.449,0.105,0.067,0.049
0.031,-0.08,-0.112,0.025,0.072,-0.096,0.111,0.16,-0.114,0.117,0.084,0.046
0.015,-0.101,-0.116,0.043,0.066,-0.108,0.106,0.161,-0.004,0.122,0.086,0.043
0.022,-0.092,-0.114,0.035,0.068,-0.102,0.101,0.153,-0.048,0.098,0.091,0.051
0.05,-0.087,-0.137,0.018,0.094,-0.111,0.107,0.115,-0.036,0.075,0.087,0.056
0.089,-0.078,-0.166,-0.005,0.128,-0.122,0.096,0.097,-0.096,0.072,0.079,0.052
0.052,-0.082,-0.135,0.015,0.094,-0.108,0.091,0.091,-0.117,0.06,0.045,0.046
0.02,-0.122,-0.141,0.051,0.08,-0.131,0.095,0.084,-0.094,0.049,0.016,0.03
-0.01,-0.118,-0.107,0.064,0.048,-0.112,0.097,0.077,-0.116,0.027,0.026,0.014
-0.01,-0.117,-0.108,0.064,0.05,-0.112,0.09,0.067,-0.103,0.001,0.019,0.0
0.013,-0.11,-0.122,0.048,0.068,-0.115,0.116,0.08,-0.105,-0.005,0.01,0.001
0.02,-0.053,-0.073,0.016,0.047,-0.063,0.153,0.113,-0.049,0.044,0.049,0.025
0.013,-0.029,-0.043,0.008,0.028,-0.036,0.196,0.157,-0.016,0.079,0.073,0.034
0.033,-0.027,-0.06,-0.003,0.047,-0.043,0.159,0.144,-0.031,0.066,0.045,0.021
0.078,-0.031,-0.11,-0.024,0.094,-0.07,0.012,0.112,-0.067,0.082,0.072,0.048
0.083,-0.041,-0.124,-0.021,0.104,-0.083,-0.023,0.108,-0.066,0.097,0.111,0.077
0.127,-0.04,-0.167,-0.043,0.147,-0.103,-0.013,0.098,-0.043,0.107,0.113,0.06
0.124,-0.043,-0.167,-0.041,0.146,-0.105,-0.021,0.093,-0.054,0.064,0.095,0.054
0.089,-0.082,-0.172,-0.003,0.131,-0.127,-0.003,0.081,-0.119,0.014,0.042,0.038
0.061,-0.108,-0.169,0.024,0.115,-0.138,0.041,0.079,-0.148,0.011,0.025,0.018
0.022,-0.096,-0.118,0.037,0.07,-0.107,0.058,0.059,-0.133,-0.015,0.016,-0.012
-0.033,-0.143,-0.11,0.088,0.039,-0.126,0.052,0.062,-0.135,-0.036,-0.021,-0.044
-0.067,-0.182,-0.115,0.125,0.024,-0.148,0.049,0.045,-0.174,-0.09,-0.074,-0.055
-0.055,-0.159,-0.104,0.107,0.025,-0.131,0.044,0.066,-0.156,-0.078,-0.059,-0.051
-0.075,-0.156,-0.081,0.116,0.003,-0.118,0.065,0.052,-0.175,-0.098,-0.053,-0.039
-0.008,-0.152,-0.144,0.08,0.068,-0.147,0.066,-0.011,-0.176,-0.097,-0.071,-0.076
-0.026,-0.162,-0.136,0.094,0.056,-0.149,0.063,0.072,-0.113,-0.037,-0.043,-0.108
-0.042,-0.173,-0.131,0.108,0.045,-0.151,0.074,0.276,0.057,0.024,-0.016,-0.096
0.125,-0.066,-0.191,-0.03,0.159,-0.128,0.019,0.256,0.298,0.399,0.452,0.308
0.49,0.272,-0.218,-0.381,0.354,0.027,-0.387,-0.839,-0.199,0.64,1.162,1.163
0.912,0.44,-0.472,-0.676,0.692,-0.016,-0.734,-1.781,-0.826,0.53,1.126,1.401
0.439,-0.048,-0.487,-0.196,0.463,-0.267,-0.377,-1.513,-1.21,-0.355,0.024,0.438
-0.271,-0.433,-0.162,0.352,-0.054,-0.298,0.119,-1.071,-1.371,-1.17,-0.837,-0.439
-0.264,-0.361,-0.096,0.313,-0.084,-0.228,0.206,-0.559,-0.784,-0.693,-0.541,-0.384
-0.15,-0.267,-0.118,0.209,-0.016,-0.192,0.134,-0.126,-0.324,-0.285,-0.214,-0.212
-0.097,-0.172,-0.075,0.135,-0.011,-0.123,0.105,0.028,-0.184,-0.208,-0.14,-0.163
-0.098,-0.143,-0.045,0.121,-0.026,-0.094,0.088,0.102,-0.124,-0.13,-0.075,-0.118
-0.067,-0.142,-0.074,0.105,0.003,-0.108,0.083,0.118,-0.134,-0.145,-0.091,-0.131
-0.035,-0.138,-0.103,0.087,0.034,-0.12,0.077,0.122,-0.117,-0.103,-0.07,-0.12
-0.054,-0.142,-0.088,0.098,0.017,-0.115,0.064,0.118,-0.131,-0.118,-0.091,-0.124
-0.076,-0.142,-0.065,0.109,-0.005,-0.103,0.053,0.121,-0.118,-0.136,-0.086,-0.117
-0.1,-0.146,-0.046,0.123,-0.027,-0.096,0.042,0.12,-0.109,-0.13,-0.066,-0.126
-0.087,-0.136,-0.049,0.111,-0.019,-0.092,0.035,0.123,-0.096,-0.086,-0.071,-0.133
-0.072,-0.132,-0.06,0.102,-0.006,-0.096,0.027,0.13,-0.082,-0.076,-0.05,-0.122
-0.014,-0.123,-0.109,0.068,0.048,-0.116,0.019,0.125,-0.077,-0.082,-0.058,-0.113
-0.067,-0.12,-0.052,0.094,-0.007,-0.086,0.012,0.138,-0.089,-0.066,-0.081,-0.108
-0.05,-0.107,-0.057,0.079,0.004,-0.082,0.009,0.146,-0.075,-0.084,-0.073,-0.102
-0.03,-0.111,-0.081,0.071,0.025,-0.096,0.005,0.139,-0.077,-0.1,-0.069,-0.103
-0.095,-0.103,-0.008,0.099,-0.043,-0.055,0.002,0.137,-0.109,-0.079,-0.06,-0.117
-0.028,-0.069,-0.042,0.048,0.007,-0.055,-0.002,0.132,-0.11,-0.074,-0.072,-0.112
-0.023,-0.057,-0.034,0.04,0.006,-0.046,-0.006,0.131,-0.103,-0.075,-0.078,-0.099
-0.056,-0.054,0.002,0.055,-0.029,-0.026,0.004,0.141,-0.103,-0.075,-0.067,-0.092
-0.094,-0.063,0.031,0.079,-0.063,-0.016,0.006,0.166,-0.097,-0.074,-0.061,-0.083
-0.096,-0.055,0.041,0.075,-0.068,-0.007,-0.007,0.157,-0.095,-0.076,-0.052,-0.081
-0.045,-0.047,-0.002,0.046,-0.022,-0.024,-0.024,0.15,-0.123,-0.093,-0.072,-0.098
-0.035,-0.038,-0.003,0.036,-0.016,-0.02,-0.022,0.155,-0.121,-0.074,-0.061,-0.079
-0.023,-0.027,-0.004,0.025,-0.009,-0.015,-0.037,0.126,-0.096,-0.062,-0.037,-0.051
-0.033,-0.018,0.015,0.025,-0.024,-0.001,-0.07,0.133,-0.086,-0.058,-0.025,-0.042
-0.031,0.004,0.035,0.013,-0.033,0.02,-0.066,0.139,-0.072,-0.04,-0.011,-0.025
0.021,0.014,-0.007,-0.018,0.014,0.003,-0.059,0.117,-0.063,-0.015,0.024,-0.015
0.062,0.022,-0.04,-0.042,0.051,-0.009,-0.056,0.116,-0.054,0.023,0.044,0.003
0.055,0.006,-0.049,-0.031,0.052,-0.021,-0.047,0.104,-0.047,0.007,0.009,0.003
0.027,-0.02,-0.047,-0.003,0.037,-0.033,-0.047,0.09,-0.047,0.015,0.033,-0.004
0.002,-0.035,-0.037,0.017,0.02,-0.036,-0.05,0.077,-0.054,0.072,0.058,-0.018
0.014,-0.041,-0.056,0.014,0.035,-0.048,-0.05,0.068,-0.049,0.076,0.053,-0.036
0.046,-0.04,-0.085,-0.003,0.065,-0.062,-0.05,0.089,-0.043,0.075,0.057,-0.029
0.037,-0.04,-0.077,0.001,0.057,-0.058,-0.046,0.097,-0.037,0.074,0.053,-0.019
0.04,-0.041,-0.081,0.0,0.061,-0.061,-0.045,0.09,-0.029,0.079,0.058,-0.012
0.049,-0.033,-0.082,-0.008,0.066,-0.057,-0.039,0.089,-0.021,0.061,0.047,-0.004
0.035,-0.036,-0.07,0.001,0.052,-0.053,-0.043,0.1,-0.013,0.063,0.056,-0.003
0.068,-0.068,-0.135,0.0,0.102,-0.101,-0.079,0.109,-0.026,0.088,0.07,0.001
0.045,-0.077,-0.122,0.016,0.084,-0.099,-0.093,0.068,-0.022,0.069,0.057,0.011
0.022,-0.074,-0.096,0.026,0.059,-0.085,-0.088,0.025,-0.041,0.053,0.048,0.003
0.064,-0.075,-0.139,0.006,0.102,-0.107,-0.087,0.039,-0.061,0.024,0.027,-0.012
0.031,-0.075,-0.106,0.022,0.069,-0.09,-0.074,0.051,-0.073,-0.01,0.009,-0.034
0.035,-0.075,-0.11,0.02,0.073,-0.092,-0.066,0.036,-0.103,-0.035,-0.002,-0.064
0.05,-0.065,-0.115,0.007,0.083,-0.09,-0.053,0.027,-0.095,-0.033,-0.024,-0.062
-0.006,-0.04,-0.033,0.023,0.014,-0.036,0.005,0.078,-0.065,0.01,-0.025,-0.054
0.0,0.0,-0.001,0.0,0.001,0.0,0.051,0.118,-0.041,0.018,-0.001,-0.048
0.074,0.029,-0.045,-0.051,0.059,-0.008,0.048,0.114,-0.044,0.023,0.025,-0.04
0.09,0.034,-0.056,-0.062,0.073,-0.011,0.005,0.123,-0.025,0.055,0.061,-0.03
0.05,0.014,-0.036,-0.031,0.042,-0.011,-0.077,0.1,-0.01,0.065,0.074,0.017
0.119,0.039,-0.081,-0.079,0.1,-0.021,-0.131,0.063,-0.016,0.07,0.073,0.037
0.174,0.04,-0.134,-0.107,0.153,-0.046,-0.11,0.057,0.01,0.062,0.077,0.026
0.114,0.004,-0.11,-0.059,0.112,-0.053,-0.094,0.024,-0.012,0.052,0.065,0.02
0.134,-0.022,-0.156,-0.056,0.146,-0.089,-0.122,-0.039,-0.081,-0.004,0.018,-0.022
0.123,-0.065,-0.188,-0.029,0.155,-0.126,-0.107,-0.043,-0.113,-0.06,-0.054,-0.055
-0.027,-0.078,-0.051,0.053,0.012,-0.064,-0.049,-0.016,-0.103,-0.047,-0.086,-0.059
-0.057,-0.095,-0.038,0.076,-0.009,-0.067,-0.018,0.003,-0.08,-0.032,-0.074,-0.088
-0.009,-0.117,-0.107,0.063,0.049,-0.112,-0.038,-0.046,-0.125,-0.095,-0.092,-0.119
-0.035,-0.13,-0.095,0.083,0.03,-0.112,-0.034,-0.054,-0.118,-0.108,-0.104,-0.119
-0.064,-0.125,-0.061,0.095,-0.001,-0.093,-0.009,-0.04,-0.104,-0.08,-0.081,-0.115
-0.071,-0.089,-0.018,0.08,-0.026,-0.053,0.018,-0.031,-0.083,-0.085,-0.065,-0.106
-0.039,-0.114,-0.075,0.077,0.018,-0.095,0.031,0.059,-0.041,-0.078,-0.103,-0.153
0.002,-0.138,-0.141,0.068,0.072,-0.139,0.025,0.258,0.138,0.045,-0.06,-0.165
0.122,-0.017,-0.139,-0.052,0.131,-0.078,-0.047,0.184,0.338,0.44,0.455,0.285
0.537,0.331,-0.206,-0.434,0.371,0.062,-0.476,-0.998,-0.204,0.684,1.159,1.14
0.986,0.479,-0.507,-0.732,0.746,-0.014,-0.795,-1.892,-0.799,0.569,1.096,1.342
0.474,-0.063,-0.537,-0.205,0.505,-0.3,-0.4,-1.573,-1.208,-0.401,-0.08,0.344
-0.27,-0.46,-0.19,0.365,-0.04,-0.325,0.073,-1.101,-1.321,-1.144,-0.889,-0.485
-0.216,-0.319,-0.104,0.268,-0.056,-0.211,0.162,-0.564,-0.66,-0.588,-0.525,-0.389
-0.174,-0.213,-0.039,0.194,-0.067,-0.126,0.125,-0.131,-0.232,-0.226,-0.217,-0.217
-0.139,-0.155,-0.017,0.147,-0.06,-0.085,0.053,0.024,-0.119,-0.137,-0.174,-0.19
-0.023,-0.132,-0.109,0.078,0.043,-0.12,0.004,0.053,-0.059,-0.08,-0.136,-0.179
-0.058,-0.131,-0.073,0.094,0.008,-0.102,0.021,0.069,-0.059,-0.118,-0.139,-0.171
-0.069,-0.128,-0.059,0.098,-0.005,-0.093,0.042,0.086,-0.04,-0.084,-0.124,-0.157
-0.077,-0.124,-0.047,0.101,-0.015,-0.086,0.041,0.104,-0.05,-0.1,-0.127,-0.16
-0.054,-0.113,-0.059,0.084,0.003,-0.086,0.032,0.134,-0.035,-0.08,-0.113,-0.15
-0.051,-0.118,-0.067,0.085,0.008,-0.092,0.029,0.119,-0.036,-0.08,-0.111,-0.149
-0.044,-0.105,-0.061,0.075,0.009,-0.083,0.021,0.133,-0.02,-0.067,-0.103,-0.142
-0.063,-0.123,-0.059,0.093,-0.002,-0.091,0.018,0.148,-0.006,-0.056,-0.097,-0.14
-0.069,-0.123,-0.054,0.096,-0.007,-0.088,-0.004,0.141,0.005,-0.05,-0.095,-0.138
-0.06,-0.106,-0.047,0.083,-0.006,-0.076,0.002,0.148,0.035,-0.042,-0.094,-0.134
-0.059,-0.098,-0.039,0.078,-0.01,-0.068,0.018,0.17,0.047,-0.047,-0.097,-0.133
-0.031,-0.083,-0.052,0.057,0.011,-0.067,0.013,0.168,0.04,-0.057,-0.1,-0.128
-0.059,-0.082,-0.023,0.071,-0.018,-0.052,0.018,0.161,0.037,-0.042,-0.101,-0.129
-0.033,-0.059,-0.026,0.046,-0.004,-0.042,0.007,0.162,0.032,-0.042,-0.1,-0.12
-0.079,-0.047,0.032,0.063,-0.056,-0.008,0.027,0.152,0.024,-0.076,-0.112,-0.125
-0.108,-0.04,0.067,0.074,-0.087,0.013,0.034,0.169,0.018,-0.065,-0.104,-0.137
-0.051,-0.031,0.019,0.041,-0.035,-0.006,0.021,0.192,0.01,-0.051,-0.079,-0.113
-0.082,-0.021,0.061,0.051,-0.071,0.02,0.04,0.186,0.003,-0.062,-0.072,-0.099
-0.065,-0.02,0.045,0.042,-0.054,0.012,0.014,0.171,-0.004,-0.067,-0.063,-0.092
-0.086,-0.035,0.051,0.06,-0.069,0.008,-0.014,0.159,0.002,-0.063,-0.052,-0.083
-0.11,-0.031,0.079,0.07,-0.094,0.024,-0.013,0.159,0.01,-0.048,-0.046,-0.073
-0.039,0.006,0.045,0.016,-0.042,0.025,0.0,0.16,0.019,-0.03,-0.043,-0.058
-0.001,0.03,0.032,-0.015,-0.017,0.031,-0.005,0.161,0.037,-0.023,-0.035,-0.045
0.002,0.002,0.0,-0.002,0.001,0.001,-0.031,0.159,0.046,-0.001,-0.029,-0.035
-0.046,-0.003,0.044,0.024,-0.045,0.02,0.0,0.162,0.07,0.054,-0.023,-0.027
-0.034,0.003,0.037,0.015,-0.036,0.02,0.037,0.15,0.074,0.052,-0.012,-0.017
0.029,-0.007,-0.037,-0.011,0.033,-0.022,0.033,0.103,0.06,0.03,-0.03,-0.037
-0.003,-0.032,-0.029,0.018,0.013,-0.03,0.024,0.082,0.06,0.029,-0.04,-0.048
-0.047,-0.019,0.028,0.033,-0.038,0.005,0.015,0.086,0.056,0.032,-0.029,-0.04
-0.023,0.007,0.031,0.008,-0.027,0.019,0.007,0.111,0.053,0.053,-0.026,-0.04
0.004,-0.025,-0.029,0.011,0.017,-0.026,-0.008,0.12,0.05,0.04,-0.019,-0.035
0.024,-0.03,-0.054,0.004,0.039,-0.042,-0.017,0.108,0.051,0.033,-0.013,-0.034
-0.001,-0.027,-0.027,0.014,0.013,-0.027,-0.004,0.106,0.07,0.057,-0.01,-0.026
-0.009,-0.004,0.005,0.006,-0.007,0.001,0.008,0.099,0.101,0.069,0.012,0.008
0.082,0.02,-0.062,-0.051,0.072,-0.021,0.003,0.093,0.101,0.057,0.024,0.018
0.085,0.003,-0.082,-0.043,0.083,-0.039,-0.005,0.085,0.082,0.042,0.012,0.004
0.044,-0.013,-0.057,-0.015,0.051,-0.034,-0.009,0.077,0.07,0.032,0.01,-0.003
0.01,-0.045,-0.055,0.018,0.033,-0.049,-0.004,0.069,0.066,0.021,-0.01,-0.027
-0.008,-0.053,-0.045,0.031,0.018,-0.049,0.007,0.064,0.056,0.008,-0.036,-0.036
0.011,-0.047,-0.058,0.018,0.034,-0.052,0.009,0.066,0.034,0.003,-0.045,-0.027
-0.016,-0.054,-0.038,0.036,0.011,-0.046,0.025,0.064,0.022,-0.014,-0.058,-0.026
-0.003,-0.032,-0.029,0.018,0.013,-0.031,0.047,0.067,0.028,-0.009,-0.034,-0.019
-0.029,-0.004,0.024,0.016,-0.027,0.01,0.077,0.08,0.069,0.047,0.003,-0.017
-0.088,-0.007,0.081,0.047,-0.084,0.037,0.131,0.113,0.097,0.066,0.001,-0.01
-0.041,0.004,0.045,0.018,-0.043,0.025,0.139,0.129,0.098,0.054,-0.01,-0.005
0.02,0.039,0.018,-0.03,0.0,0.028,0.071,0.1,0.097,0.056,0.001,0.005
0.071,0.044,-0.026,-0.058,0.048,0.009,-0.034,0.097,0.109,0.082,0.029,0.035
0.084,0.017,-0.066,-0.05,0.075,-0.024,-0.07,0.09,0.107,0.088,0.027,0.035
0.068,-0.002,-0.071,-0.033,0.07,-0.037,-0.025,0.061,0.068,0.058,0.001,0.019
0.059,-0.026,-0.085,-0.016,0.072,-0.055,-0.017,0.038,0.037,0.033,-0.017,0.009
0.033,-0.052,-0.085,0.01,0.059,-0.068,-0.017,0.028,0.03,0.017,-0.032,-0.011
0.031,-0.039,-0.07,0.004,0.051,-0.054,0.014,0.019,0.019,0.003,-0.037,-0.022
-0.011,-0.06,-0.05,0.036,0.02,-0.055,0.061,0.009,0.016,-0.01,-0.062,-0.05
-0.114,-0.114,0.0,0.114,-0.057,-0.057,0.079,0.003,-0.013,-0.048,-0.101,-0.083
-0.141,-0.111,0.031,0.126,-0.086,-0.039,0.073,-0.028,-0.032,-0.072,-0.108,-0.086
-0.116,-0.12,-0.004,0.118,-0.056,-0.062,0.076,-0.016,-0.008,-0.049,-0.094,-0.078
-0.161,-0.144,0.016,0.153,-0.088,-0.064,0.081,-0.013,-0.027,-0.06,-0.081,-0.065
-0.155,-0.121,0.034,0.138,-0.095,-0.043,0.113,0.024,0.007,-0.039,-0.097,-0.082
-0.139,-0.123,0.016,0.131,-0.078,-0.054,0.124,0.177,0.095,0.0,-0.134,-0.144
-0.075,-0.077,-0.002,0.076,-0.036,-0.039,0.147,0.389,0.373,0.258,0.084,-0.01
0.194,0.16,-0.034,-0.176,0.114,0.063,-0.075,-0.259,0.275,0.655,0.752,0.632
0.739,0.455,-0.284,-0.597,0.511,0.085,-0.622,-1.681,-0.408,0.794,1.205,1.299
0.853,0.251,-0.602,-0.551,0.727,-0.175,-0.633,-2.006,-0.938,0.246,0.541,0.914
0.037,-0.339,-0.376,0.151,0.207,-0.357,-0.058,-1.479,-1.311,-0.84,-0.633,-0.133
-0.341,-0.425,-0.084,0.383,-0.128,-0.254,0.234,-0.887,-0.975,-0.874,-0.785,-0.442
-0.232,-0.249,-0.017,0.24,-0.107,-0.133,0.216,-0.279,-0.296,-0.256,-0.341,-0.252
-0.253,-0.186,0.067,0.22,-0.16,-0.059,0.169,-0.019,-0.079,-0.09,-0.21,-0.192
-0.182,-0.115,0.067,0.148,-0.124,-0.024,0.131,0.089,0.009,-0.006,-0.142,-0.15
-0.145,-0.109,0.035,0.127,-0.09,-0.037,0.112,0.115,0.007,-0.01,-0.124,-0.145
-0.115,-0.102,0.013,0.108,-0.063,-0.044,0.12,0.119,0.027,0.01,-0.124,-0.133
-0.158,-0.1,0.058,0.129,-0.108,-0.021,0.146,0.155,0.068,0.023,-0.116,-0.125
-0.163,-0.098,0.065,0.131,-0.114,-0.017,0.12,0.14,0.061,0.011,-0.117,-0.123
-0.133,-0.093,0.04,0.113,-0.086,-0.027,0.126,0.168,0.061,0.051,-0.108,-0.114
-0.145,-0.095,0.05,0.119,-0.097,-0.022,0.145,0.188,0.054,0.061,-0.11,-0.111
-0.164,-0.087,0.077,0.125,-0.12,-0.005,0.127,0.184,0.063,0.064,-0.095,-0.105
-0.177,-0.086,0.091,0.131,-0.134,0.002,0.123,0.184,0.09,0.063,-0.091,-0.112
-0.173,-0.081,0.092,0.127,-0.132,0.005,0.117,0.178,0.121,0.079,-0.09,-0.106
-0.197,-0.077,0.12,0.136,-0.158,0.021,0.114,0.182,0.12,0.081,-0.09,-0.101
-0.168,-0.075,0.092,0.121,-0.13,0.008,0.111,0.18,0.119,0.077,-0.09,-0.098
-0.137,-0.055,0.081,0.096,-0.109,0.013,0.105,0.195,0.121,0.076,-0.09,-0.092
-0.115,-0.029,0.087,0.072,-0.101,0.029,0.106,0.206,0.119,0.073,-0.088,-0.089
-0.11,-0.02,0.09,0.065,-0.1,0.035,0.113,0.209,0.121,0.078,-0.083,-0.084
-0.132,-0.015,0.117,0.073,-0.124,0.051,0.118,0.229,0.119,0.08,-0.08,-0.081
-0.134,-0.007,0.127,0.07,-0.13,0.06,0.132,0.243,0.122,0.08,-0.077,-0.077
-0.156,-0.001,0.154,0.079,-0.155,0.076,0.14,0.239,0.101,0.08,-0.072,-0.073
-0.14,0.006,0.146,0.067,-0.144,0.076,0.141,0.227,0.084,0.08,-0.07,-0.07
-0.121,0.023,0.143,0.049,-0.132,0.083,0.143,0.221,0.084,0.081,-0.074,-0.065
-0.131,0.041,0.172,0.045,-0.152,0.106,0.148,0.232,0.087,0.084,-0.076,-0.057
-0.097,0.054,0.151,0.021,-0.124,0.102,0.129,0.211,0.107,0.089,-0.072,-0.051
-0.059,0.053,0.111,0.003,-0.085,0.082,0.095,0.16,0.111,0.092,-0.066,-0.044
-0.077,0.045,0.122,0.016,-0.1,0.083,0.108,0.151,0.109,0.124,-0.059,-0.009
-0.12,0.043,0.163,0.038,-0.141,0.103,0.11,0.145,0.112,0.161,-0.053,0.012
-0.091,0.037,0.129,0.027,-0.11,0.083,0.105,0.127,0.112,0.167,-0.046,0.006
-0.06,0.033,0.093,0.014,-0.077,0.063,0.103,0.107,0.105,0.168,-0.045,0.002
-0.091,0.024,0.115,0.033,-0.103,0.069,0.102,0.092,0.105,0.169,-0.046,-0.002
-0.117,0.007,0.124,0.055,-0.121,0.065,0.095,0.073,0.094,0.178,-0.043,-0.008
-0.081,0.026,0.107,0.027,-0.094,0.066,0.086,0.075,0.105,0.186,-0.056,-0.028
-0.061,0.053,0.114,0.004,-0.088,0.083,0.105,0.102,0.144,0.197,-0.062,-0.028
-0.054,0.044,0.098,0.004,-0.076,0.071,0.106,0.099,0.14,0.199,-0.051,-0.017
-0.018,0.039,0.058,-0.011,-0.038,0.048,0.102,0.1,0.131,0.193,-0.043,-0.01
-0.032,0.034,0.066,-0.001,-0.049,0.049,0.101,0.099,0.127,0.191,-0.043,-0.003
-0.047,0.028,0.075,0.01,-0.061,0.051,0.099,0.104,0.118,0.186,-0.048,0.009
-0.08,0.021,0.1,0.029,-0.09,0.06,0.098,0.118,0.114,0.186,-0.049,0.015
-0.093,0.015,0.108,0.039,-0.101,0.061,0.094,0.106,0.109,0.193,-0.045,0.005
-0.085,0.007,0.092,0.039,-0.089,0.049,0.095,0.095,0.11,0.192,-0.044,-0.003
-0.089,0.002,0.091,0.043,-0.09,0.046,0.092,0.087,0.11,0.183,-0.041,-0.012
-0.076,0.003,0.079,0.036,-0.078,0.041,0.088,0.081,0.11,0.179,-0.037,-0.021
-0.059,0.015,0.073,0.021,-0.066,0.044,0.093,0.083,0.106,0.169,-0.063,-0.034
-0.08,0.017,0.098,0.031,-0.089,0.057,0.088,0.087,0.105,0.166,-0.077,-0.033
-0.113,0.018,0.131,0.047,-0.123,0.075,0.108,0.089,0.105,0.157,-0.07,-0.027
-0.043,0.08,0.122,-0.019,-0.083,0.1,0.162,0.095,0.108,0.185,-0.065,-0.017
-0.024,0.118,0.142,-0.047,-0.083,0.13,0.215,0.137,0.141,0.23,-0.057,-0.017
-0.04,0.105,0.145,-0.033,-0.093,0.125,0.21,0.15,0.162,0.243,-0.048,0.002
0.036,0.1,0.064,-0.068,-0.014,0.082,0.089,0.108,0.128,0.269,-0.041,0.036
0.047,0.09,0.043,-0.069,0.002,0.067,0.026,0.097,0.119,0.263,-0.034,0.036
0.004,0.079,0.075,-0.042,-0.036,0.077,0.033,0.1,0.147,0.259,-0.002,0.031
0.001,0.072,0.071,-0.037,-0.035,0.072,0.021,0.069,0.127,0.24,-0.004,0.013
0.053,0.048,-0.004,-0.05,0.028,0.022,0.017,0.021,0.066,0.176,-0.06,-0.006
0.043,0.015,-0.028,-0.029,0.035,-0.007,0.021,-0.003,0.045,0.163,-0.098,-0.022
-0.072,0.013,0.085,0.029,-0.079,0.048,0.084,0.019,0.06,0.156,-0.084,-0.03
-0.103,0.002,0.105,0.05,-0.104,0.053,0.136,0.047,0.04,0.126,-0.099,-0.066
-0.092,-0.037,0.055,0.065,-0.073,0.009,0.113,-0.004,-0.004,0.094,-0.136,-0.107
-0.117,-0.046,0.072,0.081,-0.094,0.013,0.095,-0.012,0.003,0.101,-0.129,-0.1
-0.115,-0.017,0.098,0.066,-0.107,0.04,0.109,0.01,0.011,0.117,-0.122,-0.097
-0.111,-0.005,0.105,0.058,-0.108,0.05,0.117,0.009,0.012,0.131,-0.116,-0.089
-0.154,-0.043,0.111,0.098,-0.133,0.034,0.143,0.068,0.051,0.141,-0.13,-0.11
-0.151,-0.058,0.093,0.104,-0.121,0.017,0.187,0.243,0.183,0.173,-0.136,-0.155
-0.064,0.021,0.085,0.021,-0.074,0.053,0.173,0.311,0.439,0.501,0.192,0.088
0.285,0.335,0.05,-0.31,0.117,0.192,-0.171,-0.744,0.147,0.864,0.89,0.815
0.927,0.582,-0.345,-0.754,0.635,0.119,-0.63,-2.012,-0.527,0.821,1.042,1.226
0.663,0.133,-0.531,-0.398,0.597,-0.199,-0.426,-1.975,-1.081,-0.039,0.051,0.515
-0.189,-0.367,-0.178,0.279,-0.006,-0.272,0.106,-1.398,-1.311,-0.906,-0.869,-0.37
-0.335,-0.305,0.029,0.32,-0.182,-0.138,0.268,-0.703,-0.7,-0.536,-0.669,-0.406
-0.244,-0.143,0.1,0.193,-0.172,-0.022,0.23,-0.145,-0.133,-0.031,-0.29,-0.219
-0.194,-0.061,0.133,0.127,-0.164,0.036,0.193,0.023,-0.006,0.056,-0.22,-0.197
-0.146,-0.028,0.118,0.087,-0.132,0.045,0.186,0.106,0.08,0.139,-0.165,-0.162
-0.125,-0.013,0.112,0.069,-0.118,0.049,0.183,0.129,0.084,0.139,-0.161,-0.156
-0.121,0.005,0.126,0.058,-0.123,0.065,0.172,0.122,0.095,0.149,-0.149,-0.138
-0.153,-0.012,0.141,0.082,-0.147,0.064,0.169,0.126,0.087,0.143,-0.147,-0.135
-0.146,-0.025,0.121,0.085,-0.133,0.048,0.158,0.148,0.092,0.145,-0.143,-0.133
-0.138,-0.013,0.125,0.075,-0.131,0.056,0.154,0.154,0.089,0.146,-0.136,-0.129
-0.121,0.002,0.123,0.059,-0.122,0.062,0.148,0.151,0.096,0.148,-0.135,-0.128
-0.111,0.024,0.135,0.043,-0.124,0.079,0.155,0.171,0.114,0.174,-0.129,-0.123
-0.108,0.03,0.138,0.039,-0.123,0.084,0.162,0.193,0.121,0.19,-0.127,-0.123
-0.123,0.02,0.142,0.051,-0.133,0.081,0.147,0.207,0.152,0.187,-0.124,-0.116
-0.095,0.014,0.109,0.04,-0.102,0.061,0.141,0.184,0.155,0.182,-0.125,-0.115
-0.078,0.013,0.091,0.032,-0.085,0.052,0.139,0.178,0.15,0.18,-0.12,-0.11
-0.077,0.031,0.108,0.023,-0.093,0.069,0.141,0.21,0.148,0.174,-0.12,-0.106
-0.061,0.041,0.102,0.01,-0.082,0.071,0.138,0.236,0.145,0.177,-0.119,-0.104
-0.104,0.042,0.145,0.031,-0.125,0.093,0.154,0.246,0.143,0.188,-0.115,-0.099
-0.131,0.044,0.176,0.043,-0.154,0.11,0.174,0.236,0.133,0.19,-0.115,-0.094
-0.135,0.03,0.165,0.052,-0.15,0.097,0.146,0.226,0.122,0.183,-0.115,-0.09
-0.116,0.05,0.166,0.033,-0.142,0.108,0.145,0.219,0.108,0.18,-0.115,-0.085
-0.128,0.064,0.192,0.032,-0.16,0.128,0.161,0.206,0.12,0.172,-0.115,-0.081
-0.13,0.07,0.2,0.03,-0.165,0.134,0.151,0.202,0.116,0.168,-0.11,-0.075
-0.049,0.11,0.158,-0.031,-0.104,0.134,0.148,0.189,0.093,0.161,-0.1,-0.065
-0.048,0.111,0.159,-0.032,-0.103,0.135,0.143,0.18,0.094,0.168,-0.09,-0.055
-0.078,0.108,0.186,-0.015,-0.132,0.147,0.14,0.184,0.133,0.217,-0.082,-0.047
-0.041,0.107,0.147,-0.033,-0.095,0.127,0.134,0.147,0.166,0.244,-0.078,-0.042
-0.008,0.104,0.112,-0.048,-0.061,0.108,0.127,0.113,0.155,0.238,-0.072,-0.037
-0.011,0.105,0.116,-0.047,-0.064,0.11,0.121,0.112,0.156,0.24,-0.066,-0.031
-0.062,0.096,0.157,-0.017,-0.11,0.126,0.114,0.114,0.151,0.255,-0.061,-0.027
-0.078,0.088,0.166,-0.005,-0.122,0.127,0.107,0.115,0.148,0.267,-0.056,-0.021
-0.061,0.08,0.141,-0.01,-0.101,0.11,0.107,0.116,0.161,0.264,-0.054,-0.02
-0.091,0.073,0.164,0.009,-0.127,0.118,0.13,0.113,0.163,0.264,-0.051,-0.02
-0.098,0.064,0.163,0.017,-0.131,0.113,0.134,0.119,0.174,0.274,-0.048,-0.02
-0.072,0.071,0.143,0.0,-0.108,0.107,0.118,0.136,0.176,0.28,-0.045,-0.02
-0.02,0.071,0.091,-0.026,-0.056,0.081,0.122,0.136,0.171,0.279,-0.048,-0.023
0.032,0.094,0.063,-0.063,-0.016,0.078,0.118,0.121,0.158,0.271,-0.061,-0.033
-0.001,0.111,0.113,-0.056,-0.057,0.112,0.124,0.128,0.176,0.29,-0.027,0.004
0.033,0.098,0.065,-0.066,-0.016,0.081,0.145,0.139,0.204,0.308,-0.018,0.03
0.054,0.096,0.043,-0.075,0.005,0.069,0.139,0.102,0.166,0.273,-0.056,-0.006
-0.003,0.087,0.09,-0.042,-0.047,0.089,0.139,0.077,0.135,0.244,-0.058,-0.021
0.004,0.079,0.075,-0.041,-0.036,0.077,0.141,0.064,0.123,0.237,-0.065,-0.029
-0.019,0.07,0.089,-0.026,-0.054,0.079,0.141,0.049,0.109,0.232,-0.072,-0.042
-0.044,0.062,0.105,-0.009,-0.075,0.083,0.147,0.052,0.108,0.238,-0.073,-0.04
-0.057,0.047,0.105,0.004,-0.081,0.076,0.142,0.049,0.09,0.231,-0.079,-0.033
-0.059,0.074,0.133,-0.008,-0.096,0.103,0.168,0.081,0.115,0.242,-0.062,-0.024
-0.045,0.143,0.188,-0.049,-0.117,0.165,0.235,0.128,0.159,0.278,-0.034,-0.016
-0.012,0.172,0.184,-0.081,-0.098,0.178,0.237,0.151,0.164,0.279,-0.019,-0.009
0.031,0.162,0.131,-0.097,-0.05,0.146,0.157,0.14,0.182,0.295,-0.015,-0.001
0.066,0.151,0.085,-0.108,-0.01,0.118,0.095,0.121,0.184,0.307,-0.007,0.011
0.106,0.139,0.034,-0.123,0.036,0.086,0.077,0.132,0.165,0.294,0.0,0.009
0.07,0.124,0.053,-0.097,0.008,0.089,0.082,0.113,0.161,0.299,0.002,-0.003
0.077,0.109,0.032,-0.093,0.023,0.07,0.073,0.053,0.123,0.263,-0.026,-0.014
0.093,0.08,-0.013,-0.086,0.052,0.034,0.061,0.02,0.084,0.231,-0.067,-0.026
0.023,0.052,0.029,-0.038,-0.004,0.041,0.096,0.015,0.073,0.215,-0.071,-0.038
-0.031,0.031,0.062,0.0,-0.047,0.046,0.138,0.008,0.06,0.211,-0.093,-0.059
-0.093,0.021,0.115,0.036,-0.104,0.068,0.164,0.012,0.058,0.204,-0.118,-0.079
-0.115,-0.004,0.111,0.059,-0.113,0.053,0.158,-0.002,0.047,0.163,-0.128,-0.107
-0.117,-0.028,0.088,0.072,-0.102,0.03,0.157,-0.009,0.066,0.168,-0.132,-0.123
-0.113,-0.003,0.11,0.058,-0.111,0.053,0.145,-0.024,0.05,0.16,-0.118,-0.128
-0.06,0.02,0.08,0.02,-0.07,0.049,0.15,0.029,0.065,0.195,-0.113,-0.128
-0.106,-0.005,0.101,0.055,-0.103,0.048,0.202,0.148,0.125,0.197,-0.13,-0.141
-0.118,-0.002,0.116,0.06,-0.117,0.057,0.235,0.362,0.365,0.36,-0.014,-0.082
0.127,0.182,0.055,-0.155,0.036,0.118,0.059,-0.13,0.397,0.756,0.542,0.412
0.695,0.528,-0.166,-0.611,0.43,0.18,-0.46,-1.604,-0.205,0.985,1.138,1.134
0.962,0.443,-0.519,-0.702,0.74,-0.038,-0.624,-2.163,-0.789,0.592,0.721,1.029
0.225,-0.173,-0.398,-0.026,0.312,-0.285,-0.117,-1.692,-1.282,-0.544,-0.504,0.015
-0.309,-0.377,-0.068,0.343,-0.12,-0.223,0.272,-1.042,-1.054,-0.796,-0.85,-0.464
-0.207,-0.173,0.034,0.19,-0.12,-0.07,0.276,-0.326,-0.272,-0.145,-0.382,-0.258
-0.201,-0.074,0.126,0.137,-0.163,0.026,0.226,-0.004,0.011,0.09,-0.2,-0.183
-0.161,-0.049,0.113,0.105,-0.137,0.032,0.196,0.072,0.082,0.151,-0.156,-0.149
-0.138,-0.036,0.101,0.087,-0.119,0.032,0.182,0.104,0.093,0.165,-0.149,-0.135
-0.11,-0.003,0.107,0.057,-0.108,0.051,0.187,0.111,0.098,0.165,-0.143,-0.134
-0.067,0.014,0.081,0.026,-0.074,0.047,0.184,0.122,0.109,0.163,-0.127,-0.121
-0.1,0.022,0.122,0.039,-0.111,0.072,0.186,0.117,0.112,0.177,-0.133,-0.121
-0.108,0.015,0.123,0.047,-0.116,0.069,0.185,0.124,0.126,0.205,-0.123,-0.108
-0.105,0.006,0.11,0.049,-0.108,0.058,0.181,0.137,0.141,0.197,-0.126,-0.123
-0.137,0.001,0.138,0.068,-0.138,0.069,0.18,0.162,0.139,0.201,-0.119,-0.12
-0.131,-0.01,0.121,0.07,-0.126,0.056,0.18,0.179,0.134,0.203,-0.119,-0.11
-0.133,-0.003,0.129,0.067,-0.131,0.063,0.18,0.174,0.168,0.213,-0.11,-0.103
-0.127,0.008,0.135,0.059,-0.132,0.071,0.179,0.182,0.173,0.217,-0.099,-0.095
-0.107,0.021,0.128,0.043,-0.118,0.074,0.182,0.209,0.186,0.231,-0.092,-0.091
-0.117,0.035,0.152,0.041,-0.135,0.093,0.185,0.217,0.191,0.232,-0.089,-0.088
-0.122,0.04,0.163,0.041,-0.143,0.101,0.187,0.209,0.181,0.226,-0.086,-0.085
-0.109,0.042,0.151,0.033,-0.13,0.096,0.19,0.233,0.177,0.227,-0.084,-0.083
-0.088,0.045,0.133,0.021,-0.111,0.089,0.193,0.252,0.168,0.22,-0.08,-0.08
-0.096,0.048,0.144,0.024,-0.12,0.096,0.196,0.239,0.165,0.222,-0.081,-0.08
-0.071,0.057,0.128,0.007,-0.1,0.092,0.194,0.237,0.155,0.216,-0.086,-0.081
-0.097,0.061,0.158,0.017,-0.128,0.11,0.196,0.244,0.159,0.211,-0.08,-0.077
-0.088,0.065,0.153,0.011,-0.121,0.109,0.194,0.25,0.161,0.223,-0.078,-0.085
-0.076,0.07,0.146,0.002,-0.111,0.108,0.196,0.224,0.147,0.226,-0.069,-0.049
-0.078,0.069,0.148,0.004,-0.113,0.109,0.205,0.175,0.154,0.22,-0.079,-0.029
-0.003,0.088,0.091,-0.042,-0.047,0.089,0.192,0.146,0.155,0.22,-0.077,-0.04
-0.019,0.105,0.124,-0.043,-0.071,0.114,0.174,0.144,0.155,0.243,-0.037,-0.008
-0.033,0.091,0.125,-0.029,-0.079,0.108,0.168,0.141,0.152,0.251,-0.024,0.003
-0.032,0.083,0.115,-0.026,-0.074,0.099,0.16,0.138,0.169,0.272,-0.001,0.011
-0.038,0.079,0.117,-0.021,-0.078,0.097,0.155,0.135,0.199,0.301,0.021,0.024
-0.033,0.074,0.107,-0.021,-0.07,0.09,0.147,0.134,0.2,0.308,0.031,0.029
-0.006,0.097,0.102,-0.046,-0.054,0.099,0.141,0.136,0.204,0.323,0.047,0.031
0.013,0.103,0.09,-0.058,-0.039,0.096,0.142,0.134,0.206,0.317,0.042,0.029
-0.015,0.09,0.104,-0.038,-0.06,0.096,0.148,0.136,0.223,0.33,0.054,0.03
-0.007,0.085,0.093,-0.039,-0.05,0.089,0.149,0.134,0.237,0.342,0.059,0.03
-0.009,0.071,0.08,-0.031,-0.045,0.075,0.144,0.148,0.233,0.326,0.038,0.028
0.005,0.066,0.061,-0.035,-0.028,0.063,0.146,0.157,0.235,0.322,0.031,0.031
0.012,0.046,0.034,-0.029,-0.012,0.04,0.142,0.156,0.228,0.315,0.027,0.035
-0.014,0.048,0.062,-0.017,-0.038,0.055,0.14,0.164,0.232,0.31,0.021,0.041
0.005,0.057,0.052,-0.031,-0.024,0.055,0.139,0.124,0.223,0.305,0.015,0.042
-0.017,0.018,0.035,0.0,-0.026,0.026,0.138,0.101,0.185,0.298,0.01,0.029
-0.018,0.01,0.028,0.004,-0.023,0.019,0.133,0.104,0.169,0.285,0.005,0.018
-0.015,0.005,0.02,0.005,-0.018,0.013,0.134,0.089,0.165,0.257,-0.002,0.007
-0.042,-0.005,0.037,0.023,-0.039,0.016,0.128,0.09,0.16,0.246,-0.006,0.005
-0.004,-0.011,-0.007,0.008,0.002,-0.009,0.132,0.089,0.156,0.243,-0.015,0.004
-0.041,-0.007,0.034,0.024,-0.038,0.013,0.159,0.092,0.152,0.253,-0.011,0.006
-0.052,0.039,0.091,0.006,-0.072,0.065,0.167,0.091,0.153,0.264,0.002,0.008
-0.031,0.069,0.1,-0.019,-0.066,0.085,0.237,0.136,0.182,0.28,0.02,0.025
0.009,0.085,0.077,-0.047,-0.034,0.08,0.241,0.181,0.228,0.324,0.057,0.058
0.05,0.097,0.047,-0.074,0.001,0.072,0.133,0.152,0.226,0.326,0.062,0.056
0.038,0.092,0.054,-0.065,-0.009,0.073,0.089,0.132,0.215,0.323,0.058,0.044
0.106,0.092,-0.014,-0.098,0.06,0.038,0.073,0.138,0.214,0.328,0.063,0.045
0.116,0.085,-0.031,-0.101,0.073,0.027,0.074,0.107,0.196,0.319,0.053,0.028
0.101,0.069,-0.032,-0.085,0.067,0.018,0.073,0.042,0.141,0.301,0.045,0.044
0.114,0.034,-0.08,-0.074,0.097,-0.023,0.065,0.015,0.089,0.226,-0.016,0.059
0.026,0.004,-0.022,-0.015,0.024,-0.009,0.115,0.017,0.11,0.214,-0.022,0.052
-0.031,0.01,0.04,0.01,-0.036,0.025,0.165,0.051,0.119,0.232,-0.01,0.024
-0.021,-0.014,0.007,0.017,-0.014,-0.003,0.159,0.046,0.084,0.179,-0.078,-0.043
-0.043,-0.048,-0.005,0.046,-0.019,-0.027,0.131,0.002,0.076,0.155,-0.089,-0.046
-0.078,-0.04,0.038,0.059,-0.058,-0.001,0.166,0.055,0.092,0.184,-0.08,-0.035
-0.108,-0.04,0.068,0.074,-0.088,0.014,0.178,0.043,0.085,0.188,-0.088,-0.042
-0.073,-0.032,0.041,0.052,-0.057,0.005,0.161,0.049,0.092,0.181,-0.083,-0.039
-0.073,-0.029,0.043,0.051,-0.058,0.007,0.21,0.186,0.143,0.184,-0.087,-0.074
-0.067,-0.026,0.04,0.046,-0.053,0.007,0.223,0.407,0.387,0.39,0.063,0.007
0.152,0.142,-0.01,-0.147,0.081,0.066,0.04,-0.033,0.423,0.763,0.61,0.53
0.744,0.455,-0.289,-0.599,0.516,0.082,-0.457,-1.436,-0.195,0.889,1.068,1.186
0.969,0.318,-0.651,-0.643,0.81,-0.167,-0.585,-2.015,-0.844,0.363,0.512,0.919
0.229,-0.261,-0.491,0.016,0.36,-0.376,-0.06,-1.562,-1.255,-0.693,-0.622,-0.082
-0.271,-0.386,-0.115,0.329,-0.077,-0.25,0.26,-0.927,-0.956,-0.764,-0.804,-0.426
-0.175,-0.188,-0.013,0.182,-0.081,-0.101,0.252,-0.284,-0.247,-0.104,-0.314,-0.207
-0.119,-0.111,0.008,0.115,-0.063,-0.051,0.234,0.001,0.001,0.068,-0.179,-0.138
-0.127,-0.066,0.06,0.096,-0.093,-0.003,0.207,0.104,0.101,0.153,-0.137,-0.097
-0.106,-0.066,0.04,0.085,-0.073,-0.013,0.199,0.137,0.107,0.174,-0.11,-0.087
-0.091,-0.059,0.033,0.075,-0.062,-0.013,0.201,0.142,0.112,0.176,-0.114,-0.093
-0.124,-0.057,0.068,0.09,-0.096,0.005,0.195,0.149,0.146,0.209,-0.102,-0.087
-0.117,-0.055,0.062,0.086,-0.089,0.003,0.19,0.15,0.135,0.2,-0.108,-0.093
-0.097,-0.049,0.048,0.073,-0.073,-0.001,0.184,0.155,0.143,0.179,-0.098,-0.088
-0.097,-0.051,0.046,0.074,-0.071,-0.002,0.179,0.163,0.133,0.169,-0.101,-0.088
-0.083,-0.042,0.04,0.062,-0.061,-0.001,0.172,0.177,0.135,0.173,-0.095,-0.081
-0.082,-0.035,0.047,0.058,-0.064,0.006,0.166,0.176,0.136,0.165,-0.091,-0.079
-0.097,-0.027,0.069,0.062,-0.083,0.021,0.159,0.21,0.153,0.219,-0.077,-0.075
-0.09,-0.023,0.067,0.056,-0.078,0.022,0.152,0.223,0.152,0.21,-0.063,-0.075
-0.089,-0.021,0.068,0.055,-0.078,0.023,0.146,0.225,0.143,0.188,-0.064,-0.073
-0.053,-0.015,0.038,0.034,-0.045,0.011,0.145,0.243,0.141,0.198,-0.076,-0.069
-0.038,-0.015,0.023,0.026,-0.03,0.004,0.145,0.242,0.131,0.187,-0.077,-0.071
-0.055,-0.006,0.049,0.03,-0.052,0.022,0.145,0.236,0.133,0.186,-0.051,-0.066
-0.053,0.0,0.053,0.026,-0.053,0.026,0.145,0.231,0.136,0.18,-0.036,-0.06
-0.073,-0.008,0.065,0.04,-0.069,0.028,0.145,0.226,0.13,0.174,-0.067,-0.053
-0.068,-0.001,0.067,0.034,-0.068,0.033,0.144,0.222,0.122,0.162,-0.088,-0.046
-0.061,0.01,0.07,0.026,-0.066,0.04,0.138,0.219,0.116,0.151,-0.072,-0.039
-0.066,0.027,0.093,0.019,-0.079,0.059,0.131,0.214,0.109,0.139,-0.066,-0.03
-0.047,0.043,0.09,0.002,-0.069,0.066,0.124,0.211,0.111,0.136,-0.054,-0.02
-0.035,0.057,0.091,-0.011,-0.063,0.074,0.117,0.206,0.103,0.133,-0.022,-0.01
-0.038,0.048,0.086,-0.006,-0.062,0.067,0.111,0.19,0.106,0.132,-0.021,-0.002
-0.015,0.022,0.037,-0.003,-0.027,0.029,0.106,0.173,0.133,0.128,-0.02,0.004
0.02,0.034,0.014,-0.027,0.002,0.024,0.102,0.164,0.143,0.138,0.001,0.012
0.07,0.052,-0.019,-0.061,0.045,0.016,0.099,0.161,0.137,0.164,0.01,0.022
0.046,0.048,0.002,-0.047,0.022,0.025,0.096,0.154,0.145,0.164,0.02,0.021
0.009,0.046,0.037,-0.027,-0.015,0.041,0.091,0.154,0.169,0.183,0.031,0.017
0.067,0.042,-0.025,-0.055,0.046,0.009,0.088,0.139,0.161,0.175,0.038,0.015
0.066,0.036,-0.029,-0.051,0.047,0.004,0.085,0.149,0.174,0.185,0.05,0.011
0.057,0.028,-0.029,-0.042,0.043,0.0,0.082,0.177,0.206,0.219,0.062,0.01
0.098,0.024,-0.074,-0.061,0.086,-0.025,0.078,0.164,0.191,0.194,0.058,0.016
0.081,0.014,-0.067,-0.048,0.074,-0.026,0.075,0.157,0.184,0.183,0.062,0.036
0.08,0.013,-0.068,-0.046,0.074,-0.027,0.068,0.141,0.179,0.173,0.057,0.032
0.096,0.024,-0.072,-0.06,0.084,-0.024,0.05,0.128,0.18,0.161,0.072,0.042
0.098,0.022,-0.076,-0.06,0.087,-0.027,0.037,0.135,0.184,0.155,0.098,0.064
0.113,0.017,-0.096,-0.065,0.105,-0.039,0.034,0.128,0.151,0.137,0.056,0.03
0.103,0.012,-0.091,-0.058,0.097,-0.039,0.035,0.112,0.127,0.136,0.038,0.025
0.087,0.01,-0.077,-0.048,0.082,-0.034,0.035,0.103,0.132,0.103,0.03,0.026
0.081,-0.001,-0.082,-0.04,0.081,-0.041,0.035,0.092,0.129,0.072,0.017,0.013
0.11,-0.003,-0.113,-0.053,0.112,-0.058,0.036,0.083,0.128,0.097,0.045,0.012
0.072,-0.018,-0.089,-0.027,0.081,-0.053,0.029,0.077,0.122,0.052,0.046,-0.011
0.054,-0.004,-0.058,-0.025,0.056,-0.031,0.06,0.068,0.112,0.047,0.033,-0.002
0.096,0.08,-0.016,-0.088,0.056,0.032,0.118,0.117,0.148,0.118,0.061,0.037
0.088,0.082,-0.006,-0.084,0.047,0.037,0.137,0.154,0.166,0.101,0.074,0.04
0.103,0.038,-0.065,-0.07,0.083,-0.013,0.064,0.141,0.158,0.095,0.066,0.028
0.108,0.057,-0.051,-0.083,0.079,0.003,-0.039,0.13,0.16,0.123,0.088,0.059
0.175,0.078,-0.097,-0.126,0.136,-0.01,-0.068,0.113,0.161,0.136,0.102,0.087
0.206,0.078,-0.128,-0.142,0.167,-0.025,-0.07,0.114,0.155,0.144,0.11,0.086
0.161,0.044,-0.117,-0.103,0.139,-0.036,-0.067,0.057,0.107,0.101,0.093,0.074
0.175,-0.007,-0.181,-0.084,0.178,-0.094,-0.065,-0.01,0.081,0.019,0.03,0.025
0.129,-0.03,-0.159,-0.049,0.144,-0.095,-0.036,0.011,0.083,0.01,0.007,-0.007
0.054,-0.025,-0.079,-0.015,0.067,-0.052,0.02,0.033,0.068,0.021,0.004,0.006
0.033,-0.041,-0.074,0.004,0.054,-0.057,0.051,0.024,0.062,-0.031,-0.04,-0.042
0.007,-0.082,-0.089,0.038,0.048,-0.085,0.046,-0.005,0.019,-0.057,-0.024,-0.092
0.003,-0.082,-0.085,0.039,0.045,-0.083,0.041,0.015,0.023,-0.062,-0.015,-0.082
0.013,-0.092,-0.105,0.039,0.06,-0.098,0.036,0.039,0.025,-0.083,-0.056,-0.076
-0.004,-0.091,-0.087,0.048,0.042,-0.089,0.016,0.059,0.029,-0.061,-0.028,-0.066
-0.017,-0.072,-0.055,0.045,0.02,-0.064,0.041,0.099,0.08,-0.055,-0.022,-0.093
0.016,-0.073,-0.088,0.029,0.052,-0.08,0.068,0.291,0.268,0.081,0.029,-0.078
0.176,0.026,-0.149,-0.101,0.162,-0.061,-0.037,0.248,0.484,0.455,0.496,0.349
0.658,0.367,-0.292,-0.512,0.475,0.038,-0.482,-0.938,0.002,0.695,1.172,1.17
1.055,0.487,-0.568,-0.77,0.811,-0.041,-0.804,-1.848,-0.644,0.504,1.051,1.311
0.511,-0.027,-0.538,-0.242,0.525,-0.282,-0.383,-1.52,-1.065,-0.45,-0.079,0.336
-0.162,-0.379,-0.217,0.27,0.028,-0.298,0.092,-1.049,-1.141,-1.086,-0.785,-0.409
-0.165,-0.298,-0.133,0.232,-0.016,-0.215,0.123,-0.529,-0.548,-0.614,-0.478,-0.332
-0.068,-0.204,-0.136,0.136,0.034,-0.17,0.079,-0.114,-0.127,-0.228,-0.159,-0.178
0.017,-0.105,-0.123,0.045,0.07,-0.114,0.044,0.053,0.024,-0.142,-0.088,-0.145
0.037,-0.085,-0.122,0.025,0.079,-0.103,0.019,0.106,0.073,-0.116,-0.076,-0.119
-0.002,-0.097,-0.095,0.05,0.047,-0.096,0.017,0.088,0.05,-0.117,-0.077,-0.111
-0.008,-0.093,-0.085,0.051,0.039,-0.089,0.008,0.099,0.067,-0.098,-0.049,-0.108
-0.001,-0.098,-0.097,0.049,0.049,-0.097,0.005,0.092,0.065,-0.108,-0.056,-0.112
0.047,-0.091,-0.138,0.022,0.093,-0.114,-0.006,0.1,0.085,-0.096,-0.06,-0.109
0.056,-0.091,-0.146,0.018,0.101,-0.118,-0.013,0.1,0.078,-0.098,-0.06,-0.11
0.04,-0.089,-0.129,0.025,0.085,-0.109,-0.017,0.13,0.086,-0.083,-0.054,-0.105
0.027,-0.087,-0.114,0.03,0.071,-0.1,-0.012,0.157,0.085,-0.076,-0.049,-0.102
0.028,-0.084,-0.112,0.028,0.071,-0.098,-0.027,0.139,0.081,-0.063,-0.039,-0.097
0.009,-0.085,-0.095,0.038,0.052,-0.09,-0.057,0.135,0.079,-0.066,-0.032,-0.095
0.035,-0.078,-0.113,0.021,0.074,-0.095,-0.053,0.126,0.076,-0.095,-0.007,-0.094
0.05,-0.067,-0.117,0.009,0.084,-0.092,-0.05,0.129,0.073,-0.1,-0.016,-0.09
0.029,-0.058,-0.087,0.014,0.059,-0.073,-0.048,0.158,0.07,-0.105,-0.038,-0.09
0.05,-0.047,-0.097,-0.001,0.074,-0.072,-0.044,0.161,0.067,-0.102,0.011,-0.083
0.036,-0.039,-0.075,0.001,0.056,-0.056,-0.046,0.158,0.029,-0.1,0.026,-0.074
0.038,-0.026,-0.064,-0.006,0.051,-0.045,-0.043,0.156,0.02,-0.115,0.003,-0.066
0.053,-0.017,-0.071,-0.017,0.062,-0.044,-0.058,0.153,0.034,-0.114,0.007,-0.056
0.016,0.0,-0.016,-0.008,0.016,-0.008,-0.072,0.177,0.027,-0.11,0.016,-0.049
-0.033,-0.004,0.029,0.018,-0.031,0.013,-0.067,0.18,0.024,-0.11,0.003,-0.041
0.016,-0.029,-0.045,0.007,0.031,-0.037,-0.064,0.155,0.024,-0.103,-0.003,-0.033
0.058,-0.013,-0.071,-0.022,0.065,-0.042,-0.061,0.152,0.016,-0.107,-0.007,-0.026
0.033,0.007,-0.026,-0.02,0.03,-0.009,-0.061,0.16,0.03,-0.087,0.022,-0.017
0.105,0.02,-0.085,-0.062,0.095,-0.032,-0.102,0.149,0.02,-0.076,0.034,-0.009
0.131,0.027,-0.104,-0.079,0.117,-0.038,-0.119,0.134,0.002,-0.077,0.035,0.008
0.077,0.014,-0.063,-0.045,0.07,-0.024,-0.084,0.122,0.047,-0.053,0.08,0.026
0.076,0.004,-0.072,-0.04,0.074,-0.034,-0.073,0.111,0.063,-0.059,0.083,0.026
0.079,-0.008,-0.087,-0.035,0.083,-0.047,-0.078,0.109,0.06,-0.058,0.066,0.024
0.063,-0.003,-0.065,-0.03,0.064,-0.034,-0.071,0.106,0.068,-0.051,0.087,0.023
0.084,0.004,-0.08,-0.044,0.082,-0.038,-0.091,0.103,0.066,-0.054,0.11,0.018
0.103,-0.008,-0.111,-0.047,0.107,-0.059,-0.106,0.1,0.072,-0.042,0.107,0.023
0.104,-0.01,-0.114,-0.047,0.109,-0.061,-0.105,0.099,0.068,-0.047,0.1,0.037
0.079,-0.022,-0.102,-0.028,0.091,-0.062,-0.105,0.091,0.072,-0.013,0.099,0.043
0.095,-0.003,-0.098,-0.046,0.097,-0.05,-0.105,0.083,0.087,-0.016,0.123,0.056
0.181,0.014,-0.167,-0.098,0.174,-0.076,-0.152,0.075,0.084,-0.049,0.127,0.058
0.146,-0.015,-0.16,-0.065,0.153,-0.088,-0.162,0.068,0.075,-0.006,0.116,0.048
0.136,-0.02,-0.156,-0.058,0.146,-0.088,-0.139,0.06,0.066,-0.036,0.111,0.043
0.15,-0.01,-0.16,-0.07,0.155,-0.085,-0.141,0.053,0.054,-0.069,0.105,0.036
0.137,0.006,-0.131,-0.071,0.134,-0.063,-0.135,0.046,0.029,-0.066,0.094,0.029
0.132,-0.015,-0.147,-0.059,0.14,-0.081,-0.134,0.038,0.005,-0.065,0.065,0.026
0.117,-0.033,-0.15,-0.042,0.134,-0.091,-0.125,0.03,0.012,-0.066,0.069,0.022
0.135,-0.019,-0.154,-0.058,0.145,-0.086,-0.116,0.026,0.01,-0.093,0.074,0.02
0.11,-0.01,-0.12,-0.05,0.115,-0.065,-0.094,0.036,0.001,-0.083,0.064,0.014
0.12,0.025,-0.095,-0.072,0.107,-0.035,-0.058,0.05,0.017,-0.08,0.061,0.018
0.113,0.053,-0.061,-0.083,0.087,-0.004,-0.02,0.09,0.059,-0.029,0.098,0.044
0.134,0.069,-0.066,-0.101,0.1,0.001,-0.037,0.097,0.079,0.011,0.135,0.049
0.169,0.071,-0.099,-0.12,0.134,-0.014,-0.144,0.072,0.068,-0.012,0.133,0.065
0.194,0.065,-0.129,-0.129,0.161,-0.032,-0.232,0.09,0.072,-0.021,0.119,0.089
0.228,0.063,-0.165,-0.145,0.196,-0.051,-0.216,0.09,0.081,0.012,0.133,0.096
0.187,0.041,-0.146,-0.114,0.166,-0.052,-0.188,0.083,0.058,0.029,0.141,0.085
0.179,0.006,-0.173,-0.092,0.176,-0.084,-0.215,0.03,0.018,-0.058,0.09,0.042
0.136,-0.037,-0.173,-0.05,0.155,-0.105,-0.191,0.006,0.017,-0.102,0.065,0.014
0.078,-0.041,-0.119,-0.018,0.098,-0.079,-0.154,0.014,0.004,-0.072,0.074,0.01
0.078,-0.047,-0.124,-0.015,0.101,-0.085,-0.15,-0.019,-0.005,-0.087,0.062,-0.008
0.038,-0.104,-0.142,0.034,0.09,-0.123,-0.143,-0.041,-0.03,-0.13,0.025,-0.045
0.027,-0.113,-0.14,0.043,0.084,-0.126,-0.136,-0.052,-0.059,-0.127,0.006,-0.055
0.073,-0.096,-0.169,0.012,0.121,-0.132,-0.123,-0.054,-0.053,-0.115,-0.011,-0.051
0.045,-0.094,-0.139,0.025,0.092,-0.116,-0.119,-0.064,-0.061,-0.12,-0.002,-0.037
0.016,-0.098,-0.114,0.042,0.065,-0.106,-0.104,0.007,-0.018,-0.102,0.002,-0.057
0.059,-0.12,-0.18,0.031,0.12,-0.15,-0.1,0.139,0.069,-0.088,-0.028,-0.114
0.108,-0.058,-0.166,-0.025,0.137,-0.112,-0.089,0.327,0.377,0.24,0.298,0.114
0.379,0.207,-0.172,-0.293,0.275,0.018,-0.355,-0.361,0.174,0.574,0.998,0.876
0.93,0.505,-0.425,-0.717,0.677,0.04,-0.855,-1.647,-0.553,0.62,1.352,1.495
0.814,0.221,-0.593,-0.517,0.703,-0.186,-0.745,-1.737,-0.98,0.039,0.552,0.897
0.005,-0.328,-0.333,0.162,0.17,-0.331,-0.167,-1.241,-1.285,-1.031,-0.617,-0.214
-0.176,-0.356,-0.18,0.267,0.002,-0.268,0.041,-0.817,-0.941,-0.942,-0.661,-0.448
-0.024,-0.223,-0.198,0.124,0.087,-0.21,-0.022,-0.305,-0.325,-0.36,-0.242,-0.235
-0.075,-0.167,-0.092,0.121,0.008,-0.129,-0.054,-0.042,-0.108,-0.229,-0.125,-0.174
0.013,-0.117,-0.131,0.052,0.072,-0.124,-0.115,0.024,-0.033,-0.132,-0.077,-0.139
0.033,-0.11,-0.144,0.039,0.089,-0.127,-0.136,0.033,-0.022,-0.136,-0.054,-0.124
-0.007,-0.096,-0.089,0.051,0.042,-0.092,-0.113,0.046,-0.009,-0.116,-0.04,-0.107
-0.002,-0.096,-0.094,0.049,0.047,-0.095,-0.117,0.075,-0.005,-0.102,-0.032,-0.104
0.005,-0.087,-0.092,0.041,0.048,-0.089,-0.127,0.083,0.022,-0.126,-0.024,-0.099
0.045,-0.086,-0.131,0.021,0.088,-0.108,-0.119,0.082,0.021,-0.141,-0.03,-0.093
0.025,-0.079,-0.104,0.027,0.065,-0.091,-0.119,0.087,0.011,-0.125,-0.007,-0.086
0.028,-0.076,-0.104,0.024,0.067,-0.09,-0.113,0.122,0.007,-0.129,-0.026,-0.092
0.033,-0.085,-0.118,0.026,0.076,-0.101,-0.1,0.129,0.046,-0.133,-0.035,-0.112
-0.006,-0.078,-0.072,0.042,0.033,-0.075,-0.121,0.099,0.069,-0.121,-0.01,-0.109
0.01,-0.08,-0.09,0.035,0.05,-0.085,-0.134,0.1,0.044,-0.12,-0.001,-0.106
0.046,-0.072,-0.119,0.013,0.083,-0.095,-0.148,0.079,0.034,-0.111,0.006,-0.105
0.054,-0.033,-0.087,-0.011,0.07,-0.059,-0.134,0.087,0.023,-0.111,0.004,-0.102
0.058,-0.007,-0.065,-0.026,0.062,-0.036,-0.117,0.111,0.018,-0.108,-0.002,-0.1
0.048,-0.022,-0.07,-0.013,0.059,-0.046,-0.138,0.102,0.009,-0.126,-0.012,-0.097
-0.029,-0.016,0.013,0.022,-0.021,-0.002,-0.133,0.135,0.042,-0.135,0.024,-0.094
0.006,0.024,0.018,-0.015,-0.006,0.021,-0.135,0.144,0.039,-0.122,0.02,-0.091
0.031,0.032,0.001,-0.032,0.015,0.016,-0.148,0.138,0.007,-0.135,0.001,-0.089
-0.006,0.011,0.017,-0.003,-0.011,0.013,-0.152,0.122,0.003,-0.164,0.007,-0.086
0.045,0.027,-0.018,-0.036,0.031,0.005,-0.14,0.104,-0.008,-0.166,-0.011,-0.079
0.032,0.044,0.011,-0.038,0.01,0.027,-0.138,0.103,-0.014,-0.172,-0.023,-0.078
0.087,0.054,-0.034,-0.07,0.06,0.01,-0.172,0.088,-0.021,-0.159,-0.014,-0.067
0.122,0.075,-0.047,-0.098,0.084,0.014,-0.177,0.098,0.008,-0.114,0.039,-0.032
0.082,0.062,-0.02,-0.072,0.051,0.02,-0.164,0.095,0.023,-0.103,0.057,-0.027
0.092,0.058,-0.034,-0.075,0.062,0.012,-0.159,0.083,0.022,-0.088,0.047,-0.032
0.094,0.052,-0.042,-0.073,0.068,0.005,-0.15,0.087,0.039,-0.072,0.048,-0.028
0.087,0.049,-0.038,-0.067,0.062,0.005,-0.145,0.066,0.03,-0.079,0.036,-0.027
0.025,0.044,0.019,-0.035,0.002,0.032,-0.145,0.066,0.031,-0.057,0.056,-0.024
0.079,0.037,-0.041,-0.058,0.06,-0.002,-0.145,0.05,0.025,-0.068,0.086,-0.025
0.111,0.068,-0.043,-0.089,0.077,0.012,-0.145,0.031,0.021,-0.085,0.086,-0.014
0.079,0.065,-0.014,-0.072,0.046,0.025,-0.145,0.081,0.064,-0.076,0.09,-0.002
0.15,0.048,-0.101,-0.099,0.125,-0.026,-0.165,0.045,0.077,-0.067,0.092,-0.006
0.168,0.049,-0.119,-0.109,0.143,-0.034,-0.185,0.032,0.065,-0.032,0.095,-0.002
0.162,0.063,-0.099,-0.112,0.131,-0.018,-0.156,0.061,0.066,-0.025,0.093,0.012
0.194,0.076,-0.118,-0.135,0.156,-0.021,-0.163,0.028,0.057,-0.022,0.085,0.009
0.174,0.064,-0.11,-0.119,0.142,-0.023,-0.185,0.035,0.056,-0.008,0.08,-0.003
0.142,0.06,-0.082,-0.101,0.112,-0.011,-0.172,0.029,0.043,-0.039,0.071,-0.014
0.153,0.052,-0.101,-0.102,0.126,-0.024,-0.169,0.021,0.027,-0.085,0.068,-0.024
0.105,0.045,-0.06,-0.075,0.082,-0.007,-0.16,0.019,0.01,-0.089,0.043,-0.009
0.096,0.035,-0.061,-0.066,0.079,-0.013,-0.161,0.007,-0.022,-0.099,0.024,-0.02
0.103,0.025,-0.079,-0.064,0.091,-0.027,-0.156,0.003,-0.018,-0.116,0.024,-0.046
0.092,0.02,-0.072,-0.056,0.082,-0.026,-0.157,-0.012,-0.023,-0.097,0.026,-0.044
0.12,0.019,-0.101,-0.07,0.111,-0.041,-0.15,-0.013,-0.032,-0.103,0.03,-0.046
0.103,0.047,-0.056,-0.075,0.079,-0.004,-0.115,0.015,-0.002,-0.134,0.027,-0.045
0.051,0.086,0.036,-0.068,0.007,0.061,-0.047,0.049,0.027,-0.105,0.072,-0.032
0.081,0.115,0.034,-0.098,0.023,0.075,-0.009,0.073,0.056,-0.069,0.1,-0.021
0.174,0.122,-0.053,-0.148,0.114,0.034,-0.1,0.049,0.062,-0.071,0.086,-0.007
0.196,0.119,-0.077,-0.157,0.137,0.021,-0.195,0.02,0.051,-0.069,0.086,0.007
0.186,0.121,-0.065,-0.153,0.125,0.028,-0.219,0.031,0.042,-0.077,0.08,0.018
0.203,0.12,-0.083,-0.161,0.143,0.018,-0.209,0.021,0.035,-0.071,0.074,0.026
0.196,0.088,-0.108,-0.142,0.152,-0.01,-0.2,-0.023,0.014,-0.09,0.065,0.012
0.156,0.029,-0.128,-0.092,0.142,-0.049,-0.189,-0.055,-0.023,-0.142,0.014,-0.023
0.138,0.024,-0.114,-0.08,0.126,-0.045,-0.15,-0.067,-0.045,-0.149,0.014,-0.048
0.077,0.02,-0.056,-0.048,0.066,-0.018,-0.131,-0.078,-0.053,-0.143,0.037,-0.055
0.065,-0.019,-0.084,-0.023,0.075,-0.051,-0.118,-0.061,-0.047,-0.167,-0.016,-0.079
0.029,-0.04,-0.07,0.006,0.05,-0.055,-0.108,-0.069,-0.065,-0.209,-0.044,-0.1
-0.017,-0.048,-0.031,0.033,0.007,-0.039,-0.098,-0.05,-0.051,-0.202,-0.057,-0.102
0.041,-0.039,-0.08,-0.001,0.061,-0.059,-0.089,-0.054,-0.056,-0.207,-0.054,-0.093
0.046,-0.04,-0.087,-0.003,0.067,-0.063,-0.083,-0.059,-0.042,-0.207,-0.054,-0.098
0.014,-0.052,-0.066,0.019,0.041,-0.059,-0.047,0.037,0.018,-0.189,-0.065,-0.137
0.049,-0.032,-0.082,-0.008,0.066,-0.057,-0.024,0.253,0.247,-0.019,0.04,-0.107
0.193,0.101,-0.092,-0.147,0.142,0.005,-0.127,0.089,0.368,0.361,0.561,0.371
0.647,0.447,-0.2,-0.546,0.423,0.123,-0.604,-1.177,-0.229,0.572,1.238,1.21
1.025,0.514,-0.511,-0.769,0.768,0.002,-0.884,-1.96,-0.8,0.387,1.047,1.275
0.443,-0.041,-0.484,-0.201,0.464,-0.262,-0.405,-1.547,-1.185,-0.631,-0.168,0.233
-0.194,-0.388,-0.194,0.291,0.0,-0.291,0.02,-1.102,-1.223,-1.242,-0.85,-0.493
-0.168,-0.25,-0.081,0.209,-0.043,-0.165,0.066,-0.549,-0.562,-0.674,-0.46,-0.367
-0.085,-0.121,-0.036,0.103,-0.024,-0.078,0.005,-0.116,-0.156,-0.34,-0.185,-0.222
-0.022,-0.06,-0.038,0.041,0.008,-0.049,-0.05,-0.018,-0.058,-0.265,-0.134,-0.184
-0.048,-0.042,0.006,0.045,-0.027,-0.018,-0.02,0.037,-0.014,-0.222,-0.093,-0.153
-0.069,-0.039,0.03,0.054,-0.05,-0.004,-0.04,0.056,-0.009,-0.226,-0.094,-0.157
-0.029,-0.035,-0.006,0.032,-0.011,-0.021,-0.049,0.095,0.018,-0.205,-0.073,-0.142
-0.047,-0.034,0.012,0.041,-0.029,-0.011,-0.041,0.117,0.027,-0.199,-0.069,-0.142
-0.037,-0.029,0.008,0.033,-0.022,-0.011,-0.048,0.09,0.057,-0.189,-0.065,-0.13
0.006,-0.03,-0.035,0.012,0.021,-0.032,-0.042,0.079,0.055,-0.214,-0.074,-0.133
-0.018,-0.022,-0.004,0.02,-0.007,-0.013,-0.047,0.09,0.058,-0.183,-0.062,-0.136
-0.02,-0.016,0.004,0.018,-0.012,-0.006,-0.044,0.104,0.063,-0.174,-0.065,-0.134
-0.023,-0.009,0.014,0.016,-0.018,0.002,-0.046,0.106,0.068,-0.174,-0.066,-0.136
-0.022,-0.002,0.02,0.012,-0.021,0.009,-0.045,0.105,0.071,-0.162,-0.064,-0.134
0.061,0.003,-0.058,-0.032,0.059,-0.027,-0.055,0.103,0.072,-0.163,-0.066,-0.13
0.05,0.006,-0.044,-0.028,0.047,-0.019,-0.049,0.118,0.075,-0.196,-0.064,-0.127
-0.024,0.004,0.028,0.01,-0.026,0.016,-0.03,0.139,0.066,-0.209,-0.06,-0.123
-0.047,0.007,0.054,0.02,-0.051,0.031,-0.039,0.144,0.062,-0.2,-0.061,-0.121
-0.008,0.013,0.02,-0.003,-0.014,0.016,-0.036,0.144,0.057,-0.201,-0.059,-0.116
0.001,0.026,0.025,-0.013,-0.013,0.025,-0.021,0.152,0.05,-0.194,-0.055,-0.113
-0.022,0.05,0.072,-0.014,-0.047,0.061,-0.016,0.165,0.049,-0.198,-0.056,-0.11
-0.043,0.054,0.097,-0.006,-0.07,0.075,-0.014,0.158,0.041,-0.205,-0.052,-0.105
-0.057,0.053,0.11,0.002,-0.084,0.081,-0.013,0.151,0.046,-0.229,-0.066,-0.108
-0.051,0.049,0.1,0.001,-0.076,0.074,-0.005,0.144,0.029,-0.223,-0.055,-0.076
-0.085,0.044,0.129,0.02,-0.108,0.086,-0.037,0.138,0.013,-0.233,-0.055,-0.073
0.007,0.075,0.068,-0.041,-0.03,0.071,-0.061,0.129,0.06,-0.231,-0.053,-0.07
0.099,0.092,-0.007,-0.095,0.053,0.042,-0.046,0.106,0.069,-0.185,-0.022,-0.037
0.028,0.073,0.044,-0.051,-0.009,0.058,-0.042,0.094,0.055,-0.169,-0.017,-0.037
0.012,0.069,0.057,-0.041,-0.023,0.063,-0.04,0.089,0.071,-0.158,-0.003,-0.029
0.022,0.071,0.049,-0.047,-0.014,0.06,-0.04,0.082,0.093,-0.158,-0.008,-0.025
0.022,0.069,0.047,-0.046,-0.012,0.058,-0.04,0.078,0.097,-0.141,-0.016,-0.017
0.032,0.068,0.036,-0.05,-0.003,0.052,-0.04,0.073,0.093,-0.121,-0.004,-0.021
0.015,0.059,0.044,-0.037,-0.014,0.051,-0.039,0.07,0.096,-0.117,0.005,-0.033
0.028,0.061,0.033,-0.045,-0.003,0.047,-0.041,0.066,0.094,-0.111,0.021,-0.021
0.015,0.047,0.032,-0.031,-0.009,0.039,-0.038,0.062,0.096,-0.119,0.032,-0.002
0.025,0.047,0.021,-0.037,0.002,0.034,-0.044,0.06,0.093,-0.124,0.058,0.009
0.073,0.068,-0.006,-0.071,0.039,0.031,-0.061,0.067,0.115,-0.096,0.07,0.01
0.059,0.053,-0.006,-0.056,0.033,0.023,-0.06,0.086,0.148,-0.068,0.065,0.032
0.085,0.045,-0.04,-0.065,0.063,0.003,-0.06,0.08,0.144,-0.05,0.066,0.033
0.11,0.042,-0.068,-0.076,0.089,-0.013,-0.06,0.066,0.131,-0.064,0.061,0.02
0.115,0.034,-0.081,-0.074,0.097,-0.023,-0.058,0.058,0.124,-0.067,0.047,0.015
0.106,0.031,-0.075,-0.068,0.09,-0.022,-0.042,0.046,0.108,-0.057,0.033,0.003
0.083,0.024,-0.059,-0.053,0.071,-0.017,-0.033,0.043,0.081,-0.103,0.02,-0.003
0.075,0.017,-0.058,-0.046,0.066,-0.02,-0.026,0.045,0.072,-0.107,-0.002,-0.017
0.047,0.012,-0.035,-0.029,0.041,-0.011,-0.019,0.05,0.079,-0.103,0.0,-0.019
0.058,0.001,-0.057,-0.029,0.057,-0.027,-0.011,0.05,0.079,-0.105,-0.015,-0.032
0.026,0.01,-0.016,-0.018,0.021,-0.003,0.03,0.06,0.086,-0.081,-0.009,-0.046
0.056,0.051,-0.005,-0.053,0.03,0.023,0.034,0.055,0.087,-0.065,0.029,-0.031
0.07,0.088,0.018,-0.079,0.026,0.053,0.099,0.09,0.108,-0.039,0.028,-0.019
0.053,0.111,0.058,-0.082,-0.002,0.084,0.118,0.134,0.148,-0.028,0.065,0.002
0.13,0.11,-0.02,-0.12,0.075,0.045,0.006,0.086,0.134,-0.006,0.061,0.023
0.158,0.11,-0.048,-0.134,0.103,0.031,-0.058,0.059,0.116,-0.015,0.04,0.035
0.198,0.109,-0.09,-0.153,0.144,0.009,-0.092,0.058,0.123,-0.009,0.07,0.039
0.17,0.075,-0.095,-0.123,0.133,-0.009,-0.088,0.016,0.113,0.009,0.054,0.027
0.131,0.041,-0.09,-0.086,0.11,-0.024,-0.072,-0.015,0.092,-0.056,0.04,0.017
0.156,0.03,-0.127,-0.093,0.141,-0.048,-0.062,-0.027,0.075,-0.075,0.015,0.003
0.089,0.014,-0.075,-0.051,0.082,-0.031,-0.012,-0.022,0.063,-0.076,-0.006,-0.001
0.004,0.0,-0.004,-0.002,0.004,-0.002,0.053,0.027,0.062,-0.088,0.01,-0.016
-0.031,-0.028,0.003,0.03,-0.017,-0.012,0.052,0.007,0.039,-0.081,-0.012,-0.046
-0.052,-0.065,-0.013,0.058,-0.019,-0.039,0.025,-0.053,0.009,-0.122,-0.072,-0.083
-0.058,-0.058,0.0,0.058,-0.028,-0.029,0.046,-0.024,0.022,-0.118,-0.081,-0.102
-0.027,-0.043,-0.016,0.036,-0.005,-0.03,0.024,-0.045,-0.004,-0.109,-0.065,-0.108
0.012,-0.033,-0.045,0.011,0.029,-0.039,0.045,-0.012,0.029,-0.082,-0.054,-0.11
-0.059,-0.045,0.014,0.052,-0.036,-0.016,0.114,0.152,0.121,-0.044,-0.042,-0.113
0.008,-0.045,-0.052,0.019,0.03,-0.048,0.1,0.349,0.354,0.148,0.086,-0.032
0.29,0.15,-0.14,-0.219,0.215,0.005,-0.113,-0.215,0.296,0.509,0.679,0.537
0.791,0.494,-0.297,-0.642,0.544,0.098,-0.618,-1.611,-0.342,0.687,1.218,1.259
0.95,0.33,-0.62,-0.64,0.785,-0.145,-0.701,-2.032,-0.879,0.231,0.666,1.0
0.211,-0.258,-0.47,0.024,0.341,-0.364,-0.144,-1.536,-1.277,-0.865,-0.527,-0.054
-0.264,-0.383,-0.119,0.323,-0.072,-0.251,0.176,-0.975,-1.017,-1.006,-0.784,-0.463
-0.184,-0.213,-0.029,0.199,-0.077,-0.121,0.171,-0.346,-0.324,-0.384,-0.342,-0.255
-0.105,-0.117,-0.011,0.111,-0.047,-0.064,0.135,-0.041,-0.07,-0.181,-0.166,-0.184
-0.084,-0.059,0.025,0.071,-0.054,-0.017,0.089,0.043,0.021,-0.084,-0.081,-0.132
-0.101,-0.044,0.058,0.072,-0.079,0.007,0.089,0.08,0.042,-0.082,-0.072,-0.116
-0.097,-0.04,0.057,0.069,-0.077,0.008,0.091,0.112,0.061,-0.069,-0.074,-0.109
-0.117,-0.058,0.059,0.087,-0.087,0.001,0.09,0.166,0.077,-0.056,-0.058,-0.084
-0.085,-0.054,0.031,0.069,-0.058,-0.011,0.091,0.188,0.075,-0.063,-0.097,-0.108
-0.095,-0.05,0.045,0.072,-0.07,-0.003,0.084,0.187,0.084,-0.043,-0.088,-0.112
-0.101,-0.05,0.051,0.075,-0.076,0.001,0.082,0.176,0.087,-0.046,-0.07,-0.106
-0.098,-0.044,0.054,0.07,-0.076,0.005,0.076,0.172,0.104,-0.029,-0.073,-0.101
-0.105,-0.047,0.058,0.076,-0.081,0.006,0.072,0.163,0.099,-0.03,-0.067,-0.095
-0.073,-0.05,0.023,0.061,-0.048,-0.013,0.07,0.159,0.109,-0.028,-0.061,-0.09
-0.09,-0.05,0.04,0.069,-0.065,-0.005,0.066,0.155,0.116,-0.006,-0.056,-0.085
-0.078,-0.051,0.027,0.064,-0.052,-0.012,0.065,0.154,0.115,-0.001,-0.059,-0.081
-0.072,-0.039,0.033,0.055,-0.052,-0.003,0.059,0.179,0.138,-0.007,-0.073,-0.079
-0.094,-0.016,0.078,0.055,-0.086,0.031,0.062,0.194,0.143,0.001,-0.067,-0.074
-0.038,0.015,0.052,0.011,-0.045,0.033,0.083,0.186,0.134,0.02,-0.066,-0.071
-0.022,0.051,0.073,-0.015,-0.047,0.061,0.102,0.201,0.126,0.034,-0.062,-0.068
-0.081,0.05,0.131,0.015,-0.106,0.09,0.098,0.217,0.114,0.029,-0.059,-0.064
-0.057,0.041,0.098,0.007,-0.078,0.069,0.072,0.216,0.101,-0.005,-0.058,-0.066
-0.086,0.047,0.133,0.019,-0.11,0.09,0.083,0.223,0.096,0.001,-0.039,-0.061
-0.069,0.048,0.118,0.01,-0.094,0.083,0.108,0.202,0.1,0.027,-0.06,-0.06
-0.015,0.052,0.067,-0.019,-0.041,0.06,0.097,0.16,0.089,-0.003,-0.066,-0.059
-0.033,0.073,0.107,-0.02,-0.07,0.09,0.084,0.144,0.076,-0.002,-0.052,-0.052
0.042,0.087,0.045,-0.065,-0.002,0.066,0.079,0.135,0.063,0.005,-0.064,-0.03
0.003,0.081,0.078,-0.042,-0.037,0.079,0.073,0.125,0.078,0.038,-0.029,0.014
-0.028,0.079,0.106,-0.026,-0.067,0.092,0.07,0.114,0.097,0.087,0.0,0.027
0.033,0.075,0.042,-0.054,-0.005,0.058,0.065,0.1,0.102,0.096,0.01,0.019
0.018,0.07,0.052,-0.044,-0.017,0.061,0.06,0.092,0.114,0.119,0.019,0.015
-0.003,0.07,0.073,-0.034,-0.038,0.072,0.072,0.095,0.113,0.138,0.014,0.013
-0.004,0.07,0.074,-0.033,-0.039,0.071,0.072,0.096,0.11,0.13,0.016,0.003
0.022,0.07,0.048,-0.047,-0.013,0.059,0.064,0.093,0.128,0.117,0.012,0.019
0.002,0.07,0.068,-0.036,-0.033,0.068,0.062,0.105,0.156,0.149,0.035,0.045
0.003,0.07,0.067,-0.037,-0.032,0.069,0.058,0.111,0.16,0.174,0.058,0.034
0.04,0.07,0.03,-0.055,0.005,0.049,0.055,0.105,0.171,0.183,0.054,0.052
0.045,0.065,0.02,-0.056,0.012,0.043,0.05,0.103,0.17,0.187,0.055,0.061
0.071,0.065,-0.006,-0.068,0.038,0.029,0.05,0.098,0.158,0.174,0.05,0.051
0.066,0.065,-0.001,-0.066,0.033,0.032,0.049,0.095,0.152,0.169,0.05,0.052
0.024,0.065,0.041,-0.045,-0.009,0.053,0.05,0.091,0.137,0.161,0.049,0.039
0.025,0.063,0.038,-0.044,-0.007,0.05,0.05,0.082,0.123,0.149,0.022,0.028
0.032,0.052,0.02,-0.043,0.006,0.036,0.05,0.076,0.106,0.128,0.0,0.017
0.025,0.043,0.018,-0.034,0.003,0.03,0.051,0.069,0.099,0.121,-0.008,0.01
0.011,0.032,0.021,-0.022,-0.005,0.027,0.054,0.059,0.087,0.114,-0.014,0.001
-0.049,0.022,0.071,0.013,-0.06,0.046,0.077,0.052,0.082,0.108,-0.005,-0.006
-0.028,0.012,0.04,0.008,-0.034,0.026,0.065,0.037,0.068,0.1,-0.004,-0.013
-0.025,0.009,0.034,0.008,-0.03,0.021,0.073,0.049,0.06,0.085,-0.014,-0.03
-0.055,0.061,0.116,-0.004,-0.086,0.089,0.117,0.082,0.105,0.131,0.013,-0.005
0.035,0.122,0.087,-0.079,-0.026,0.104,0.174,0.119,0.14,0.162,0.047,0.027
0.036,0.129,0.093,-0.083,-0.029,0.111,0.194,0.131,0.159,0.176,0.066,0.037
0.051,0.123,0.071,-0.087,-0.01,0.097,0.079,0.088,0.172,0.21,0.078,0.05
0.103,0.115,0.012,-0.109,0.045,0.063,0.0,0.088,0.163,0.2,0.073,0.044
0.078,0.11,0.032,-0.094,0.023,0.071,-0.018,0.103,0.164,0.198,0.065,0.037
0.092,0.098,0.006,-0.095,0.042,0.052,-0.03,0.085,0.147,0.182,0.058,0.033
0.095,0.075,-0.02,-0.085,0.057,0.027,-0.018,0.026,0.088,0.13,0.027,0.026
0.084,0.033,-0.051,-0.058,0.067,-0.009,-0.023,-0.027,0.05,0.118,-0.021,0.019
-0.01,-0.006,0.003,0.008,-0.006,-0.001,0.024,0.002,0.056,0.122,-0.037,0.006
-0.122,-0.021,0.101,0.071,-0.111,0.039,0.091,0.038,0.056,0.101,-0.039,-0.01
-0.1,-0.032,0.068,0.066,-0.084,0.018,0.103,0.01,0.04,0.062,-0.048,-0.045
-0.099,-0.037,0.062,0.068,-0.08,0.012,0.1,-0.016,0.036,0.046,-0.052,-0.071
-0.104,-0.025,0.078,0.064,-0.091,0.026,0.11,0.013,0.047,0.054,-0.048,-0.074
-0.123,-0.022,0.101,0.072,-0.111,0.039,0.104,-0.024,0.03,0.06,-0.051,-0.08
-0.163,-0.046,0.117,0.104,-0.14,0.035,0.119,0.016,0.059,0.087,-0.071,-0.069
-0.116,-0.032,0.083,0.074,-0.099,0.025,0.14,0.153,0.115,0.085,-0.083,-0.106
-0.028,0.0,0.028,0.014,-0.028,0.014,0.142,0.345,0.365,0.301,0.104,-0.012
0.175,0.181,0.006,-0.178,0.084,0.094,-0.042,-0.21,0.342,0.682,0.718,0.587
0.745,0.527,-0.218,-0.636,0.481,0.155,-0.553,-1.631,-0.3,0.837,1.202,1.262
0.912,0.353,-0.559,-0.633,0.735,-0.102,-0.638,-2.056,-0.873,0.331,0.614,0.963
0.124,-0.244,-0.368,0.06,0.246,-0.305,-0.089,-1.556,-1.265,-0.754,-0.542,-0.065
-0.325,-0.378,-0.053,0.352,-0.135,-0.215,0.214,-0.935,-0.972,-0.849,-0.748,-0.438
-0.219,-0.197,0.022,0.208,-0.12,-0.087,0.215,-0.292,-0.279,-0.225,-0.302,-0.229
-0.188,-0.096,0.092,0.142,-0.14,-0.002,0.208,0.007,-0.022,-0.048,-0.146,-0.137
-0.139,-0.068,0.071,0.103,-0.104,0.001,0.164,0.086,0.056,0.014,-0.097,-0.096
-0.142,-0.07,0.072,0.106,-0.107,0.001,0.152,0.099,0.055,0.034,-0.084,-0.108
-0.169,-0.055,0.114,0.112,-0.141,0.03,0.148,0.122,0.091,0.077,-0.078,-0.11
-0.15,-0.053,0.097,0.101,-0.124,0.022,0.14,0.128,0.113,0.096,-0.065,-0.098
-0.11,-0.038,0.072,0.074,-0.091,0.017,0.137,0.147,0.103,0.086,-0.063,-0.101
-0.097,-0.038,0.059,0.068,-0.078,0.01,0.128,0.153,0.118,0.1,-0.05,-0.09
-0.127,-0.038,0.089,0.082,-0.107,0.025,0.123,0.147,0.11,0.091,-0.048,-0.091
-0.094,-0.019,0.076,0.056,-0.085,0.028,0.116,0.161,0.114,0.093,-0.039,-0.083
-0.082,-0.03,0.051,0.056,-0.066,0.01,0.108,0.16,0.107,0.088,-0.035,-0.081
-0.094,-0.028,0.065,0.061,-0.079,0.018,0.107,0.177,0.117,0.09,-0.03,-0.077
-0.077,-0.015,0.062,0.045,-0.069,0.023,0.109,0.174,0.135,0.083,-0.023,-0.073
-0.102,-0.012,0.09,0.057,-0.096,0.039,0.108,0.168,0.133,0.087,-0.022,-0.07
-0.066,-0.007,0.059,0.037,-0.062,0.026,0.102,0.181,0.129,0.079,-0.033,-0.066
-0.078,-0.004,0.074,0.041,-0.076,0.035,0.111,0.21,0.126,0.092,-0.036,-0.06
-0.152,0.004,0.155,0.074,-0.154,0.079,0.111,0.231,0.121,0.109,-0.036,-0.055
-0.126,0.017,0.143,0.054,-0.135,0.08,0.109,0.23,0.119,0.075,-0.04,-0.051
-0.099,0.025,0.124,0.037,-0.112,0.074,0.131,0.228,0.108,0.076,-0.043,-0.042
-0.107,0.048,0.155,0.029,-0.131,0.101,0.133,0.218,0.096,0.067,-0.043,-0.045
-0.079,0.072,0.151,0.003,-0.115,0.111,0.124,0.207,0.085,0.044,-0.051,-0.053
-0.057,0.067,0.123,-0.005,-0.09,0.095,0.118,0.199,0.074,0.061,-0.057,-0.046
-0.069,0.062,0.131,0.003,-0.1,0.097,0.109,0.182,0.068,0.07,-0.046,-0.038
-0.084,0.062,0.146,0.011,-0.115,0.103,0.098,0.172,0.068,0.066,-0.038,-0.033
-0.097,0.052,0.149,0.022,-0.124,0.1,0.105,0.154,0.082,0.056,-0.03,-0.021
-0.056,0.069,0.125,-0.007,-0.091,0.097,0.119,0.143,0.097,0.078,-0.023,-0.014
-0.039,0.087,0.126,-0.024,-0.083,0.106,0.107,0.14,0.104,0.102,-0.015,0.0
-0.037,0.077,0.114,-0.02,-0.075,0.095,0.101,0.114,0.099,0.107,-0.01,0.022
-0.039,0.074,0.113,-0.018,-0.076,0.093,0.097,0.118,0.124,0.142,0.0,0.026
-0.026,0.065,0.091,-0.02,-0.059,0.078,0.09,0.127,0.157,0.147,0.008,0.025
-0.032,0.067,0.099,-0.018,-0.066,0.083,0.086,0.125,0.158,0.14,0.017,0.021
-0.07,0.062,0.132,0.004,-0.102,0.097,0.079,0.143,0.162,0.164,0.044,0.033
0.011,0.071,0.06,-0.042,-0.025,0.065,0.087,0.151,0.17,0.177,0.058,0.054
0.03,0.091,0.061,-0.061,-0.016,0.076,0.097,0.15,0.17,0.187,0.059,0.048
-0.002,0.058,0.06,-0.028,-0.031,0.058,0.082,0.15,0.167,0.187,0.065,0.051
-0.019,0.042,0.06,-0.012,-0.04,0.051,0.078,0.151,0.182,0.178,0.079,0.065
-0.005,0.045,0.051,-0.02,-0.028,0.048,0.078,0.143,0.176,0.173,0.07,0.042
0.012,0.038,0.025,-0.025,-0.007,0.031,0.07,0.124,0.152,0.165,0.052,0.023
-0.011,0.038,0.049,-0.014,-0.03,0.043,0.068,0.116,0.141,0.16,0.051,0.02
-0.004,0.034,0.037,-0.015,-0.021,0.035,0.062,0.108,0.127,0.153,0.045,0.016
-0.004,0.031,0.036,-0.014,-0.02,0.033,0.061,0.099,0.117,0.145,0.042,0.011
-0.015,0.025,0.041,-0.006,-0.028,0.033,0.073,0.094,0.111,0.137,0.037,0.008
-0.043,0.018,0.06,0.012,-0.052,0.039,0.094,0.084,0.105,0.13,0.031,0.001
-0.052,0.017,0.069,0.017,-0.061,0.042,0.109,0.087,0.104,0.121,0.031,-0.017
-0.095,-0.008,0.088,0.051,-0.091,0.04,0.107,0.083,0.091,0.113,0.024,-0.011
-0.029,0.016,0.045,0.006,-0.037,0.03,0.107,0.089,0.085,0.1,0.026,-0.019
0.005,0.072,0.067,-0.039,-0.031,0.069,0.147,0.118,0.115,0.104,0.018,-0.025
-0.074,0.069,0.143,0.002,-0.108,0.106,0.178,0.153,0.13,0.145,0.024,0.012
-0.031,0.07,0.1,-0.02,-0.066,0.085,0.147,0.164,0.14,0.162,0.053,0.028
-0.009,0.066,0.074,-0.029,-0.042,0.07,0.073,0.127,0.142,0.163,0.066,0.027
0.027,0.065,0.038,-0.046,-0.006,0.052,0.012,0.117,0.131,0.166,0.081,0.045
0.03,0.063,0.034,-0.047,-0.003,0.048,-0.003,0.108,0.126,0.172,0.077,0.039
-0.013,0.031,0.044,-0.009,-0.029,0.037,0.003,0.089,0.118,0.152,0.064,0.024
-0.011,0.0,0.01,0.005,-0.011,0.005,-0.004,0.055,0.076,0.104,0.03,0.016
-0.004,-0.01,-0.005,0.007,0.001,-0.007,0.014,0.023,0.045,0.091,0.015,-0.001
-0.04,0.01,0.051,0.015,-0.046,0.03,0.079,0.05,0.068,0.078,0.028,-0.011
-0.106,-0.006,0.1,0.056,-0.103,0.047,0.113,0.059,0.063,0.066,0.004,-0.036
-0.138,-0.055,0.083,0.096,-0.11,0.014,0.098,0.016,0.017,0.029,-0.032,-0.061
-0.171,-0.071,0.101,0.121,-0.136,0.015,0.112,0.028,0.031,0.032,-0.041,-0.07
-0.192,-0.07,0.122,0.131,-0.157,0.026,0.099,0.024,0.024,0.058,-0.034,-0.078
-0.164,-0.07,0.094,0.117,-0.129,0.012,0.067,-0.027,-0.02,0.05,-0.068,-0.08
-0.132,-0.07,0.062,0.101,-0.097,-0.004,0.113,0.059,0.038,0.06,-0.072,-0.084
-0.125,-0.055,0.07,0.09,-0.097,0.007,0.135,0.242,0.167,0.076,-0.048,-0.111
-0.077,0.023,0.101,0.026,-0.089,0.062,0.129,0.326,0.425,0.383,0.257,0.106
0.276,0.291,0.015,-0.284,0.13,0.153,-0.188,-0.656,0.155,0.733,0.938,0.8
0.921,0.547,-0.374,-0.733,0.647,0.086,-0.671,-1.956,-0.527,0.736,1.158,1.273
0.702,0.141,-0.561,-0.422,0.631,-0.21,-0.494,-1.98,-1.076,-0.073,0.23,0.626
-0.156,-0.388,-0.232,0.272,0.039,-0.31,0.044,-1.411,-1.343,-1.017,-0.76,-0.313
-0.333,-0.314,0.018,0.323,-0.175,-0.148,0.228,-0.686,-0.731,-0.663,-0.577,-0.368
-0.249,-0.154,0.095,0.202,-0.172,-0.03,0.198,-0.139,-0.148,-0.136,-0.188,-0.18
-0.216,-0.081,0.135,0.148,-0.175,0.027,0.161,0.038,-0.026,-0.056,-0.119,-0.158
-0.161,-0.045,0.116,0.103,-0.139,0.035,0.124,0.102,0.042,0.012,-0.068,-0.111
-0.167,-0.054,0.112,0.11,-0.14,0.029,0.119,0.1,0.041,0.006,-0.083,-0.116
-0.144,-0.046,0.098,0.095,-0.121,0.025,0.113,0.132,0.076,0.037,-0.064,-0.104
-0.162,-0.056,0.106,0.109,-0.134,0.024,0.105,0.132,0.066,0.026,-0.066,-0.102
-0.191,-0.053,0.138,0.122,-0.164,0.042,0.1,0.152,0.071,0.031,-0.057,-0.095
-0.166,-0.056,0.11,0.111,-0.138,0.027,0.095,0.145,0.071,0.031,-0.052,-0.089
-0.161,-0.037,0.124,0.099,-0.142,0.043,0.105,0.151,0.084,0.038,-0.048,-0.086
-0.156,-0.012,0.144,0.083,-0.15,0.066,0.118,0.193,0.108,0.06,-0.03,-0.076
-0.1,0.006,0.106,0.047,-0.103,0.056,0.118,0.196,0.111,0.059,-0.02,-0.072
-0.107,0.038,0.145,0.034,-0.127,0.091,0.11,0.193,0.123,0.055,-0.008,-0.063
-0.126,0.047,0.173,0.039,-0.15,0.11,0.109,0.2,0.124,0.057,-0.012,-0.059
-0.118,0.043,0.161,0.037,-0.14,0.102,0.101,0.239,0.145,0.071,-0.008,-0.055
-0.111,0.047,0.159,0.032,-0.136,0.103,0.101,0.248,0.139,0.049,-0.006,-0.068
-0.112,0.041,0.153,0.035,-0.133,0.097,0.117,0.243,0.124,0.036,-0.004,-0.079
-0.097,0.044,0.142,0.026,-0.12,0.093,0.118,0.247,0.116,0.034,-0.01,-0.071
-0.086,0.056,0.142,0.015,-0.114,0.099,0.11,0.244,0.101,0.025,-0.022,-0.064
-0.118,0.06,0.178,0.029,-0.148,0.118,0.107,0.246,0.092,0.023,-0.019,-0.058
-0.129,0.068,0.197,0.03,-0.163,0.132,0.099,0.237,0.079,0.015,-0.017,-0.053
-0.122,0.071,0.193,0.025,-0.158,0.131,0.096,0.232,0.074,0.016,-0.014,-0.051
-0.131,0.07,0.201,0.03,-0.166,0.135,0.118,0.224,0.065,0.013,-0.011,-0.038
-0.147,0.067,0.214,0.039,-0.18,0.14,0.129,0.21,0.061,0.012,-0.009,-0.017
-0.098,0.08,0.179,0.009,-0.139,0.129,0.117,0.2,0.059,0.008,0.0,0.002
-0.1,0.09,0.19,0.005,-0.145,0.139,0.11,0.19,0.057,0.017,0.02,0.031
-0.11,0.079,0.189,0.015,-0.15,0.134,0.1,0.172,0.08,0.053,0.044,0.051
-0.055,0.077,0.133,-0.011,-0.094,0.105,0.092,0.138,0.078,0.056,0.047,0.048
-0.089,0.069,0.158,0.01,-0.124,0.113,0.088,0.127,0.088,0.069,0.035,0.041
-0.11,0.066,0.177,0.022,-0.144,0.121,0.082,0.123,0.117,0.097,0.033,0.04
-0.096,0.069,0.165,0.013,-0.13,0.116,0.079,0.114,0.118,0.099,0.055,0.031
-0.065,0.071,0.136,-0.003,-0.101,0.104,0.074,0.146,0.135,0.108,0.075,0.035
-0.021,0.076,0.097,-0.028,-0.059,0.086,0.07,0.165,0.158,0.126,0.094,0.067
-0.045,0.071,0.117,-0.013,-0.081,0.094,0.065,0.165,0.16,0.132,0.103,0.072
-0.027,0.068,0.095,-0.02,-0.061,0.081,0.065,0.171,0.159,0.123,0.097,0.067
-0.026,0.055,0.081,-0.015,-0.053,0.068,0.065,0.164,0.152,0.131,0.105,0.065
-0.072,0.076,0.148,-0.003,-0.11,0.111,0.065,0.158,0.164,0.147,0.11,0.068
-0.008,0.104,0.112,-0.049,-0.06,0.107,0.065,0.153,0.174,0.138,0.105,0.076
0.005,0.088,0.083,-0.047,-0.039,0.085,0.062,0.143,0.153,0.125,0.101,0.067
-0.03,0.078,0.108,-0.024,-0.069,0.093,0.06,0.115,0.132,0.115,0.096,0.061
-0.031,0.069,0.1,-0.019,-0.066,0.085,0.06,0.097,0.115,0.109,0.092,0.054
-0.016,0.07,0.087,-0.027,-0.052,0.078,0.06,0.095,0.105,0.104,0.088,0.047
-0.023,0.07,0.093,-0.024,-0.058,0.081,0.06,0.083,0.092,0.102,0.082,0.047
-0.072,0.07,0.142,0.001,-0.107,0.106,0.076,0.082,0.083,0.087,0.078,0.051
-0.064,0.07,0.134,-0.003,-0.099,0.102,0.074,0.069,0.072,0.061,0.072,0.053
-0.072,0.069,0.141,0.001,-0.106,0.104,0.077,0.078,0.069,0.06,0.07,0.056
-0.022,0.117,0.139,-0.048,-0.081,0.128,0.119,0.112,0.086,0.083,0.06,0.058
-0.015,0.144,0.159,-0.065,-0.087,0.151,0.147,0.14,0.103,0.098,0.073,0.061
-0.029,0.131,0.16,-0.051,-0.094,0.145,0.168,0.182,0.138,0.112,0.108,0.065
0.019,0.127,0.108,-0.074,-0.044,0.117,0.092,0.174,0.157,0.14,0.124,0.072
-0.008,0.118,0.126,-0.055,-0.067,0.122,0.007,0.142,0.15,0.139,0.127,0.077
0.035,0.111,0.076,-0.074,-0.02,0.093,-0.012,0.124,0.15,0.141,0.13,0.087
0.032,0.105,0.073,-0.068,-0.021,0.089,-0.019,0.111,0.134,0.136,0.131,0.099
0.022,0.095,0.073,-0.059,-0.026,0.084,-0.023,0.071,0.064,0.075,0.099,0.075
0.051,0.079,0.028,-0.066,0.011,0.054,-0.028,0.034,0.02,0.04,0.066,0.047
-0.033,0.044,0.076,-0.006,-0.055,0.06,0.041,0.037,0.035,0.024,0.062,0.042
-0.08,0.011,0.091,0.034,-0.086,0.05,0.069,0.025,0.03,0.002,0.039,0.019
-0.127,-0.004,0.123,0.065,-0.125,0.059,0.083,0.026,0.017,-0.024,-0.017,-0.024
-0.166,-0.011,0.155,0.088,-0.16,0.072,0.104,0.007,-0.005,-0.046,-0.019,-0.047
-0.144,-0.01,0.134,0.077,-0.139,0.062,0.096,0.015,0.009,-0.025,0.015,-0.046
-0.151,-0.01,0.141,0.08,-0.146,0.065,0.091,-0.012,-0.016,-0.029,0.004,-0.051
-0.145,-0.025,0.12,0.085,-0.132,0.047,0.091,0.013,-0.003,-0.008,0.001,-0.054
-0.15,-0.021,0.129,0.085,-0.14,0.054,0.114,0.157,0.069,-0.006,-0.023,-0.072
-0.078,0.02,0.098,0.029,-0.089,0.059,0.121,0.365,0.268,0.147,0.071,-0.031
0.095,0.165,0.07,-0.13,0.012,0.117,-0.024,-0.014,0.347,0.54,0.642,0.487
0.624,0.517,-0.107,-0.57,0.365,0.205,-0.488,-1.37,-0.212,0.735,1.202,1.216
0.959,0.4,-0.559,-0.679,0.759,-0.08,-0.676,-2.013,-0.9,0.234,0.661,0.993
0.209,-0.24,-0.449,0.016,0.329,-0.345,-0.189,-1.604,-1.367,-0.86,-0.516,-0.018
-0.342,-0.366,-0.024,0.354,-0.159,-0.195,0.181,-0.971,-1.074,-0.992,-0.745,-0.409
-0.265,-0.166,0.099,0.215,-0.182,-0.033,0.159,-0.319,-0.35,-0.338,-0.285,-0.2
-0.249,-0.092,0.157,0.171,-0.203,0.032,0.13,-0.009,-0.087,-0.135,-0.113,-0.124
-0.195,-0.046,0.149,0.12,-0.172,0.051,0.105,0.084,0.012,-0.061,-0.07,-0.09
-0.195,-0.038,0.157,0.116,-0.176,0.06,0.096,0.102,0.016,-0.053,-0.054,-0.075
-0.191,-0.026,0.165,0.109,-0.178,0.069,0.118,0.14,0.04,-0.051,-0.053,-0.077
-0.183,-0.026,0.157,0.105,-0.169,0.065,0.086,0.159,0.059,-0.018,-0.041,-0.066
-0.181,-0.021,0.16,0.101,-0.17,0.069,0.085,0.148,0.041,-0.042,-0.043,-0.069
-0.18,-0.018,0.162,0.099,-0.171,0.072,0.102,0.166,0.059,-0.054,-0.029,-0.055
-0.169,-0.013,0.156,0.091,-0.162,0.071,0.099,0.152,0.041,-0.04,-0.038,-0.074
-0.165,-0.009,0.156,0.086,-0.16,0.073,0.101,0.156,0.048,-0.008,-0.044,-0.09
-0.173,-0.023,0.15,0.098,-0.162,0.063,0.099,0.177,0.072,-0.013,-0.043,-0.091
-0.118,-0.018,0.1,0.068,-0.109,0.04,0.101,0.182,0.077,-0.035,-0.035,-0.086
-0.137,-0.016,0.121,0.076,-0.129,0.053,0.096,0.178,0.069,-0.034,-0.02,-0.069
-0.162,-0.014,0.149,0.087,-0.155,0.068,0.091,0.185,0.07,-0.029,-0.028,-0.074
-0.145,0.02,0.165,0.062,-0.156,0.093,0.079,0.207,0.063,-0.026,-0.021,-0.072
-0.125,0.046,0.171,0.039,-0.148,0.108,0.085,0.229,0.069,-0.019,-0.012,-0.066
-0.104,0.045,0.148,0.029,-0.127,0.096,0.059,0.238,0.076,-0.045,-0.042,-0.064
-0.098,0.044,0.142,0.027,-0.121,0.093,0.023,0.234,0.049,-0.059,-0.038,-0.057
-0.107,0.05,0.157,0.028,-0.132,0.104,0.063,0.226,0.035,-0.052,-0.024,-0.054
-0.139,0.072,0.211,0.033,-0.175,0.141,0.06,0.219,0.031,-0.058,-0.017,-0.047
-0.111,0.102,0.213,0.005,-0.162,0.157,0.043,0.211,0.022,-0.05,-0.011,-0.041
-0.078,0.113,0.19,-0.018,-0.134,0.151,0.048,0.204,0.017,-0.063,-0.052,-0.034
-0.09,0.109,0.198,-0.01,-0.144,0.153,0.033,0.19,0.014,-0.085,-0.064,-0.028
-0.073,0.107,0.18,-0.017,-0.127,0.143,0.026,0.177,0.011,-0.075,-0.037,-0.018
-0.062,0.105,0.167,-0.021,-0.115,0.135,0.014,0.164,0.008,-0.057,-0.009,0.003
-0.068,0.105,0.173,-0.019,-0.121,0.139,0.011,0.157,0.005,-0.045,0.0,0.016
-0.036,0.113,0.149,-0.039,-0.093,0.131,0.004,0.16,0.006,-0.04,-0.014,0.024
-0.03,0.098,0.128,-0.034,-0.079,0.113,0.0,0.163,0.031,-0.003,0.001,0.036
-0.028,0.079,0.107,-0.026,-0.068,0.093,-0.007,0.166,0.053,0.012,0.011,0.036
-0.016,0.072,0.088,-0.028,-0.053,0.08,-0.009,0.17,0.078,0.016,0.042,0.031
-0.027,0.073,0.1,-0.024,-0.063,0.086,0.002,0.173,0.099,0.046,0.068,0.024
-0.011,0.092,0.103,-0.041,-0.057,0.097,-0.015,0.177,0.103,0.051,0.062,0.021
0.006,0.087,0.081,-0.047,-0.038,0.084,-0.008,0.18,0.101,0.053,0.051,0.011
0.009,0.076,0.068,-0.043,-0.03,0.072,-0.007,0.184,0.09,0.053,0.046,0.016
-0.017,0.07,0.087,-0.027,-0.052,0.078,-0.021,0.183,0.107,0.038,0.082,0.052
-0.007,0.06,0.067,-0.027,-0.037,0.064,-0.03,0.154,0.107,0.032,0.083,0.054
-0.003,0.054,0.057,-0.026,-0.03,0.055,-0.05,0.129,0.077,0.028,0.07,0.029
-0.031,0.044,0.075,-0.007,-0.053,0.059,-0.046,0.132,0.076,0.027,0.079,0.023
-0.01,0.038,0.048,-0.014,-0.029,0.043,-0.032,0.126,0.067,0.021,0.07,0.012
0.016,0.031,0.015,-0.024,0.001,0.022,-0.033,0.127,0.046,0.0,0.045,0.013
-0.008,0.028,0.037,-0.01,-0.023,0.032,-0.038,0.117,0.046,0.006,0.054,0.037
0.002,0.023,0.021,-0.012,-0.01,0.021,-0.036,0.072,0.01,-0.051,0.032,-0.003
0.017,0.017,0.0,-0.017,0.009,0.008,-0.025,0.068,-0.016,-0.115,0.002,-0.034
-0.022,0.002,0.024,0.01,-0.023,0.012,-0.025,0.068,-0.006,-0.116,0.026,-0.023
-0.001,0.02,0.021,-0.01,-0.011,0.021,-0.009,0.06,-0.013,-0.12,0.022,-0.02
0.002,0.088,0.086,-0.045,-0.042,0.087,0.051,0.104,0.009,-0.08,0.042,-0.004
0.012,0.105,0.093,-0.059,-0.041,0.099,0.073,0.151,0.051,-0.069,0.063,0.007
0.047,0.094,0.047,-0.071,0.0,0.07,0.04,0.161,0.083,-0.057,0.082,0.036
0.046,0.091,0.046,-0.069,0.0,0.069,-0.06,0.12,0.086,-0.054,0.071,0.036
0.101,0.105,0.005,-0.103,0.048,0.055,-0.138,0.104,0.083,-0.067,0.072,0.038
0.113,0.1,-0.013,-0.106,0.063,0.043,-0.133,0.103,0.088,-0.041,0.108,0.063
0.065,0.044,-0.021,-0.054,0.043,0.012,-0.13,0.059,0.032,-0.071,0.077,0.044
0.071,0.01,-0.061,-0.04,0.066,-0.025,-0.127,0.037,-0.041,-0.139,0.025,0.018
0.045,-0.024,-0.069,-0.01,0.057,-0.046,-0.121,0.042,-0.053,-0.127,0.021,0.003
-0.053,-0.037,0.016,0.045,-0.034,-0.01,-0.081,0.031,-0.064,-0.121,0.02,-0.014
-0.086,-0.044,0.042,0.065,-0.064,-0.001,-0.043,0.036,-0.066,-0.174,-0.025,-0.059
-0.081,-0.071,0.01,0.076,-0.046,-0.03,-0.047,0.028,-0.049,-0.182,-0.047,-0.072
-0.101,-0.065,0.036,0.083,-0.068,-0.015,-0.042,0.027,-0.061,-0.207,-0.049,-0.069
-0.048,-0.061,-0.013,0.054,-0.017,-0.037,-0.039,0.023,-0.089,-0.233,-0.03,-0.071
-0.044,-0.062,-0.018,0.053,-0.013,-0.04,-0.039,-0.006,-0.089,-0.233,-0.044,-0.066
-0.085,-0.072,0.013,0.079,-0.049,-0.03,0.004,0.076,-0.027,-0.207,-0.052,-0.09
-0.015,-0.049,-0.034,0.033,0.009,-0.041,0.034,0.245,0.104,-0.129,-0.016,-0.124
0.094,0.02,-0.074,-0.057,0.084,-0.027,-0.044,0.306,0.349,0.153,0.319,0.161
0.466,0.295,-0.171,-0.38,0.318,0.062,-0.41,-0.593,0.085,0.493,1.026,0.962
1.0,0.558,-0.442,-0.778,0.72,0.058,-0.808,-1.752,-0.594,0.426,1.133,1.339
0.681,0.158,-0.523,-0.42,0.602,-0.182,-0.563,-1.668,-1.083,-0.398,0.159,0.558
-0.162,-0.33,-0.168,0.246,0.003,-0.248,-0.042,-1.153,-1.288,-1.231,-0.738,-0.355
-0.32,-0.3,0.019,0.31,-0.169,-0.14,0.086,-0.659,-0.8,-0.942,-0.6,-0.423
-0.192,-0.179,0.014,0.185,-0.103,-0.082,0.04,-0.151,-0.253,-0.439,-0.201,-0.213
-0.137,-0.091,0.046,0.114,-0.091,-0.023,-0.002,0.017,-0.117,-0.337,-0.109,-0.168
-0.066,-0.051,0.015,0.059,-0.04,-0.018,-0.039,0.07,-0.067,-0.292,-0.088,-0.146
-0.08,-0.072,0.009,0.076,-0.044,-0.031,-0.03,0.098,-0.055,-0.3,-0.093,-0.14
-0.057,-0.072,-0.015,0.065,-0.021,-0.043,-0.054,0.081,-0.038,-0.281,-0.074,-0.134
-0.026,-0.068,-0.042,0.048,0.008,-0.055,-0.078,0.114,-0.033,-0.281,-0.062,-0.134
-0.035,-0.062,-0.027,0.049,-0.004,-0.044,-0.071,0.141,-0.029,-0.285,-0.055,-0.13
-0.044,-0.06,-0.017,0.052,-0.013,-0.038,-0.06,0.131,-0.03,-0.281,-0.054,-0.129
-0.052,-0.053,-0.001,0.052,-0.025,-0.027,-0.069,0.139,-0.004,-0.26,-0.056,-0.126
-0.1,-0.067,0.034,0.083,-0.067,-0.016,-0.073,0.138,0.013,-0.262,-0.054,-0.124
-0.099,-0.084,0.015,0.091,-0.057,-0.034,-0.065,0.131,0.001,-0.276,-0.057,-0.122
-0.021,-0.072,-0.051,0.047,0.015,-0.061,-0.099,0.124,-0.005,-0.273,-0.053,-0.119
0.019,-0.063,-0.082,0.022,0.051,-0.072,-0.12,0.12,-0.016,-0.278,-0.049,-0.119
0.002,-0.052,-0.054,0.025,0.028,-0.053,-0.112,0.157,-0.024,-0.296,-0.041,-0.11
-0.007,-0.043,-0.036,0.026,0.014,-0.039,-0.114,0.174,-0.031,-0.307,-0.037,-0.105
-0.023,-0.03,-0.007,0.027,-0.008,-0.018,-0.109,0.168,-0.034,-0.31,-0.034,-0.097
-0.066,-0.02,0.046,0.042,-0.055,0.013,-0.108,0.168,-0.038,-0.319,-0.036,-0.092
-0.037,-0.001,0.035,0.019,-0.036,0.017,-0.12,0.165,-0.04,-0.322,-0.034,-0.085
0.013,0.045,0.031,-0.029,-0.009,0.038,-0.126,0.166,-0.044,-0.348,-0.036,-0.08
-0.008,0.056,0.064,-0.024,-0.036,0.06,-0.117,0.161,-0.046,-0.377,-0.043,-0.077
-0.005,0.051,0.056,-0.023,-0.03,0.053,-0.093,0.158,-0.042,-0.374,-0.032,-0.068
-0.015,0.044,0.059,-0.014,-0.038,0.051,-0.114,0.154,-0.069,-0.383,-0.049,-0.087
-0.037,0.058,0.095,-0.011,-0.067,0.076,-0.138,0.151,-0.079,-0.399,-0.059,-0.087
0.015,0.08,0.065,-0.048,-0.025,0.072,-0.133,0.147,-0.059,-0.356,-0.019,-0.054
0.019,0.07,0.051,-0.045,-0.016,0.06,-0.131,0.139,-0.053,-0.336,0.019,-0.041
0.006,0.064,0.058,-0.035,-0.027,0.061,-0.127,0.131,-0.046,-0.322,0.032,-0.039
0.005,0.056,0.052,-0.031,-0.024,0.054,-0.167,0.123,-0.044,-0.322,0.029,-0.04
-0.011,0.049,0.06,-0.019,-0.036,0.054,-0.167,0.115,-0.012,-0.317,0.046,-0.042
0.0,0.044,0.044,-0.022,-0.022,0.043,-0.142,0.106,-0.005,-0.283,0.059,-0.045
0.017,0.056,0.039,-0.037,-0.011,0.047,-0.145,0.1,-0.03,-0.303,0.052,-0.046
0.063,0.064,0.001,-0.063,0.031,0.032,-0.146,0.091,0.007,-0.264,0.06,-0.038
0.074,0.053,-0.021,-0.063,0.047,0.015,-0.142,0.088,0.044,-0.263,0.074,-0.017
0.077,0.048,-0.029,-0.062,0.053,0.01,-0.151,0.079,0.044,-0.258,0.091,-0.007
0.061,0.04,-0.021,-0.05,0.04,0.009,-0.167,0.077,0.046,-0.239,0.11,-0.002
0.036,0.032,-0.004,-0.034,0.02,0.014,-0.161,0.1,0.044,-0.29,0.107,0.007
0.107,0.024,-0.083,-0.065,0.094,-0.029,-0.207,0.094,0.036,-0.27,0.1,0.01
0.083,0.016,-0.067,-0.049,0.075,-0.025,-0.225,0.077,0.028,-0.269,0.098,0.028
0.064,0.009,-0.055,-0.036,0.059,-0.023,-0.216,0.068,0.017,-0.271,0.091,0.033
0.087,-0.002,-0.088,-0.042,0.088,-0.045,-0.223,0.057,0.0,-0.269,0.087,0.013
0.047,-0.016,-0.062,-0.015,0.055,-0.039,-0.218,0.048,-0.013,-0.306,0.078,0.001
0.074,-0.007,-0.081,-0.033,0.077,-0.044,-0.221,0.037,-0.023,-0.311,0.073,-0.001
0.067,0.0,-0.067,-0.033,0.067,-0.033,-0.212,0.034,-0.056,-0.329,0.067,-0.018
0.048,-0.022,-0.07,-0.013,0.059,-0.046,-0.207,0.035,-0.073,-0.348,0.056,-0.044
0.062,0.011,-0.052,-0.036,0.057,-0.02,-0.191,0.036,-0.06,-0.312,0.052,-0.037
0.081,0.057,-0.024,-0.069,0.052,0.016,-0.168,0.034,-0.044,-0.311,0.036,-0.022
0.079,0.092,0.014,-0.086,0.032,0.053,-0.107,0.071,-0.013,-0.32,0.095,0.004
0.057,0.124,0.066,-0.091,-0.005,0.095,-0.085,0.103,0.008,-0.303,0.124,0.029
0.13,0.114,-0.017,-0.122,0.073,0.048,-0.196,0.084,0.025,-0.31,0.072,0.02
0.16,0.104,-0.056,-0.131,0.108,0.024,-0.282,0.073,0.022,-0.275,0.109,0.022
0.178,0.097,-0.081,-0.137,0.129,0.008,-0.296,0.058,-0.006,-0.258,0.127,0.035
0.188,0.082,-0.107,-0.135,0.148,-0.012,-0.294,0.048,-0.006,-0.267,0.121,0.031
0.128,0.047,-0.082,-0.087,0.105,-0.017,-0.296,-0.004,-0.05,-0.291,0.112,0.026
0.143,0.024,-0.119,-0.083,0.131,-0.047,-0.282,-0.057,-0.113,-0.375,0.07,0.015
0.092,0.013,-0.079,-0.052,0.085,-0.033,-0.248,-0.027,-0.132,-0.415,0.092,0.006
0.019,0.011,-0.009,-0.015,0.014,0.001,-0.237,-0.007,-0.13,-0.415,0.055,-0.021
0.031,-0.012,-0.043,-0.009,0.037,-0.027,-0.232,-0.026,-0.131,-0.427,-0.024,-0.08
0.001,-0.063,-0.064,0.031,0.033,-0.063,-0.228,-0.056,-0.163,-0.463,-0.004,-0.092
0.005,-0.064,-0.069,0.029,0.038,-0.066,-0.219,-0.03,-0.137,-0.438,0.012,-0.084
0.006,-0.067,-0.073,0.031,0.04,-0.069,-0.218,-0.058,-0.157,-0.425,-0.007,-0.088
-0.048,-0.063,-0.015,0.056,-0.016,-0.039,-0.208,-0.006,-0.118,-0.395,0.022,-0.078
-0.007,-0.067,-0.06,0.037,0.027,-0.063,-0.202,0.136,-0.05,-0.4,-0.032,-0.138
0.079,-0.06,-0.139,-0.009,0.109,-0.099,-0.197,0.35,0.191,-0.213,0.114,-0.058
0.23,0.135,-0.095,-0.182,0.162,0.02,-0.359,0.005,0.241,0.169,0.759,0.57
0.759,0.491,-0.267,-0.625,0.513,0.112,-0.841,-1.292,-0.436,0.276,1.284,1.348
0.93,0.426,-0.504,-0.678,0.717,-0.039,-0.949,-1.775,-0.943,-0.043,0.874,1.145
0.218,-0.134,-0.352,-0.042,0.285,-0.243,-0.429,-1.341,-1.303,-1.09,-0.357,0.011
-0.319,-0.35,-0.031,0.335,-0.144,-0.19,-0.081,-0.926,-1.194,-1.425,-0.779,-0.507
-0.165,-0.205,-0.04,0.185,-0.062,-0.122,-0.11,-0.415,-0.527,-0.818,-0.323,-0.312
-0.039,-0.113,-0.074,0.076,0.018,-0.093,-0.169,-0.08,-0.225,-0.587,-0.142,-0.219
-0.111,-0.097,0.014,0.104,-0.062,-0.041,-0.211,0.047,-0.117,-0.491,-0.069,-0.155
-0.035,-0.087,-0.052,0.061,0.008,-0.069,-0.229,0.062,-0.098,-0.455,-0.042,-0.134
-0.089,-0.064,0.025,0.077,-0.057,-0.019,-0.208,0.057,-0.092,-0.446,-0.007,-0.137
0.006,-0.072,-0.079,0.033,0.042,-0.075,-0.222,0.081,-0.072,-0.466,0.002,-0.136
-0.121,-0.07,0.051,0.095,-0.086,-0.009,-0.235,0.092,-0.081,-0.484,-0.019,-0.155
0.089,-0.068,-0.158,-0.01,0.124,-0.113,-0.232,0.088,-0.053,-0.445,-0.007,-0.152
-0.13,-0.072,0.058,0.102,-0.094,-0.007,-0.221,0.094,-0.064,-0.463,-0.018,-0.151
0.057,-0.061,-0.117,0.002,0.087,-0.088,-0.224,0.08,-0.076,-0.443,-0.044,-0.144
0.728,-0.071,-0.8,-0.328,0.764,-0.435,-0.253,0.045,-0.063,-0.424,0.026,-0.141
