-0.11,0.044,0.155,0.032,-0.133,0.099,0.005,-0.044,0.373,-0.094,-0.115,0.096
-0.156,-0.004,0.151,0.08,-0.153,0.073,0.005,-0.033,0.373,-0.082,-0.11,0.104
-0.145,-0.001,0.144,0.073,-0.144,0.071,-0.004,-0.018,0.376,-0.069,-0.097,0.111
-0.067,0.07,0.138,-0.002,-0.103,0.104,-0.016,-0.013,0.355,-0.056,-0.076,0.124
-0.045,0.085,0.13,-0.02,-0.088,0.108,-0.027,-0.007,0.127,-0.014,-0.041,0.154
-0.019,0.107,0.126,-0.044,-0.072,0.116,-0.04,-0.005,-0.029,0.021,0.001,0.193
0.02,0.149,0.129,-0.085,-0.055,0.139,-0.066,-0.005,-0.041,0.047,0.041,0.23
0.039,0.17,0.131,-0.105,-0.046,0.151,-0.098,-0.014,-0.058,0.067,0.07,0.251
0.072,0.207,0.135,-0.14,-0.032,0.171,-0.111,-0.029,-0.058,0.067,0.075,0.269
0.091,0.228,0.137,-0.16,-0.023,0.183,-0.109,-0.051,-0.084,0.053,0.061,0.269
0.073,0.213,0.141,-0.143,-0.034,0.177,-0.105,-0.071,-0.094,0.044,0.055,0.255
0.037,0.174,0.138,-0.106,-0.051,0.156,-0.086,-0.073,-0.105,0.026,0.035,0.237
-0.002,0.131,0.133,-0.065,-0.068,0.132,-0.055,-0.067,-0.135,-0.016,-0.008,0.201
-0.05,0.105,0.155,-0.028,-0.103,0.13,-0.028,-0.061,-0.165,-0.044,-0.052,0.16
-0.087,0.069,0.156,0.008,-0.122,0.112,-0.004,-0.056,-0.184,-0.069,-0.092,0.121
-0.122,0.011,0.134,0.055,-0.128,0.072,0.024,-0.051,-0.184,-0.089,-0.11,0.088
-0.127,0.006,0.133,0.061,-0.13,0.069,0.037,-0.05,-0.19,-0.099,-0.127,0.079
-0.139,-0.012,0.127,0.075,-0.133,0.057,0.031,-0.05,-0.187,-0.106,-0.137,0.078
-0.168,-0.046,0.122,0.106,-0.145,0.038,0.028,-0.045,-0.182,-0.104,-0.134,0.075
-0.159,-0.044,0.115,0.101,-0.137,0.036,0.025,-0.045,-0.179,-0.105,-0.136,0.071
-0.135,-0.041,0.094,0.088,-0.114,0.026,0.019,-0.044,-0.176,-0.105,-0.134,0.07
-0.12,0.017,0.137,0.052,-0.129,0.077,0.022,-0.039,-0.171,-0.113,-0.143,0.07
-0.172,0.009,0.181,0.081,-0.176,0.094,0.039,-0.036,-0.171,-0.114,-0.146,0.07
-0.191,-0.018,0.173,0.104,-0.182,0.077,0.04,-0.033,-0.176,-0.106,-0.14,0.07
-0.147,0.028,0.175,0.059,-0.161,0.101,0.035,-0.028,-0.17,-0.103,-0.138,0.071
-0.13,0.04,0.169,0.045,-0.15,0.104,0.034,-0.025,-0.165,-0.096,-0.133,0.089
-0.128,0.042,0.17,0.043,-0.149,0.106,0.029,-0.021,-0.16,-0.091,-0.13,0.096
-0.138,0.033,0.17,0.052,-0.154,0.101,0.032,-0.02,-0.155,-0.093,-0.134,0.094
-0.141,0.028,0.169,0.057,-0.155,0.098,0.035,-0.02,-0.148,-0.095,-0.135,0.095
-0.137,0.027,0.164,0.055,-0.151,0.095,0.035,-0.02,-0.148,-0.097,-0.135,0.095
-0.136,0.014,0.151,0.061,-0.143,0.082,0.035,-0.019,-0.166,-0.101,-0.139,0.095
-0.092,0.052,0.145,0.02,-0.119,0.098,0.035,-0.022,-0.167,-0.098,-0.141,0.095
-0.067,0.062,0.129,0.002,-0.098,0.095,0.034,-0.03,-0.178,-0.091,-0.139,0.1
-0.076,0.047,0.123,0.014,-0.099,0.085,0.04,-0.032,-0.171,-0.084,-0.132,0.1
-0.067,0.036,0.103,0.015,-0.085,0.069,0.045,-0.036,-0.19,-0.078,-0.123,0.106
-0.077,0.049,0.126,0.013,-0.102,0.088,0.055,-0.028,-0.312,-0.071,-0.115,0.105
-0.097,0.089,0.186,0.004,-0.141,0.137,0.066,-0.006,-0.373,-0.068,-0.106,0.117
-0.113,0.07,0.183,0.021,-0.148,0.126,0.05,0.009,-0.357,-0.062,-0.093,0.135
-0.052,0.111,0.163,-0.03,-0.108,0.137,0.037,0.026,-0.36,-0.031,-0.072,0.146
-0.027,0.113,0.14,-0.043,-0.084,0.126,0.026,0.022,-0.362,-0.01,-0.05,0.163
-0.066,0.066,0.133,0.0,-0.1,0.099,0.015,0.008,-0.372,-0.03,-0.074,0.138
-0.046,0.058,0.104,-0.006,-0.075,0.081,0.007,-0.013,-0.403,-0.061,-0.103,0.11
-0.081,0.011,0.092,0.035,-0.087,0.051,0.001,-0.031,-0.435,-0.08,-0.115,0.099
-0.178,-0.039,0.139,0.109,-0.158,0.05,0.013,-0.044,-0.446,-0.096,-0.145,0.083
-0.213,-0.071,0.142,0.142,-0.177,0.035,0.024,-0.038,-0.435,-0.077,-0.143,0.097
-0.198,-0.062,0.136,0.13,-0.167,0.037,0.028,-0.043,-0.446,-0.091,-0.148,0.1
-0.192,-0.047,0.145,0.119,-0.168,0.049,0.023,-0.063,-0.456,-0.115,-0.138,0.107
-0.21,-0.077,0.133,0.143,-0.171,0.028,0.027,-0.045,-0.457,-0.118,-0.142,0.091
-0.198,-0.051,0.147,0.125,-0.173,0.048,0.024,-0.057,-0.447,-0.106,-0.139,0.096
-0.157,-0.045,0.112,0.101,-0.134,0.033,0.023,-0.023,-0.442,-0.103,-0.138,0.086
-0.146,0.002,0.149,0.072,-0.147,0.075,0.046,-0.04,-0.418,-0.09,-0.145,0.08
-0.217,0.063,0.28,0.077,-0.249,0.172,0.321,0.41,-0.254,-0.037,-0.137,0.045
-0.057,0.103,0.159,-0.023,-0.108,0.131,0.551,1.0,0.001,0.122,0.009,0.121
0.663,0.684,0.02,-0.674,0.321,0.352,-0.003,0.315,0.52,0.832,0.837,0.881
0.623,0.744,0.121,-0.684,0.251,0.432,-0.526,-0.762,0.397,0.84,0.919,1.006
-0.182,0.041,0.224,0.07,-0.203,0.132,-0.367,-0.923,-0.471,-0.064,-0.048,0.245
-0.262,-0.074,0.188,0.168,-0.225,0.056,-0.126,-0.433,-0.568,-0.19,-0.206,0.11
-0.133,0.014,0.147,0.059,-0.14,0.08,-0.01,-0.097,-0.395,-0.081,-0.103,0.144
-0.153,0.001,0.154,0.076,-0.154,0.077,0.013,-0.069,-0.43,-0.107,-0.136,0.117
-0.151,-0.004,0.147,0.077,-0.148,0.071,0.029,-0.041,-0.39,-0.064,-0.092,0.14
-0.169,-0.017,0.152,0.093,-0.16,0.067,0.034,-0.034,-0.399,-0.082,-0.109,0.122
-0.148,0.001,0.149,0.074,-0.148,0.074,0.027,-0.018,-0.381,-0.059,-0.084,0.128
-0.15,-0.004,0.145,0.077,-0.147,0.07,0.033,-0.01,-0.373,-0.065,-0.094,0.105
-0.132,0.009,0.141,0.061,-0.136,0.074,0.027,-0.001,-0.36,-0.053,-0.081,0.14
-0.126,0.01,0.136,0.058,-0.131,0.073,0.032,0.007,-0.353,-0.05,-0.08,0.141
-0.118,0.015,0.134,0.051,-0.126,0.074,0.026,0.011,-0.348,-0.044,-0.072,0.138
-0.117,0.007,0.124,0.055,-0.121,0.065,0.022,0.02,-0.339,-0.034,-0.057,0.155
-0.121,0.0,0.122,0.06,-0.122,0.061,0.016,0.025,-0.335,-0.028,-0.048,0.161
-0.095,0.014,0.109,0.04,-0.102,0.061,0.009,0.031,-0.324,-0.019,-0.03,0.169
-0.062,0.051,0.114,0.005,-0.088,0.083,0.006,0.013,-0.315,-0.009,-0.018,0.177
-0.027,0.096,0.124,-0.035,-0.076,0.11,-0.006,0.029,-0.305,0.013,0.001,0.194
0.001,0.107,0.106,-0.055,-0.052,0.106,-0.013,0.072,-0.288,0.033,0.03,0.223
0.037,0.136,0.098,-0.087,-0.031,0.117,-0.041,0.076,-0.258,0.073,0.067,0.262
0.088,0.181,0.093,-0.135,-0.003,0.137,-0.074,0.071,-0.249,0.111,0.113,0.301
0.13,0.212,0.083,-0.171,0.023,0.147,-0.084,0.072,-0.25,0.125,0.155,0.332
0.121,0.2,0.078,-0.161,0.021,0.139,-0.092,0.059,-0.251,0.123,0.161,0.332
0.101,0.19,0.089,-0.146,0.006,0.139,-0.079,0.033,-0.248,0.128,0.159,0.325
0.084,0.182,0.098,-0.134,-0.007,0.14,-0.068,0.024,-0.257,0.103,0.139,0.32
0.048,0.138,0.09,-0.093,-0.022,0.113,-0.046,0.026,-0.29,0.052,0.087,0.288
0.01,0.099,0.089,-0.054,-0.04,0.094,-0.017,0.024,-0.301,0.008,0.024,0.23
-0.057,0.054,0.111,0.001,-0.084,0.082,-0.008,0.025,-0.313,-0.02,-0.033,0.186
-0.091,0.021,0.112,0.035,-0.102,0.067,0.007,0.025,-0.329,-0.029,-0.058,0.16
-0.086,0.005,0.091,0.04,-0.089,0.048,0.019,0.021,-0.333,-0.058,-0.071,0.134
-0.09,-0.009,0.081,0.05,-0.085,0.036,0.037,0.02,-0.332,-0.068,-0.076,0.133
-0.095,-0.015,0.08,0.055,-0.087,0.032,0.051,0.019,-0.324,-0.063,-0.075,0.137
-0.11,-0.031,0.079,0.07,-0.094,0.024,0.049,0.016,-0.32,-0.066,-0.08,0.132
-0.119,-0.044,0.076,0.081,-0.097,0.016,0.052,0.013,-0.314,-0.064,-0.078,0.131
-0.115,-0.04,0.075,0.077,-0.095,0.017,0.055,0.019,-0.308,-0.065,-0.074,0.129
-0.105,-0.032,0.074,0.068,-0.089,0.021,0.055,0.037,-0.304,-0.06,-0.072,0.132
-0.097,-0.026,0.071,0.061,-0.083,0.022,0.053,0.045,-0.299,-0.055,-0.069,0.135
-0.088,-0.02,0.068,0.054,-0.078,0.024,0.049,0.046,-0.3,-0.051,-0.066,0.129
-0.086,-0.013,0.073,0.05,-0.079,0.029,0.051,0.052,-0.3,-0.046,-0.064,0.134
-0.097,-0.031,0.066,0.064,-0.081,0.017,0.046,0.063,-0.3,-0.041,-0.06,0.154
-0.119,-0.043,0.076,0.081,-0.097,0.016,0.045,0.063,-0.3,-0.042,-0.06,0.155
-0.106,-0.05,0.056,0.078,-0.08,0.003,0.045,0.056,-0.297,-0.045,-0.059,0.154
-0.089,-0.029,0.06,0.058,-0.074,0.015,0.04,0.053,-0.292,-0.045,-0.055,0.155
-0.08,0.023,0.103,0.028,-0.092,0.063,0.041,0.047,-0.289,-0.045,-0.055,0.154
-0.057,0.012,0.068,0.022,-0.063,0.04,0.038,0.043,-0.286,-0.046,-0.055,0.157
-0.104,-0.047,0.057,0.076,-0.08,0.005,0.036,0.041,-0.28,-0.044,-0.055,0.159
-0.094,-0.035,0.058,0.064,-0.076,0.011,0.033,0.038,-0.281,-0.041,-0.055,0.163
-0.066,0.003,0.068,0.031,-0.067,0.035,0.039,0.037,-0.285,-0.039,-0.056,0.164
-0.089,-0.015,0.074,0.051,-0.082,0.03,0.04,0.033,-0.286,-0.035,-0.055,0.169
-0.063,0.012,0.075,0.025,-0.069,0.043,0.05,0.048,-0.271,-0.03,-0.056,0.169
-0.061,0.034,0.095,0.014,-0.078,0.065,0.081,0.074,-0.238,-0.005,-0.045,0.175
-0.044,0.046,0.09,-0.001,-0.068,0.068,0.077,0.067,-0.217,0.004,-0.03,0.18
-0.01,0.089,0.098,-0.04,-0.054,0.093,0.044,0.062,-0.212,0.022,-0.001,0.188
0.043,0.102,0.059,-0.073,-0.008,0.081,0.01,0.052,-0.218,0.051,0.024,0.211
0.049,0.065,0.015,-0.057,0.017,0.04,-0.003,0.033,-0.22,0.016,-0.008,0.184
0.027,0.029,0.001,-0.028,0.013,0.015,-0.009,-0.006,-0.239,-0.02,-0.039,0.155
0.022,0.005,-0.017,-0.013,0.019,-0.006,-0.02,-0.041,-0.275,-0.044,-0.067,0.145
-0.044,-0.029,0.015,0.037,-0.029,-0.007,-0.012,-0.039,-0.289,-0.059,-0.095,0.124
-0.096,-0.053,0.043,0.075,-0.07,-0.005,-0.004,-0.026,-0.279,-0.051,-0.085,0.126
-0.122,-0.096,0.026,0.108,-0.073,-0.035,0.009,-0.012,-0.283,-0.058,-0.094,0.114
-0.111,-0.074,0.037,0.092,-0.074,-0.018,0.016,-0.017,-0.274,-0.054,-0.087,0.117
-0.128,-0.081,0.047,0.104,-0.087,-0.017,0.021,-0.018,-0.276,-0.073,-0.092,0.106
-0.117,-0.062,0.054,0.09,-0.085,-0.004,0.023,-0.066,-0.271,-0.064,-0.088,0.106
-0.107,-0.063,0.044,0.085,-0.075,-0.009,0.025,-0.034,-0.259,-0.062,-0.08,0.116
-0.11,-0.034,0.076,0.072,-0.093,0.02,0.046,-0.036,-0.251,-0.051,-0.093,0.109
-0.16,0.063,0.223,0.048,-0.191,0.143,0.31,0.375,-0.097,0.015,-0.076,0.069
-0.045,0.086,0.131,-0.021,-0.088,0.109,0.584,1.013,0.133,0.14,0.042,0.117
0.777,0.673,-0.103,-0.725,0.44,0.285,0.034,0.314,0.613,0.8,0.814,0.822
0.82,0.796,-0.025,-0.808,0.422,0.385,-0.612,-0.867,0.549,0.897,1.007,1.069
-0.08,0.065,0.145,0.008,-0.113,0.105,-0.452,-0.984,-0.285,0.035,0.066,0.295
-0.186,-0.085,0.1,0.135,-0.143,0.007,-0.13,-0.442,-0.412,-0.159,-0.179,0.053
-0.077,-0.029,0.048,0.053,-0.063,0.009,0.001,-0.107,-0.232,-0.029,-0.038,0.16
-0.118,-0.055,0.063,0.086,-0.09,0.004,0.032,-0.061,-0.267,-0.046,-0.066,0.129
-0.038,0.012,0.05,0.013,-0.044,0.031,0.049,-0.021,-0.234,-0.018,-0.047,0.143
-0.036,-0.003,0.033,0.019,-0.035,0.015,0.064,-0.024,-0.252,-0.047,-0.069,0.121
-0.077,-0.026,0.051,0.051,-0.064,0.013,0.048,-0.016,-0.236,-0.043,-0.048,0.124
-0.109,-0.017,0.091,0.063,-0.1,0.037,0.039,-0.012,-0.242,-0.053,-0.056,0.114
-0.099,-0.013,0.085,0.056,-0.092,0.036,0.034,-0.009,-0.228,-0.043,-0.049,0.11
-0.114,-0.036,0.078,0.075,-0.096,0.021,0.028,-0.002,-0.206,-0.042,-0.047,0.117
-0.112,-0.037,0.074,0.074,-0.093,0.019,0.024,0.003,-0.201,-0.04,-0.039,0.137
-0.066,0.003,0.069,0.032,-0.068,0.036,0.016,0.016,-0.19,-0.022,-0.025,0.143
-0.035,0.033,0.068,0.001,-0.052,0.05,0.021,0.024,-0.188,-0.008,-0.02,0.137
-0.021,0.043,0.065,-0.011,-0.043,0.054,0.043,0.044,-0.172,0.008,-0.002,0.163
-0.027,0.033,0.061,-0.003,-0.044,0.047,0.034,0.051,-0.161,0.019,0.009,0.177
-0.012,0.049,0.061,-0.018,-0.037,0.055,0.005,0.05,-0.144,0.03,0.024,0.178
0.048,0.094,0.046,-0.071,0.0,0.07,-0.008,0.056,-0.119,0.057,0.058,0.198
0.079,0.093,0.014,-0.086,0.032,0.053,-0.029,0.07,-0.092,0.098,0.103,0.234
0.12,0.13,0.01,-0.125,0.055,0.07,-0.058,0.072,-0.077,0.122,0.149,0.268
0.171,0.18,0.009,-0.175,0.08,0.094,-0.071,0.065,-0.074,0.141,0.178,0.291
0.164,0.176,0.012,-0.17,0.076,0.094,-0.077,0.037,-0.076,0.157,0.189,0.315
0.159,0.165,0.006,-0.162,0.077,0.085,-0.073,-0.01,-0.074,0.148,0.18,0.321
0.133,0.154,0.021,-0.144,0.056,0.087,-0.066,-0.036,-0.032,0.122,0.15,0.29
0.111,0.142,0.031,-0.127,0.04,0.086,-0.058,-0.04,0.044,0.08,0.109,0.244
0.086,0.111,0.025,-0.099,0.03,0.068,-0.036,-0.034,0.095,0.028,0.057,0.186
0.003,0.067,0.063,-0.035,-0.03,0.065,0.0,-0.027,0.111,-0.002,0.006,0.153
-0.023,0.05,0.073,-0.013,-0.048,0.061,0.027,-0.023,0.12,-0.032,-0.035,0.129
-0.033,0.035,0.067,-0.001,-0.05,0.051,0.033,-0.016,0.121,-0.056,-0.046,0.096
-0.112,-0.056,0.056,0.084,-0.084,0.0,0.041,-0.016,0.108,-0.062,-0.064,0.083
-0.08,-0.05,0.03,0.065,-0.055,-0.01,0.042,-0.014,0.11,-0.053,-0.082,0.083
0.015,0.036,0.021,-0.026,-0.003,0.028,0.039,-0.002,0.138,-0.057,-0.079,0.099
-0.033,-0.025,0.008,0.029,-0.021,-0.008,0.041,-0.006,0.138,-0.075,-0.08,0.083
-0.077,-0.081,-0.004,0.079,-0.037,-0.042,0.039,-0.019,0.12,-0.065,-0.08,0.061
-0.093,-0.073,0.02,0.082,-0.056,-0.027,0.041,-0.026,0.117,-0.059,-0.08,0.061
-0.117,-0.07,0.047,0.093,-0.082,-0.011,0.039,-0.027,0.113,-0.054,-0.076,0.051
-0.089,-0.062,0.027,0.075,-0.058,-0.017,0.045,-0.021,0.122,-0.044,-0.07,0.048
-0.057,-0.057,0.0,0.057,-0.028,-0.028,0.057,-0.019,0.131,-0.053,-0.065,0.042
-0.048,-0.048,0.0,0.048,-0.023,-0.024,0.053,-0.014,0.134,-0.061,-0.058,0.036
-0.067,-0.043,0.024,0.055,-0.046,-0.01,0.051,-0.01,0.136,-0.055,-0.054,0.032
-0.086,-0.035,0.051,0.06,-0.068,0.008,0.047,-0.012,0.134,-0.053,-0.05,0.025
-0.088,-0.033,0.055,0.06,-0.072,0.011,0.045,-0.017,0.136,-0.048,-0.05,0.02
-0.081,-0.025,0.055,0.052,-0.068,0.015,0.043,-0.02,0.133,-0.045,-0.05,0.015
-0.083,-0.029,0.054,0.055,-0.068,0.013,0.037,-0.023,0.139,-0.048,-0.05,0.01
-0.092,-0.054,0.037,0.073,-0.064,-0.008,0.033,-0.028,0.146,-0.051,-0.05,0.011
-0.065,-0.06,0.005,0.062,-0.035,-0.027,0.028,-0.03,0.139,-0.049,-0.047,0.008
-0.054,-0.048,0.007,0.051,-0.03,-0.021,0.024,-0.024,0.133,-0.05,-0.042,0.006
-0.057,-0.05,0.007,0.053,-0.031,-0.021,0.018,-0.018,0.125,-0.051,-0.039,0.004
-0.068,-0.085,-0.017,0.077,-0.026,-0.05,0.03,-0.01,0.12,-0.048,-0.036,0.008
-0.098,-0.09,0.008,0.094,-0.053,-0.041,0.032,-0.006,0.113,-0.063,-0.031,0.015
-0.068,-0.046,0.021,0.057,-0.044,-0.012,0.043,0.008,0.14,-0.04,-0.029,0.024
-0.022,-0.011,0.01,0.016,-0.016,0.0,0.075,0.029,0.171,-0.027,-0.017,0.049
0.012,0.007,-0.005,-0.009,0.009,0.0,0.059,0.047,0.181,-0.023,-0.006,0.056
0.047,0.049,0.002,-0.048,0.022,0.025,0.018,0.056,0.207,0.009,0.008,0.062
0.041,0.064,0.023,-0.053,0.008,0.044,-0.001,0.054,0.188,-0.011,0.023,0.063
0.022,0.001,-0.021,-0.011,0.022,-0.01,0.0,0.061,0.16,-0.033,-0.003,0.045
0.005,-0.046,-0.052,0.021,0.029,-0.049,0.0,0.029,0.149,-0.042,-0.031,0.037
-0.025,-0.088,-0.062,0.057,0.019,-0.075,0.005,0.007,0.131,-0.072,-0.067,0.021
-0.057,-0.112,-0.055,0.085,-0.001,-0.084,0.005,0.009,0.124,-0.087,-0.097,0.004
-0.069,-0.108,-0.038,0.089,-0.016,-0.073,0.006,0.012,0.119,-0.083,-0.091,-0.01
-0.083,-0.113,-0.03,0.098,-0.026,-0.071,0.012,0.008,0.108,-0.091,-0.1,-0.024
-0.078,-0.099,-0.021,0.089,-0.028,-0.06,0.014,0.005,0.105,-0.086,-0.089,-0.02
-0.081,-0.112,-0.03,0.097,-0.025,-0.071,0.022,0.007,0.093,-0.096,-0.101,-0.033
-0.088,-0.098,-0.01,0.093,-0.039,-0.053,0.012,0.0,0.09,-0.078,-0.089,-0.03
-0.095,-0.133,-0.038,0.114,-0.029,-0.085,-0.005,-0.003,0.074,-0.072,-0.101,-0.034
-0.143,-0.094,0.049,0.118,-0.095,-0.022,0.063,0.041,0.127,-0.052,-0.108,-0.029
-0.2,-0.042,0.158,0.121,-0.179,0.058,0.411,0.658,0.293,-0.027,-0.121,-0.102
0.227,0.178,-0.049,-0.203,0.138,0.064,0.47,0.982,0.625,0.269,0.194,0.164
0.967,0.792,-0.175,-0.879,0.571,0.309,-0.246,-0.091,1.079,0.95,1.029,0.947
0.533,0.565,0.032,-0.549,0.25,0.298,-0.638,-1.063,0.667,0.633,0.742,0.761
-0.199,-0.094,0.105,0.146,-0.152,0.006,-0.342,-0.85,-0.054,-0.15,-0.129,0.045
-0.139,-0.112,0.027,0.125,-0.082,-0.042,-0.091,-0.295,0.022,-0.138,-0.129,-0.014
-0.136,-0.098,0.039,0.117,-0.087,-0.029,-0.02,-0.089,0.12,-0.093,-0.098,-0.014
-0.081,-0.08,0.001,0.081,-0.041,-0.039,0.003,-0.05,0.104,-0.094,-0.104,-0.005
-0.054,-0.062,-0.008,0.058,-0.023,-0.035,0.027,-0.038,0.125,-0.067,-0.076,0.01
-0.1,-0.102,-0.002,0.101,-0.049,-0.052,0.032,-0.042,0.108,-0.083,-0.094,0.001
-0.051,-0.085,-0.034,0.068,-0.009,-0.059,0.024,-0.026,0.127,-0.068,-0.076,0.016
-0.039,-0.085,-0.046,0.062,0.004,-0.066,0.022,-0.025,0.115,-0.075,-0.087,0.008
-0.053,-0.062,-0.009,0.058,-0.022,-0.035,0.016,-0.016,0.121,-0.067,-0.076,0.019
-0.084,-0.076,0.007,0.08,-0.045,-0.034,0.012,-0.012,0.145,-0.071,-0.081,0.015
-0.083,-0.096,-0.012,0.09,-0.035,-0.054,0.01,-0.006,0.156,-0.06,-0.07,0.029
-0.106,-0.085,0.021,0.096,-0.063,-0.032,0.01,0.0,0.166,-0.047,-0.056,0.037
-0.072,-0.08,-0.009,0.076,-0.031,-0.044,0.011,0.015,0.193,-0.031,-0.041,0.045
-0.072,-0.073,-0.001,0.072,-0.035,-0.037,0.009,0.02,0.201,-0.019,-0.021,0.04
-0.072,-0.059,0.013,0.065,-0.042,-0.023,0.011,0.03,0.223,-0.009,-0.001,-0.002
-0.01,-0.002,0.008,0.006,-0.009,0.002,-0.01,0.047,0.249,0.007,0.027,-0.026
0.033,0.045,0.012,-0.039,0.01,0.028,-0.038,0.042,0.268,0.047,0.077,-0.001
0.121,0.085,-0.036,-0.103,0.079,0.024,-0.053,0.038,0.301,0.087,0.122,0.03
0.166,0.126,-0.04,-0.146,0.103,0.043,-0.095,0.037,0.308,0.107,0.153,0.051
0.174,0.141,-0.034,-0.157,0.104,0.053,-0.111,0.028,0.302,0.136,0.191,0.081
0.173,0.124,-0.049,-0.148,0.11,0.037,-0.099,0.009,0.296,0.141,0.197,0.095
0.187,0.123,-0.064,-0.155,0.126,0.029,-0.095,-0.025,0.292,0.123,0.181,0.085
0.168,0.129,-0.039,-0.148,0.103,0.045,-0.088,-0.06,0.279,0.099,0.163,0.051
0.107,0.067,-0.041,-0.087,0.074,0.013,-0.072,-0.065,0.252,0.066,0.121,0.004
0.074,0.04,-0.034,-0.057,0.053,0.004,-0.044,-0.054,0.24,0.032,0.067,-0.045
-0.004,-0.023,-0.019,0.014,0.008,-0.021,-0.006,-0.048,0.233,0.008,0.018,-0.091
-0.04,-0.08,-0.04,0.06,0.0,-0.06,0.003,-0.036,0.224,-0.024,-0.012,-0.116
-0.077,-0.079,-0.002,0.078,-0.037,-0.04,-0.006,-0.046,0.218,-0.062,-0.034,-0.141
-0.099,-0.119,-0.02,0.109,-0.039,-0.069,0.01,-0.056,0.211,-0.065,-0.047,-0.152
-0.062,-0.111,-0.048,0.087,-0.007,-0.079,0.017,-0.048,0.21,-0.06,-0.044,-0.149
-0.047,-0.105,-0.057,0.076,0.005,-0.081,0.014,-0.045,0.209,-0.058,-0.045,-0.151
-0.044,-0.108,-0.064,0.077,0.01,-0.086,0.012,-0.04,0.206,-0.053,-0.045,-0.15
-0.059,-0.108,-0.049,0.083,-0.004,-0.078,0.009,-0.035,0.204,-0.05,-0.045,-0.15
-0.06,-0.108,-0.048,0.084,-0.006,-0.078,0.011,-0.032,0.206,-0.046,-0.042,-0.147
-0.067,-0.104,-0.038,0.086,-0.014,-0.071,0.009,-0.029,0.211,-0.043,-0.039,-0.142
-0.067,-0.101,-0.035,0.084,-0.016,-0.068,0.01,-0.026,0.215,-0.039,-0.04,-0.139
-0.061,-0.09,-0.028,0.076,-0.016,-0.059,0.01,-0.023,0.22,-0.036,-0.035,-0.135
-0.05,-0.108,-0.058,0.079,0.004,-0.082,0.01,-0.02,0.216,-0.031,-0.035,-0.131
-0.035,-0.085,-0.05,0.061,0.008,-0.067,0.01,-0.02,0.207,-0.031,-0.034,-0.13
-0.04,-0.067,-0.026,0.054,-0.007,-0.046,0.01,-0.02,0.201,-0.035,-0.03,-0.137
-0.041,-0.058,-0.017,0.05,-0.012,-0.038,0.011,-0.02,0.193,-0.035,-0.03,-0.133
-0.048,-0.044,0.004,0.046,-0.026,-0.02,0.009,-0.02,0.185,-0.035,-0.03,-0.138
-0.038,-0.086,-0.048,0.062,0.006,-0.067,0.008,-0.027,0.179,-0.035,-0.03,-0.15
-0.031,-0.09,-0.059,0.06,0.014,-0.074,0.0,-0.039,0.17,-0.032,-0.03,-0.145
-0.037,-0.078,-0.041,0.058,0.002,-0.059,-0.002,-0.043,0.165,-0.029,-0.035,-0.14
-0.032,-0.064,-0.032,0.048,0.001,-0.048,-0.009,-0.049,0.156,-0.045,-0.043,-0.137
-0.027,-0.07,-0.043,0.049,0.008,-0.056,-0.011,-0.051,0.15,-0.053,-0.038,-0.131
-0.018,-0.083,-0.065,0.051,0.024,-0.074,-0.019,-0.046,0.141,-0.041,-0.033,-0.132
-0.042,-0.079,-0.037,0.06,-0.002,-0.057,-0.031,-0.049,0.144,-0.035,-0.026,-0.153
-0.013,-0.086,-0.073,0.05,0.03,-0.08,0.015,-0.031,0.167,-0.022,-0.021,-0.133
0.042,-0.043,-0.085,0.001,0.064,-0.064,0.036,-0.006,0.165,-0.009,-0.013,-0.105
0.058,-0.007,-0.066,-0.025,0.062,-0.036,0.01,0.031,0.179,0.008,0.027,-0.113
0.128,0.059,-0.069,-0.094,0.098,-0.005,-0.024,0.044,0.203,0.032,0.04,-0.112
0.086,0.035,-0.052,-0.06,0.069,-0.008,-0.044,0.025,0.185,0.027,0.012,-0.118
0.006,-0.061,-0.067,0.028,0.037,-0.064,-0.038,0.011,0.14,-0.008,-0.008,-0.119
0.014,-0.063,-0.077,0.025,0.045,-0.07,-0.041,-0.027,0.117,-0.037,-0.026,-0.121
-0.03,-0.109,-0.079,0.07,0.025,-0.093,-0.034,-0.053,0.107,-0.043,-0.039,-0.137
-0.043,-0.121,-0.077,0.082,0.017,-0.099,-0.036,-0.058,0.098,-0.037,-0.031,-0.129
-0.073,-0.142,-0.068,0.108,-0.002,-0.105,-0.032,-0.051,0.095,-0.057,-0.05,-0.151
-0.084,-0.158,-0.074,0.121,-0.005,-0.115,-0.031,-0.065,0.09,-0.062,-0.064,-0.163
-0.053,-0.135,-0.082,0.094,0.014,-0.109,-0.028,-0.054,0.093,-0.056,-0.055,-0.156
-0.081,-0.146,-0.064,0.113,-0.009,-0.105,-0.027,-0.066,0.08,-0.066,-0.068,-0.165
-0.059,-0.13,-0.07,0.095,0.006,-0.1,-0.022,-0.048,0.093,-0.051,-0.05,-0.153
-0.062,-0.111,-0.049,0.087,-0.006,-0.08,-0.014,-0.05,0.074,-0.072,-0.073,-0.168
-0.1,-0.037,0.063,0.068,-0.081,0.013,0.144,0.139,0.167,-0.018,-0.054,-0.17
-0.108,-0.066,0.042,0.087,-0.075,-0.012,0.484,0.867,0.342,0.029,-0.041,-0.227
0.52,0.368,-0.153,-0.444,0.336,0.108,0.222,0.773,0.757,0.535,0.531,0.284
0.995,0.854,-0.141,-0.924,0.568,0.357,-0.459,-0.416,1.06,1.042,1.16,0.905
0.205,0.276,0.071,-0.24,0.067,0.173,-0.533,-1.031,0.326,0.329,0.41,0.301
-0.244,-0.178,0.066,0.211,-0.154,-0.056,-0.241,-0.654,-0.145,-0.188,-0.184,-0.223
-0.103,-0.123,-0.02,0.113,-0.041,-0.072,-0.077,-0.182,0.042,-0.046,-0.037,-0.13
-0.08,-0.127,-0.047,0.104,-0.016,-0.087,-0.03,-0.081,-0.082,-0.06,-0.05,-0.155
-0.029,-0.057,-0.028,0.043,-0.001,-0.042,-0.006,-0.035,-0.173,-0.036,-0.025,-0.135
-0.064,-0.054,0.009,0.059,-0.037,-0.022,0.003,-0.018,-0.195,-0.038,-0.034,-0.14
-0.046,-0.091,-0.045,0.069,0.0,-0.068,-0.002,-0.016,-0.219,-0.031,-0.027,-0.136
-0.035,-0.093,-0.057,0.064,0.011,-0.075,0.001,-0.002,-0.207,-0.028,-0.023,-0.132
-0.038,-0.088,-0.05,0.063,0.006,-0.069,-0.001,0.0,-0.21,-0.029,-0.026,-0.138
-0.023,-0.075,-0.052,0.049,0.015,-0.064,-0.005,0.012,-0.2,-0.022,-0.013,-0.131
-0.031,-0.072,-0.041,0.052,0.006,-0.056,-0.01,0.017,-0.199,-0.025,-0.013,-0.138
-0.028,-0.079,-0.051,0.054,0.011,-0.065,-0.015,0.025,-0.195,-0.012,-0.003,-0.133
-0.016,-0.061,-0.045,0.038,0.015,-0.053,-0.019,0.006,-0.196,-0.006,-0.001,-0.136
0.009,-0.041,-0.05,0.017,0.03,-0.045,-0.023,0.013,-0.186,0.002,0.019,-0.129
0.029,-0.04,-0.069,0.006,0.049,-0.054,-0.034,0.048,-0.177,0.017,0.027,-0.113
0.042,-0.021,-0.063,-0.01,0.053,-0.042,-0.036,0.052,-0.169,0.049,0.049,-0.093
0.068,0.002,-0.066,-0.035,0.067,-0.031,-0.049,0.042,-0.155,0.061,0.071,-0.054
0.111,0.046,-0.065,-0.078,0.088,-0.009,-0.077,0.056,-0.141,0.095,0.109,-0.012
0.143,0.081,-0.063,-0.112,0.103,0.009,-0.087,0.062,-0.138,0.137,0.166,0.014
0.167,0.097,-0.07,-0.132,0.119,0.013,-0.109,0.05,-0.142,0.157,0.194,0.044
0.204,0.136,-0.068,-0.17,0.136,0.034,-0.134,0.039,-0.145,0.169,0.212,0.066
0.233,0.152,-0.081,-0.192,0.157,0.035,-0.136,0.015,-0.149,0.167,0.222,0.085
0.217,0.144,-0.073,-0.18,0.144,0.035,-0.132,-0.021,-0.15,0.154,0.202,0.077
0.173,0.11,-0.062,-0.141,0.117,0.024,-0.106,-0.046,-0.17,0.116,0.16,0.028
0.116,0.05,-0.065,-0.083,0.09,-0.007,-0.069,-0.042,-0.191,0.074,0.118,-0.017
0.07,0.02,-0.05,-0.045,0.06,-0.015,-0.04,-0.039,-0.214,0.039,0.072,-0.056
0.075,-0.003,-0.079,-0.036,0.077,-0.041,-0.023,-0.036,-0.233,0.018,0.029,-0.095
0.049,-0.045,-0.094,-0.002,0.072,-0.069,-0.016,-0.031,-0.228,0.003,0.003,-0.116
-0.001,-0.087,-0.086,0.044,0.043,-0.086,-0.004,-0.029,-0.235,-0.01,-0.014,-0.125
-0.011,-0.089,-0.079,0.05,0.034,-0.084,0.004,-0.023,-0.241,-0.015,-0.023,-0.142
-0.012,-0.084,-0.072,0.048,0.031,-0.078,0.016,-0.021,-0.243,-0.02,-0.019,-0.146
-0.019,-0.102,-0.082,0.061,0.032,-0.092,0.03,-0.014,-0.248,-0.026,-0.014,-0.144
-0.027,-0.105,-0.078,0.066,0.025,-0.091,0.03,-0.012,-0.25,-0.032,-0.013,-0.145
-0.014,-0.09,-0.076,0.052,0.031,-0.083,0.025,-0.002,-0.25,-0.035,-0.006,-0.138
-0.054,-0.085,-0.031,0.07,-0.012,-0.057,0.023,-0.004,-0.25,-0.035,-0.008,-0.13
-0.06,-0.099,-0.04,0.08,-0.01,-0.069,0.019,-0.029,-0.246,-0.03,-0.023,-0.122
-0.008,-0.075,-0.067,0.042,0.03,-0.071,0.014,-0.022,-0.239,-0.021,-0.018,-0.113
-0.019,-0.075,-0.056,0.048,0.019,-0.066,0.024,-0.011,-0.235,-0.013,-0.008,-0.112
-0.023,-0.074,-0.051,0.048,0.015,-0.062,0.031,-0.005,-0.228,-0.004,0.006,-0.115
0.007,-0.06,-0.068,0.027,0.038,-0.064,0.02,0.014,-0.225,0.005,0.025,-0.115
0.008,-0.088,-0.096,0.04,0.052,-0.092,0.013,0.016,-0.22,0.007,0.026,-0.115
-0.02,-0.076,-0.055,0.048,0.018,-0.065,0.003,0.007,-0.218,0.005,0.023,-0.115
0.004,-0.072,-0.076,0.034,0.041,-0.074,-0.002,0.001,-0.213,0.005,0.019,-0.114
0.02,-0.065,-0.085,0.022,0.053,-0.074,-0.007,-0.007,-0.21,0.001,0.015,-0.11
0.0,-0.081,-0.081,0.04,0.041,-0.08,0.0,-0.015,-0.224,-0.001,0.012,-0.105
-0.013,-0.116,-0.103,0.064,0.045,-0.109,0.009,-0.019,-0.216,0.002,0.009,-0.101
-0.024,-0.101,-0.078,0.062,0.027,-0.089,0.003,-0.01,-0.201,0.005,0.032,-0.097
-0.003,-0.089,-0.086,0.046,0.042,-0.087,-0.005,0.0,-0.197,0.011,0.056,-0.091
0.0,-0.085,-0.085,0.043,0.043,-0.085,-0.008,0.01,-0.185,0.013,0.055,-0.088
-0.005,-0.065,-0.06,0.035,0.028,-0.062,0.021,0.026,-0.181,0.026,0.054,-0.077
0.034,-0.041,-0.074,0.004,0.054,-0.057,0.038,0.042,-0.168,0.045,0.06,-0.068
0.086,0.023,-0.063,-0.055,0.075,-0.02,0.028,0.054,-0.147,0.054,0.081,-0.052
0.096,0.045,-0.051,-0.07,0.073,-0.003,0.014,0.042,-0.144,0.074,0.112,-0.035
0.081,-0.028,-0.109,-0.026,0.095,-0.068,-0.002,0.031,-0.146,0.062,0.102,-0.035
0.095,-0.043,-0.138,-0.026,0.117,-0.09,-0.019,0.019,-0.175,0.032,0.066,-0.035
0.058,-0.093,-0.151,0.018,0.105,-0.122,-0.033,0.007,-0.197,0.029,0.051,-0.056
-0.037,-0.142,-0.105,0.089,0.035,-0.123,-0.026,-0.004,-0.204,0.014,0.041,-0.075
-0.042,-0.113,-0.071,0.077,0.015,-0.092,-0.018,-0.007,-0.214,0.013,0.049,-0.065
-0.045,-0.147,-0.102,0.096,0.029,-0.125,-0.01,-0.005,-0.225,0.001,0.04,-0.086
-0.089,-0.147,-0.058,0.118,-0.015,-0.102,-0.003,-0.018,-0.221,0.009,0.049,-0.083
-0.079,-0.153,-0.075,0.116,-0.002,-0.114,0.005,-0.006,-0.228,0.002,0.042,-0.086
-0.062,-0.147,-0.085,0.105,0.011,-0.116,0.008,-0.029,-0.232,0.005,0.042,-0.086
-0.052,-0.151,-0.098,0.102,0.023,-0.125,0.005,-0.013,-0.223,0.008,0.037,-0.082
-0.042,-0.113,-0.071,0.077,0.014,-0.092,0.02,-0.023,-0.209,0.008,0.021,-0.091
-0.105,-0.065,0.04,0.085,-0.073,-0.012,0.289,0.414,-0.05,0.058,0.029,-0.125
0.046,-0.019,-0.064,-0.013,0.055,-0.042,0.525,1.04,0.193,0.183,0.126,-0.073
0.756,0.621,-0.135,-0.688,0.445,0.243,0.026,0.405,0.772,0.947,0.977,0.683
0.731,0.718,-0.013,-0.725,0.372,0.352,-0.482,-0.706,0.729,1.043,1.152,0.902
-0.073,-0.02,0.054,0.046,-0.064,0.017,-0.373,-0.905,-0.206,0.073,0.135,0.07
-0.128,-0.154,-0.026,0.141,-0.05,-0.09,-0.158,-0.427,-0.363,-0.097,-0.063,-0.131
-0.016,-0.079,-0.063,0.048,0.024,-0.071,-0.035,-0.073,-0.193,0.038,0.075,-0.035
-0.064,-0.104,-0.041,0.084,-0.011,-0.072,0.004,-0.015,-0.199,0.03,0.045,-0.066
-0.031,-0.087,-0.057,0.059,0.013,-0.072,0.015,0.029,-0.152,0.073,0.084,-0.029
-0.045,-0.089,-0.045,0.067,0.0,-0.067,0.024,0.034,-0.182,0.041,0.057,-0.046
-0.019,-0.074,-0.055,0.047,0.018,-0.064,0.019,0.044,-0.162,0.068,0.083,-0.022
-0.028,-0.1,-0.072,0.065,0.022,-0.086,0.018,0.053,-0.174,0.054,0.075,-0.028
-0.015,-0.09,-0.074,0.053,0.03,-0.082,0.015,0.055,-0.169,0.062,0.088,-0.018
-0.006,-0.074,-0.068,0.04,0.031,-0.07,0.011,0.055,-0.164,0.069,0.084,-0.02
0.003,-0.064,-0.067,0.031,0.035,-0.065,0.011,0.055,-0.159,0.074,0.084,-0.019
0.006,-0.055,-0.061,0.024,0.034,-0.058,0.002,0.056,-0.148,0.069,0.102,-0.012
-0.007,-0.065,-0.058,0.036,0.025,-0.061,-0.014,0.054,-0.147,0.062,0.115,-0.018
0.018,-0.052,-0.07,0.017,0.044,-0.061,-0.004,0.075,-0.133,0.092,0.12,-0.005
0.048,-0.009,-0.056,-0.019,0.052,-0.032,-0.005,0.081,-0.127,0.1,0.124,0.009
0.082,0.003,-0.079,-0.042,0.08,-0.038,-0.013,0.101,-0.106,0.124,0.16,0.042
0.124,0.025,-0.099,-0.074,0.111,-0.037,-0.032,0.115,-0.072,0.156,0.179,0.056
0.169,0.082,-0.087,-0.126,0.128,-0.002,-0.056,0.104,-0.043,0.184,0.215,0.088
0.193,0.105,-0.088,-0.149,0.14,0.008,-0.077,0.1,-0.019,0.233,0.277,0.151
0.195,0.113,-0.081,-0.154,0.138,0.016,-0.102,0.091,-0.017,0.245,0.309,0.165
0.22,0.14,-0.08,-0.18,0.15,0.03,-0.102,0.088,-0.007,0.251,0.317,0.176
0.232,0.162,-0.07,-0.197,0.151,0.046,-0.096,0.06,-0.008,0.262,0.317,0.181
0.202,0.148,-0.054,-0.174,0.128,0.046,-0.098,0.032,-0.049,0.235,0.294,0.154
0.136,0.095,-0.042,-0.115,0.089,0.026,-0.085,0.036,-0.08,0.195,0.24,0.114
0.114,0.07,-0.045,-0.092,0.079,0.012,-0.042,0.034,-0.103,0.159,0.2,0.068
0.116,0.057,-0.059,-0.086,0.087,-0.001,-0.015,0.039,-0.116,0.125,0.154,0.034
0.047,-0.004,-0.05,-0.021,0.048,-0.027,-0.009,0.04,-0.126,0.086,0.101,0.001
-0.003,-0.054,-0.051,0.028,0.025,-0.052,0.003,0.04,-0.132,0.071,0.087,-0.022
-0.02,-0.066,-0.046,0.044,0.013,-0.056,0.01,0.046,-0.125,0.068,0.081,-0.04
-0.008,-0.052,-0.044,0.03,0.018,-0.047,0.019,0.053,-0.125,0.06,0.074,-0.051
0.005,-0.079,-0.085,0.037,0.045,-0.082,0.037,0.053,-0.12,0.057,0.067,-0.05
0.004,-0.088,-0.092,0.042,0.048,-0.089,0.046,0.049,-0.12,0.05,0.061,-0.047
0.002,-0.068,-0.07,0.033,0.036,-0.068,0.045,0.05,-0.12,0.05,0.06,-0.044
-0.001,-0.068,-0.066,0.035,0.033,-0.067,0.05,0.044,-0.12,0.045,0.054,-0.051
-0.002,-0.057,-0.055,0.03,0.027,-0.056,0.05,0.047,-0.118,0.046,0.058,-0.055
-0.036,-0.089,-0.053,0.063,0.008,-0.071,0.046,0.067,-0.107,0.075,0.066,-0.047
-0.029,-0.072,-0.043,0.051,0.007,-0.057,0.041,0.071,-0.098,0.082,0.065,-0.041
-0.029,-0.067,-0.038,0.049,0.004,-0.052,0.036,0.072,-0.087,0.079,0.059,-0.035
-0.025,-0.065,-0.039,0.046,0.007,-0.052,0.033,0.076,-0.08,0.081,0.065,-0.026
-0.002,-0.047,-0.045,0.024,0.022,-0.046,0.028,0.073,-0.081,0.079,0.081,-0.032
-0.006,-0.083,-0.078,0.045,0.036,-0.08,0.023,0.068,-0.078,0.08,0.08,-0.045
0.009,-0.065,-0.073,0.028,0.042,-0.069,0.02,0.06,-0.075,0.074,0.079,-0.045
0.011,-0.039,-0.05,0.014,0.031,-0.045,0.02,0.056,-0.075,0.07,0.076,-0.047
-0.003,-0.054,-0.05,0.029,0.024,-0.051,0.02,0.046,-0.073,0.065,0.074,-0.051
-0.002,-0.073,-0.071,0.038,0.035,-0.072,0.02,0.043,-0.069,0.062,0.075,-0.049
0.011,-0.045,-0.056,0.017,0.034,-0.05,0.02,0.031,-0.07,0.055,0.069,-0.051
-0.004,-0.059,-0.056,0.032,0.026,-0.057,0.027,0.026,-0.07,0.058,0.07,-0.067
-0.004,-0.098,-0.095,0.052,0.046,-0.096,0.041,0.061,-0.07,0.083,0.07,-0.066
0.002,-0.064,-0.066,0.031,0.034,-0.065,0.041,0.072,-0.071,0.085,0.069,-0.055
-0.009,-0.057,-0.048,0.034,0.019,-0.052,0.049,0.077,-0.048,0.087,0.081,-0.049
0.023,-0.046,-0.069,0.012,0.046,-0.058,0.07,0.094,-0.017,0.096,0.094,-0.04
0.08,0.008,-0.072,-0.043,0.076,-0.032,0.061,0.115,-0.001,0.117,0.117,-0.045
0.112,0.063,-0.049,-0.087,0.08,0.006,0.042,0.107,0.01,0.131,0.131,-0.045
0.111,0.05,-0.061,-0.08,0.086,-0.006,0.031,0.081,0.009,0.114,0.112,-0.048
0.09,-0.01,-0.1,-0.04,0.095,-0.054,0.017,0.066,-0.017,0.101,0.095,-0.053
0.042,-0.078,-0.12,0.018,0.081,-0.099,0.011,0.05,-0.048,0.09,0.095,-0.044
-0.02,-0.118,-0.098,0.069,0.039,-0.108,0.006,0.034,-0.058,0.076,0.062,-0.07
-0.048,-0.104,-0.056,0.076,0.004,-0.08,-0.001,0.017,-0.053,0.077,0.041,-0.089
-0.05,-0.135,-0.085,0.093,0.018,-0.11,0.013,0.02,-0.056,0.066,0.043,-0.091
-0.04,-0.124,-0.084,0.083,0.022,-0.104,0.025,0.004,-0.055,0.064,0.046,-0.09
-0.044,-0.113,-0.069,0.078,0.013,-0.091,0.025,0.012,-0.053,0.058,0.046,-0.089
-0.047,-0.114,-0.068,0.081,0.011,-0.091,0.025,-0.011,-0.055,0.053,0.042,-0.093
-0.023,-0.1,-0.077,0.062,0.027,-0.089,0.025,0.006,-0.04,0.068,0.051,-0.085
-0.056,-0.103,-0.048,0.08,-0.003,-0.075,0.024,-0.006,-0.044,0.056,0.038,-0.11
-0.123,-0.024,0.099,0.074,-0.111,0.037,0.224,0.276,0.088,0.102,0.053,-0.143
-0.057,-0.024,0.032,0.041,-0.045,0.004,0.552,0.999,0.28,0.158,0.064,-0.177
0.61,0.475,-0.135,-0.542,0.372,0.17,0.199,0.623,0.759,0.773,0.751,0.439
0.911,0.838,-0.073,-0.874,0.492,0.382,-0.501,-0.615,0.94,1.15,1.248,0.953
0.117,0.153,0.037,-0.135,0.04,0.095,-0.509,-0.994,0.104,0.307,0.366,0.231
-0.187,-0.168,0.019,0.177,-0.103,-0.074,-0.181,-0.514,-0.242,-0.088,-0.093,-0.196
-0.047,-0.078,-0.031,0.063,-0.008,-0.054,-0.033,-0.092,-0.04,0.065,0.059,-0.093
-0.078,-0.111,-0.033,0.095,-0.022,-0.072,0.012,-0.013,-0.049,0.051,0.033,-0.131
-0.022,-0.081,-0.059,0.052,0.019,-0.07,0.036,0.033,-0.008,0.088,0.068,-0.098
-0.018,-0.093,-0.075,0.055,0.029,-0.084,0.035,0.044,-0.023,0.067,0.047,-0.109
0.001,-0.081,-0.083,0.04,0.042,-0.082,0.028,0.051,-0.013,0.078,0.058,-0.094
0.001,-0.086,-0.087,0.043,0.044,-0.086,0.028,0.059,-0.01,0.075,0.055,-0.1
-0.001,-0.086,-0.085,0.044,0.042,-0.085,0.021,0.045,-0.014,0.072,0.052,-0.108
0.014,-0.078,-0.091,0.032,0.053,-0.084,0.02,0.057,0.0,0.075,0.054,-0.097
0.015,-0.074,-0.089,0.029,0.052,-0.081,0.016,0.069,0.006,0.06,0.045,-0.101
0.028,-0.063,-0.091,0.017,0.06,-0.076,0.011,0.08,0.031,0.076,0.06,-0.09
0.028,-0.058,-0.086,0.015,0.057,-0.072,0.009,0.078,0.042,0.083,0.058,-0.092
0.027,-0.052,-0.079,0.013,0.053,-0.066,0.004,0.08,0.047,0.09,0.069,-0.083
0.046,-0.026,-0.072,-0.01,0.059,-0.049,0.002,0.098,0.048,0.112,0.099,-0.071
0.068,0.003,-0.066,-0.035,0.067,-0.031,-0.004,0.104,0.052,0.117,0.109,-0.059
0.11,0.051,-0.059,-0.08,0.084,-0.004,-0.02,0.113,0.073,0.144,0.137,-0.016
0.118,0.063,-0.055,-0.09,0.087,0.004,-0.036,0.128,0.104,0.188,0.188,0.015
0.136,0.064,-0.072,-0.099,0.103,-0.004,-0.063,0.123,0.126,0.215,0.226,0.023
0.22,0.145,-0.075,-0.182,0.147,0.035,-0.077,0.127,0.138,0.243,0.261,0.05
0.232,0.155,-0.077,-0.193,0.154,0.039,-0.087,0.116,0.134,0.252,0.263,0.058
0.218,0.129,-0.089,-0.174,0.153,0.02,-0.092,0.071,0.129,0.238,0.247,0.043
0.211,0.12,-0.091,-0.165,0.151,0.014,-0.078,0.036,0.118,0.229,0.24,0.035
0.185,0.098,-0.087,-0.141,0.136,0.005,-0.067,0.024,0.086,0.21,0.219,0.015
0.162,0.076,-0.086,-0.118,0.124,-0.005,-0.048,0.025,0.055,0.167,0.174,-0.032
0.119,0.035,-0.084,-0.076,0.101,-0.024,-0.027,0.029,0.036,0.117,0.125,-0.085
0.059,-0.027,-0.085,-0.015,0.072,-0.056,-0.011,0.03,0.035,0.08,0.09,-0.128
0.01,-0.092,-0.103,0.041,0.057,-0.097,0.003,0.03,0.035,0.07,0.062,-0.148
-0.017,-0.096,-0.079,0.056,0.032,-0.087,0.017,0.03,0.035,0.065,0.045,-0.159
-0.032,-0.093,-0.061,0.063,0.015,-0.077,0.03,0.03,0.035,0.057,0.029,-0.181
-0.022,-0.091,-0.07,0.057,0.024,-0.08,0.03,0.03,0.035,0.051,0.019,-0.188
-0.013,-0.088,-0.075,0.051,0.031,-0.081,0.03,0.03,0.042,0.046,0.021,-0.184
-0.012,-0.113,-0.1,0.063,0.044,-0.106,0.03,0.03,0.052,0.049,0.018,-0.178
-0.016,-0.106,-0.09,0.061,0.037,-0.098,0.029,0.03,0.058,0.051,0.015,-0.174
-0.015,-0.101,-0.086,0.058,0.036,-0.093,0.032,0.041,0.058,0.049,0.014,-0.17
-0.002,-0.077,-0.075,0.04,0.037,-0.076,0.037,0.047,0.07,0.053,0.018,-0.165
-0.014,-0.082,-0.068,0.048,0.028,-0.075,0.036,0.044,0.072,0.058,0.027,-0.168
-0.008,-0.123,-0.115,0.065,0.054,-0.119,0.032,0.046,0.112,0.056,0.03,-0.171
0.014,-0.105,-0.119,0.046,0.067,-0.112,0.03,0.045,0.212,0.054,0.03,-0.17
0.009,-0.1,-0.109,0.046,0.06,-0.105,0.026,0.044,0.266,0.055,0.03,-0.17
0.007,-0.101,-0.109,0.047,0.058,-0.105,0.025,0.056,0.281,0.055,0.03,-0.17
0.004,-0.098,-0.102,0.048,0.053,-0.1,0.025,0.058,0.297,0.055,0.029,-0.17
0.002,-0.097,-0.099,0.048,0.051,-0.098,0.025,0.048,0.306,0.057,0.033,-0.17
0.0,-0.093,-0.093,0.047,0.047,-0.093,0.025,0.043,0.305,0.06,0.035,-0.166
-0.01,-0.096,-0.087,0.053,0.039,-0.091,0.025,0.036,0.303,0.06,0.035,-0.165
-0.003,-0.084,-0.081,0.044,0.039,-0.082,0.025,0.03,0.299,0.06,0.035,-0.164
-0.002,-0.114,-0.112,0.058,0.055,-0.112,0.024,0.026,0.301,0.06,0.035,-0.167
-0.004,-0.135,-0.131,0.07,0.064,-0.133,0.019,0.024,0.304,0.061,0.036,-0.17
-0.014,-0.111,-0.097,0.063,0.042,-0.104,0.02,0.026,0.305,0.064,0.034,-0.163
-0.004,-0.074,-0.07,0.039,0.033,-0.072,0.021,0.024,0.302,0.065,0.036,-0.16
0.031,-0.066,-0.098,0.018,0.065,-0.082,0.018,0.031,0.296,0.064,0.033,-0.152
0.025,-0.09,-0.115,0.033,0.07,-0.102,0.049,0.056,0.328,0.066,0.039,-0.149
0.036,-0.061,-0.098,0.013,0.067,-0.079,0.066,0.082,0.346,0.072,0.053,-0.138
0.062,-0.028,-0.091,-0.017,0.076,-0.059,0.048,0.107,0.359,0.097,0.074,-0.118
0.111,0.022,-0.088,-0.066,0.099,-0.033,0.015,0.099,0.375,0.121,0.1,-0.114
0.099,-0.004,-0.103,-0.048,0.101,-0.053,-0.008,0.077,0.352,0.091,0.071,-0.116
0.048,-0.083,-0.131,0.018,0.09,-0.107,-0.001,0.061,0.326,0.067,0.05,-0.126
0.049,-0.078,-0.127,0.015,0.089,-0.103,0.0,0.045,0.309,0.072,0.062,-0.134
-0.017,-0.126,-0.109,0.072,0.046,-0.117,0.005,0.036,0.287,0.052,0.041,-0.17
-0.052,-0.145,-0.093,0.099,0.021,-0.119,0.009,0.022,0.277,0.04,0.029,-0.187
-0.047,-0.13,-0.084,0.089,0.019,-0.107,0.009,0.02,0.281,0.027,0.015,-0.182
-0.009,-0.103,-0.094,0.057,0.043,-0.099,0.004,0.009,0.286,0.031,0.014,-0.181
0.0,-0.097,-0.098,0.049,0.049,-0.097,0.001,0.022,0.286,0.031,0.019,-0.174
-0.044,-0.142,-0.098,0.093,0.027,-0.119,0.02,0.007,0.281,0.026,0.008,-0.178
-0.009,-0.108,-0.099,0.058,0.046,-0.103,0.036,0.025,0.291,0.037,0.025,-0.166
-0.029,-0.076,-0.047,0.052,0.01,-0.061,0.019,0.004,0.277,0.021,0.001,-0.171
-0.091,-0.035,0.056,0.063,-0.073,0.011,0.204,0.276,0.398,0.085,0.012,-0.188
-0.049,-0.022,0.027,0.035,-0.038,0.003,0.549,1.007,0.589,0.144,0.036,-0.22
0.621,0.47,-0.151,-0.545,0.386,0.16,0.192,0.663,1.033,0.706,0.683,0.372
0.987,0.878,-0.108,-0.932,0.547,0.385,-0.539,-0.62,1.235,1.118,1.223,0.92
0.158,0.238,0.08,-0.198,0.038,0.159,-0.541,-1.032,0.449,0.333,0.392,0.234
-0.162,-0.155,0.007,0.159,-0.084,-0.074,-0.19,-0.518,0.082,-0.103,-0.119,-0.227
-0.001,-0.068,-0.066,0.035,0.033,-0.067,-0.039,-0.09,0.279,0.034,0.018,-0.128
-0.068,-0.097,-0.029,0.083,-0.019,-0.063,0.0,-0.014,0.257,0.02,-0.003,-0.16
-0.023,-0.07,-0.047,0.047,0.012,-0.059,0.015,0.025,0.288,0.052,0.033,-0.136
-0.032,-0.085,-0.053,0.059,0.011,-0.069,0.014,0.034,0.281,0.033,0.013,-0.147
-0.008,-0.069,-0.062,0.039,0.027,-0.065,0.008,0.027,0.285,0.043,0.022,-0.138
0.012,-0.058,-0.07,0.023,0.042,-0.064,0.011,0.034,0.287,0.04,0.021,-0.139
0.02,-0.071,-0.091,0.026,0.056,-0.081,0.005,0.049,0.281,0.038,0.017,-0.138
0.041,-0.052,-0.092,0.006,0.067,-0.072,0.005,0.061,0.289,0.048,0.029,-0.126
0.008,-0.068,-0.076,0.031,0.042,-0.072,0.005,0.061,0.281,0.042,0.021,-0.126
0.002,-0.066,-0.068,0.032,0.035,-0.067,-0.001,0.067,0.291,0.048,0.03,-0.113
0.016,-0.045,-0.061,0.015,0.039,-0.053,-0.007,0.075,0.294,0.055,0.045,-0.111
0.019,-0.031,-0.05,0.007,0.035,-0.04,-0.015,0.079,0.317,0.068,0.058,-0.099
0.036,-0.012,-0.047,-0.012,0.042,-0.029,-0.02,0.084,0.332,0.07,0.064,-0.091
0.066,0.001,-0.064,-0.033,0.065,-0.031,-0.029,0.096,0.334,0.086,0.083,-0.078
0.095,0.024,-0.071,-0.059,0.083,-0.023,-0.028,0.106,0.341,0.108,0.104,-0.055
0.145,0.056,-0.089,-0.1,0.117,-0.017,-0.037,0.119,0.362,0.136,0.145,-0.016
0.182,0.106,-0.076,-0.143,0.128,0.015,-0.056,0.111,0.378,0.173,0.185,0.027
0.174,0.095,-0.079,-0.134,0.126,0.008,-0.08,0.101,0.383,0.202,0.218,0.058
0.201,0.095,-0.106,-0.148,0.153,-0.005,-0.099,0.094,0.397,0.226,0.252,0.089
0.242,0.165,-0.077,-0.203,0.159,0.044,-0.094,0.083,0.388,0.228,0.251,0.089
0.222,0.166,-0.056,-0.194,0.139,0.055,-0.091,0.055,0.374,0.207,0.219,0.073
0.189,0.14,-0.049,-0.164,0.118,0.045,-0.079,0.029,0.365,0.177,0.181,0.058
0.124,0.088,-0.036,-0.106,0.08,0.026,-0.046,0.031,0.33,0.131,0.136,0.011
0.064,0.035,-0.03,-0.049,0.047,0.002,-0.023,0.029,0.301,0.089,0.09,-0.04
0.043,0.02,-0.023,-0.031,0.033,-0.001,-0.002,0.026,0.286,0.055,0.058,-0.088
0.005,-0.01,-0.015,0.003,0.01,-0.012,0.017,0.025,0.27,0.024,0.024,-0.111
-0.015,-0.05,-0.036,0.033,0.011,-0.043,0.029,0.025,0.264,0.01,-0.012,-0.125
-0.017,-0.078,-0.061,0.048,0.023,-0.069,0.03,0.025,0.265,0.009,-0.015,-0.136
-0.018,-0.073,-0.055,0.045,0.019,-0.063,0.03,0.025,0.265,0.005,-0.008,-0.126
-0.03,-0.079,-0.049,0.055,0.01,-0.064,0.038,0.025,0.265,0.002,-0.005,-0.123
-0.051,-0.095,-0.044,0.073,-0.003,-0.069,0.038,0.025,0.264,-0.001,0.0,-0.116
-0.05,-0.088,-0.038,0.07,-0.006,-0.063,0.03,0.033,0.269,0.002,0.004,-0.111
-0.047,-0.082,-0.035,0.065,-0.006,-0.059,0.026,0.036,0.27,0.006,0.002,-0.113
-0.046,-0.08,-0.034,0.063,-0.006,-0.056,0.019,0.035,0.27,0.009,-0.001,-0.115
-0.044,-0.08,-0.036,0.062,-0.004,-0.057,0.015,0.033,0.275,0.013,0.001,-0.127
-0.047,-0.08,-0.033,0.064,-0.007,-0.056,0.026,0.029,0.275,0.016,-0.001,-0.129
-0.036,-0.079,-0.043,0.058,0.004,-0.061,0.032,0.03,0.275,0.019,0.001,-0.123
-0.019,-0.076,-0.057,0.048,0.019,-0.067,0.026,0.03,0.275,0.021,0.007,-0.12
-0.02,-0.073,-0.053,0.047,0.017,-0.063,0.024,0.03,0.275,0.019,0.013,-0.115
-0.02,-0.07,-0.05,0.045,0.015,-0.06,0.02,0.03,0.275,0.021,0.019,-0.112
-0.018,-0.068,-0.05,0.043,0.016,-0.058,0.015,0.029,0.274,0.019,0.017,-0.109
-0.014,-0.064,-0.05,0.039,0.019,-0.057,0.019,0.031,0.276,0.022,0.014,-0.104
-0.016,-0.065,-0.05,0.041,0.018,-0.057,0.02,0.028,0.27,0.034,0.011,-0.101
-0.015,-0.065,-0.05,0.04,0.018,-0.057,0.021,0.025,0.267,0.03,0.008,-0.101
0.0,-0.065,-0.065,0.033,0.033,-0.065,0.018,0.024,0.261,0.021,0.005,-0.107
0.003,-0.065,-0.069,0.031,0.036,-0.067,0.016,0.025,0.257,0.016,0.005,-0.103
0.004,-0.056,-0.06,0.026,0.032,-0.057,0.013,0.026,0.253,0.008,0.013,-0.108
0.014,-0.044,-0.058,0.015,0.036,-0.05,0.022,0.023,0.247,0.005,0.018,-0.118
0.017,-0.031,-0.048,0.007,0.033,-0.039,0.047,0.044,0.272,0.023,0.027,-0.111
0.019,-0.028,-0.047,0.005,0.033,-0.038,0.051,0.056,0.274,0.038,0.03,-0.098
0.077,0.009,-0.068,-0.042,0.072,-0.029,0.038,0.07,0.291,0.062,0.051,-0.092
0.126,0.047,-0.079,-0.086,0.103,-0.016,0.011,0.071,0.313,0.079,0.092,-0.097
0.085,0.017,-0.067,-0.051,0.076,-0.025,0.003,0.051,0.286,0.054,0.074,-0.102
0.054,-0.023,-0.076,-0.016,0.066,-0.049,0.006,0.041,0.267,0.026,0.038,-0.116
0.063,-0.039,-0.102,-0.012,0.082,-0.07,0.005,0.003,0.249,0.011,0.026,-0.128
0.025,-0.069,-0.095,0.022,0.06,-0.082,0.011,-0.031,0.225,0.0,-0.001,-0.15
-0.031,-0.116,-0.085,0.074,0.028,-0.101,0.009,-0.035,0.222,0.0,-0.012,-0.156
-0.045,-0.129,-0.084,0.088,0.02,-0.106,0.013,-0.021,0.216,-0.008,-0.025,-0.151
-0.045,-0.11,-0.066,0.078,0.011,-0.088,0.014,-0.027,0.215,-0.011,-0.029,-0.15
-0.033,-0.096,-0.064,0.065,0.016,-0.08,0.017,-0.007,0.213,-0.013,-0.02,-0.144
-0.045,-0.093,-0.047,0.069,0.001,-0.07,0.019,-0.019,0.206,-0.013,-0.023,-0.148
-0.077,-0.122,-0.045,0.1,-0.015,-0.084,0.022,-0.011,0.22,0.007,-0.003,-0.145
-0.095,-0.123,-0.027,0.109,-0.034,-0.075,0.027,-0.019,0.215,-0.006,-0.016,-0.15
-0.158,-0.064,0.094,0.11,-0.126,0.015,0.215,0.242,0.328,0.035,-0.007,-0.173
-0.122,-0.063,0.059,0.092,-0.09,-0.002,0.544,0.963,0.505,0.079,0.001,-0.218
0.557,0.43,-0.127,-0.493,0.342,0.151,0.204,0.687,0.955,0.639,0.645,0.375
0.91,0.866,-0.044,-0.888,0.477,0.41,-0.484,-0.573,1.179,1.078,1.201,0.936
0.107,0.263,0.155,-0.185,-0.024,0.209,-0.499,-1.036,0.411,0.318,0.388,0.266
-0.237,-0.165,0.072,0.201,-0.154,-0.047,-0.199,-0.563,0.013,-0.138,-0.133,-0.218
-0.062,-0.072,-0.011,0.067,-0.025,-0.041,-0.044,-0.126,0.209,-0.007,0.001,-0.128
-0.07,-0.07,0.001,0.07,-0.035,-0.034,0.002,-0.03,0.2,-0.019,-0.013,-0.143
-0.04,-0.062,-0.022,0.052,-0.009,-0.042,0.024,0.002,0.223,0.01,0.016,-0.122
-0.071,-0.077,-0.006,0.074,-0.032,-0.041,0.04,0.017,0.229,-0.001,-0.001,-0.133
-0.039,-0.075,-0.036,0.057,-0.001,-0.055,0.03,0.018,0.229,0.011,0.007,-0.123
-0.023,-0.072,-0.049,0.048,0.013,-0.06,0.031,0.023,0.232,0.014,0.006,-0.125
-0.053,-0.091,-0.038,0.072,-0.007,-0.064,0.025,0.04,0.227,0.013,0.009,-0.124
-0.039,-0.081,-0.042,0.06,0.002,-0.062,0.02,0.047,0.233,0.017,0.023,-0.117
-0.038,-0.071,-0.033,0.055,-0.002,-0.052,0.022,0.043,0.229,0.013,0.023,-0.123
-0.033,-0.069,-0.036,0.051,0.002,-0.052,0.025,0.046,0.241,0.017,0.035,-0.117
-0.03,-0.06,-0.03,0.045,0.0,-0.045,0.02,0.046,0.244,0.014,0.034,-0.122
-0.031,-0.058,-0.027,0.045,-0.002,-0.043,0.015,0.06,0.244,0.027,0.034,-0.107
-0.014,-0.04,-0.026,0.027,0.007,-0.033,0.01,0.068,0.249,0.034,0.038,-0.092
0.016,0.001,-0.015,-0.009,0.016,-0.006,0.004,0.083,0.263,0.044,0.06,-0.072
0.059,0.006,-0.054,-0.032,0.056,-0.024,-0.003,0.098,0.283,0.075,0.092,-0.046
0.123,0.036,-0.086,-0.079,0.104,-0.025,-0.023,0.098,0.298,0.102,0.121,-0.014
0.195,0.126,-0.069,-0.16,0.132,0.028,-0.059,0.092,0.311,0.131,0.161,0.024
0.224,0.16,-0.064,-0.192,0.144,0.047,-0.078,0.087,0.326,0.168,0.2,0.057
0.212,0.15,-0.062,-0.181,0.137,0.044,-0.088,0.074,0.323,0.167,0.203,0.083
0.224,0.152,-0.073,-0.188,0.149,0.039,-0.094,0.042,0.321,0.152,0.214,0.082
0.211,0.139,-0.072,-0.174,0.141,0.033,-0.082,0.015,0.318,0.144,0.199,0.066
0.154,0.111,-0.042,-0.132,0.098,0.034,-0.071,-0.006,0.286,0.116,0.15,0.046
0.064,0.065,0.0,-0.065,0.032,0.032,-0.053,-0.013,0.251,0.079,0.107,0.004
0.005,0.023,0.018,-0.014,-0.007,0.02,-0.026,-0.009,0.224,0.051,0.063,-0.05
-0.007,-0.004,0.003,0.006,-0.005,-0.001,-0.004,-0.004,0.211,0.017,0.029,-0.083
-0.046,-0.05,-0.005,0.048,-0.02,-0.027,0.008,0.001,0.208,-0.016,-0.015,-0.12
-0.02,-0.053,-0.034,0.037,0.007,-0.043,0.016,0.004,0.202,-0.034,-0.033,-0.144
0.014,-0.04,-0.053,0.013,0.034,-0.046,0.029,0.011,0.197,-0.044,-0.028,-0.138
-0.039,-0.087,-0.048,0.063,0.005,-0.067,0.04,0.006,0.191,-0.038,-0.033,-0.142
-0.068,-0.119,-0.051,0.093,-0.008,-0.085,0.041,0.006,0.186,-0.03,-0.026,-0.137
-0.044,-0.093,-0.05,0.068,0.003,-0.071,0.039,0.004,0.184,-0.026,-0.048,-0.148
-0.03,-0.08,-0.05,0.055,0.01,-0.065,0.041,0.008,0.181,-0.015,-0.052,-0.148
-0.044,-0.097,-0.053,0.071,0.005,-0.075,0.039,0.035,0.179,-0.023,-0.025,-0.125
-0.037,-0.094,-0.057,0.066,0.01,-0.075,0.041,0.038,0.174,-0.04,-0.025,-0.125
-0.018,-0.077,-0.06,0.047,0.021,-0.068,0.044,0.028,0.178,-0.04,-0.025,-0.125
-0.013,-0.077,-0.064,0.046,0.026,-0.071,0.045,0.024,0.186,-0.043,-0.024,-0.124
-0.001,-0.064,-0.064,0.033,0.032,-0.064,0.045,0.015,0.176,-0.046,-0.026,-0.126
-0.01,-0.07,-0.06,0.04,0.026,-0.064,0.045,0.01,0.172,-0.042,-0.033,-0.124
-0.046,-0.101,-0.055,0.074,0.005,-0.078,0.045,0.02,0.163,-0.04,-0.036,-0.121
-0.02,-0.069,-0.049,0.045,0.015,-0.059,0.043,0.028,0.158,-0.04,-0.034,-0.118
-0.021,-0.052,-0.031,0.037,0.005,-0.041,0.038,0.022,0.152,-0.037,-0.036,-0.115
-0.063,-0.088,-0.025,0.076,-0.019,-0.057,0.035,0.018,0.149,-0.034,-0.035,-0.113
-0.06,-0.115,-0.054,0.088,-0.003,-0.084,0.032,0.014,0.152,-0.035,-0.035,-0.11
-0.062,-0.124,-0.062,0.093,0.001,-0.093,0.026,0.008,0.139,-0.03,-0.031,-0.108
-0.05,-0.106,-0.055,0.078,0.003,-0.08,0.026,0.005,0.155,-0.027,-0.027,-0.105
-0.052,-0.106,-0.054,0.079,0.002,-0.08,0.019,-0.001,0.09,-0.023,-0.024,-0.106
-0.028,-0.1,-0.072,0.064,0.023,-0.086,0.026,0.007,-0.027,-0.02,-0.019,-0.12
0.01,-0.072,-0.082,0.031,0.046,-0.076,0.055,0.027,-0.06,-0.016,-0.017,-0.113
0.024,-0.038,-0.063,0.007,0.044,-0.05,0.059,0.048,-0.08,-0.009,-0.007,-0.098
0.085,0.024,-0.061,-0.054,0.073,-0.018,0.034,0.059,-0.09,0.019,0.027,-0.071
0.087,0.028,-0.059,-0.057,0.073,-0.016,0.007,0.045,-0.089,0.047,0.05,-0.041
0.029,-0.032,-0.061,0.002,0.045,-0.046,0.004,0.035,-0.098,0.014,0.02,-0.063
0.01,-0.062,-0.072,0.026,0.041,-0.067,0.008,0.007,-0.126,-0.013,-0.013,-0.071
0.006,-0.072,-0.077,0.033,0.042,-0.074,0.01,-0.018,-0.157,-0.035,-0.033,-0.087
-0.037,-0.101,-0.064,0.069,0.014,-0.083,0.014,-0.032,-0.167,-0.068,-0.05,-0.127
-0.093,-0.147,-0.054,0.12,-0.019,-0.1,0.015,-0.031,-0.163,-0.062,-0.04,-0.122
-0.096,-0.142,-0.047,0.119,-0.024,-0.094,0.019,-0.026,-0.165,-0.073,-0.044,-0.129
-0.082,-0.106,-0.024,0.094,-0.029,-0.064,0.025,-0.031,-0.156,-0.068,-0.031,-0.127
-0.102,-0.162,-0.059,0.132,-0.021,-0.11,0.031,-0.014,-0.165,-0.078,-0.044,-0.132
-0.103,-0.157,-0.054,0.13,-0.024,-0.105,0.028,-0.051,-0.168,-0.073,-0.055,-0.129
-0.104,-0.15,-0.045,0.127,-0.029,-0.097,0.031,-0.024,-0.158,-0.06,-0.054,-0.111
-0.14,-0.117,0.023,0.129,-0.081,-0.047,0.048,-0.018,-0.141,-0.052,-0.056,-0.114
-0.211,-0.087,0.124,0.149,-0.168,0.019,0.331,0.459,-0.013,-0.021,-0.075,-0.176
0.025,-0.025,-0.05,0.0,0.038,-0.037,0.516,1.056,0.236,0.148,0.087,-0.066
0.777,0.638,-0.14,-0.707,0.458,0.249,-0.046,0.333,0.788,0.885,0.945,0.712
0.646,0.671,0.026,-0.659,0.309,0.348,-0.495,-0.753,0.648,0.873,0.984,0.815
-0.182,-0.061,0.12,0.122,-0.151,0.029,-0.345,-0.903,-0.231,-0.044,-0.008,-0.012
-0.206,-0.161,0.046,0.183,-0.125,-0.057,-0.136,-0.418,-0.319,-0.16,-0.144,-0.178
-0.091,-0.103,-0.012,0.097,-0.039,-0.057,-0.018,-0.091,-0.163,-0.052,-0.03,-0.092
-0.112,-0.12,-0.007,0.116,-0.052,-0.063,0.021,-0.043,-0.179,-0.091,-0.073,-0.108
-0.059,-0.089,-0.03,0.074,-0.014,-0.059,0.051,0.0,-0.147,-0.056,-0.035,-0.084
-0.084,-0.102,-0.018,0.093,-0.033,-0.059,0.057,-0.02,-0.195,-0.078,-0.059,-0.104
-0.084,-0.122,-0.038,0.103,-0.023,-0.079,0.053,-0.01,-0.182,-0.056,-0.037,-0.088
-0.07,-0.125,-0.055,0.098,-0.007,-0.09,0.053,-0.005,-0.183,-0.064,-0.048,-0.1
-0.052,-0.099,-0.047,0.075,-0.002,-0.072,0.048,-0.003,-0.175,-0.055,-0.034,-0.09
-0.059,-0.111,-0.052,0.085,-0.004,-0.081,0.051,0.008,-0.169,-0.052,-0.029,-0.086
-0.074,-0.118,-0.044,0.097,-0.015,-0.081,0.05,0.007,-0.166,-0.051,-0.023,-0.081
-0.066,-0.11,-0.044,0.088,-0.011,-0.077,0.056,0.024,-0.156,-0.041,-0.014,-0.068
-0.055,-0.095,-0.041,0.075,-0.007,-0.068,0.054,0.037,-0.155,-0.034,-0.011,-0.056
-0.048,-0.085,-0.036,0.067,-0.006,-0.06,0.051,0.041,-0.142,-0.02,0.0,-0.041
-0.029,-0.066,-0.037,0.048,0.005,-0.051,0.048,0.047,-0.123,-0.003,0.019,-0.023
-0.027,-0.054,-0.027,0.041,0.001,-0.04,0.023,0.055,-0.108,0.023,0.048,-0.002
-0.019,-0.054,-0.036,0.037,0.009,-0.045,-0.004,0.057,-0.1,0.042,0.064,0.017
0.033,-0.029,-0.062,-0.002,0.048,-0.045,-0.016,0.068,-0.076,0.077,0.11,0.055
0.091,0.03,-0.06,-0.061,0.075,-0.015,-0.031,0.063,-0.07,0.105,0.146,0.088
0.137,0.08,-0.057,-0.108,0.097,0.011,-0.043,0.053,-0.071,0.125,0.172,0.124
0.162,0.088,-0.074,-0.125,0.118,0.007,-0.047,0.039,-0.069,0.151,0.196,0.15
0.152,0.092,-0.061,-0.122,0.107,0.015,-0.054,0.005,-0.071,0.145,0.183,0.135
0.11,0.075,-0.035,-0.092,0.073,0.02,-0.045,-0.017,-0.071,0.115,0.159,0.119
0.068,0.036,-0.032,-0.052,0.05,0.002,-0.022,-0.034,-0.109,0.076,0.121,0.084
0.015,-0.013,-0.028,0.0,0.021,-0.02,-0.002,-0.042,-0.136,0.035,0.073,0.034
-0.031,-0.053,-0.022,0.042,-0.004,-0.037,0.029,-0.026,-0.14,-0.004,0.022,0.002
-0.054,-0.074,-0.02,0.064,-0.017,-0.046,0.056,-0.013,-0.151,-0.03,-0.023,-0.031
-0.089,-0.126,-0.037,0.108,-0.026,-0.081,0.073,-0.005,-0.15,-0.046,-0.045,-0.056
-0.106,-0.155,-0.048,0.131,-0.029,-0.101,0.081,-0.001,-0.156,-0.066,-0.054,-0.06
-0.106,-0.149,-0.043,0.128,-0.032,-0.095,0.079,0.001,-0.155,-0.074,-0.056,-0.06
-0.104,-0.151,-0.047,0.128,-0.029,-0.099,0.08,0.006,-0.15,-0.073,-0.053,-0.066
-0.096,-0.146,-0.05,0.121,-0.022,-0.098,0.08,0.009,-0.15,-0.069,-0.052,-0.064
-0.103,-0.144,-0.041,0.124,-0.03,-0.092,0.08,0.013,-0.143,-0.06,-0.049,-0.061
-0.144,-0.141,0.003,0.142,-0.074,-0.068,0.076,0.018,-0.151,-0.055,-0.052,-0.058
-0.161,-0.139,0.023,0.15,-0.092,-0.057,0.075,0.025,-0.16,-0.047,-0.071,-0.055
-0.109,-0.136,-0.027,0.123,-0.041,-0.081,0.075,0.029,-0.153,-0.041,-0.073,-0.054
-0.073,-0.125,-0.053,0.099,-0.01,-0.089,0.07,0.026,-0.149,-0.049,-0.064,-0.05
-0.075,-0.123,-0.048,0.099,-0.013,-0.086,0.07,0.023,-0.143,-0.056,-0.061,-0.05
-0.06,-0.111,-0.051,0.085,-0.004,-0.081,0.069,0.021,-0.137,-0.054,-0.055,-0.048
-0.068,-0.118,-0.049,0.093,-0.009,-0.083,0.065,0.017,-0.137,-0.055,-0.05,-0.045
-0.095,-0.146,-0.05,0.12,-0.022,-0.098,0.063,0.015,-0.142,-0.055,-0.05,-0.045
-0.082,-0.132,-0.05,0.107,-0.016,-0.091,0.06,0.013,-0.145,-0.055,-0.05,-0.049
-0.066,-0.116,-0.05,0.091,-0.008,-0.083,0.056,0.007,-0.145,-0.059,-0.05,-0.05
-0.077,-0.127,-0.05,0.102,-0.013,-0.089,0.055,0.003,-0.145,-0.06,-0.05,-0.05
-0.09,-0.139,-0.049,0.114,-0.02,-0.094,0.059,-0.002,-0.146,-0.06,-0.048,-0.054
-0.079,-0.13,-0.051,0.105,-0.014,-0.09,0.068,-0.005,-0.145,-0.06,-0.043,-0.056
-0.072,-0.121,-0.049,0.096,-0.012,-0.084,0.067,-0.011,-0.146,-0.06,-0.037,-0.054
-0.061,-0.108,-0.047,0.085,-0.007,-0.077,0.078,0.008,-0.141,-0.059,-0.035,-0.045
-0.042,-0.085,-0.043,0.064,0.001,-0.063,0.099,0.026,-0.127,-0.047,-0.027,-0.037
-0.028,-0.068,-0.041,0.048,0.007,-0.054,0.098,0.036,-0.113,-0.037,-0.027,-0.028
-0.02,-0.058,-0.038,0.04,0.009,-0.048,0.074,0.065,-0.104,-0.017,0.0,-0.02
-0.003,-0.036,-0.033,0.02,0.015,-0.034,0.046,0.046,-0.106,0.008,0.016,-0.012
0.018,-0.028,-0.045,0.005,0.032,-0.036,0.047,0.037,-0.095,-0.009,-0.017,-0.006
-0.013,-0.089,-0.076,0.051,0.032,-0.082,0.045,0.025,-0.118,-0.048,-0.029,-0.021
-0.045,-0.141,-0.095,0.093,0.025,-0.118,0.039,-0.018,-0.163,-0.08,-0.055,-0.053
-0.094,-0.114,-0.02,0.104,-0.037,-0.067,0.027,-0.039,-0.176,-0.1,-0.087,-0.081
-0.1,-0.125,-0.025,0.112,-0.037,-0.074,0.036,-0.055,-0.181,-0.105,-0.099,-0.086
-0.103,-0.185,-0.081,0.144,-0.011,-0.133,0.065,-0.059,-0.187,-0.113,-0.108,-0.094
-0.113,-0.139,-0.026,0.126,-0.043,-0.083,0.067,-0.055,-0.175,-0.099,-0.08,-0.086
-0.106,-0.146,-0.04,0.126,-0.033,-0.093,0.069,-0.043,-0.178,-0.105,-0.096,-0.089
-0.133,-0.158,-0.025,0.146,-0.054,-0.091,0.073,-0.053,-0.171,-0.094,-0.09,-0.083
-0.128,-0.161,-0.032,0.145,-0.048,-0.097,0.075,-0.026,-0.165,-0.093,-0.087,-0.085
-0.16,-0.136,0.024,0.148,-0.092,-0.056,0.086,-0.022,-0.146,-0.084,-0.092,-0.1
-0.237,-0.102,0.135,0.169,-0.186,0.016,0.387,0.484,0.02,-0.032,-0.09,-0.153
0.035,0.006,-0.028,-0.021,0.031,-0.011,0.562,1.033,0.293,0.142,0.072,-0.03
0.788,0.663,-0.125,-0.725,0.456,0.269,-0.035,0.216,0.809,0.864,0.915,0.746
0.619,0.65,0.031,-0.635,0.294,0.34,-0.515,-0.875,0.638,0.82,0.931,0.829
-0.177,-0.079,0.098,0.128,-0.137,0.009,-0.337,-0.918,-0.226,-0.087,-0.041,0.012
-0.204,-0.182,0.022,0.193,-0.113,-0.08,-0.083,-0.403,-0.29,-0.193,-0.175,-0.14
-0.127,-0.122,0.005,0.125,-0.066,-0.059,0.014,-0.105,-0.12,-0.085,-0.077,-0.076
-0.111,-0.117,-0.006,0.114,-0.052,-0.061,0.047,-0.054,-0.142,-0.094,-0.096,-0.103
-0.088,-0.102,-0.014,0.095,-0.037,-0.058,0.066,-0.015,-0.11,-0.061,-0.059,-0.073
-0.103,-0.11,-0.007,0.106,-0.047,-0.058,0.065,-0.015,-0.128,-0.083,-0.082,-0.089
-0.074,-0.095,-0.022,0.085,-0.026,-0.058,0.064,-0.003,-0.107,-0.061,-0.058,-0.068
-0.082,-0.101,-0.02,0.091,-0.03,-0.06,0.066,0.004,-0.113,-0.071,-0.067,-0.076
-0.063,-0.089,-0.025,0.076,-0.019,-0.057,0.064,0.01,-0.102,-0.061,-0.057,-0.067
-0.1,-0.117,-0.017,0.109,-0.042,-0.067,0.065,0.02,-0.092,-0.062,-0.062,-0.067
-0.098,-0.107,-0.009,0.103,-0.044,-0.057,0.057,0.027,-0.084,-0.057,-0.059,-0.064
-0.105,-0.106,-0.001,0.105,-0.051,-0.054,0.053,0.034,-0.07,-0.052,-0.053,-0.059
-0.079,-0.071,0.008,0.075,-0.043,-0.032,0.048,0.036,-0.066,-0.051,-0.053,-0.06
-0.062,-0.037,0.025,0.049,-0.043,-0.006,0.04,0.032,-0.055,-0.045,-0.046,-0.046
-0.077,-0.062,0.016,0.069,-0.046,-0.023,0.039,0.041,-0.046,-0.04,-0.028,-0.036
-0.008,-0.012,-0.005,0.01,-0.001,-0.008,0.02,0.042,-0.033,-0.013,-0.01,-0.022
0.027,0.042,0.014,-0.035,0.006,0.028,0.005,0.051,-0.019,0.016,0.022,-0.002
0.074,0.071,-0.003,-0.072,0.038,0.034,-0.002,0.08,0.006,0.042,0.066,0.037
0.099,0.065,-0.035,-0.082,0.067,0.015,-0.018,0.07,0.045,0.083,0.111,0.091
0.114,0.102,-0.012,-0.108,0.063,0.045,-0.041,0.053,0.054,0.105,0.143,0.121
0.142,0.131,-0.011,-0.136,0.077,0.059,-0.07,0.026,0.042,0.092,0.138,0.129
0.155,0.107,-0.048,-0.131,0.101,0.029,-0.06,-0.008,0.029,0.087,0.147,0.124
0.136,0.12,-0.015,-0.128,0.075,0.052,-0.049,-0.031,-0.004,0.07,0.115,0.096
0.073,0.098,0.025,-0.086,0.024,0.061,-0.04,-0.043,-0.028,0.031,0.058,0.052
0.056,0.087,0.032,-0.072,0.012,0.059,-0.005,-0.038,-0.048,-0.011,0.012,0.006
-0.003,0.023,0.026,-0.01,-0.015,0.025,0.031,-0.037,-0.064,-0.046,-0.036,-0.031
-0.064,-0.07,-0.006,0.068,-0.029,-0.038,0.064,-0.033,-0.067,-0.065,-0.063,-0.059
-0.091,-0.098,-0.006,0.095,-0.042,-0.051,0.077,-0.03,-0.072,-0.082,-0.095,-0.083
-0.103,-0.102,0.001,0.102,-0.052,-0.05,0.072,-0.03,-0.074,-0.092,-0.111,-0.106
-0.094,-0.097,-0.003,0.095,-0.045,-0.05,0.07,-0.03,-0.083,-0.103,-0.115,-0.112
-0.115,-0.088,0.028,0.101,-0.071,-0.03,0.066,-0.035,-0.096,-0.112,-0.122,-0.124
-0.1,-0.077,0.023,0.088,-0.061,-0.027,0.064,-0.034,-0.095,-0.108,-0.118,-0.13
-0.082,-0.109,-0.026,0.096,-0.028,-0.067,0.07,-0.03,-0.091,-0.105,-0.116,-0.121
-0.1,-0.103,-0.003,0.102,-0.049,-0.053,0.072,-0.027,-0.089,-0.102,-0.112,-0.118
-0.097,-0.084,0.013,0.09,-0.054,-0.035,0.069,-0.022,-0.085,-0.097,-0.11,-0.111
-0.086,-0.081,0.005,0.083,-0.045,-0.037,0.066,-0.019,-0.085,-0.095,-0.108,-0.106
-0.091,-0.06,0.031,0.075,-0.06,-0.014,0.063,-0.016,-0.09,-0.1,-0.105,-0.101
-0.114,-0.079,0.035,0.096,-0.074,-0.022,0.06,-0.014,-0.09,-0.1,-0.101,-0.1
-0.107,-0.077,0.03,0.092,-0.069,-0.023,0.058,-0.015,-0.09,-0.101,-0.1,-0.1
-0.091,-0.063,0.028,0.076,-0.059,-0.017,0.055,-0.015,-0.09,-0.105,-0.095,-0.095
-0.087,-0.064,0.023,0.075,-0.055,-0.02,0.055,-0.015,-0.09,-0.105,-0.097,-0.095
-0.076,-0.056,0.02,0.066,-0.048,-0.018,0.055,-0.019,-0.088,-0.107,-0.11,-0.095
-0.083,-0.057,0.026,0.07,-0.054,-0.015,0.054,-0.03,-0.085,-0.111,-0.11,-0.094
-0.079,-0.047,0.031,0.063,-0.055,-0.008,0.056,-0.044,-0.085,-0.114,-0.11,-0.096
-0.076,-0.062,0.014,0.069,-0.045,-0.024,0.054,-0.033,-0.085,-0.118,-0.109,-0.093
-0.077,-0.069,0.008,0.073,-0.042,-0.031,0.056,-0.036,-0.085,-0.12,-0.115,-0.103
-0.045,-0.061,-0.016,0.053,-0.014,-0.038,0.054,-0.051,-0.085,-0.113,-0.127,-0.113
-0.007,-0.057,-0.049,0.032,0.021,-0.053,0.058,-0.027,-0.068,-0.102,-0.121,-0.103
-0.032,-0.052,-0.02,0.042,-0.006,-0.035,0.075,-0.008,-0.039,-0.093,-0.11,-0.097
-0.037,-0.048,-0.012,0.043,-0.012,-0.03,0.077,0.019,-0.012,-0.079,-0.097,-0.096
0.035,0.026,-0.01,-0.03,0.023,0.008,0.073,0.037,0.027,-0.05,-0.09,-0.071
0.034,0.063,0.029,-0.049,0.003,0.045,0.048,0.016,0.048,-0.034,-0.086,-0.037
0.012,0.013,0.001,-0.012,0.005,0.007,0.025,0.011,0.025,-0.06,-0.08,-0.056
0.021,-0.026,-0.047,0.003,0.034,-0.036,0.024,-0.004,-0.012,-0.092,-0.087,-0.074
0.004,-0.047,-0.051,0.022,0.027,-0.049,0.018,-0.037,-0.034,-0.11,-0.105,-0.084
-0.037,-0.071,-0.034,0.054,-0.001,-0.052,0.017,-0.075,-0.053,-0.136,-0.14,-0.115
-0.079,-0.103,-0.024,0.091,-0.027,-0.063,0.009,-0.093,-0.054,-0.138,-0.144,-0.113
-0.093,-0.106,-0.013,0.1,-0.04,-0.059,0.016,-0.086,-0.057,-0.143,-0.147,-0.117
-0.082,-0.088,-0.005,0.085,-0.038,-0.047,0.042,-0.096,-0.053,-0.137,-0.143,-0.113
-0.093,-0.127,-0.034,0.11,-0.029,-0.081,0.047,-0.082,-0.056,-0.141,-0.146,-0.116
-0.103,-0.124,-0.021,0.114,-0.041,-0.073,0.045,-0.1,-0.056,-0.14,-0.146,-0.115
-0.093,-0.113,-0.02,0.103,-0.036,-0.066,0.053,-0.071,-0.047,-0.131,-0.137,-0.112
-0.092,-0.068,0.025,0.08,-0.058,-0.022,0.052,-0.071,-0.039,-0.13,-0.146,-0.125
-0.167,-0.013,0.154,0.09,-0.16,0.071,0.294,0.311,0.099,-0.074,-0.143,-0.156
-0.057,0.009,0.066,0.024,-0.061,0.037,0.572,0.967,0.294,0.021,-0.074,-0.133
0.709,0.6,-0.109,-0.654,0.409,0.245,0.066,0.377,0.79,0.675,0.697,0.572
0.8,0.818,0.018,-0.809,0.391,0.417,-0.565,-0.843,0.831,0.898,1.015,0.917
-0.042,0.123,0.165,-0.04,-0.104,0.143,-0.439,-1.046,-0.001,0.034,0.08,0.149
-0.223,-0.128,0.095,0.175,-0.159,-0.016,-0.141,-0.501,-0.216,-0.245,-0.244,-0.16
-0.113,-0.052,0.062,0.082,-0.087,0.005,-0.016,-0.14,-0.044,-0.114,-0.105,-0.071
-0.108,-0.069,0.039,0.089,-0.074,-0.015,0.029,-0.08,-0.059,-0.146,-0.149,-0.104
-0.074,-0.06,0.013,0.067,-0.043,-0.023,0.036,-0.039,-0.022,-0.111,-0.117,-0.08
-0.051,-0.044,0.006,0.047,-0.028,-0.019,0.033,-0.041,-0.038,-0.124,-0.134,-0.097
-0.052,-0.03,0.023,0.041,-0.037,-0.003,0.029,-0.04,-0.024,-0.104,-0.12,-0.086
-0.108,-0.047,0.061,0.077,-0.084,0.007,0.05,-0.03,-0.025,-0.105,-0.126,-0.09
-0.089,-0.048,0.041,0.068,-0.065,-0.004,0.051,-0.02,-0.021,-0.098,-0.119,-0.083
-0.089,-0.056,0.033,0.072,-0.061,-0.011,0.041,-0.006,-0.015,-0.091,-0.114,-0.074
-0.068,-0.044,0.025,0.056,-0.046,-0.009,0.037,-0.002,-0.014,-0.09,-0.112,-0.071
-0.046,-0.032,0.015,0.039,-0.03,-0.008,0.025,0.007,-0.007,-0.078,-0.098,-0.06
-0.061,-0.023,0.038,0.041,-0.049,0.008,0.024,0.012,-0.007,-0.079,-0.095,-0.058
-0.048,-0.003,0.045,0.025,-0.046,0.02,0.031,0.02,0.0,-0.069,-0.082,-0.048
-0.004,0.028,0.031,-0.012,-0.018,0.029,0.022,0.025,0.001,-0.066,-0.069,-0.043
0.007,0.028,0.022,-0.018,-0.008,0.024,0.009,0.032,0.035,-0.056,-0.041,-0.031
0.049,0.033,-0.016,-0.041,0.032,0.009,0.005,0.043,0.062,-0.021,-0.007,0.008
0.124,0.092,-0.032,-0.108,0.078,0.03,-0.016,0.037,0.067,0.019,0.025,0.053
0.148,0.126,-0.022,-0.137,0.084,0.052,-0.051,0.028,0.092,0.053,0.065,0.085
0.163,0.141,-0.022,-0.152,0.092,0.06,-0.066,0.02,0.113,0.079,0.107,0.116
0.166,0.154,-0.013,-0.16,0.089,0.07,-0.075,0.011,0.108,0.087,0.124,0.132
0.186,0.172,-0.014,-0.179,0.1,0.078,-0.077,0.001,0.097,0.076,0.115,0.123
0.151,0.16,0.009,-0.156,0.071,0.084,-0.067,-0.016,0.079,0.059,0.09,0.108
0.082,0.104,0.021,-0.093,0.03,0.062,-0.04,-0.029,0.057,0.033,0.051,0.084
0.046,0.067,0.022,-0.057,0.012,0.044,-0.007,-0.047,0.04,0.0,0.006,0.047
0.004,0.049,0.046,-0.027,-0.021,0.047,0.013,-0.044,0.024,-0.041,-0.045,0.001
-0.038,0.003,0.041,0.018,-0.039,0.021,0.039,-0.025,0.012,-0.071,-0.086,-0.034
-0.055,-0.02,0.036,0.037,-0.045,0.008,0.046,-0.025,0.006,-0.081,-0.104,-0.057
-0.073,-0.039,0.034,0.056,-0.053,-0.003,0.04,-0.025,-0.001,-0.104,-0.12,-0.079
-0.108,-0.08,0.028,0.094,-0.068,-0.026,0.062,-0.025,-0.008,-0.113,-0.13,-0.081
-0.108,-0.076,0.032,0.092,-0.07,-0.022,0.072,-0.026,-0.016,-0.107,-0.13,-0.079
-0.099,-0.071,0.028,0.085,-0.063,-0.021,0.069,-0.024,-0.022,-0.106,-0.13,-0.076
-0.099,-0.066,0.033,0.082,-0.066,-0.016,0.071,-0.02,-0.03,-0.102,-0.13,-0.075
-0.104,-0.06,0.044,0.082,-0.073,-0.008,0.07,-0.016,-0.035,-0.1,-0.13,-0.074
-0.095,-0.054,0.041,0.074,-0.067,-0.006,0.07,-0.013,-0.027,-0.098,-0.13,-0.069
-0.096,-0.065,0.031,0.08,-0.063,-0.017,0.065,-0.008,-0.019,-0.094,-0.127,-0.071
-0.083,-0.056,0.027,0.069,-0.055,-0.014,0.06,-0.005,-0.01,-0.095,-0.124,-0.067
-0.043,-0.026,0.018,0.034,-0.03,-0.004,0.056,-0.001,-0.006,-0.103,-0.121,-0.065
-0.069,-0.057,0.012,0.063,-0.04,-0.022,0.051,0.001,-0.015,-0.106,-0.119,-0.065
-0.07,-0.067,0.003,0.068,-0.036,-0.032,0.046,-0.001,-0.023,-0.105,-0.114,-0.065
-0.062,-0.064,-0.002,0.063,-0.029,-0.033,0.042,0.001,-0.032,-0.105,-0.116,-0.065
-0.055,-0.066,-0.011,0.061,-0.022,-0.038,0.04,0.005,-0.032,-0.105,-0.12,-0.065
-0.045,-0.066,-0.021,0.056,-0.012,-0.043,0.04,0.005,-0.029,-0.105,-0.12,-0.065
-0.085,-0.08,0.006,0.082,-0.045,-0.037,0.04,0.007,-0.031,-0.1,-0.12,-0.065
-0.07,-0.053,0.017,0.061,-0.043,-0.018,0.04,0.011,-0.029,-0.093,-0.12,-0.064
-0.09,-0.082,0.008,0.086,-0.048,-0.037,0.041,0.009,-0.031,-0.09,-0.121,-0.058
-0.074,-0.073,0.001,0.073,-0.037,-0.036,0.042,0.027,-0.028,-0.082,-0.112,-0.052
-0.017,-0.001,0.015,0.009,-0.016,0.007,0.063,0.052,-0.018,-0.079,-0.095,-0.047
-0.013,0.002,0.015,0.005,-0.014,0.009,0.084,0.068,0.005,-0.068,-0.066,-0.033
0.01,0.039,0.029,-0.025,-0.01,0.034,0.072,0.102,0.044,-0.031,-0.05,-0.001
0.005,0.056,0.05,-0.031,-0.023,0.053,0.035,0.097,0.044,-0.02,-0.049,0.02
0.015,0.029,0.014,-0.022,0.0,0.021,0.013,0.056,0.006,-0.049,-0.051,0.003
0.007,-0.028,-0.035,0.01,0.022,-0.031,0.016,0.023,-0.026,-0.088,-0.079,-0.019
-0.018,-0.069,-0.05,0.044,0.016,-0.059,0.014,0.006,-0.06,-0.111,-0.103,-0.034
-0.067,-0.086,-0.019,0.076,-0.024,-0.052,0.016,-0.007,-0.095,-0.121,-0.119,-0.052
-0.11,-0.118,-0.007,0.114,-0.051,-0.062,0.013,-0.018,-0.107,-0.122,-0.122,-0.057
-0.123,-0.128,-0.005,0.126,-0.059,-0.066,0.023,-0.013,-0.132,-0.124,-0.141,-0.063
-0.117,-0.119,-0.002,0.118,-0.057,-0.06,0.041,-0.02,-0.128,-0.117,-0.138,-0.057
-0.129,-0.116,0.014,0.122,-0.071,-0.051,0.038,-0.008,-0.125,-0.122,-0.137,-0.063
-0.113,-0.107,0.006,0.11,-0.059,-0.05,0.033,-0.025,-0.126,-0.12,-0.133,-0.057
-0.076,-0.104,-0.029,0.09,-0.023,-0.066,0.029,-0.003,-0.116,-0.118,-0.126,-0.061
-0.141,-0.071,0.07,0.106,-0.105,-0.001,0.05,-0.016,-0.119,-0.119,-0.129,-0.068
-0.202,-0.029,0.172,0.115,-0.186,0.071,0.308,0.391,0.015,-0.074,-0.138,-0.116
-0.042,0.0,0.042,0.021,-0.042,0.02,0.547,1.043,0.245,0.061,-0.042,-0.065
0.737,0.613,-0.124,-0.675,0.43,0.244,0.043,0.471,0.77,0.746,0.777,0.678
0.78,0.763,-0.017,-0.771,0.398,0.373,-0.496,-0.674,0.756,0.88,0.98,0.921
-0.149,0.012,0.161,0.068,-0.155,0.086,-0.365,-0.932,-0.117,-0.018,0.019,0.13
-0.248,-0.119,0.129,0.183,-0.188,0.005,-0.13,-0.452,-0.3,-0.229,-0.22,-0.135
-0.09,-0.031,0.059,0.06,-0.074,0.014,-0.013,-0.089,-0.126,-0.077,-0.097,-0.038
-0.127,-0.078,0.049,0.102,-0.087,-0.015,0.033,-0.048,-0.158,-0.117,-0.125,-0.039
-0.093,-0.056,0.036,0.074,-0.064,-0.01,0.049,-0.002,-0.124,-0.088,-0.086,-0.015
-0.103,-0.073,0.03,0.088,-0.066,-0.021,0.052,0.016,-0.139,-0.108,-0.111,-0.032
-0.077,-0.048,0.029,0.062,-0.053,-0.009,0.047,0.037,-0.12,-0.095,-0.092,-0.015
-0.082,-0.058,0.024,0.069,-0.053,-0.016,0.052,0.048,-0.123,-0.101,-0.101,-0.023
-0.063,-0.039,0.024,0.051,-0.043,-0.007,0.048,0.042,-0.118,-0.093,-0.093,-0.018
-0.056,-0.037,0.019,0.046,-0.037,-0.009,0.049,0.05,-0.129,-0.084,-0.095,-0.01
-0.072,-0.058,0.015,0.065,-0.043,-0.021,0.04,0.048,-0.137,-0.081,-0.086,-0.005
-0.091,-0.046,0.044,0.068,-0.067,-0.001,0.035,0.052,-0.117,-0.07,-0.067,0.004
-0.089,-0.035,0.054,0.061,-0.071,0.009,0.027,0.048,-0.113,-0.068,-0.06,0.008
-0.057,-0.017,0.04,0.037,-0.049,0.011,0.021,0.054,-0.103,-0.057,-0.041,0.022
-0.04,-0.007,0.033,0.023,-0.036,0.013,0.015,0.068,-0.099,-0.054,-0.036,0.03
-0.014,0.013,0.027,0.0,-0.021,0.02,0.008,0.075,-0.084,-0.024,-0.003,0.059
0.033,0.049,0.016,-0.041,0.009,0.032,-0.006,0.086,-0.066,0.008,0.027,0.089
0.067,0.092,0.025,-0.08,0.021,0.058,-0.046,0.085,-0.051,0.029,0.049,0.109
0.101,0.145,0.044,-0.123,0.028,0.095,-0.059,0.075,-0.042,0.074,0.109,0.156
0.145,0.152,0.007,-0.148,0.069,0.08,-0.069,0.068,-0.038,0.093,0.142,0.19
0.169,0.148,-0.02,-0.158,0.095,0.063,-0.085,0.061,-0.03,0.109,0.156,0.21
0.17,0.153,-0.017,-0.161,0.094,0.068,-0.071,0.042,-0.026,0.107,0.151,0.209
0.148,0.144,-0.004,-0.146,0.076,0.07,-0.064,0.018,-0.034,0.071,0.121,0.187
0.08,0.091,0.011,-0.085,0.034,0.051,-0.048,0.011,-0.078,0.04,0.091,0.158
0.014,0.028,0.015,-0.021,-0.001,0.022,-0.016,0.004,-0.113,0.0,0.038,0.113
0.004,0.03,0.027,-0.017,-0.012,0.028,0.014,0.003,-0.123,-0.043,-0.011,0.077
-0.031,-0.008,0.023,0.019,-0.027,0.007,0.037,0.009,-0.145,-0.078,-0.048,0.051
-0.063,-0.058,0.005,0.061,-0.034,-0.026,0.044,0.016,-0.153,-0.091,-0.067,0.037
-0.065,-0.07,-0.004,0.068,-0.03,-0.037,0.053,0.025,-0.154,-0.096,-0.08,0.029
-0.071,-0.098,-0.027,0.085,-0.022,-0.062,0.058,0.026,-0.156,-0.101,-0.088,0.021
-0.065,-0.101,-0.036,0.083,-0.014,-0.068,0.053,0.024,-0.157,-0.104,-0.093,0.013
-0.071,-0.096,-0.025,0.084,-0.023,-0.06,0.05,0.025,-0.161,-0.102,-0.096,0.006
-0.07,-0.095,-0.025,0.083,-0.022,-0.06,0.047,0.025,-0.159,-0.099,-0.094,0.012
-0.076,-0.09,-0.014,0.084,-0.031,-0.052,0.042,0.025,-0.157,-0.1,-0.096,0.021
-0.076,-0.09,-0.013,0.083,-0.031,-0.051,0.04,0.032,-0.153,-0.095,-0.093,0.03
-0.069,-0.084,-0.016,0.076,-0.026,-0.05,0.055,0.035,-0.146,-0.095,-0.081,0.038
-0.066,-0.078,-0.012,0.072,-0.027,-0.045,0.058,0.041,-0.137,-0.094,-0.065,0.04
-0.033,-0.07,-0.037,0.052,0.002,-0.053,0.047,0.046,-0.138,-0.088,-0.064,0.04
-0.032,-0.066,-0.033,0.049,0.001,-0.049,0.044,0.037,-0.14,-0.082,-0.065,0.039
-0.031,-0.055,-0.023,0.043,-0.004,-0.039,0.035,0.031,-0.142,-0.077,-0.066,0.041
-0.051,-0.067,-0.015,0.059,-0.018,-0.041,0.03,0.024,-0.146,-0.072,-0.069,0.039
-0.059,-0.073,-0.014,0.066,-0.022,-0.043,0.041,0.018,-0.144,-0.065,-0.071,0.042
-0.024,-0.062,-0.039,0.043,0.008,-0.05,0.04,0.013,-0.14,-0.074,-0.069,0.054
-0.016,-0.056,-0.041,0.036,0.013,-0.048,0.036,0.016,-0.136,-0.08,-0.062,0.056
0.0,-0.045,-0.045,0.023,0.022,-0.045,0.03,0.014,-0.133,-0.071,-0.053,0.054
-0.034,-0.078,-0.044,0.056,0.006,-0.061,0.037,0.016,-0.128,-0.064,-0.044,0.056
-0.043,-0.079,-0.036,0.061,-0.003,-0.057,0.063,0.042,-0.126,-0.059,-0.039,0.054
0.003,-0.025,-0.028,0.012,0.016,-0.026,0.066,0.056,-0.113,-0.042,-0.023,0.06
0.03,0.009,-0.02,-0.019,0.025,-0.005,0.043,0.065,-0.083,-0.02,0.002,0.101
0.05,0.039,-0.011,-0.044,0.031,0.013,0.012,0.058,-0.071,-0.001,0.021,0.12
0.046,0.024,-0.022,-0.035,0.034,0.001,0.008,0.053,-0.088,-0.015,0.012,0.106
0.036,-0.034,-0.07,-0.001,0.053,-0.051,0.014,0.025,-0.124,-0.051,-0.023,0.097
0.001,-0.088,-0.09,0.044,0.046,-0.089,0.014,-0.007,-0.144,-0.068,-0.039,0.088
-0.042,-0.126,-0.085,0.084,0.022,-0.105,0.02,-0.011,-0.16,-0.092,-0.055,0.069
-0.044,-0.12,-0.076,0.082,0.017,-0.098,0.019,-0.02,-0.159,-0.094,-0.054,0.061
-0.055,-0.132,-0.076,0.094,0.011,-0.104,0.018,-0.015,-0.155,-0.099,-0.057,0.056
-0.054,-0.117,-0.063,0.086,0.005,-0.09,0.012,-0.035,-0.163,-0.101,-0.066,0.063
-0.066,-0.133,-0.068,0.1,0.001,-0.1,0.018,-0.028,-0.169,-0.112,-0.082,0.059
-0.069,-0.117,-0.048,0.093,-0.01,-0.083,0.011,-0.046,-0.169,-0.105,-0.075,0.059
-0.064,-0.116,-0.052,0.09,-0.006,-0.084,0.021,-0.007,-0.155,-0.082,-0.055,0.065
-0.081,-0.114,-0.033,0.098,-0.024,-0.074,0.044,-0.014,-0.157,-0.078,-0.068,0.044
-0.149,-0.023,0.127,0.086,-0.138,0.052,0.262,0.341,-0.027,-0.031,-0.073,-0.004
-0.034,-0.015,0.018,0.024,-0.026,0.002,0.546,1.016,0.23,0.077,0.013,0.028
0.709,0.556,-0.152,-0.632,0.43,0.202,0.109,0.47,0.79,0.79,0.818,0.732
0.771,0.725,-0.046,-0.747,0.408,0.339,-0.479,-0.667,0.814,0.972,1.094,1.04
-0.054,-0.012,0.043,0.033,-0.048,0.015,-0.41,-0.931,-0.132,0.018,0.104,0.253
-0.184,-0.173,0.011,0.178,-0.097,-0.081,-0.16,-0.487,-0.36,-0.228,-0.18,-0.018
-0.045,-0.094,-0.049,0.07,0.003,-0.072,-0.036,-0.101,-0.141,-0.08,-0.034,0.092
-0.067,-0.117,-0.05,0.092,-0.008,-0.083,-0.002,-0.045,-0.184,-0.114,-0.082,0.059
-0.024,-0.067,-0.043,0.046,0.01,-0.055,0.018,-0.006,-0.147,-0.065,-0.036,0.081
-0.05,-0.086,-0.036,0.068,-0.007,-0.061,0.024,-0.001,-0.164,-0.084,-0.057,0.059
-0.066,-0.091,-0.025,0.079,-0.02,-0.058,0.018,0.009,-0.149,-0.062,-0.033,0.067
-0.03,-0.073,-0.043,0.052,0.007,-0.058,0.022,0.022,-0.15,-0.067,-0.036,0.057
-0.022,-0.071,-0.049,0.047,0.013,-0.06,0.015,0.027,-0.145,-0.06,-0.027,0.081
-0.036,-0.077,-0.041,0.057,0.003,-0.059,0.016,0.042,-0.129,-0.054,-0.015,0.087
-0.019,-0.052,-0.033,0.036,0.007,-0.042,0.014,0.037,-0.126,-0.053,-0.014,0.084
-0.015,-0.045,-0.03,0.031,0.008,-0.038,0.01,0.043,-0.11,-0.037,0.004,0.114
-0.03,-0.047,-0.017,0.039,-0.006,-0.032,0.005,0.043,-0.11,-0.033,0.006,0.114
-0.006,-0.054,-0.047,0.03,0.021,-0.05,0.002,0.047,-0.101,-0.017,0.023,0.121
0.018,-0.026,-0.044,0.004,0.031,-0.034,-0.003,0.042,-0.102,-0.013,0.028,0.118
0.014,0.028,0.014,-0.021,0.0,0.021,-0.016,0.052,-0.076,0.011,0.039,0.128
0.052,0.039,-0.012,-0.046,0.032,0.013,-0.027,0.074,-0.038,0.047,0.092,0.174
0.08,0.06,-0.02,-0.07,0.05,0.02,-0.05,0.068,-0.024,0.066,0.122,0.201
0.115,0.088,-0.027,-0.101,0.071,0.03,-0.078,0.06,-0.01,0.1,0.159,0.24
0.171,0.118,-0.053,-0.144,0.112,0.032,-0.091,0.055,0.002,0.13,0.204,0.281
0.169,0.128,-0.041,-0.148,0.105,0.043,-0.112,0.039,0.006,0.137,0.198,0.286
0.152,0.115,-0.037,-0.134,0.094,0.039,-0.116,0.023,0.005,0.132,0.194,0.273
0.135,0.106,-0.029,-0.121,0.082,0.039,-0.105,0.01,-0.016,0.107,0.182,0.258
0.107,0.102,-0.005,-0.104,0.056,0.048,-0.086,0.0,-0.067,0.065,0.133,0.234
0.06,0.064,0.004,-0.062,0.028,0.034,-0.046,-0.008,-0.084,0.014,0.076,0.182
0.01,0.0,-0.01,-0.005,0.01,-0.005,-0.022,-0.005,-0.093,-0.038,0.035,0.14
-0.016,-0.032,-0.016,0.025,0.0,-0.024,-0.01,-0.002,-0.128,-0.075,-0.004,0.11
-0.036,-0.075,-0.039,0.056,0.002,-0.057,0.0,0.003,-0.131,-0.088,-0.043,0.082
-0.053,-0.102,-0.048,0.078,-0.003,-0.075,0.01,0.006,-0.129,-0.096,-0.061,0.067
-0.061,-0.098,-0.038,0.079,-0.011,-0.068,0.018,0.009,-0.135,-0.098,-0.069,0.053
-0.051,-0.092,-0.041,0.071,-0.004,-0.066,0.015,0.014,-0.135,-0.094,-0.069,0.045
-0.062,-0.095,-0.033,0.079,-0.014,-0.063,0.015,0.016,-0.134,-0.095,-0.064,0.045
-0.045,-0.08,-0.035,0.063,-0.005,-0.057,0.015,0.028,-0.127,-0.095,-0.065,0.045
-0.051,-0.095,-0.044,0.074,-0.003,-0.069,0.015,0.039,-0.121,-0.095,-0.06,0.045
-0.061,-0.098,-0.037,0.08,-0.012,-0.067,0.015,0.04,-0.114,-0.096,-0.06,0.045
-0.009,-0.037,-0.028,0.023,0.01,-0.033,0.019,0.045,-0.107,-0.097,-0.069,0.044
-0.038,-0.068,-0.031,0.053,-0.003,-0.049,0.029,0.044,-0.102,-0.095,-0.07,0.047
-0.073,-0.118,-0.045,0.096,-0.014,-0.082,0.034,0.037,-0.102,-0.091,-0.07,0.055
-0.026,-0.074,-0.048,0.051,0.011,-0.061,0.028,0.033,-0.109,-0.09,-0.07,0.056
0.015,-0.025,-0.04,0.005,0.028,-0.032,0.022,0.027,-0.108,-0.085,-0.071,0.054
-0.014,-0.05,-0.037,0.032,0.012,-0.043,0.017,0.021,-0.105,-0.085,-0.069,0.051
-0.035,-0.065,-0.029,0.05,-0.003,-0.047,0.011,0.016,-0.106,-0.091,-0.073,0.049
-0.022,-0.048,-0.026,0.036,0.002,-0.037,0.006,0.02,-0.103,-0.088,-0.089,0.052
-0.02,-0.049,-0.029,0.035,0.005,-0.039,0.008,0.027,-0.113,-0.102,-0.088,0.054
-0.008,-0.038,-0.03,0.023,0.012,-0.034,0.014,0.023,-0.109,-0.111,-0.082,0.055
0.0,-0.032,-0.033,0.016,0.017,-0.032,0.016,0.038,-0.089,-0.105,-0.08,0.055
-0.003,-0.029,-0.026,0.016,0.012,-0.027,0.041,0.054,-0.082,-0.1,-0.072,0.055
-0.007,-0.006,0.001,0.007,-0.004,-0.003,0.05,0.058,-0.073,-0.089,-0.066,0.055
0.053,0.033,-0.021,-0.043,0.037,0.006,0.033,0.079,-0.041,-0.065,-0.064,0.067
0.126,0.074,-0.052,-0.1,0.089,0.011,0.015,0.08,-0.018,-0.044,-0.066,0.106
0.086,0.042,-0.044,-0.064,0.065,-0.001,-0.03,0.07,-0.055,-0.066,-0.064,0.103
0.033,-0.036,-0.069,0.002,0.052,-0.053,-0.039,0.044,-0.088,-0.096,-0.066,0.059
-0.011,-0.06,-0.049,0.036,0.019,-0.054,-0.019,0.005,-0.105,-0.118,-0.093,0.031
-0.054,-0.079,-0.025,0.067,-0.014,-0.052,-0.015,-0.024,-0.122,-0.145,-0.126,0.011
-0.054,-0.103,-0.049,0.079,-0.003,-0.076,-0.016,-0.035,-0.113,-0.152,-0.135,0.011
-0.093,-0.118,-0.024,0.106,-0.035,-0.071,-0.013,-0.025,-0.107,-0.157,-0.144,0.001
-0.091,-0.102,-0.011,0.097,-0.04,-0.056,-0.02,-0.037,-0.111,-0.154,-0.137,-0.001
-0.084,-0.112,-0.028,0.098,-0.028,-0.07,-0.028,-0.021,-0.134,-0.155,-0.142,-0.008
-0.082,-0.1,-0.018,0.091,-0.031,-0.059,-0.021,-0.041,-0.139,-0.157,-0.154,-0.029
-0.075,-0.106,-0.031,0.091,-0.022,-0.068,-0.009,-0.016,-0.127,-0.152,-0.153,-0.033
-0.095,-0.087,0.008,0.091,-0.051,-0.039,0.005,-0.028,-0.122,-0.143,-0.152,-0.037
-0.144,0.017,0.161,0.063,-0.152,0.089,0.223,0.309,0.02,-0.104,-0.148,-0.061
-0.074,0.029,0.104,0.023,-0.089,0.066,0.54,0.986,0.253,-0.019,-0.099,-0.056
0.649,0.564,-0.085,-0.606,0.367,0.24,0.116,0.454,0.758,0.634,0.649,0.6
0.829,0.785,-0.044,-0.807,0.436,0.37,-0.596,-0.756,0.799,0.868,0.998,0.978
0.015,0.074,0.06,-0.045,-0.023,0.067,-0.541,-1.002,-0.062,-0.019,0.064,0.225
-0.193,-0.138,0.055,0.165,-0.124,-0.041,-0.193,-0.486,-0.306,-0.303,-0.28,-0.104
-0.087,-0.035,0.052,0.061,-0.069,0.008,-0.049,-0.111,-0.114,-0.152,-0.135,-0.01
-0.109,-0.059,0.05,0.083,-0.079,-0.004,-0.004,-0.055,-0.14,-0.196,-0.183,-0.051
-0.076,-0.049,0.028,0.062,-0.052,-0.01,0.006,-0.014,-0.097,-0.158,-0.142,-0.025
-0.076,-0.06,0.015,0.068,-0.045,-0.022,0.006,-0.004,-0.105,-0.176,-0.162,-0.049
-0.015,-0.024,-0.008,0.02,-0.003,-0.016,0.003,0.009,-0.09,-0.158,-0.142,-0.036
-0.051,-0.038,0.012,0.044,-0.031,-0.013,0.001,0.019,-0.086,-0.159,-0.148,-0.037
-0.088,-0.055,0.034,0.071,-0.061,-0.01,0.0,0.018,-0.081,-0.156,-0.158,-0.035
-0.065,-0.037,0.027,0.051,-0.046,-0.005,-0.002,0.028,-0.069,-0.152,-0.151,-0.027
-0.056,-0.023,0.032,0.04,-0.044,0.004,-0.009,0.027,-0.066,-0.158,-0.15,-0.034
-0.06,-0.032,0.028,0.046,-0.043,-0.002,-0.014,0.035,-0.052,-0.152,-0.14,-0.033
-0.057,-0.026,0.031,0.041,-0.044,0.003,-0.019,0.036,-0.048,-0.158,-0.138,-0.037
-0.034,0.014,0.047,0.01,-0.041,0.03,-0.026,0.042,-0.036,-0.147,-0.13,-0.033
-0.049,0.0,0.048,0.024,-0.049,0.024,-0.023,0.065,-0.031,-0.137,-0.125,-0.019
-0.015,0.025,0.041,-0.005,-0.028,0.033,-0.031,0.07,-0.024,-0.123,-0.108,0.001
0.024,0.063,0.039,-0.044,-0.008,0.051,-0.041,0.064,-0.015,-0.095,-0.076,0.028
0.047,0.079,0.032,-0.064,0.007,0.056,-0.067,0.062,0.016,-0.062,-0.034,0.061
0.119,0.146,0.027,-0.132,0.046,0.086,-0.1,0.057,0.038,-0.033,0.004,0.09
0.154,0.168,0.014,-0.162,0.07,0.091,-0.119,0.055,0.042,-0.02,0.036,0.122
0.183,0.188,0.005,-0.186,0.089,0.096,-0.147,0.045,0.048,-0.01,0.05,0.142
0.176,0.196,0.02,-0.186,0.078,0.108,-0.15,0.019,0.036,-0.002,0.053,0.139
0.137,0.16,0.023,-0.149,0.057,0.091,-0.14,-0.018,0.018,-0.034,0.03,0.123
0.125,0.152,0.027,-0.139,0.048,0.09,-0.114,-0.027,0.003,-0.078,-0.032,0.087
0.073,0.132,0.059,-0.103,0.007,0.095,-0.072,-0.02,-0.016,-0.119,-0.085,0.031
0.011,0.085,0.074,-0.049,-0.032,0.079,-0.037,-0.02,-0.046,-0.157,-0.132,-0.022
-0.036,0.029,0.065,0.003,-0.051,0.047,-0.014,-0.014,-0.06,-0.179,-0.175,-0.05
-0.052,0.012,0.064,0.02,-0.058,0.038,-0.001,-0.012,-0.068,-0.2,-0.195,-0.079
-0.065,-0.002,0.064,0.033,-0.064,0.031,0.001,-0.007,-0.084,-0.216,-0.21,-0.1
-0.111,-0.052,0.059,0.081,-0.084,0.003,0.006,-0.005,-0.089,-0.221,-0.216,-0.103
-0.109,-0.048,0.061,0.078,-0.084,0.006,0.021,-0.004,-0.096,-0.226,-0.223,-0.118
-0.095,-0.036,0.059,0.065,-0.077,0.012,0.015,-0.006,-0.102,-0.235,-0.238,-0.12
-0.091,-0.031,0.06,0.061,-0.076,0.014,0.01,-0.019,-0.106,-0.236,-0.24,-0.12
-0.08,-0.02,0.06,0.05,-0.07,0.02,0.007,-0.017,-0.105,-0.231,-0.24,-0.124
-0.1,-0.04,0.059,0.07,-0.079,0.01,0.001,-0.011,-0.1,-0.229,-0.24,-0.126
-0.101,-0.04,0.061,0.07,-0.081,0.01,-0.002,-0.006,-0.099,-0.225,-0.24,-0.124
-0.084,-0.028,0.055,0.056,-0.069,0.013,-0.006,0.001,-0.094,-0.225,-0.238,-0.121
-0.095,-0.023,0.072,0.059,-0.083,0.024,-0.004,0.004,-0.096,-0.231,-0.235,-0.116
-0.065,0.006,0.07,0.029,-0.068,0.038,-0.005,0.0,-0.1,-0.237,-0.235,-0.114
-0.06,0.002,0.061,0.029,-0.06,0.031,-0.005,-0.007,-0.1,-0.243,-0.233,-0.11
-0.081,-0.023,0.058,0.052,-0.069,0.017,-0.006,-0.011,-0.101,-0.245,-0.229,-0.103
-0.06,-0.016,0.045,0.038,-0.052,0.014,-0.009,-0.018,-0.098,-0.245,-0.23,-0.116
-0.088,-0.01,0.078,0.049,-0.083,0.034,-0.011,-0.022,-0.106,-0.244,-0.242,-0.124
-0.079,-0.01,0.069,0.045,-0.074,0.029,-0.016,-0.025,-0.115,-0.241,-0.246,-0.136
-0.052,-0.003,0.049,0.027,-0.05,0.023,-0.012,-0.011,-0.111,-0.238,-0.244,-0.13
-0.059,-0.012,0.047,0.035,-0.053,0.017,-0.002,-0.004,-0.104,-0.237,-0.246,-0.124
-0.045,-0.014,0.031,0.029,-0.038,0.008,0.007,0.01,-0.094,-0.231,-0.244,-0.136
-0.033,0.028,0.061,0.002,-0.047,0.044,0.004,0.024,-0.09,-0.232,-0.246,-0.125
-0.02,0.056,0.076,-0.019,-0.048,0.066,-0.008,0.022,-0.07,-0.222,-0.225,-0.106
0.008,0.088,0.08,-0.048,-0.036,0.083,-0.012,0.051,-0.033,-0.192,-0.199,-0.074
0.048,0.115,0.067,-0.081,-0.01,0.09,-0.036,0.028,0.042,-0.181,-0.186,-0.062
0.005,0.061,0.056,-0.034,-0.025,0.058,-0.057,0.009,0.119,-0.204,-0.199,-0.085
-0.014,0.025,0.039,-0.006,-0.027,0.031,-0.054,0.005,0.13,-0.257,-0.242,-0.112
-0.003,0.001,0.003,0.001,-0.003,0.002,-0.055,-0.034,0.137,-0.276,-0.257,-0.122
-0.093,-0.048,0.045,0.07,-0.069,-0.001,-0.054,-0.052,0.143,-0.298,-0.287,-0.155
-0.122,-0.046,0.076,0.084,-0.099,0.015,-0.053,-0.062,0.131,-0.31,-0.3,-0.17
-0.118,-0.067,0.051,0.092,-0.085,-0.007,-0.048,-0.057,0.126,-0.312,-0.301,-0.176
-0.109,-0.038,0.071,0.073,-0.09,0.016,-0.051,-0.063,0.125,-0.308,-0.298,-0.178
-0.128,-0.045,0.083,0.086,-0.106,0.019,-0.045,-0.062,0.123,-0.31,-0.301,-0.182
-0.135,-0.058,0.077,0.097,-0.106,0.009,-0.045,-0.083,0.127,-0.312,-0.301,-0.186
-0.102,-0.047,0.055,0.074,-0.079,0.004,-0.045,-0.071,0.121,-0.301,-0.297,-0.18
-0.118,-0.044,0.074,0.081,-0.096,0.015,-0.012,-0.073,0.134,-0.308,-0.303,-0.183
-0.172,0.066,0.238,0.053,-0.205,0.151,0.203,0.259,0.24,-0.257,-0.301,-0.208
-0.131,0.069,0.2,0.031,-0.166,0.134,0.508,0.932,0.467,-0.182,-0.275,-0.228
0.639,0.599,-0.04,-0.619,0.339,0.279,0.078,0.467,0.914,0.444,0.461,0.436
0.863,0.874,0.011,-0.869,0.426,0.442,-0.612,-0.805,1.029,0.71,0.839,0.847
0.04,0.189,0.148,-0.115,-0.054,0.168,-0.532,-1.075,0.187,-0.094,-0.021,0.135
-0.258,-0.108,0.15,0.183,-0.204,0.021,-0.272,-0.576,0.019,-0.465,-0.459,-0.268
