-0.029,0.021,0.049,0.004,-0.039,0.035,0.04,0.061,-0.054,-0.064,-0.029,0.015
-0.022,0.028,0.05,-0.003,-0.036,0.038,0.04,0.067,-0.044,-0.057,-0.023,0.015
-0.03,0.035,0.066,-0.003,-0.048,0.05,0.043,0.077,-0.03,-0.043,-0.015,0.015
-0.037,0.034,0.071,0.001,-0.055,0.052,0.046,0.091,-0.016,-0.023,-0.006,0.015
-0.032,0.037,0.069,-0.003,-0.051,0.053,0.049,0.102,0.0,-0.002,0.004,0.026
-0.02,0.048,0.067,-0.014,-0.044,0.057,0.051,0.12,0.031,0.014,0.017,0.033
-0.008,0.056,0.064,-0.025,-0.036,0.059,0.054,0.141,0.055,0.026,0.028,0.036
-0.004,0.063,0.066,-0.03,-0.035,0.064,0.058,0.166,0.073,0.043,0.03,0.04
0.01,0.067,0.057,-0.039,-0.024,0.062,0.058,0.187,0.098,0.059,0.047,0.047
0.011,0.075,0.064,-0.043,-0.027,0.069,0.066,0.205,0.118,0.077,0.063,0.056
0.013,0.085,0.071,-0.049,-0.029,0.078,0.073,0.232,0.151,0.103,0.073,0.063
0.035,0.104,0.068,-0.069,-0.017,0.086,0.084,0.266,0.185,0.129,0.095,0.082
0.023,0.117,0.094,-0.071,-0.036,0.105,0.097,0.303,0.215,0.153,0.117,0.098
0.019,0.127,0.108,-0.074,-0.045,0.117,0.108,0.345,0.259,0.187,0.136,0.109
0.041,0.147,0.107,-0.094,-0.033,0.127,0.125,0.397,0.308,0.224,0.157,0.127
0.062,0.174,0.112,-0.118,-0.025,0.142,0.136,0.446,0.36,0.264,0.187,0.151
0.089,0.218,0.129,-0.154,-0.02,0.173,0.149,0.508,0.426,0.322,0.224,0.177
0.119,0.253,0.134,-0.186,-0.008,0.193,0.16,0.577,0.501,0.388,0.271,0.206
0.166,0.288,0.122,-0.227,0.022,0.205,0.169,0.643,0.585,0.463,0.323,0.239
0.208,0.326,0.119,-0.267,0.044,0.222,0.174,0.714,0.668,0.541,0.378,0.279
0.247,0.357,0.11,-0.302,0.068,0.233,0.165,0.779,0.749,0.624,0.444,0.331
0.29,0.396,0.106,-0.343,0.092,0.251,0.157,0.827,0.828,0.702,0.504,0.376
0.303,0.412,0.109,-0.358,0.097,0.261,0.148,0.841,0.861,0.755,0.555,0.414
0.291,0.402,0.111,-0.347,0.09,0.256,0.14,0.815,0.858,0.77,0.575,0.434
0.292,0.398,0.106,-0.345,0.093,0.252,0.132,0.75,0.799,0.722,0.563,0.422
0.272,0.362,0.091,-0.317,0.09,0.226,0.124,0.638,0.661,0.616,0.509,0.392
0.212,0.284,0.073,-0.248,0.069,0.178,0.116,0.496,0.496,0.468,0.418,0.343
0.147,0.213,0.066,-0.18,0.04,0.139,0.108,0.345,0.317,0.308,0.315,0.274
0.077,0.138,0.061,-0.108,0.008,0.099,0.088,0.206,0.154,0.165,0.209,0.199
0.024,0.072,0.047,-0.048,-0.012,0.059,0.067,0.098,0.031,0.048,0.124,0.135
-0.005,0.028,0.032,-0.012,-0.019,0.03,0.053,0.03,-0.065,-0.035,0.055,0.091
-0.03,0.001,0.031,0.015,-0.031,0.015,0.04,-0.019,-0.119,-0.092,0.016,0.056
-0.039,-0.016,0.023,0.028,-0.031,0.003,0.032,-0.05,-0.143,-0.11,-0.004,0.035
-0.028,-0.037,-0.009,0.032,-0.009,-0.023,0.028,-0.055,-0.149,-0.116,-0.032,0.027
-0.033,-0.05,-0.017,0.042,-0.008,-0.033,0.022,-0.056,-0.144,-0.125,-0.049,0.019
-0.034,-0.048,-0.014,0.042,-0.01,-0.031,0.016,-0.052,-0.146,-0.12,-0.052,0.014
-0.029,-0.044,-0.015,0.037,-0.007,-0.029,0.011,-0.05,-0.143,-0.117,-0.05,0.009
-0.032,-0.041,-0.009,0.036,-0.011,-0.025,0.006,-0.05,-0.139,-0.113,-0.05,0.004
-0.026,-0.036,-0.011,0.031,-0.007,-0.023,0.002,-0.054,-0.141,-0.11,-0.05,0.0
-0.026,-0.033,-0.007,0.03,-0.009,-0.02,-0.001,-0.056,-0.136,-0.105,-0.05,-0.005
-0.029,-0.03,-0.001,0.03,-0.014,-0.015,-0.004,-0.055,-0.135,-0.105,-0.051,-0.009
-0.034,-0.028,0.006,0.03,-0.02,-0.011,-0.009,-0.06,-0.135,-0.105,-0.055,-0.011
-0.037,-0.025,0.012,0.031,-0.024,-0.006,-0.012,-0.06,-0.136,-0.105,-0.056,-0.01
-0.041,-0.022,0.019,0.031,-0.03,-0.001,-0.015,-0.061,-0.135,-0.105,-0.055,-0.01
-0.044,-0.019,0.025,0.031,-0.034,0.002,-0.017,-0.067,-0.137,-0.105,-0.056,-0.01
-0.038,-0.017,0.02,0.027,-0.029,0.001,-0.02,-0.071,-0.15,-0.116,-0.055,-0.011
-0.034,-0.014,0.02,0.024,-0.026,0.003,-0.023,-0.075,-0.156,-0.121,-0.058,-0.015
-0.037,-0.018,0.019,0.027,-0.027,0.0,-0.025,-0.078,-0.155,-0.12,-0.06,-0.015
-0.05,-0.036,0.014,0.043,-0.032,-0.01,-0.029,-0.086,-0.154,-0.119,-0.06,-0.015
-0.057,-0.041,0.016,0.048,-0.036,-0.012,-0.03,-0.093,-0.162,-0.126,-0.06,-0.015
-0.052,-0.039,0.013,0.046,-0.032,-0.013,-0.032,-0.099,-0.171,-0.136,-0.06,-0.015
-0.049,-0.04,0.008,0.044,-0.028,-0.016,-0.035,-0.108,-0.172,-0.134,-0.065,-0.019
-0.045,-0.04,0.005,0.042,-0.025,-0.017,-0.036,-0.115,-0.176,-0.135,-0.07,-0.03
-0.041,-0.039,0.002,0.04,-0.021,-0.019,-0.04,-0.115,-0.178,-0.135,-0.073,-0.039
-0.045,-0.047,-0.003,0.046,-0.021,-0.025,-0.045,-0.115,-0.181,-0.135,-0.078,-0.04
-0.054,-0.06,-0.005,0.057,-0.024,-0.032,-0.052,-0.115,-0.184,-0.137,-0.08,-0.04
-0.06,-0.06,0.0,0.06,-0.03,-0.03,-0.056,-0.114,-0.186,-0.145,-0.08,-0.04
-0.059,-0.06,-0.001,0.06,-0.029,-0.03,-0.059,-0.119,-0.19,-0.149,-0.08,-0.04
-0.061,-0.06,0.001,0.06,-0.031,-0.029,-0.064,-0.125,-0.188,-0.145,-0.08,-0.04
-0.058,-0.06,-0.003,0.059,-0.028,-0.031,-0.065,-0.125,-0.185,-0.145,-0.079,-0.044
-0.04,-0.059,-0.019,0.049,-0.01,-0.039,-0.065,-0.125,-0.185,-0.145,-0.076,-0.045
-0.034,-0.055,-0.021,0.044,-0.006,-0.037,-0.065,-0.125,-0.183,-0.145,-0.075,-0.045
-0.036,-0.055,-0.019,0.046,-0.008,-0.037,-0.065,-0.124,-0.179,-0.145,-0.075,-0.045
-0.039,-0.055,-0.016,0.047,-0.011,-0.035,-0.066,-0.128,-0.18,-0.147,-0.075,-0.045
-0.041,-0.055,-0.014,0.048,-0.013,-0.035,-0.07,-0.13,-0.183,-0.15,-0.075,-0.044
-0.039,-0.055,-0.016,0.048,-0.011,-0.035,-0.07,-0.13,-0.186,-0.153,-0.077,-0.04
-0.044,-0.059,-0.014,0.052,-0.015,-0.036,-0.07,-0.133,-0.189,-0.156,-0.08,-0.04
-0.042,-0.06,-0.019,0.051,-0.011,-0.039,-0.07,-0.136,-0.191,-0.159,-0.086,-0.04
-0.039,-0.06,-0.02,0.049,-0.009,-0.04,-0.07,-0.134,-0.195,-0.16,-0.088,-0.04
-0.041,-0.06,-0.02,0.051,-0.011,-0.04,-0.067,-0.131,-0.194,-0.155,-0.084,-0.04
-0.039,-0.059,-0.021,0.049,-0.009,-0.04,-0.064,-0.13,-0.189,-0.155,-0.085,-0.044
-0.043,-0.062,-0.019,0.052,-0.012,-0.04,-0.061,-0.13,-0.19,-0.154,-0.085,-0.045
-0.041,-0.065,-0.023,0.053,-0.008,-0.044,-0.058,-0.13,-0.187,-0.149,-0.085,-0.045
-0.034,-0.066,-0.031,0.05,-0.001,-0.048,-0.055,-0.13,-0.184,-0.151,-0.085,-0.045
-0.036,-0.064,-0.028,0.05,-0.003,-0.046,-0.056,-0.132,-0.186,-0.147,-0.09,-0.045
-0.046,-0.069,-0.023,0.058,-0.011,-0.046,-0.06,-0.135,-0.181,-0.145,-0.09,-0.044
-0.053,-0.076,-0.022,0.065,-0.015,-0.049,-0.06,-0.135,-0.18,-0.145,-0.091,-0.04
-0.062,-0.075,-0.013,0.069,-0.024,-0.044,-0.06,-0.135,-0.18,-0.145,-0.095,-0.04
-0.051,-0.074,-0.023,0.063,-0.013,-0.049,-0.06,-0.135,-0.175,-0.145,-0.094,-0.038
-0.029,-0.07,-0.041,0.049,0.006,-0.055,-0.06,-0.134,-0.175,-0.145,-0.098,-0.034
-0.034,-0.07,-0.037,0.052,0.002,-0.053,-0.064,-0.13,-0.173,-0.149,-0.1,-0.035
-0.035,-0.068,-0.033,0.052,-0.001,-0.05,-0.065,-0.13,-0.17,-0.15,-0.1,-0.038
-0.034,-0.064,-0.03,0.049,-0.001,-0.047,-0.065,-0.129,-0.169,-0.15,-0.1,-0.041
-0.052,-0.078,-0.025,0.066,-0.013,-0.051,-0.065,-0.124,-0.179,-0.15,-0.1,-0.038
-0.058,-0.08,-0.022,0.069,-0.018,-0.05,-0.065,-0.126,-0.192,-0.151,-0.1,-0.036
-0.053,-0.073,-0.02,0.063,-0.016,-0.047,-0.063,-0.122,-0.187,-0.148,-0.095,-0.033
-0.051,-0.069,-0.018,0.06,-0.017,-0.044,-0.059,-0.113,-0.184,-0.14,-0.087,-0.03
-0.028,-0.065,-0.037,0.047,0.005,-0.051,-0.054,-0.102,-0.181,-0.135,-0.081,-0.027
-0.009,-0.06,-0.051,0.035,0.021,-0.055,-0.051,-0.094,-0.175,-0.126,-0.074,-0.024
-0.01,-0.063,-0.052,0.037,0.021,-0.057,-0.053,-0.093,-0.147,-0.122,-0.068,-0.022
-0.013,-0.068,-0.055,0.041,0.022,-0.061,-0.062,-0.096,-0.134,-0.124,-0.065,-0.019
0.002,-0.058,-0.06,0.028,0.032,-0.059,-0.065,-0.103,-0.16,-0.133,-0.061,-0.02
0.016,-0.076,-0.092,0.03,0.054,-0.083,-0.055,-0.124,-0.169,-0.133,-0.06,-0.02
0.015,-0.069,-0.084,0.027,0.05,-0.077,-0.069,-0.119,-0.161,-0.127,-0.053,-0.02
0.007,-0.052,-0.059,0.023,0.033,-0.055,-0.079,-0.123,-0.164,-0.134,-0.058,-0.021
-0.027,-0.056,-0.03,0.042,0.002,-0.043,-0.084,-0.131,-0.156,-0.124,-0.07,-0.03
-0.045,-0.07,-0.025,0.058,-0.01,-0.047,-0.073,-0.117,-0.174,-0.155,-0.092,-0.051
-0.041,-0.083,-0.043,0.062,0.001,-0.062,-0.081,-0.141,-0.188,-0.151,-0.092,-0.048
-0.048,-0.074,-0.027,0.061,-0.01,-0.05,-0.069,-0.097,-0.183,-0.156,-0.098,-0.052
-0.057,-0.072,-0.015,0.065,-0.021,-0.044,-0.06,-0.143,-0.196,-0.15,-0.098,-0.048
-0.135,-0.036,0.099,0.085,-0.117,0.031,0.089,-0.068,-0.2,-0.235,-0.159,-0.092
-0.275,0.054,0.33,0.11,-0.303,0.192,0.404,0.024,-0.258,-0.357,-0.23,-0.135
-0.012,0.278,0.29,-0.134,-0.151,0.284,0.237,0.499,0.152,0.116,0.155,0.136
0.648,0.388,-0.26,-0.518,0.454,0.064,-0.216,0.908,1.119,1.192,0.829,0.557
0.877,0.198,-0.68,-0.537,0.778,-0.241,-0.478,-0.108,1.745,2.006,1.161,0.721
0.418,-0.114,-0.533,-0.152,0.476,-0.323,-0.342,-0.721,0.945,0.93,0.547,0.37
-0.056,-0.355,-0.299,0.206,0.122,-0.327,-0.015,-0.528,-0.403,-0.495,-0.19,-0.052
-0.12,-0.331,-0.211,0.226,0.045,-0.27,0.036,-0.343,-0.457,-0.389,-0.173,-0.071
-0.069,-0.208,-0.14,0.139,0.036,-0.173,0.056,-0.072,-0.198,-0.246,-0.124,-0.039
-0.059,-0.124,-0.066,0.092,0.003,-0.095,0.057,-0.051,-0.19,-0.202,-0.099,-0.029
-0.054,-0.071,-0.017,0.063,-0.018,-0.044,0.045,0.018,-0.1,-0.122,-0.052,-0.007
-0.049,-0.047,0.002,0.048,-0.025,-0.023,0.052,0.049,-0.097,-0.121,-0.055,-0.005
-0.05,-0.033,0.017,0.041,-0.033,-0.008,0.04,0.059,-0.054,-0.075,-0.032,0.003
-0.053,-0.027,0.026,0.039,-0.039,0.0,0.048,0.08,-0.051,-0.093,-0.041,-0.002
-0.034,-0.014,0.02,0.024,-0.027,0.003,0.043,0.072,-0.035,-0.054,-0.026,0.006
-0.027,-0.009,0.017,0.018,-0.022,0.004,0.046,0.091,-0.018,-0.033,-0.026,0.004
-0.018,-0.003,0.014,0.01,-0.016,0.005,0.045,0.099,0.0,-0.01,-0.019,0.006
-0.007,0.0,0.007,0.004,-0.007,0.004,0.06,0.124,0.024,-0.002,-0.01,0.013
-0.025,0.005,0.03,0.01,-0.028,0.017,0.067,0.138,0.051,0.013,-0.001,0.019
-0.038,0.009,0.047,0.014,-0.043,0.028,0.064,0.159,0.075,0.029,0.011,0.026
-0.026,0.017,0.043,0.004,-0.035,0.03,0.073,0.187,0.093,0.046,0.028,0.032
-0.017,0.029,0.046,-0.007,-0.032,0.037,0.082,0.209,0.126,0.074,0.039,0.038
-0.004,0.039,0.043,-0.018,-0.024,0.04,0.091,0.23,0.141,0.082,0.05,0.051
0.001,0.05,0.048,-0.026,-0.024,0.049,0.098,0.262,0.173,0.109,0.074,0.062
0.021,0.055,0.034,-0.038,-0.006,0.044,0.101,0.295,0.214,0.141,0.089,0.069
0.044,0.077,0.033,-0.061,0.005,0.055,0.112,0.336,0.253,0.176,0.11,0.088
0.045,0.1,0.055,-0.073,-0.005,0.077,0.13,0.383,0.305,0.216,0.141,0.107
0.05,0.11,0.06,-0.08,-0.006,0.085,0.139,0.427,0.346,0.247,0.163,0.126
0.077,0.153,0.075,-0.115,0.001,0.114,0.138,0.49,0.413,0.303,0.199,0.148
0.125,0.198,0.073,-0.162,0.026,0.135,0.147,0.557,0.493,0.373,0.243,0.174
0.161,0.228,0.067,-0.194,0.046,0.147,0.158,0.629,0.571,0.448,0.297,0.222
0.196,0.263,0.066,-0.23,0.064,0.164,0.151,0.706,0.661,0.53,0.36,0.261
0.233,0.291,0.058,-0.262,0.087,0.174,0.144,0.76,0.736,0.609,0.415,0.299
0.265,0.328,0.063,-0.296,0.101,0.195,0.138,0.806,0.812,0.688,0.479,0.348
0.283,0.352,0.068,-0.318,0.107,0.21,0.129,0.828,0.862,0.75,0.526,0.381
0.293,0.345,0.052,-0.319,0.12,0.198,0.123,0.809,0.87,0.774,0.556,0.401
0.295,0.337,0.041,-0.316,0.127,0.189,0.115,0.76,0.828,0.738,0.543,0.401
0.261,0.311,0.05,-0.286,0.105,0.18,0.11,0.661,0.71,0.651,0.501,0.385
0.216,0.259,0.043,-0.238,0.086,0.15,0.104,0.517,0.545,0.508,0.434,0.341
0.153,0.188,0.035,-0.17,0.058,0.111,0.099,0.367,0.362,0.346,0.318,0.262
0.087,0.114,0.027,-0.1,0.03,0.07,0.094,0.228,0.194,0.189,0.213,0.189
0.044,0.062,0.019,-0.053,0.012,0.041,0.079,0.114,0.056,0.054,0.124,0.131
0.001,0.012,0.011,-0.007,-0.005,0.012,0.062,0.027,-0.037,-0.022,0.053,0.081
-0.006,-0.031,-0.026,0.018,0.01,-0.028,0.05,-0.028,-0.095,-0.08,0.006,0.04
-0.018,-0.058,-0.04,0.038,0.011,-0.048,0.045,-0.07,-0.137,-0.115,-0.03,0.011
-0.024,-0.074,-0.051,0.049,0.014,-0.062,0.039,-0.093,-0.15,-0.123,-0.051,-0.004
-0.019,-0.075,-0.056,0.048,0.019,-0.065,0.033,-0.087,-0.145,-0.134,-0.063,-0.011
-0.041,-0.075,-0.034,0.059,-0.003,-0.055,0.03,-0.104,-0.141,-0.137,-0.061,-0.018
-0.037,-0.073,-0.036,0.055,0.0,-0.054,0.027,-0.114,-0.136,-0.133,-0.06,-0.024
-0.036,-0.069,-0.034,0.053,-0.001,-0.051,0.025,-0.103,-0.132,-0.128,-0.059,-0.032
-0.045,-0.07,-0.026,0.058,-0.009,-0.048,0.021,-0.099,-0.127,-0.124,-0.055,-0.034
-0.047,-0.066,-0.019,0.057,-0.014,-0.042,0.02,-0.091,-0.125,-0.119,-0.055,-0.03
-0.048,-0.061,-0.013,0.055,-0.018,-0.037,0.016,-0.09,-0.126,-0.114,-0.057,-0.03
-0.057,-0.056,0.001,0.057,-0.029,-0.027,0.009,-0.09,-0.121,-0.111,-0.061,-0.03
-0.074,-0.053,0.021,0.063,-0.047,-0.016,0.003,-0.09,-0.12,-0.11,-0.063,-0.03
-0.067,-0.047,0.02,0.057,-0.043,-0.014,-0.004,-0.091,-0.12,-0.11,-0.066,-0.03
-0.061,-0.046,0.015,0.053,-0.038,-0.015,-0.011,-0.09,-0.131,-0.111,-0.07,-0.034
-0.066,-0.053,0.013,0.059,-0.04,-0.019,-0.017,-0.099,-0.142,-0.108,-0.07,-0.036
-0.066,-0.059,0.007,0.062,-0.036,-0.025,-0.02,-0.101,-0.137,-0.122,-0.066,-0.035
-0.071,-0.064,0.007,0.067,-0.038,-0.029,-0.02,-0.115,-0.152,-0.137,-0.065,-0.035
-0.062,-0.068,-0.007,0.065,-0.027,-0.037,-0.025,-0.132,-0.167,-0.137,-0.066,-0.035
-0.047,-0.073,-0.026,0.06,-0.011,-0.049,-0.025,-0.129,-0.164,-0.14,-0.064,-0.037
-0.05,-0.075,-0.025,0.063,-0.012,-0.05,-0.028,-0.13,-0.169,-0.143,-0.071,-0.04
-0.055,-0.075,-0.02,0.065,-0.017,-0.047,-0.034,-0.13,-0.171,-0.145,-0.086,-0.045
-0.057,-0.075,-0.018,0.066,-0.019,-0.046,-0.037,-0.13,-0.174,-0.145,-0.094,-0.041
-0.062,-0.075,-0.013,0.069,-0.024,-0.044,-0.04,-0.13,-0.176,-0.145,-0.095,-0.041
-0.066,-0.075,-0.009,0.07,-0.028,-0.042,-0.044,-0.13,-0.18,-0.145,-0.095,-0.054
-0.057,-0.075,-0.017,0.066,-0.02,-0.046,-0.045,-0.13,-0.179,-0.146,-0.095,-0.055
-0.063,-0.086,-0.023,0.074,-0.02,-0.054,-0.045,-0.132,-0.174,-0.15,-0.095,-0.057
-0.072,-0.091,-0.019,0.082,-0.027,-0.055,-0.045,-0.14,-0.175,-0.152,-0.096,-0.06
-0.07,-0.089,-0.019,0.08,-0.026,-0.054,-0.045,-0.14,-0.173,-0.155,-0.1,-0.061
-0.077,-0.09,-0.013,0.084,-0.032,-0.051,-0.045,-0.14,-0.169,-0.158,-0.1,-0.065
-0.072,-0.09,-0.018,0.081,-0.027,-0.053,-0.045,-0.14,-0.17,-0.16,-0.1,-0.065
-0.052,-0.09,-0.038,0.071,-0.007,-0.064,-0.056,-0.14,-0.178,-0.156,-0.1,-0.065
-0.049,-0.09,-0.041,0.069,-0.004,-0.065,-0.061,-0.14,-0.181,-0.155,-0.1,-0.065
-0.05,-0.09,-0.04,0.07,-0.005,-0.065,-0.059,-0.14,-0.179,-0.155,-0.104,-0.065
-0.052,-0.09,-0.038,0.071,-0.007,-0.064,-0.061,-0.14,-0.177,-0.155,-0.105,-0.065
-0.056,-0.09,-0.034,0.074,-0.011,-0.061,-0.059,-0.14,-0.174,-0.155,-0.105,-0.065
-0.053,-0.09,-0.036,0.072,-0.009,-0.062,-0.061,-0.14,-0.176,-0.155,-0.109,-0.065
-0.062,-0.093,-0.03,0.078,-0.016,-0.061,-0.064,-0.14,-0.179,-0.155,-0.111,-0.065
-0.07,-0.095,-0.025,0.083,-0.022,-0.06,-0.065,-0.144,-0.182,-0.155,-0.108,-0.064
-0.075,-0.095,-0.019,0.085,-0.027,-0.057,-0.065,-0.145,-0.184,-0.155,-0.105,-0.067
-0.083,-0.098,-0.015,0.091,-0.034,-0.056,-0.065,-0.145,-0.188,-0.155,-0.105,-0.071
-0.093,-0.101,-0.007,0.097,-0.043,-0.054,-0.065,-0.145,-0.19,-0.155,-0.105,-0.07
-0.092,-0.099,-0.008,0.096,-0.042,-0.053,-0.063,-0.146,-0.19,-0.155,-0.105,-0.069
-0.06,-0.095,-0.036,0.078,-0.012,-0.065,-0.059,-0.15,-0.19,-0.155,-0.105,-0.066
-0.048,-0.09,-0.041,0.069,-0.003,-0.065,-0.06,-0.15,-0.19,-0.155,-0.108,-0.064
-0.051,-0.086,-0.034,0.069,-0.008,-0.06,-0.06,-0.15,-0.19,-0.155,-0.11,-0.067
-0.048,-0.081,-0.034,0.065,-0.007,-0.057,-0.06,-0.15,-0.185,-0.154,-0.11,-0.078
-0.048,-0.076,-0.027,0.062,-0.01,-0.051,-0.061,-0.15,-0.185,-0.156,-0.11,-0.081
-0.051,-0.077,-0.026,0.065,-0.012,-0.051,-0.064,-0.154,-0.184,-0.16,-0.11,-0.079
-0.06,-0.08,-0.02,0.07,-0.02,-0.05,-0.066,-0.155,-0.18,-0.16,-0.11,-0.081
-0.059,-0.08,-0.021,0.07,-0.019,-0.05,-0.063,-0.157,-0.181,-0.16,-0.11,-0.08
-0.061,-0.08,-0.018,0.071,-0.021,-0.049,-0.074,-0.161,-0.178,-0.161,-0.11,-0.081
-0.064,-0.08,-0.016,0.072,-0.024,-0.048,-0.079,-0.158,-0.173,-0.161,-0.11,-0.076
-0.066,-0.079,-0.013,0.073,-0.026,-0.046,-0.072,-0.153,-0.167,-0.155,-0.11,-0.07
-0.056,-0.075,-0.019,0.066,-0.018,-0.047,-0.066,-0.146,-0.164,-0.146,-0.11,-0.065
-0.021,-0.075,-0.054,0.048,0.017,-0.064,-0.061,-0.142,-0.158,-0.137,-0.106,-0.059
-0.015,-0.074,-0.059,0.044,0.022,-0.066,-0.064,-0.143,-0.155,-0.129,-0.102,-0.053
-0.024,-0.07,-0.046,0.048,0.011,-0.058,-0.064,-0.145,-0.154,-0.115,-0.099,-0.051
-0.014,-0.069,-0.055,0.042,0.02,-0.061,-0.069,-0.146,-0.163,-0.127,-0.095,-0.064
0.007,-0.076,-0.083,0.035,0.045,-0.08,-0.075,-0.147,-0.187,-0.149,-0.092,-0.072
0.008,-0.081,-0.089,0.037,0.049,-0.085,-0.076,-0.155,-0.19,-0.14,-0.089,-0.068
-0.007,-0.079,-0.072,0.043,0.033,-0.075,-0.068,-0.142,-0.189,-0.15,-0.098,-0.072
-0.011,-0.074,-0.062,0.043,0.026,-0.068,-0.071,-0.151,-0.192,-0.14,-0.091,-0.067
-0.035,-0.083,-0.048,0.059,0.007,-0.065,-0.063,-0.144,-0.186,-0.156,-0.109,-0.079
-0.05,-0.09,-0.039,0.07,-0.005,-0.064,-0.065,-0.179,-0.191,-0.166,-0.121,-0.085
-0.053,-0.075,-0.023,0.064,-0.015,-0.049,-0.06,-0.148,-0.178,-0.162,-0.118,-0.084
-0.064,-0.078,-0.014,0.071,-0.025,-0.045,-0.055,-0.161,-0.191,-0.17,-0.122,-0.089
-0.09,-0.047,0.043,0.068,-0.066,-0.002,-0.017,-0.15,-0.188,-0.176,-0.135,-0.102
-0.248,0.003,0.25,0.122,-0.249,0.126,0.31,-0.025,-0.278,-0.385,-0.272,-0.188
-0.201,0.184,0.385,0.009,-0.293,0.284,0.356,0.229,-0.099,-0.174,-0.082,-0.053
0.385,0.362,-0.023,-0.374,0.204,0.169,-0.07,0.886,0.781,0.776,0.566,0.366
0.82,0.264,-0.556,-0.541,0.688,-0.146,-0.437,0.292,1.693,1.917,1.144,0.691
0.561,0.022,-0.539,-0.291,0.55,-0.258,-0.468,-0.727,1.413,1.561,0.881,0.532
0.03,-0.281,-0.311,0.126,0.171,-0.296,-0.125,-0.624,-0.048,-0.166,-0.015,0.039
-0.16,-0.36,-0.2,0.26,0.021,-0.28,0.013,-0.446,-0.581,-0.536,-0.233,-0.122
-0.094,-0.239,-0.145,0.166,0.026,-0.192,0.02,-0.188,-0.26,-0.254,-0.138,-0.08
-0.085,-0.157,-0.071,0.121,-0.007,-0.114,0.058,-0.084,-0.227,-0.262,-0.154,-0.076
-0.045,-0.066,-0.02,0.056,-0.012,-0.043,0.029,-0.053,-0.136,-0.147,-0.089,-0.051
-0.036,-0.039,-0.003,0.038,-0.017,-0.021,0.04,0.014,-0.107,-0.14,-0.082,-0.049
-0.06,-0.03,0.029,0.045,-0.044,0.0,0.024,-0.002,-0.085,-0.094,-0.059,-0.035
-0.04,-0.017,0.023,0.029,-0.032,0.003,0.024,0.034,-0.058,-0.092,-0.059,-0.034
-0.053,-0.018,0.035,0.035,-0.043,0.008,0.022,0.025,-0.052,-0.073,-0.048,-0.027
-0.067,-0.01,0.058,0.038,-0.062,0.024,0.025,0.046,-0.028,-0.054,-0.04,-0.021
-0.062,-0.008,0.054,0.034,-0.058,0.023,0.033,0.055,-0.023,-0.042,-0.035,-0.017
-0.056,-0.002,0.054,0.028,-0.055,0.026,0.041,0.067,0.006,-0.016,-0.024,-0.01
-0.046,0.003,0.05,0.021,-0.048,0.026,0.047,0.09,0.02,-0.012,-0.021,-0.005
-0.041,0.009,0.05,0.016,-0.046,0.029,0.043,0.109,0.041,0.008,-0.01,0.003
-0.034,0.016,0.05,0.009,-0.043,0.033,0.058,0.131,0.071,0.031,0.003,0.009
-0.031,0.018,0.05,0.006,-0.041,0.034,0.052,0.149,0.104,0.051,0.017,0.016
-0.02,0.029,0.05,-0.005,-0.035,0.039,0.06,0.179,0.13,0.066,0.025,0.021
-0.007,0.044,0.051,-0.019,-0.029,0.047,0.081,0.211,0.149,0.094,0.044,0.03
0.015,0.069,0.054,-0.042,-0.02,0.062,0.084,0.24,0.187,0.122,0.062,0.04
0.031,0.099,0.068,-0.066,-0.019,0.083,0.095,0.269,0.229,0.153,0.082,0.049
0.016,0.105,0.089,-0.061,-0.037,0.097,0.107,0.31,0.267,0.188,0.11,0.071
0.038,0.124,0.087,-0.081,-0.025,0.105,0.11,0.366,0.322,0.23,0.138,0.092
0.069,0.159,0.09,-0.114,-0.011,0.124,0.115,0.417,0.376,0.279,0.164,0.109
0.085,0.19,0.105,-0.138,-0.01,0.147,0.139,0.48,0.448,0.338,0.202,0.138
0.124,0.23,0.106,-0.178,0.009,0.167,0.144,0.55,0.531,0.411,0.255,0.173
0.165,0.269,0.103,-0.217,0.031,0.186,0.135,0.621,0.626,0.499,0.315,0.218
0.202,0.302,0.1,-0.252,0.051,0.201,0.13,0.691,0.713,0.584,0.386,0.268
0.236,0.336,0.1,-0.286,0.068,0.218,0.122,0.742,0.787,0.662,0.442,0.308
0.267,0.365,0.098,-0.316,0.085,0.231,0.117,0.782,0.856,0.731,0.498,0.352
0.276,0.364,0.087,-0.32,0.094,0.225,0.11,0.784,0.862,0.76,0.526,0.378
0.283,0.36,0.078,-0.322,0.102,0.219,0.102,0.741,0.839,0.753,0.51,0.382
0.273,0.342,0.069,-0.308,0.102,0.205,0.094,0.654,0.743,0.683,0.494,0.374
0.233,0.297,0.064,-0.265,0.084,0.18,0.085,0.522,0.578,0.543,0.438,0.326
0.176,0.233,0.057,-0.205,0.059,0.145,0.077,0.374,0.404,0.376,0.333,0.259
0.1,0.153,0.053,-0.126,0.023,0.103,0.068,0.226,0.212,0.208,0.22,0.189
0.046,0.092,0.046,-0.069,0.0,0.069,0.058,0.111,0.073,0.08,0.125,0.118
-0.009,0.024,0.034,-0.008,-0.022,0.029,0.047,0.023,-0.031,-0.014,0.053,0.061
-0.04,-0.022,0.018,0.031,-0.029,-0.002,0.034,-0.044,-0.113,-0.086,-0.003,0.012
-0.036,-0.043,-0.007,0.04,-0.014,-0.025,0.02,-0.08,-0.152,-0.121,-0.041,-0.015
-0.045,-0.061,-0.016,0.053,-0.014,-0.038,0.002,-0.102,-0.169,-0.14,-0.068,-0.032
-0.053,-0.06,-0.007,0.057,-0.023,-0.033,-0.009,-0.112,-0.163,-0.146,-0.086,-0.051
-0.051,-0.057,-0.006,0.054,-0.022,-0.031,-0.011,-0.108,-0.159,-0.139,-0.091,-0.056
-0.054,-0.053,0.0,0.054,-0.027,-0.026,-0.014,-0.102,-0.155,-0.136,-0.09,-0.054
-0.054,-0.049,0.005,0.051,-0.03,-0.022,-0.017,-0.098,-0.15,-0.132,-0.09,-0.055
-0.046,-0.046,0.0,0.046,-0.023,-0.023,-0.02,-0.091,-0.146,-0.126,-0.09,-0.055
-0.059,-0.042,0.017,0.05,-0.038,-0.013,-0.021,-0.086,-0.145,-0.127,-0.09,-0.055
-0.065,-0.038,0.027,0.051,-0.046,-0.005,-0.028,-0.088,-0.146,-0.131,-0.093,-0.059
-0.051,-0.032,0.019,0.042,-0.035,-0.006,-0.034,-0.092,-0.145,-0.13,-0.095,-0.06
-0.047,-0.029,0.018,0.038,-0.033,-0.005,-0.036,-0.095,-0.146,-0.134,-0.095,-0.06
-0.037,-0.023,0.013,0.03,-0.025,-0.005,-0.034,-0.098,-0.145,-0.135,-0.095,-0.065
-0.029,-0.02,0.009,0.024,-0.019,-0.006,-0.037,-0.102,-0.147,-0.135,-0.095,-0.065
-0.049,-0.031,0.018,0.039,-0.033,-0.006,-0.057,-0.107,-0.159,-0.14,-0.095,-0.066
-0.063,-0.036,0.027,0.049,-0.045,-0.005,-0.061,-0.114,-0.16,-0.142,-0.095,-0.07
-0.055,-0.034,0.021,0.045,-0.038,-0.006,-0.062,-0.125,-0.161,-0.146,-0.095,-0.07
-0.052,-0.035,0.016,0.043,-0.033,-0.009,-0.066,-0.13,-0.175,-0.149,-0.095,-0.07
-0.048,-0.035,0.013,0.041,-0.03,-0.011,-0.065,-0.133,-0.182,-0.153,-0.095,-0.07
-0.041,-0.034,0.007,0.038,-0.024,-0.013,-0.072,-0.138,-0.196,-0.156,-0.095,-0.07
-0.036,-0.031,0.005,0.033,-0.02,-0.013,-0.075,-0.141,-0.206,-0.161,-0.098,-0.073
-0.033,-0.028,0.005,0.03,-0.019,-0.011,-0.08,-0.145,-0.204,-0.164,-0.107,-0.076
-0.048,-0.043,0.005,0.045,-0.026,-0.019,-0.08,-0.151,-0.205,-0.165,-0.114,-0.079
-0.062,-0.057,0.005,0.059,-0.033,-0.026,-0.08,-0.157,-0.205,-0.165,-0.12,-0.082
-0.059,-0.054,0.005,0.056,-0.032,-0.025,-0.08,-0.163,-0.205,-0.165,-0.125,-0.084
-0.06,-0.055,0.005,0.057,-0.032,-0.025,-0.08,-0.165,-0.201,-0.167,-0.125,-0.087
-0.06,-0.055,0.005,0.057,-0.032,-0.025,-0.08,-0.165,-0.199,-0.17,-0.125,-0.09
-0.06,-0.055,0.005,0.057,-0.032,-0.025,-0.081,-0.169,-0.2,-0.173,-0.125,-0.09
-0.06,-0.055,0.005,0.057,-0.032,-0.025,-0.085,-0.17,-0.2,-0.176,-0.124,-0.09
-0.06,-0.055,0.005,0.057,-0.032,-0.025,-0.084,-0.17,-0.2,-0.179,-0.127,-0.09
-0.06,-0.055,0.005,0.057,-0.032,-0.025,-0.088,-0.17,-0.201,-0.18,-0.13,-0.09
-0.059,-0.055,0.004,0.057,-0.031,-0.026,-0.09,-0.17,-0.205,-0.175,-0.13,-0.09
-0.054,-0.055,0.0,0.055,-0.027,-0.027,-0.09,-0.17,-0.205,-0.175,-0.13,-0.09
-0.056,-0.056,0.0,0.056,-0.028,-0.028,-0.093,-0.17,-0.205,-0.173,-0.13,-0.09
-0.06,-0.06,0.0,0.06,-0.03,-0.03,-0.096,-0.17,-0.205,-0.17,-0.129,-0.09
-0.056,-0.06,-0.004,0.058,-0.026,-0.031,-0.099,-0.17,-0.205,-0.169,-0.126,-0.089
-0.055,-0.06,-0.005,0.058,-0.025,-0.032,-0.102,-0.17,-0.209,-0.172,-0.123,-0.091
-0.051,-0.056,-0.005,0.054,-0.023,-0.031,-0.105,-0.169,-0.21,-0.179,-0.12,-0.095
-0.05,-0.055,-0.005,0.053,-0.022,-0.03,-0.104,-0.171,-0.21,-0.175,-0.117,-0.095
-0.05,-0.055,-0.005,0.053,-0.022,-0.03,-0.1,-0.169,-0.21,-0.175,-0.115,-0.095
-0.046,-0.05,-0.004,0.048,-0.021,-0.026,-0.1,-0.172,-0.21,-0.174,-0.115,-0.095
-0.051,-0.051,0.0,0.051,-0.025,-0.025,-0.1,-0.184,-0.21,-0.17,-0.115,-0.095
-0.049,-0.048,0.0,0.048,-0.024,-0.024,-0.1,-0.186,-0.21,-0.17,-0.115,-0.091
-0.045,-0.045,0.0,0.045,-0.022,-0.022,-0.1,-0.184,-0.213,-0.172,-0.115,-0.089
-0.045,-0.045,0.0,0.045,-0.022,-0.022,-0.096,-0.181,-0.215,-0.175,-0.115,-0.09
-0.045,-0.045,0.0,0.045,-0.022,-0.022,-0.095,-0.179,-0.215,-0.175,-0.115,-0.09
-0.042,-0.045,-0.003,0.044,-0.019,-0.024,-0.095,-0.18,-0.215,-0.175,-0.119,-0.09
-0.039,-0.045,-0.006,0.042,-0.016,-0.025,-0.095,-0.18,-0.215,-0.175,-0.124,-0.09
-0.044,-0.049,-0.005,0.047,-0.02,-0.027,-0.095,-0.18,-0.213,-0.174,-0.125,-0.09
-0.044,-0.049,-0.005,0.047,-0.019,-0.027,-0.095,-0.18,-0.21,-0.17,-0.125,-0.09
-0.054,-0.059,-0.005,0.057,-0.024,-0.032,-0.095,-0.18,-0.21,-0.171,-0.125,-0.09
-0.059,-0.065,-0.006,0.062,-0.026,-0.035,-0.095,-0.181,-0.209,-0.169,-0.125,-0.09
-0.043,-0.055,-0.012,0.049,-0.016,-0.033,-0.095,-0.175,-0.204,-0.165,-0.125,-0.09
-0.035,-0.05,-0.015,0.043,-0.009,-0.032,-0.095,-0.17,-0.206,-0.165,-0.124,-0.087
-0.022,-0.042,-0.02,0.032,-0.001,-0.03,-0.095,-0.161,-0.198,-0.163,-0.118,-0.084
-0.013,-0.037,-0.024,0.025,0.006,-0.03,-0.09,-0.157,-0.186,-0.159,-0.109,-0.081
-0.009,-0.037,-0.028,0.023,0.01,-0.033,-0.082,-0.149,-0.175,-0.157,-0.102,-0.078
-0.012,-0.046,-0.034,0.029,0.011,-0.04,-0.086,-0.131,-0.16,-0.154,-0.1,-0.075
-0.011,-0.045,-0.033,0.029,0.011,-0.039,-0.096,-0.149,-0.177,-0.149,-0.099,-0.076
0.008,-0.055,-0.064,0.024,0.036,-0.059,-0.088,-0.162,-0.195,-0.152,-0.101,-0.081
0.013,-0.057,-0.069,0.022,0.042,-0.063,-0.097,-0.165,-0.186,-0.152,-0.098,-0.082
0.016,-0.025,-0.041,0.005,0.028,-0.032,-0.102,-0.164,-0.188,-0.159,-0.103,-0.088
0.003,-0.025,-0.028,0.011,0.015,-0.026,-0.1,-0.171,-0.183,-0.15,-0.107,-0.089
-0.036,-0.048,-0.012,0.042,-0.012,-0.03,-0.088,-0.173,-0.195,-0.167,-0.13,-0.099
-0.055,-0.061,-0.006,0.058,-0.024,-0.033,-0.088,-0.211,-0.227,-0.169,-0.138,-0.101
-0.059,-0.053,0.006,0.056,-0.032,-0.024,-0.079,-0.168,-0.212,-0.169,-0.141,-0.099
-0.06,-0.055,0.005,0.057,-0.032,-0.025,-0.074,-0.193,-0.229,-0.172,-0.14,-0.101
-0.114,-0.035,0.079,0.075,-0.097,0.022,-0.009,-0.169,-0.217,-0.197,-0.155,-0.118
-0.265,0.039,0.304,0.113,-0.285,0.171,0.305,-0.077,-0.302,-0.397,-0.275,-0.189
-0.151,0.247,0.398,-0.049,-0.274,0.322,0.292,0.238,-0.075,-0.117,-0.032,-0.024
0.457,0.432,-0.024,-0.445,0.24,0.204,-0.11,0.878,0.847,0.871,0.629,0.412
0.874,0.312,-0.562,-0.593,0.718,-0.125,-0.475,0.156,1.706,1.94,1.151,0.687
0.566,-0.007,-0.573,-0.279,0.569,-0.29,-0.504,-0.77,1.308,1.407,0.78,0.458
0.024,-0.319,-0.343,0.147,0.184,-0.331,-0.136,-0.643,-0.177,-0.281,-0.084,-0.012
-0.143,-0.356,-0.213,0.25,0.035,-0.284,-0.009,-0.47,-0.587,-0.523,-0.233,-0.133
-0.094,-0.211,-0.117,0.153,0.012,-0.164,-0.011,-0.188,-0.246,-0.257,-0.154,-0.099
-0.081,-0.12,-0.039,0.101,-0.021,-0.079,0.004,-0.103,-0.229,-0.254,-0.148,-0.091
-0.068,-0.052,0.016,0.06,-0.042,-0.018,-0.025,-0.075,-0.138,-0.148,-0.085,-0.052
-0.071,-0.024,0.047,0.047,-0.059,0.012,0.001,-0.023,-0.127,-0.151,-0.09,-0.053
-0.06,-0.01,0.05,0.035,-0.055,0.02,-0.002,-0.025,-0.109,-0.097,-0.065,-0.044
-0.066,0.0,0.065,0.033,-0.066,0.032,0.013,0.007,-0.089,-0.099,-0.068,-0.044
-0.064,0.005,0.069,0.029,-0.067,0.037,0.018,0.004,-0.066,-0.078,-0.055,-0.038
-0.047,0.012,0.059,0.018,-0.053,0.035,0.025,0.022,-0.044,-0.064,-0.049,-0.035
-0.041,0.019,0.059,0.011,-0.05,0.039,0.034,0.033,-0.033,-0.055,-0.042,-0.032
-0.022,0.029,0.051,-0.004,-0.037,0.04,0.037,0.05,-0.004,-0.04,-0.032,-0.023
-0.014,0.037,0.051,-0.011,-0.032,0.043,0.045,0.069,0.01,-0.02,-0.024,-0.018
0.007,0.045,0.038,-0.026,-0.016,0.041,0.046,0.098,0.039,0.014,-0.007,-0.01
0.004,0.051,0.046,-0.028,-0.021,0.048,0.053,0.117,0.063,0.028,0.004,-0.005
-0.022,0.056,0.078,-0.017,-0.05,0.066,0.058,0.138,0.081,0.047,0.02,0.006
-0.027,0.054,0.081,-0.013,-0.055,0.067,0.064,0.162,0.104,0.062,0.033,0.012
-0.015,0.063,0.079,-0.024,-0.047,0.071,0.066,0.19,0.142,0.089,0.047,0.023
0.004,0.086,0.082,-0.045,-0.039,0.083,0.073,0.221,0.169,0.116,0.063,0.029
0.017,0.096,0.079,-0.056,-0.031,0.087,0.083,0.262,0.207,0.14,0.078,0.041
0.044,0.125,0.081,-0.085,-0.019,0.103,0.097,0.309,0.257,0.18,0.11,0.065
0.054,0.158,0.104,-0.106,-0.025,0.131,0.126,0.357,0.313,0.233,0.151,0.081
0.053,0.167,0.114,-0.11,-0.031,0.14,0.133,0.421,0.374,0.276,0.173,0.107
0.095,0.201,0.106,-0.148,-0.006,0.153,0.134,0.484,0.443,0.336,0.207,0.129
0.134,0.249,0.115,-0.191,0.009,0.181,0.148,0.55,0.523,0.411,0.265,0.169
0.159,0.287,0.128,-0.223,0.015,0.207,0.147,0.623,0.608,0.489,0.321,0.213
0.196,0.323,0.126,-0.26,0.035,0.224,0.139,0.686,0.691,0.572,0.383,0.249
0.249,0.355,0.106,-0.302,0.071,0.23,0.133,0.741,0.772,0.651,0.445,0.294
0.284,0.39,0.105,-0.337,0.089,0.247,0.126,0.77,0.825,0.72,0.499,0.333
0.303,0.407,0.104,-0.355,0.099,0.255,0.118,0.765,0.838,0.755,0.538,0.37
0.315,0.392,0.077,-0.354,0.119,0.234,0.109,0.733,0.822,0.749,0.541,0.363
0.271,0.356,0.085,-0.314,0.093,0.22,0.101,0.644,0.721,0.673,0.506,0.341
0.219,0.304,0.085,-0.262,0.067,0.194,0.09,0.51,0.556,0.534,0.439,0.31
0.165,0.236,0.071,-0.201,0.046,0.154,0.075,0.36,0.38,0.372,0.338,0.243
0.099,0.167,0.068,-0.134,0.015,0.118,0.058,0.217,0.205,0.212,0.229,0.18
0.039,0.097,0.057,-0.068,-0.009,0.076,0.046,0.092,0.058,0.08,0.133,0.112
-0.005,0.043,0.048,-0.019,-0.027,0.046,0.033,0.007,-0.047,-0.018,0.059,0.052
-0.026,0.007,0.032,0.009,-0.029,0.019,0.023,-0.045,-0.116,-0.076,0.01,0.019
-0.041,-0.018,0.023,0.029,-0.032,0.002,0.018,-0.089,-0.152,-0.115,-0.03,-0.018
-0.041,-0.033,0.008,0.037,-0.024,-0.012,0.015,-0.107,-0.166,-0.139,-0.054,-0.039
-0.039,-0.053,-0.014,0.047,-0.012,-0.033,0.01,-0.111,-0.177,-0.134,-0.065,-0.038
-0.038,-0.053,-0.015,0.045,-0.011,-0.033,0.005,-0.11,-0.174,-0.133,-0.075,-0.047
-0.037,-0.045,-0.009,0.041,-0.014,-0.027,0.0,-0.104,-0.168,-0.141,-0.075,-0.056
-0.036,-0.042,-0.006,0.039,-0.015,-0.023,-0.004,-0.103,-0.165,-0.139,-0.075,-0.055
-0.033,-0.034,-0.002,0.034,-0.015,-0.018,-0.009,-0.097,-0.16,-0.132,-0.075,-0.055
-0.035,-0.031,0.004,0.033,-0.02,-0.013,-0.012,-0.096,-0.156,-0.13,-0.075,-0.055
-0.036,-0.03,0.006,0.032,-0.021,-0.012,-0.017,-0.103,-0.151,-0.123,-0.076,-0.055
-0.047,-0.03,0.017,0.039,-0.032,-0.007,-0.02,-0.106,-0.15,-0.121,-0.072,-0.054
-0.061,-0.03,0.031,0.045,-0.046,0.0,-0.023,-0.105,-0.15,-0.125,-0.07,-0.05
-0.06,-0.03,0.03,0.045,-0.045,0.0,-0.028,-0.11,-0.151,-0.126,-0.07,-0.05
-0.058,-0.03,0.029,0.044,-0.044,0.0,-0.031,-0.11,-0.149,-0.125,-0.07,-0.05
-0.057,-0.033,0.025,0.044,-0.041,-0.004,-0.034,-0.111,-0.153,-0.125,-0.07,-0.05
-0.061,-0.036,0.025,0.048,-0.042,-0.005,-0.036,-0.12,-0.169,-0.126,-0.071,-0.05
-0.057,-0.035,0.023,0.046,-0.039,-0.006,-0.04,-0.125,-0.176,-0.123,-0.074,-0.053
-0.049,-0.035,0.014,0.042,-0.031,-0.011,-0.04,-0.13,-0.181,-0.137,-0.078,-0.058
-0.048,-0.04,0.008,0.044,-0.028,-0.016,-0.041,-0.13,-0.185,-0.152,-0.088,-0.062
-0.045,-0.044,0.0,0.045,-0.022,-0.022,-0.044,-0.143,-0.188,-0.149,-0.095,-0.065
-0.037,-0.045,-0.008,0.041,-0.014,-0.026,-0.046,-0.152,-0.197,-0.151,-0.095,-0.068
-0.035,-0.048,-0.013,0.042,-0.011,-0.03,-0.044,-0.154,-0.2,-0.149,-0.095,-0.07
-0.041,-0.051,-0.01,0.046,-0.016,-0.03,-0.046,-0.164,-0.2,-0.15,-0.095,-0.074
-0.054,-0.052,0.002,0.052,-0.028,-0.024,-0.055,-0.164,-0.204,-0.149,-0.097,-0.078
-0.056,-0.057,-0.001,0.057,-0.027,-0.029,-0.056,-0.166,-0.205,-0.151,-0.1,-0.083
-0.034,-0.06,-0.026,0.047,-0.004,-0.043,-0.054,-0.17,-0.205,-0.163,-0.1,-0.084
-0.023,-0.054,-0.031,0.039,0.004,-0.042,-0.056,-0.17,-0.205,-0.165,-0.1,-0.08
-0.027,-0.05,-0.023,0.039,-0.002,-0.036,-0.054,-0.175,-0.205,-0.164,-0.1,-0.08
-0.021,-0.04,-0.019,0.031,0.0,-0.029,-0.056,-0.175,-0.203,-0.165,-0.1,-0.078
-0.039,-0.051,-0.012,0.045,-0.013,-0.032,-0.059,-0.176,-0.2,-0.164,-0.105,-0.074
-0.066,-0.073,-0.007,0.07,-0.029,-0.04,-0.063,-0.18,-0.2,-0.166,-0.105,-0.075
-0.064,-0.071,-0.007,0.068,-0.028,-0.039,-0.065,-0.18,-0.2,-0.17,-0.105,-0.078
-0.052,-0.068,-0.017,0.06,-0.017,-0.042,-0.065,-0.18,-0.2,-0.169,-0.105,-0.08
-0.042,-0.066,-0.023,0.054,-0.009,-0.044,-0.068,-0.18,-0.2,-0.172,-0.105,-0.08
-0.041,-0.062,-0.021,0.052,-0.01,-0.041,-0.071,-0.18,-0.204,-0.175,-0.107,-0.085
-0.04,-0.06,-0.019,0.05,-0.01,-0.039,-0.069,-0.18,-0.205,-0.174,-0.11,-0.085
-0.043,-0.062,-0.02,0.053,-0.011,-0.041,-0.065,-0.18,-0.205,-0.179,-0.113,-0.086
-0.052,-0.066,-0.013,0.059,-0.019,-0.039,-0.065,-0.18,-0.209,-0.18,-0.116,-0.09
-0.048,-0.065,-0.017,0.057,-0.015,-0.041,-0.064,-0.184,-0.21,-0.18,-0.119,-0.09
-0.055,-0.065,-0.01,0.06,-0.022,-0.038,-0.06,-0.185,-0.208,-0.18,-0.12,-0.09
-0.058,-0.065,-0.007,0.062,-0.025,-0.036,-0.06,-0.185,-0.205,-0.18,-0.115,-0.09
-0.033,-0.065,-0.032,0.049,0.0,-0.048,-0.062,-0.185,-0.205,-0.179,-0.115,-0.09
-0.028,-0.065,-0.037,0.047,0.005,-0.051,-0.065,-0.184,-0.203,-0.174,-0.115,-0.094
-0.032,-0.065,-0.033,0.049,0.001,-0.049,-0.065,-0.187,-0.199,-0.175,-0.115,-0.095
-0.032,-0.064,-0.032,0.048,0.0,-0.047,-0.065,-0.19,-0.2,-0.172,-0.115,-0.095
-0.045,-0.074,-0.029,0.059,-0.007,-0.051,-0.065,-0.19,-0.203,-0.169,-0.115,-0.095
-0.05,-0.079,-0.03,0.065,-0.01,-0.054,-0.064,-0.19,-0.205,-0.17,-0.115,-0.095
-0.047,-0.072,-0.024,0.06,-0.011,-0.048,-0.069,-0.19,-0.205,-0.166,-0.115,-0.094
-0.045,-0.068,-0.023,0.056,-0.011,-0.045,-0.071,-0.19,-0.209,-0.165,-0.115,-0.09
-0.042,-0.061,-0.02,0.051,-0.011,-0.04,-0.07,-0.19,-0.21,-0.164,-0.115,-0.09
-0.039,-0.056,-0.016,0.048,-0.011,-0.036,-0.07,-0.19,-0.209,-0.161,-0.114,-0.09
-0.045,-0.06,-0.015,0.053,-0.014,-0.037,-0.07,-0.19,-0.204,-0.159,-0.111,-0.09
-0.054,-0.068,-0.013,0.062,-0.02,-0.04,-0.07,-0.189,-0.199,-0.165,-0.109,-0.091
-0.047,-0.064,-0.017,0.056,-0.015,-0.041,-0.067,-0.19,-0.195,-0.17,-0.105,-0.086
-0.046,-0.058,-0.011,0.052,-0.017,-0.034,-0.063,-0.186,-0.189,-0.16,-0.102,-0.08
-0.03,-0.056,-0.026,0.043,-0.002,-0.041,-0.057,-0.173,-0.186,-0.15,-0.1,-0.075
-0.004,-0.048,-0.044,0.026,0.02,-0.046,-0.055,-0.153,-0.18,-0.141,-0.097,-0.069
-0.009,-0.047,-0.038,0.028,0.015,-0.042,-0.047,-0.128,-0.181,-0.148,-0.095,-0.063
-0.001,-0.041,-0.04,0.021,0.02,-0.04,-0.047,-0.135,-0.179,-0.153,-0.094,-0.061
0.007,-0.051,-0.058,0.023,0.033,-0.054,-0.072,-0.158,-0.185,-0.156,-0.093,-0.066
0.024,-0.07,-0.094,0.023,0.059,-0.082,-0.087,-0.177,-0.203,-0.154,-0.088,-0.07
0.038,-0.048,-0.085,0.005,0.062,-0.066,-0.085,-0.167,-0.197,-0.155,-0.092,-0.069
0.013,-0.036,-0.049,0.012,0.031,-0.042,-0.082,-0.181,-0.203,-0.156,-0.088,-0.071
-0.034,-0.052,-0.018,0.044,-0.008,-0.034,-0.082,-0.178,-0.196,-0.153,-0.097,-0.077
-0.073,-0.085,-0.012,0.079,-0.03,-0.048,-0.076,-0.185,-0.203,-0.181,-0.132,-0.083
-0.074,-0.079,-0.006,0.077,-0.034,-0.042,-0.086,-0.201,-0.2,-0.169,-0.126,-0.077
-0.077,-0.075,0.002,0.076,-0.039,-0.036,-0.071,-0.167,-0.207,-0.195,-0.136,-0.083
-0.066,-0.066,0.0,0.065,-0.033,-0.033,-0.058,-0.215,-0.212,-0.17,-0.123,-0.084
-0.175,-0.01,0.165,0.092,-0.17,0.078,0.167,-0.106,-0.24,-0.298,-0.212,-0.149
-0.287,0.108,0.394,0.089,-0.341,0.251,0.395,0.002,-0.271,-0.356,-0.218,-0.148
0.105,0.347,0.242,-0.226,-0.069,0.294,0.118,0.601,0.295,0.28,0.265,0.183
0.747,0.398,-0.349,-0.572,0.548,0.024,-0.297,0.72,1.304,1.437,0.939,0.584
0.835,0.15,-0.685,-0.492,0.76,-0.267,-0.52,-0.415,1.703,1.94,1.106,0.643
0.301,-0.186,-0.488,-0.057,0.395,-0.337,-0.309,-0.749,0.577,0.504,0.308,0.205
-0.092,-0.355,-0.263,0.223,0.086,-0.309,-0.019,-0.555,-0.569,-0.609,-0.267,-0.129
-0.09,-0.273,-0.183,0.182,0.046,-0.228,-0.014,-0.34,-0.393,-0.342,-0.17,-0.099
-0.076,-0.179,-0.102,0.128,0.013,-0.14,0.006,-0.108,-0.223,-0.267,-0.152,-0.091
-0.057,-0.098,-0.041,0.078,-0.007,-0.07,0.012,-0.097,-0.187,-0.187,-0.101,-0.055
-0.022,-0.042,-0.02,0.033,-0.001,-0.031,0.029,-0.014,-0.12,-0.147,-0.086,-0.037
-0.045,-0.028,0.018,0.036,-0.031,-0.005,0.039,-0.023,-0.127,-0.131,-0.082,-0.042
-0.052,-0.013,0.039,0.032,-0.045,0.012,0.032,0.0,-0.078,-0.092,-0.062,-0.032
-0.038,-0.007,0.031,0.022,-0.034,0.012,0.037,0.012,-0.076,-0.096,-0.063,-0.035
-0.024,0.006,0.03,0.009,-0.027,0.018,0.04,0.016,-0.042,-0.065,-0.043,-0.028
-0.013,0.014,0.027,-0.001,-0.02,0.02,0.053,0.036,-0.034,-0.067,-0.044,-0.029
0.003,0.025,0.023,-0.015,-0.01,0.024,0.051,0.047,-0.024,-0.042,-0.032,-0.02
-0.001,0.034,0.035,-0.017,-0.018,0.034,0.056,0.067,0.004,-0.03,-0.029,-0.017
-0.012,0.035,0.047,-0.012,-0.03,0.041,0.059,0.082,0.028,-0.007,-0.021,-0.011
-0.008,0.036,0.044,-0.015,-0.026,0.04,0.07,0.111,0.049,0.01,-0.01,-0.004
-0.006,0.04,0.045,-0.017,-0.025,0.042,0.069,0.129,0.069,0.025,0.001,-0.001
0.0,0.045,0.045,-0.023,-0.023,0.045,0.071,0.157,0.095,0.049,0.015,0.008
0.009,0.053,0.044,-0.032,-0.018,0.049,0.092,0.185,0.119,0.069,0.029,0.017
0.011,0.067,0.056,-0.039,-0.023,0.061,0.102,0.216,0.155,0.105,0.053,0.027
0.001,0.07,0.069,-0.036,-0.034,0.069,0.106,0.257,0.2,0.131,0.074,0.038
0.017,0.09,0.073,-0.054,-0.029,0.082,0.112,0.296,0.233,0.155,0.088,0.047
0.049,0.128,0.079,-0.089,-0.016,0.103,0.132,0.34,0.281,0.203,0.113,0.073
0.062,0.147,0.085,-0.105,-0.012,0.116,0.142,0.393,0.34,0.242,0.145,0.096
0.09,0.174,0.084,-0.133,0.003,0.129,0.146,0.458,0.407,0.296,0.177,0.108
0.12,0.213,0.093,-0.166,0.013,0.153,0.153,0.528,0.486,0.366,0.227,0.148
0.152,0.254,0.102,-0.203,0.025,0.178,0.148,0.598,0.567,0.443,0.288,0.187
0.203,0.298,0.095,-0.251,0.054,0.196,0.142,0.663,0.649,0.526,0.346,0.229
0.245,0.334,0.089,-0.29,0.077,0.212,0.138,0.724,0.733,0.602,0.404,0.273
0.275,0.358,0.084,-0.317,0.095,0.221,0.131,0.769,0.801,0.677,0.455,0.308
0.299,0.377,0.079,-0.338,0.11,0.228,0.127,0.781,0.833,0.729,0.505,0.347
0.301,0.374,0.073,-0.338,0.114,0.223,0.12,0.76,0.834,0.741,0.529,0.367
0.285,0.351,0.065,-0.318,0.11,0.208,0.112,0.696,0.778,0.699,0.511,0.361
0.256,0.316,0.06,-0.286,0.098,0.188,0.104,0.589,0.647,0.6,0.465,0.332
0.205,0.257,0.052,-0.232,0.077,0.154,0.096,0.445,0.474,0.451,0.382,0.277
0.14,0.187,0.047,-0.164,0.046,0.117,0.089,0.293,0.288,0.277,0.269,0.211
0.082,0.119,0.037,-0.1,0.022,0.078,0.08,0.158,0.127,0.127,0.16,0.139
0.037,0.057,0.02,-0.047,0.008,0.038,0.07,0.053,0.014,0.015,0.073,0.074
0.004,0.009,0.005,-0.007,-0.001,0.007,0.06,-0.02,-0.072,-0.062,0.008,0.029
-0.018,-0.026,-0.008,0.023,-0.004,-0.017,0.05,-0.071,-0.127,-0.102,-0.031,0.002
-0.033,-0.053,-0.02,0.043,-0.006,-0.036,0.04,-0.092,-0.151,-0.127,-0.062,-0.016
-0.037,-0.06,-0.024,0.049,-0.007,-0.042,0.03,-0.108,-0.161,-0.15,-0.081,-0.041
-0.047,-0.065,-0.018,0.056,-0.014,-0.041,0.024,-0.114,-0.16,-0.154,-0.09,-0.059
-0.063,-0.073,-0.011,0.068,-0.026,-0.042,0.026,-0.108,-0.158,-0.149,-0.097,-0.064
-0.064,-0.069,-0.005,0.067,-0.03,-0.036,0.022,-0.106,-0.155,-0.146,-0.095,-0.065
-0.066,-0.064,0.003,0.065,-0.034,-0.03,0.02,-0.102,-0.155,-0.142,-0.095,-0.065
-0.068,-0.06,0.009,0.064,-0.038,-0.025,0.02,-0.097,-0.152,-0.139,-0.092,-0.065
-0.065,-0.055,0.01,0.06,-0.038,-0.022,0.017,-0.096,-0.15,-0.135,-0.089,-0.065
-0.06,-0.051,0.01,0.055,-0.035,-0.02,0.014,-0.099,-0.15,-0.139,-0.091,-0.065
-0.057,-0.046,0.01,0.052,-0.033,-0.018,0.011,-0.102,-0.15,-0.14,-0.094,-0.065
-0.054,-0.044,0.01,0.049,-0.031,-0.017,0.008,-0.104,-0.15,-0.14,-0.095,-0.065
-0.052,-0.041,0.011,0.046,-0.031,-0.015,0.005,-0.108,-0.152,-0.145,-0.096,-0.065
-0.059,-0.039,0.02,0.049,-0.04,-0.009,0.004,-0.112,-0.155,-0.145,-0.101,-0.065
-0.057,-0.034,0.022,0.045,-0.039,-0.006,-0.004,-0.117,-0.158,-0.146,-0.1,-0.065
-0.055,-0.038,0.017,0.046,-0.035,-0.01,-0.011,-0.126,-0.163,-0.15,-0.102,-0.067
-0.065,-0.051,0.015,0.057,-0.04,-0.018,-0.018,-0.128,-0.166,-0.15,-0.109,-0.073
-0.065,-0.054,0.01,0.06,-0.037,-0.021,-0.026,-0.139,-0.181,-0.154,-0.115,-0.075
-0.065,-0.059,0.006,0.062,-0.036,-0.026,-0.032,-0.155,-0.192,-0.155,-0.12,-0.075
-0.066,-0.062,0.004,0.064,-0.035,-0.029,-0.039,-0.155,-0.189,-0.156,-0.12,-0.079
-0.065,-0.066,0.0,0.065,-0.032,-0.033,-0.04,-0.155,-0.193,-0.161,-0.12,-0.08
-0.06,-0.064,-0.004,0.063,-0.027,-0.034,-0.043,-0.155,-0.195,-0.164,-0.12,-0.08
-0.059,-0.066,-0.007,0.063,-0.025,-0.036,-0.045,-0.154,-0.194,-0.169,-0.12,-0.08
-0.07,-0.082,-0.012,0.076,-0.029,-0.047,-0.046,-0.157,-0.199,-0.17,-0.12,-0.079
-0.071,-0.086,-0.015,0.079,-0.028,-0.05,-0.05,-0.164,-0.2,-0.17,-0.12,-0.086
-0.069,-0.084,-0.015,0.077,-0.027,-0.05,-0.05,-0.17,-0.2,-0.174,-0.12,-0.091
-0.071,-0.085,-0.015,0.078,-0.027,-0.05,-0.05,-0.174,-0.204,-0.176,-0.12,-0.089
-0.069,-0.085,-0.016,0.077,-0.026,-0.05,-0.05,-0.179,-0.205,-0.173,-0.12,-0.09
-0.065,-0.09,-0.025,0.077,-0.02,-0.057,-0.05,-0.18,-0.205,-0.17,-0.121,-0.09
-0.06,-0.09,-0.031,0.075,-0.015,-0.06,-0.046,-0.18,-0.205,-0.17,-0.119,-0.089
-0.06,-0.09,-0.03,0.075,-0.015,-0.06,-0.045,-0.18,-0.205,-0.17,-0.126,-0.096
-0.06,-0.09,-0.03,0.075,-0.015,-0.06,-0.045,-0.18,-0.205,-0.17,-0.136,-0.102
-0.059,-0.089,-0.03,0.074,-0.015,-0.06,-0.045,-0.18,-0.205,-0.17,-0.135,-0.098
-0.061,-0.091,-0.03,0.076,-0.016,-0.06,-0.045,-0.18,-0.205,-0.174,-0.135,-0.096
-0.063,-0.094,-0.031,0.079,-0.015,-0.063,-0.046,-0.18,-0.205,-0.175,-0.135,-0.092
-0.06,-0.095,-0.035,0.078,-0.012,-0.065,-0.05,-0.18,-0.205,-0.176,-0.135,-0.09
-0.06,-0.095,-0.035,0.078,-0.012,-0.065,-0.05,-0.18,-0.205,-0.18,-0.135,-0.092
-0.06,-0.095,-0.035,0.078,-0.012,-0.065,-0.052,-0.18,-0.205,-0.179,-0.135,-0.097
-0.06,-0.095,-0.035,0.078,-0.012,-0.065,-0.056,-0.179,-0.205,-0.182,-0.135,-0.099
-0.058,-0.093,-0.035,0.076,-0.011,-0.064,-0.054,-0.182,-0.203,-0.185,-0.134,-0.096
-0.058,-0.089,-0.032,0.074,-0.013,-0.06,-0.059,-0.185,-0.2,-0.185,-0.136,-0.093
-0.061,-0.09,-0.029,0.076,-0.016,-0.06,-0.06,-0.185,-0.197,-0.185,-0.14,-0.09
-0.064,-0.09,-0.026,0.078,-0.019,-0.057,-0.06,-0.189,-0.195,-0.185,-0.14,-0.088
-0.066,-0.09,-0.023,0.078,-0.021,-0.056,-0.064,-0.19,-0.192,-0.185,-0.142,-0.083
-0.07,-0.09,-0.02,0.08,-0.025,-0.055,-0.065,-0.189,-0.189,-0.185,-0.146,-0.091
-0.07,-0.089,-0.019,0.08,-0.025,-0.054,-0.064,-0.19,-0.194,-0.185,-0.145,-0.101
-0.055,-0.091,-0.036,0.073,-0.009,-0.063,-0.06,-0.19,-0.195,-0.184,-0.142,-0.099
-0.049,-0.089,-0.04,0.069,-0.004,-0.065,-0.06,-0.19,-0.195,-0.179,-0.139,-0.1
-0.057,-0.091,-0.034,0.074,-0.012,-0.062,-0.06,-0.19,-0.195,-0.176,-0.136,-0.1
-0.057,-0.09,-0.032,0.073,-0.012,-0.061,-0.06,-0.191,-0.196,-0.173,-0.133,-0.1
-0.062,-0.088,-0.026,0.075,-0.018,-0.057,-0.06,-0.187,-0.195,-0.169,-0.131,-0.098
-0.058,-0.083,-0.025,0.071,-0.016,-0.054,-0.056,-0.178,-0.187,-0.165,-0.128,-0.092
-0.044,-0.078,-0.035,0.061,-0.005,-0.056,-0.053,-0.171,-0.183,-0.162,-0.125,-0.087
-0.044,-0.097,-0.053,0.071,0.004,-0.075,-0.048,-0.162,-0.175,-0.159,-0.122,-0.084
-0.026,-0.086,-0.06,0.056,0.017,-0.073,-0.048,-0.158,-0.173,-0.156,-0.119,-0.078
-0.001,-0.07,-0.068,0.036,0.033,-0.069,-0.038,-0.143,-0.161,-0.154,-0.117,-0.076
0.004,-0.068,-0.072,0.033,0.038,-0.07,-0.046,-0.152,-0.158,-0.149,-0.114,-0.079
0.004,-0.076,-0.079,0.036,0.042,-0.077,-0.067,-0.176,-0.184,-0.15,-0.119,-0.081
0.016,-0.087,-0.103,0.035,0.06,-0.095,-0.073,-0.185,-0.183,-0.143,-0.121,-0.078
0.014,-0.063,-0.077,0.025,0.046,-0.07,-0.083,-0.174,-0.176,-0.144,-0.125,-0.081
-0.001,-0.052,-0.051,0.027,0.026,-0.052,-0.085,-0.185,-0.174,-0.139,-0.129,-0.079
-0.015,-0.067,-0.053,0.041,0.019,-0.06,-0.079,-0.178,-0.17,-0.147,-0.129,-0.084
-0.048,-0.093,-0.045,0.071,-0.002,-0.068,-0.072,-0.201,-0.203,-0.172,-0.141,-0.107
-0.043,-0.087,-0.043,0.065,0.0,-0.065,-0.075,-0.207,-0.197,-0.156,-0.139,-0.109
-0.065,-0.094,-0.029,0.08,-0.018,-0.061,-0.06,-0.172,-0.202,-0.177,-0.155,-0.116
-0.096,-0.082,0.014,0.089,-0.055,-0.034,-0.05,-0.211,-0.2,-0.158,-0.144,-0.111
-0.194,-0.027,0.167,0.11,-0.181,0.07,0.197,-0.093,-0.25,-0.333,-0.258,-0.178
-0.255,0.117,0.372,0.068,-0.314,0.245,0.407,0.049,-0.23,-0.331,-0.227,-0.146
0.181,0.324,0.143,-0.253,0.019,0.233,0.073,0.682,0.445,0.408,0.322,0.222
0.778,0.311,-0.466,-0.544,0.622,-0.078,-0.35,0.599,1.455,1.616,0.999,0.614
0.738,0.096,-0.641,-0.416,0.689,-0.272,-0.487,-0.572,1.664,1.908,1.049,0.617
0.175,-0.216,-0.391,0.021,0.283,-0.303,-0.206,-0.73,0.389,0.305,0.206,0.161
-0.125,-0.359,-0.234,0.242,0.055,-0.296,0.05,-0.518,-0.588,-0.598,-0.271,-0.136
-0.106,-0.273,-0.167,0.19,0.031,-0.22,0.055,-0.311,-0.332,-0.299,-0.176,-0.108
-0.071,-0.185,-0.114,0.128,0.021,-0.149,0.081,-0.095,-0.226,-0.28,-0.172,-0.089
-0.055,-0.111,-0.056,0.083,0.001,-0.083,0.054,-0.104,-0.166,-0.173,-0.11,-0.054
-0.067,-0.073,-0.005,0.07,-0.031,-0.039,0.049,-0.03,-0.097,-0.139,-0.097,-0.048
-0.059,-0.036,0.023,0.047,-0.04,-0.006,0.05,-0.034,-0.103,-0.116,-0.087,-0.052
-0.06,-0.015,0.045,0.037,-0.052,0.015,0.048,-0.007,-0.068,-0.09,-0.075,-0.048
-0.054,-0.01,0.043,0.032,-0.048,0.016,0.052,-0.001,-0.074,-0.087,-0.073,-0.052
-0.039,-0.002,0.038,0.021,-0.038,0.018,0.048,0.005,-0.028,-0.049,-0.059,-0.049
-0.034,0.003,0.038,0.015,-0.036,0.02,0.052,0.02,-0.019,-0.048,-0.06,-0.049
-0.018,0.011,0.029,0.003,-0.024,0.02,0.051,0.033,0.002,-0.024,-0.047,-0.042
-0.016,0.017,0.033,0.0,-0.025,0.024,0.056,0.059,0.027,-0.009,-0.038,-0.039
-0.033,0.019,0.052,0.006,-0.042,0.035,0.058,0.076,0.04,0.02,-0.024,-0.035
-0.034,0.023,0.057,0.005,-0.046,0.04,0.061,0.097,0.067,0.028,-0.016,-0.028
-0.029,0.025,0.053,0.001,-0.041,0.039,0.064,0.115,0.093,0.038,-0.006,-0.017
-0.025,0.031,0.056,-0.004,-0.041,0.043,0.067,0.137,0.113,0.064,0.001,-0.008
-0.002,0.052,0.054,-0.026,-0.028,0.053,0.078,0.167,0.144,0.086,0.018,0.004
0.004,0.06,0.056,-0.032,-0.026,0.057,0.086,0.202,0.174,0.112,0.044,0.015
-0.001,0.076,0.077,-0.038,-0.039,0.076,0.093,0.224,0.209,0.139,0.069,0.029
0.017,0.097,0.08,-0.057,-0.032,0.089,0.106,0.271,0.255,0.173,0.088,0.052
0.037,0.12,0.083,-0.079,-0.023,0.101,0.118,0.325,0.309,0.223,0.113,0.08
0.063,0.148,0.085,-0.106,-0.011,0.116,0.127,0.369,0.363,0.27,0.149,0.098
0.089,0.176,0.087,-0.133,0.001,0.131,0.135,0.427,0.427,0.324,0.189,0.121
0.117,0.214,0.097,-0.166,0.01,0.156,0.139,0.497,0.514,0.397,0.24,0.158
0.172,0.255,0.083,-0.213,0.044,0.169,0.135,0.57,0.6,0.475,0.292,0.188
0.208,0.303,0.095,-0.255,0.056,0.199,0.127,0.633,0.692,0.559,0.357,0.225
0.236,0.335,0.099,-0.286,0.069,0.217,0.121,0.69,0.765,0.64,0.416,0.273
0.281,0.36,0.079,-0.321,0.1,0.219,0.114,0.72,0.834,0.713,0.472,0.32
0.299,0.376,0.077,-0.338,0.111,0.226,0.108,0.721,0.872,0.771,0.52,0.353
0.312,0.382,0.07,-0.347,0.121,0.226,0.102,0.711,0.839,0.781,0.53,0.366
0.29,0.359,0.069,-0.325,0.11,0.214,0.096,0.655,0.773,0.717,0.511,0.361
0.242,0.306,0.064,-0.274,0.089,0.185,0.089,0.531,0.628,0.584,0.45,0.319
0.191,0.251,0.061,-0.221,0.065,0.156,0.083,0.383,0.434,0.41,0.352,0.256
0.123,0.18,0.057,-0.152,0.033,0.118,0.076,0.244,0.25,0.236,0.237,0.189
0.059,0.102,0.043,-0.081,0.007,0.072,0.066,0.117,0.094,0.096,0.139,0.114
0.003,0.037,0.034,-0.02,-0.016,0.035,0.054,0.022,-0.016,0.0,0.06,0.049
-0.022,-0.006,0.016,0.013,-0.019,0.005,0.043,-0.037,-0.098,-0.076,-0.008,0.013
-0.042,-0.038,0.004,0.04,-0.023,-0.017,0.033,-0.089,-0.153,-0.132,-0.057,-0.022
-0.041,-0.052,-0.011,0.047,-0.015,-0.031,0.026,-0.115,-0.176,-0.15,-0.083,-0.05
-0.03,-0.068,-0.038,0.05,0.004,-0.053,0.021,-0.116,-0.181,-0.156,-0.089,-0.049
-0.041,-0.074,-0.033,0.058,-0.004,-0.053,0.016,-0.112,-0.182,-0.159,-0.099,-0.061
-0.042,-0.065,-0.023,0.054,-0.009,-0.044,0.01,-0.11,-0.179,-0.154,-0.101,-0.072
-0.045,-0.062,-0.017,0.053,-0.014,-0.039,0.005,-0.106,-0.175,-0.151,-0.099,-0.069
-0.046,-0.054,-0.008,0.051,-0.019,-0.031,0.001,-0.105,-0.172,-0.148,-0.101,-0.071
-0.052,-0.05,0.002,0.051,-0.026,-0.024,-0.002,-0.105,-0.167,-0.143,-0.1,-0.07
-0.06,-0.044,0.016,0.052,-0.038,-0.014,-0.004,-0.105,-0.165,-0.14,-0.1,-0.07
-0.054,-0.038,0.017,0.046,-0.035,-0.011,-0.008,-0.105,-0.17,-0.14,-0.1,-0.074
-0.045,-0.03,0.014,0.037,-0.029,-0.008,-0.01,-0.105,-0.17,-0.14,-0.1,-0.075
-0.04,-0.025,0.015,0.033,-0.028,-0.005,-0.013,-0.106,-0.17,-0.14,-0.1,-0.075
-0.025,-0.015,0.01,0.02,-0.017,-0.002,-0.025,-0.104,-0.17,-0.14,-0.1,-0.075
-0.037,-0.027,0.01,0.032,-0.023,-0.008,-0.038,-0.118,-0.17,-0.14,-0.1,-0.076
-0.061,-0.052,0.009,0.056,-0.035,-0.021,-0.045,-0.14,-0.172,-0.141,-0.104,-0.08
-0.042,-0.049,-0.007,0.046,-0.017,-0.028,-0.045,-0.141,-0.179,-0.148,-0.105,-0.08
-0.039,-0.051,-0.013,0.045,-0.013,-0.032,-0.046,-0.139,-0.185,-0.154,-0.105,-0.08
-0.047,-0.056,-0.009,0.051,-0.019,-0.032,-0.051,-0.144,-0.191,-0.157,-0.105,-0.08
-0.043,-0.054,-0.011,0.049,-0.015,-0.032,-0.049,-0.156,-0.198,-0.162,-0.106,-0.08
-0.049,-0.058,-0.009,0.054,-0.02,-0.033,-0.053,-0.163,-0.202,-0.165,-0.115,-0.081
-0.048,-0.06,-0.012,0.054,-0.018,-0.036,-0.055,-0.169,-0.206,-0.168,-0.124,-0.079
-0.055,-0.06,-0.005,0.057,-0.025,-0.032,-0.055,-0.175,-0.208,-0.172,-0.125,-0.083
-0.07,-0.063,0.006,0.066,-0.038,-0.029,-0.059,-0.18,-0.213,-0.175,-0.125,-0.091
-0.067,-0.065,0.001,0.066,-0.033,-0.032,-0.06,-0.188,-0.214,-0.175,-0.129,-0.09
-0.064,-0.065,-0.001,0.064,-0.031,-0.032,-0.06,-0.19,-0.211,-0.175,-0.13,-0.09
-0.059,-0.065,-0.006,0.063,-0.026,-0.036,-0.06,-0.193,-0.208,-0.175,-0.13,-0.09
-0.056,-0.065,-0.009,0.06,-0.023,-0.037,-0.06,-0.196,-0.205,-0.175,-0.13,-0.09
-0.056,-0.065,-0.009,0.061,-0.023,-0.037,-0.06,-0.199,-0.203,-0.175,-0.13,-0.091
-0.063,-0.065,-0.002,0.065,-0.03,-0.034,-0.06,-0.2,-0.198,-0.176,-0.13,-0.096
-0.062,-0.064,-0.003,0.063,-0.029,-0.033,-0.061,-0.195,-0.208,-0.18,-0.13,-0.1
-0.044,-0.068,-0.024,0.056,-0.01,-0.045,-0.057,-0.195,-0.217,-0.179,-0.13,-0.099
-0.045,-0.07,-0.025,0.058,-0.01,-0.047,-0.055,-0.195,-0.214,-0.182,-0.13,-0.103
-0.05,-0.07,-0.02,0.06,-0.015,-0.045,-0.055,-0.195,-0.215,-0.185,-0.13,-0.105
-0.054,-0.073,-0.019,0.064,-0.017,-0.046,-0.056,-0.196,-0.215,-0.185,-0.13,-0.105
-0.061,-0.076,-0.015,0.069,-0.023,-0.045,-0.054,-0.192,-0.215,-0.185,-0.13,-0.109
-0.06,-0.074,-0.014,0.067,-0.023,-0.044,-0.057,-0.19,-0.215,-0.185,-0.129,-0.11
-0.062,-0.071,-0.009,0.067,-0.027,-0.04,-0.069,-0.19,-0.215,-0.185,-0.131,-0.11
-0.065,-0.068,-0.004,0.067,-0.03,-0.035,-0.071,-0.186,-0.215,-0.185,-0.135,-0.11
-0.066,-0.065,0.0,0.065,-0.033,-0.032,-0.069,-0.184,-0.215,-0.185,-0.135,-0.11
-0.067,-0.063,0.005,0.065,-0.036,-0.029,-0.066,-0.186,-0.215,-0.184,-0.135,-0.109
-0.07,-0.059,0.01,0.064,-0.04,-0.024,-0.065,-0.189,-0.215,-0.18,-0.135,-0.105
-0.068,-0.063,0.006,0.065,-0.037,-0.028,-0.064,-0.19,-0.215,-0.18,-0.135,-0.105
-0.066,-0.065,0.0,0.066,-0.033,-0.032,-0.06,-0.191,-0.215,-0.18,-0.131,-0.103
-0.054,-0.065,-0.011,0.06,-0.021,-0.038,-0.06,-0.195,-0.215,-0.18,-0.129,-0.099
-0.039,-0.069,-0.03,0.054,-0.004,-0.049,-0.06,-0.195,-0.215,-0.18,-0.13,-0.1
-0.045,-0.071,-0.025,0.058,-0.01,-0.048,-0.06,-0.192,-0.215,-0.176,-0.129,-0.103
-0.054,-0.069,-0.016,0.062,-0.019,-0.042,-0.06,-0.19,-0.212,-0.174,-0.13,-0.105
-0.053,-0.066,-0.013,0.059,-0.019,-0.039,-0.063,-0.19,-0.209,-0.176,-0.129,-0.105
-0.064,-0.065,0.0,0.065,-0.031,-0.032,-0.065,-0.19,-0.207,-0.175,-0.125,-0.105
-0.058,-0.064,-0.007,0.061,-0.025,-0.035,-0.064,-0.189,-0.203,-0.176,-0.125,-0.105
-0.042,-0.059,-0.017,0.051,-0.013,-0.037,-0.065,-0.19,-0.2,-0.173,-0.125,-0.104
-0.052,-0.061,-0.008,0.057,-0.022,-0.034,-0.065,-0.182,-0.199,-0.166,-0.125,-0.098
-0.038,-0.056,-0.018,0.047,-0.01,-0.037,-0.064,-0.172,-0.19,-0.156,-0.125,-0.091
-0.017,-0.039,-0.021,0.028,0.002,-0.03,-0.052,-0.153,-0.179,-0.148,-0.122,-0.086
-0.026,-0.04,-0.014,0.033,-0.006,-0.026,-0.047,-0.134,-0.178,-0.143,-0.116,-0.081
-0.015,-0.042,-0.028,0.029,0.007,-0.035,-0.059,-0.142,-0.189,-0.149,-0.111,-0.078
0.021,-0.052,-0.073,0.016,0.047,-0.062,-0.057,-0.16,-0.202,-0.163,-0.109,-0.072
0.001,-0.066,-0.067,0.032,0.034,-0.066,-0.068,-0.163,-0.197,-0.156,-0.1,-0.07
-0.033,-0.064,-0.032,0.049,0.0,-0.048,-0.068,-0.153,-0.194,-0.161,-0.103,-0.077
-0.039,-0.066,-0.027,0.052,-0.005,-0.046,-0.073,-0.169,-0.192,-0.149,-0.104,-0.073
-0.047,-0.064,-0.017,0.055,-0.014,-0.04,-0.067,-0.158,-0.193,-0.169,-0.129,-0.085
-0.051,-0.067,-0.016,0.059,-0.017,-0.041,-0.066,-0.194,-0.214,-0.182,-0.142,-0.095
-0.061,-0.06,0.001,0.061,-0.031,-0.029,-0.067,-0.157,-0.195,-0.176,-0.137,-0.1
-0.048,-0.061,-0.013,0.055,-0.018,-0.037,-0.054,-0.176,-0.214,-0.186,-0.144,-0.109
-0.097,-0.052,0.046,0.074,-0.071,-0.003,0.008,-0.155,-0.21,-0.194,-0.154,-0.115
-0.255,0.024,0.279,0.115,-0.267,0.152,0.32,-0.049,-0.301,-0.402,-0.279,-0.184
-0.171,0.226,0.396,-0.028,-0.284,0.311,0.345,0.219,-0.115,-0.181,-0.079,-0.042
0.404,0.409,0.006,-0.407,0.199,0.207,-0.05,0.903,0.79,0.788,0.575,0.379
0.854,0.322,-0.532,-0.588,0.693,-0.105,-0.428,0.27,1.695,1.916,1.142,0.691
0.577,0.012,-0.565,-0.294,0.571,-0.276,-0.496,-0.74,1.407,1.545,0.861,0.516
0.059,-0.29,-0.349,0.116,0.204,-0.319,-0.138,-0.654,-0.077,-0.18,-0.038,0.03
-0.103,-0.321,-0.218,0.212,0.058,-0.269,0.027,-0.474,-0.598,-0.553,-0.256,-0.139
-0.084,-0.22,-0.136,0.152,0.027,-0.178,0.034,-0.184,-0.263,-0.263,-0.16,-0.105
-0.071,-0.135,-0.063,0.103,-0.004,-0.099,0.059,-0.084,-0.237,-0.263,-0.161,-0.082
-0.042,-0.043,-0.001,0.042,-0.02,-0.022,0.032,-0.049,-0.143,-0.151,-0.087,-0.06
-0.035,-0.009,0.026,0.021,-0.031,0.009,0.042,0.011,-0.119,-0.151,-0.083,-0.066
-0.025,0.019,0.044,0.003,-0.035,0.031,0.026,-0.003,-0.097,-0.113,-0.06,-0.053
-0.032,0.026,0.058,0.003,-0.046,0.041,0.027,0.032,-0.08,-0.108,-0.062,-0.052
-0.036,0.024,0.061,0.006,-0.049,0.042,0.031,0.026,-0.076,-0.083,-0.053,-0.045
-0.029,0.025,0.055,0.002,-0.043,0.04,0.032,0.044,-0.051,-0.071,-0.044,-0.039
-0.03,0.025,0.054,0.002,-0.042,0.039,0.042,0.05,-0.043,-0.056,-0.042,-0.033
-0.025,0.025,0.049,0.0,-0.037,0.036,0.066,0.07,-0.008,-0.024,-0.031,-0.025
-0.021,0.03,0.051,-0.005,-0.036,0.04,0.073,0.087,0.011,-0.022,-0.024,-0.02
-0.017,0.05,0.067,-0.017,-0.042,0.059,0.067,0.104,0.031,-0.009,-0.011,-0.012
-0.029,0.043,0.071,-0.007,-0.05,0.057,0.073,0.132,0.058,0.011,0.0,-0.004
-0.023,0.046,0.069,-0.011,-0.046,0.057,0.073,0.156,0.081,0.043,0.012,0.004
0.004,0.075,0.071,-0.04,-0.034,0.073,0.083,0.179,0.105,0.062,0.028,0.012
0.026,0.094,0.068,-0.06,-0.021,0.081,0.093,0.206,0.142,0.08,0.043,0.019
0.031,0.105,0.074,-0.068,-0.022,0.089,0.099,0.242,0.173,0.111,0.062,0.031
0.037,0.123,0.086,-0.08,-0.025,0.104,0.114,0.275,0.211,0.142,0.079,0.047
0.053,0.152,0.098,-0.103,-0.023,0.125,0.127,0.317,0.257,0.173,0.1,0.066
0.059,0.173,0.113,-0.116,-0.027,0.143,0.138,0.372,0.311,0.22,0.135,0.086
0.073,0.19,0.117,-0.132,-0.022,0.153,0.15,0.429,0.371,0.268,0.171,0.107
0.11,0.223,0.113,-0.167,-0.002,0.168,0.154,0.493,0.442,0.331,0.208,0.138
0.142,0.261,0.118,-0.202,0.012,0.189,0.159,0.563,0.524,0.4,0.254,0.171
0.171,0.299,0.128,-0.235,0.021,0.213,0.163,0.639,0.613,0.484,0.319,0.216
0.215,0.336,0.121,-0.276,0.047,0.229,0.156,0.706,0.7,0.572,0.386,0.263
0.254,0.365,0.111,-0.31,0.071,0.238,0.149,0.761,0.778,0.649,0.444,0.305
0.296,0.399,0.103,-0.348,0.096,0.251,0.141,0.8,0.841,0.723,0.509,0.351
0.312,0.406,0.093,-0.359,0.109,0.249,0.134,0.792,0.852,0.749,0.537,0.369
0.312,0.398,0.086,-0.355,0.112,0.242,0.127,0.754,0.815,0.734,0.537,0.371
0.304,0.383,0.079,-0.344,0.112,0.23,0.119,0.669,0.726,0.665,0.515,0.366
0.246,0.319,0.073,-0.283,0.087,0.196,0.113,0.53,0.571,0.527,0.444,0.327
0.178,0.243,0.065,-0.21,0.056,0.154,0.106,0.384,0.388,0.368,0.342,0.266
0.118,0.173,0.055,-0.146,0.031,0.114,0.098,0.241,0.206,0.199,0.226,0.186
0.067,0.111,0.045,-0.089,0.011,0.078,0.088,0.12,0.066,0.067,0.128,0.116
0.027,0.058,0.032,-0.043,-0.003,0.045,0.076,0.03,-0.044,-0.024,0.059,0.065
-0.01,0.01,0.019,0.0,-0.015,0.014,0.065,-0.03,-0.115,-0.085,0.006,0.021
-0.028,-0.017,0.011,0.022,-0.02,-0.003,0.054,-0.069,-0.145,-0.117,-0.031,-0.006
-0.036,-0.034,0.002,0.035,-0.019,-0.016,0.042,-0.084,-0.168,-0.139,-0.058,-0.02
-0.038,-0.043,-0.005,0.041,-0.016,-0.024,0.035,-0.08,-0.164,-0.141,-0.069,-0.027
-0.035,-0.04,-0.005,0.038,-0.015,-0.022,0.032,-0.078,-0.165,-0.136,-0.076,-0.035
-0.035,-0.04,-0.005,0.038,-0.015,-0.022,0.028,-0.075,-0.165,-0.132,-0.079,-0.043
-0.031,-0.037,-0.005,0.035,-0.013,-0.021,0.025,-0.072,-0.165,-0.128,-0.075,-0.045
-0.03,-0.034,-0.005,0.033,-0.012,-0.02,0.021,-0.069,-0.165,-0.122,-0.075,-0.045
-0.03,-0.036,-0.006,0.033,-0.012,-0.021,0.017,-0.074,-0.157,-0.121,-0.073,-0.045
-0.036,-0.035,0.002,0.036,-0.018,-0.016,0.015,-0.076,-0.153,-0.126,-0.07,-0.045
-0.053,-0.035,0.018,0.044,-0.035,-0.008,0.012,-0.075,-0.147,-0.125,-0.07,-0.045
-0.062,-0.035,0.027,0.048,-0.044,-0.004,0.009,-0.081,-0.142,-0.125,-0.074,-0.047
-0.059,-0.035,0.024,0.047,-0.041,-0.005,0.006,-0.079,-0.135,-0.125,-0.076,-0.05
-0.053,-0.035,0.018,0.044,-0.035,-0.008,0.004,-0.083,-0.146,-0.125,-0.075,-0.05
-0.05,-0.035,0.015,0.042,-0.032,-0.01,0.001,-0.083,-0.159,-0.127,-0.075,-0.05
-0.045,-0.035,0.01,0.04,-0.027,-0.012,-0.004,-0.095,-0.163,-0.133,-0.077,-0.054
-0.04,-0.035,0.005,0.037,-0.022,-0.015,-0.006,-0.115,-0.17,-0.136,-0.08,-0.055
-0.036,-0.035,0.001,0.036,-0.018,-0.017,-0.011,-0.117,-0.176,-0.141,-0.083,-0.055
-0.034,-0.035,-0.001,0.035,-0.016,-0.017,-0.014,-0.12,-0.183,-0.144,-0.085,-0.055
-0.036,-0.035,0.0,0.035,-0.018,-0.017,-0.018,-0.123,-0.189,-0.147,-0.089,-0.055
-0.04,-0.041,0.0,0.041,-0.02,-0.02,-0.021,-0.127,-0.194,-0.15,-0.09,-0.056
-0.046,-0.045,0.001,0.046,-0.023,-0.022,-0.019,-0.132,-0.195,-0.152,-0.09,-0.06
-0.043,-0.045,-0.001,0.044,-0.02,-0.023,-0.024,-0.135,-0.195,-0.155,-0.095,-0.06
-0.04,-0.045,-0.005,0.043,-0.017,-0.025,-0.025,-0.135,-0.195,-0.155,-0.095,-0.06
-0.04,-0.045,-0.004,0.043,-0.017,-0.025,-0.025,-0.135,-0.194,-0.155,-0.096,-0.06
-0.037,-0.045,-0.008,0.042,-0.014,-0.026,-0.03,-0.136,-0.196,-0.16,-0.1,-0.06
-0.034,-0.044,-0.01,0.039,-0.012,-0.027,-0.03,-0.135,-0.2,-0.16,-0.1,-0.06
-0.03,-0.041,-0.011,0.035,-0.01,-0.026,-0.03,-0.135,-0.2,-0.161,-0.1,-0.063
-0.034,-0.039,-0.006,0.037,-0.014,-0.022,-0.03,-0.133,-0.2,-0.165,-0.1,-0.066
-0.039,-0.041,-0.002,0.04,-0.018,-0.021,-0.041,-0.13,-0.2,-0.165,-0.1,-0.064
-0.042,-0.038,0.004,0.04,-0.023,-0.017,-0.046,-0.129,-0.2,-0.162,-0.1,-0.066
-0.049,-0.047,0.002,0.048,-0.025,-0.022,-0.044,-0.143,-0.2,-0.16,-0.1,-0.064
-0.036,-0.061,-0.025,0.048,-0.005,-0.043,-0.049,-0.152,-0.2,-0.16,-0.1,-0.07
-0.028,-0.059,-0.031,0.044,0.001,-0.045,-0.05,-0.149,-0.2,-0.156,-0.1,-0.081
-0.039,-0.061,-0.022,0.051,-0.009,-0.041,-0.049,-0.15,-0.2,-0.154,-0.1,-0.078
-0.044,-0.065,-0.021,0.055,-0.011,-0.042,-0.046,-0.15,-0.2,-0.156,-0.101,-0.075
-0.051,-0.065,-0.015,0.058,-0.018,-0.04,-0.045,-0.15,-0.2,-0.159,-0.105,-0.072
-0.053,-0.063,-0.01,0.058,-0.021,-0.036,-0.045,-0.145,-0.2,-0.16,-0.105,-0.07
-0.035,-0.059,-0.024,0.048,-0.006,-0.041,-0.045,-0.145,-0.2,-0.161,-0.105,-0.068
-0.028,-0.061,-0.033,0.044,0.002,-0.047,-0.045,-0.144,-0.2,-0.165,-0.105,-0.064
-0.03,-0.056,-0.026,0.043,-0.002,-0.041,-0.047,-0.14,-0.2,-0.165,-0.105,-0.065
-0.029,-0.055,-0.026,0.043,-0.001,-0.04,-0.051,-0.14,-0.2,-0.163,-0.101,-0.061
-0.034,-0.055,-0.021,0.044,-0.006,-0.037,-0.054,-0.142,-0.2,-0.159,-0.099,-0.059
-0.03,-0.05,-0.021,0.04,-0.004,-0.035,-0.058,-0.145,-0.2,-0.16,-0.1,-0.061
-0.037,-0.05,-0.013,0.044,-0.012,-0.031,-0.06,-0.145,-0.2,-0.16,-0.1,-0.064
-0.056,-0.05,0.006,0.053,-0.031,-0.022,-0.06,-0.145,-0.2,-0.16,-0.1,-0.065
-0.054,-0.05,0.004,0.052,-0.029,-0.023,-0.06,-0.145,-0.2,-0.16,-0.098,-0.065
-0.048,-0.05,-0.001,0.049,-0.024,-0.025,-0.06,-0.145,-0.198,-0.155,-0.095,-0.065
-0.047,-0.053,-0.006,0.05,-0.02,-0.029,-0.06,-0.141,-0.196,-0.156,-0.093,-0.065
-0.048,-0.057,-0.009,0.053,-0.019,-0.033,-0.06,-0.136,-0.193,-0.154,-0.09,-0.065
-0.047,-0.062,-0.015,0.055,-0.016,-0.038,-0.058,-0.134,-0.19,-0.15,-0.087,-0.065
-0.046,-0.064,-0.018,0.055,-0.014,-0.041,-0.051,-0.129,-0.186,-0.15,-0.084,-0.064
-0.038,-0.061,-0.022,0.049,-0.008,-0.041,-0.044,-0.126,-0.184,-0.147,-0.085,-0.066
-0.016,-0.056,-0.04,0.036,0.012,-0.048,-0.037,-0.119,-0.189,-0.134,-0.084,-0.064
-0.02,-0.052,-0.032,0.036,0.007,-0.042,-0.032,-0.097,-0.19,-0.123,-0.085,-0.061
-0.024,-0.05,-0.025,0.037,0.0,-0.037,-0.033,-0.093,-0.191,-0.127,-0.085,-0.06
-0.004,-0.046,-0.042,0.026,0.02,-0.044,-0.044,-0.104,-0.189,-0.137,-0.085,-0.056
0.039,-0.045,-0.084,0.003,0.062,-0.064,-0.06,-0.119,-0.192,-0.145,-0.085,-0.055
0.05,-0.04,-0.09,-0.005,0.07,-0.065,-0.064,-0.122,-0.194,-0.136,-0.078,-0.054
0.006,-0.041,-0.047,0.017,0.027,-0.044,-0.051,-0.117,-0.198,-0.146,-0.081,-0.057
-0.014,-0.045,-0.03,0.03,0.008,-0.037,-0.051,-0.133,-0.202,-0.133,-0.07,-0.051
-0.03,-0.058,-0.029,0.044,0.0,-0.043,-0.037,-0.119,-0.203,-0.155,-0.089,-0.063
-0.052,-0.073,-0.022,0.063,-0.015,-0.047,-0.037,-0.159,-0.206,-0.174,-0.105,-0.076
-0.049,-0.063,-0.014,0.056,-0.017,-0.038,-0.026,-0.12,-0.193,-0.178,-0.105,-0.075
-0.047,-0.064,-0.017,0.056,-0.015,-0.04,-0.026,-0.142,-0.208,-0.187,-0.105,-0.074
-0.115,-0.044,0.071,0.079,-0.093,0.014,0.042,-0.112,-0.197,-0.195,-0.121,-0.091
-0.265,0.033,0.298,0.116,-0.282,0.165,0.354,-0.011,-0.282,-0.371,-0.23,-0.154
-0.154,0.241,0.394,-0.044,-0.274,0.317,0.336,0.304,-0.051,-0.098,0.011,0.021
0.46,0.419,-0.041,-0.44,0.25,0.189,-0.068,0.953,0.832,0.863,0.654,0.439
0.908,0.303,-0.606,-0.605,0.757,-0.152,-0.43,0.245,1.689,1.931,1.162,0.706
0.583,-0.029,-0.612,-0.277,0.598,-0.32,-0.449,-0.684,1.322,1.414,0.8,0.485
0.045,-0.318,-0.362,0.137,0.204,-0.34,-0.086,-0.579,-0.148,-0.265,-0.062,0.009
-0.089,-0.331,-0.241,0.21,0.076,-0.286,0.045,-0.409,-0.567,-0.502,-0.206,-0.111
-0.092,-0.22,-0.128,0.156,0.019,-0.174,0.047,-0.122,-0.24,-0.239,-0.108,-0.069
-0.08,-0.132,-0.052,0.106,-0.013,-0.092,0.07,-0.039,-0.215,-0.235,-0.107,-0.056
-0.043,-0.064,-0.021,0.054,-0.011,-0.042,0.046,-0.002,-0.131,-0.129,-0.049,-0.021
-0.07,-0.036,0.034,0.053,-0.052,-0.001,0.058,0.053,-0.13,-0.137,-0.053,-0.024
-0.061,-0.018,0.042,0.04,-0.051,0.012,0.043,0.046,-0.091,-0.091,-0.03,-0.015
-0.063,-0.015,0.049,0.039,-0.056,0.017,0.047,0.075,-0.06,-0.088,-0.032,-0.016
-0.046,-0.009,0.038,0.027,-0.042,0.014,0.06,0.074,-0.051,-0.055,-0.022,-0.011
-0.044,-0.006,0.038,0.025,-0.041,0.016,0.069,0.102,-0.029,-0.04,-0.015,-0.009
-0.056,-0.001,0.055,0.029,-0.056,0.027,0.072,0.102,-0.017,-0.032,-0.012,-0.007
-0.041,0.005,0.047,0.018,-0.044,0.026,0.091,0.129,0.018,-0.004,-0.001,0.002
-0.039,0.013,0.052,0.013,-0.046,0.032,0.098,0.149,0.027,0.008,0.003,0.006
-0.032,0.018,0.05,0.007,-0.041,0.033,0.098,0.163,0.052,0.025,0.015,0.015
-0.019,0.03,0.048,-0.006,-0.034,0.039,0.102,0.193,0.078,0.039,0.027,0.02
-0.015,0.044,0.059,-0.015,-0.038,0.052,0.098,0.207,0.093,0.053,0.042,0.027
-0.015,0.05,0.066,-0.018,-0.041,0.058,0.112,0.234,0.129,0.084,0.065,0.034
0.012,0.073,0.061,-0.043,-0.024,0.066,0.13,0.262,0.157,0.113,0.08,0.045
0.021,0.078,0.057,-0.05,-0.018,0.067,0.13,0.29,0.181,0.121,0.093,0.057
0.032,0.09,0.057,-0.061,-0.012,0.073,0.131,0.334,0.232,0.161,0.117,0.07
0.053,0.128,0.074,-0.091,-0.011,0.101,0.145,0.376,0.272,0.201,0.134,0.092
0.054,0.145,0.091,-0.1,-0.019,0.118,0.155,0.425,0.325,0.235,0.164,0.109
0.073,0.169,0.096,-0.122,-0.012,0.132,0.168,0.48,0.384,0.288,0.2,0.127
0.098,0.209,0.111,-0.154,-0.007,0.16,0.172,0.544,0.45,0.348,0.233,0.159
0.135,0.248,0.113,-0.192,0.011,0.18,0.169,0.612,0.537,0.423,0.286,0.192
0.191,0.294,0.103,-0.242,0.044,0.198,0.17,0.684,0.625,0.508,0.347,0.231
0.224,0.323,0.098,-0.274,0.063,0.21,0.165,0.747,0.709,0.585,0.408,0.281
0.258,0.349,0.09,-0.304,0.084,0.219,0.165,0.803,0.784,0.662,0.466,0.32
0.296,0.381,0.085,-0.339,0.105,0.233,0.164,0.833,0.849,0.736,0.531,0.366
0.306,0.385,0.079,-0.346,0.113,0.232,0.156,0.825,0.86,0.774,0.568,0.403
0.307,0.379,0.072,-0.343,0.117,0.225,0.148,0.786,0.819,0.757,0.559,0.399
0.284,0.351,0.067,-0.318,0.108,0.209,0.14,0.694,0.721,0.667,0.523,0.379
0.234,0.291,0.057,-0.263,0.088,0.174,0.133,0.561,0.558,0.531,0.447,0.335
0.172,0.221,0.049,-0.196,0.061,0.135,0.124,0.404,0.38,0.367,0.349,0.262
0.109,0.15,0.04,-0.13,0.034,0.095,0.11,0.259,0.204,0.201,0.231,0.188
0.056,0.087,0.031,-0.072,0.013,0.059,0.093,0.142,0.06,0.082,0.136,0.126
0.004,0.034,0.03,-0.019,-0.013,0.032,0.078,0.046,-0.034,-0.005,0.074,0.073
-0.03,-0.003,0.027,0.016,-0.029,0.012,0.068,-0.002,-0.098,-0.07,0.021,0.037
-0.048,-0.03,0.018,0.039,-0.032,-0.006,0.055,-0.036,-0.14,-0.109,-0.01,0.011
-0.047,-0.04,0.007,0.043,-0.027,-0.016,0.044,-0.059,-0.152,-0.135,-0.037,-0.005
-0.045,-0.047,-0.002,0.046,-0.022,-0.024,0.04,-0.066,-0.147,-0.15,-0.055,-0.015
-0.04,-0.058,-0.018,0.049,-0.011,-0.038,0.038,-0.071,-0.145,-0.144,-0.055,-0.028
-0.027,-0.055,-0.028,0.041,0.001,-0.041,0.035,-0.07,-0.14,-0.138,-0.055,-0.037
-0.035,-0.055,-0.02,0.045,-0.007,-0.038,0.031,-0.068,-0.137,-0.133,-0.063,-0.042
-0.039,-0.053,-0.014,0.046,-0.012,-0.033,0.03,-0.065,-0.134,-0.127,-0.066,-0.044
-0.042,-0.049,-0.008,0.046,-0.017,-0.028,0.026,-0.065,-0.128,-0.123,-0.06,-0.041
-0.05,-0.05,-0.001,0.05,-0.024,-0.025,0.025,-0.065,-0.123,-0.119,-0.058,-0.038
-0.06,-0.053,0.007,0.057,-0.033,-0.023,0.025,-0.065,-0.118,-0.12,-0.053,-0.035
-0.067,-0.056,0.011,0.061,-0.038,-0.022,0.02,-0.065,-0.111,-0.12,-0.05,-0.033
-0.057,-0.055,0.002,0.056,-0.029,-0.026,0.02,-0.066,-0.106,-0.12,-0.054,-0.029
-0.052,-0.055,-0.003,0.054,-0.024,-0.029,0.019,-0.065,-0.109,-0.121,-0.055,-0.036
-0.043,-0.055,-0.012,0.05,-0.015,-0.034,0.012,-0.067,-0.121,-0.124,-0.055,-0.046
-0.042,-0.054,-0.012,0.048,-0.014,-0.033,0.006,-0.079,-0.129,-0.127,-0.06,-0.044
-0.047,-0.05,-0.003,0.048,-0.022,-0.026,-0.001,-0.08,-0.134,-0.13,-0.06,-0.045
-0.044,-0.051,-0.006,0.048,-0.019,-0.028,-0.008,-0.084,-0.137,-0.132,-0.061,-0.045
-0.046,-0.047,-0.001,0.047,-0.023,-0.024,-0.013,-0.093,-0.141,-0.135,-0.066,-0.044
-0.045,-0.045,0.0,0.045,-0.022,-0.022,-0.023,-0.102,-0.146,-0.135,-0.071,-0.055
-0.045,-0.044,0.0,0.044,-0.022,-0.022,-0.031,-0.111,-0.151,-0.135,-0.074,-0.061
-0.05,-0.05,0.0,0.05,-0.025,-0.025,-0.029,-0.113,-0.154,-0.146,-0.079,-0.059
-0.067,-0.067,0.0,0.067,-0.033,-0.033,-0.031,-0.118,-0.159,-0.151,-0.08,-0.06
-0.088,-0.071,0.017,0.079,-0.052,-0.027,-0.039,-0.122,-0.16,-0.149,-0.08,-0.06
-0.092,-0.07,0.022,0.081,-0.057,-0.023,-0.042,-0.124,-0.159,-0.15,-0.085,-0.06
-0.083,-0.067,0.016,0.074,-0.049,-0.025,-0.047,-0.128,-0.161,-0.15,-0.085,-0.064
-0.076,-0.064,0.012,0.07,-0.044,-0.026,-0.05,-0.13,-0.158,-0.15,-0.086,-0.065
-0.07,-0.065,0.005,0.067,-0.037,-0.03,-0.05,-0.13,-0.165,-0.151,-0.09,-0.065
-0.066,-0.065,0.001,0.065,-0.033,-0.032,-0.05,-0.13,-0.176,-0.149,-0.093,-0.065
-0.059,-0.065,-0.006,0.062,-0.026,-0.035,-0.05,-0.13,-0.171,-0.155,-0.097,-0.065
-0.057,-0.064,-0.007,0.06,-0.025,-0.035,-0.05,-0.13,-0.168,-0.166,-0.1,-0.066
-0.078,-0.07,0.009,0.074,-0.044,-0.031,-0.046,-0.13,-0.165,-0.163,-0.1,-0.07
-0.08,-0.07,0.01,0.075,-0.045,-0.03,-0.045,-0.131,-0.16,-0.16,-0.1,-0.07
-0.068,-0.066,0.003,0.066,-0.035,-0.031,-0.045,-0.137,-0.16,-0.158,-0.1,-0.07
-0.068,-0.063,0.004,0.065,-0.036,-0.029,-0.04,-0.144,-0.16,-0.154,-0.1,-0.07
-0.051,-0.06,-0.009,0.056,-0.021,-0.034,-0.04,-0.141,-0.16,-0.158,-0.1,-0.07
-0.034,-0.059,-0.026,0.047,-0.004,-0.042,-0.04,-0.14,-0.16,-0.16,-0.1,-0.074
-0.041,-0.061,-0.02,0.051,-0.011,-0.04,-0.05,-0.14,-0.16,-0.16,-0.1,-0.075
-0.041,-0.058,-0.018,0.05,-0.012,-0.038,-0.061,-0.14,-0.16,-0.163,-0.1,-0.075
-0.055,-0.063,-0.008,0.059,-0.023,-0.035,-0.06,-0.14,-0.16,-0.165,-0.1,-0.075
-0.088,-0.076,0.012,0.082,-0.049,-0.032,-0.06,-0.141,-0.16,-0.164,-0.1,-0.074
-0.083,-0.073,0.01,0.078,-0.046,-0.031,-0.06,-0.145,-0.16,-0.16,-0.1,-0.076
-0.077,-0.07,0.007,0.073,-0.042,-0.031,-0.06,-0.141,-0.16,-0.16,-0.103,-0.08
-0.072,-0.068,0.004,0.07,-0.038,-0.031,-0.058,-0.14,-0.159,-0.159,-0.106,-0.08
-0.064,-0.064,0.0,0.064,-0.032,-0.031,-0.054,-0.139,-0.162,-0.155,-0.104,-0.08
-0.068,-0.068,0.0,0.068,-0.034,-0.034,-0.055,-0.136,-0.165,-0.155,-0.105,-0.08
-0.065,-0.07,-0.005,0.068,-0.03,-0.037,-0.055,-0.133,-0.165,-0.157,-0.104,-0.08
-0.061,-0.07,-0.009,0.066,-0.026,-0.04,-0.055,-0.141,-0.165,-0.16,-0.106,-0.08
-0.055,-0.07,-0.015,0.063,-0.02,-0.042,-0.055,-0.155,-0.165,-0.16,-0.11,-0.08
-0.058,-0.071,-0.013,0.065,-0.023,-0.041,-0.055,-0.155,-0.165,-0.16,-0.11,-0.08
-0.06,-0.069,-0.01,0.064,-0.025,-0.039,-0.055,-0.155,-0.161,-0.16,-0.113,-0.08
-0.056,-0.066,-0.01,0.061,-0.023,-0.038,-0.055,-0.155,-0.155,-0.161,-0.116,-0.081
-0.054,-0.06,-0.006,0.058,-0.024,-0.033,-0.055,-0.155,-0.15,-0.154,-0.115,-0.079
-0.058,-0.063,-0.005,0.061,-0.027,-0.033,-0.055,-0.152,-0.146,-0.148,-0.11,-0.075
-0.077,-0.082,-0.005,0.08,-0.036,-0.043,-0.057,-0.138,-0.141,-0.143,-0.101,-0.075
-0.067,-0.084,-0.017,0.076,-0.025,-0.05,-0.062,-0.13,-0.14,-0.136,-0.092,-0.072
-0.046,-0.077,-0.03,0.061,-0.008,-0.053,-0.063,-0.127,-0.14,-0.134,-0.084,-0.07
-0.039,-0.074,-0.035,0.057,-0.001,-0.054,-0.069,-0.142,-0.14,-0.126,-0.079,-0.069
-0.012,-0.068,-0.056,0.04,0.022,-0.062,-0.069,-0.134,-0.159,-0.148,-0.081,-0.074
0.01,-0.065,-0.075,0.028,0.043,-0.07,-0.065,-0.131,-0.174,-0.161,-0.08,-0.075
-0.008,-0.06,-0.052,0.034,0.022,-0.055,-0.066,-0.141,-0.166,-0.159,-0.08,-0.075
-0.029,-0.061,-0.031,0.045,0.001,-0.046,-0.063,-0.172,-0.174,-0.167,-0.08,-0.075
-0.04,-0.062,-0.022,0.051,-0.009,-0.042,-0.069,-0.167,-0.166,-0.16,-0.09,-0.077
-0.052,-0.065,-0.013,0.059,-0.019,-0.039,-0.06,-0.163,-0.173,-0.176,-0.115,-0.102
-0.05,-0.055,-0.005,0.053,-0.022,-0.03,-0.072,-0.175,-0.168,-0.161,-0.117,-0.104
-0.053,-0.052,0.001,0.052,-0.027,-0.026,-0.056,-0.14,-0.169,-0.182,-0.14,-0.107
-0.073,-0.048,0.025,0.06,-0.049,-0.011,-0.043,-0.19,-0.173,-0.155,-0.126,-0.102
-0.204,-0.016,0.187,0.11,-0.195,0.085,0.17,-0.063,-0.207,-0.295,-0.215,-0.163
-0.302,0.111,0.412,0.095,-0.357,0.261,0.42,0.059,-0.222,-0.359,-0.238,-0.172
0.09,0.332,0.242,-0.211,-0.077,0.287,0.124,0.641,0.384,0.306,0.261,0.164
0.722,0.356,-0.366,-0.538,0.543,-0.005,-0.323,0.721,1.406,1.516,0.968,0.595
0.77,0.154,-0.615,-0.462,0.692,-0.23,-0.508,-0.471,1.741,2.006,1.13,0.661
0.216,-0.149,-0.364,-0.034,0.29,-0.256,-0.258,-0.757,0.581,0.507,0.33,0.219
-0.126,-0.327,-0.201,0.227,0.038,-0.264,0.031,-0.512,-0.533,-0.594,-0.254,-0.124
-0.123,-0.268,-0.146,0.196,0.012,-0.207,0.043,-0.328,-0.349,-0.327,-0.172,-0.114
-0.104,-0.175,-0.071,0.14,-0.016,-0.123,0.057,-0.106,-0.185,-0.278,-0.163,-0.101
-0.059,-0.078,-0.019,0.068,-0.02,-0.048,0.012,-0.112,-0.151,-0.182,-0.106,-0.068
-0.074,-0.035,0.038,0.054,-0.056,0.001,0.027,-0.025,-0.077,-0.129,-0.077,-0.05
-0.089,-0.03,0.059,0.059,-0.074,0.014,0.047,-0.012,-0.075,-0.109,-0.075,-0.048
-0.065,-0.012,0.052,0.038,-0.058,0.02,0.034,0.007,-0.036,-0.077,-0.059,-0.039
-0.064,-0.007,0.057,0.035,-0.06,0.024,0.045,0.016,-0.039,-0.084,-0.063,-0.04
-0.048,0.006,0.054,0.02,-0.051,0.03,0.036,0.022,-0.014,-0.045,-0.047,-0.031
-0.034,0.022,0.055,0.006,-0.045,0.038,0.043,0.043,0.002,-0.032,-0.046,-0.03
-0.028,0.031,0.059,-0.002,-0.043,0.045,0.041,0.042,0.033,-0.002,-0.029,-0.023
-0.03,0.03,0.06,0.0,-0.045,0.045,0.047,0.062,0.049,-0.003,-0.018,-0.019
-0.033,0.028,0.061,0.002,-0.047,0.045,0.043,0.081,0.068,0.011,-0.003,-0.015
-0.027,0.039,0.066,-0.006,-0.047,0.052,0.051,0.106,0.097,0.038,0.008,-0.01
-0.024,0.047,0.071,-0.011,-0.048,0.059,0.07,0.127,0.121,0.055,0.016,-0.006
-0.017,0.056,0.074,-0.02,-0.046,0.065,0.072,0.146,0.154,0.074,0.03,0.0
-0.012,0.068,0.079,-0.028,-0.046,0.073,0.076,0.177,0.187,0.091,0.042,0.01
-0.002,0.078,0.08,-0.037,-0.041,0.079,0.08,0.207,0.212,0.112,0.061,0.02
0.011,0.092,0.081,-0.052,-0.035,0.086,0.082,0.231,0.247,0.147,0.076,0.03
0.014,0.106,0.091,-0.06,-0.039,0.098,0.086,0.269,0.29,0.177,0.092,0.046
0.045,0.139,0.095,-0.092,-0.026,0.117,0.099,0.319,0.342,0.227,0.126,0.066
0.052,0.162,0.111,-0.107,-0.03,0.136,0.111,0.372,0.401,0.269,0.155,0.083
0.057,0.18,0.123,-0.119,-0.033,0.151,0.114,0.43,0.464,0.319,0.195,0.117
0.098,0.216,0.119,-0.157,-0.011,0.167,0.11,0.498,0.548,0.408,0.252,0.151
0.141,0.262,0.121,-0.201,0.01,0.191,0.103,0.571,0.641,0.487,0.306,0.187
0.182,0.302,0.12,-0.242,0.031,0.211,0.099,0.636,0.728,0.573,0.366,0.231
0.212,0.332,0.12,-0.272,0.046,0.226,0.092,0.693,0.809,0.653,0.431,0.273
0.252,0.367,0.115,-0.31,0.068,0.24,0.088,0.741,0.888,0.733,0.49,0.319
0.272,0.379,0.107,-0.326,0.082,0.243,0.082,0.752,0.925,0.792,0.535,0.359
0.278,0.379,0.101,-0.329,0.088,0.24,0.074,0.736,0.923,0.787,0.558,0.379
0.277,0.371,0.094,-0.324,0.091,0.232,0.068,0.664,0.844,0.736,0.539,0.364
0.238,0.326,0.088,-0.282,0.075,0.207,0.06,0.545,0.687,0.615,0.479,0.326
0.177,0.258,0.081,-0.218,0.048,0.169,0.052,0.406,0.504,0.445,0.38,0.262
0.115,0.185,0.07,-0.15,0.022,0.127,0.046,0.263,0.308,0.278,0.264,0.18
0.059,0.118,0.059,-0.089,0.0,0.088,0.038,0.137,0.148,0.126,0.157,0.111
0.013,0.06,0.047,-0.037,-0.017,0.053,0.031,0.039,0.029,0.013,0.07,0.055
-0.028,0.011,0.039,0.008,-0.034,0.025,0.024,-0.025,-0.06,-0.061,0.01,0.014
-0.054,-0.021,0.033,0.037,-0.043,0.006,0.016,-0.09,-0.125,-0.119,-0.044,-0.031
-0.067,-0.04,0.027,0.053,-0.047,-0.006,0.009,-0.115,-0.148,-0.144,-0.072,-0.059
-0.079,-0.054,0.025,0.066,-0.052,-0.014,0.002,-0.112,-0.143,-0.148,-0.078,-0.062
-0.077,-0.056,0.021,0.067,-0.049,-0.017,0.0,-0.114,-0.146,-0.146,-0.087,-0.067
-0.072,-0.052,0.02,0.062,-0.045,-0.016,0.0,-0.108,-0.144,-0.141,-0.09,-0.07
-0.065,-0.05,0.015,0.057,-0.04,-0.017,-0.004,-0.107,-0.146,-0.139,-0.09,-0.075
-0.062,-0.046,0.015,0.054,-0.038,-0.015,-0.005,-0.103,-0.144,-0.134,-0.093,-0.071
-0.067,-0.045,0.022,0.056,-0.044,-0.011,-0.005,-0.1,-0.139,-0.131,-0.095,-0.07
-0.073,-0.041,0.032,0.057,-0.052,-0.005,-0.01,-0.101,-0.136,-0.13,-0.095,-0.07
-0.091,-0.04,0.052,0.065,-0.072,0.005,-0.015,-0.105,-0.132,-0.13,-0.091,-0.07
-0.096,-0.04,0.056,0.067,-0.076,0.008,-0.02,-0.109,-0.129,-0.13,-0.09,-0.069
-0.09,-0.036,0.054,0.062,-0.071,0.009,-0.024,-0.111,-0.125,-0.13,-0.089,-0.072
-0.09,-0.035,0.056,0.062,-0.072,0.011,-0.029,-0.116,-0.129,-0.13,-0.086,-0.08
-0.091,-0.036,0.055,0.063,-0.073,0.009,-0.033,-0.111,-0.13,-0.13,-0.084,-0.08
-0.094,-0.04,0.054,0.067,-0.074,0.006,-0.035,-0.113,-0.131,-0.136,-0.087,-0.084
-0.089,-0.04,0.05,0.065,-0.07,0.005,-0.042,-0.129,-0.145,-0.143,-0.1,-0.085
-0.09,-0.043,0.048,0.066,-0.069,0.003,-0.047,-0.136,-0.15,-0.149,-0.106,-0.087
-0.09,-0.045,0.045,0.067,-0.067,0.0,-0.05,-0.141,-0.161,-0.155,-0.107,-0.09
-0.086,-0.045,0.041,0.065,-0.063,-0.001,-0.055,-0.15,-0.172,-0.159,-0.111,-0.091
-0.088,-0.048,0.04,0.068,-0.064,-0.004,-0.055,-0.156,-0.169,-0.16,-0.113,-0.095
-0.087,-0.051,0.036,0.069,-0.062,-0.007,-0.055,-0.159,-0.17,-0.16,-0.115,-0.096
-0.084,-0.054,0.03,0.069,-0.056,-0.011,-0.057,-0.164,-0.17,-0.16,-0.117,-0.099
-0.081,-0.057,0.024,0.069,-0.052,-0.016,-0.064,-0.165,-0.17,-0.159,-0.121,-0.102
-0.08,-0.06,0.02,0.07,-0.05,-0.02,-0.07,-0.164,-0.174,-0.163,-0.118,-0.104
-0.071,-0.06,0.011,0.065,-0.041,-0.024,-0.07,-0.167,-0.175,-0.165,-0.115,-0.108
-0.079,-0.062,0.017,0.071,-0.048,-0.023,-0.07,-0.17,-0.176,-0.165,-0.115,-0.11
-0.096,-0.066,0.031,0.081,-0.063,-0.017,-0.07,-0.174,-0.179,-0.168,-0.115,-0.11
-0.095,-0.065,0.03,0.08,-0.062,-0.017,-0.07,-0.175,-0.181,-0.17,-0.115,-0.11
-0.097,-0.069,0.028,0.083,-0.063,-0.02,-0.067,-0.175,-0.178,-0.169,-0.115,-0.11
-0.095,-0.07,0.025,0.082,-0.06,-0.022,-0.065,-0.18,-0.175,-0.165,-0.118,-0.11
-0.094,-0.07,0.025,0.081,-0.06,-0.022,-0.065,-0.18,-0.175,-0.165,-0.121,-0.11
-0.094,-0.07,0.023,0.082,-0.058,-0.023,-0.065,-0.181,-0.175,-0.164,-0.124,-0.11
-0.087,-0.069,0.018,0.078,-0.053,-0.026,-0.065,-0.185,-0.175,-0.16,-0.126,-0.11
-0.087,-0.072,0.015,0.079,-0.051,-0.028,-0.066,-0.185,-0.175,-0.16,-0.13,-0.11
-0.086,-0.075,0.011,0.081,-0.048,-0.031,-0.069,-0.185,-0.179,-0.162,-0.129,-0.11
-0.082,-0.075,0.007,0.079,-0.044,-0.034,-0.07,-0.185,-0.18,-0.167,-0.124,-0.11
-0.079,-0.075,0.005,0.077,-0.042,-0.035,-0.073,-0.185,-0.182,-0.17,-0.126,-0.11
-0.087,-0.075,0.012,0.081,-0.049,-0.031,-0.076,-0.189,-0.186,-0.17,-0.122,-0.11
-0.098,-0.075,0.023,0.086,-0.06,-0.026,-0.072,-0.19,-0.183,-0.17,-0.12,-0.11
-0.1,-0.075,0.025,0.087,-0.062,-0.025,-0.07,-0.19,-0.18,-0.17,-0.12,-0.11
-0.104,-0.076,0.028,0.09,-0.066,-0.023,-0.07,-0.19,-0.18,-0.17,-0.12,-0.11
-0.104,-0.073,0.031,0.089,-0.067,-0.021,-0.07,-0.19,-0.18,-0.17,-0.12,-0.11
-0.105,-0.07,0.034,0.087,-0.07,-0.018,-0.07,-0.191,-0.18,-0.167,-0.12,-0.11
-0.102,-0.067,0.035,0.084,-0.068,-0.016,-0.07,-0.195,-0.18,-0.165,-0.12,-0.114
-0.095,-0.065,0.03,0.08,-0.062,-0.017,-0.078,-0.195,-0.176,-0.165,-0.12,-0.115
-0.092,-0.061,0.03,0.076,-0.061,-0.015,-0.085,-0.195,-0.174,-0.161,-0.12,-0.115
-0.088,-0.06,0.029,0.074,-0.059,-0.015,-0.086,-0.195,-0.175,-0.159,-0.12,-0.115
-0.093,-0.069,0.024,0.08,-0.058,-0.022,-0.09,-0.194,-0.174,-0.161,-0.12,-0.114
-0.096,-0.071,0.026,0.083,-0.061,-0.022,-0.092,-0.199,-0.176,-0.164,-0.12,-0.118
-0.092,-0.07,0.022,0.081,-0.057,-0.024,-0.096,-0.2,-0.174,-0.166,-0.12,-0.12
-0.083,-0.066,0.017,0.075,-0.05,-0.025,-0.099,-0.201,-0.168,-0.165,-0.121,-0.12
-0.073,-0.065,0.008,0.069,-0.04,-0.028,-0.102,-0.204,-0.162,-0.165,-0.117,-0.12
-0.068,-0.064,0.004,0.066,-0.036,-0.03,-0.106,-0.206,-0.158,-0.164,-0.111,-0.12
-0.055,-0.06,-0.005,0.058,-0.025,-0.033,-0.098,-0.202,-0.151,-0.165,-0.106,-0.12
-0.051,-0.06,-0.009,0.055,-0.021,-0.034,-0.087,-0.179,-0.147,-0.164,-0.102,-0.114
-0.057,-0.06,-0.003,0.059,-0.027,-0.031,-0.078,-0.152,-0.14,-0.166,-0.097,-0.107
-0.063,-0.061,0.002,0.062,-0.033,-0.029,-0.07,-0.149,-0.136,-0.164,-0.095,-0.101
-0.056,-0.058,-0.002,0.057,-0.027,-0.03,-0.088,-0.166,-0.153,-0.165,-0.103,-0.094
-0.019,-0.073,-0.054,0.046,0.018,-0.063,-0.114,-0.187,-0.168,-0.166,-0.102,-0.088
-0.002,-0.068,-0.066,0.035,0.032,-0.066,-0.115,-0.187,-0.162,-0.158,-0.098,-0.082
-0.033,-0.05,-0.017,0.042,-0.008,-0.033,-0.105,-0.187,-0.167,-0.164,-0.097,-0.08
-0.089,-0.061,0.027,0.075,-0.058,-0.016,-0.111,-0.202,-0.163,-0.155,-0.095,-0.093
-0.09,-0.074,0.017,0.082,-0.053,-0.028,-0.096,-0.184,-0.172,-0.166,-0.123,-0.123
-0.072,-0.071,0.001,0.072,-0.036,-0.035,-0.105,-0.211,-0.185,-0.154,-0.123,-0.13
-0.078,-0.06,0.019,0.068,-0.048,-0.02,-0.085,-0.168,-0.173,-0.168,-0.127,-0.131
-0.068,-0.06,0.008,0.064,-0.037,-0.026,-0.078,-0.208,-0.187,-0.163,-0.122,-0.128
-0.152,-0.04,0.112,0.096,-0.132,0.036,0.039,-0.157,-0.196,-0.232,-0.174,-0.155
-0.308,0.054,0.362,0.127,-0.335,0.208,0.359,-0.057,-0.282,-0.411,-0.278,-0.212
-0.105,0.27,0.374,-0.083,-0.24,0.322,0.246,0.378,0.081,0.001,0.053,0.015
0.508,0.385,-0.123,-0.446,0.315,0.131,-0.18,0.889,1.094,1.104,0.755,0.46
0.817,0.237,-0.579,-0.527,0.698,-0.171,-0.522,-0.093,1.829,2.062,1.192,0.678
0.43,-0.072,-0.502,-0.179,0.466,-0.286,-0.45,-0.819,1.108,1.148,0.658,0.383
-0.073,-0.346,-0.273,0.21,0.101,-0.309,-0.065,-0.602,-0.336,-0.441,-0.154,-0.07
-0.155,-0.338,-0.183,0.247,0.014,-0.26,0.013,-0.441,-0.495,-0.448,-0.206,-0.144
-0.117,-0.218,-0.101,0.168,-0.008,-0.159,0.025,-0.15,-0.195,-0.245,-0.142,-0.111
-0.113,-0.131,-0.018,0.122,-0.047,-0.074,0.032,-0.11,-0.185,-0.22,-0.124,-0.101
-0.096,-0.061,0.035,0.078,-0.065,-0.013,0.01,-0.055,-0.093,-0.137,-0.072,-0.064
-0.102,-0.038,0.064,0.069,-0.083,0.013,0.018,-0.014,-0.092,-0.146,-0.081,-0.073
-0.076,-0.025,0.05,0.05,-0.063,0.012,-0.001,-0.023,-0.064,-0.094,-0.059,-0.048
-0.077,-0.02,0.057,0.048,-0.066,0.018,0.003,0.0,-0.063,-0.102,-0.064,-0.066
-0.086,-0.011,0.075,0.048,-0.08,0.032,0.009,-0.002,-0.044,-0.067,-0.05,-0.039
-0.079,-0.004,0.075,0.041,-0.077,0.036,0.015,0.029,-0.016,-0.055,-0.044,-0.054
-0.07,0.004,0.074,0.033,-0.072,0.038,0.028,0.028,0.005,-0.038,-0.028,-0.037
-0.057,0.013,0.069,0.022,-0.064,0.041,0.029,0.051,0.038,-0.024,-0.014,-0.033
-0.053,0.018,0.071,0.017,-0.062,0.045,0.046,0.074,0.055,-0.01,-0.007,-0.047
-0.045,0.023,0.068,0.011,-0.057,0.045,0.053,0.093,0.073,0.018,0.005,0.01
-0.057,0.027,0.084,0.015,-0.071,0.055,0.044,0.113,0.097,0.036,0.01,-0.104
-0.072,0.03,0.102,0.021,-0.087,0.066,0.08,0.127,0.128,0.052,0.028,0.258
-0.058,0.041,0.099,0.009,-0.079,0.07,0.055,0.159,0.149,0.07,0.043,0.27
-0.038,0.062,0.1,-0.012,-0.069,0.081,0.119,0.19,0.177,0.104,0.053,-0.068
-0.019,0.081,0.1,-0.031,-0.06,0.091,-0.071,0.224,0.214,0.125,0.077,0.027
-0.008,0.092,0.1,-0.042,-0.054,0.096,-0.178,0.26,0.249,0.152,0.094,-0.011
-0.008,0.095,0.103,-0.043,-0.056,0.098,0.047,0.301,0.297,0.196,0.123,0.006
