0.083,0.143,0.059,-0.113,0.011,0.1,-0.006,-0.026,0.007,0.053,0.019,0.039
0.074,0.124,0.049,-0.099,0.012,0.087,-0.005,-0.023,0.0,0.053,0.013,0.03
0.072,0.099,0.027,-0.086,0.022,0.063,-0.004,-0.03,-0.019,0.043,-0.003,0.018
0.068,0.103,0.034,-0.086,0.017,0.068,-0.008,-0.054,-0.024,0.038,0.001,0.021
0.065,0.091,0.026,-0.078,0.019,0.058,-0.001,-0.02,-0.013,0.033,-0.001,0.013
0.056,0.088,0.032,-0.072,0.011,0.06,-0.012,-0.076,-0.023,0.02,0.0,0.015
0.054,0.087,0.032,-0.071,0.011,0.059,0.01,-0.003,0.007,0.041,0.009,0.009
0.053,0.069,0.016,-0.061,0.018,0.043,-0.012,-0.074,-0.031,0.016,-0.005,0.012
0.036,0.214,0.178,-0.125,-0.071,0.195,0.181,0.37,0.16,0.113,0.039,0.036
0.152,0.296,0.144,-0.224,0.004,0.22,0.272,0.554,0.316,0.25,0.122,0.079
0.582,0.446,-0.137,-0.514,0.359,0.154,-0.334,-0.581,0.453,0.615,0.49,0.426
0.779,0.339,-0.44,-0.559,0.609,-0.05,-1.012,-1.309,0.332,0.593,0.534,0.529
0.435,-0.139,-0.574,-0.148,0.505,-0.356,-1.199,-1.729,-0.541,-0.238,-0.025,0.161
0.189,-0.133,-0.323,-0.028,0.256,-0.228,-0.767,-1.305,-0.645,-0.381,-0.155,0.035
0.114,0.081,-0.032,-0.098,0.073,0.024,-0.213,-0.325,-0.151,-0.059,-0.035,0.032
0.076,0.104,0.027,-0.091,0.024,0.065,-0.051,-0.114,-0.068,-0.014,-0.025,0.01
0.078,0.086,0.008,-0.083,0.035,0.047,0.002,-0.001,-0.026,0.029,-0.001,0.019
0.056,0.074,0.019,-0.065,0.018,0.046,0.035,0.021,-0.024,0.028,-0.007,0.011
0.063,0.076,0.013,-0.07,0.025,0.045,0.042,0.041,-0.014,0.042,0.005,0.018
0.057,0.073,0.016,-0.066,0.02,0.044,0.051,0.061,-0.006,0.045,0.008,0.013
0.06,0.072,0.011,-0.066,0.024,0.041,0.054,0.049,-0.004,0.047,0.014,0.017
0.059,0.068,0.009,-0.064,0.025,0.039,0.066,0.069,0.008,0.055,0.016,0.019
0.063,0.073,0.011,-0.068,0.026,0.042,0.073,0.062,0.007,0.053,0.014,0.022
0.08,0.085,0.004,-0.083,0.038,0.045,0.079,0.088,0.018,0.057,0.016,0.025
0.084,0.09,0.006,-0.088,0.039,0.048,0.083,0.09,0.02,0.057,0.014,0.027
0.088,0.092,0.005,-0.09,0.041,0.048,0.086,0.111,0.027,0.061,0.015,0.03
0.083,0.099,0.016,-0.091,0.033,0.058,0.091,0.138,0.032,0.06,0.016,0.032
0.084,0.105,0.021,-0.095,0.032,0.062,0.11,0.163,0.04,0.065,0.019,0.037
0.097,0.123,0.026,-0.11,0.035,0.074,0.126,0.198,0.045,0.074,0.037,0.042
0.097,0.146,0.05,-0.122,0.023,0.098,0.146,0.24,0.051,0.081,0.047,0.044
0.104,0.164,0.059,-0.134,0.022,0.111,0.174,0.293,0.063,0.095,0.05,0.051
0.134,0.193,0.059,-0.164,0.037,0.126,0.202,0.347,0.095,0.112,0.063,0.063
0.141,0.221,0.079,-0.181,0.031,0.15,0.219,0.385,0.124,0.131,0.077,0.075
0.159,0.254,0.095,-0.206,0.032,0.174,0.21,0.399,0.122,0.158,0.111,0.096
0.199,0.284,0.085,-0.242,0.057,0.184,0.201,0.389,0.113,0.171,0.131,0.116
0.213,0.29,0.077,-0.251,0.068,0.183,0.184,0.357,0.103,0.173,0.125,0.134
0.225,0.294,0.069,-0.26,0.078,0.182,0.156,0.298,0.093,0.162,0.119,0.136
0.215,0.277,0.062,-0.246,0.076,0.169,0.128,0.23,0.079,0.151,0.109,0.12
0.172,0.229,0.056,-0.201,0.058,0.142,0.098,0.168,0.065,0.13,0.104,0.104
0.136,0.182,0.045,-0.159,0.045,0.113,0.077,0.118,0.051,0.093,0.087,0.088
0.13,0.164,0.035,-0.147,0.047,0.099,0.066,0.084,0.035,0.08,0.058,0.066
0.122,0.144,0.022,-0.133,0.05,0.083,0.058,0.057,0.019,0.075,0.044,0.041
0.094,0.107,0.013,-0.101,0.041,0.06,0.05,0.039,0.009,0.067,0.035,0.03
0.099,0.107,0.007,-0.103,0.046,0.057,0.042,0.023,0.005,0.062,0.026,0.029
0.109,0.112,0.003,-0.111,0.053,0.057,0.037,0.009,0.0,0.056,0.025,0.025
0.11,0.108,-0.001,-0.109,0.056,0.053,0.034,0.0,-0.004,0.052,0.025,0.022
0.112,0.106,-0.006,-0.109,0.059,0.05,0.031,-0.009,-0.008,0.047,0.02,0.02
0.115,0.105,-0.011,-0.11,0.062,0.047,0.028,-0.017,-0.013,0.043,0.02,0.018
0.119,0.104,-0.015,-0.111,0.066,0.045,0.026,-0.029,-0.015,0.038,0.019,0.013
0.111,0.096,-0.015,-0.103,0.063,0.04,0.023,-0.034,-0.015,0.034,0.014,0.01
0.105,0.089,-0.016,-0.097,0.061,0.036,0.02,-0.025,-0.015,0.028,0.011,0.007
0.102,0.082,-0.02,-0.092,0.061,0.031,0.02,-0.017,-0.015,0.025,0.008,0.002
0.095,0.074,-0.02,-0.084,0.057,0.027,0.02,-0.009,-0.015,0.02,0.003,0.001
0.084,0.066,-0.018,-0.075,0.051,0.024,0.02,-0.003,-0.011,0.015,0.0,0.004
0.086,0.074,-0.013,-0.08,0.049,0.03,0.02,0.002,-0.01,0.019,0.003,0.007
0.079,0.071,-0.007,-0.075,0.043,0.032,0.023,0.008,-0.01,0.029,0.006,0.009
0.089,0.085,-0.004,-0.087,0.046,0.04,0.022,0.011,-0.01,0.033,0.004,0.013
0.105,0.106,0.002,-0.106,0.051,0.053,0.017,0.017,-0.011,0.03,0.005,0.015
0.089,0.094,0.005,-0.092,0.042,0.049,0.015,0.02,-0.007,0.03,0.004,0.017
0.089,0.09,0.0,-0.09,0.044,0.045,0.01,0.015,-0.005,0.03,0.007,0.02
0.086,0.082,-0.004,-0.084,0.045,0.039,0.007,0.01,-0.005,0.03,0.01,0.02
0.082,0.075,-0.006,-0.078,0.044,0.034,0.003,0.006,-0.005,0.03,0.01,0.02
0.09,0.079,-0.011,-0.084,0.05,0.034,0.0,0.001,-0.005,0.026,0.014,0.02
0.094,0.08,-0.014,-0.086,0.054,0.032,-0.003,-0.004,-0.005,0.025,0.015,0.02
0.098,0.08,-0.018,-0.089,0.058,0.031,-0.005,-0.008,-0.012,0.025,0.015,0.02
0.1,0.079,-0.02,-0.09,0.06,0.03,-0.008,-0.012,-0.02,0.025,0.015,0.02
0.101,0.081,-0.02,-0.091,0.06,0.03,-0.01,-0.018,-0.02,0.025,0.015,0.02
0.098,0.078,-0.02,-0.088,0.059,0.029,-0.01,-0.021,-0.02,0.025,0.015,0.02
0.096,0.075,-0.02,-0.086,0.057,0.027,-0.01,-0.027,-0.02,0.025,0.015,0.02
0.094,0.074,-0.02,-0.084,0.056,0.027,-0.01,-0.03,-0.02,0.025,0.016,0.022
0.091,0.076,-0.016,-0.083,0.053,0.03,-0.01,-0.025,-0.02,0.025,0.02,0.026
0.088,0.073,-0.014,-0.08,0.05,0.029,-0.01,-0.018,-0.015,0.025,0.022,0.024
0.097,0.081,-0.016,-0.088,0.056,0.033,-0.009,-0.014,-0.007,0.025,0.025,0.025
0.116,0.103,-0.014,-0.109,0.065,0.044,0.0,-0.006,-0.001,0.029,0.028,0.025
0.114,0.097,-0.017,-0.105,0.065,0.039,0.007,-0.003,0.006,0.031,0.03,0.024
0.116,0.106,-0.009,-0.111,0.062,0.048,0.015,0.004,0.013,0.041,0.034,0.037
0.132,0.133,0.001,-0.133,0.065,0.067,0.023,0.013,0.018,0.049,0.04,0.047
0.142,0.163,0.021,-0.153,0.061,0.092,0.022,0.021,0.032,0.064,0.058,0.06
0.141,0.171,0.03,-0.156,0.055,0.1,0.017,0.035,0.029,0.078,0.062,0.066
0.143,0.159,0.016,-0.152,0.063,0.087,0.01,0.02,0.015,0.071,0.054,0.055
0.141,0.141,0.0,-0.141,0.07,0.07,0.009,0.016,0.011,0.064,0.048,0.044
0.1,0.086,-0.015,-0.093,0.057,0.035,0.0,-0.01,-0.007,0.053,0.04,0.031
0.087,0.065,-0.022,-0.076,0.054,0.021,0.001,-0.005,-0.003,0.048,0.036,0.027
0.088,0.05,-0.038,-0.069,0.063,0.006,-0.008,-0.026,-0.02,0.033,0.026,0.021
0.089,0.058,-0.031,-0.073,0.06,0.013,-0.003,-0.028,-0.013,0.037,0.03,0.023
0.096,0.049,-0.047,-0.072,0.071,0.001,-0.006,-0.032,-0.03,0.023,0.018,0.014
0.083,0.061,-0.022,-0.072,0.052,0.02,-0.003,-0.058,-0.027,0.025,0.023,0.019
0.101,0.05,-0.051,-0.075,0.075,0.0,0.005,-0.026,-0.023,0.014,0.01,0.008
0.063,0.056,-0.007,-0.059,0.035,0.024,-0.001,-0.043,-0.025,0.03,0.024,0.014
0.047,0.188,0.141,-0.118,-0.047,0.164,0.243,0.535,0.212,0.151,0.069,0.033
0.253,0.256,0.003,-0.254,0.125,0.129,0.168,0.359,0.319,0.304,0.207,0.152
0.68,0.406,-0.273,-0.543,0.476,0.066,-0.513,-0.78,0.447,0.677,0.591,0.51
0.726,0.172,-0.554,-0.449,0.64,-0.191,-1.071,-1.392,0.097,0.386,0.419,0.457
0.332,-0.245,-0.577,-0.043,0.455,-0.411,-1.127,-1.729,-0.705,-0.39,-0.112,0.081
0.168,-0.106,-0.274,-0.031,0.222,-0.19,-0.608,-1.013,-0.509,-0.293,-0.107,0.024
0.094,0.044,-0.049,-0.069,0.071,-0.003,-0.14,-0.206,-0.104,-0.031,-0.006,0.043
0.063,0.032,-0.031,-0.047,0.047,0.0,-0.044,-0.088,-0.076,-0.02,0.006,0.034
0.082,0.029,-0.052,-0.055,0.067,-0.011,0.006,0.041,-0.022,0.019,0.02,0.033
0.059,0.018,-0.041,-0.038,0.049,-0.011,0.028,0.036,-0.027,0.018,0.012,0.024
0.061,0.014,-0.048,-0.037,0.054,-0.017,0.039,0.074,-0.003,0.039,0.023,0.021
0.049,0.005,-0.044,-0.027,0.046,-0.019,0.047,0.066,-0.002,0.038,0.018,0.014
0.06,0.015,-0.045,-0.037,0.052,-0.015,0.054,0.063,0.0,0.044,0.026,0.02
0.071,0.026,-0.045,-0.048,0.058,-0.01,0.062,0.085,0.003,0.047,0.025,0.02
0.079,0.024,-0.055,-0.051,0.066,-0.016,0.058,0.085,0.003,0.049,0.026,0.021
0.073,0.027,-0.046,-0.05,0.059,-0.009,0.065,0.104,0.007,0.054,0.031,0.026
0.083,0.051,-0.032,-0.067,0.057,0.01,0.071,0.111,0.006,0.055,0.029,0.025
0.085,0.056,-0.029,-0.07,0.056,0.013,0.076,0.12,0.019,0.054,0.031,0.025
0.077,0.057,-0.02,-0.067,0.048,0.019,0.091,0.137,0.027,0.057,0.029,0.025
0.074,0.059,-0.015,-0.066,0.045,0.022,0.103,0.176,0.038,0.067,0.03,0.024
0.073,0.066,-0.007,-0.069,0.04,0.029,0.116,0.211,0.047,0.073,0.046,0.037
0.082,0.084,0.002,-0.083,0.04,0.043,0.141,0.261,0.058,0.081,0.058,0.049
0.08,0.094,0.013,-0.087,0.033,0.053,0.163,0.317,0.076,0.092,0.068,0.053
0.104,0.126,0.022,-0.115,0.04,0.074,0.187,0.363,0.097,0.121,0.08,0.059
0.13,0.163,0.034,-0.147,0.048,0.098,0.197,0.4,0.115,0.142,0.105,0.085
0.153,0.199,0.046,-0.176,0.053,0.122,0.192,0.407,0.127,0.162,0.131,0.11
0.18,0.221,0.041,-0.201,0.069,0.131,0.187,0.39,0.138,0.176,0.143,0.119
0.181,0.215,0.034,-0.198,0.073,0.124,0.165,0.344,0.124,0.167,0.153,0.132
0.178,0.206,0.028,-0.193,0.075,0.117,0.135,0.285,0.104,0.161,0.146,0.129
0.164,0.185,0.02,-0.175,0.072,0.102,0.112,0.227,0.075,0.149,0.133,0.117
0.132,0.147,0.015,-0.14,0.058,0.081,0.095,0.159,0.039,0.12,0.101,0.091
0.101,0.11,0.009,-0.106,0.045,0.059,0.081,0.114,0.029,0.092,0.066,0.06
0.074,0.078,0.004,-0.077,0.035,0.041,0.064,0.08,0.021,0.074,0.049,0.046
0.058,0.057,-0.001,-0.058,0.029,0.028,0.054,0.052,0.012,0.062,0.034,0.037
0.052,0.045,-0.008,-0.048,0.03,0.018,0.048,0.037,0.003,0.053,0.027,0.031
0.047,0.035,-0.012,-0.041,0.03,0.011,0.041,0.023,-0.007,0.042,0.017,0.024
0.043,0.025,-0.018,-0.034,0.03,0.003,0.034,0.013,-0.01,0.035,0.008,0.017
0.035,0.015,-0.02,-0.025,0.028,-0.002,0.029,0.002,-0.014,0.03,0.001,0.011
0.025,0.005,-0.02,-0.015,0.022,-0.007,0.03,-0.007,-0.017,0.026,0.0,0.006
0.021,-0.007,-0.028,-0.007,0.025,-0.017,0.03,-0.02,-0.02,0.021,0.0,0.002
0.017,-0.018,-0.035,0.001,0.027,-0.026,0.03,-0.031,-0.024,0.016,-0.005,-0.003
0.025,-0.013,-0.039,-0.006,0.032,-0.026,0.03,-0.026,-0.025,0.012,-0.005,-0.007
0.022,-0.017,-0.038,-0.002,0.03,-0.027,0.03,-0.021,-0.025,0.006,-0.006,-0.012
0.022,-0.012,-0.034,-0.005,0.029,-0.023,0.035,-0.016,-0.025,0.001,-0.012,-0.015
0.048,0.012,-0.036,-0.03,0.042,-0.011,0.035,-0.01,-0.027,-0.004,-0.018,-0.018
0.022,-0.01,-0.031,-0.006,0.027,-0.02,0.036,-0.005,-0.03,-0.011,-0.023,-0.022
0.0,-0.029,-0.029,0.014,0.015,-0.029,0.04,0.0,-0.035,-0.014,-0.029,-0.025
0.011,-0.02,-0.031,0.004,0.021,-0.025,0.04,0.003,-0.035,-0.011,-0.034,-0.021
0.006,-0.017,-0.023,0.006,0.015,-0.02,0.038,0.007,-0.03,-0.006,-0.032,-0.02
0.008,-0.012,-0.02,0.002,0.014,-0.016,0.033,0.01,-0.028,-0.004,-0.029,-0.02
0.003,-0.007,-0.01,0.002,0.007,-0.008,0.027,0.015,-0.023,0.001,-0.026,-0.02
0.013,-0.006,-0.019,-0.003,0.016,-0.012,0.024,0.013,-0.02,0.005,-0.023,-0.02
0.034,-0.011,-0.045,-0.011,0.039,-0.028,0.019,0.002,-0.023,0.003,-0.02,-0.021
0.026,-0.016,-0.042,-0.005,0.035,-0.029,0.014,-0.006,-0.027,-0.001,-0.02,-0.025
0.016,-0.019,-0.036,0.002,0.026,-0.027,0.028,-0.015,-0.03,-0.003,-0.02,-0.025
0.015,-0.017,-0.031,0.001,0.023,-0.024,0.039,-0.024,-0.03,-0.006,-0.02,-0.027
0.01,-0.014,-0.025,0.002,0.018,-0.019,0.032,-0.025,-0.035,-0.009,-0.02,-0.03
0.004,-0.015,-0.02,0.006,0.012,-0.017,0.027,-0.029,-0.036,-0.01,-0.02,-0.03
0.019,-0.015,-0.034,-0.002,0.027,-0.024,0.024,-0.031,-0.035,-0.01,-0.02,-0.026
0.025,-0.015,-0.04,-0.005,0.033,-0.027,0.018,-0.026,-0.035,-0.01,-0.025,-0.025
0.016,-0.014,-0.03,-0.001,0.024,-0.022,0.016,-0.025,-0.035,-0.01,-0.023,-0.025
0.025,-0.005,-0.03,-0.01,0.028,-0.017,0.007,-0.02,-0.034,-0.01,-0.015,-0.02
0.024,0.001,-0.022,-0.012,0.023,-0.01,0.005,-0.021,-0.032,-0.011,-0.01,-0.02
0.037,0.017,-0.021,-0.027,0.029,-0.002,0.029,-0.014,-0.026,-0.006,-0.002,-0.019
0.043,0.052,0.009,-0.048,0.017,0.03,0.042,-0.006,-0.025,0.011,0.003,-0.013
0.036,0.078,0.042,-0.058,-0.003,0.06,0.045,0.002,-0.008,0.034,0.011,-0.005
0.066,0.091,0.024,-0.079,0.021,0.057,0.046,0.011,0.013,0.03,0.017,-0.002
0.068,0.084,0.016,-0.076,0.026,0.049,0.042,0.002,0.01,0.02,0.025,0.008
0.041,0.037,-0.005,-0.039,0.023,0.016,0.038,0.003,-0.012,0.01,0.008,0.008
0.014,-0.004,-0.018,-0.005,0.016,-0.011,0.026,-0.02,-0.033,-0.001,-0.013,-0.005
0.006,-0.033,-0.04,0.014,0.023,-0.036,0.027,-0.016,-0.038,-0.007,-0.025,-0.017
0.003,-0.061,-0.064,0.03,0.033,-0.062,0.01,-0.06,-0.066,-0.025,-0.045,-0.035
-0.011,-0.06,-0.049,0.035,0.02,-0.054,0.016,-0.042,-0.053,-0.022,-0.046,-0.037
-0.001,-0.076,-0.075,0.039,0.038,-0.075,0.009,-0.056,-0.065,-0.039,-0.057,-0.045
-0.002,-0.05,-0.048,0.027,0.024,-0.049,0.021,-0.046,-0.039,-0.02,-0.041,-0.033
0.004,-0.077,-0.081,0.037,0.043,-0.079,0.009,-0.036,-0.054,-0.042,-0.062,-0.048
-0.027,-0.018,0.008,0.023,-0.018,-0.005,0.051,0.007,-0.019,-0.004,-0.032,-0.033
-0.021,0.099,0.12,-0.039,-0.07,0.109,0.305,0.645,0.218,0.105,0.002,-0.032
0.276,0.154,-0.122,-0.215,0.199,0.016,0.08,0.211,0.327,0.33,0.203,0.137
0.607,0.233,-0.374,-0.42,0.491,-0.071,-0.551,-0.981,0.456,0.674,0.55,0.47
0.444,-0.131,-0.574,-0.157,0.509,-0.352,-1.016,-1.608,-0.115,0.103,0.181,0.27
0.117,-0.392,-0.51,0.138,0.314,-0.451,-1.051,-1.794,-0.831,-0.552,-0.251,-0.046
0.019,-0.168,-0.187,0.075,0.103,-0.177,-0.496,-0.877,-0.467,-0.289,-0.157,-0.058
-0.037,-0.066,-0.03,0.052,-0.003,-0.048,-0.102,-0.194,-0.138,-0.093,-0.092,-0.065
-0.026,-0.065,-0.039,0.046,0.006,-0.052,-0.032,-0.091,-0.1,-0.058,-0.06,-0.052
0.001,-0.061,-0.062,0.03,0.032,-0.061,0.027,0.015,-0.047,-0.032,-0.057,-0.053
-0.003,-0.057,-0.054,0.03,0.026,-0.055,0.038,0.0,-0.051,-0.042,-0.056,-0.046
0.0,-0.05,-0.051,0.025,0.026,-0.05,0.046,0.044,-0.026,-0.027,-0.048,-0.044
-0.008,-0.053,-0.045,0.031,0.018,-0.048,0.046,0.034,-0.027,-0.033,-0.049,-0.047
-0.019,-0.056,-0.037,0.038,0.01,-0.047,0.067,0.063,-0.017,-0.022,-0.042,-0.043
-0.033,-0.07,-0.037,0.052,0.002,-0.053,0.077,0.072,-0.022,-0.023,-0.047,-0.046
-0.017,-0.065,-0.048,0.041,0.016,-0.056,0.073,0.071,-0.016,-0.018,-0.044,-0.044
-0.014,-0.06,-0.046,0.037,0.016,-0.053,0.076,0.078,-0.014,-0.016,-0.046,-0.045
-0.019,-0.055,-0.036,0.037,0.009,-0.045,0.074,0.085,-0.015,-0.014,-0.045,-0.039
-0.015,-0.048,-0.033,0.032,0.009,-0.04,0.075,0.11,0.005,-0.01,-0.045,-0.032
-0.023,-0.044,-0.022,0.034,0.0,-0.033,0.085,0.125,0.004,-0.009,-0.041,-0.026
0.006,-0.019,-0.024,0.006,0.015,-0.021,0.102,0.16,0.0,0.003,-0.029,-0.019
0.023,-0.013,-0.036,-0.005,0.03,-0.024,0.111,0.197,0.017,0.016,-0.021,-0.013
0.004,-0.015,-0.019,0.006,0.011,-0.017,0.136,0.25,0.037,0.022,-0.01,-0.007
0.012,0.005,-0.007,-0.009,0.009,-0.001,0.165,0.305,0.048,0.033,0.007,0.003
0.053,0.044,-0.009,-0.048,0.031,0.017,0.184,0.356,0.066,0.054,0.025,0.011
0.082,0.098,0.016,-0.089,0.033,0.057,0.187,0.4,0.099,0.092,0.058,0.04
0.088,0.126,0.037,-0.108,0.025,0.081,0.175,0.406,0.107,0.124,0.085,0.076
0.109,0.142,0.033,-0.126,0.038,0.088,0.163,0.378,0.097,0.124,0.09,0.088
0.112,0.142,0.03,-0.127,0.041,0.086,0.153,0.329,0.095,0.115,0.091,0.084
0.103,0.13,0.027,-0.117,0.038,0.078,0.14,0.277,0.082,0.11,0.089,0.079
0.084,0.107,0.023,-0.096,0.03,0.065,0.129,0.213,0.052,0.087,0.074,0.067
0.043,0.059,0.016,-0.051,0.013,0.037,0.113,0.145,0.026,0.044,0.041,0.032
0.015,0.021,0.006,-0.018,0.004,0.013,0.081,0.094,0.009,0.017,0.0,0.006
-0.011,-0.013,-0.001,0.012,-0.005,-0.007,0.061,0.05,-0.014,-0.006,-0.034,-0.011
-0.022,-0.032,-0.01,0.027,-0.005,-0.021,0.053,0.016,-0.036,-0.032,-0.049,-0.026
-0.032,-0.047,-0.015,0.04,-0.008,-0.031,0.045,-0.004,-0.041,-0.035,-0.05,-0.036
-0.04,-0.063,-0.024,0.052,-0.008,-0.043,0.035,-0.012,-0.043,-0.035,-0.05,-0.049
-0.024,-0.067,-0.042,0.046,0.009,-0.054,0.032,-0.02,-0.046,-0.035,-0.05,-0.055
-0.033,-0.079,-0.046,0.057,0.007,-0.062,0.036,-0.03,-0.049,-0.034,-0.05,-0.055
-0.042,-0.086,-0.044,0.065,0.002,-0.065,0.034,-0.038,-0.05,-0.048,-0.06,-0.055
-0.043,-0.089,-0.045,0.066,0.001,-0.066,0.039,-0.047,-0.057,-0.06,-0.07,-0.055
-0.05,-0.095,-0.045,0.073,-0.002,-0.07,0.04,-0.045,-0.078,-0.075,-0.071,-0.055
-0.052,-0.096,-0.044,0.074,-0.004,-0.069,0.04,-0.038,-0.079,-0.081,-0.07,-0.057
-0.052,-0.092,-0.04,0.072,-0.006,-0.066,0.045,-0.034,-0.072,-0.074,-0.07,-0.06
-0.048,-0.088,-0.04,0.068,-0.004,-0.064,0.045,-0.028,-0.069,-0.072,-0.065,-0.06
-0.048,-0.085,-0.037,0.067,-0.005,-0.061,0.045,-0.022,-0.063,-0.067,-0.065,-0.06
-0.044,-0.079,-0.035,0.062,-0.004,-0.056,0.045,-0.02,-0.06,-0.064,-0.064,-0.06
-0.051,-0.085,-0.034,0.069,-0.009,-0.059,0.045,-0.02,-0.055,-0.061,-0.06,-0.06
-0.052,-0.096,-0.044,0.074,-0.004,-0.07,0.043,-0.02,-0.055,-0.056,-0.061,-0.056
-0.046,-0.095,-0.049,0.071,0.002,-0.072,0.036,-0.02,-0.055,-0.054,-0.057,-0.051
-0.051,-0.094,-0.042,0.073,-0.004,-0.068,0.029,-0.02,-0.055,-0.049,-0.055,-0.049
-0.053,-0.09,-0.037,0.072,-0.008,-0.063,0.023,-0.02,-0.055,-0.046,-0.055,-0.044
-0.057,-0.089,-0.032,0.073,-0.013,-0.061,0.015,-0.025,-0.055,-0.045,-0.055,-0.04
-0.068,-0.093,-0.024,0.081,-0.022,-0.058,0.01,-0.028,-0.055,-0.045,-0.055,-0.04
-0.061,-0.095,-0.034,0.079,-0.013,-0.065,0.01,-0.033,-0.055,-0.045,-0.055,-0.04
-0.031,-0.095,-0.064,0.063,0.017,-0.079,0.01,-0.035,-0.055,-0.045,-0.055,-0.04
-0.034,-0.099,-0.065,0.067,0.016,-0.081,0.01,-0.036,-0.055,-0.045,-0.055,-0.04
-0.041,-0.101,-0.06,0.071,0.009,-0.08,0.011,-0.04,-0.055,-0.045,-0.054,-0.04
-0.04,-0.099,-0.059,0.069,0.01,-0.079,0.01,-0.038,-0.049,-0.051,-0.048,-0.04
-0.038,-0.092,-0.054,0.066,0.008,-0.073,0.012,-0.034,-0.044,-0.052,-0.041,-0.033
-0.017,-0.071,-0.054,0.044,0.018,-0.062,0.023,-0.021,-0.037,-0.039,-0.034,-0.023
-0.024,-0.044,-0.021,0.034,-0.001,-0.032,0.031,-0.013,-0.032,-0.028,-0.028,-0.016
-0.014,-0.002,0.012,0.008,-0.013,0.005,0.042,-0.003,-0.03,-0.024,-0.024,-0.006
-0.006,0.012,0.018,-0.003,-0.013,0.015,0.042,0.006,-0.03,-0.025,-0.026,-0.006
-0.026,0.004,0.029,0.011,-0.027,0.016,0.028,-0.006,-0.028,-0.026,-0.024,-0.001
-0.015,-0.021,-0.006,0.018,-0.005,-0.013,0.022,-0.005,-0.021,-0.023,-0.025,0.0
-0.019,-0.05,-0.031,0.035,0.006,-0.04,0.008,-0.027,-0.031,-0.034,-0.026,-0.011
-0.036,-0.073,-0.038,0.055,0.001,-0.055,0.008,-0.02,-0.041,-0.042,-0.041,-0.025
-0.064,-0.123,-0.059,0.094,-0.003,-0.09,-0.003,-0.06,-0.065,-0.057,-0.058,-0.039
-0.058,-0.112,-0.054,0.085,-0.002,-0.082,-0.003,-0.051,-0.048,-0.057,-0.05,-0.038
-0.047,-0.123,-0.076,0.085,0.015,-0.099,-0.013,-0.052,-0.058,-0.066,-0.061,-0.044
-0.059,-0.099,-0.041,0.079,-0.009,-0.07,-0.015,-0.059,-0.038,-0.047,-0.047,-0.035
-0.025,-0.12,-0.096,0.073,0.036,-0.108,-0.023,-0.029,-0.042,-0.054,-0.065,-0.047
-0.038,-0.079,-0.041,0.059,0.002,-0.06,0.012,-0.025,-0.028,-0.034,-0.04,-0.032
-0.066,0.05,0.116,0.008,-0.092,0.082,0.287,0.611,0.21,0.07,-0.001,-0.03
0.178,0.099,-0.08,-0.138,0.128,0.01,0.128,0.315,0.344,0.291,0.192,0.136
0.547,0.21,-0.337,-0.378,0.442,-0.063,-0.554,-0.895,0.534,0.681,0.57,0.48
0.426,-0.126,-0.552,-0.15,0.489,-0.339,-1.066,-1.532,0.04,0.205,0.268,0.327
0.116,-0.446,-0.561,0.166,0.339,-0.503,-1.129,-1.805,-0.803,-0.542,-0.215,-0.001
0.006,-0.243,-0.249,0.119,0.127,-0.246,-0.584,-0.962,-0.505,-0.339,-0.147,-0.032
-0.066,-0.116,-0.05,0.092,-0.008,-0.083,-0.134,-0.2,-0.121,-0.103,-0.059,-0.03
-0.052,-0.106,-0.054,0.079,0.001,-0.079,-0.05,-0.09,-0.091,-0.077,-0.047,-0.019
-0.049,-0.102,-0.053,0.075,0.002,-0.077,0.006,0.037,-0.036,-0.047,-0.034,-0.015
-0.049,-0.094,-0.046,0.072,-0.001,-0.07,0.013,0.017,-0.044,-0.053,-0.029,-0.007
-0.04,-0.088,-0.048,0.065,0.004,-0.068,0.04,0.06,-0.016,-0.033,-0.019,-0.007
-0.046,-0.087,-0.041,0.067,-0.002,-0.064,0.045,0.055,-0.018,-0.034,-0.016,-0.023
-0.025,-0.081,-0.056,0.054,0.016,-0.069,0.044,0.06,-0.006,-0.02,-0.006,-0.019
-0.022,-0.079,-0.057,0.051,0.018,-0.068,0.051,0.075,0.0,-0.017,-0.002,-0.014
-0.025,-0.074,-0.049,0.05,0.012,-0.061,0.048,0.077,0.004,-0.01,0.004,-0.008
-0.026,-0.072,-0.046,0.049,0.01,-0.059,0.058,0.098,0.015,-0.004,0.008,-0.003
-0.026,-0.068,-0.043,0.048,0.009,-0.055,0.068,0.111,0.012,0.001,0.014,0.002
-0.02,-0.06,-0.041,0.04,0.011,-0.05,0.074,0.125,0.027,0.01,0.017,0.008
-0.013,-0.05,-0.037,0.032,0.012,-0.043,0.078,0.14,0.042,0.02,0.023,0.016
-0.005,-0.041,-0.036,0.023,0.016,-0.038,0.097,0.174,0.043,0.03,0.027,0.023
0.007,-0.024,-0.031,0.009,0.02,-0.028,0.11,0.211,0.053,0.042,0.03,0.029
0.011,-0.001,-0.013,-0.005,0.012,-0.007,0.126,0.261,0.068,0.056,0.037,0.038
0.028,0.034,0.006,-0.032,0.011,0.02,0.151,0.316,0.088,0.076,0.052,0.044
0.06,0.076,0.016,-0.068,0.022,0.045,0.172,0.371,0.117,0.1,0.082,0.063
0.078,0.108,0.03,-0.093,0.024,0.069,0.182,0.408,0.14,0.123,0.107,0.092
0.093,0.138,0.045,-0.116,0.024,0.091,0.172,0.405,0.15,0.15,0.137,0.118
0.113,0.155,0.042,-0.134,0.035,0.098,0.169,0.38,0.141,0.164,0.154,0.134
0.114,0.15,0.036,-0.132,0.039,0.093,0.158,0.337,0.132,0.171,0.142,0.13
0.108,0.141,0.033,-0.125,0.037,0.087,0.13,0.272,0.124,0.156,0.132,0.122
0.093,0.12,0.027,-0.107,0.032,0.073,0.107,0.211,0.108,0.125,0.12,0.113
0.059,0.083,0.024,-0.071,0.017,0.053,0.088,0.164,0.092,0.101,0.104,0.093
0.036,0.054,0.019,-0.045,0.008,0.036,0.073,0.115,0.078,0.076,0.081,0.072
0.019,0.034,0.015,-0.027,0.002,0.024,0.058,0.082,0.065,0.06,0.056,0.053
0.009,0.02,0.011,-0.014,-0.001,0.015,0.042,0.062,0.058,0.05,0.042,0.042
0.002,0.008,0.006,-0.005,-0.002,0.007,0.04,0.045,0.054,0.037,0.037,0.038
-0.005,-0.005,0.0,0.005,-0.002,-0.002,0.04,0.028,0.049,0.028,0.035,0.032
-0.009,-0.015,-0.006,0.012,-0.001,-0.01,0.04,0.02,0.045,0.024,0.03,0.026
-0.015,-0.026,-0.011,0.02,-0.001,-0.018,0.04,0.019,0.04,0.022,0.027,0.021
-0.005,-0.033,-0.027,0.019,0.011,-0.03,0.04,0.015,0.037,0.019,0.023,0.016
0.003,-0.03,-0.033,0.014,0.018,-0.031,0.04,0.012,0.032,0.016,0.02,0.015
-0.001,-0.03,-0.029,0.015,0.014,-0.029,0.04,0.009,0.03,0.014,0.02,0.015
0.001,-0.03,-0.031,0.015,0.016,-0.03,0.04,0.012,0.025,0.01,0.02,0.015
0.0,-0.03,-0.03,0.015,0.015,-0.03,0.04,0.019,0.022,0.01,0.02,0.015
0.0,-0.03,-0.03,0.015,0.015,-0.03,0.04,0.023,0.018,0.01,0.02,0.016
0.003,-0.026,-0.029,0.012,0.016,-0.027,0.037,0.031,0.015,0.011,0.024,0.02
0.001,-0.022,-0.023,0.011,0.012,-0.022,0.034,0.033,0.015,0.009,0.025,0.019
0.002,-0.016,-0.018,0.007,0.01,-0.017,0.035,0.04,0.014,0.017,0.027,0.022
-0.001,-0.013,-0.012,0.007,0.006,-0.013,0.035,0.066,0.033,0.041,0.03,0.025
0.0,-0.006,-0.006,0.004,0.003,-0.006,0.035,0.07,0.042,0.046,0.031,0.025
-0.006,-0.008,-0.001,0.007,-0.002,-0.004,0.034,0.064,0.039,0.044,0.036,0.029
-0.029,-0.025,0.004,0.027,-0.016,-0.01,0.03,0.062,0.041,0.049,0.041,0.03
-0.026,-0.021,0.005,0.023,-0.015,-0.008,0.03,0.057,0.04,0.05,0.044,0.03
-0.014,-0.009,0.005,0.011,-0.01,-0.002,0.03,0.055,0.04,0.05,0.042,0.03
-0.011,-0.001,0.009,0.006,-0.01,0.004,0.03,0.05,0.035,0.045,0.039,0.03
0.003,0.014,0.011,-0.008,-0.004,0.012,0.03,0.045,0.031,0.042,0.04,0.031
0.013,0.022,0.008,-0.018,0.002,0.015,0.027,0.041,0.029,0.038,0.04,0.035
0.015,0.02,0.005,-0.018,0.005,0.012,0.025,0.036,0.024,0.035,0.04,0.035
0.019,0.02,0.0,-0.02,0.009,0.01,0.025,0.032,0.021,0.03,0.041,0.035
0.018,0.016,-0.002,-0.016,0.009,0.007,0.021,0.027,0.019,0.033,0.045,0.035
0.021,0.014,-0.007,-0.017,0.013,0.003,0.019,0.024,0.02,0.04,0.049,0.034
0.028,0.018,-0.01,-0.023,0.018,0.003,0.021,0.026,0.02,0.04,0.05,0.039
0.024,0.018,-0.006,-0.021,0.015,0.006,0.019,0.024,0.02,0.043,0.05,0.039
0.025,0.025,0.0,-0.025,0.012,0.013,0.022,0.027,0.021,0.046,0.05,0.043
0.015,0.021,0.006,-0.018,0.004,0.013,0.018,0.023,0.019,0.043,0.051,0.044
0.03,0.042,0.012,-0.036,0.009,0.027,0.028,0.037,0.031,0.054,0.065,0.047
0.037,0.075,0.038,-0.056,-0.001,0.056,0.054,0.065,0.044,0.068,0.072,0.058
0.045,0.104,0.06,-0.074,-0.008,0.082,0.057,0.068,0.062,0.086,0.088,0.072
0.083,0.148,0.065,-0.115,0.009,0.106,0.05,0.078,0.085,0.097,0.1,0.091
0.06,0.141,0.081,-0.101,-0.01,0.111,0.042,0.06,0.076,0.087,0.092,0.09
0.052,0.125,0.073,-0.089,-0.011,0.098,0.036,0.06,0.07,0.084,0.087,0.079
0.037,0.088,0.05,-0.063,-0.007,0.069,0.026,0.041,0.054,0.074,0.076,0.07
0.006,0.048,0.042,-0.027,-0.018,0.045,0.021,0.04,0.051,0.071,0.073,0.066
0.006,0.018,0.012,-0.013,-0.003,0.015,0.015,0.037,0.038,0.064,0.064,0.058
0.002,0.023,0.021,-0.013,-0.01,0.022,0.014,0.02,0.031,0.072,0.073,0.058
0.009,0.018,0.008,-0.014,0.0,0.012,0.018,0.042,0.028,0.07,0.067,0.049
-0.001,0.02,0.021,-0.01,-0.011,0.02,0.009,-0.007,0.009,0.069,0.073,0.048
0.013,0.025,0.012,-0.02,0.0,0.018,0.024,0.058,0.03,0.084,0.078,0.044
-0.007,0.005,0.012,0.001,-0.01,0.008,0.006,-0.021,0.006,0.058,0.067,0.044
-0.025,0.152,0.176,-0.064,-0.101,0.164,0.213,0.458,0.206,0.156,0.12,0.067
0.111,0.238,0.127,-0.175,-0.008,0.182,0.287,0.605,0.364,0.295,0.203,0.123
0.525,0.389,-0.136,-0.457,0.33,0.126,-0.36,-0.545,0.519,0.66,0.579,0.48
0.729,0.287,-0.441,-0.508,0.585,-0.077,-1.052,-1.239,0.392,0.624,0.618,0.583
0.373,-0.199,-0.572,-0.087,0.473,-0.385,-1.205,-1.66,-0.508,-0.205,0.055,0.205
0.145,-0.178,-0.323,0.017,0.234,-0.25,-0.744,-1.208,-0.592,-0.342,-0.07,0.08
0.069,0.035,-0.035,-0.052,0.052,0.0,-0.191,-0.242,-0.098,-0.026,0.058,0.085
0.018,0.047,0.029,-0.033,-0.006,0.038,-0.04,-0.051,-0.038,0.007,0.056,0.049
0.038,0.045,0.007,-0.042,0.015,0.026,0.006,0.073,0.022,0.055,0.063,0.052
0.013,0.035,0.022,-0.024,-0.004,0.028,0.053,0.098,0.03,0.051,0.057,0.049
0.015,0.033,0.018,-0.024,-0.002,0.026,0.07,0.115,0.047,0.063,0.072,0.057
0.004,0.025,0.02,-0.014,-0.008,0.022,0.074,0.133,0.055,0.073,0.075,0.056
0.013,0.03,0.016,-0.022,-0.002,0.022,0.075,0.131,0.053,0.077,0.078,0.06
0.013,0.041,0.028,-0.027,-0.008,0.034,0.081,0.151,0.064,0.087,0.082,0.062
0.007,0.045,0.038,-0.026,-0.016,0.041,0.082,0.143,0.056,0.082,0.083,0.065
0.02,0.046,0.026,-0.033,-0.004,0.035,0.088,0.161,0.063,0.087,0.086,0.065
0.023,0.049,0.026,-0.037,-0.001,0.037,0.091,0.166,0.057,0.083,0.089,0.068
0.031,0.05,0.02,-0.041,0.005,0.035,0.1,0.188,0.068,0.088,0.09,0.071
0.04,0.054,0.014,-0.047,0.013,0.034,0.107,0.201,0.077,0.094,0.093,0.07
0.04,0.068,0.029,-0.054,0.005,0.048,0.121,0.23,0.082,0.101,0.107,0.075
0.036,0.079,0.043,-0.058,-0.004,0.061,0.142,0.262,0.083,0.107,0.112,0.076
0.042,0.097,0.054,-0.07,-0.007,0.075,0.159,0.305,0.095,0.114,0.118,0.074
0.047,0.117,0.07,-0.082,-0.012,0.093,0.186,0.356,0.122,0.126,0.127,0.081
0.073,0.153,0.081,-0.113,-0.004,0.117,0.22,0.418,0.14,0.144,0.141,0.101
0.126,0.213,0.087,-0.17,0.019,0.15,0.232,0.465,0.165,0.18,0.165,0.123
0.135,0.239,0.104,-0.187,0.016,0.171,0.22,0.458,0.177,0.202,0.19,0.147
0.115,0.236,0.122,-0.176,-0.004,0.179,0.213,0.447,0.169,0.198,0.209,0.164
0.119,0.229,0.11,-0.174,0.004,0.169,0.203,0.417,0.168,0.19,0.214,0.169
0.115,0.222,0.107,-0.169,0.004,0.164,0.178,0.361,0.159,0.181,0.205,0.164
0.115,0.216,0.101,-0.166,0.007,0.158,0.148,0.29,0.134,0.175,0.196,0.166
0.098,0.193,0.096,-0.146,0.001,0.144,0.123,0.223,0.113,0.164,0.178,0.152
0.064,0.159,0.094,-0.112,-0.015,0.127,0.103,0.179,0.097,0.142,0.153,0.118
0.062,0.12,0.058,-0.091,0.001,0.089,0.082,0.146,0.083,0.127,0.132,0.099
0.048,0.098,0.05,-0.073,-0.001,0.073,0.065,0.12,0.078,0.118,0.121,0.083
0.031,0.093,0.062,-0.063,-0.015,0.077,0.058,0.097,0.075,0.107,0.116,0.07
0.033,0.086,0.052,-0.06,-0.01,0.069,0.054,0.082,0.071,0.098,0.111,0.07
0.029,0.079,0.05,-0.054,-0.011,0.065,0.049,0.073,0.067,0.093,0.107,0.07
0.028,0.073,0.045,-0.051,-0.009,0.058,0.045,0.065,0.064,0.09,0.103,0.065
0.027,0.067,0.04,-0.047,-0.007,0.054,0.04,0.055,0.061,0.087,0.098,0.065
0.026,0.062,0.036,-0.044,-0.005,0.049,0.04,0.049,0.056,0.082,0.095,0.064
0.029,0.059,0.029,-0.044,0.0,0.044,0.04,0.05,0.054,0.08,0.095,0.06
0.028,0.054,0.026,-0.041,0.001,0.04,0.04,0.05,0.05,0.085,0.095,0.06
0.031,0.05,0.019,-0.041,0.006,0.034,0.04,0.049,0.045,0.085,0.095,0.06
0.036,0.05,0.013,-0.043,0.012,0.031,0.039,0.059,0.047,0.085,0.095,0.06
0.039,0.05,0.011,-0.045,0.014,0.03,0.042,0.071,0.05,0.085,0.091,0.06
0.031,0.05,0.019,-0.041,0.006,0.034,0.044,0.078,0.05,0.085,0.09,0.06
0.008,0.05,0.042,-0.029,-0.017,0.046,0.049,0.084,0.05,0.085,0.09,0.06
-0.002,0.05,0.052,-0.024,-0.027,0.051,0.053,0.091,0.05,0.085,0.09,0.06
0.001,0.049,0.049,-0.025,-0.024,0.049,0.05,0.096,0.05,0.085,0.09,0.06
-0.003,0.051,0.054,-0.024,-0.029,0.052,0.047,0.089,0.05,0.085,0.09,0.06
-0.007,0.048,0.055,-0.021,-0.031,0.051,0.045,0.085,0.05,0.085,0.09,0.058
0.002,0.056,0.055,-0.029,-0.027,0.055,0.041,0.081,0.05,0.085,0.09,0.055
0.002,0.067,0.066,-0.035,-0.033,0.066,0.04,0.076,0.05,0.08,0.09,0.055
0.005,0.062,0.057,-0.033,-0.026,0.059,0.037,0.073,0.05,0.08,0.09,0.055
0.023,0.06,0.037,-0.042,-0.007,0.048,0.032,0.067,0.053,0.079,0.09,0.055
0.025,0.056,0.032,-0.041,-0.004,0.044,0.029,0.062,0.055,0.075,0.086,0.055
0.027,0.055,0.027,-0.041,-0.001,0.04,0.026,0.059,0.055,0.075,0.085,0.058
0.015,0.052,0.037,-0.034,-0.011,0.044,0.021,0.053,0.055,0.075,0.085,0.06
0.023,0.048,0.025,-0.036,-0.001,0.037,0.021,0.05,0.055,0.075,0.085,0.06
0.021,0.046,0.025,-0.034,-0.003,0.036,0.025,0.055,0.055,0.075,0.085,0.065
-0.017,0.044,0.06,-0.014,-0.039,0.052,0.027,0.06,0.055,0.075,0.086,0.065
0.007,0.074,0.066,-0.041,-0.03,0.07,0.031,0.064,0.056,0.075,0.096,0.065
0.032,0.097,0.064,-0.065,-0.016,0.08,0.032,0.067,0.054,0.075,0.096,0.073
0.042,0.107,0.065,-0.075,-0.012,0.086,0.044,0.079,0.062,0.09,0.097,0.078
0.053,0.142,0.089,-0.097,-0.018,0.115,0.05,0.093,0.076,0.107,0.116,0.088
0.063,0.166,0.103,-0.115,-0.02,0.134,0.041,0.117,0.098,0.108,0.136,0.092
0.075,0.164,0.089,-0.12,-0.007,0.127,0.029,0.102,0.096,0.097,0.135,0.081
0.062,0.156,0.094,-0.109,-0.016,0.124,0.02,0.083,0.082,0.094,0.128,0.077
0.037,0.119,0.082,-0.079,-0.022,0.1,0.015,0.08,0.069,0.084,0.117,0.066
-0.006,0.079,0.085,-0.036,-0.046,0.082,0.014,0.06,0.055,0.08,0.109,0.062
-0.03,0.044,0.074,-0.007,-0.052,0.059,0.017,0.072,0.048,0.077,0.092,0.053
-0.019,0.041,0.06,-0.011,-0.04,0.05,0.012,0.044,0.034,0.068,0.081,0.05
-0.007,0.04,0.048,-0.017,-0.028,0.044,0.02,0.079,0.049,0.074,0.082,0.051
-0.013,0.024,0.038,-0.006,-0.026,0.03,0.005,0.038,0.028,0.056,0.075,0.045
-0.011,0.042,0.053,-0.016,-0.033,0.047,0.016,0.083,0.055,0.072,0.088,0.049
-0.008,0.0,0.008,0.004,-0.009,0.004,-0.007,0.032,0.018,0.045,0.068,0.038
-0.03,0.109,0.138,-0.04,-0.084,0.123,0.101,0.202,0.111,0.112,0.108,0.061
0.001,0.207,0.206,-0.104,-0.103,0.206,0.319,0.747,0.33,0.23,0.152,0.069
0.329,0.315,-0.014,-0.322,0.171,0.151,-0.046,-0.02,0.413,0.485,0.417,0.315
0.699,0.397,-0.302,-0.548,0.5,0.048,-0.758,-1.009,0.461,0.717,0.68,0.59
0.479,-0.046,-0.525,-0.216,0.502,-0.286,-1.15,-1.511,-0.235,0.039,0.228,0.307
0.151,-0.237,-0.387,0.043,0.269,-0.312,-0.936,-1.507,-0.718,-0.439,-0.116,0.048
0.049,-0.008,-0.058,-0.02,0.053,-0.033,-0.346,-0.524,-0.245,-0.131,-0.004,0.067
-0.029,0.058,0.087,-0.015,-0.058,0.072,-0.063,-0.069,-0.026,-0.001,0.036,0.047
-0.01,0.048,0.058,-0.019,-0.034,0.053,-0.015,0.026,-0.002,0.038,0.064,0.04
-0.025,0.026,0.051,-0.001,-0.038,0.038,0.033,0.11,0.04,0.05,0.065,0.04
-0.027,0.031,0.058,-0.003,-0.042,0.044,0.046,0.093,0.04,0.053,0.064,0.04
-0.018,0.034,0.052,-0.008,-0.035,0.043,0.055,0.134,0.051,0.068,0.07,0.04
-0.021,0.039,0.06,-0.009,-0.041,0.049,0.058,0.114,0.04,0.062,0.068,0.039
-0.02,0.039,0.058,-0.01,-0.039,0.048,0.067,0.141,0.049,0.073,0.072,0.042
-0.036,0.026,0.061,0.005,-0.049,0.043,0.07,0.13,0.042,0.068,0.073,0.045
-0.015,0.047,0.063,-0.016,-0.039,0.055,0.072,0.145,0.05,0.076,0.079,0.045
-0.018,0.048,0.066,-0.015,-0.042,0.056,0.075,0.156,0.051,0.074,0.082,0.044
-0.013,0.052,0.065,-0.02,-0.039,0.058,0.079,0.164,0.059,0.075,0.085,0.049
0.019,0.083,0.064,-0.052,-0.023,0.074,0.087,0.196,0.082,0.075,0.086,0.05
0.022,0.089,0.067,-0.056,-0.023,0.078,0.101,0.212,0.087,0.077,0.091,0.051
0.023,0.091,0.069,-0.057,-0.023,0.08,0.12,0.241,0.088,0.085,0.089,0.055
0.021,0.1,0.078,-0.061,-0.029,0.089,0.133,0.278,0.094,0.099,0.098,0.062
0.017,0.11,0.093,-0.064,-0.038,0.102,0.16,0.331,0.107,0.114,0.116,0.076
0.038,0.138,0.1,-0.088,-0.032,0.119,0.184,0.383,0.12,0.126,0.124,0.085
0.059,0.172,0.113,-0.116,-0.027,0.142,0.185,0.428,0.146,0.151,0.144,0.096
0.076,0.208,0.131,-0.142,-0.028,0.169,0.181,0.453,0.165,0.175,0.173,0.123
0.104,0.243,0.139,-0.174,-0.017,0.191,0.176,0.44,0.164,0.185,0.196,0.145
0.122,0.253,0.131,-0.188,-0.005,0.191,0.173,0.41,0.167,0.177,0.203,0.147
0.129,0.253,0.124,-0.191,0.002,0.188,0.162,0.36,0.158,0.168,0.199,0.138
0.121,0.239,0.118,-0.18,0.002,0.178,0.127,0.29,0.126,0.162,0.197,0.129
0.084,0.195,0.111,-0.14,-0.014,0.153,0.102,0.234,0.102,0.153,0.181,0.121
0.043,0.149,0.106,-0.096,-0.032,0.127,0.088,0.195,0.083,0.128,0.148,0.102
0.014,0.113,0.099,-0.064,-0.043,0.106,0.071,0.156,0.066,0.101,0.119,0.077
0.001,0.094,0.092,-0.048,-0.046,0.093,0.06,0.122,0.054,0.086,0.101,0.057
-0.008,0.077,0.086,-0.035,-0.047,0.081,0.048,0.092,0.043,0.07,0.094,0.044
-0.013,0.066,0.079,-0.027,-0.046,0.072,0.037,0.074,0.039,0.061,0.088,0.04
-0.012,0.063,0.075,-0.026,-0.044,0.068,0.03,0.059,0.034,0.055,0.081,0.035
-0.016,0.059,0.075,-0.022,-0.046,0.067,0.025,0.047,0.028,0.047,0.074,0.031
-0.017,0.056,0.072,-0.02,-0.045,0.064,0.02,0.038,0.022,0.039,0.068,0.026
-0.018,0.051,0.07,-0.017,-0.044,0.06,0.016,0.029,0.017,0.032,0.065,0.022
-0.022,0.048,0.07,-0.013,-0.046,0.059,0.011,0.03,0.015,0.026,0.062,0.02
-0.023,0.044,0.067,-0.011,-0.045,0.055,0.012,0.03,0.012,0.025,0.06,0.017
-0.023,0.038,0.062,-0.008,-0.043,0.05,0.02,0.03,0.009,0.025,0.056,0.014
-0.025,0.035,0.06,-0.005,-0.043,0.047,0.025,0.03,0.005,0.025,0.055,0.011
-0.025,0.03,0.055,-0.003,-0.04,0.042,0.025,0.029,0.005,0.025,0.051,0.01
-0.027,0.025,0.052,0.001,-0.04,0.038,0.025,0.043,0.01,0.025,0.045,0.01
-0.026,0.021,0.048,0.002,-0.037,0.034,0.025,0.051,0.01,0.025,0.04,0.01
-0.022,0.019,0.042,0.001,-0.032,0.03,0.025,0.049,0.01,0.025,0.035,0.01
-0.014,0.02,0.034,-0.004,-0.024,0.027,0.025,0.05,0.01,0.025,0.028,0.01
-0.007,0.019,0.026,-0.007,-0.016,0.023,0.023,0.05,0.01,0.025,0.027,0.01
-0.038,0.02,0.058,0.009,-0.048,0.039,0.019,0.05,0.008,0.025,0.031,0.007
-0.053,0.021,0.074,0.016,-0.064,0.047,0.02,0.046,0.005,0.029,0.03,0.005
-0.039,0.026,0.065,0.006,-0.052,0.045,0.016,0.041,0.002,0.03,0.03,0.005
-0.036,0.029,0.065,0.003,-0.05,0.047,0.015,0.036,-0.001,0.03,0.03,0.005
-0.034,0.026,0.06,0.004,-0.048,0.043,0.015,0.033,-0.005,0.03,0.03,0.005
-0.019,0.04,0.059,-0.011,-0.04,0.049,0.01,0.027,-0.005,0.029,0.031,0.006
-0.012,0.043,0.056,-0.016,-0.034,0.049,0.01,0.026,-0.001,0.032,0.035,0.009
-0.015,0.035,0.049,-0.01,-0.032,0.042,0.008,0.03,0.003,0.035,0.04,0.01
-0.014,0.032,0.046,-0.01,-0.03,0.038,0.005,0.03,0.007,0.037,0.036,0.012
-0.018,0.024,0.042,-0.003,-0.031,0.032,0.005,0.033,0.011,0.04,0.035,0.015
-0.013,0.022,0.034,-0.005,-0.024,0.027,0.008,0.036,0.015,0.044,0.034,0.018
-0.009,0.038,0.047,-0.015,-0.028,0.042,0.018,0.036,0.018,0.045,0.037,0.021
0.01,0.064,0.054,-0.037,-0.023,0.059,0.024,0.033,0.023,0.048,0.061,0.025
0.009,0.076,0.067,-0.043,-0.029,0.071,0.036,0.048,0.025,0.053,0.073,0.024
0.003,0.098,0.095,-0.051,-0.047,0.096,0.044,0.06,0.037,0.055,0.073,0.034
0.022,0.114,0.091,-0.068,-0.035,0.102,0.036,0.07,0.05,0.064,0.069,0.046
0.024,0.105,0.082,-0.065,-0.029,0.093,0.021,0.045,0.035,0.058,0.059,0.036
0.023,0.105,0.082,-0.064,-0.03,0.093,0.016,0.025,0.031,0.051,0.056,0.032
-0.009,0.057,0.066,-0.025,-0.037,0.061,0.01,0.023,0.019,0.04,0.045,0.023
-0.041,0.024,0.065,0.008,-0.053,0.044,0.004,0.003,0.011,0.031,0.043,0.018
-0.043,0.006,0.049,0.018,-0.046,0.027,0.004,0.013,0.001,0.018,0.035,0.008
-0.047,-0.002,0.045,0.024,-0.046,0.021,-0.008,-0.017,-0.019,0.009,0.032,0.003
-0.038,0.001,0.039,0.018,-0.039,0.02,0.0,0.015,-0.021,0.011,0.031,-0.004
-0.041,-0.005,0.036,0.023,-0.039,0.016,-0.012,-0.032,-0.041,-0.006,0.022,-0.015
-0.041,0.01,0.051,0.016,-0.046,0.03,0.005,0.013,-0.019,0.005,0.028,-0.013
-0.035,-0.019,0.016,0.027,-0.025,-0.002,-0.019,-0.045,-0.056,-0.026,0.009,-0.03
-0.081,0.078,0.159,0.002,-0.121,0.118,0.102,0.187,0.079,0.052,0.052,0.002
-0.041,0.151,0.191,-0.055,-0.116,0.17,0.295,0.704,0.279,0.164,0.089,0.018
0.347,0.286,-0.061,-0.316,0.204,0.112,-0.111,-0.119,0.361,0.441,0.376,0.282
0.667,0.323,-0.343,-0.495,0.504,-0.01,-0.763,-1.073,0.369,0.617,0.59,0.525
0.401,-0.129,-0.53,-0.136,0.466,-0.329,-1.126,-1.61,-0.355,-0.112,0.089,0.202
0.094,-0.276,-0.369,0.091,0.232,-0.322,-0.911,-1.539,-0.746,-0.507,-0.199,-0.039
0.003,-0.04,-0.043,0.018,0.023,-0.041,-0.323,-0.526,-0.268,-0.164,-0.062,-0.034
-0.049,0.017,0.066,0.015,-0.058,0.042,-0.073,-0.118,-0.076,-0.049,-0.03,-0.046
-0.044,-0.021,0.022,0.032,-0.033,0.0,-0.019,-0.022,-0.048,-0.021,-0.012,-0.033
-0.059,-0.027,0.032,0.043,-0.045,0.002,0.019,0.04,-0.018,-0.018,-0.016,-0.038
-0.054,-0.024,0.03,0.039,-0.042,0.003,0.019,0.036,-0.017,-0.023,-0.015,-0.033
-0.057,-0.025,0.032,0.041,-0.044,0.003,0.034,0.079,0.006,-0.02,-0.014,-0.039
-0.056,-0.019,0.038,0.037,-0.047,0.009,0.04,0.064,0.0,-0.029,-0.016,-0.04
-0.053,-0.021,0.033,0.037,-0.043,0.005,0.053,0.091,0.012,-0.021,-0.016,-0.04
-0.061,-0.017,0.043,0.039,-0.052,0.013,0.055,0.082,0.013,-0.023,-0.022,-0.045
-0.052,-0.011,0.041,0.032,-0.047,0.015,0.055,0.09,0.021,-0.013,-0.019,-0.045
-0.047,-0.006,0.041,0.027,-0.043,0.017,0.062,0.093,0.026,-0.011,-0.024,-0.044
-0.04,-0.001,0.039,0.02,-0.039,0.019,0.057,0.096,0.031,-0.006,-0.025,-0.037
-0.046,0.005,0.051,0.02,-0.049,0.028,0.059,0.12,0.036,-0.001,-0.025,-0.033
-0.045,0.01,0.055,0.017,-0.05,0.032,0.086,0.148,0.033,0.002,-0.018,-0.027
-0.043,0.015,0.058,0.014,-0.051,0.036,0.103,0.178,0.037,0.013,-0.007,-0.021
-0.036,0.025,0.061,0.005,-0.048,0.043,0.112,0.224,0.032,0.02,0.002,-0.017
-0.023,0.043,0.066,-0.01,-0.045,0.054,0.122,0.266,0.047,0.029,0.013,-0.01
-0.014,0.075,0.089,-0.031,-0.052,0.082,0.145,0.323,0.081,0.041,0.029,0.0
0.015,0.111,0.097,-0.064,-0.041,0.104,0.169,0.383,0.096,0.05,0.04,0.01
0.029,0.139,0.11,-0.084,-0.041,0.124,0.168,0.398,0.118,0.085,0.063,0.026
0.049,0.168,0.119,-0.109,-0.035,0.143,0.161,0.391,0.126,0.112,0.087,0.05
0.064,0.172,0.108,-0.118,-0.022,0.14,0.15,0.37,0.116,0.099,0.08,0.061
0.055,0.158,0.103,-0.107,-0.024,0.131,0.135,0.326,0.109,0.089,0.071,0.05
0.058,0.153,0.095,-0.106,-0.019,0.123,0.11,0.255,0.079,0.077,0.062,0.04
0.037,0.124,0.087,-0.081,-0.026,0.106,0.082,0.187,0.053,0.059,0.054,0.03
-0.003,0.078,0.081,-0.038,-0.042,0.079,0.065,0.134,0.043,0.034,0.035,-0.001
-0.036,0.038,0.075,-0.001,-0.056,0.056,0.049,0.084,0.03,0.0,-0.004,-0.027
-0.042,0.028,0.07,0.007,-0.056,0.049,0.037,0.049,0.02,-0.02,-0.028,-0.042
-0.042,0.023,0.065,0.009,-0.054,0.044,0.031,0.027,0.008,-0.03,-0.047,-0.058
-0.068,-0.006,0.061,0.037,-0.064,0.027,0.021,0.003,-0.004,-0.042,-0.06,-0.062
-0.075,-0.019,0.057,0.047,-0.066,0.019,0.015,-0.016,-0.014,-0.053,-0.059,-0.067
-0.078,-0.026,0.052,0.052,-0.065,0.013,0.007,-0.029,-0.035,-0.054,-0.062,-0.074
-0.084,-0.037,0.047,0.06,-0.065,0.005,-0.001,-0.042,-0.041,-0.061,-0.075,-0.08
-0.073,-0.032,0.041,0.052,-0.056,0.004,-0.008,-0.046,-0.04,-0.075,-0.08,-0.085
-0.079,-0.042,0.037,0.06,-0.057,-0.003,-0.014,-0.049,-0.051,-0.076,-0.082,-0.087
-0.093,-0.064,0.029,0.079,-0.061,-0.017,-0.009,-0.053,-0.049,-0.073,-0.085,-0.089
-0.092,-0.066,0.026,0.078,-0.058,-0.02,0.0,-0.055,-0.061,-0.082,-0.096,-0.101
-0.089,-0.064,0.024,0.076,-0.056,-0.02,0.007,-0.046,-0.073,-0.093,-0.107,-0.111
-0.089,-0.066,0.023,0.077,-0.055,-0.021,0.017,-0.033,-0.067,-0.09,-0.104,-0.109
-0.109,-0.065,0.044,0.087,-0.076,-0.01,0.017,-0.023,-0.066,-0.09,-0.108,-0.11
-0.115,-0.063,0.051,0.089,-0.083,-0.006,0.015,-0.018,-0.062,-0.09,-0.11,-0.11
-0.098,-0.055,0.043,0.076,-0.07,-0.006,0.015,-0.015,-0.059,-0.09,-0.11,-0.11
-0.093,-0.05,0.043,0.071,-0.068,-0.003,0.012,-0.012,-0.063,-0.09,-0.11,-0.11
-0.078,-0.042,0.036,0.06,-0.057,-0.003,0.009,-0.007,-0.065,-0.093,-0.11,-0.11
-0.072,-0.036,0.036,0.054,-0.054,0.0,0.01,-0.005,-0.066,-0.096,-0.11,-0.11
-0.089,-0.04,0.049,0.064,-0.069,0.005,0.005,-0.012,-0.064,-0.094,-0.11,-0.11
-0.089,-0.04,0.05,0.064,-0.069,0.005,0.005,-0.022,-0.067,-0.096,-0.11,-0.11
-0.092,-0.041,0.051,0.067,-0.071,0.004,0.004,-0.029,-0.079,-0.101,-0.109,-0.109
-0.094,-0.045,0.049,0.07,-0.071,0.002,-0.001,-0.04,-0.076,-0.105,-0.103,-0.103
-0.096,-0.045,0.051,0.07,-0.073,0.002,0.003,-0.047,-0.068,-0.101,-0.097,-0.097
-0.092,-0.042,0.05,0.067,-0.07,0.004,-0.011,-0.036,-0.064,-0.096,-0.092,-0.092
-0.063,-0.026,0.037,0.044,-0.05,0.006,0.003,-0.029,-0.058,-0.092,-0.086,-0.086
-0.079,-0.014,0.064,0.046,-0.072,0.024,0.038,-0.015,-0.054,-0.087,-0.081,-0.081
-0.061,0.021,0.082,0.02,-0.072,0.051,0.031,-0.008,-0.051,-0.084,-0.084,-0.076
-0.036,0.058,0.095,-0.011,-0.066,0.076,0.029,0.009,-0.047,-0.076,-0.084,-0.074
-0.048,0.048,0.097,0.0,-0.073,0.072,0.025,0.009,-0.045,-0.077,-0.088,-0.076
-0.029,0.048,0.077,-0.01,-0.054,0.063,0.019,-0.034,-0.038,-0.067,-0.089,-0.072
-0.052,0.012,0.064,0.02,-0.058,0.038,0.014,-0.046,-0.056,-0.084,-0.092,-0.082
-0.099,-0.036,0.063,0.067,-0.081,0.013,0.003,-0.062,-0.077,-0.105,-0.105,-0.1
-0.123,-0.067,0.057,0.095,-0.09,-0.005,0.004,-0.047,-0.092,-0.113,-0.124,-0.113
-0.133,-0.08,0.053,0.106,-0.092,-0.014,-0.013,-0.088,-0.114,-0.138,-0.135,-0.116
-0.13,-0.078,0.052,0.104,-0.091,-0.013,-0.005,-0.062,-0.102,-0.135,-0.137,-0.126
-0.133,-0.099,0.034,0.116,-0.083,-0.032,-0.027,-0.091,-0.132,-0.149,-0.136,-0.134
-0.136,-0.085,0.051,0.111,-0.093,-0.017,-0.015,-0.061,-0.101,-0.127,-0.12,-0.124
-0.135,-0.129,0.005,0.132,-0.069,-0.062,-0.04,-0.062,-0.131,-0.158,-0.127,-0.139
-0.138,-0.026,0.113,0.082,-0.125,0.043,0.051,0.054,-0.045,-0.108,-0.102,-0.117
-0.091,0.072,0.163,0.009,-0.127,0.117,0.299,0.658,0.169,-0.011,-0.103,-0.118
0.241,0.142,-0.098,-0.191,0.169,0.022,-0.045,0.012,0.31,0.292,0.18,0.115
0.501,0.172,-0.329,-0.336,0.415,-0.079,-0.634,-1.125,0.45,0.571,0.448,0.383
0.23,-0.275,-0.505,0.023,0.368,-0.39,-1.044,-1.733,-0.323,-0.178,-0.037,0.097
-0.029,-0.422,-0.393,0.226,0.182,-0.407,-1.026,-1.776,-0.926,-0.685,-0.37,-0.157
-0.095,-0.151,-0.056,0.123,-0.019,-0.103,-0.434,-0.752,-0.439,-0.353,-0.227,-0.131
-0.148,-0.071,0.077,0.109,-0.113,0.003,-0.113,-0.212,-0.196,-0.206,-0.179,-0.127
-0.137,-0.075,0.061,0.106,-0.099,-0.007,-0.061,-0.108,-0.154,-0.168,-0.167,-0.129
-0.143,-0.077,0.066,0.109,-0.104,-0.006,-0.012,-0.018,-0.114,-0.165,-0.161,-0.144
-0.137,-0.074,0.063,0.105,-0.1,-0.005,-0.003,-0.036,-0.122,-0.157,-0.152,-0.139
-0.129,-0.072,0.057,0.1,-0.092,-0.007,0.024,0.013,-0.1,-0.146,-0.147,-0.14
-0.123,-0.07,0.053,0.096,-0.088,-0.008,0.03,-0.002,-0.107,-0.154,-0.143,-0.141
-0.118,-0.07,0.048,0.094,-0.083,-0.011,0.037,0.029,-0.09,-0.147,-0.138,-0.139
-0.114,-0.071,0.044,0.092,-0.079,-0.013,0.035,0.039,-0.091,-0.153,-0.134,-0.141
-0.11,-0.069,0.041,0.089,-0.075,-0.014,0.034,0.052,-0.082,-0.148,-0.13,-0.139
-0.133,-0.071,0.062,0.102,-0.098,-0.004,0.036,0.055,-0.08,-0.151,-0.136,-0.141
-0.135,-0.066,0.069,0.1,-0.102,0.002,0.034,0.061,-0.075,-0.142,-0.131,-0.139
-0.123,-0.051,0.072,0.087,-0.097,0.01,0.043,0.077,-0.07,-0.132,-0.126,-0.14
-0.116,-0.039,0.077,0.077,-0.096,0.019,0.052,0.091,-0.064,-0.122,-0.12,-0.139
-0.095,-0.016,0.079,0.056,-0.087,0.031,0.057,0.132,-0.047,-0.106,-0.115,-0.123
-0.078,0.002,0.081,0.038,-0.08,0.041,0.082,0.175,-0.035,-0.094,-0.104,-0.099
-0.063,0.016,0.079,0.023,-0.071,0.047,0.106,0.227,-0.009,-0.078,-0.08,-0.077
-0.037,0.044,0.082,-0.003,-0.06,0.063,0.126,0.292,0.012,-0.055,-0.057,-0.062
-0.019,0.069,0.088,-0.025,-0.054,0.079,0.142,0.341,0.025,-0.032,-0.032,-0.044
-0.011,0.107,0.118,-0.049,-0.065,0.112,0.148,0.361,0.057,-0.005,-0.007,-0.017
0.01,0.144,0.134,-0.077,-0.062,0.139,0.148,0.354,0.064,0.022,0.002,-0.004
0.031,0.154,0.123,-0.093,-0.046,0.138,0.131,0.326,0.05,0.023,0.01,0.002
0.04,0.157,0.118,-0.099,-0.04,0.137,0.114,0.286,0.045,0.016,0.019,0.014
0.028,0.137,0.109,-0.083,-0.041,0.123,0.092,0.225,0.026,0.01,0.009,0.005
-0.009,0.094,0.102,-0.043,-0.056,0.098,0.075,0.157,-0.006,-0.01,-0.016,-0.018
-0.047,0.049,0.096,-0.001,-0.072,0.073,0.062,0.099,-0.026,-0.05,-0.049,-0.048
-0.075,0.014,0.089,0.031,-0.082,0.051,0.048,0.051,-0.042,-0.083,-0.078,-0.076
-0.096,-0.013,0.083,0.054,-0.089,0.035,0.037,0.014,-0.055,-0.102,-0.104,-0.097
-0.107,-0.031,0.075,0.069,-0.091,0.022,0.025,-0.012,-0.071,-0.126,-0.124,-0.116
-0.105,-0.035,0.069,0.07,-0.086,0.017,0.015,-0.033,-0.09,-0.139,-0.131,-0.121
-0.108,-0.044,0.063,0.076,-0.085,0.009,0.01,-0.051,-0.09,-0.143,-0.137,-0.124
-0.109,-0.051,0.058,0.08,-0.084,0.003,0.01,-0.051,-0.09,-0.146,-0.14,-0.128
-0.107,-0.056,0.05,0.081,-0.078,-0.003,0.008,-0.053,-0.09,-0.149,-0.142,-0.13
-0.113,-0.068,0.045,0.09,-0.078,-0.011,0.004,-0.056,-0.091,-0.152,-0.145,-0.13
-0.114,-0.077,0.037,0.096,-0.076,-0.02,0.005,-0.054,-0.095,-0.158,-0.148,-0.13
-0.113,-0.082,0.031,0.097,-0.072,-0.025,0.008,-0.055,-0.097,-0.161,-0.15,-0.13
-0.116,-0.075,0.041,0.095,-0.078,-0.017,0.013,-0.055,-0.101,-0.16,-0.15,-0.13
-0.116,-0.069,0.047,0.092,-0.081,-0.011,0.016,-0.055,-0.096,-0.16,-0.154,-0.13
-0.11,-0.066,0.044,0.087,-0.077,-0.011,0.019,-0.052,-0.095,-0.16,-0.156,-0.127
-0.098,-0.056,0.042,0.077,-0.07,-0.007,0.024,-0.046,-0.095,-0.16,-0.153,-0.124
-0.103,-0.063,0.04,0.083,-0.071,-0.012,0.024,-0.042,-0.09,-0.156,-0.15,-0.125
-0.118,-0.079,0.039,0.099,-0.078,-0.02,0.019,-0.038,-0.09,-0.155,-0.147,-0.121
-0.12,-0.07,0.05,0.095,-0.084,-0.01,0.016,-0.032,-0.089,-0.155,-0.145,-0.12
-0.118,-0.062,0.056,0.09,-0.087,-0.003,0.013,-0.031,-0.085,-0.15,-0.142,-0.12
-0.114,-0.06,0.054,0.087,-0.084,-0.002,0.008,-0.035,-0.085,-0.15,-0.139,-0.115
-0.111,-0.056,0.055,0.083,-0.083,-0.001,0.005,-0.039,-0.083,-0.149,-0.137,-0.115
-0.11,-0.055,0.055,0.082,-0.082,0.0,0.009,-0.041,-0.079,-0.144,-0.134,-0.114
-0.105,-0.05,0.055,0.077,-0.08,0.002,0.013,-0.045,-0.081,-0.139,-0.132,-0.109
-0.106,-0.051,0.055,0.078,-0.081,0.002,0.017,-0.04,-0.075,-0.134,-0.128,-0.111
-0.111,-0.055,0.055,0.083,-0.083,0.0,0.027,-0.03,-0.066,-0.13,-0.125,-0.107
-0.102,-0.049,0.053,0.075,-0.078,0.002,0.04,-0.026,-0.06,-0.125,-0.123,-0.098
-0.09,-0.024,0.066,0.057,-0.078,0.02,0.041,-0.013,-0.049,-0.121,-0.112,-0.089
-0.087,-0.004,0.083,0.045,-0.085,0.04,0.029,-0.012,-0.048,-0.118,-0.104,-0.082
-0.08,0.014,0.095,0.033,-0.088,0.054,0.021,-0.001,-0.048,-0.113,-0.105,-0.083
-0.07,0.021,0.09,0.024,-0.08,0.055,0.009,-0.02,-0.054,-0.112,-0.106,-0.088
-0.055,0.03,0.085,0.012,-0.071,0.057,0.005,-0.051,-0.054,-0.104,-0.104,-0.088
-0.07,0.002,0.072,0.033,-0.071,0.037,0.003,-0.053,-0.059,-0.107,-0.107,-0.094
-0.117,-0.048,0.068,0.082,-0.092,0.01,-0.002,-0.061,-0.067,-0.114,-0.104,-0.094
-0.13,-0.075,0.055,0.102,-0.092,-0.01,0.0,-0.045,-0.072,-0.125,-0.122,-0.094
-0.145,-0.091,0.054,0.118,-0.099,-0.018,-0.01,-0.085,-0.095,-0.137,-0.132,-0.105
-0.159,-0.11,0.049,0.134,-0.104,-0.03,0.002,-0.051,-0.086,-0.141,-0.14,-0.117
-0.151,-0.116,0.035,0.134,-0.093,-0.041,-0.013,-0.089,-0.1,-0.153,-0.158,-0.111
-0.152,-0.102,0.05,0.126,-0.101,-0.026,0.005,-0.042,-0.069,-0.131,-0.139,-0.105
-0.142,-0.139,0.003,0.141,-0.072,-0.068,-0.018,-0.088,-0.102,-0.155,-0.15,-0.108
-0.161,-0.019,0.142,0.09,-0.151,0.061,0.093,0.122,-0.001,-0.096,-0.111,-0.092
-0.111,0.07,0.181,0.02,-0.146,0.125,0.319,0.668,0.207,0.003,-0.068,-0.095
0.235,0.169,-0.066,-0.202,0.15,0.052,-0.104,-0.163,0.372,0.352,0.247,0.183
0.509,0.192,-0.317,-0.35,0.413,-0.063,-0.789,-1.174,0.497,0.591,0.484,0.429
0.257,-0.278,-0.535,0.011,0.396,-0.406,-1.163,-1.71,-0.32,-0.187,-0.02,0.121
-0.001,-0.409,-0.409,0.205,0.204,-0.409,-1.008,-1.676,-0.87,-0.64,-0.319,-0.103
-0.092,-0.165,-0.073,0.128,-0.009,-0.119,-0.395,-0.638,-0.364,-0.31,-0.194,-0.094
-0.172,-0.108,0.064,0.14,-0.118,-0.021,-0.099,-0.185,-0.151,-0.19,-0.153,-0.105
-0.141,-0.099,0.043,0.12,-0.092,-0.028,-0.05,-0.079,-0.113,-0.15,-0.126,-0.096
-0.131,-0.092,0.039,0.111,-0.085,-0.027,-0.001,0.005,-0.083,-0.137,-0.129,-0.103
-0.118,-0.083,0.035,0.1,-0.076,-0.024,0.001,-0.009,-0.088,-0.134,-0.123,-0.098
-0.1,-0.077,0.023,0.089,-0.061,-0.027,0.026,0.031,-0.062,-0.119,-0.119,-0.096
-0.095,-0.072,0.023,0.083,-0.059,-0.025,0.031,0.013,-0.067,-0.119,-0.117,-0.093
-0.084,-0.062,0.022,0.072,-0.053,-0.019,0.04,0.04,-0.05,-0.108,-0.111,-0.09
-0.094,-0.066,0.028,0.08,-0.061,-0.019,0.061,0.047,-0.053,-0.111,-0.109,-0.088
-0.102,-0.072,0.029,0.087,-0.065,-0.021,0.067,0.064,-0.043,-0.104,-0.101,-0.084
-0.097,-0.065,0.033,0.081,-0.065,-0.016,0.069,0.066,-0.039,-0.103,-0.099,-0.084
-0.09,-0.054,0.036,0.072,-0.063,-0.009,0.072,0.073,-0.034,-0.1,-0.093,-0.077
-0.08,-0.048,0.032,0.064,-0.056,-0.007,0.075,0.094,-0.025,-0.097,-0.09,-0.073
-0.063,-0.04,0.023,0.052,-0.043,-0.009,0.076,0.12,-0.02,-0.088,-0.083,-0.068
-0.052,-0.037,0.015,0.044,-0.033,-0.011,0.082,0.156,-0.012,-0.079,-0.074,-0.064
-0.034,-0.029,0.005,0.031,-0.019,-0.012,0.103,0.191,0.001,-0.072,-0.066,-0.06
-0.054,-0.015,0.039,0.034,-0.047,0.012,0.128,0.252,0.029,-0.052,-0.056,-0.049
-0.057,0.012,0.069,0.022,-0.063,0.04,0.158,0.306,0.051,-0.025,-0.038,-0.028
0.007,0.068,0.061,-0.038,-0.027,0.065,0.166,0.349,0.072,0.002,-0.01,-0.007
0.024,0.102,0.078,-0.063,-0.027,0.089,0.155,0.365,0.093,0.026,0.02,0.012
0.03,0.115,0.085,-0.073,-0.028,0.1,0.147,0.346,0.094,0.05,0.043,0.036
0.047,0.125,0.078,-0.087,-0.015,0.101,0.138,0.328,0.085,0.059,0.044,0.039
0.039,0.115,0.075,-0.077,-0.018,0.095,0.128,0.282,0.08,0.054,0.032,0.028
0.034,0.104,0.07,-0.069,-0.018,0.086,0.108,0.22,0.069,0.043,0.023,0.02
0.017,0.083,0.066,-0.051,-0.024,0.074,0.088,0.155,0.044,0.02,0.01,0.011
-0.017,0.044,0.061,-0.014,-0.039,0.052,0.076,0.098,0.023,-0.016,-0.015,-0.002
-0.053,0.002,0.055,0.026,-0.054,0.028,0.064,0.059,0.007,-0.049,-0.038,-0.025
-0.077,-0.028,0.049,0.052,-0.063,0.01,0.055,0.037,-0.008,-0.061,-0.054,-0.049
-0.092,-0.048,0.044,0.07,-0.068,-0.002,0.044,0.018,-0.014,-0.072,-0.069,-0.064
-0.101,-0.063,0.039,0.082,-0.07,-0.012,0.036,-0.001,-0.021,-0.076,-0.073,-0.066
-0.106,-0.074,0.031,0.09,-0.068,-0.021,0.032,-0.007,-0.027,-0.074,-0.075,-0.064
-0.1,-0.076,0.024,0.087,-0.061,-0.026,0.029,-0.017,-0.034,-0.076,-0.08,-0.065
-0.092,-0.074,0.017,0.083,-0.054,-0.028,0.026,-0.023,-0.04,-0.074,-0.077,-0.065
-0.085,-0.076,0.009,0.08,-0.046,-0.033,0.021,-0.035,-0.04,-0.075,-0.075,-0.064
-0.076,-0.074,0.002,0.075,-0.038,-0.036,0.021,-0.046,-0.04,-0.075,-0.075,-0.06
-0.089,-0.079,0.01,0.084,-0.049,-0.034,0.027,-0.04,-0.04,-0.075,-0.071,-0.06
-0.102,-0.086,0.016,0.093,-0.059,-0.035,0.034,-0.036,-0.04,-0.086,-0.07,-0.06
-0.089,-0.082,0.007,0.085,-0.048,-0.037,0.038,-0.032,-0.04,-0.091,-0.07,-0.06
-0.081,-0.076,0.005,0.078,-0.043,-0.035,0.041,-0.027,-0.037,-0.089,-0.065,-0.06
-0.074,-0.074,0.0,0.074,-0.037,-0.036,0.044,-0.013,-0.035,-0.09,-0.065,-0.063
-0.06,-0.066,-0.006,0.063,-0.027,-0.036,0.045,-0.004,-0.035,-0.09,-0.065,-0.066
-0.08,-0.068,0.012,0.074,-0.045,-0.028,0.045,0.0,-0.035,-0.09,-0.065,-0.069
-0.099,-0.076,0.022,0.088,-0.06,-0.027,0.045,0.005,-0.035,-0.085,-0.065,-0.072
-0.09,-0.071,0.019,0.081,-0.054,-0.026,0.045,0.008,-0.035,-0.08,-0.067,-0.075
-0.087,-0.066,0.021,0.077,-0.053,-0.022,0.045,0.014,-0.035,-0.076,-0.07,-0.074
-0.082,-0.063,0.02,0.073,-0.051,-0.021,0.045,0.013,-0.035,-0.071,-0.07,-0.069
-0.077,-0.057,0.02,0.067,-0.049,-0.018,0.041,0.007,-0.035,-0.066,-0.07,-0.066
-0.07,-0.054,0.017,0.061,-0.043,-0.018,0.037,0.002,-0.035,-0.062,-0.07,-0.063
-0.062,-0.05,0.012,0.056,-0.037,-0.019,0.031,-0.002,-0.035,-0.06,-0.07,-0.058
-0.059,-0.05,0.01,0.055,-0.035,-0.02,0.032,-0.006,-0.033,-0.06,-0.065,-0.055
-0.054,-0.049,0.006,0.051,-0.03,-0.021,0.035,-0.01,-0.026,-0.06,-0.057,-0.06
-0.044,-0.043,0.002,0.043,-0.023,-0.02,0.036,-0.002,-0.018,-0.059,-0.051,-0.056
-0.048,-0.048,0.0,0.048,-0.023,-0.023,0.039,0.005,-0.013,-0.06,-0.044,-0.049
-0.043,-0.032,0.011,0.037,-0.026,-0.011,0.04,0.012,-0.004,-0.05,-0.037,-0.042
-0.028,-0.009,0.019,0.018,-0.023,0.005,0.049,0.023,-0.001,-0.04,-0.032,-0.036
-0.018,0.013,0.031,0.002,-0.024,0.022,0.043,0.019,0.018,-0.04,-0.029,-0.039
0.01,0.047,0.037,-0.029,-0.014,0.041,0.035,0.012,0.03,-0.039,-0.03,-0.04
0.007,0.037,0.03,-0.022,-0.012,0.033,0.029,-0.007,-0.002,-0.041,-0.03,-0.041
-0.022,0.004,0.026,0.009,-0.024,0.015,0.027,0.0,-0.014,-0.038,-0.029,-0.045
-0.04,-0.026,0.014,0.033,-0.027,-0.006,0.02,-0.018,-0.025,-0.042,-0.031,-0.045
-0.061,-0.046,0.015,0.053,-0.038,-0.015,0.017,-0.014,-0.026,-0.046,-0.036,-0.046
-0.075,-0.076,-0.001,0.075,-0.037,-0.038,0.016,-0.024,-0.038,-0.065,-0.054,-0.059
-0.074,-0.066,0.007,0.07,-0.04,-0.029,0.02,-0.044,-0.042,-0.058,-0.047,-0.054
-0.077,-0.084,-0.007,0.081,-0.035,-0.045,0.027,-0.015,-0.042,-0.058,-0.053,-0.056
-0.084,-0.082,0.002,0.083,-0.043,-0.039,0.019,-0.053,-0.039,-0.057,-0.045,-0.048
-0.079,-0.087,-0.008,0.084,-0.035,-0.048,0.041,0.022,-0.017,-0.045,-0.044,-0.049
-0.083,-0.09,-0.007,0.087,-0.038,-0.048,0.01,-0.046,-0.041,-0.064,-0.049,-0.045
-0.111,0.062,0.173,0.025,-0.142,0.117,0.22,0.444,0.159,0.034,0.0,-0.036
0.014,0.127,0.113,-0.071,-0.049,0.12,0.26,0.527,0.304,0.187,0.099,0.036
0.454,0.301,-0.154,-0.377,0.304,0.073,-0.421,-0.621,0.496,0.595,0.493,0.4
0.608,0.136,-0.471,-0.372,0.539,-0.168,-1.065,-1.294,0.32,0.489,0.471,0.456
0.279,-0.343,-0.622,0.033,0.451,-0.482,-1.202,-1.732,-0.621,-0.376,-0.1,0.073
0.057,-0.266,-0.323,0.105,0.19,-0.294,-0.739,-1.225,-0.656,-0.456,-0.199,-0.055
-0.056,-0.098,-0.042,0.077,-0.007,-0.07,-0.19,-0.273,-0.157,-0.137,-0.081,-0.046
-0.104,-0.097,0.006,0.1,-0.055,-0.045,-0.039,-0.1,-0.094,-0.103,-0.062,-0.053
-0.075,-0.084,-0.01,0.08,-0.032,-0.047,0.015,0.027,-0.04,-0.064,-0.043,-0.047
-0.068,-0.084,-0.016,0.076,-0.026,-0.049,0.034,0.039,-0.041,-0.07,-0.052,-0.053
-0.062,-0.072,-0.01,0.067,-0.026,-0.04,0.04,0.062,-0.032,-0.057,-0.041,-0.046
-0.065,-0.07,-0.005,0.068,-0.03,-0.037,0.047,0.073,-0.026,-0.056,-0.043,-0.046
-0.065,-0.064,0.001,0.064,-0.032,-0.031,0.042,0.076,-0.024,-0.052,-0.038,-0.044
-0.072,-0.065,0.006,0.068,-0.039,-0.029,0.06,0.099,-0.013,-0.045,-0.036,-0.045
-0.076,-0.065,0.011,0.07,-0.043,-0.027,0.069,0.089,-0.015,-0.044,-0.032,-0.045
-0.082,-0.064,0.018,0.073,-0.049,-0.023,0.075,0.107,-0.003,-0.034,-0.028,-0.045
-0.088,-0.066,0.022,0.077,-0.055,-0.022,0.078,0.094,-0.003,-0.033,-0.025,-0.042
-0.087,-0.058,0.029,0.072,-0.058,-0.014,0.082,0.114,0.004,-0.025,-0.02,-0.036
-0.076,-0.043,0.033,0.059,-0.054,-0.005,0.094,0.144,0.007,-0.02,-0.017,-0.032
-0.067,-0.03,0.036,0.048,-0.051,0.003,0.106,0.17,0.011,-0.015,-0.008,-0.027
-0.059,-0.02,0.038,0.039,-0.048,0.009,0.13,0.209,0.023,-0.005,0.001,-0.023
-0.047,-0.004,0.043,0.026,-0.045,0.019,0.152,0.252,0.033,0.006,0.008,-0.018
-0.036,0.024,0.06,0.006,-0.048,0.042,0.183,0.309,0.053,0.021,0.023,-0.005
-0.015,0.054,0.069,-0.02,-0.043,0.061,0.213,0.369,0.081,0.043,0.041,0.018
-0.018,0.072,0.09,-0.028,-0.054,0.081,0.206,0.39,0.097,0.062,0.061,0.035
0.011,0.11,0.099,-0.061,-0.044,0.104,0.195,0.378,0.099,0.081,0.081,0.056
0.051,0.139,0.088,-0.095,-0.019,0.113,0.186,0.363,0.091,0.089,0.095,0.075
0.058,0.141,0.083,-0.099,-0.013,0.112,0.168,0.328,0.081,0.083,0.106,0.069
0.064,0.139,0.075,-0.102,-0.005,0.107,0.147,0.266,0.074,0.072,0.098,0.06
0.048,0.113,0.065,-0.081,-0.009,0.088,0.113,0.199,0.057,0.064,0.083,0.056
0.011,0.06,0.049,-0.036,-0.02,0.055,0.088,0.146,0.029,0.048,0.061,0.043
-0.011,0.022,0.032,-0.006,-0.022,0.027,0.077,0.093,0.014,0.011,0.033,0.023
-0.008,0.013,0.021,-0.003,-0.015,0.016,0.066,0.056,0.007,-0.009,0.013,0.007
-0.033,-0.018,0.015,0.025,-0.024,-0.002,0.055,0.036,-0.003,-0.014,0.0,-0.002
-0.042,-0.032,0.01,0.037,-0.026,-0.011,0.048,0.011,-0.011,-0.024,-0.005,-0.01
-0.039,-0.035,0.004,0.037,-0.022,-0.016,0.042,-0.001,-0.024,-0.03,-0.013,-0.02
-0.051,-0.053,-0.001,0.052,-0.025,-0.027,0.037,-0.007,-0.035,-0.038,-0.021,-0.028
-0.042,-0.049,-0.006,0.046,-0.018,-0.027,0.031,-0.014,-0.035,-0.04,-0.027,-0.03
-0.04,-0.05,-0.011,0.045,-0.015,-0.03,0.026,-0.021,-0.035,-0.04,-0.034,-0.03
-0.036,-0.05,-0.014,0.044,-0.011,-0.032,0.028,-0.028,-0.035,-0.044,-0.035,-0.03
-0.032,-0.049,-0.017,0.041,-0.008,-0.033,0.03,-0.028,-0.034,-0.045,-0.035,-0.03
-0.031,-0.053,-0.022,0.042,-0.004,-0.037,0.03,-0.023,-0.037,-0.046,-0.035,-0.031
-0.037,-0.062,-0.025,0.051,-0.006,-0.043,0.035,-0.02,-0.04,-0.049,-0.035,-0.034
-0.049,-0.07,-0.022,0.06,-0.013,-0.046,0.035,-0.017,-0.04,-0.052,-0.035,-0.037
-0.051,-0.07,-0.019,0.06,-0.016,-0.044,0.036,-0.012,-0.042,-0.055,-0.035,-0.039
-0.054,-0.07,-0.016,0.063,-0.019,-0.043,0.042,-0.01,-0.046,-0.057,-0.035,-0.043
-0.057,-0.07,-0.013,0.064,-0.022,-0.041,0.049,0.006,-0.045,-0.061,-0.035,-0.045
-0.06,-0.07,-0.01,0.065,-0.025,-0.04,0.046,0.027,-0.042,-0.058,-0.035,-0.048
-0.059,-0.068,-0.009,0.064,-0.025,-0.038,0.045,0.034,-0.039,-0.054,-0.035,-0.05
-0.06,-0.063,-0.003,0.062,-0.028,-0.033,0.045,0.04,-0.036,-0.056,-0.039,-0.05
-0.064,-0.06,0.004,0.062,-0.035,-0.028,0.04,0.034,-0.034,-0.051,-0.04,-0.05
-0.067,-0.057,0.011,0.062,-0.039,-0.023,0.04,0.028,-0.03,-0.05,-0.04,-0.05
-0.07,-0.052,0.018,0.061,-0.043,-0.017,0.039,0.024,-0.031,-0.05,-0.04,-0.049
-0.074,-0.05,0.024,0.061,-0.049,-0.012,0.034,0.017,-0.035,-0.045,-0.04,-0.046
-0.067,-0.045,0.022,0.056,-0.044,-0.011,0.031,0.013,-0.035,-0.045,-0.039,-0.045
-0.062,-0.045,0.017,0.054,-0.039,-0.014,0.028,0.007,-0.035,-0.044,-0.035,-0.045
-0.058,-0.044,0.015,0.051,-0.036,-0.014,0.023,0.001,-0.035,-0.04,-0.035,-0.045
-0.049,-0.04,0.01,0.044,-0.029,-0.015,0.02,-0.004,-0.035,-0.04,-0.035,-0.045
-0.049,-0.041,0.008,0.044,-0.029,-0.016,0.016,-0.009,-0.032,-0.038,-0.035,-0.043
-0.038,-0.041,-0.003,0.039,-0.017,-0.022,0.015,-0.015,-0.03,-0.034,-0.036,-0.036
-0.037,-0.051,-0.014,0.044,-0.011,-0.033,0.01,-0.019,-0.03,-0.045,-0.031,-0.029
-0.057,-0.055,0.003,0.056,-0.03,-0.026,0.013,-0.01,-0.025,-0.052,-0.024,-0.023
-0.066,-0.041,0.024,0.054,-0.045,-0.008,0.035,0.001,-0.025,-0.038,-0.018,-0.016
-0.041,-0.008,0.033,0.024,-0.037,0.012,0.052,0.014,-0.024,-0.029,-0.01,-0.01
-0.008,0.019,0.027,-0.005,-0.018,0.023,0.05,0.018,-0.008,-0.031,-0.007,-0.005
0.002,0.034,0.032,-0.018,-0.015,0.033,0.042,0.025,0.003,-0.029,-0.009,-0.005
-0.002,0.039,0.041,-0.019,-0.021,0.04,0.034,0.019,-0.007,-0.031,-0.014,-0.005
-0.001,0.031,0.032,-0.015,-0.017,0.031,0.028,0.007,-0.012,-0.029,-0.014,-0.005
0.001,0.013,0.012,-0.007,-0.006,0.012,0.025,0.008,-0.018,-0.031,-0.019,-0.005
-0.031,-0.019,0.011,0.025,-0.021,-0.004,0.017,-0.015,-0.029,-0.034,-0.02,-0.011
-0.05,-0.048,0.002,0.049,-0.026,-0.023,0.018,-0.002,-0.026,-0.039,-0.024,-0.039
-0.067,-0.075,-0.008,0.071,-0.029,-0.042,0.007,-0.045,-0.044,-0.059,-0.036,-0.048
-0.069,-0.075,-0.006,0.072,-0.031,-0.04,0.01,-0.024,-0.034,-0.053,-0.031,-0.041
-0.057,-0.087,-0.03,0.072,-0.013,-0.058,0.002,-0.044,-0.05,-0.065,-0.04,-0.049
-0.047,-0.058,-0.011,0.053,-0.017,-0.035,0.006,-0.025,-0.027,-0.046,-0.028,-0.033
-0.053,-0.091,-0.038,0.072,-0.008,-0.064,0.009,-0.023,-0.046,-0.064,-0.044,-0.049
-0.087,-0.02,0.068,0.054,-0.077,0.024,0.068,0.049,0.007,-0.015,-0.008,-0.023
-0.059,0.113,0.171,-0.028,-0.115,0.142,0.318,0.645,0.252,0.107,0.036,-0.014
0.202,0.187,-0.015,-0.195,0.108,0.086,0.062,0.098,0.335,0.314,0.229,0.165
0.635,0.318,-0.317,-0.476,0.476,0.001,-0.688,-0.979,0.466,0.668,0.588,0.511
0.539,-0.064,-0.603,-0.237,0.571,-0.334,-1.163,-1.514,-0.085,0.138,0.248,0.317
0.147,-0.377,-0.524,0.115,0.336,-0.451,-1.068,-1.708,-0.8,-0.541,-0.22,-0.02
0.026,-0.166,-0.192,0.071,0.109,-0.179,-0.47,-0.784,-0.415,-0.292,-0.121,-0.047
-0.062,-0.076,-0.014,0.069,-0.024,-0.045,-0.086,-0.152,-0.102,-0.1,-0.056,-0.053
-0.06,-0.08,-0.02,0.07,-0.02,-0.05,-0.015,-0.063,-0.082,-0.079,-0.05,-0.048
-0.05,-0.08,-0.03,0.066,-0.01,-0.054,0.032,0.042,-0.027,-0.048,-0.041,-0.051
-0.06,-0.081,-0.021,0.071,-0.02,-0.05,0.038,0.029,-0.039,-0.055,-0.049,-0.051
-0.05,-0.079,-0.029,0.065,-0.011,-0.053,0.055,0.081,-0.01,-0.034,-0.042,-0.045
-0.057,-0.079,-0.022,0.069,-0.017,-0.051,0.052,0.063,-0.019,-0.036,-0.048,-0.046
-0.045,-0.072,-0.027,0.059,-0.009,-0.049,0.063,0.08,-0.009,-0.024,-0.042,-0.043
-0.047,-0.071,-0.024,0.059,-0.012,-0.047,0.067,0.094,-0.009,-0.026,-0.04,-0.042
-0.044,-0.066,-0.022,0.055,-0.011,-0.044,0.066,0.112,-0.007,-0.02,-0.033,-0.039
-0.049,-0.062,-0.013,0.056,-0.018,-0.038,0.082,0.127,-0.003,-0.019,-0.03,-0.041
-0.051,-0.06,-0.008,0.056,-0.022,-0.034,0.087,0.123,-0.001,-0.014,-0.025,-0.04
-0.053,-0.053,0.0,0.053,-0.026,-0.026,0.091,0.149,0.012,-0.019,-0.02,-0.04
-0.05,-0.045,0.005,0.047,-0.027,-0.02,0.1,0.175,0.014,-0.027,-0.017,-0.04
-0.056,-0.04,0.016,0.048,-0.036,-0.012,0.117,0.205,0.026,-0.012,-0.011,-0.04
-0.061,-0.03,0.03,0.045,-0.045,0.0,0.138,0.245,0.035,-0.002,-0.007,-0.041
-0.032,-0.015,0.017,0.023,-0.024,0.0,0.155,0.288,0.042,0.01,-0.004,-0.033
-0.014,0.014,0.028,0.0,-0.021,0.02,0.181,0.336,0.058,0.022,0.004,-0.012
0.003,0.045,0.042,-0.024,-0.019,0.043,0.195,0.39,0.084,0.038,0.02,0.007
0.039,0.089,0.05,-0.064,-0.005,0.069,0.188,0.422,0.106,0.067,0.046,0.023
0.044,0.126,0.081,-0.085,-0.019,0.103,0.179,0.416,0.106,0.086,0.067,0.043
0.029,0.12,0.092,-0.075,-0.032,0.106,0.172,0.381,0.095,0.083,0.075,0.059
0.035,0.114,0.079,-0.075,-0.022,0.096,0.162,0.333,0.088,0.078,0.079,0.06
0.04,0.108,0.068,-0.074,-0.014,0.088,0.143,0.271,0.081,0.075,0.074,0.06
0.032,0.086,0.054,-0.059,-0.011,0.07,0.119,0.207,0.064,0.059,0.062,0.058
0.03,0.054,0.025,-0.042,0.002,0.039,0.097,0.154,0.042,0.035,0.026,0.026
0.01,0.018,0.009,-0.014,0.0,0.013,0.079,0.11,0.022,0.008,-0.004,-0.009
-0.02,-0.014,0.006,0.017,-0.013,-0.004,0.062,0.07,0.008,-0.012,-0.013,-0.023
-0.033,-0.033,0.0,0.033,-0.016,-0.017,0.051,0.041,0.004,-0.028,-0.033,-0.041
-0.05,-0.053,-0.003,0.052,-0.024,-0.028,0.046,0.025,-0.001,-0.043,-0.045,-0.052
-0.056,-0.067,-0.01,0.062,-0.022,-0.038,0.041,0.015,-0.007,-0.045,-0.047,-0.05
-0.062,-0.064,-0.002,0.063,-0.03,-0.032,0.037,0.005,-0.012,-0.045,-0.051,-0.05
-0.062,-0.066,-0.003,0.064,-0.029,-0.034,0.033,-0.005,-0.018,-0.049,-0.053,-0.05
-0.039,-0.063,-0.024,0.052,-0.007,-0.043,0.028,-0.015,-0.024,-0.05,-0.056,-0.05
-0.051,-0.077,-0.026,0.064,-0.012,-0.051,0.025,-0.021,-0.031,-0.05,-0.059,-0.049
-0.069,-0.094,-0.025,0.083,-0.022,-0.059,0.025,-0.016,-0.037,-0.055,-0.061,-0.057
-0.074,-0.098,-0.024,0.086,-0.024,-0.061,0.025,-0.01,-0.045,-0.06,-0.064,-0.066
-0.08,-0.101,-0.021,0.09,-0.029,-0.061,0.025,-0.006,-0.049,-0.063,-0.065,-0.069
-0.081,-0.099,-0.018,0.09,-0.031,-0.059,0.025,0.001,-0.046,-0.068,-0.067,-0.074
-0.075,-0.1,-0.025,0.088,-0.025,-0.063,0.028,0.006,-0.043,-0.07,-0.073,-0.075
-0.064,-0.1,-0.036,0.082,-0.014,-0.067,0.037,0.011,-0.041,-0.07,-0.077,-0.075
-0.068,-0.1,-0.032,0.085,-0.018,-0.066,0.042,0.024,-0.037,-0.073,-0.08,-0.075
-0.071,-0.099,-0.028,0.085,-0.022,-0.063,0.04,0.027,-0.035,-0.076,-0.08,-0.075
-0.069,-0.095,-0.026,0.082,-0.021,-0.06,0.037,0.024,-0.032,-0.074,-0.08,-0.075
-0.077,-0.095,-0.018,0.086,-0.029,-0.056,0.035,0.025,-0.03,-0.071,-0.08,-0.075
-0.067,-0.092,-0.025,0.08,-0.021,-0.058,0.031,0.02,-0.03,-0.07,-0.08,-0.075
-0.045,-0.09,-0.045,0.068,0.0,-0.067,0.03,0.02,-0.03,-0.07,-0.08,-0.075
-0.044,-0.09,-0.046,0.068,0.001,-0.067,0.027,0.019,-0.03,-0.07,-0.082,-0.075
-0.049,-0.094,-0.044,0.072,-0.002,-0.069,0.025,0.013,-0.03,-0.069,-0.085,-0.075
-0.05,-0.095,-0.046,0.073,-0.001,-0.07,0.025,0.01,-0.035,-0.073,-0.085,-0.075
-0.052,-0.097,-0.045,0.075,-0.004,-0.071,0.025,0.005,-0.035,-0.075,-0.085,-0.075
-0.058,-0.101,-0.043,0.08,-0.007,-0.072,0.025,0.0,-0.035,-0.075,-0.085,-0.075
-0.06,-0.098,-0.038,0.079,-0.011,-0.068,0.026,-0.004,-0.035,-0.079,-0.085,-0.075
-0.059,-0.094,-0.035,0.077,-0.012,-0.065,0.031,-0.008,-0.036,-0.081,-0.08,-0.075
-0.056,-0.088,-0.032,0.072,-0.012,-0.06,0.03,-0.012,-0.036,-0.08,-0.074,-0.074
-0.058,-0.085,-0.027,0.072,-0.016,-0.056,0.031,-0.017,-0.043,-0.073,-0.069,-0.067
-0.054,-0.079,-0.025,0.067,-0.014,-0.052,0.031,-0.019,-0.05,-0.062,-0.063,-0.061
-0.059,-0.077,-0.017,0.068,-0.021,-0.047,0.029,-0.012,-0.034,-0.052,-0.056,-0.054
-0.049,-0.057,-0.008,0.053,-0.02,-0.032,0.044,-0.006,-0.018,-0.047,-0.057,-0.048
-0.007,-0.005,0.002,0.006,-0.005,-0.001,0.051,0.004,-0.013,-0.051,-0.06,-0.041
-0.001,0.013,0.014,-0.006,-0.008,0.013,0.05,0.029,-0.001,-0.052,-0.059,-0.036
-0.005,0.007,0.011,-0.001,-0.008,0.009,0.042,0.004,-0.003,-0.057,-0.064,-0.034
-0.024,-0.019,0.005,0.022,-0.015,-0.007,0.033,-0.008,-0.01,-0.058,-0.064,-0.037
-0.052,-0.067,-0.015,0.06,-0.018,-0.04,0.022,-0.024,-0.026,-0.062,-0.066,-0.056
-0.07,-0.091,-0.021,0.081,-0.025,-0.056,0.012,-0.036,-0.043,-0.066,-0.075,-0.066
-0.087,-0.13,-0.043,0.109,-0.021,-0.087,0.008,-0.039,-0.07,-0.09,-0.104,-0.082
-0.077,-0.123,-0.046,0.1,-0.015,-0.084,-0.002,-0.064,-0.073,-0.092,-0.103,-0.084
-0.076,-0.132,-0.056,0.104,-0.01,-0.093,0.002,-0.026,-0.067,-0.092,-0.106,-0.092
-0.082,-0.13,-0.048,0.106,-0.017,-0.089,-0.019,-0.073,-0.08,-0.094,-0.109,-0.089
-0.075,-0.116,-0.041,0.096,-0.016,-0.079,-0.002,-0.002,-0.054,-0.075,-0.107,-0.088
-0.084,-0.143,-0.059,0.114,-0.012,-0.101,-0.017,-0.086,-0.096,-0.098,-0.118,-0.096
-0.103,0.002,0.105,0.05,-0.104,0.054,0.168,0.319,0.084,-0.008,-0.053,-0.063
0.013,0.068,0.056,-0.041,-0.022,0.062,0.281,0.642,0.27,0.114,0.017,-0.027
0.391,0.176,-0.216,-0.283,0.303,-0.02,-0.279,-0.472,0.402,0.5,0.377,0.299
0.561,0.085,-0.476,-0.322,0.518,-0.196,-0.9,-1.322,0.33,0.514,0.452,0.432
0.232,-0.383,-0.615,0.076,0.424,-0.499,-1.175,-1.794,-0.556,-0.353,-0.125,0.059
-0.006,-0.371,-0.365,0.189,0.18,-0.368,-0.852,-1.442,-0.769,-0.542,-0.277,-0.095
-0.078,-0.156,-0.078,0.117,0.0,-0.117,-0.258,-0.406,-0.243,-0.202,-0.144,-0.086
-0.119,-0.138,-0.02,0.129,-0.049,-0.079,-0.071,-0.144,-0.132,-0.143,-0.124,-0.099
-0.082,-0.131,-0.049,0.107,-0.016,-0.09,-0.013,-0.026,-0.091,-0.099,-0.097,-0.092
-0.078,-0.131,-0.053,0.105,-0.012,-0.092,0.021,0.012,-0.086,-0.103,-0.111,-0.104
-0.075,-0.123,-0.048,0.099,-0.013,-0.085,0.032,0.022,-0.082,-0.094,-0.099,-0.096
-0.08,-0.121,-0.041,0.101,-0.02,-0.081,0.045,0.05,-0.072,-0.088,-0.101,-0.097
-0.08,-0.114,-0.034,0.097,-0.023,-0.074,0.039,0.04,-0.075,-0.086,-0.1,-0.092
-0.084,-0.111,-0.027,0.098,-0.029,-0.068,0.049,0.064,-0.062,-0.076,-0.096,-0.09
-0.077,-0.106,-0.029,0.092,-0.024,-0.068,0.047,0.055,-0.066,-0.077,-0.092,-0.087
-0.06,-0.101,-0.041,0.081,-0.01,-0.071,0.052,0.078,-0.054,-0.073,-0.085,-0.084
-0.064,-0.097,-0.033,0.081,-0.016,-0.065,0.054,0.084,-0.052,-0.074,-0.083,-0.083
-0.061,-0.089,-0.028,0.075,-0.016,-0.058,0.057,0.099,-0.044,-0.069,-0.077,-0.076
-0.058,-0.081,-0.022,0.07,-0.018,-0.051,0.06,0.116,-0.04,-0.071,-0.074,-0.075
-0.056,-0.073,-0.017,0.065,-0.019,-0.045,0.063,0.143,-0.029,-0.065,-0.066,-0.07
-0.051,-0.066,-0.015,0.059,-0.018,-0.04,0.079,0.172,-0.01,-0.055,-0.058,-0.066
-0.048,-0.054,-0.006,0.051,-0.021,-0.03,0.104,0.216,0.005,-0.044,-0.05,-0.064
-0.043,-0.033,0.011,0.038,-0.027,-0.011,0.127,0.276,0.023,-0.023,-0.042,-0.048
-0.031,0.006,0.037,0.012,-0.034,0.021,0.156,0.333,0.041,-0.002,-0.033,-0.032
-0.003,0.05,0.053,-0.023,-0.028,0.051,0.168,0.378,0.063,0.014,-0.014,-0.012
0.028,0.085,0.057,-0.057,-0.015,0.071,0.155,0.374,0.082,0.044,0.019,0.015
0.039,0.099,0.06,-0.069,-0.011,0.079,0.144,0.361,0.08,0.061,0.047,0.036
0.039,0.092,0.053,-0.066,-0.008,0.072,0.132,0.339,0.069,0.052,0.052,0.037
0.045,0.091,0.046,-0.068,0.0,0.068,0.118,0.284,0.062,0.047,0.04,0.032
0.051,0.09,0.039,-0.07,0.006,0.064,0.095,0.219,0.048,0.038,0.028,0.028
0.029,0.06,0.031,-0.045,-0.001,0.045,0.068,0.154,0.027,0.01,0.005,-0.002
-0.017,0.007,0.024,0.005,-0.021,0.015,0.05,0.106,0.01,-0.022,-0.024,-0.024
-0.054,-0.036,0.017,0.045,-0.035,-0.009,0.038,0.065,-0.006,-0.047,-0.054,-0.045
-0.074,-0.063,0.011,0.068,-0.042,-0.026,0.028,0.029,-0.016,-0.06,-0.08,-0.072
-0.091,-0.087,0.004,0.089,-0.048,-0.041,0.021,0.0,-0.022,-0.07,-0.086,-0.078
-0.091,-0.093,-0.002,0.092,-0.044,-0.048,0.014,-0.019,-0.029,-0.08,-0.091,-0.08
-0.09,-0.099,-0.009,0.095,-0.04,-0.054,0.007,-0.027,-0.036,-0.088,-0.096,-0.08
-0.082,-0.097,-0.015,0.09,-0.034,-0.055,0.002,-0.038,-0.042,-0.094,-0.099,-0.08
-0.077,-0.092,-0.015,0.086,-0.031,-0.054,0.004,-0.043,-0.048,-0.098,-0.104,-0.08
-0.1,-0.115,-0.015,0.108,-0.042,-0.065,0.005,-0.038,-0.05,-0.102,-0.105,-0.08
-0.1,-0.115,-0.015,0.108,-0.042,-0.065,0.005,-0.035,-0.05,-0.105,-0.104,-0.084
-0.095,-0.11,-0.015,0.103,-0.04,-0.062,0.005,-0.032,-0.05,-0.109,-0.107,-0.091
-0.094,-0.109,-0.015,0.102,-0.039,-0.062,0.004,-0.027,-0.051,-0.11,-0.118,-0.104
-0.092,-0.104,-0.013,0.098,-0.039,-0.058,0.008,-0.025,-0.049,-0.11,-0.121,-0.105
-0.096,-0.106,-0.01,0.101,-0.043,-0.057,0.01,-0.02,-0.058,-0.11,-0.12,-0.105
-0.094,-0.105,-0.01,0.099,-0.041,-0.057,0.01,-0.014,-0.067,-0.11,-0.12,-0.11
-0.096,-0.105,-0.01,0.1,-0.042,-0.057,0.01,-0.009,-0.062,-0.11,-0.12,-0.11
-0.095,-0.105,-0.01,0.1,-0.042,-0.057,0.01,-0.003,-0.06,-0.11,-0.119,-0.109
-0.096,-0.105,-0.009,0.1,-0.043,-0.057,0.01,0.003,-0.057,-0.107,-0.114,-0.104
-0.099,-0.105,-0.006,0.103,-0.046,-0.056,0.005,0.003,-0.054,-0.104,-0.111,-0.101
-0.098,-0.101,-0.003,0.1,-0.047,-0.052,0.0,-0.003,-0.059,-0.101,-0.108,-0.098
-0.099,-0.1,0.0,0.1,-0.05,-0.05,-0.004,-0.007,-0.06,-0.098,-0.103,-0.093
-0.102,-0.1,0.002,0.101,-0.052,-0.048,-0.009,-0.011,-0.06,-0.095,-0.1,-0.09
-0.101,-0.095,0.006,0.098,-0.053,-0.045,-0.014,-0.016,-0.06,-0.096,-0.103,-0.093
-0.097,-0.095,0.002,0.096,-0.049,-0.046,-0.018,-0.021,-0.06,-0.1,-0.105,-0.097
-0.095,-0.095,0.0,0.095,-0.047,-0.047,-0.02,-0.025,-0.06,-0.1,-0.105,-0.099
-0.095,-0.095,0.0,0.095,-0.047,-0.047,-0.023,-0.03,-0.06,-0.102,-0.105,-0.104
-0.095,-0.095,0.0,0.095,-0.047,-0.047,-0.026,-0.033,-0.06,-0.106,-0.105,-0.104
-0.094,-0.094,0.0,0.094,-0.047,-0.047,-0.03,-0.038,-0.059,-0.105,-0.105,-0.099
-0.096,-0.096,0.0,0.096,-0.048,-0.047,-0.03,-0.043,-0.061,-0.102,-0.105,-0.101
-0.098,-0.094,0.004,0.096,-0.051,-0.045,-0.025,-0.046,-0.059,-0.099,-0.105,-0.097
-0.1,-0.093,0.008,0.096,-0.054,-0.042,-0.02,-0.05,-0.062,-0.096,-0.105,-0.095
-0.102,-0.088,0.014,0.094,-0.058,-0.037,-0.015,-0.042,-0.072,-0.093,-0.105,-0.095
-0.107,-0.087,0.02,0.096,-0.063,-0.033,-0.011,-0.031,-0.068,-0.09,-0.105,-0.091
-0.106,-0.082,0.024,0.094,-0.065,-0.029,-0.006,-0.023,-0.058,-0.089,-0.101,-0.086
-0.092,-0.059,0.033,0.075,-0.062,-0.012,-0.006,-0.007,-0.037,-0.077,-0.091,-0.081
-0.061,-0.022,0.039,0.041,-0.05,0.008,-0.015,0.0,-0.025,-0.065,-0.087,-0.078
-0.027,0.02,0.048,0.003,-0.038,0.034,-0.02,0.018,-0.024,-0.062,-0.089,-0.071
-0.034,0.012,0.046,0.011,-0.04,0.029,-0.028,0.002,-0.026,-0.067,-0.091,-0.071
-0.032,0.011,0.043,0.01,-0.038,0.027,-0.035,-0.024,-0.025,-0.063,-0.091,-0.075
-0.062,-0.028,0.034,0.045,-0.048,0.003,-0.038,-0.025,-0.036,-0.067,-0.097,-0.08
-0.12,-0.088,0.032,0.104,-0.076,-0.028,-0.038,-0.037,-0.041,-0.077,-0.093,-0.084
-0.113,-0.089,0.024,0.1,-0.069,-0.032,-0.031,-0.026,-0.044,-0.086,-0.099,-0.096
-0.122,-0.103,0.019,0.113,-0.07,-0.041,-0.04,-0.076,-0.072,-0.101,-0.107,-0.1
-0.125,-0.103,0.022,0.114,-0.073,-0.04,-0.029,-0.042,-0.056,-0.098,-0.107,-0.098
-0.116,-0.111,0.005,0.113,-0.06,-0.053,-0.042,-0.076,-0.074,-0.107,-0.115,-0.105
-0.12,-0.094,0.026,0.107,-0.073,-0.034,-0.03,-0.038,-0.046,-0.091,-0.102,-0.101
-0.106,-0.12,-0.014,0.113,-0.046,-0.066,-0.054,-0.069,-0.074,-0.112,-0.123,-0.112
-0.13,-0.027,0.104,0.078,-0.117,0.038,0.035,0.095,0.014,-0.041,-0.07,-0.084
-0.093,0.089,0.182,0.002,-0.138,0.135,0.287,0.672,0.237,0.066,-0.03,-0.073
0.222,0.184,-0.038,-0.203,0.129,0.073,-0.087,-0.101,0.352,0.338,0.232,0.16
0.56,0.242,-0.319,-0.401,0.439,-0.039,-0.835,-1.134,0.498,0.643,0.537,0.448
0.385,-0.192,-0.577,-0.096,0.481,-0.384,-1.237,-1.615,-0.206,-0.028,0.097,0.194
0.051,-0.399,-0.45,0.174,0.251,-0.424,-1.058,-1.661,-0.818,-0.583,-0.273,-0.075
-0.029,-0.154,-0.125,0.091,0.049,-0.139,-0.449,-0.67,-0.352,-0.282,-0.173,-0.076
-0.063,-0.082,-0.019,0.073,-0.022,-0.05,-0.13,-0.163,-0.116,-0.148,-0.134,-0.095
-0.081,-0.103,-0.022,0.092,-0.03,-0.062,-0.062,-0.076,-0.088,-0.113,-0.112,-0.094
-0.094,-0.105,-0.012,0.1,-0.041,-0.058,-0.021,0.014,-0.04,-0.084,-0.111,-0.095
-0.102,-0.105,-0.003,0.104,-0.049,-0.054,-0.022,-0.002,-0.049,-0.089,-0.106,-0.095
-0.106,-0.105,0.001,0.105,-0.053,-0.051,-0.007,0.051,-0.022,-0.077,-0.1,-0.094
-0.115,-0.106,0.009,0.11,-0.062,-0.048,-0.007,0.046,-0.026,-0.083,-0.098,-0.096
-0.121,-0.104,0.017,0.113,-0.068,-0.044,0.004,0.069,-0.011,-0.073,-0.091,-0.089
-0.12,-0.102,0.018,0.111,-0.069,-0.042,0.008,0.064,-0.015,-0.076,-0.09,-0.087
-0.112,-0.096,0.016,0.104,-0.064,-0.039,0.017,0.075,-0.009,-0.069,-0.084,-0.083
-0.122,-0.092,0.03,0.107,-0.076,-0.031,0.02,0.086,-0.006,-0.062,-0.083,-0.08
-0.121,-0.09,0.031,0.105,-0.076,-0.029,0.023,0.1,-0.006,-0.056,-0.077,-0.075
-0.107,-0.081,0.027,0.094,-0.067,-0.026,0.042,0.123,0.001,-0.048,-0.075,-0.073
-0.104,-0.079,0.025,0.091,-0.064,-0.027,0.047,0.142,0.007,-0.043,-0.068,-0.067
-0.082,-0.054,0.028,0.068,-0.055,-0.013,0.061,0.177,0.017,-0.037,-0.058,-0.062
-0.073,-0.025,0.049,0.048,-0.061,0.012,0.087,0.216,0.031,-0.028,-0.051,-0.059
-0.088,-0.023,0.065,0.056,-0.076,0.02,0.1,0.267,0.048,-0.018,-0.041,-0.053
-0.067,0.007,0.074,0.03,-0.07,0.04,0.126,0.321,0.066,-0.003,-0.034,-0.05
-0.054,0.043,0.097,0.006,-0.076,0.069,0.151,0.368,0.087,0.02,-0.01,-0.032
-0.026,0.076,0.102,-0.025,-0.064,0.089,0.151,0.397,0.108,0.047,0.02,-0.005
0.017,0.115,0.099,-0.066,-0.041,0.107,0.141,0.399,0.108,0.066,0.04,0.024
0.021,0.122,0.101,-0.072,-0.04,0.111,0.133,0.368,0.098,0.064,0.057,0.045
0.014,0.114,0.099,-0.064,-0.043,0.106,0.123,0.305,0.094,0.055,0.051,0.036
0.007,0.107,0.1,-0.057,-0.047,0.103,0.091,0.236,0.078,0.05,0.039,0.028
-0.008,0.081,0.089,-0.037,-0.049,0.085,0.062,0.18,0.053,0.038,0.03,0.018
-0.044,0.037,0.081,0.003,-0.063,0.059,0.05,0.13,0.04,0.006,0.005,-0.007
-0.069,-0.006,0.063,0.037,-0.066,0.028,0.022,0.079,0.028,-0.018,-0.018,-0.033
-0.075,-0.029,0.046,0.052,-0.06,0.008,-0.001,0.041,0.013,-0.033,-0.034,-0.05
-0.084,-0.034,0.05,0.059,-0.067,0.008,-0.007,0.026,0.0,-0.048,-0.05,-0.057
-0.106,-0.056,0.05,0.081,-0.077,-0.003,-0.014,0.014,-0.006,-0.054,-0.056,-0.06
-0.116,-0.066,0.05,0.091,-0.083,-0.008,-0.022,0.006,-0.009,-0.06,-0.055,-0.06
-0.114,-0.064,0.05,0.089,-0.081,-0.007,-0.03,-0.003,-0.014,-0.065,-0.055,-0.06
-0.127,-0.077,0.05,0.102,-0.089,-0.013,-0.033,-0.012,-0.019,-0.065,-0.055,-0.06
-0.129,-0.081,0.048,0.105,-0.088,-0.016,-0.029,-0.02,-0.024,-0.065,-0.055,-0.06
-0.122,-0.079,0.043,0.1,-0.083,-0.018,-0.026,-0.024,-0.027,-0.065,-0.055,-0.06
-0.117,-0.077,0.04,0.097,-0.078,-0.018,-0.023,-0.018,-0.033,-0.065,-0.055,-0.062
-0.11,-0.074,0.036,0.092,-0.073,-0.019,-0.018,-0.013,-0.034,-0.068,-0.055,-0.067
-0.109,-0.076,0.033,0.092,-0.07,-0.021,-0.015,-0.008,-0.03,-0.07,-0.056,-0.072
-0.112,-0.085,0.027,0.098,-0.069,-0.029,-0.012,-0.001,-0.03,-0.07,-0.065,-0.075
-0.128,-0.087,0.042,0.107,-0.085,-0.022,-0.007,0.004,-0.03,-0.073,-0.07,-0.075
-0.137,-0.084,0.052,0.11,-0.094,-0.015,-0.004,0.009,-0.03,-0.076,-0.07,-0.075
-0.134,-0.086,0.049,0.11,-0.091,-0.018,-0.001,0.014,-0.03,-0.074,-0.07,-0.075
-0.132,-0.085,0.047,0.108,-0.089,-0.018,0.004,0.019,-0.027,-0.071,-0.07,-0.075
-0.129,-0.086,0.044,0.107,-0.086,-0.021,0.004,0.022,-0.024,-0.068,-0.07,-0.075
-0.129,-0.083,0.046,0.105,-0.087,-0.018,-0.001,0.028,-0.021,-0.066,-0.069,-0.073
-0.122,-0.079,0.043,0.1,-0.082,-0.017,-0.006,0.029,-0.018,-0.063,-0.065,-0.068
-0.125,-0.074,0.05,0.099,-0.087,-0.012,-0.01,0.024,-0.015,-0.059,-0.063,-0.065
-0.132,-0.073,0.06,0.102,-0.096,-0.006,-0.015,0.019,-0.015,-0.063,-0.06,-0.062
-0.119,-0.066,0.053,0.092,-0.086,-0.006,-0.02,0.015,-0.015,-0.065,-0.056,-0.057
-0.116,-0.067,0.049,0.091,-0.082,-0.009,-0.02,0.01,-0.015,-0.065,-0.055,-0.055
-0.122,-0.079,0.043,0.101,-0.082,-0.018,-0.021,0.006,-0.014,-0.065,-0.051,-0.055
-0.118,-0.081,0.037,0.099,-0.077,-0.022,-0.019,0.001,-0.022,-0.065,-0.05,-0.055
-0.114,-0.079,0.035,0.096,-0.074,-0.022,-0.025,0.0,-0.031,-0.064,-0.05,-0.055
-0.111,-0.075,0.035,0.093,-0.072,-0.02,-0.036,0.0,-0.03,-0.06,-0.045,-0.055
-0.11,-0.075,0.035,0.092,-0.072,-0.02,-0.03,-0.005,-0.03,-0.055,-0.045,-0.055
-0.11,-0.074,0.036,0.091,-0.072,-0.019,-0.025,-0.005,-0.03,-0.05,-0.044,-0.053
-0.114,-0.08,0.034,0.096,-0.073,-0.023,-0.022,-0.006,-0.03,-0.047,-0.04,-0.049
-0.127,-0.091,0.036,0.109,-0.082,-0.027,-0.014,-0.01,-0.026,-0.04,-0.04,-0.05
-0.128,-0.09,0.039,0.109,-0.084,-0.025,-0.024,-0.01,-0.025,-0.049,-0.04,-0.05
-0.131,-0.09,0.041,0.11,-0.086,-0.025,-0.029,-0.01,-0.025,-0.056,-0.04,-0.05
-0.13,-0.09,0.04,0.11,-0.085,-0.025,-0.021,-0.01,-0.02,-0.048,-0.041,-0.05
-0.129,-0.09,0.039,0.11,-0.084,-0.026,-0.017,-0.009,-0.02,-0.045,-0.036,-0.046
-0.13,-0.087,0.043,0.109,-0.087,-0.022,-0.011,-0.005,-0.019,-0.04,-0.029,-0.045
-0.105,-0.074,0.031,0.089,-0.068,-0.021,-0.006,0.006,-0.011,-0.036,-0.023,-0.041
-0.107,-0.057,0.05,0.082,-0.078,-0.003,-0.009,0.019,-0.004,-0.03,-0.016,-0.04
-0.096,-0.043,0.053,0.069,-0.075,0.005,-0.018,0.028,0.011,-0.022,-0.012,-0.038
-0.102,-0.037,0.065,0.069,-0.083,0.014,-0.023,0.047,0.031,-0.019,-0.016,-0.035
-0.12,-0.035,0.085,0.077,-0.102,0.025,-0.032,0.014,0.019,-0.022,-0.02,-0.036
-0.082,-0.028,0.054,0.055,-0.068,0.013,-0.039,-0.013,0.007,-0.019,-0.022,-0.031
-0.087,-0.045,0.043,0.066,-0.065,-0.001,-0.043,-0.016,-0.005,-0.026,-0.028,-0.03
-0.116,-0.077,0.039,0.096,-0.077,-0.019,-0.04,-0.024,-0.015,-0.04,-0.029,-0.03
-0.128,-0.098,0.03,0.113,-0.079,-0.034,-0.034,-0.017,-0.018,-0.05,-0.036,-0.041
-0.129,-0.109,0.02,0.119,-0.074,-0.044,-0.035,-0.04,-0.035,-0.062,-0.043,-0.054
-0.131,-0.11,0.021,0.121,-0.076,-0.044,-0.024,-0.012,-0.026,-0.061,-0.04,-0.055
-0.145,-0.129,0.016,0.137,-0.081,-0.056,-0.03,-0.045,-0.042,-0.065,-0.042,-0.056
-0.163,-0.116,0.047,0.139,-0.104,-0.034,-0.021,0.009,-0.013,-0.054,-0.038,-0.054
-0.146,-0.14,0.006,0.142,-0.076,-0.067,-0.045,-0.052,-0.045,-0.07,-0.045,-0.058
-0.158,-0.065,0.092,0.111,-0.125,0.014,0.04,0.127,0.033,-0.025,-0.011,-0.043
-0.134,0.064,0.198,0.035,-0.166,0.13,0.266,0.614,0.246,0.1,0.045,-0.01
0.148,0.133,-0.016,-0.141,0.082,0.058,-0.02,0.079,0.349,0.32,0.239,0.177
