-0.012,-0.14,-0.128,0.077,0.058,-0.133,0.1,0.069,0.055,0.07,-0.03,-0.075
0.004,-0.138,-0.142,0.067,0.073,-0.139,0.098,0.071,0.055,0.07,-0.029,-0.074
0.007,-0.132,-0.139,0.063,0.073,-0.135,0.092,0.081,0.055,0.07,-0.025,-0.07
0.007,-0.129,-0.136,0.061,0.072,-0.132,0.089,0.076,0.056,0.07,-0.022,-0.067
0.01,-0.123,-0.133,0.057,0.072,-0.128,0.084,0.071,0.061,0.07,-0.017,-0.062
0.01,-0.12,-0.13,0.055,0.07,-0.125,0.08,0.066,0.06,0.07,-0.015,-0.059
0.009,-0.12,-0.128,0.056,0.069,-0.124,0.085,0.06,0.06,0.065,-0.016,-0.056
0.005,-0.12,-0.125,0.058,0.065,-0.122,0.085,0.055,0.057,0.065,-0.014,-0.055
0.005,-0.119,-0.124,0.058,0.064,-0.121,0.086,0.051,0.055,0.064,-0.019,-0.055
0.006,-0.12,-0.126,0.058,0.066,-0.123,0.091,0.049,0.055,0.06,-0.02,-0.055
0.003,-0.119,-0.122,0.059,0.063,-0.12,0.089,0.045,0.055,0.06,-0.012,-0.055
0.012,-0.12,-0.133,0.054,0.073,-0.126,0.093,0.043,0.055,0.062,-0.006,-0.053
0.02,-0.12,-0.14,0.05,0.081,-0.13,0.095,0.039,0.054,0.069,0.001,-0.048
0.036,-0.091,-0.127,0.027,0.082,-0.109,0.102,0.046,0.061,0.076,0.008,-0.046
0.065,-0.048,-0.114,-0.008,0.09,-0.081,0.093,0.061,0.08,0.079,0.008,-0.042
0.061,-0.042,-0.103,-0.009,0.082,-0.072,0.097,0.059,0.091,0.077,-0.007,-0.039
0.052,-0.041,-0.093,-0.005,0.073,-0.066,0.103,0.052,0.081,0.089,0.006,-0.047
0.065,-0.031,-0.096,-0.017,0.081,-0.063,0.065,0.056,0.084,0.096,0.031,-0.041
0.066,-0.085,-0.151,0.009,0.109,-0.118,0.055,0.043,0.05,0.062,0.001,-0.053
0.052,-0.107,-0.158,0.027,0.105,-0.132,0.052,0.041,0.063,0.075,0.0,-0.045
0.029,-0.131,-0.161,0.051,0.095,-0.146,0.069,-0.001,0.016,0.043,-0.023,-0.057
0.019,-0.141,-0.161,0.061,0.09,-0.151,0.064,0.009,0.043,0.06,-0.016,-0.062
0.002,-0.154,-0.155,0.076,0.079,-0.154,0.078,-0.008,0.021,0.034,-0.036,-0.074
0.019,-0.152,-0.171,0.067,0.095,-0.161,0.059,-0.015,0.016,0.033,-0.035,-0.071
-0.015,-0.119,-0.104,0.067,0.045,-0.111,0.113,0.079,0.073,0.045,-0.027,-0.061
0.057,-0.042,-0.099,-0.007,0.078,-0.07,0.205,0.474,0.331,0.193,0.051,-0.015
0.291,0.272,-0.02,-0.282,0.155,0.126,0.124,0.891,1.231,0.825,0.474,0.294
0.114,0.03,-0.084,-0.072,0.099,-0.027,0.143,-0.331,0.302,0.265,0.167,0.137
-0.164,-0.385,-0.221,0.275,0.029,-0.303,-0.124,-1.455,-1.014,-0.548,-0.353,-0.235
-0.135,-0.325,-0.19,0.23,0.028,-0.257,-0.362,-0.93,-0.57,-0.286,-0.237,-0.2
-0.061,-0.331,-0.27,0.196,0.105,-0.3,-0.136,-0.45,-0.34,-0.196,-0.207,-0.195
-0.008,-0.225,-0.217,0.117,0.105,-0.221,-0.019,-0.13,-0.092,-0.055,-0.108,-0.118
0.003,-0.14,-0.144,0.069,0.074,-0.142,0.038,0.012,0.036,0.017,-0.046,-0.066
0.004,-0.144,-0.147,0.07,0.076,-0.145,0.063,0.018,0.025,0.024,-0.039,-0.072
0.005,-0.125,-0.129,0.06,0.067,-0.127,0.055,0.064,0.077,0.064,-0.016,-0.056
0.007,-0.13,-0.136,0.062,0.072,-0.133,0.08,0.045,0.038,0.037,-0.028,-0.062
0.012,-0.113,-0.125,0.051,0.069,-0.119,0.077,0.063,0.074,0.059,-0.008,-0.049
0.013,-0.114,-0.126,0.051,0.07,-0.119,0.077,0.065,0.055,0.044,-0.013,-0.051
0.017,-0.103,-0.12,0.043,0.069,-0.111,0.07,0.083,0.075,0.053,-0.001,-0.041
0.02,-0.097,-0.117,0.039,0.069,-0.108,0.068,0.089,0.079,0.051,0.003,-0.038
0.023,-0.092,-0.115,0.035,0.069,-0.103,0.064,0.1,0.087,0.07,0.012,-0.031
0.027,-0.084,-0.111,0.028,0.07,-0.097,0.059,0.11,0.096,0.086,0.021,-0.026
0.033,-0.076,-0.109,0.022,0.071,-0.092,0.053,0.128,0.108,0.096,0.027,-0.019
0.044,-0.062,-0.106,0.01,0.075,-0.084,0.045,0.152,0.125,0.109,0.037,-0.002
0.059,-0.044,-0.102,-0.007,0.081,-0.073,0.04,0.166,0.142,0.123,0.052,0.009
0.091,-0.018,-0.108,-0.036,0.1,-0.063,0.029,0.179,0.165,0.148,0.07,0.027
0.127,0.007,-0.121,-0.067,0.124,-0.057,0.004,0.189,0.193,0.173,0.095,0.049
0.138,0.023,-0.115,-0.08,0.126,-0.046,-0.014,0.196,0.212,0.21,0.132,0.077
0.148,0.037,-0.111,-0.093,0.13,-0.037,-0.021,0.196,0.227,0.237,0.151,0.097
0.155,0.049,-0.107,-0.102,0.131,-0.029,-0.036,0.193,0.23,0.237,0.143,0.093
0.163,0.061,-0.102,-0.112,0.132,-0.02,-0.026,0.19,0.212,0.23,0.132,0.086
0.145,0.048,-0.098,-0.096,0.122,-0.025,0.028,0.191,0.2,0.201,0.124,0.073
0.097,0.005,-0.092,-0.051,0.095,-0.043,0.071,0.178,0.166,0.154,0.096,0.046
0.064,-0.025,-0.089,-0.019,0.077,-0.057,0.081,0.147,0.12,0.115,0.056,0.014
0.04,-0.043,-0.083,0.002,0.062,-0.063,0.08,0.11,0.081,0.087,0.031,-0.011
0.025,-0.056,-0.081,0.016,0.053,-0.068,0.08,0.077,0.056,0.072,0.018,-0.023
0.016,-0.068,-0.084,0.026,0.05,-0.076,0.08,0.057,0.039,0.058,0.01,-0.03
0.009,-0.078,-0.087,0.035,0.048,-0.082,0.079,0.049,0.019,0.051,0.002,-0.041
0.009,-0.08,-0.089,0.035,0.049,-0.085,0.083,0.048,0.008,0.047,-0.006,-0.048
0.012,-0.08,-0.093,0.034,0.052,-0.086,0.085,0.045,0.009,0.04,-0.013,-0.046
0.016,-0.08,-0.095,0.033,0.056,-0.087,0.085,0.041,0.013,0.035,-0.015,-0.044
0.019,-0.074,-0.093,0.028,0.056,-0.083,0.085,0.04,0.015,0.03,-0.015,-0.045
0.019,-0.069,-0.088,0.025,0.054,-0.078,0.085,0.036,0.019,0.025,-0.015,-0.045
0.021,-0.064,-0.085,0.022,0.054,-0.074,0.084,0.035,0.02,0.025,-0.015,-0.045
0.023,-0.058,-0.081,0.017,0.053,-0.069,0.081,0.035,0.017,0.024,-0.015,-0.045
0.026,-0.052,-0.077,0.013,0.052,-0.064,0.078,0.035,0.014,0.02,-0.01,-0.045
0.022,-0.052,-0.074,0.016,0.048,-0.063,0.075,0.035,0.011,0.02,-0.01,-0.045
0.014,-0.056,-0.07,0.021,0.042,-0.062,0.073,0.034,0.008,0.018,-0.009,-0.045
0.008,-0.055,-0.063,0.023,0.036,-0.059,0.069,0.026,0.006,0.013,-0.005,-0.045
0.004,-0.055,-0.059,0.026,0.032,-0.057,0.073,0.019,0.004,0.01,-0.005,-0.045
-0.002,-0.055,-0.053,0.029,0.026,-0.054,0.075,0.013,-0.002,0.006,-0.007,-0.04
-0.009,-0.055,-0.046,0.032,0.019,-0.05,0.075,0.009,-0.004,0.003,-0.012,-0.033
0.005,-0.046,-0.051,0.021,0.028,-0.048,0.075,0.01,-0.012,-0.002,-0.017,-0.03
0.033,-0.029,-0.062,-0.002,0.048,-0.045,0.074,0.009,-0.012,0.011,-0.019,-0.021
0.046,0.0,-0.046,-0.023,0.046,-0.023,0.083,0.014,-0.014,0.024,-0.012,-0.019
0.029,0.023,-0.006,-0.025,0.017,0.008,0.078,0.032,0.003,0.031,0.003,-0.011
0.037,0.028,-0.01,-0.032,0.023,0.008,0.074,0.023,0.007,0.019,0.013,-0.01
0.07,0.055,-0.015,-0.062,0.042,0.02,0.066,0.017,-0.001,0.013,0.031,-0.011
0.073,0.044,-0.03,-0.059,0.051,0.007,0.062,0.014,-0.001,0.01,0.019,-0.008
0.08,-0.009,-0.088,-0.035,0.084,-0.048,0.055,-0.002,-0.027,-0.009,-0.018,-0.031
0.045,-0.026,-0.071,-0.009,0.058,-0.048,0.045,-0.003,-0.004,0.005,-0.022,-0.037
0.006,-0.061,-0.067,0.028,0.036,-0.064,0.045,-0.046,-0.066,-0.031,-0.056,-0.065
0.016,-0.047,-0.063,0.016,0.04,-0.055,0.027,-0.035,-0.032,0.0,-0.044,-0.061
-0.008,-0.073,-0.065,0.041,0.029,-0.069,0.054,-0.074,-0.087,-0.05,-0.072,-0.08
0.022,-0.048,-0.069,0.014,0.046,-0.058,0.032,-0.032,-0.038,-0.012,-0.053,-0.06
0.003,-0.028,-0.031,0.012,0.017,-0.029,0.124,0.082,-0.005,-0.011,-0.055,-0.066
0.113,0.131,0.018,-0.122,0.047,0.074,0.168,0.587,0.455,0.268,0.146,0.053
0.31,0.42,0.11,-0.365,0.1,0.265,0.099,0.748,1.168,0.768,0.482,0.331
0.029,0.008,-0.021,-0.019,0.026,-0.006,0.083,-0.777,-0.2,-0.075,-0.024,0.014
-0.189,-0.313,-0.125,0.251,-0.032,-0.219,-0.269,-1.49,-1.092,-0.621,-0.382,-0.264
-0.113,-0.234,-0.12,0.174,0.004,-0.177,-0.368,-0.819,-0.548,-0.311,-0.24,-0.198
-0.065,-0.224,-0.159,0.144,0.048,-0.191,-0.118,-0.423,-0.402,-0.268,-0.22,-0.199
-0.004,-0.082,-0.079,0.043,0.037,-0.08,-0.035,-0.118,-0.117,-0.101,-0.099,-0.11
-0.001,-0.049,-0.048,0.025,0.024,-0.048,0.028,-0.037,-0.068,-0.074,-0.069,-0.082
0.008,-0.038,-0.046,0.015,0.028,-0.042,0.038,-0.001,-0.044,-0.051,-0.05,-0.065
0.008,-0.02,-0.028,0.006,0.018,-0.024,0.04,0.025,-0.029,-0.039,-0.043,-0.061
0.006,-0.019,-0.025,0.007,0.016,-0.022,0.041,0.018,-0.054,-0.049,-0.048,-0.064
0.005,-0.009,-0.014,0.002,0.009,-0.011,0.038,0.038,-0.024,-0.028,-0.034,-0.053
-0.002,-0.012,-0.011,0.007,0.005,-0.011,0.043,0.03,-0.046,-0.039,-0.041,-0.058
-0.002,-0.004,-0.002,0.003,0.001,-0.003,0.035,0.046,-0.027,-0.021,-0.028,-0.05
-0.008,-0.003,0.005,0.005,-0.007,0.001,0.03,0.052,-0.035,-0.023,-0.027,-0.046
0.022,0.018,-0.004,-0.02,0.013,0.006,0.022,0.066,-0.013,-0.009,-0.014,-0.035
0.023,0.025,0.003,-0.024,0.01,0.014,0.016,0.08,-0.006,-0.004,-0.009,-0.028
0.036,0.036,0.0,-0.036,0.018,0.018,0.007,0.109,0.008,0.004,-0.001,-0.021
0.075,0.051,-0.023,-0.063,0.049,0.014,0.001,0.121,0.023,0.017,0.007,-0.009
0.077,0.062,-0.015,-0.069,0.046,0.023,-0.009,0.135,0.041,0.036,0.021,0.005
0.109,0.097,-0.012,-0.103,0.06,0.042,-0.026,0.152,0.076,0.062,0.056,0.018
0.14,0.132,-0.008,-0.136,0.073,0.062,-0.055,0.149,0.098,0.088,0.075,0.038
0.151,0.148,-0.002,-0.149,0.076,0.073,-0.074,0.149,0.117,0.121,0.102,0.065
0.175,0.176,0.001,-0.176,0.087,0.088,-0.079,0.145,0.132,0.147,0.13,0.085
0.179,0.187,0.008,-0.183,0.085,0.097,-0.081,0.146,0.126,0.147,0.131,0.085
0.161,0.174,0.013,-0.168,0.074,0.093,-0.048,0.142,0.111,0.135,0.128,0.075
0.126,0.158,0.032,-0.142,0.047,0.094,0.0,0.129,0.099,0.1,0.097,0.045
0.078,0.121,0.043,-0.1,0.017,0.082,0.029,0.118,0.063,0.051,0.054,0.008
0.034,0.078,0.044,-0.057,-0.005,0.061,0.052,0.086,0.015,0.019,0.016,-0.013
0.009,0.049,0.04,-0.029,-0.016,0.044,0.052,0.045,-0.026,-0.005,-0.006,-0.042
0.007,0.041,0.033,-0.024,-0.013,0.037,0.043,0.01,-0.058,-0.029,-0.018,-0.06
0.008,0.037,0.029,-0.022,-0.011,0.033,0.038,-0.007,-0.067,-0.044,-0.031,-0.063
0.008,0.03,0.023,-0.019,-0.008,0.026,0.03,-0.012,-0.069,-0.045,-0.03,-0.07
0.008,0.025,0.017,-0.017,-0.005,0.021,0.025,-0.019,-0.079,-0.051,-0.038,-0.067
0.004,0.021,0.017,-0.012,-0.007,0.019,0.021,-0.026,-0.081,-0.056,-0.042,-0.065
0.003,0.024,0.022,-0.014,-0.01,0.023,0.018,-0.028,-0.077,-0.054,-0.037,-0.065
0.002,0.027,0.026,-0.015,-0.012,0.026,0.015,-0.022,-0.075,-0.055,-0.035,-0.065
0.002,0.031,0.029,-0.016,-0.014,0.03,0.012,-0.017,-0.072,-0.055,-0.031,-0.065
0.003,0.034,0.031,-0.019,-0.014,0.032,0.01,-0.014,-0.069,-0.055,-0.03,-0.064
0.009,0.038,0.029,-0.023,-0.01,0.033,0.01,-0.008,-0.074,-0.059,-0.034,-0.06
0.006,0.04,0.034,-0.023,-0.014,0.037,0.01,-0.005,-0.077,-0.06,-0.035,-0.06
0.004,0.04,0.036,-0.023,-0.016,0.037,0.01,-0.01,-0.081,-0.06,-0.035,-0.06
0.005,0.04,0.035,-0.023,-0.015,0.037,0.01,-0.018,-0.087,-0.065,-0.04,-0.06
0.006,0.04,0.034,-0.023,-0.014,0.037,0.01,-0.024,-0.095,-0.065,-0.04,-0.06
0.01,0.04,0.029,-0.025,-0.01,0.035,0.01,-0.031,-0.099,-0.066,-0.04,-0.063
0.004,0.035,0.03,-0.02,-0.013,0.032,0.015,-0.037,-0.1,-0.07,-0.04,-0.065
0.006,0.036,0.03,-0.021,-0.013,0.032,0.015,-0.043,-0.105,-0.07,-0.04,-0.065
0.003,0.033,0.03,-0.018,-0.014,0.031,0.015,-0.048,-0.105,-0.072,-0.04,-0.065
0.0,0.031,0.031,-0.016,-0.015,0.031,0.022,-0.046,-0.112,-0.076,-0.04,-0.065
-0.001,0.027,0.028,-0.013,-0.014,0.028,0.017,-0.037,-0.107,-0.074,-0.04,-0.065
-0.001,0.046,0.048,-0.023,-0.025,0.047,0.028,-0.035,-0.098,-0.069,-0.033,-0.052
0.029,0.1,0.071,-0.065,-0.021,0.085,0.033,-0.028,-0.086,-0.047,-0.015,-0.039
0.024,0.11,0.086,-0.068,-0.031,0.098,0.024,-0.021,-0.079,-0.037,-0.007,-0.039
0.044,0.125,0.081,-0.085,-0.019,0.103,0.016,-0.025,-0.096,-0.045,-0.008,-0.043
0.087,0.131,0.044,-0.109,0.021,0.087,0.005,-0.021,-0.082,-0.032,0.005,-0.035
0.069,0.065,-0.004,-0.067,0.036,0.03,-0.006,-0.048,-0.11,-0.063,-0.013,-0.047
0.058,0.054,-0.004,-0.056,0.031,0.025,-0.026,-0.054,-0.089,-0.058,-0.017,-0.031
0.017,0.011,-0.006,-0.013,0.011,0.002,-0.014,-0.085,-0.136,-0.097,-0.048,-0.053
0.002,-0.003,-0.005,0.001,0.003,-0.003,-0.024,-0.069,-0.128,-0.092,-0.045,-0.062
-0.009,-0.005,0.004,0.007,-0.006,0.0,-0.001,-0.074,-0.138,-0.104,-0.052,-0.066
-0.001,-0.011,-0.01,0.006,0.005,-0.01,-0.02,-0.077,-0.138,-0.104,-0.056,-0.072
-0.013,0.012,0.025,0.0,-0.019,0.019,0.039,0.002,-0.062,-0.076,-0.045,-0.036
0.025,0.075,0.051,-0.05,-0.013,0.063,0.138,0.356,0.142,0.05,0.024,-0.008
0.29,0.456,0.166,-0.373,0.061,0.311,0.05,0.815,1.026,0.671,0.443,0.303
0.129,0.249,0.12,-0.189,0.004,0.185,0.075,-0.342,0.254,0.199,0.18,0.169
-0.225,-0.251,-0.027,0.238,-0.099,-0.139,-0.19,-1.519,-1.087,-0.631,-0.371,-0.251
-0.173,-0.223,-0.05,0.198,-0.061,-0.136,-0.433,-1.026,-0.72,-0.421,-0.269,-0.217
-0.076,-0.205,-0.128,0.14,0.026,-0.166,-0.207,-0.534,-0.481,-0.317,-0.224,-0.201
-0.023,-0.09,-0.067,0.056,0.022,-0.078,-0.092,-0.217,-0.247,-0.182,-0.134,-0.129
-0.013,-0.018,-0.005,0.016,-0.004,-0.012,-0.033,-0.07,-0.11,-0.103,-0.067,-0.075
0.0,-0.001,-0.001,0.0,0.001,-0.001,0.002,-0.055,-0.142,-0.1,-0.066,-0.074
0.024,0.035,0.011,-0.03,0.006,0.023,-0.004,-0.011,-0.089,-0.065,-0.04,-0.052
0.023,0.023,0.0,-0.023,0.012,0.011,0.004,-0.025,-0.121,-0.085,-0.051,-0.062
0.027,0.036,0.009,-0.032,0.009,0.022,0.001,0.002,-0.082,-0.056,-0.03,-0.044
0.023,0.026,0.003,-0.025,0.01,0.014,0.008,-0.003,-0.096,-0.066,-0.033,-0.047
0.027,0.033,0.006,-0.03,0.01,0.019,0.002,0.012,-0.075,-0.05,-0.021,-0.037
0.016,0.028,0.012,-0.022,0.002,0.02,-0.001,0.018,-0.067,-0.048,-0.019,-0.031
0.017,0.034,0.018,-0.026,-0.001,0.026,-0.01,0.032,-0.056,-0.039,-0.012,-0.024
0.026,0.041,0.015,-0.034,0.005,0.028,-0.016,0.043,-0.043,-0.032,-0.006,-0.014
0.035,0.049,0.015,-0.042,0.01,0.032,-0.022,0.055,-0.037,-0.024,0.001,-0.009
0.056,0.071,0.015,-0.064,0.02,0.043,-0.029,0.072,-0.024,-0.002,0.023,0.003
0.07,0.085,0.014,-0.078,0.028,0.049,-0.036,0.085,-0.009,0.016,0.034,0.017
0.089,0.105,0.016,-0.098,0.036,0.06,-0.053,0.105,0.023,0.043,0.054,0.031
0.111,0.13,0.019,-0.12,0.046,0.074,-0.074,0.11,0.048,0.074,0.084,0.058
0.124,0.146,0.022,-0.135,0.051,0.084,-0.094,0.11,0.066,0.1,0.109,0.084
0.154,0.178,0.024,-0.166,0.065,0.101,-0.103,0.111,0.071,0.131,0.139,0.1
0.17,0.2,0.029,-0.185,0.07,0.114,-0.107,0.11,0.067,0.139,0.147,0.109
0.157,0.187,0.03,-0.172,0.063,0.108,-0.101,0.111,0.061,0.127,0.13,0.094
0.132,0.173,0.041,-0.152,0.045,0.107,-0.057,0.107,0.055,0.113,0.115,0.079
0.1,0.149,0.05,-0.125,0.025,0.099,-0.014,0.093,0.037,0.076,0.086,0.055
0.071,0.113,0.042,-0.092,0.014,0.077,0.003,0.072,0.002,0.035,0.049,0.018
0.039,0.077,0.038,-0.058,0.001,0.057,0.015,0.044,-0.031,0.004,0.016,-0.001
0.024,0.056,0.031,-0.04,-0.004,0.043,0.018,0.005,-0.066,-0.013,-0.002,-0.017
0.023,0.049,0.026,-0.036,-0.002,0.037,0.015,-0.019,-0.09,-0.023,-0.007,-0.03
0.018,0.04,0.022,-0.029,-0.002,0.03,0.015,-0.026,-0.093,-0.036,-0.015,-0.033
0.011,0.03,0.019,-0.02,-0.005,0.024,0.013,-0.039,-0.097,-0.044,-0.02,-0.042
0.011,0.027,0.016,-0.019,-0.003,0.021,0.009,-0.042,-0.101,-0.045,-0.028,-0.044
0.017,0.031,0.013,-0.024,0.002,0.022,0.011,-0.036,-0.099,-0.045,-0.028,-0.04
0.02,0.03,0.01,-0.025,0.005,0.02,0.006,-0.031,-0.095,-0.045,-0.024,-0.04
0.018,0.03,0.012,-0.024,0.003,0.021,0.005,-0.026,-0.095,-0.045,-0.025,-0.038
-0.002,0.03,0.032,-0.014,-0.017,0.031,0.005,-0.02,-0.094,-0.046,-0.025,-0.035
-0.011,0.03,0.041,-0.009,-0.026,0.035,0.0,-0.016,-0.09,-0.05,-0.025,-0.035
-0.003,0.036,0.039,-0.016,-0.021,0.037,0.0,-0.022,-0.089,-0.05,-0.025,-0.038
0.0,0.04,0.041,-0.02,-0.021,0.04,-0.001,-0.03,-0.097,-0.05,-0.03,-0.041
-0.003,0.04,0.043,-0.019,-0.023,0.041,-0.005,-0.038,-0.111,-0.05,-0.03,-0.04
-0.013,0.04,0.052,-0.014,-0.032,0.046,-0.005,-0.04,-0.11,-0.05,-0.031,-0.04
-0.01,0.043,0.053,-0.017,-0.032,0.048,-0.005,-0.04,-0.11,-0.054,-0.036,-0.04
-0.004,0.046,0.05,-0.021,-0.027,0.047,-0.005,-0.047,-0.111,-0.056,-0.035,-0.042
-0.003,0.042,0.045,-0.02,-0.025,0.044,-0.005,-0.057,-0.109,-0.06,-0.035,-0.045
-0.003,0.04,0.042,-0.019,-0.022,0.041,-0.001,-0.062,-0.113,-0.059,-0.034,-0.047
-0.003,0.037,0.04,-0.017,-0.022,0.038,0.0,-0.067,-0.115,-0.054,-0.036,-0.051
0.002,0.034,0.032,-0.019,-0.015,0.033,0.0,-0.069,-0.12,-0.06,-0.036,-0.053
-0.006,0.039,0.045,-0.017,-0.025,0.042,0.0,-0.065,-0.125,-0.067,-0.033,-0.057
-0.003,0.041,0.045,-0.019,-0.024,0.043,0.0,-0.053,-0.114,-0.063,-0.024,-0.047
0.013,0.075,0.063,-0.044,-0.025,0.069,0.012,-0.049,-0.114,-0.063,-0.022,-0.038
0.003,0.117,0.114,-0.06,-0.055,0.115,0.015,-0.043,-0.103,-0.048,-0.013,-0.023
0.011,0.121,0.109,-0.066,-0.049,0.115,0.031,-0.046,-0.111,-0.044,-0.01,-0.02
0.067,0.14,0.073,-0.103,-0.003,0.106,0.015,-0.045,-0.112,-0.036,0.004,-0.019
0.055,0.106,0.052,-0.081,0.001,0.079,-0.016,-0.042,-0.103,-0.042,0.006,-0.011
0.048,0.054,0.007,-0.051,0.02,0.031,-0.026,-0.064,-0.127,-0.07,-0.035,-0.029
0.072,0.055,-0.017,-0.064,0.044,0.019,-0.038,-0.079,-0.109,-0.061,-0.027,-0.029
0.01,0.019,0.009,-0.014,0.001,0.013,-0.034,-0.117,-0.152,-0.096,-0.057,-0.062
-0.002,0.03,0.032,-0.015,-0.017,0.031,-0.037,-0.092,-0.109,-0.068,-0.055,-0.068
-0.027,-0.008,0.019,0.017,-0.023,0.005,-0.015,-0.133,-0.157,-0.106,-0.078,-0.085
-0.012,0.017,0.029,-0.003,-0.02,0.022,-0.035,-0.089,-0.102,-0.064,-0.052,-0.064
-0.013,0.021,0.034,-0.005,-0.024,0.028,0.075,0.043,-0.086,-0.085,-0.062,-0.074
0.124,0.193,0.068,-0.159,0.028,0.13,0.101,0.556,0.389,0.228,0.144,0.072
0.331,0.529,0.198,-0.43,0.066,0.363,0.041,0.653,1.011,0.703,0.501,0.368
-0.027,0.08,0.107,-0.026,-0.067,0.094,0.038,-0.866,-0.308,-0.148,-0.027,0.017
-0.23,-0.286,-0.056,0.258,-0.087,-0.171,-0.33,-1.471,-1.084,-0.639,-0.402,-0.281
-0.109,-0.201,-0.092,0.155,-0.008,-0.146,-0.402,-0.805,-0.597,-0.35,-0.248,-0.205
-0.08,-0.171,-0.091,0.125,0.006,-0.13,-0.157,-0.427,-0.431,-0.298,-0.211,-0.185
0.004,-0.033,-0.037,0.015,0.021,-0.035,-0.096,-0.121,-0.172,-0.104,-0.091,-0.074
-0.003,-0.017,-0.015,0.01,0.006,-0.016,-0.037,-0.066,-0.16,-0.094,-0.07,-0.057
-0.002,0.001,0.003,0.0,-0.003,0.002,-0.033,-0.044,-0.124,-0.087,-0.049,-0.056
-0.002,0.009,0.011,-0.004,-0.007,0.01,-0.025,-0.028,-0.107,-0.072,-0.045,-0.051
-0.013,0.006,0.019,0.003,-0.016,0.012,-0.02,-0.029,-0.113,-0.076,-0.048,-0.053
-0.004,0.023,0.027,-0.01,-0.016,0.025,-0.018,-0.006,-0.085,-0.053,-0.036,-0.047
-0.006,0.017,0.023,-0.006,-0.015,0.02,-0.01,-0.009,-0.099,-0.061,-0.042,-0.05
0.005,0.032,0.026,-0.019,-0.011,0.029,-0.012,0.012,-0.075,-0.041,-0.028,-0.036
0.003,0.027,0.024,-0.016,-0.01,0.025,-0.008,0.015,-0.081,-0.042,-0.028,-0.031
0.013,0.039,0.026,-0.026,-0.007,0.032,-0.012,0.038,-0.067,-0.031,-0.019,-0.02
0.023,0.047,0.024,-0.036,-0.001,0.035,-0.009,0.058,-0.062,-0.023,-0.013,-0.014
0.036,0.057,0.021,-0.047,0.008,0.039,-0.022,0.071,-0.049,-0.005,-0.004,-0.009
0.06,0.078,0.019,-0.069,0.02,0.048,-0.041,0.091,-0.033,0.012,0.012,0.002
0.076,0.091,0.015,-0.084,0.03,0.052,-0.049,0.109,-0.006,0.028,0.035,0.021
0.102,0.115,0.013,-0.108,0.044,0.064,-0.061,0.106,0.025,0.055,0.062,0.047
0.127,0.135,0.008,-0.131,0.059,0.071,-0.088,0.101,0.046,0.082,0.091,0.073
0.145,0.161,0.016,-0.153,0.064,0.089,-0.117,0.097,0.057,0.114,0.111,0.095
0.155,0.191,0.037,-0.173,0.059,0.114,-0.122,0.093,0.062,0.135,0.134,0.119
0.14,0.18,0.041,-0.16,0.049,0.11,-0.117,0.088,0.061,0.145,0.135,0.119
0.125,0.168,0.043,-0.147,0.041,0.105,-0.091,0.085,0.05,0.139,0.121,0.103
0.112,0.158,0.046,-0.136,0.033,0.102,-0.045,0.097,0.038,0.111,0.109,0.09
0.077,0.126,0.049,-0.101,0.014,0.088,-0.012,0.089,0.013,0.074,0.076,0.056
0.036,0.086,0.05,-0.061,-0.007,0.068,0.013,0.061,-0.02,0.035,0.04,0.023
0.018,0.061,0.043,-0.04,-0.013,0.052,0.018,0.029,-0.051,0.006,0.009,0.003
0.013,0.048,0.035,-0.03,-0.011,0.041,0.012,0.003,-0.067,-0.011,-0.004,-0.008
0.01,0.038,0.027,-0.024,-0.009,0.032,0.01,-0.008,-0.074,-0.02,-0.008,-0.012
0.006,0.03,0.024,-0.019,-0.009,0.027,0.006,-0.021,-0.085,-0.025,-0.016,-0.018
-0.003,0.019,0.022,-0.008,-0.013,0.02,0.001,-0.027,-0.085,-0.033,-0.022,-0.024
-0.002,0.017,0.019,-0.008,-0.01,0.018,0.001,-0.021,-0.085,-0.038,-0.029,-0.029
0.005,0.021,0.016,-0.013,-0.006,0.018,0.004,-0.017,-0.085,-0.036,-0.027,-0.027
0.005,0.02,0.014,-0.013,-0.004,0.016,0.0,-0.013,-0.085,-0.033,-0.021,-0.022
0.01,0.02,0.011,-0.015,-0.001,0.015,0.0,-0.007,-0.085,-0.031,-0.017,-0.019
0.01,0.02,0.01,-0.015,0.0,0.015,0.0,-0.006,-0.085,-0.027,-0.013,-0.016
0.011,0.021,0.01,-0.016,0.0,0.015,0.0,-0.011,-0.085,-0.024,-0.007,-0.011
0.014,0.024,0.011,-0.019,0.001,0.017,0.0,-0.016,-0.085,-0.027,-0.006,-0.011
0.017,0.025,0.009,-0.021,0.003,0.016,0.0,-0.021,-0.085,-0.031,-0.01,-0.015
0.008,0.025,0.017,-0.016,-0.005,0.021,0.0,-0.025,-0.085,-0.03,-0.01,-0.015
-0.007,0.025,0.032,-0.009,-0.02,0.028,0.0,-0.03,-0.087,-0.031,-0.01,-0.018
-0.001,0.025,0.026,-0.012,-0.014,0.026,0.0,-0.034,-0.093,-0.035,-0.01,-0.021
0.001,0.022,0.021,-0.012,-0.01,0.022,0.0,-0.036,-0.097,-0.035,-0.01,-0.02
0.002,0.019,0.016,-0.011,-0.007,0.017,0.001,-0.039,-0.1,-0.036,-0.013,-0.02
0.006,0.015,0.009,-0.01,-0.002,0.011,0.006,-0.041,-0.104,-0.04,-0.017,-0.02
0.006,0.012,0.007,-0.009,-0.001,0.009,0.004,-0.05,-0.106,-0.04,-0.021,-0.02
0.013,0.007,-0.006,-0.01,0.01,0.0,0.008,-0.051,-0.101,-0.037,-0.023,-0.02
0.016,0.005,-0.011,-0.01,0.013,-0.003,0.011,-0.044,-0.098,-0.033,-0.03,-0.021
0.015,0.021,0.006,-0.018,0.004,0.014,0.009,-0.037,-0.088,-0.024,-0.028,-0.018
0.009,0.045,0.036,-0.027,-0.014,0.041,0.016,-0.032,-0.09,-0.024,-0.015,-0.009
0.024,0.08,0.056,-0.052,-0.017,0.068,0.022,-0.022,-0.076,-0.012,0.003,0.006
0.033,0.088,0.055,-0.061,-0.012,0.072,0.03,-0.02,-0.079,-0.013,0.007,0.008
0.043,0.097,0.055,-0.071,-0.006,0.076,0.003,-0.009,-0.063,0.001,0.018,0.028
0.073,0.097,0.024,-0.085,0.025,0.06,-0.018,-0.012,-0.058,0.007,0.025,0.032
0.072,0.044,-0.028,-0.058,0.05,0.008,-0.02,-0.044,-0.108,-0.032,-0.002,0.002
0.048,0.02,-0.029,-0.034,0.038,-0.004,-0.022,-0.057,-0.094,-0.033,-0.009,-0.001
0.002,-0.015,-0.017,0.006,0.01,-0.016,-0.013,-0.091,-0.14,-0.067,-0.038,-0.037
-0.009,-0.007,0.002,0.009,-0.005,-0.002,-0.023,-0.061,-0.099,-0.041,-0.026,-0.031
-0.027,-0.042,-0.015,0.034,-0.006,-0.028,-0.003,-0.1,-0.147,-0.082,-0.065,-0.052
-0.009,-0.022,-0.013,0.016,0.002,-0.018,-0.023,-0.058,-0.09,-0.046,-0.043,-0.028
-0.024,-0.016,0.008,0.02,-0.015,-0.004,0.088,0.064,-0.067,-0.054,-0.051,-0.048
0.137,0.168,0.03,-0.153,0.053,0.099,0.083,0.57,0.408,0.27,0.16,0.092
0.326,0.493,0.167,-0.409,0.079,0.329,0.015,0.65,0.977,0.709,0.505,0.403
-0.055,0.033,0.088,0.011,-0.071,0.06,0.039,-0.87,-0.328,-0.145,-0.04,0.041
-0.249,-0.319,-0.07,0.284,-0.089,-0.194,-0.32,-1.433,-1.034,-0.603,-0.393,-0.26
-0.12,-0.217,-0.096,0.169,-0.012,-0.156,-0.382,-0.767,-0.565,-0.314,-0.23,-0.178
-0.074,-0.187,-0.113,0.131,0.02,-0.15,-0.148,-0.406,-0.41,-0.262,-0.197,-0.161
-0.012,-0.054,-0.042,0.034,0.015,-0.048,-0.088,-0.11,-0.143,-0.073,-0.069,-0.064
-0.027,-0.033,-0.006,0.031,-0.01,-0.02,-0.02,-0.067,-0.133,-0.068,-0.049,-0.041
-0.018,-0.014,0.005,0.016,-0.011,-0.004,-0.02,-0.034,-0.099,-0.058,-0.029,-0.025
-0.02,-0.006,0.014,0.013,-0.017,0.004,-0.013,-0.021,-0.09,-0.048,-0.022,-0.022
-0.017,-0.009,0.008,0.013,-0.012,-0.001,-0.013,-0.026,-0.099,-0.053,-0.025,-0.021
-0.004,0.008,0.012,-0.002,-0.008,0.009,-0.012,-0.005,-0.074,-0.034,-0.011,-0.01
-0.006,0.003,0.009,0.002,-0.008,0.005,-0.007,-0.013,-0.088,-0.043,-0.016,-0.013
0.006,0.017,0.011,-0.011,-0.003,0.014,-0.015,0.01,-0.066,-0.025,-0.004,-0.002
0.009,0.019,0.01,-0.014,-0.001,0.014,-0.019,0.013,-0.071,-0.028,-0.003,-0.007
0.024,0.03,0.006,-0.028,0.009,0.018,-0.03,0.031,-0.051,-0.016,0.007,0.0
0.037,0.037,0.0,-0.037,0.018,0.018,-0.025,0.044,-0.047,-0.015,0.012,-0.001
0.05,0.043,-0.006,-0.046,0.028,0.018,-0.025,0.057,-0.035,0.001,0.019,0.006
0.062,0.054,-0.009,-0.058,0.035,0.022,-0.033,0.073,-0.024,0.027,0.026,0.029
0.071,0.066,-0.005,-0.068,0.038,0.03,-0.052,0.09,-0.001,0.046,0.044,0.042
0.1,0.1,0.0,-0.1,0.05,0.05,-0.075,0.092,0.028,0.075,0.07,0.068
0.125,0.126,0.001,-0.126,0.061,0.063,-0.096,0.089,0.041,0.104,0.094,0.087
0.139,0.146,0.007,-0.143,0.066,0.077,-0.122,0.09,0.063,0.132,0.121,0.113
0.167,0.176,0.009,-0.172,0.079,0.092,-0.13,0.085,0.074,0.16,0.14,0.136
0.168,0.172,0.004,-0.17,0.082,0.087,-0.131,0.086,0.066,0.167,0.131,0.124
0.153,0.167,0.014,-0.16,0.07,0.09,-0.112,0.083,0.056,0.162,0.118,0.121
0.126,0.164,0.038,-0.145,0.044,0.1,-0.065,0.073,0.05,0.137,0.108,0.108
0.076,0.13,0.054,-0.103,0.011,0.092,-0.024,0.061,0.03,0.094,0.076,0.07
0.044,0.093,0.049,-0.069,-0.003,0.071,0.006,0.051,-0.007,0.062,0.038,0.037
0.024,0.067,0.043,-0.046,-0.01,0.055,0.013,0.031,-0.038,0.024,0.018,0.019
0.017,0.055,0.038,-0.037,-0.011,0.047,0.009,-0.001,-0.066,-0.007,0.008,0.007
0.018,0.049,0.031,-0.034,-0.007,0.04,0.006,-0.016,-0.079,-0.016,-0.001,-0.001
0.01,0.042,0.032,-0.026,-0.012,0.037,0.002,-0.024,-0.083,-0.023,-0.009,-0.01
0.007,0.043,0.036,-0.026,-0.015,0.039,-0.001,-0.036,-0.088,-0.028,-0.02,-0.019
0.006,0.046,0.039,-0.026,-0.017,0.042,-0.005,-0.036,-0.091,-0.026,-0.027,-0.015
0.002,0.045,0.043,-0.023,-0.021,0.043,-0.008,-0.029,-0.089,-0.023,-0.025,-0.015
0.0,0.045,0.045,-0.023,-0.023,0.045,-0.011,-0.022,-0.086,-0.021,-0.025,-0.014
0.0,0.045,0.045,-0.023,-0.023,0.045,-0.014,-0.016,-0.084,-0.017,-0.025,-0.009
0.0,0.045,0.045,-0.023,-0.023,0.045,-0.017,-0.009,-0.08,-0.015,-0.025,-0.011
0.0,0.045,0.045,-0.023,-0.023,0.045,-0.02,-0.006,-0.081,-0.012,-0.025,-0.007
0.0,0.045,0.045,-0.023,-0.023,0.045,-0.019,-0.011,-0.086,-0.01,-0.02,-0.005
-0.001,0.045,0.045,-0.023,-0.023,0.045,-0.015,-0.014,-0.084,-0.01,-0.02,-0.005
0.002,0.045,0.043,-0.024,-0.021,0.044,-0.015,-0.017,-0.088,-0.01,-0.018,-0.002
0.007,0.045,0.038,-0.026,-0.016,0.041,-0.015,-0.022,-0.091,-0.01,-0.015,0.001
0.007,0.042,0.035,-0.025,-0.014,0.038,-0.015,-0.024,-0.089,-0.01,-0.014,-0.001
0.006,0.037,0.031,-0.021,-0.013,0.034,-0.015,-0.032,-0.097,-0.02,-0.019,-0.004
0.007,0.035,0.028,-0.021,-0.011,0.031,-0.011,-0.037,-0.102,-0.028,-0.028,-0.007
0.006,0.03,0.024,-0.019,-0.009,0.027,-0.004,-0.034,-0.096,-0.025,-0.024,-0.01
-0.004,0.026,0.031,-0.011,-0.018,0.028,0.002,-0.03,-0.09,-0.025,-0.019,-0.012
-0.004,0.025,0.029,-0.011,-0.017,0.027,0.01,-0.029,-0.089,-0.023,-0.018,-0.017
0.003,0.034,0.031,-0.019,-0.014,0.032,0.015,-0.024,-0.08,-0.018,-0.01,-0.011
0.011,0.076,0.065,-0.044,-0.027,0.071,0.021,-0.026,-0.08,-0.022,-0.012,-0.005
0.025,0.108,0.083,-0.067,-0.029,0.095,0.02,-0.025,-0.067,-0.009,-0.001,0.004
0.03,0.108,0.078,-0.069,-0.024,0.093,0.015,-0.024,-0.055,0.007,0.006,0.008
0.044,0.126,0.082,-0.085,-0.019,0.104,-0.004,-0.028,-0.048,0.01,0.021,0.028
0.072,0.125,0.053,-0.099,0.009,0.089,-0.022,-0.019,-0.043,0.008,0.034,0.045
0.085,0.07,-0.015,-0.077,0.05,0.027,-0.035,-0.043,-0.103,-0.02,-0.021,0.001
0.052,0.043,-0.009,-0.047,0.03,0.017,-0.039,-0.046,-0.095,-0.012,-0.029,-0.008
0.008,0.02,0.011,-0.014,-0.002,0.015,-0.024,-0.081,-0.133,-0.062,-0.055,-0.026
0.022,0.04,0.017,-0.032,0.002,0.028,-0.04,-0.064,-0.117,-0.053,-0.052,-0.022
0.009,0.022,0.013,-0.016,-0.002,0.017,-0.011,-0.084,-0.15,-0.076,-0.072,-0.041
0.03,0.034,0.004,-0.032,0.013,0.019,-0.044,-0.073,-0.124,-0.059,-0.065,-0.041
-0.014,0.034,0.048,-0.01,-0.031,0.041,0.047,0.028,-0.079,-0.054,-0.057,-0.049
0.058,0.116,0.058,-0.088,0.0,0.087,0.098,0.436,0.228,0.139,0.058,0.025
0.342,0.49,0.148,-0.416,0.096,0.318,-0.004,0.794,0.958,0.69,0.468,0.371
0.035,0.168,0.133,-0.102,-0.049,0.151,0.08,-0.486,-0.026,0.039,0.073,0.12
-0.306,-0.291,0.015,0.298,-0.16,-0.138,-0.218,-1.436,-1.037,-0.632,-0.415,-0.272
-0.157,-0.205,-0.048,0.181,-0.054,-0.126,-0.405,-0.865,-0.633,-0.363,-0.264,-0.202
-0.065,-0.178,-0.112,0.122,0.024,-0.145,-0.182,-0.452,-0.45,-0.288,-0.227,-0.183
-0.025,-0.056,-0.031,0.04,0.003,-0.043,-0.1,-0.153,-0.203,-0.119,-0.108,-0.088
-0.022,-0.005,0.017,0.014,-0.019,0.006,-0.037,-0.054,-0.13,-0.07,-0.058,-0.047
-0.022,-0.003,0.018,0.012,-0.02,0.007,-0.031,-0.048,-0.124,-0.071,-0.053,-0.047
-0.02,0.015,0.035,0.003,-0.028,0.025,-0.024,-0.02,-0.091,-0.045,-0.034,-0.03
-0.022,0.004,0.026,0.009,-0.024,0.015,-0.016,-0.03,-0.117,-0.062,-0.047,-0.037
-0.013,0.02,0.033,-0.004,-0.023,0.026,-0.016,-0.001,-0.084,-0.038,-0.029,-0.023
-0.014,0.015,0.028,-0.001,-0.021,0.021,-0.003,-0.009,-0.103,-0.05,-0.036,-0.026
-0.007,0.024,0.031,-0.008,-0.019,0.027,-0.01,0.011,-0.082,-0.034,-0.025,-0.016
-0.004,0.024,0.028,-0.01,-0.017,0.026,-0.014,0.011,-0.081,-0.033,-0.023,-0.012
0.005,0.03,0.025,-0.018,-0.01,0.027,-0.024,0.024,-0.064,-0.019,-0.013,-0.003
0.012,0.035,0.023,-0.023,-0.006,0.028,-0.029,0.039,-0.054,-0.01,-0.008,0.005
0.026,0.045,0.019,-0.036,0.003,0.032,-0.038,0.051,-0.045,0.001,0.003,0.012
0.037,0.054,0.017,-0.046,0.01,0.035,-0.044,0.071,-0.019,0.023,0.02,0.022
0.057,0.072,0.014,-0.065,0.021,0.043,-0.05,0.071,0.002,0.044,0.036,0.037
0.085,0.1,0.015,-0.093,0.034,0.058,-0.066,0.07,0.023,0.074,0.064,0.057
0.109,0.123,0.015,-0.117,0.047,0.069,-0.085,0.07,0.037,0.106,0.086,0.079
0.131,0.146,0.015,-0.139,0.058,0.08,-0.103,0.065,0.046,0.131,0.117,0.105
0.147,0.162,0.015,-0.155,0.065,0.088,-0.117,0.066,0.061,0.156,0.144,0.129
0.151,0.165,0.015,-0.159,0.067,0.09,-0.116,0.066,0.06,0.163,0.142,0.133
0.147,0.163,0.016,-0.155,0.065,0.089,-0.1,0.073,0.048,0.148,0.134,0.119
0.124,0.152,0.028,-0.138,0.048,0.09,-0.061,0.072,0.04,0.134,0.118,0.104
0.076,0.116,0.04,-0.096,0.018,0.078,-0.019,0.064,0.031,0.101,0.08,0.075
0.033,0.069,0.036,-0.051,-0.002,0.052,0.012,0.058,0.009,0.06,0.044,0.042
0.004,0.034,0.03,-0.019,-0.013,0.032,0.026,0.035,-0.023,0.029,0.018,0.014
-0.006,0.019,0.025,-0.007,-0.016,0.022,0.026,0.015,-0.038,0.015,0.005,0.001
-0.01,0.009,0.019,0.0,-0.015,0.014,0.023,0.01,-0.054,0.01,-0.006,-0.002
-0.016,-0.004,0.013,0.01,-0.015,0.004,0.02,0.005,-0.065,0.002,-0.018,-0.008
-0.021,-0.01,0.011,0.016,-0.016,0.001,0.017,0.0,-0.065,-0.006,-0.015,-0.013
-0.03,-0.015,0.015,0.022,-0.022,0.0,0.015,-0.007,-0.065,-0.013,-0.015,-0.019
-0.034,-0.019,0.015,0.026,-0.024,-0.001,0.013,-0.009,-0.065,-0.012,-0.014,-0.016
-0.033,-0.018,0.015,0.025,-0.024,-0.001,0.01,-0.005,-0.065,-0.009,-0.01,-0.015
-0.026,-0.011,0.015,0.018,-0.02,0.002,0.01,-0.005,-0.065,-0.01,-0.01,-0.015
-0.021,-0.006,0.015,0.013,-0.018,0.004,0.007,-0.005,-0.065,-0.01,-0.01,-0.01
-0.015,0.0,0.015,0.007,-0.015,0.007,0.004,-0.005,-0.065,-0.01,-0.01,-0.01
-0.01,0.005,0.015,0.002,-0.013,0.01,0.006,-0.005,-0.065,-0.011,-0.01,-0.01
-0.015,0.0,0.015,0.007,-0.015,0.007,0.009,-0.01,-0.065,-0.016,-0.01,-0.01
-0.015,0.001,0.015,0.007,-0.015,0.007,0.014,-0.018,-0.066,-0.018,-0.01,-0.01
-0.016,-0.002,0.014,0.008,-0.015,0.006,0.016,-0.024,-0.062,-0.022,-0.01,-0.01
-0.022,-0.005,0.017,0.013,-0.019,0.006,0.021,-0.031,-0.06,-0.025,-0.014,-0.01
-0.025,-0.006,0.02,0.015,-0.022,0.006,0.024,-0.04,-0.06,-0.022,-0.015,-0.01
-0.023,-0.002,0.021,0.013,-0.022,0.009,0.028,-0.043,-0.06,-0.016,-0.012,-0.006
-0.011,0.007,0.018,0.002,-0.015,0.013,0.031,-0.034,-0.061,-0.012,-0.006,0.0
-0.007,0.019,0.025,-0.006,-0.016,0.022,0.029,-0.018,-0.058,-0.006,0.002,0.006
-0.006,0.043,0.049,-0.019,-0.027,0.046,0.037,-0.013,-0.054,-0.005,0.006,0.01
-0.002,0.05,0.052,-0.024,-0.027,0.05,0.036,-0.007,-0.034,0.004,0.015,0.021
0.02,0.073,0.053,-0.046,-0.017,0.063,0.03,-0.013,-0.032,0.014,0.033,0.035
0.049,0.108,0.06,-0.079,-0.006,0.084,0.017,-0.008,-0.014,0.027,0.055,0.046
0.039,0.051,0.012,-0.045,0.013,0.032,0.018,-0.012,-0.035,-0.001,0.019,0.02
0.044,0.009,-0.034,-0.026,0.039,-0.012,0.008,-0.027,-0.061,-0.016,-0.004,0.004
0.008,-0.02,-0.028,0.006,0.018,-0.024,0.007,-0.032,-0.072,-0.028,-0.015,-0.01
-0.035,-0.066,-0.031,0.051,-0.002,-0.049,0.003,-0.061,-0.105,-0.056,-0.045,-0.031
-0.034,-0.047,-0.013,0.041,-0.011,-0.03,-0.004,-0.04,-0.057,-0.028,-0.027,-0.015
-0.054,-0.078,-0.024,0.066,-0.015,-0.05,0.018,-0.075,-0.112,-0.069,-0.059,-0.05
-0.016,-0.04,-0.024,0.028,0.004,-0.032,-0.008,-0.016,-0.035,-0.015,-0.015,-0.003
-0.053,-0.061,-0.009,0.057,-0.022,-0.035,0.12,0.151,-0.003,-0.033,-0.041,-0.025
0.136,0.173,0.037,-0.154,0.049,0.104,0.078,0.66,0.615,0.409,0.252,0.168
0.256,0.341,0.086,-0.299,0.085,0.214,0.052,0.492,0.833,0.579,0.411,0.327
-0.171,-0.168,0.004,0.17,-0.087,-0.082,0.106,-0.954,-0.547,-0.369,-0.205,-0.104
-0.304,-0.32,-0.016,0.312,-0.144,-0.168,-0.261,-1.239,-0.843,-0.52,-0.335,-0.226
-0.147,-0.238,-0.092,0.193,-0.027,-0.165,-0.305,-0.639,-0.456,-0.275,-0.217,-0.156
-0.084,-0.214,-0.13,0.149,0.023,-0.172,-0.112,-0.346,-0.337,-0.232,-0.181,-0.151
-0.038,-0.083,-0.045,0.061,0.003,-0.064,-0.059,-0.076,-0.079,-0.073,-0.05,-0.059
-0.02,-0.066,-0.046,0.043,0.014,-0.056,-0.005,-0.038,-0.087,-0.081,-0.06,-0.05
-0.007,-0.043,-0.036,0.025,0.015,-0.04,-0.016,-0.007,-0.039,-0.037,-0.032,-0.027
-0.018,-0.048,-0.031,0.033,0.007,-0.039,0.009,-0.002,-0.046,-0.039,-0.036,-0.033
-0.013,-0.039,-0.025,0.026,0.006,-0.031,0.014,0.001,-0.037,-0.026,-0.026,-0.026
-0.017,-0.033,-0.016,0.025,0.0,-0.024,0.015,0.015,-0.024,-0.018,-0.017,-0.021
-0.017,-0.031,-0.014,0.024,-0.001,-0.022,0.016,0.013,-0.026,-0.021,-0.015,-0.021
-0.013,-0.02,-0.007,0.017,-0.003,-0.014,0.01,0.026,-0.004,-0.008,-0.004,-0.012
0.004,-0.019,-0.024,0.008,0.014,-0.021,0.011,0.035,-0.005,-0.012,-0.004,-0.009
0.024,-0.011,-0.035,-0.006,0.03,-0.023,0.009,0.057,0.015,0.0,0.005,0.001
0.028,-0.007,-0.035,-0.01,0.032,-0.021,0.001,0.071,0.022,0.019,0.011,0.004
0.034,-0.001,-0.035,-0.016,0.035,-0.018,-0.011,0.084,0.033,0.035,0.024,0.017
0.046,0.011,-0.035,-0.028,0.04,-0.012,-0.026,0.094,0.05,0.052,0.04,0.038
0.074,0.039,-0.035,-0.056,0.054,0.002,-0.043,0.105,0.068,0.074,0.063,0.057
0.084,0.049,-0.035,-0.066,0.059,0.007,-0.066,0.103,0.077,0.099,0.087,0.075
0.103,0.068,-0.035,-0.085,0.069,0.016,-0.096,0.099,0.101,0.136,0.116,0.1
0.137,0.102,-0.035,-0.119,0.086,0.033,-0.109,0.101,0.121,0.161,0.145,0.125
0.153,0.118,-0.035,-0.135,0.094,0.041,-0.113,0.101,0.124,0.183,0.16,0.129
0.165,0.13,-0.035,-0.147,0.1,0.047,-0.101,0.1,0.12,0.174,0.155,0.118
0.144,0.119,-0.025,-0.131,0.084,0.047,-0.07,0.118,0.114,0.157,0.146,0.112
0.091,0.079,-0.012,-0.085,0.051,0.033,-0.024,0.129,0.112,0.136,0.117,0.095
0.054,0.047,-0.007,-0.05,0.03,0.02,0.022,0.117,0.097,0.091,0.074,0.054
0.018,0.018,0.0,-0.018,0.009,0.008,0.051,0.104,0.069,0.056,0.036,0.027
-0.023,-0.018,0.004,0.02,-0.013,-0.007,0.056,0.083,0.047,0.033,0.016,0.012
-0.044,-0.043,0.001,0.043,-0.022,-0.021,0.054,0.062,0.028,0.024,0.012,-0.003
-0.053,-0.059,-0.006,0.057,-0.024,-0.032,0.055,0.047,0.01,0.018,0.004,-0.005
-0.055,-0.064,-0.009,0.059,-0.023,-0.036,0.055,0.045,-0.002,0.01,-0.004,-0.008
-0.053,-0.067,-0.014,0.061,-0.019,-0.04,0.055,0.042,0.0,0.002,-0.011,-0.011
-0.052,-0.071,-0.019,0.061,-0.017,-0.045,0.05,0.039,0.005,-0.003,-0.013,-0.014
-0.051,-0.07,-0.018,0.061,-0.016,-0.044,0.046,0.035,0.007,-0.001,-0.007,-0.015
-0.057,-0.07,-0.013,0.064,-0.022,-0.041,0.043,0.036,0.012,0.002,-0.002,-0.026
-0.06,-0.07,-0.01,0.065,-0.025,-0.04,0.04,0.05,0.015,0.005,0.001,-0.031
-0.041,-0.07,-0.029,0.056,-0.006,-0.049,0.035,0.047,0.011,0.007,0.007,-0.021
-0.028,-0.07,-0.042,0.049,0.007,-0.056,0.037,0.04,0.01,0.011,0.009,-0.017
-0.031,-0.07,-0.039,0.051,0.004,-0.054,0.042,0.038,0.009,0.007,0.006,-0.009
-0.029,-0.07,-0.041,0.05,0.006,-0.056,0.045,0.032,0.006,0.005,0.003,-0.003
-0.031,-0.07,-0.039,0.05,0.004,-0.055,0.05,0.032,0.005,0.005,0.001,0.002
-0.03,-0.07,-0.04,0.05,0.005,-0.055,0.05,0.035,0.006,0.001,-0.003,0.007
-0.028,-0.07,-0.041,0.049,0.007,-0.055,0.051,0.039,0.013,0.0,-0.005,0.01
-0.02,-0.07,-0.05,0.045,0.015,-0.06,0.05,0.041,0.016,-0.001,-0.003,0.013
-0.015,-0.07,-0.055,0.043,0.02,-0.062,0.051,0.045,0.025,0.009,0.008,0.018
-0.016,-0.047,-0.031,0.032,0.008,-0.039,0.066,0.05,0.026,0.014,0.015,0.02
-0.011,-0.008,0.003,0.01,-0.007,-0.002,0.058,0.065,0.037,0.027,0.023,0.014
-0.007,0.016,0.023,-0.005,-0.015,0.019,0.054,0.058,0.037,0.032,0.031,0.014
0.024,0.031,0.007,-0.027,0.008,0.018,0.045,0.046,0.034,0.032,0.041,0.042
0.017,-0.022,-0.039,0.003,0.028,-0.03,0.039,0.038,0.024,0.021,0.025,0.036
0.024,-0.066,-0.09,0.022,0.057,-0.078,0.037,0.018,0.002,0.005,0.009,0.009
0.01,-0.071,-0.081,0.03,0.045,-0.076,0.042,0.011,0.015,0.01,0.011,-0.002
-0.061,-0.123,-0.063,0.092,0.001,-0.093,0.05,-0.027,-0.024,-0.021,-0.013,-0.032
-0.05,-0.112,-0.062,0.081,0.007,-0.086,0.036,-0.004,0.018,0.008,0.005,-0.021
-0.075,-0.146,-0.071,0.111,-0.002,-0.109,0.058,-0.028,-0.043,-0.045,-0.036,-0.041
-0.052,-0.116,-0.064,0.085,0.007,-0.09,0.027,-0.002,0.015,0.008,-0.003,-0.019
-0.067,-0.114,-0.047,0.091,-0.009,-0.08,0.139,0.147,0.05,-0.005,-0.015,-0.047
0.083,0.055,-0.028,-0.069,0.055,0.014,0.138,0.637,0.568,0.336,0.195,0.111
0.281,0.284,0.003,-0.282,0.138,0.143,0.063,0.66,1.039,0.686,0.451,0.341
-0.108,-0.171,-0.063,0.14,-0.023,-0.117,0.145,-0.756,-0.287,-0.21,-0.098,-0.025
-0.319,-0.389,-0.071,0.354,-0.124,-0.23,-0.189,-1.312,-0.881,-0.55,-0.35,-0.225
-0.164,-0.296,-0.132,0.231,-0.016,-0.214,-0.306,-0.695,-0.436,-0.258,-0.198,-0.15
-0.095,-0.306,-0.211,0.201,0.059,-0.259,-0.084,-0.344,-0.301,-0.226,-0.176,-0.145
-0.042,-0.181,-0.139,0.112,0.049,-0.16,-0.017,-0.057,-0.039,-0.056,-0.06,-0.051
-0.052,-0.151,-0.099,0.102,0.024,-0.125,0.043,0.019,-0.027,-0.05,-0.045,-0.046
-0.045,-0.127,-0.083,0.087,0.019,-0.105,0.045,0.043,0.022,-0.016,-0.018,-0.036
-0.044,-0.129,-0.085,0.087,0.02,-0.107,0.057,0.057,0.033,-0.007,-0.018,-0.031
-0.047,-0.133,-0.086,0.09,0.02,-0.109,0.055,0.049,0.035,-0.002,-0.015,-0.028
-0.043,-0.126,-0.083,0.085,0.02,-0.104,0.053,0.068,0.059,0.015,-0.002,-0.018
-0.047,-0.134,-0.087,0.091,0.02,-0.11,0.057,0.067,0.045,0.01,-0.005,-0.019
-0.045,-0.125,-0.08,0.085,0.018,-0.103,0.052,0.086,0.07,0.027,0.008,-0.007
-0.045,-0.124,-0.078,0.085,0.017,-0.101,0.054,0.09,0.067,0.026,0.011,-0.004
-0.039,-0.112,-0.073,0.076,0.018,-0.093,0.042,0.107,0.086,0.036,0.022,0.006
-0.038,-0.109,-0.071,0.073,0.017,-0.09,0.039,0.126,0.094,0.04,0.029,0.01
-0.028,-0.094,-0.065,0.061,0.019,-0.079,0.03,0.147,0.109,0.061,0.035,0.017
-0.005,-0.072,-0.066,0.039,0.031,-0.069,0.025,0.158,0.126,0.075,0.044,0.027
0.018,-0.061,-0.079,0.021,0.049,-0.07,0.017,0.168,0.147,0.094,0.065,0.048
0.048,-0.043,-0.091,-0.002,0.07,-0.067,-0.01,0.177,0.176,0.129,0.099,0.073
0.072,-0.022,-0.094,-0.025,0.083,-0.058,-0.04,0.173,0.198,0.161,0.121,0.086
0.096,0.006,-0.09,-0.051,0.093,-0.042,-0.066,0.177,0.212,0.191,0.146,0.111
0.113,0.023,-0.09,-0.068,0.101,-0.033,-0.072,0.173,0.213,0.211,0.167,0.132
0.103,0.013,-0.09,-0.058,0.096,-0.038,-0.066,0.181,0.203,0.218,0.161,0.136
0.091,0.001,-0.09,-0.046,0.09,-0.044,-0.029,0.195,0.194,0.205,0.155,0.128
0.07,-0.017,-0.086,-0.026,0.078,-0.051,0.041,0.196,0.186,0.162,0.127,0.09
0.037,-0.048,-0.084,0.006,0.061,-0.066,0.083,0.192,0.172,0.121,0.085,0.055
0.006,-0.08,-0.085,0.037,0.046,-0.082,0.101,0.165,0.137,0.091,0.055,0.033
-0.029,-0.109,-0.08,0.069,0.026,-0.094,0.102,0.131,0.106,0.066,0.033,0.011
-0.057,-0.137,-0.08,0.097,0.012,-0.108,0.098,0.104,0.09,0.053,0.02,-0.001
-0.061,-0.14,-0.08,0.1,0.01,-0.11,0.097,0.093,0.082,0.046,0.008,-0.006
-0.061,-0.141,-0.08,0.101,0.009,-0.11,0.093,0.096,0.081,0.039,0.002,-0.011
-0.07,-0.152,-0.083,0.111,0.007,-0.118,0.091,0.094,0.076,0.031,-0.002,-0.017
-0.071,-0.15,-0.079,0.111,0.004,-0.114,0.088,0.095,0.073,0.023,-0.006,-0.023
-0.075,-0.15,-0.075,0.113,0.0,-0.112,0.086,0.095,0.069,0.023,-0.011,-0.023
-0.079,-0.148,-0.069,0.113,-0.005,-0.108,0.082,0.095,0.065,0.025,-0.015,-0.017
-0.063,-0.144,-0.081,0.104,0.01,-0.112,0.08,0.096,0.068,0.026,-0.01,-0.012
-0.045,-0.146,-0.101,0.095,0.028,-0.123,0.076,0.096,0.071,0.028,-0.005,-0.009
-0.047,-0.141,-0.094,0.095,0.024,-0.118,0.075,0.094,0.068,0.035,-0.001,-0.004
-0.052,-0.139,-0.087,0.096,0.017,-0.113,0.086,0.091,0.065,0.042,0.004,0.0
-0.059,-0.14,-0.082,0.1,0.012,-0.111,0.092,0.089,0.063,0.04,0.008,-0.005
-0.062,-0.134,-0.073,0.098,0.006,-0.103,0.089,0.085,0.059,0.036,0.013,-0.009
-0.063,-0.135,-0.072,0.1,0.005,-0.103,0.091,0.085,0.064,0.035,0.019,-0.014
-0.06,-0.134,-0.074,0.097,0.007,-0.104,0.09,0.084,0.071,0.029,0.023,-0.013
-0.041,-0.118,-0.076,0.08,0.018,-0.097,0.089,0.085,0.078,0.031,0.03,-0.003
-0.025,-0.093,-0.068,0.059,0.022,-0.08,0.11,0.104,0.092,0.044,0.034,0.002
0.001,-0.056,-0.057,0.028,0.03,-0.057,0.112,0.119,0.115,0.063,0.041,0.01
-0.031,-0.073,-0.042,0.053,0.006,-0.057,0.105,0.105,0.11,0.068,0.046,0.022
-0.064,-0.084,-0.02,0.074,-0.022,-0.052,0.098,0.102,0.115,0.075,0.053,0.037
-0.017,-0.09,-0.073,0.054,0.028,-0.082,0.095,0.095,0.103,0.054,0.033,0.018
0.019,-0.109,-0.128,0.046,0.074,-0.119,0.089,0.082,0.086,0.036,0.018,-0.002
-0.003,-0.123,-0.12,0.063,0.059,-0.121,0.081,0.075,0.086,0.036,0.01,-0.006
-0.049,-0.18,-0.131,0.115,0.041,-0.155,0.08,0.041,0.037,0.011,-0.03,-0.036
-0.05,-0.165,-0.115,0.108,0.033,-0.14,0.07,0.061,0.091,0.038,-0.014,-0.033
-0.053,-0.178,-0.125,0.116,0.036,-0.152,0.095,0.021,0.032,-0.012,-0.037,-0.062
-0.021,-0.139,-0.118,0.08,0.049,-0.128,0.075,0.057,0.105,0.035,-0.004,-0.038
-0.056,-0.155,-0.099,0.106,0.022,-0.127,0.173,0.212,0.115,0.001,-0.044,-0.07
0.076,0.031,-0.046,-0.053,0.061,-0.007,0.169,0.73,0.719,0.416,0.217,0.114
0.231,0.246,0.015,-0.239,0.108,0.131,0.131,0.664,1.167,0.749,0.479,0.351
-0.088,-0.227,-0.14,0.158,0.026,-0.183,0.152,-0.855,-0.348,-0.206,-0.112,-0.037
-0.265,-0.436,-0.171,0.351,-0.047,-0.303,-0.221,-1.323,-0.901,-0.523,-0.346,-0.232
-0.178,-0.356,-0.178,0.267,0.0,-0.267,-0.291,-0.66,-0.404,-0.254,-0.205,-0.169
-0.111,-0.35,-0.239,0.231,0.064,-0.294,-0.055,-0.297,-0.247,-0.206,-0.185,-0.168
-0.067,-0.22,-0.152,0.143,0.043,-0.186,0.022,-0.009,0.034,-0.016,-0.063,-0.074
-0.068,-0.195,-0.127,0.132,0.029,-0.161,0.079,0.043,0.027,-0.015,-0.051,-0.061
-0.054,-0.167,-0.113,0.111,0.03,-0.14,0.069,0.08,0.082,0.019,-0.023,-0.04
-0.063,-0.164,-0.101,0.114,0.019,-0.133,0.074,0.097,0.083,0.024,-0.025,-0.042
-0.058,-0.159,-0.101,0.109,0.022,-0.13,0.075,0.098,0.086,0.023,-0.021,-0.039
-0.049,-0.148,-0.098,0.099,0.025,-0.123,0.092,0.133,0.105,0.034,-0.012,-0.031
-0.049,-0.147,-0.098,0.099,0.024,-0.122,0.093,0.126,0.089,0.026,-0.014,-0.033
-0.042,-0.136,-0.093,0.089,0.026,-0.114,0.082,0.135,0.116,0.04,-0.002,-0.023
-0.037,-0.133,-0.096,0.085,0.029,-0.114,0.082,0.144,0.12,0.032,0.002,-0.017
-0.031,-0.12,-0.089,0.075,0.03,-0.104,0.071,0.165,0.144,0.047,0.017,-0.004
-0.032,-0.115,-0.082,0.074,0.025,-0.098,0.07,0.179,0.149,0.057,0.025,0.005
-0.025,-0.101,-0.076,0.064,0.025,-0.088,0.059,0.19,0.162,0.069,0.032,0.02
-0.016,-0.085,-0.07,0.051,0.027,-0.077,0.051,0.208,0.184,0.097,0.047,0.034
-0.008,-0.068,-0.06,0.038,0.027,-0.064,0.034,0.225,0.211,0.122,0.066,0.044
0.031,-0.043,-0.074,0.006,0.053,-0.058,0.007,0.234,0.231,0.151,0.093,0.062
0.074,-0.018,-0.091,-0.028,0.083,-0.054,-0.008,0.238,0.259,0.186,0.128,0.089
0.095,-0.004,-0.1,-0.045,0.098,-0.052,-0.018,0.243,0.284,0.212,0.151,0.116
0.1,0.002,-0.098,-0.051,0.099,-0.048,-0.032,0.245,0.301,0.236,0.174,0.137
0.101,0.014,-0.086,-0.057,0.093,-0.036,-0.023,0.247,0.295,0.238,0.183,0.139
0.082,0.003,-0.079,-0.042,0.08,-0.038,0.008,0.247,0.273,0.217,0.162,0.124
0.049,-0.025,-0.074,-0.011,0.062,-0.05,0.061,0.233,0.246,0.179,0.127,0.095
0.023,-0.053,-0.076,0.015,0.05,-0.064,0.105,0.224,0.212,0.13,0.094,0.062
-0.004,-0.076,-0.072,0.04,0.034,-0.074,0.107,0.206,0.177,0.091,0.066,0.034
-0.026,-0.096,-0.07,0.061,0.022,-0.083,0.103,0.164,0.13,0.074,0.041,0.022
-0.058,-0.127,-0.069,0.092,0.006,-0.098,0.102,0.132,0.107,0.065,0.031,0.018
-0.057,-0.137,-0.081,0.097,0.012,-0.109,0.098,0.114,0.105,0.055,0.028,0.011
-0.032,-0.135,-0.103,0.083,0.036,-0.118,0.096,0.109,0.098,0.05,0.025,0.006
-0.035,-0.136,-0.101,0.085,0.034,-0.118,0.093,0.11,0.093,0.045,0.023,0.001
-0.038,-0.132,-0.094,0.085,0.028,-0.113,0.09,0.11,0.086,0.039,0.019,0.0
-0.04,-0.13,-0.09,0.085,0.025,-0.11,0.09,0.11,0.087,0.033,0.022,0.0
-0.047,-0.13,-0.082,0.089,0.017,-0.106,0.088,0.11,0.09,0.031,0.026,0.0
-0.045,-0.127,-0.082,0.086,0.019,-0.104,0.084,0.114,0.089,0.035,0.024,0.001
-0.029,-0.124,-0.095,0.077,0.033,-0.109,0.086,0.115,0.093,0.038,0.029,0.005
-0.03,-0.122,-0.092,0.076,0.031,-0.107,0.081,0.115,0.095,0.046,0.03,0.007
-0.032,-0.117,-0.085,0.075,0.027,-0.101,0.08,0.116,0.095,0.051,0.03,0.011
-0.032,-0.116,-0.084,0.074,0.026,-0.1,0.081,0.115,0.09,0.049,0.035,0.013
-0.037,-0.113,-0.076,0.075,0.02,-0.094,0.074,0.116,0.09,0.051,0.037,0.016
-0.034,-0.11,-0.076,0.072,0.021,-0.092,0.077,0.114,0.09,0.049,0.041,0.014
-0.046,-0.111,-0.065,0.079,0.009,-0.088,0.073,0.116,0.088,0.05,0.043,0.016
-0.026,-0.091,-0.064,0.059,0.019,-0.077,0.087,0.115,0.097,0.054,0.052,0.032
-0.006,-0.051,-0.045,0.029,0.02,-0.048,0.099,0.115,0.11,0.058,0.065,0.044
-0.01,-0.035,-0.025,0.022,0.008,-0.03,0.102,0.119,0.124,0.077,0.071,0.057
0.001,-0.038,-0.039,0.019,0.021,-0.039,0.092,0.104,0.113,0.07,0.078,0.063
0.01,-0.028,-0.038,0.01,0.024,-0.033,0.044,0.103,0.117,0.068,0.076,0.062
0.02,-0.068,-0.087,0.024,0.054,-0.077,0.042,0.081,0.078,0.041,0.047,0.045
0.003,-0.094,-0.097,0.046,0.05,-0.095,0.048,0.085,0.084,0.043,0.05,0.045
-0.03,-0.123,-0.093,0.077,0.032,-0.108,0.073,0.068,0.047,0.009,0.032,0.029
-0.035,-0.133,-0.099,0.085,0.032,-0.116,0.068,0.064,0.057,0.01,0.03,0.024
-0.036,-0.124,-0.088,0.081,0.026,-0.105,0.07,0.06,0.064,0.007,0.022,0.015
-0.035,-0.143,-0.108,0.089,0.037,-0.125,0.056,0.031,0.029,-0.012,0.002,-0.006
-0.08,-0.137,-0.057,0.109,-0.012,-0.097,0.085,0.111,0.11,0.03,0.018,-0.002
-0.031,-0.095,-0.064,0.063,0.016,-0.079,0.193,0.428,0.251,0.098,0.058,0.012
0.234,0.27,0.036,-0.252,0.099,0.153,0.107,0.969,1.181,0.732,0.472,0.328
0.138,0.133,-0.005,-0.136,0.072,0.064,0.133,0.0,0.618,0.405,0.302,0.268
-0.194,-0.382,-0.187,0.288,-0.003,-0.284,-0.081,-1.392,-0.93,-0.548,-0.288,-0.159
-0.21,-0.364,-0.153,0.288,-0.029,-0.258,-0.396,-1.025,-0.658,-0.376,-0.232,-0.164
-0.125,-0.343,-0.218,0.235,0.047,-0.28,-0.186,-0.454,-0.327,-0.23,-0.167,-0.127
-0.063,-0.249,-0.186,0.156,0.061,-0.217,-0.036,-0.134,-0.112,-0.11,-0.085,-0.064
-0.048,-0.15,-0.103,0.099,0.028,-0.126,0.011,0.053,0.053,0.001,-0.005,-0.006
-0.052,-0.144,-0.092,0.098,0.021,-0.118,0.056,0.056,0.028,-0.015,-0.003,-0.003
-0.042,-0.114,-0.072,0.078,0.015,-0.093,0.051,0.103,0.1,0.026,0.022,0.02
-0.047,-0.133,-0.086,0.09,0.02,-0.109,0.066,0.086,0.058,0.0,0.009,0.009
-0.045,-0.118,-0.073,0.082,0.014,-0.095,0.06,0.115,0.097,0.023,0.025,0.023
-0.046,-0.122,-0.076,0.084,0.015,-0.099,0.068,0.113,0.084,0.014,0.02,0.02
-0.045,-0.12,-0.075,0.083,0.015,-0.097,0.063,0.123,0.098,0.022,0.026,0.027
-0.04,-0.115,-0.075,0.078,0.017,-0.094,0.066,0.132,0.104,0.019,0.03,0.029
-0.032,-0.108,-0.076,0.071,0.022,-0.092,0.065,0.145,0.105,0.032,0.038,0.033
-0.023,-0.098,-0.074,0.061,0.026,-0.085,0.062,0.169,0.119,0.042,0.041,0.038
-0.009,-0.085,-0.076,0.047,0.033,-0.08,0.053,0.176,0.132,0.054,0.049,0.04
0.009,-0.066,-0.075,0.029,0.042,-0.07,0.041,0.202,0.153,0.075,0.065,0.051
0.023,-0.05,-0.073,0.014,0.048,-0.061,0.035,0.215,0.171,0.088,0.088,0.073
0.035,-0.034,-0.069,-0.001,0.053,-0.051,0.004,0.221,0.194,0.114,0.112,0.094
0.061,-0.01,-0.071,-0.025,0.066,-0.04,-0.025,0.234,0.221,0.144,0.132,0.108
0.086,0.019,-0.066,-0.052,0.076,-0.023,-0.045,0.235,0.256,0.191,0.172,0.14
0.114,0.049,-0.065,-0.081,0.089,-0.008,-0.061,0.235,0.272,0.211,0.191,0.165
0.12,0.055,-0.065,-0.087,0.092,-0.005,-0.067,0.236,0.269,0.206,0.187,0.161
0.107,0.049,-0.059,-0.078,0.083,-0.005,-0.039,0.235,0.257,0.2,0.183,0.155
0.084,0.035,-0.049,-0.06,0.066,-0.007,0.019,0.236,0.244,0.18,0.162,0.135
0.043,-0.004,-0.047,-0.019,0.045,-0.025,0.061,0.223,0.212,0.141,0.12,0.098
0.015,-0.036,-0.051,0.01,0.034,-0.043,0.086,0.191,0.165,0.094,0.079,0.063
-0.019,-0.068,-0.049,0.044,0.015,-0.058,0.085,0.15,0.125,0.059,0.054,0.039
-0.046,-0.098,-0.052,0.072,0.003,-0.074,0.08,0.117,0.094,0.041,0.046,0.032
-0.062,-0.1,-0.038,0.081,-0.012,-0.069,0.079,0.1,0.075,0.029,0.038,0.026
-0.062,-0.102,-0.04,0.082,-0.01,-0.071,0.072,0.095,0.065,0.019,0.028,0.018
-0.035,-0.106,-0.071,0.071,0.019,-0.088,0.071,0.093,0.057,0.013,0.025,0.01
-0.031,-0.103,-0.073,0.067,0.021,-0.088,0.066,0.089,0.047,0.006,0.025,0.006
-0.037,-0.1,-0.063,0.069,0.013,-0.081,0.065,0.087,0.041,-0.001,0.023,0.01
-0.042,-0.1,-0.058,0.071,0.008,-0.079,0.065,0.085,0.045,-0.008,0.019,0.013
-0.048,-0.098,-0.05,0.073,0.002,-0.073,0.066,0.085,0.048,-0.008,0.02,0.017
-0.05,-0.094,-0.045,0.072,-0.002,-0.069,0.082,0.097,0.052,-0.004,0.035,0.02
-0.036,-0.095,-0.059,0.066,0.012,-0.077,0.082,0.1,0.055,-0.002,0.042,0.016
-0.025,-0.091,-0.066,0.059,0.02,-0.078,0.076,0.094,0.051,0.001,0.035,0.015
-0.031,-0.09,-0.058,0.061,0.013,-0.074,0.071,0.092,0.049,0.004,0.035,0.015
-0.032,-0.09,-0.058,0.061,0.013,-0.074,0.064,0.087,0.051,0.006,0.03,0.015
-0.034,-0.085,-0.051,0.06,0.009,-0.068,0.061,0.085,0.05,0.009,0.03,0.015
-0.035,-0.085,-0.051,0.06,0.009,-0.068,0.055,0.08,0.05,0.01,0.03,0.016
-0.03,-0.084,-0.054,0.058,0.012,-0.069,0.055,0.081,0.051,0.011,0.03,0.024
-0.027,-0.087,-0.06,0.057,0.017,-0.073,0.048,0.078,0.054,0.015,0.029,0.032
-0.013,-0.066,-0.053,0.039,0.02,-0.059,0.058,0.077,0.062,0.016,0.035,0.041
0.001,-0.016,-0.017,0.008,0.009,-0.017,0.081,0.072,0.061,0.015,0.056,0.047
-0.012,-0.003,0.009,0.007,-0.01,0.003,0.079,0.082,0.08,0.032,0.065,0.056
-0.005,0.004,0.009,0.0,-0.007,0.006,0.081,0.087,0.065,0.032,0.064,0.058
0.035,0.031,-0.004,-0.032,0.019,0.013,0.062,0.086,0.067,0.053,0.085,0.069
0.033,-0.031,-0.065,-0.001,0.049,-0.048,0.05,0.07,0.054,0.024,0.059,0.057
0.02,-0.073,-0.093,0.027,0.057,-0.083,0.037,0.052,0.045,-0.009,0.032,0.042
0.008,-0.067,-0.075,0.03,0.042,-0.071,0.042,0.031,0.037,-0.018,0.03,0.032
-0.03,-0.109,-0.078,0.07,0.024,-0.093,0.04,0.01,-0.008,-0.048,0.008,0.005
-0.049,-0.111,-0.061,0.08,0.007,-0.086,0.037,0.027,0.039,-0.015,0.021,0.007
-0.063,-0.143,-0.08,0.103,0.009,-0.111,0.047,-0.014,-0.03,-0.049,-0.02,-0.02
-0.043,-0.104,-0.06,0.074,0.009,-0.082,0.031,0.055,0.061,0.021,0.009,0.015
-0.014,-0.113,-0.099,0.064,0.043,-0.106,0.162,0.225,0.074,-0.013,-0.002,0.005
0.182,0.16,-0.021,-0.171,0.101,0.069,0.136,0.83,0.818,0.474,0.329,0.224
0.249,0.328,0.079,-0.288,0.085,0.203,0.112,0.511,1.066,0.678,0.492,0.382
-0.101,-0.224,-0.123,0.163,0.011,-0.174,0.03,-1.133,-0.595,-0.362,-0.152,-0.04
-0.239,-0.387,-0.148,0.313,-0.045,-0.267,-0.372,-1.291,-0.899,-0.536,-0.3,-0.189
-0.137,-0.301,-0.164,0.219,0.014,-0.232,-0.305,-0.601,-0.403,-0.267,-0.166,-0.122
-0.066,-0.263,-0.197,0.165,0.065,-0.23,-0.078,-0.27,-0.258,-0.211,-0.127,-0.102
-0.031,-0.134,-0.103,0.083,0.036,-0.118,-0.033,-0.012,0.011,-0.044,-0.008,-0.015
-0.037,-0.123,-0.086,0.08,0.025,-0.104,0.029,0.008,-0.026,-0.057,-0.012,-0.005
-0.026,-0.089,-0.063,0.058,0.019,-0.076,0.024,0.063,0.044,-0.01,0.02,0.011
-0.032,-0.096,-0.064,0.064,0.016,-0.08,0.034,0.063,0.034,-0.027,0.011,0.007
-0.029,-0.087,-0.058,0.058,0.015,-0.072,0.028,0.071,0.04,-0.017,0.02,0.012
-0.03,-0.08,-0.05,0.055,0.01,-0.065,0.03,0.083,0.051,-0.011,0.026,0.017
-0.031,-0.079,-0.048,0.055,0.009,-0.063,0.031,0.083,0.039,-0.015,0.025,0.019
-0.009,-0.067,-0.058,0.039,0.025,-0.063,0.029,0.1,0.062,0.0,0.036,0.027
0.004,-0.063,-0.066,0.029,0.035,-0.064,0.027,0.105,0.058,0.001,0.033,0.028
0.007,-0.048,-0.055,0.021,0.031,-0.051,0.015,0.123,0.078,0.018,0.047,0.036
0.014,-0.041,-0.055,0.014,0.035,-0.048,0.01,0.145,0.088,0.023,0.056,0.045
0.019,-0.029,-0.048,0.005,0.034,-0.039,0.0,0.165,0.11,0.036,0.07,0.054
0.026,-0.018,-0.044,-0.003,0.035,-0.031,-0.005,0.175,0.126,0.053,0.087,0.069
0.058,0.003,-0.055,-0.03,0.057,-0.026,-0.022,0.186,0.15,0.08,0.111,0.086
0.102,0.041,-0.061,-0.071,0.081,-0.01,-0.043,0.189,0.177,0.114,0.14,0.112
0.119,0.064,-0.055,-0.091,0.086,0.004,-0.061,0.19,0.195,0.143,0.162,0.136
0.131,0.078,-0.053,-0.104,0.092,0.012,-0.074,0.19,0.216,0.176,0.19,0.163
0.151,0.102,-0.049,-0.126,0.099,0.026,-0.081,0.191,0.228,0.192,0.209,0.184
0.16,0.114,-0.046,-0.136,0.103,0.034,-0.076,0.19,0.224,0.179,0.203,0.174
0.137,0.095,-0.042,-0.116,0.089,0.026,-0.039,0.188,0.198,0.169,0.188,0.153
0.104,0.064,-0.04,-0.084,0.072,0.012,0.007,0.185,0.159,0.134,0.157,0.126
0.075,0.035,-0.04,-0.055,0.057,-0.003,0.042,0.164,0.125,0.084,0.113,0.091
0.031,-0.006,-0.037,-0.012,0.034,-0.021,0.052,0.126,0.095,0.051,0.074,0.063
0.006,-0.028,-0.034,0.012,0.02,-0.031,0.049,0.077,0.072,0.031,0.059,0.049
-0.001,-0.038,-0.036,0.02,0.018,-0.037,0.051,0.052,0.054,0.023,0.048,0.037
-0.005,-0.045,-0.04,0.025,0.018,-0.042,0.05,0.048,0.031,0.012,0.04,0.03
-0.006,-0.046,-0.04,0.026,0.018,-0.042,0.05,0.04,0.02,0.003,0.039,0.029
-0.007,-0.047,-0.04,0.027,0.017,-0.043,0.046,0.035,0.018,-0.002,0.035,0.025
-0.005,-0.045,-0.04,0.025,0.018,-0.042,0.044,0.026,0.015,-0.005,0.033,0.023
-0.005,-0.045,-0.04,0.025,0.018,-0.042,0.045,0.028,0.012,-0.008,0.029,0.019
-0.001,-0.041,-0.04,0.021,0.02,-0.041,0.045,0.033,0.01,-0.013,0.033,0.023
0.0,-0.04,-0.04,0.02,0.02,-0.04,0.046,0.046,0.012,-0.016,0.035,0.025
0.001,-0.04,-0.04,0.02,0.02,-0.04,0.043,0.055,0.017,-0.019,0.035,0.025
0.004,-0.036,-0.04,0.016,0.022,-0.037,0.04,0.047,0.019,-0.02,0.035,0.025
0.007,-0.033,-0.04,0.013,0.024,-0.036,0.038,0.043,0.016,-0.02,0.035,0.025
0.009,-0.031,-0.04,0.011,0.024,-0.035,0.035,0.036,0.011,-0.021,0.034,0.025
0.01,-0.027,-0.037,0.009,0.024,-0.032,0.032,0.031,0.009,-0.019,0.031,0.025
0.009,-0.025,-0.034,0.009,0.022,-0.029,0.029,0.026,0.004,-0.023,0.028,0.025
0.006,-0.025,-0.031,0.009,0.019,-0.028,0.027,0.019,0.0,-0.026,0.025,0.024
0.003,-0.025,-0.028,0.011,0.016,-0.026,0.024,0.013,-0.002,-0.024,0.022,0.028
0.0,-0.025,-0.025,0.013,0.013,-0.026,0.022,0.006,-0.01,-0.029,0.02,0.03
0.0,-0.024,-0.024,0.012,0.012,-0.024,0.018,-0.001,-0.014,-0.03,0.022,0.03
-0.013,-0.028,-0.015,0.02,0.002,-0.021,0.015,-0.004,-0.01,-0.03,0.026,0.034
-0.031,-0.036,-0.005,0.033,-0.012,-0.02,0.016,0.004,-0.003,-0.023,0.025,0.035
-0.023,-0.017,0.006,0.02,-0.014,-0.005,0.025,0.013,0.006,-0.014,0.025,0.035
0.013,0.028,0.015,-0.021,-0.001,0.021,0.042,0.018,0.008,-0.009,0.037,0.045
0.011,0.042,0.031,-0.027,-0.01,0.037,0.046,0.03,0.022,0.005,0.049,0.047
0.017,0.052,0.035,-0.035,-0.01,0.043,0.036,0.032,0.015,0.003,0.046,0.047
0.056,0.083,0.027,-0.07,0.014,0.055,0.021,0.038,0.03,0.033,0.054,0.077
0.039,0.031,-0.008,-0.035,0.023,0.012,0.015,0.007,-0.008,0.005,0.032,0.057
0.048,-0.002,-0.05,-0.023,0.049,-0.026,0.001,-0.002,-0.015,-0.014,0.028,0.032
0.032,-0.023,-0.055,-0.004,0.044,-0.039,0.01,-0.018,-0.025,-0.036,0.015,0.017
-0.008,-0.058,-0.05,0.033,0.022,-0.054,0.0,-0.039,-0.048,-0.056,0.003,-0.004
-0.005,-0.044,-0.04,0.025,0.018,-0.042,0.008,-0.031,-0.017,-0.038,0.009,0.0
-0.023,-0.072,-0.048,0.048,0.013,-0.06,0.003,-0.056,-0.068,-0.071,-0.026,-0.026
-0.018,-0.04,-0.022,0.029,0.003,-0.031,0.017,0.015,0.022,0.004,0.011,0.0
0.002,-0.043,-0.045,0.021,0.024,-0.044,0.143,0.247,0.073,0.004,0.002,-0.013
0.239,0.297,0.058,-0.268,0.09,0.178,0.076,0.859,0.916,0.574,0.397,0.282
0.221,0.369,0.148,-0.295,0.036,0.258,0.088,0.202,0.811,0.56,0.44,0.376
-0.178,-0.224,-0.047,0.201,-0.065,-0.135,-0.069,-1.34,-0.804,-0.477,-0.23,-0.104
-0.193,-0.321,-0.128,0.257,-0.033,-0.224,-0.415,-1.187,-0.817,-0.495,-0.288,-0.189
-0.109,-0.247,-0.138,0.179,0.015,-0.193,-0.269,-0.562,-0.416,-0.278,-0.179,-0.133
-0.065,-0.183,-0.118,0.124,0.026,-0.15,-0.101,-0.246,-0.252,-0.189,-0.125,-0.092
0.0,-0.056,-0.056,0.028,0.028,-0.056,-0.036,-0.025,-0.026,-0.045,-0.02,-0.003
-0.01,-0.049,-0.039,0.03,0.015,-0.044,0.018,-0.022,-0.077,-0.076,-0.02,-0.017
0.003,-0.019,-0.022,0.009,0.012,-0.02,0.003,0.032,-0.016,-0.043,0.013,0.004
-0.012,-0.033,-0.022,0.023,0.005,-0.027,0.015,0.019,-0.04,-0.061,-0.002,-0.002
-0.01,-0.021,-0.011,0.015,0.001,-0.016,0.001,0.039,-0.013,-0.039,0.012,0.008
-0.015,-0.021,-0.006,0.019,-0.005,-0.013,0.007,0.049,-0.013,-0.039,0.012,0.011
-0.021,-0.021,0.0,0.021,-0.01,-0.01,0.003,0.056,-0.009,-0.034,0.015,0.014
0.01,-0.011,-0.021,0.0,0.016,-0.016,0.0,0.07,0.006,-0.026,0.021,0.022
0.028,-0.006,-0.033,-0.011,0.031,-0.019,0.001,0.078,0.003,-0.027,0.018,0.023
0.029,0.006,-0.023,-0.017,0.026,-0.008,-0.003,0.092,0.017,-0.017,0.021,0.03
0.035,0.013,-0.022,-0.024,0.028,-0.005,-0.007,0.096,0.023,-0.006,0.023,0.033
0.047,0.032,-0.015,-0.039,0.031,0.008,-0.012,0.118,0.038,0.022,0.028,0.037
0.058,0.046,-0.012,-0.052,0.035,0.016,-0.014,0.135,0.062,0.042,0.048,0.049
0.067,0.061,-0.006,-0.064,0.036,0.027,-0.037,0.145,0.092,0.061,0.07,0.064
0.087,0.092,0.006,-0.09,0.04,0.049,-0.059,0.15,0.107,0.091,0.095,0.085
0.111,0.117,0.006,-0.114,0.052,0.061,-0.086,0.149,0.125,0.119,0.124,0.12
0.153,0.143,-0.009,-0.148,0.081,0.067,-0.114,0.151,0.141,0.149,0.149,0.144
0.18,0.167,-0.013,-0.173,0.096,0.077,-0.111,0.15,0.147,0.167,0.165,0.154
0.168,0.166,-0.002,-0.167,0.085,0.082,-0.099,0.151,0.138,0.161,0.159,0.157
0.152,0.152,0.0,-0.152,0.076,0.076,-0.063,0.148,0.127,0.152,0.147,0.147
0.097,0.122,0.025,-0.11,0.036,0.073,-0.016,0.142,0.104,0.114,0.113,0.111
0.035,0.079,0.044,-0.057,-0.005,0.062,0.016,0.12,0.068,0.065,0.069,0.064
0.012,0.044,0.032,-0.028,-0.011,0.038,0.032,0.08,0.036,0.027,0.034,0.029
0.002,0.027,0.025,-0.015,-0.011,0.026,0.028,0.043,0.007,0.002,0.014,0.011
0.003,0.019,0.016,-0.012,-0.006,0.017,0.025,0.02,-0.025,-0.01,0.0,-0.002
0.008,0.013,0.005,-0.011,0.001,0.009,0.022,0.015,-0.043,-0.024,-0.012,-0.011
-0.006,0.009,0.015,-0.002,-0.01,0.012,0.017,0.01,-0.038,-0.035,-0.016,-0.015
-0.024,0.003,0.027,0.01,-0.026,0.014,0.016,0.004,-0.043,-0.035,-0.022,-0.02
-0.024,-0.003,0.021,0.014,-0.023,0.009,0.019,-0.002,-0.046,-0.034,-0.027,-0.023
-0.021,-0.003,0.018,0.012,-0.019,0.007,0.02,-0.004,-0.045,-0.036,-0.033,-0.029
-0.015,0.001,0.016,0.007,-0.016,0.008,0.02,0.0,-0.045,-0.034,-0.033,-0.028
-0.005,0.003,0.008,0.001,-0.006,0.005,0.02,-0.001,-0.04,-0.04,-0.029,-0.024
-0.016,0.006,0.022,0.005,-0.019,0.013,0.02,0.002,-0.04,-0.05,-0.03,-0.026
-0.027,0.009,0.037,0.009,-0.032,0.023,0.02,0.005,-0.041,-0.05,-0.03,-0.021
-0.019,0.01,0.029,0.004,-0.024,0.02,0.02,0.005,-0.046,-0.05,-0.03,-0.02
-0.016,0.01,0.025,0.003,-0.021,0.017,0.02,0.0,-0.049,-0.05,-0.031,-0.02
-0.011,0.01,0.022,0.001,-0.016,0.016,0.02,-0.008,-0.054,-0.05,-0.034,-0.02
-0.006,0.01,0.016,-0.002,-0.011,0.013,0.02,-0.014,-0.059,-0.051,-0.037,-0.02
-0.003,0.01,0.013,-0.004,-0.008,0.011,0.02,-0.022,-0.062,-0.054,-0.039,-0.02
0.001,0.01,0.01,-0.005,-0.004,0.01,0.015,-0.029,-0.067,-0.055,-0.043,-0.02
0.001,0.007,0.007,-0.004,-0.003,0.007,0.015,-0.036,-0.069,-0.055,-0.045,-0.02
0.001,0.005,0.004,-0.003,-0.002,0.004,0.014,-0.043,-0.073,-0.055,-0.048,-0.022
0.004,0.005,0.001,-0.005,0.001,0.002,0.01,-0.049,-0.075,-0.055,-0.05,-0.026
0.005,0.005,0.0,-0.005,0.002,0.002,0.01,-0.05,-0.079,-0.057,-0.05,-0.025
-0.002,0.005,0.007,-0.002,-0.005,0.006,0.012,-0.049,-0.08,-0.064,-0.053,-0.025
-0.009,0.005,0.014,0.002,-0.012,0.009,0.016,-0.05,-0.08,-0.07,-0.056,-0.025
-0.021,0.0,0.021,0.01,-0.021,0.011,0.014,-0.049,-0.093,-0.064,-0.054,-0.026
-0.028,-0.001,0.027,0.014,-0.028,0.013,0.02,-0.05,-0.097,-0.061,-0.049,-0.03
-0.038,-0.006,0.032,0.022,-0.035,0.012,0.019,-0.051,-0.084,-0.057,-0.04,-0.022
-0.03,0.004,0.034,0.013,-0.032,0.019,0.021,-0.042,-0.074,-0.05,-0.031,-0.014
0.0,0.05,0.05,-0.025,-0.025,0.05,0.026,-0.03,-0.066,-0.05,-0.026,-0.007
0.005,0.072,0.067,-0.039,-0.031,0.069,0.028,-0.012,-0.042,-0.041,-0.014,0.002
0.037,0.087,0.051,-0.062,-0.007,0.069,0.043,-0.014,-0.046,-0.046,-0.009,0.015
0.059,0.097,0.038,-0.078,0.01,0.068,0.009,-0.005,-0.029,-0.034,0.013,0.037
0.006,0.036,0.029,-0.021,-0.012,0.032,-0.012,-0.025,-0.066,-0.046,-0.014,0.004
0.001,0.021,0.021,-0.011,-0.01,0.021,-0.018,-0.043,-0.074,-0.038,-0.032,-0.015
-0.023,-0.003,0.019,0.013,-0.021,0.008,-0.011,-0.074,-0.084,-0.058,-0.049,-0.03
-0.037,-0.033,0.004,0.035,-0.02,-0.014,-0.018,-0.08,-0.097,-0.068,-0.072,-0.041
-0.031,-0.021,0.01,0.025,-0.02,-0.005,-0.013,-0.072,-0.08,-0.052,-0.07,-0.026
-0.031,-0.039,-0.008,0.035,-0.011,-0.024,-0.013,-0.098,-0.125,-0.072,-0.087,-0.049
-0.011,0.002,0.013,0.004,-0.012,0.008,0.007,-0.014,-0.027,-0.019,-0.054,-0.025
-0.035,-0.002,0.033,0.018,-0.034,0.015,0.128,0.229,0.049,-0.012,-0.043,-0.037
0.246,0.346,0.1,-0.297,0.073,0.223,0.031,0.814,0.846,0.567,0.353,0.268
0.219,0.381,0.162,-0.3,0.028,0.271,0.044,0.094,0.644,0.478,0.337,0.324
-0.211,-0.202,0.009,0.206,-0.11,-0.096,-0.099,-1.367,-0.845,-0.511,-0.304,-0.164
-0.205,-0.289,-0.084,0.247,-0.06,-0.186,-0.435,-1.159,-0.811,-0.489,-0.346,-0.231
-0.107,-0.221,-0.115,0.164,0.004,-0.168,-0.272,-0.578,-0.45,-0.289,-0.24,-0.176
-0.053,-0.143,-0.089,0.098,0.018,-0.116,-0.108,-0.262,-0.268,-0.193,-0.169,-0.134
-0.025,-0.047,-0.022,0.036,-0.002,-0.034,-0.041,-0.067,-0.065,-0.073,-0.083,-0.055
-0.017,-0.044,-0.027,0.031,0.005,-0.035,-0.008,-0.066,-0.11,-0.086,-0.078,-0.05
0.003,-0.012,-0.015,0.005,0.009,-0.013,-0.027,-0.014,-0.055,-0.042,-0.047,-0.026
-0.014,-0.027,-0.013,0.021,0.0,-0.02,-0.006,-0.032,-0.079,-0.066,-0.06,-0.041
-0.006,-0.012,-0.006,0.01,0.0,-0.009,-0.017,-0.007,-0.052,-0.045,-0.044,-0.028
-0.013,-0.014,-0.001,0.014,-0.006,-0.007,-0.003,-0.007,-0.054,-0.05,-0.046,-0.031
-0.013,-0.01,0.004,0.011,-0.008,-0.003,-0.005,0.004,-0.047,-0.045,-0.039,-0.03
-0.019,-0.002,0.017,0.01,-0.018,0.007,0.001,0.014,-0.036,-0.036,-0.034,-0.023
-0.015,0.004,0.019,0.006,-0.018,0.011,0.005,0.019,-0.037,-0.033,-0.029,-0.019
-0.006,0.014,0.021,-0.004,-0.014,0.017,0.002,0.038,-0.022,-0.022,-0.019,-0.009
0.001,0.02,0.02,-0.01,-0.01,0.02,-0.005,0.05,-0.014,-0.018,-0.016,-0.005
0.006,0.026,0.02,-0.016,-0.007,0.023,-0.013,0.072,0.003,-0.002,-0.005,0.004
0.024,0.045,0.02,-0.034,0.002,0.032,-0.018,0.084,0.017,0.017,0.008,0.012
0.051,0.068,0.016,-0.06,0.017,0.042,-0.043,0.093,0.034,0.037,0.021,0.024
0.068,0.083,0.015,-0.076,0.026,0.049,-0.063,0.092,0.067,0.072,0.043,0.05
0.104,0.119,0.015,-0.112,0.044,0.067,-0.087,0.088,0.097,0.113,0.075,0.08
0.13,0.146,0.016,-0.138,0.057,0.08,-0.109,0.087,0.102,0.138,0.102,0.108
0.15,0.164,0.014,-0.158,0.068,0.089,-0.101,0.083,0.113,0.153,0.121,0.128
0.146,0.164,0.018,-0.155,0.063,0.091,-0.089,0.081,0.108,0.142,0.12,0.13
0.113,0.147,0.034,-0.131,0.039,0.091,-0.071,0.078,0.098,0.128,0.102,0.112
0.089,0.126,0.036,-0.108,0.026,0.081,-0.02,0.069,0.084,0.104,0.066,0.077
0.05,0.081,0.032,-0.066,0.009,0.056,0.016,0.056,0.044,0.069,0.027,0.044
0.013,0.043,0.03,-0.028,-0.009,0.036,0.021,0.046,0.012,0.036,-0.001,0.016
-0.007,0.019,0.026,-0.007,-0.017,0.023,0.02,0.028,-0.007,0.006,-0.02,-0.016
-0.015,0.01,0.025,0.002,-0.02,0.017,0.016,-0.001,-0.027,-0.017,-0.033,-0.03
-0.022,0.007,0.029,0.007,-0.025,0.017,0.014,-0.016,-0.047,-0.031,-0.044,-0.03
-0.03,0.0,0.03,0.015,-0.03,0.015,0.01,-0.024,-0.055,-0.031,-0.051,-0.029
-0.035,-0.005,0.03,0.02,-0.032,0.012,0.011,-0.036,-0.058,-0.03,-0.055,-0.036
-0.04,-0.01,0.03,0.025,-0.035,0.01,0.015,-0.037,-0.061,-0.03,-0.057,-0.041
-0.04,-0.01,0.03,0.025,-0.035,0.01,0.017,-0.031,-0.056,-0.03,-0.06,-0.04
-0.038,-0.01,0.028,0.024,-0.033,0.009,0.02,-0.026,-0.054,-0.03,-0.056,-0.038
-0.035,-0.01,0.025,0.022,-0.03,0.007,0.023,-0.023,-0.05,-0.032,-0.054,-0.035
-0.032,-0.01,0.023,0.021,-0.027,0.006,0.026,-0.017,-0.045,-0.036,-0.056,-0.035
-0.03,-0.01,0.019,0.02,-0.025,0.005,0.021,-0.015,-0.047,-0.035,-0.054,-0.035
-0.027,-0.01,0.017,0.018,-0.022,0.003,0.02,-0.015,-0.05,-0.039,-0.056,-0.035
-0.023,-0.01,0.013,0.016,-0.018,0.001,0.02,-0.015,-0.053,-0.04,-0.053,-0.035
-0.033,-0.01,0.023,0.021,-0.028,0.006,0.02,-0.015,-0.056,-0.04,-0.05,-0.035
-0.042,-0.01,0.032,0.026,-0.037,0.011,0.021,-0.015,-0.059,-0.045,-0.05,-0.035
-0.039,-0.01,0.029,0.025,-0.034,0.01,0.019,-0.015,-0.06,-0.045,-0.05,-0.035
-0.041,-0.011,0.03,0.025,-0.035,0.01,0.015,-0.021,-0.067,-0.046,-0.05,-0.035
-0.039,-0.014,0.025,0.027,-0.032,0.005,0.015,-0.034,-0.078,-0.05,-0.05,-0.035
-0.041,-0.015,0.025,0.027,-0.032,0.005,0.013,-0.045,-0.08,-0.05,-0.054,-0.035
-0.039,-0.015,0.024,0.026,-0.031,0.005,0.009,-0.051,-0.08,-0.053,-0.055,-0.035
-0.035,-0.016,0.019,0.025,-0.026,0.001,0.01,-0.055,-0.081,-0.056,-0.055,-0.035
-0.031,-0.015,0.016,0.022,-0.023,0.001,0.01,-0.059,-0.085,-0.058,-0.055,-0.035
-0.025,-0.013,0.012,0.019,-0.018,0.0,0.01,-0.06,-0.085,-0.06,-0.055,-0.035
-0.019,-0.009,0.009,0.014,-0.014,0.0,0.01,-0.064,-0.083,-0.065,-0.063,-0.035
-0.013,-0.01,0.003,0.011,-0.008,-0.003,0.01,-0.066,-0.076,-0.065,-0.061,-0.034
-0.031,-0.01,0.021,0.02,-0.026,0.005,0.01,-0.07,-0.073,-0.058,-0.054,-0.036
-0.054,-0.009,0.045,0.031,-0.049,0.017,0.011,-0.069,-0.069,-0.049,-0.047,-0.033
-0.052,-0.001,0.051,0.026,-0.052,0.025,0.02,-0.059,-0.062,-0.039,-0.04,-0.025
-0.022,0.034,0.056,-0.007,-0.039,0.045,0.029,-0.052,-0.063,-0.036,-0.035,-0.015
-0.01,0.05,0.061,-0.02,-0.035,0.055,0.036,-0.031,-0.045,-0.031,-0.026,-0.004
-0.001,0.071,0.071,-0.035,-0.036,0.071,0.034,-0.017,-0.047,-0.035,-0.025,0.006
0.033,0.092,0.06,-0.063,-0.014,0.075,-0.005,-0.004,-0.03,-0.015,-0.007,0.028
0.04,0.035,-0.006,-0.037,0.023,0.014,-0.022,-0.028,-0.063,-0.032,-0.028,0.001
0.036,0.014,-0.023,-0.025,0.029,-0.004,-0.025,-0.055,-0.066,-0.044,-0.051,-0.026
-0.025,-0.015,0.009,0.02,-0.017,-0.003,-0.01,-0.081,-0.089,-0.069,-0.075,-0.049
-0.052,-0.031,0.021,0.041,-0.036,-0.005,-0.016,-0.072,-0.098,-0.063,-0.07,-0.05
-0.059,-0.024,0.036,0.041,-0.047,0.006,-0.004,-0.063,-0.083,-0.061,-0.067,-0.047
-0.048,-0.032,0.016,0.04,-0.032,-0.008,0.003,-0.081,-0.103,-0.079,-0.079,-0.057
-0.024,0.001,0.025,0.011,-0.024,0.013,0.031,-0.012,-0.034,-0.037,-0.051,-0.04
-0.035,0.012,0.048,0.011,-0.042,0.03,0.131,0.259,0.091,0.021,-0.029,-0.035
0.243,0.369,0.127,-0.306,0.058,0.248,0.034,0.792,0.885,0.61,0.386,0.298
0.156,0.309,0.153,-0.233,0.002,0.231,0.073,-0.023,0.495,0.372,0.28,0.268
-0.269,-0.232,0.037,0.251,-0.153,-0.097,-0.087,-1.351,-0.849,-0.541,-0.343,-0.191
-0.22,-0.253,-0.033,0.237,-0.093,-0.143,-0.4,-1.067,-0.714,-0.435,-0.324,-0.205
-0.119,-0.206,-0.087,0.163,-0.016,-0.146,-0.238,-0.532,-0.431,-0.277,-0.232,-0.171
-0.065,-0.126,-0.061,0.096,-0.002,-0.093,-0.105,-0.237,-0.234,-0.173,-0.16,-0.12
-0.051,-0.034,0.017,0.043,-0.034,-0.008,-0.033,-0.06,-0.06,-0.072,-0.084,-0.055
-0.072,-0.031,0.042,0.051,-0.057,0.005,-0.002,-0.068,-0.094,-0.084,-0.08,-0.059
-0.046,-0.004,0.042,0.025,-0.043,0.019,-0.013,-0.02,-0.045,-0.046,-0.051,-0.033
-0.056,-0.017,0.039,0.037,-0.048,0.011,0.003,-0.026,-0.077,-0.069,-0.062,-0.04
-0.043,-0.003,0.04,0.022,-0.041,0.019,-0.011,-0.003,-0.051,-0.045,-0.043,-0.024
-0.039,-0.004,0.035,0.021,-0.037,0.015,-0.001,-0.002,-0.06,-0.053,-0.043,-0.022
-0.034,0.001,0.035,0.016,-0.034,0.017,-0.008,0.009,-0.044,-0.039,-0.034,-0.015
-0.029,0.007,0.036,0.011,-0.033,0.022,-0.007,0.019,-0.033,-0.031,-0.029,-0.009
-0.032,0.018,0.049,0.007,-0.041,0.033,-0.016,0.025,-0.028,-0.025,-0.024,-0.005
-0.034,0.022,0.056,0.005,-0.045,0.039,-0.02,0.04,-0.012,-0.011,-0.017,0.002
-0.015,0.039,0.054,-0.013,-0.035,0.046,-0.026,0.044,-0.008,-0.004,-0.013,0.006
0.001,0.057,0.056,-0.029,-0.028,0.056,-0.032,0.058,0.013,0.013,-0.006,0.013
0.007,0.061,0.054,-0.034,-0.024,0.057,-0.036,0.072,0.032,0.021,0.006,0.018
0.019,0.074,0.056,-0.047,-0.019,0.064,-0.061,0.069,0.044,0.041,0.028,0.032
0.04,0.098,0.058,-0.069,-0.009,0.077,-0.081,0.06,0.067,0.075,0.055,0.06
0.072,0.133,0.062,-0.103,0.005,0.097,-0.104,0.054,0.088,0.108,0.088,0.093
0.098,0.161,0.063,-0.13,0.017,0.112,-0.124,0.044,0.098,0.136,0.113,0.118
0.111,0.179,0.067,-0.145,0.022,0.123,-0.118,0.044,0.103,0.149,0.127,0.126
0.106,0.176,0.069,-0.141,0.018,0.122,-0.106,0.061,0.092,0.138,0.12,0.128
0.097,0.167,0.07,-0.132,0.013,0.118,-0.086,0.078,0.083,0.123,0.111,0.115
0.06,0.147,0.087,-0.103,-0.014,0.117,-0.037,0.077,0.072,0.1,0.086,0.075
0.026,0.117,0.091,-0.071,-0.033,0.104,-0.007,0.069,0.054,0.053,0.04,0.036
0.009,0.093,0.085,-0.051,-0.038,0.088,0.005,0.053,0.029,0.022,0.006,0.009
-0.031,0.054,0.084,-0.012,-0.057,0.069,0.016,0.016,-0.004,0.008,-0.015,0.001
-0.054,0.026,0.079,0.014,-0.067,0.052,0.015,-0.003,-0.027,-0.009,-0.023,-0.004
-0.057,0.023,0.08,0.017,-0.069,0.051,0.015,-0.006,-0.034,-0.02,-0.031,-0.011
-0.062,0.019,0.08,0.021,-0.071,0.05,0.015,-0.015,-0.036,-0.033,-0.035,-0.014
-0.063,0.016,0.079,0.024,-0.072,0.047,0.015,-0.02,-0.04,-0.041,-0.037,-0.027
-0.071,0.011,0.081,0.03,-0.076,0.046,0.015,-0.028,-0.041,-0.048,-0.041,-0.032
-0.067,0.011,0.077,0.028,-0.072,0.044,0.01,-0.028,-0.036,-0.048,-0.036,-0.026
-0.067,0.018,0.085,0.025,-0.076,0.051,0.01,-0.024,-0.035,-0.044,-0.035,-0.024
-0.078,0.022,0.1,0.028,-0.089,0.061,0.01,-0.025,-0.03,-0.045,-0.035,-0.019
-0.073,0.028,0.1,0.023,-0.087,0.064,0.01,-0.021,-0.032,-0.041,-0.03,-0.016
-0.065,0.034,0.098,0.015,-0.082,0.066,0.011,-0.019,-0.045,-0.039,-0.03,-0.012
-0.056,0.039,0.095,0.008,-0.076,0.067,0.007,-0.021,-0.043,-0.041,-0.03,-0.01
-0.059,0.036,0.095,0.01,-0.077,0.066,0.005,-0.019,-0.038,-0.044,-0.03,-0.01
-0.058,0.035,0.093,0.012,-0.076,0.064,0.005,-0.023,-0.037,-0.045,-0.03,-0.007
-0.054,0.035,0.088,0.009,-0.071,0.061,0.002,-0.029,-0.03,-0.045,-0.03,-0.004
-0.054,0.03,0.085,0.011,-0.069,0.057,-0.001,-0.033,-0.032,-0.046,-0.03,-0.006
-0.053,0.03,0.082,0.011,-0.067,0.056,0.001,-0.04,-0.044,-0.044,-0.03,-0.009
-0.046,0.03,0.076,0.008,-0.061,0.053,0.005,-0.045,-0.052,-0.048,-0.034,-0.012
-0.047,0.03,0.077,0.008,-0.062,0.053,0.005,-0.048,-0.055,-0.05,-0.035,-0.014
-0.067,0.03,0.097,0.018,-0.082,0.063,0.006,-0.053,-0.06,-0.051,-0.035,-0.018
-0.071,0.03,0.101,0.021,-0.086,0.066,0.01,-0.062,-0.064,-0.056,-0.04,-0.02
-0.069,0.03,0.099,0.019,-0.084,0.065,0.01,-0.065,-0.064,-0.054,-0.04,-0.023
-0.071,0.03,0.101,0.021,-0.086,0.065,0.008,-0.064,-0.066,-0.051,-0.039,-0.024
-0.072,0.027,0.1,0.022,-0.086,0.063,0.004,-0.065,-0.068,-0.048,-0.032,-0.017
-0.079,0.021,0.101,0.029,-0.09,0.061,0.006,-0.065,-0.071,-0.046,-0.028,-0.013
-0.088,0.02,0.108,0.034,-0.098,0.064,0.005,-0.065,-0.068,-0.042,-0.022,-0.007
-0.079,0.034,0.113,0.022,-0.096,0.073,0.012,-0.062,-0.053,-0.04,-0.016,-0.005
-0.05,0.069,0.12,-0.01,-0.085,0.094,0.023,-0.053,-0.036,-0.041,-0.012,0.001
-0.041,0.091,0.132,-0.025,-0.087,0.111,0.027,-0.041,-0.022,-0.037,-0.002,0.006
-0.016,0.113,0.129,-0.048,-0.073,0.12,0.019,-0.042,-0.021,-0.04,0.01,0.023
0.005,0.128,0.123,-0.067,-0.06,0.126,0.005,-0.037,0.004,-0.027,0.026,0.045
-0.005,0.068,0.073,-0.031,-0.039,0.07,0.002,-0.044,-0.016,-0.037,-0.005,0.002
-0.008,0.045,0.053,-0.018,-0.031,0.049,-0.007,-0.044,-0.02,-0.028,-0.016,-0.009
-0.07,0.022,0.091,0.024,-0.081,0.057,0.008,-0.071,-0.07,-0.067,-0.039,-0.024
-0.083,0.026,0.109,0.028,-0.096,0.067,-0.003,-0.065,-0.057,-0.062,-0.044,-0.025
-0.092,0.017,0.11,0.038,-0.101,0.063,0.015,-0.059,-0.066,-0.073,-0.06,-0.036
-0.105,0.003,0.108,0.051,-0.107,0.055,0.003,-0.064,-0.075,-0.076,-0.056,-0.047
-0.084,0.044,0.128,0.019,-0.106,0.085,0.033,0.003,0.004,-0.045,-0.046,-0.032
-0.045,0.078,0.123,-0.016,-0.085,0.101,0.125,0.337,0.206,0.066,0.017,-0.004
0.208,0.417,0.209,-0.313,-0.001,0.313,0.035,0.741,0.963,0.642,0.421,0.311
0.039,0.259,0.22,-0.149,-0.091,0.239,0.105,-0.248,0.304,0.195,0.161,0.177
-0.339,-0.206,0.133,0.272,-0.236,-0.036,-0.076,-1.343,-0.868,-0.595,-0.359,-0.22
-0.259,-0.159,0.1,0.209,-0.179,-0.029,-0.385,-0.974,-0.593,-0.379,-0.264,-0.181
-0.174,-0.164,0.011,0.169,-0.092,-0.076,-0.218,-0.524,-0.403,-0.301,-0.222,-0.171
-0.108,-0.07,0.038,0.089,-0.073,-0.016,-0.1,-0.225,-0.181,-0.169,-0.133,-0.112
-0.068,0.028,0.096,0.02,-0.082,0.062,-0.041,-0.065,-0.037,-0.072,-0.07,-0.061
-0.082,0.023,0.105,0.029,-0.094,0.064,0.0,-0.057,-0.059,-0.091,-0.06,-0.059
-0.078,0.053,0.131,0.012,-0.105,0.092,-0.011,-0.021,-0.007,-0.054,-0.039,-0.042
-0.09,0.038,0.128,0.026,-0.11,0.083,0.001,-0.035,-0.039,-0.07,-0.052,-0.052
-0.081,0.05,0.131,0.015,-0.106,0.09,-0.005,-0.013,-0.006,-0.046,-0.034,-0.039
-0.078,0.048,0.126,0.014,-0.102,0.086,0.004,-0.016,-0.018,-0.056,-0.041,-0.043
-0.075,0.05,0.125,0.012,-0.1,0.087,-0.003,-0.004,-0.003,-0.045,-0.031,-0.037
-0.072,0.053,0.125,0.009,-0.099,0.089,-0.008,0.006,0.0,-0.044,-0.029,-0.033
-0.062,0.058,0.12,0.002,-0.091,0.089,-0.016,0.013,0.006,-0.041,-0.022,-0.027
-0.048,0.067,0.115,-0.01,-0.082,0.091,-0.024,0.029,0.016,-0.034,-0.015,-0.022
-0.04,0.07,0.11,-0.015,-0.075,0.09,-0.029,0.042,0.019,-0.026,-0.013,-0.016
-0.028,0.079,0.107,-0.025,-0.068,0.093,-0.039,0.06,0.038,-0.013,-0.003,-0.012
-0.01,0.09,0.1,-0.04,-0.055,0.094,-0.038,0.072,0.055,0.007,0.01,0.002
0.003,0.109,0.106,-0.056,-0.052,0.107,-0.045,0.071,0.078,0.03,0.036,0.031
0.02,0.141,0.121,-0.081,-0.051,0.131,-0.074,0.067,0.096,0.056,0.057,0.046
0.038,0.165,0.128,-0.101,-0.045,0.146,-0.1,0.065,0.108,0.084,0.072,0.06
0.065,0.195,0.13,-0.13,-0.033,0.162,-0.124,0.062,0.118,0.111,0.104,0.088
0.089,0.219,0.131,-0.154,-0.021,0.175,-0.126,0.06,0.118,0.128,0.122,0.097
0.087,0.216,0.129,-0.151,-0.021,0.172,-0.109,0.065,0.11,0.114,0.12,0.081
0.067,0.211,0.143,-0.139,-0.038,0.177,-0.081,0.082,0.105,0.098,0.099,0.068
0.017,0.186,0.17,-0.102,-0.076,0.178,-0.032,0.076,0.1,0.072,0.064,0.048
-0.021,0.149,0.17,-0.064,-0.096,0.159,0.015,0.063,0.081,0.029,0.035,0.019
-0.033,0.124,0.157,-0.046,-0.095,0.14,0.032,0.049,0.049,-0.006,0.012,-0.014
-0.05,0.102,0.151,-0.026,-0.101,0.126,0.03,0.01,0.015,-0.031,-0.003,-0.038
-0.056,0.084,0.14,-0.014,-0.098,0.112,0.03,-0.014,-0.003,-0.04,-0.019,-0.046
-0.056,0.077,0.133,-0.011,-0.095,0.105,0.026,-0.021,-0.009,-0.05,-0.037,-0.053
-0.08,0.072,0.153,0.004,-0.117,0.112,0.025,-0.034,-0.015,-0.058,-0.046,-0.055
-0.094,0.069,0.163,0.013,-0.129,0.116,0.025,-0.037,-0.022,-0.056,-0.042,-0.055
-0.091,0.064,0.155,0.014,-0.123,0.109,0.021,-0.033,-0.034,-0.055,-0.04,-0.055
-0.095,0.06,0.155,0.017,-0.125,0.107,0.018,-0.027,-0.031,-0.054,-0.04,-0.055
-0.085,0.066,0.151,0.01,-0.118,0.108,0.015,-0.024,-0.024,-0.051,-0.04,-0.055
-0.075,0.072,0.147,0.001,-0.111,0.109,0.012,-0.018,-0.019,-0.049,-0.04,-0.05
-0.084,0.078,0.162,0.003,-0.123,0.12,0.01,-0.015,-0.014,-0.052,-0.04,-0.05
-0.09,0.082,0.172,0.004,-0.131,0.127,0.008,-0.02,-0.011,-0.055,-0.04,-0.05
-0.078,0.087,0.165,-0.005,-0.122,0.126,0.005,-0.02,-0.007,-0.055,-0.039,-0.05
-0.075,0.089,0.164,-0.007,-0.12,0.126,0.005,-0.022,-0.004,-0.058,-0.044,-0.05
-0.075,0.086,0.161,-0.005,-0.118,0.123,0.005,-0.03,0.0,-0.061,-0.051,-0.052
-0.074,0.083,0.157,-0.005,-0.116,0.12,0.005,-0.035,-0.004,-0.064,-0.05,-0.058
-0.088,0.08,0.168,0.004,-0.128,0.124,0.005,-0.043,-0.011,-0.067,-0.05,-0.061
-0.098,0.078,0.176,0.01,-0.138,0.127,-0.001,-0.052,-0.015,-0.07,-0.05,-0.066
-0.095,0.073,0.168,0.011,-0.132,0.12,-0.011,-0.056,-0.021,-0.071,-0.053,-0.07
-0.084,0.084,0.168,0.0,-0.126,0.126,-0.012,-0.058,-0.026,-0.075,-0.06,-0.07
-0.072,0.09,0.162,-0.009,-0.117,0.125,-0.006,-0.063,-0.029,-0.079,-0.063,-0.07
-0.079,0.079,0.158,0.0,-0.119,0.119,0.001,-0.064,-0.023,-0.08,-0.065,-0.069
-0.097,0.076,0.173,0.01,-0.135,0.124,0.008,-0.06,-0.023,-0.087,-0.071,-0.071
-0.103,0.065,0.167,0.019,-0.135,0.116,0.014,-0.048,-0.015,-0.078,-0.066,-0.066
-0.097,0.087,0.184,0.004,-0.141,0.135,0.021,-0.044,-0.016,-0.074,-0.059,-0.06
-0.07,0.129,0.199,-0.03,-0.135,0.164,0.019,-0.032,-0.009,-0.064,-0.047,-0.051
-0.064,0.142,0.206,-0.039,-0.135,0.174,0.034,-0.028,-0.005,-0.062,-0.038,-0.047
-0.043,0.164,0.207,-0.061,-0.125,0.185,0.024,-0.022,0.003,-0.067,-0.04,-0.05
-0.016,0.176,0.192,-0.08,-0.104,0.184,0.008,-0.011,0.02,-0.063,-0.041,-0.05
-0.051,0.132,0.183,-0.041,-0.118,0.157,0.014,-0.056,-0.012,-0.079,-0.052,-0.058
-0.084,0.101,0.184,-0.009,-0.134,0.142,0.004,-0.059,-0.001,-0.061,-0.051,-0.052
-0.112,0.064,0.176,0.024,-0.144,0.119,0.018,-0.08,-0.054,-0.101,-0.083,-0.077
-0.11,0.066,0.176,0.022,-0.144,0.121,-0.001,-0.078,-0.023,-0.088,-0.075,-0.077
-0.13,0.042,0.171,0.044,-0.151,0.107,0.024,-0.096,-0.062,-0.123,-0.094,-0.088
-0.116,0.043,0.158,0.036,-0.137,0.1,0.007,-0.069,-0.021,-0.098,-0.081,-0.077
-0.121,0.051,0.172,0.035,-0.147,0.111,0.079,0.038,0.016,-0.096,-0.102,-0.106
-0.01,0.19,0.2,-0.09,-0.105,0.194,0.123,0.501,0.416,0.18,0.074,0.0
0.205,0.503,0.298,-0.354,-0.047,0.4,0.025,0.701,1.147,0.715,0.455,0.317
-0.092,0.16,0.251,-0.034,-0.172,0.205,0.094,-0.675,-0.049,-0.047,-0.001,0.046
-0.347,-0.188,0.158,0.267,-0.252,-0.015,-0.213,-1.45,-0.996,-0.631,-0.41,-0.269
-0.241,-0.106,0.136,0.174,-0.188,0.015,-0.402,-0.859,-0.516,-0.343,-0.266,-0.205
-0.16,-0.119,0.041,0.139,-0.1,-0.039,-0.166,-0.464,-0.371,-0.312,-0.247,-0.206
-0.099,-0.012,0.087,0.055,-0.093,0.037,-0.08,-0.161,-0.098,-0.138,-0.144,-0.139
-0.109,0.049,0.158,0.03,-0.134,0.103,0.0,-0.057,-0.029,-0.096,-0.104,-0.105
-0.095,0.061,0.156,0.017,-0.126,0.108,0.017,-0.026,-0.013,-0.095,-0.087,-0.086
-0.095,0.069,0.164,0.013,-0.13,0.116,0.019,-0.003,0.018,-0.072,-0.077,-0.081
-0.104,0.06,0.164,0.021,-0.134,0.112,0.022,-0.014,-0.006,-0.081,-0.084,-0.084
-0.11,0.069,0.179,0.02,-0.145,0.124,0.011,0.006,0.027,-0.058,-0.069,-0.074
-0.113,0.062,0.175,0.026,-0.144,0.118,0.019,0.001,0.01,-0.068,-0.075,-0.078
-0.1,0.067,0.167,0.016,-0.134,0.117,0.01,0.012,0.031,-0.051,-0.065,-0.07
-0.097,0.064,0.161,0.016,-0.13,0.112,0.012,0.022,0.033,-0.052,-0.063,-0.071
-0.076,0.078,0.154,-0.001,-0.115,0.116,0.009,0.053,0.046,-0.044,-0.053,-0.066
-0.065,0.084,0.149,-0.01,-0.107,0.116,0.006,0.059,0.052,-0.034,-0.048,-0.064
-0.06,0.083,0.143,-0.012,-0.102,0.113,-0.003,0.074,0.07,-0.021,-0.04,-0.06
-0.033,0.103,0.137,-0.035,-0.085,0.12,-0.009,0.094,0.086,-0.003,-0.036,-0.06
-0.019,0.114,0.133,-0.048,-0.076,0.123,-0.017,0.108,0.104,0.015,-0.011,-0.036
0.008,0.134,0.126,-0.071,-0.059,0.129,-0.03,0.132,0.137,0.044,0.023,-0.001
0.042,0.163,0.12,-0.103,-0.039,0.141,-0.055,0.135,0.163,0.072,0.04,0.016
0.041,0.186,0.145,-0.113,-0.053,0.165,-0.08,0.135,0.173,0.092,0.058,0.031
0.046,0.204,0.157,-0.126,-0.056,0.18,-0.094,0.136,0.187,0.119,0.087,0.049
0.062,0.216,0.155,-0.139,-0.047,0.185,-0.103,0.135,0.205,0.129,0.096,0.058
0.051,0.204,0.153,-0.128,-0.051,0.178,-0.068,0.136,0.195,0.117,0.095,0.055
0.019,0.185,0.166,-0.102,-0.074,0.175,-0.02,0.126,0.165,0.103,0.066,0.034
-0.019,0.172,0.191,-0.077,-0.105,0.181,0.014,0.114,0.124,0.066,0.034,-0.001
-0.069,0.115,0.184,-0.023,-0.126,0.149,0.051,0.098,0.098,0.026,-0.004,-0.025
-0.066,0.111,0.177,-0.023,-0.122,0.144,0.055,0.06,0.07,-0.007,0.031,-0.048
-0.108,0.063,0.171,0.023,-0.14,0.117,0.055,0.024,0.033,-0.033,0.157,-0.067
-0.057,0.107,0.163,-0.025,-0.11,0.135,0.055,-0.001,0.002,-0.041,0.069,-0.071
-0.113,0.046,0.159,0.033,-0.136,0.103,0.055,-0.012,-0.02,-0.043,-0.026,-0.075
-0.332,-0.182,0.15,0.257,-0.24,-0.016,0.054,-0.019,-0.03,-0.056,0.019,-0.081
