-0.238,-0.203,0.035,0.22,-0.136,-0.084,-0.015,-0.065,-0.084,-0.16,-0.15,-0.16
-0.251,-0.216,0.035,0.233,-0.142,-0.09,-0.015,-0.065,-0.097,-0.159,-0.15,-0.16
-0.272,-0.237,0.036,0.254,-0.154,-0.1,-0.015,-0.059,-0.103,-0.155,-0.15,-0.16
-0.234,-0.204,0.031,0.219,-0.132,-0.086,-0.015,-0.052,-0.072,-0.153,-0.15,-0.16
-0.229,-0.199,0.03,0.214,-0.13,-0.084,-0.014,-0.032,-0.068,-0.148,-0.15,-0.16
-0.23,-0.201,0.029,0.215,-0.129,-0.086,-0.016,-0.013,-0.058,-0.145,-0.15,-0.159
-0.226,-0.199,0.027,0.212,-0.126,-0.086,0.003,0.005,-0.051,-0.14,-0.143,-0.156
-0.24,-0.201,0.039,0.22,-0.139,-0.081,0.017,0.018,-0.044,-0.13,-0.132,-0.153
-0.239,-0.2,0.04,0.22,-0.14,-0.08,0.009,0.031,-0.028,-0.12,-0.127,-0.151
-0.237,-0.196,0.041,0.217,-0.139,-0.077,0.003,0.055,-0.007,-0.104,-0.131,-0.147
-0.228,-0.19,0.038,0.209,-0.133,-0.076,-0.004,0.075,0.012,-0.093,-0.136,-0.145
-0.232,-0.184,0.047,0.208,-0.139,-0.068,0.011,0.123,0.043,-0.07,-0.116,-0.141
-0.249,-0.178,0.07,0.214,-0.159,-0.054,0.032,0.158,0.086,-0.041,-0.087,-0.126
-0.245,-0.173,0.072,0.209,-0.158,-0.05,0.035,0.187,0.103,-0.039,-0.074,-0.113
-0.229,-0.152,0.077,0.19,-0.152,-0.037,0.035,0.223,0.118,-0.041,-0.062,-0.1
-0.216,-0.136,0.08,0.176,-0.147,-0.028,0.035,0.212,0.123,-0.039,-0.057,-0.088
-0.207,-0.131,0.076,0.168,-0.141,-0.027,0.046,0.205,0.112,-0.041,-0.06,-0.083
-0.198,-0.129,0.069,0.163,-0.133,-0.029,0.046,0.196,0.099,-0.039,-0.063,-0.078
-0.205,-0.12,0.085,0.163,-0.145,-0.017,0.04,0.186,0.071,-0.044,-0.066,-0.075
-0.222,-0.125,0.097,0.174,-0.16,-0.014,0.036,0.166,0.045,-0.047,-0.069,-0.068
-0.231,-0.154,0.077,0.192,-0.154,-0.038,0.032,0.12,0.018,-0.051,-0.07,-0.059
-0.232,-0.152,0.08,0.192,-0.155,-0.036,0.024,0.085,-0.006,-0.057,-0.064,-0.05
-0.226,-0.143,0.083,0.184,-0.154,-0.03,0.002,0.055,-0.02,-0.051,-0.058,-0.042
-0.227,-0.139,0.088,0.182,-0.157,-0.025,-0.013,0.029,-0.053,-0.075,-0.051,-0.034
-0.217,-0.129,0.088,0.173,-0.152,-0.02,-0.019,-0.005,-0.078,-0.079,-0.044,-0.026
-0.175,-0.126,0.049,0.15,-0.111,-0.039,-0.028,-0.038,-0.072,-0.053,-0.037,-0.018
-0.154,-0.122,0.032,0.137,-0.093,-0.044,-0.035,-0.062,-0.085,-0.05,-0.029,-0.011
-0.153,-0.12,0.033,0.136,-0.093,-0.043,-0.043,-0.077,-0.089,-0.042,-0.022,-0.003
-0.138,-0.115,0.023,0.126,-0.08,-0.046,-0.045,-0.067,-0.07,-0.036,-0.016,0.005
-0.135,-0.117,0.018,0.126,-0.076,-0.049,-0.046,-0.053,-0.054,-0.029,0.004,0.014
-0.131,-0.122,0.009,0.126,-0.07,-0.057,-0.05,-0.05,-0.044,-0.015,0.036,0.027
-0.126,-0.124,0.002,0.124,-0.064,-0.06,-0.05,-0.05,-0.045,-0.002,0.039,0.023
-0.126,-0.121,0.005,0.123,-0.065,-0.057,-0.045,-0.05,-0.039,-0.002,0.028,0.013
-0.124,-0.104,0.02,0.114,-0.071,-0.042,-0.045,-0.05,-0.038,-0.008,0.021,0.005
-0.156,-0.128,0.028,0.141,-0.091,-0.05,-0.044,-0.049,-0.034,-0.002,0.012,-0.005
-0.168,-0.143,0.025,0.155,-0.096,-0.059,-0.039,-0.053,-0.032,-0.017,0.006,-0.013
-0.176,-0.151,0.025,0.163,-0.1,-0.062,-0.041,-0.069,-0.058,-0.037,-0.011,-0.022
-0.204,-0.179,0.025,0.191,-0.114,-0.077,-0.037,-0.087,-0.071,-0.04,-0.033,-0.033
-0.19,-0.165,0.025,0.177,-0.107,-0.07,-0.028,-0.089,-0.087,-0.055,-0.037,-0.042
-0.171,-0.147,0.024,0.159,-0.098,-0.061,-0.017,-0.076,-0.093,-0.055,-0.028,-0.039
-0.163,-0.128,0.034,0.145,-0.098,-0.047,0.013,-0.058,-0.079,-0.042,-0.017,-0.028
-0.167,-0.107,0.06,0.136,-0.113,-0.023,0.069,-0.033,-0.065,-0.034,-0.008,-0.021
-0.163,-0.1,0.063,0.131,-0.113,-0.018,0.088,-0.012,-0.042,-0.022,0.012,-0.012
-0.127,-0.095,0.032,0.111,-0.079,-0.031,-0.006,-0.028,-0.04,-0.013,0.026,-0.003
-0.108,-0.093,0.015,0.1,-0.062,-0.038,-0.078,-0.067,-0.038,-0.001,0.024,0.007
-0.093,-0.088,0.005,0.09,-0.049,-0.041,-0.102,-0.078,-0.036,0.01,0.029,0.023
-0.06,-0.085,-0.024,0.073,-0.018,-0.054,-0.123,-0.071,-0.033,0.023,0.032,0.024
-0.039,-0.096,-0.058,0.068,0.01,-0.077,-0.117,-0.098,-0.054,-0.003,0.019,0.013
-0.045,-0.146,-0.101,0.096,0.028,-0.123,-0.12,-0.146,-0.107,-0.046,-0.01,-0.001
-0.082,-0.166,-0.084,0.124,0.001,-0.125,-0.096,-0.144,-0.136,-0.063,-0.042,-0.026
-0.125,-0.163,-0.038,0.144,-0.043,-0.1,-0.061,-0.105,-0.135,-0.069,-0.046,-0.035
-0.178,-0.216,-0.038,0.197,-0.07,-0.126,-0.052,-0.127,-0.132,-0.067,-0.045,-0.043
-0.221,-0.258,-0.037,0.24,-0.091,-0.147,-0.058,-0.151,-0.146,-0.102,-0.078,-0.074
-0.224,-0.255,-0.031,0.24,-0.096,-0.143,-0.04,-0.139,-0.155,-0.104,-0.069,-0.073
-0.229,-0.26,-0.031,0.245,-0.099,-0.145,-0.029,-0.154,-0.161,-0.111,-0.083,-0.08
-0.221,-0.26,-0.039,0.241,-0.091,-0.149,-0.019,-0.127,-0.137,-0.123,-0.105,-0.092
-0.193,-0.244,-0.052,0.219,-0.07,-0.148,-0.023,-0.159,-0.156,-0.126,-0.089,-0.077
-0.225,-0.266,-0.041,0.246,-0.092,-0.154,0.007,-0.1,-0.114,-0.129,-0.117,-0.098
-0.251,-0.285,-0.034,0.268,-0.108,-0.159,0.065,0.041,-0.022,-0.091,-0.126,-0.132
-0.161,-0.217,-0.057,0.19,-0.052,-0.137,0.093,0.206,0.24,0.137,0.056,-0.041
0.061,0.011,-0.05,-0.036,0.056,-0.019,-0.149,-0.225,0.296,0.629,0.682,0.445
0.492,0.252,-0.241,-0.371,0.366,0.005,-0.842,-1.62,-0.354,0.792,1.143,0.973
0.634,0.167,-0.467,-0.4,0.55,-0.15,-1.028,-2.2,-0.879,0.381,0.724,0.867
0.027,-0.284,-0.31,0.129,0.169,-0.297,-0.46,-1.666,-1.338,-0.625,-0.273,0.152
-0.499,-0.609,-0.11,0.554,-0.194,-0.36,-0.016,-1.132,-1.403,-1.151,-0.83,-0.373
-0.499,-0.564,-0.064,0.532,-0.217,-0.314,0.082,-0.659,-0.777,-0.675,-0.579,-0.354
-0.42,-0.453,-0.033,0.437,-0.193,-0.243,0.057,-0.262,-0.365,-0.352,-0.332,-0.259
-0.339,-0.364,-0.025,0.352,-0.157,-0.194,0.039,-0.092,-0.18,-0.214,-0.246,-0.198
-0.283,-0.317,-0.034,0.3,-0.124,-0.176,0.025,-0.053,-0.131,-0.157,-0.187,-0.178
-0.305,-0.307,-0.003,0.306,-0.151,-0.155,0.012,-0.017,-0.113,-0.156,-0.178,-0.177
-0.308,-0.294,0.014,0.301,-0.161,-0.14,0.006,-0.012,-0.089,-0.132,-0.171,-0.158
-0.276,-0.29,-0.014,0.283,-0.13,-0.152,0.001,0.003,-0.088,-0.139,-0.177,-0.157
-0.29,-0.279,0.01,0.284,-0.15,-0.134,-0.005,0.038,-0.073,-0.12,-0.164,-0.146
-0.294,-0.277,0.017,0.285,-0.155,-0.13,0.001,0.053,-0.077,-0.123,-0.16,-0.145
-0.262,-0.272,-0.01,0.267,-0.126,-0.141,0.006,0.047,-0.068,-0.11,-0.149,-0.137
-0.24,-0.268,-0.028,0.254,-0.106,-0.148,0.019,0.063,-0.052,-0.107,-0.143,-0.133
-0.234,-0.258,-0.024,0.246,-0.105,-0.14,0.045,0.087,-0.02,-0.083,-0.129,-0.128
-0.242,-0.237,0.005,0.24,-0.124,-0.115,0.057,0.122,0.007,-0.052,-0.107,-0.12
-0.209,-0.215,-0.006,0.212,-0.102,-0.11,0.073,0.162,0.025,-0.043,-0.095,-0.115
-0.204,-0.208,-0.004,0.206,-0.1,-0.106,0.082,0.185,0.048,-0.032,-0.087,-0.107
-0.22,-0.212,0.007,0.215,-0.113,-0.102,0.086,0.228,0.08,-0.023,-0.078,-0.101
-0.219,-0.198,0.022,0.208,-0.12,-0.088,0.091,0.264,0.109,-0.014,-0.071,-0.095
-0.211,-0.168,0.042,0.189,-0.126,-0.063,0.096,0.298,0.122,-0.009,-0.065,-0.088
-0.197,-0.159,0.039,0.178,-0.118,-0.06,0.103,0.32,0.124,-0.003,-0.059,-0.079
-0.199,-0.157,0.042,0.178,-0.12,-0.057,0.1,0.304,0.122,0.002,-0.053,-0.07
-0.189,-0.152,0.037,0.171,-0.112,-0.057,0.092,0.289,0.114,0.009,-0.048,-0.062
-0.204,-0.15,0.054,0.177,-0.129,-0.048,0.086,0.272,0.099,0.006,-0.045,-0.056
-0.211,-0.146,0.065,0.178,-0.138,-0.04,0.079,0.254,0.077,-0.011,-0.042,-0.051
-0.193,-0.145,0.049,0.169,-0.12,-0.048,0.073,0.228,0.046,-0.028,-0.04,-0.045
-0.195,-0.144,0.051,0.17,-0.123,-0.046,0.067,0.197,0.027,-0.041,-0.037,-0.04
-0.184,-0.137,0.047,0.161,-0.115,-0.045,0.058,0.166,0.023,-0.039,-0.035,-0.03
-0.176,-0.131,0.045,0.153,-0.11,-0.043,0.047,0.117,0.01,-0.042,-0.032,-0.017
-0.174,-0.13,0.044,0.151,-0.109,-0.042,0.038,0.065,-0.025,-0.045,-0.028,-0.008
-0.165,-0.13,0.035,0.147,-0.1,-0.048,0.025,0.021,-0.062,-0.045,-0.025,0.003
-0.155,-0.129,0.026,0.141,-0.09,-0.051,0.015,-0.001,-0.064,-0.041,-0.021,0.014
-0.14,-0.123,0.018,0.131,-0.079,-0.052,0.002,-0.012,-0.055,-0.026,-0.019,0.027
-0.124,-0.116,0.008,0.119,-0.066,-0.053,-0.007,-0.028,-0.05,-0.014,-0.01,0.038
-0.094,-0.109,-0.016,0.101,-0.039,-0.062,-0.015,-0.032,-0.042,0.008,0.0,0.042
-0.067,-0.102,-0.035,0.085,-0.016,-0.068,-0.02,-0.021,-0.034,0.026,0.012,0.047
-0.07,-0.096,-0.026,0.083,-0.021,-0.061,-0.002,-0.017,-0.02,0.041,0.031,0.05
-0.061,-0.094,-0.033,0.078,-0.014,-0.063,0.007,-0.02,-0.01,0.056,0.035,0.045
-0.069,-0.096,-0.027,0.083,-0.021,-0.061,-0.003,-0.02,-0.003,0.05,0.027,0.037
-0.101,-0.093,0.008,0.097,-0.054,-0.042,-0.006,-0.02,0.009,0.045,0.021,0.031
-0.107,-0.101,0.006,0.104,-0.056,-0.048,-0.015,-0.02,-0.001,0.042,0.013,0.024
-0.118,-0.126,-0.008,0.122,-0.055,-0.066,-0.032,-0.024,-0.021,0.036,0.006,0.02
-0.097,-0.12,-0.022,0.108,-0.037,-0.071,-0.034,-0.024,-0.039,0.032,-0.001,0.021
-0.06,-0.11,-0.05,0.085,-0.005,-0.08,-0.021,-0.033,-0.055,0.014,-0.005,0.019
-0.102,-0.13,-0.028,0.116,-0.037,-0.079,-0.013,-0.045,-0.063,0.0,-0.007,0.021
-0.125,-0.126,0.0,0.125,-0.062,-0.063,0.004,-0.03,-0.049,-0.001,-0.011,0.019
-0.075,-0.055,0.02,0.065,-0.048,-0.017,0.069,0.015,-0.024,0.022,-0.005,0.022
-0.069,-0.005,0.064,0.037,-0.066,0.029,0.111,0.044,-0.019,0.055,0.004,0.041
-0.061,-0.034,0.027,0.047,-0.044,-0.003,0.041,0.023,-0.012,0.052,0.016,0.047
-0.041,-0.052,-0.011,0.047,-0.015,-0.031,-0.058,-0.015,-0.005,0.044,0.027,0.049
-0.012,-0.049,-0.037,0.031,0.013,-0.043,-0.094,-0.045,0.001,0.039,0.042,0.05
0.013,-0.057,-0.069,0.022,0.041,-0.063,-0.084,-0.044,0.005,0.03,0.038,0.039
0.003,-0.056,-0.059,0.027,0.032,-0.058,-0.089,-0.048,-0.03,0.026,0.017,0.031
-0.014,-0.105,-0.092,0.06,0.04,-0.098,-0.112,-0.094,-0.078,-0.004,-0.011,0.019
-0.05,-0.149,-0.098,0.1,0.024,-0.123,-0.099,-0.119,-0.104,-0.04,-0.034,0.019
-0.079,-0.141,-0.063,0.11,-0.008,-0.102,-0.074,-0.087,-0.105,-0.047,-0.031,0.017
-0.145,-0.172,-0.027,0.158,-0.059,-0.099,-0.051,-0.073,-0.098,-0.043,-0.051,-0.02
-0.176,-0.193,-0.017,0.184,-0.079,-0.105,-0.034,-0.099,-0.13,-0.074,-0.094,-0.059
-0.16,-0.182,-0.022,0.171,-0.069,-0.102,-0.02,-0.083,-0.128,-0.082,-0.103,-0.067
-0.161,-0.178,-0.017,0.17,-0.072,-0.098,-0.03,-0.094,-0.129,-0.078,-0.096,-0.063
-0.148,-0.178,-0.031,0.163,-0.058,-0.104,-0.024,-0.077,-0.123,-0.084,-0.106,-0.068
-0.134,-0.164,-0.03,0.149,-0.052,-0.097,-0.024,-0.083,-0.118,-0.074,-0.093,-0.061
-0.165,-0.192,-0.028,0.179,-0.068,-0.11,-0.016,-0.075,-0.127,-0.09,-0.109,-0.08
-0.223,-0.234,-0.011,0.228,-0.106,-0.122,0.049,0.045,-0.046,-0.067,-0.12,-0.113
-0.195,-0.235,-0.041,0.215,-0.077,-0.138,0.051,0.186,0.127,0.034,-0.06,-0.108
-0.057,-0.107,-0.05,0.082,-0.004,-0.078,-0.036,0.108,0.354,0.446,0.374,0.194
0.37,0.228,-0.143,-0.299,0.256,0.042,-0.569,-1.01,-0.033,0.804,1.026,0.799
0.766,0.342,-0.424,-0.554,0.595,-0.041,-1.066,-2.101,-0.68,0.616,0.974,1.001
0.353,-0.05,-0.403,-0.151,0.378,-0.226,-0.693,-1.876,-1.158,-0.224,0.098,0.44
-0.297,-0.474,-0.177,0.386,-0.06,-0.325,-0.147,-1.288,-1.491,-1.085,-0.736,-0.247
-0.424,-0.522,-0.098,0.473,-0.163,-0.309,0.04,-0.795,-1.016,-0.869,-0.715,-0.379
-0.361,-0.413,-0.051,0.387,-0.155,-0.232,0.083,-0.341,-0.431,-0.391,-0.368,-0.263
-0.295,-0.316,-0.021,0.306,-0.136,-0.168,0.061,-0.087,-0.201,-0.22,-0.249,-0.214
-0.253,-0.259,-0.006,0.256,-0.123,-0.133,0.035,-0.003,-0.107,-0.124,-0.186,-0.168
-0.215,-0.23,-0.015,0.223,-0.1,-0.122,0.032,0.031,-0.105,-0.135,-0.176,-0.155
-0.184,-0.208,-0.024,0.196,-0.08,-0.116,0.026,0.057,-0.063,-0.105,-0.159,-0.142
-0.213,-0.208,0.005,0.211,-0.109,-0.101,0.023,0.06,-0.066,-0.106,-0.153,-0.139
-0.222,-0.198,0.024,0.209,-0.122,-0.087,0.017,0.06,-0.058,-0.091,-0.146,-0.135
-0.217,-0.193,0.024,0.204,-0.12,-0.084,0.017,0.071,-0.046,-0.083,-0.136,-0.129
-0.203,-0.186,0.017,0.195,-0.11,-0.085,0.041,0.086,-0.039,-0.077,-0.133,-0.126
-0.191,-0.18,0.011,0.186,-0.101,-0.085,0.052,0.108,-0.021,-0.065,-0.124,-0.121
-0.188,-0.181,0.007,0.184,-0.097,-0.086,0.049,0.12,-0.005,-0.067,-0.123,-0.118
-0.173,-0.179,-0.006,0.176,-0.083,-0.092,0.051,0.137,0.018,-0.06,-0.117,-0.114
-0.174,-0.181,-0.007,0.177,-0.083,-0.094,0.052,0.172,0.035,-0.061,-0.113,-0.111
-0.182,-0.177,0.004,0.179,-0.093,-0.086,0.065,0.198,0.061,-0.042,-0.107,-0.106
-0.147,-0.137,0.01,0.142,-0.078,-0.063,0.081,0.24,0.096,-0.017,-0.088,-0.103
-0.131,-0.102,0.029,0.116,-0.08,-0.036,0.079,0.28,0.126,0.001,-0.068,-0.093
-0.129,-0.087,0.042,0.108,-0.085,-0.022,0.084,0.319,0.15,0.013,-0.053,-0.08
-0.122,-0.083,0.039,0.102,-0.08,-0.021,0.099,0.344,0.161,0.019,-0.041,-0.071
-0.135,-0.095,0.04,0.115,-0.087,-0.027,0.105,0.339,0.15,0.027,-0.04,-0.065
-0.127,-0.087,0.04,0.107,-0.083,-0.024,0.105,0.324,0.14,0.028,-0.04,-0.059
-0.12,-0.08,0.04,0.1,-0.08,-0.02,0.105,0.303,0.123,0.021,-0.04,-0.053
-0.114,-0.075,0.039,0.094,-0.076,-0.018,0.105,0.276,0.091,0.014,-0.04,-0.049
-0.1,-0.066,0.034,0.082,-0.066,-0.016,0.105,0.243,0.071,0.008,-0.04,-0.042
-0.097,-0.068,0.029,0.082,-0.062,-0.019,0.104,0.227,0.066,0.0,-0.04,-0.036
-0.098,-0.073,0.024,0.085,-0.061,-0.024,0.106,0.202,0.053,-0.004,-0.04,-0.029
-0.102,-0.082,0.02,0.091,-0.061,-0.031,0.075,0.153,0.015,-0.018,-0.04,-0.023
-0.105,-0.09,0.015,0.097,-0.06,-0.037,0.033,0.105,-0.009,-0.028,-0.04,-0.015
-0.098,-0.087,0.011,0.092,-0.054,-0.037,0.024,0.059,-0.02,-0.02,-0.04,-0.006
-0.09,-0.081,0.009,0.086,-0.05,-0.036,0.018,0.023,-0.044,-0.014,-0.039,0.003
-0.083,-0.078,0.006,0.08,-0.044,-0.036,0.01,0.014,-0.043,-0.008,-0.031,0.011
-0.076,-0.072,0.004,0.074,-0.04,-0.034,0.002,0.016,-0.032,0.0,-0.017,0.017
-0.068,-0.068,0.0,0.068,-0.034,-0.034,-0.003,0.015,-0.023,0.004,-0.003,0.02
-0.066,-0.065,0.001,0.066,-0.033,-0.032,-0.006,0.015,-0.011,0.017,0.01,0.025
-0.081,-0.064,0.018,0.072,-0.049,-0.023,-0.004,0.015,0.001,0.033,0.02,0.03
-0.083,-0.062,0.021,0.072,-0.052,-0.02,-0.007,0.019,0.013,0.047,0.028,0.026
-0.069,-0.057,0.012,0.063,-0.04,-0.023,-0.002,0.019,0.02,0.051,0.038,0.02
-0.082,-0.075,0.006,0.078,-0.044,-0.034,0.008,0.011,0.031,0.042,0.035,0.015
-0.095,-0.097,-0.002,0.096,-0.046,-0.049,-0.017,0.004,0.032,0.036,0.021,0.009
-0.084,-0.094,-0.01,0.089,-0.037,-0.052,-0.024,-0.003,0.019,0.029,0.01,0.003
-0.082,-0.096,-0.014,0.089,-0.034,-0.054,-0.006,-0.011,-0.005,0.022,0.003,0.001
-0.085,-0.094,-0.009,0.09,-0.037,-0.051,0.001,-0.018,-0.032,0.02,-0.003,0.007
-0.093,-0.096,-0.004,0.095,-0.044,-0.05,0.018,-0.016,-0.043,0.019,-0.008,0.013
-0.084,-0.086,-0.002,0.085,-0.04,-0.044,0.046,-0.004,-0.034,0.015,-0.015,0.017
-0.059,-0.041,0.019,0.05,-0.039,-0.011,0.08,0.025,-0.013,0.014,-0.008,0.024
-0.073,-0.016,0.057,0.044,-0.065,0.02,0.139,0.06,-0.002,0.038,0.006,0.027
-0.063,-0.009,0.054,0.036,-0.059,0.022,0.122,0.07,0.008,0.057,0.02,0.037
-0.029,0.002,0.03,0.013,-0.029,0.016,0.025,0.04,0.018,0.057,0.034,0.051
0.005,0.012,0.006,-0.009,-0.001,0.009,-0.034,0.0,0.012,0.065,0.036,0.055
0.033,-0.001,-0.034,-0.016,0.034,-0.017,-0.06,-0.006,-0.002,0.066,0.043,0.064
0.007,-0.017,-0.024,0.005,0.016,-0.021,-0.056,-0.025,-0.01,0.055,0.046,0.059
0.009,-0.038,-0.047,0.015,0.028,-0.042,-0.08,-0.087,-0.031,0.025,0.025,0.045
0.009,-0.087,-0.096,0.039,0.053,-0.091,-0.095,-0.115,-0.06,-0.007,-0.006,0.032
-0.046,-0.1,-0.054,0.073,0.004,-0.077,-0.071,-0.117,-0.066,-0.017,-0.021,0.019
-0.113,-0.11,0.002,0.111,-0.057,-0.054,-0.041,-0.112,-0.053,-0.023,-0.029,0.004
-0.146,-0.117,0.029,0.131,-0.088,-0.044,-0.021,-0.118,-0.075,-0.043,-0.055,-0.019
-0.152,-0.135,0.017,0.143,-0.085,-0.059,-0.016,-0.113,-0.092,-0.059,-0.08,-0.041
-0.173,-0.168,0.005,0.17,-0.088,-0.081,-0.01,-0.115,-0.097,-0.051,-0.071,-0.04
-0.131,-0.134,-0.003,0.133,-0.063,-0.069,-0.01,-0.112,-0.105,-0.06,-0.078,-0.045
-0.098,-0.123,-0.026,0.111,-0.036,-0.074,0.003,-0.088,-0.083,-0.049,-0.073,-0.051
-0.143,-0.158,-0.015,0.15,-0.063,-0.087,-0.012,-0.106,-0.108,-0.061,-0.073,-0.043
-0.157,-0.163,-0.007,0.16,-0.075,-0.085,0.035,-0.016,-0.045,-0.05,-0.093,-0.071
-0.107,-0.165,-0.058,0.136,-0.024,-0.111,0.09,0.131,0.075,-0.004,-0.071,-0.092
-0.002,-0.075,-0.073,0.039,0.036,-0.074,0.076,0.264,0.344,0.275,0.182,0.072
0.251,0.195,-0.056,-0.222,0.153,0.069,-0.279,-0.459,0.25,0.747,0.84,0.602
0.713,0.401,-0.312,-0.557,0.512,0.044,-0.943,-1.846,-0.425,0.794,1.149,1.041
0.682,0.206,-0.476,-0.444,0.579,-0.135,-0.927,-2.108,-0.929,0.205,0.538,0.761
-0.055,-0.3,-0.245,0.178,0.095,-0.273,-0.323,-1.533,-1.398,-0.821,-0.45,0.016
-0.417,-0.514,-0.098,0.466,-0.159,-0.306,0.029,-0.999,-1.234,-1.038,-0.772,-0.364
-0.337,-0.4,-0.064,0.369,-0.136,-0.232,0.122,-0.495,-0.566,-0.486,-0.434,-0.266
-0.262,-0.266,-0.005,0.264,-0.128,-0.135,0.115,-0.148,-0.238,-0.241,-0.237,-0.179
-0.176,-0.15,0.026,0.163,-0.101,-0.062,0.064,-0.005,-0.075,-0.122,-0.152,-0.12
-0.164,-0.133,0.031,0.148,-0.098,-0.05,0.047,0.032,-0.061,-0.098,-0.121,-0.089
-0.139,-0.124,0.016,0.132,-0.077,-0.054,0.052,0.029,-0.045,-0.089,-0.117,-0.092
-0.133,-0.131,0.002,0.132,-0.067,-0.065,0.049,0.032,-0.027,-0.073,-0.107,-0.084
-0.18,-0.164,0.016,0.172,-0.098,-0.074,0.057,0.045,-0.022,-0.075,-0.111,-0.085
-0.192,-0.154,0.037,0.173,-0.114,-0.058,0.067,0.046,-0.004,-0.058,-0.1,-0.078
-0.163,-0.141,0.022,0.151,-0.092,-0.059,0.07,0.076,-0.007,-0.059,-0.102,-0.082
-0.124,-0.126,-0.002,0.125,-0.061,-0.064,0.076,0.104,0.007,-0.042,-0.095,-0.087
-0.14,-0.12,0.02,0.13,-0.08,-0.05,0.077,0.108,0.014,-0.037,-0.09,-0.094
-0.13,-0.12,0.01,0.125,-0.07,-0.055,0.082,0.12,0.037,-0.028,-0.082,-0.092
-0.099,-0.12,-0.021,0.11,-0.039,-0.07,0.078,0.159,0.058,-0.023,-0.076,-0.087
-0.124,-0.12,0.005,0.122,-0.064,-0.058,0.079,0.192,0.078,-0.014,-0.069,-0.085
-0.15,-0.12,0.03,0.135,-0.09,-0.045,0.089,0.226,0.106,0.004,-0.061,-0.08
-0.161,-0.118,0.042,0.139,-0.101,-0.038,0.095,0.259,0.135,0.008,-0.055,-0.077
-0.116,-0.089,0.027,0.103,-0.071,-0.031,0.118,0.29,0.159,0.01,-0.048,-0.073
-0.079,-0.064,0.015,0.071,-0.047,-0.024,0.13,0.331,0.177,0.035,-0.041,-0.061
-0.12,-0.056,0.064,0.087,-0.092,0.004,0.137,0.342,0.192,0.06,-0.035,-0.046
-0.123,-0.044,0.079,0.084,-0.101,0.017,0.137,0.333,0.181,0.059,-0.03,-0.034
-0.103,-0.035,0.068,0.069,-0.086,0.016,0.128,0.321,0.156,0.055,-0.024,-0.021
-0.108,-0.029,0.079,0.068,-0.093,0.025,0.125,0.304,0.141,0.052,-0.018,-0.01
-0.094,-0.031,0.063,0.062,-0.079,0.016,0.115,0.276,0.129,0.048,-0.017,-0.003
-0.095,-0.027,0.068,0.061,-0.081,0.02,0.108,0.251,0.106,0.042,-0.02,0.001
-0.102,-0.024,0.078,0.063,-0.089,0.027,0.098,0.22,0.078,0.034,-0.022,0.005
-0.085,-0.026,0.06,0.055,-0.072,0.017,0.084,0.181,0.057,0.028,-0.021,0.01
-0.073,-0.02,0.053,0.046,-0.062,0.016,0.06,0.138,0.027,0.024,-0.014,0.014
-0.067,-0.013,0.055,0.039,-0.06,0.021,0.04,0.09,0.004,0.026,-0.007,0.023
-0.049,-0.003,0.046,0.025,-0.047,0.021,0.04,0.051,-0.002,0.024,-0.001,0.039
-0.042,0.003,0.044,0.019,-0.043,0.023,0.04,0.018,-0.01,0.025,0.006,0.043
-0.033,0.013,0.045,0.01,-0.039,0.029,0.035,0.009,-0.013,0.025,0.011,0.046
-0.016,0.023,0.039,-0.003,-0.028,0.031,0.035,0.013,0.001,0.027,0.023,0.055
-0.01,0.026,0.036,-0.009,-0.023,0.031,0.034,0.018,0.026,0.059,0.04,0.06
-0.022,0.009,0.031,0.006,-0.027,0.02,0.026,0.021,0.041,0.08,0.046,0.062
-0.03,0.002,0.032,0.014,-0.031,0.016,0.019,0.029,0.048,0.082,0.055,0.066
0.001,0.038,0.037,-0.02,-0.018,0.037,0.012,0.044,0.068,0.092,0.07,0.061
0.006,0.039,0.033,-0.023,-0.014,0.036,0.004,0.039,0.069,0.09,0.071,0.051
-0.013,0.019,0.031,-0.003,-0.022,0.025,-0.003,0.026,0.055,0.08,0.06,0.045
-0.011,0.013,0.024,-0.001,-0.017,0.018,-0.005,0.018,0.042,0.07,0.047,0.035
-0.016,0.005,0.021,0.005,-0.019,0.013,-0.005,0.009,0.025,0.06,0.034,0.032
-0.013,0.003,0.017,0.005,-0.016,0.01,-0.005,0.005,0.01,0.044,0.016,0.035
-0.011,-0.003,0.008,0.007,-0.009,0.002,-0.005,0.003,-0.004,0.028,0.002,0.036
-0.031,-0.003,0.028,0.017,-0.029,0.012,-0.002,-0.007,-0.006,0.023,0.002,0.039
0.005,0.04,0.035,-0.023,-0.015,0.037,0.052,0.008,0.005,0.036,0.012,0.04
0.028,0.093,0.065,-0.061,-0.019,0.079,0.106,0.053,0.038,0.07,0.039,0.043
0.014,0.103,0.088,-0.059,-0.037,0.096,0.106,0.076,0.05,0.078,0.052,0.049
0.053,0.095,0.042,-0.074,0.005,0.068,0.021,0.045,0.046,0.074,0.049,0.053
0.09,0.085,-0.006,-0.088,0.048,0.039,-0.084,-0.018,0.054,0.073,0.05,0.058
0.108,0.076,-0.032,-0.092,0.07,0.022,-0.109,-0.035,0.046,0.07,0.059,0.059
0.084,0.051,-0.033,-0.068,0.058,0.009,-0.101,-0.024,0.031,0.068,0.063,0.044
0.05,0.001,-0.049,-0.025,0.05,-0.024,-0.103,-0.063,-0.011,0.037,0.047,0.028
0.065,-0.019,-0.085,-0.023,0.075,-0.052,-0.089,-0.084,-0.053,-0.001,0.031,0.015
0.043,-0.022,-0.065,-0.011,0.054,-0.043,-0.047,-0.072,-0.076,0.004,0.016,0.007
-0.006,-0.019,-0.013,0.012,0.003,-0.016,-0.02,-0.066,-0.075,0.026,0.007,-0.002
-0.054,-0.024,0.03,0.039,-0.042,0.003,-0.014,-0.072,-0.074,0.009,-0.007,-0.027
-0.086,-0.047,0.039,0.067,-0.062,-0.004,-0.003,-0.072,-0.078,-0.018,-0.043,-0.051
-0.074,-0.043,0.031,0.058,-0.052,-0.005,0.011,-0.072,-0.07,-0.017,-0.043,-0.049
-0.07,-0.047,0.023,0.058,-0.046,-0.012,0.014,-0.082,-0.085,-0.035,-0.047,-0.055
-0.062,-0.043,0.019,0.052,-0.04,-0.012,0.013,-0.062,-0.07,-0.036,-0.045,-0.057
-0.056,-0.046,0.011,0.051,-0.033,-0.017,-0.011,-0.096,-0.093,-0.046,-0.042,-0.057
-0.054,-0.05,0.004,0.051,-0.029,-0.023,0.045,-0.003,-0.027,-0.034,-0.062,-0.072
-0.041,-0.037,0.004,0.039,-0.022,-0.016,0.109,0.142,0.078,-0.003,-0.057,-0.087
0.02,0.006,-0.014,-0.012,0.017,-0.004,0.106,0.28,0.33,0.233,0.138,0.023
0.265,0.245,-0.02,-0.255,0.143,0.112,-0.188,-0.253,0.341,0.716,0.767,0.51
0.734,0.469,-0.265,-0.601,0.499,0.102,-0.856,-1.646,-0.311,0.824,1.159,1.004
0.778,0.31,-0.469,-0.544,0.623,-0.079,-0.946,-2.102,-0.845,0.321,0.661,0.829
0.105,-0.162,-0.267,0.029,0.186,-0.214,-0.386,-1.573,-1.33,-0.697,-0.343,0.095
-0.351,-0.43,-0.078,0.391,-0.136,-0.254,0.007,-1.048,-1.292,-1.085,-0.8,-0.358
-0.307,-0.342,-0.035,0.324,-0.135,-0.188,0.128,-0.548,-0.62,-0.555,-0.492,-0.299
-0.178,-0.192,-0.014,0.185,-0.082,-0.103,0.118,-0.166,-0.235,-0.252,-0.253,-0.202
-0.114,-0.094,0.02,0.104,-0.067,-0.037,0.073,-0.018,-0.076,-0.138,-0.175,-0.152
-0.113,-0.078,0.035,0.096,-0.074,-0.021,0.063,0.011,-0.048,-0.099,-0.143,-0.135
-0.113,-0.075,0.038,0.094,-0.075,-0.018,0.066,0.049,-0.028,-0.096,-0.134,-0.133
-0.121,-0.074,0.047,0.097,-0.084,-0.013,0.064,0.06,-0.012,-0.072,-0.118,-0.124
-0.123,-0.077,0.046,0.1,-0.084,-0.015,0.065,0.061,-0.01,-0.076,-0.118,-0.125
-0.124,-0.073,0.051,0.098,-0.087,-0.01,0.066,0.07,0.01,-0.06,-0.105,-0.116
-0.131,-0.077,0.053,0.104,-0.092,-0.012,0.068,0.084,0.01,-0.06,-0.104,-0.115
-0.109,-0.054,0.055,0.081,-0.081,0.0,0.073,0.096,0.031,-0.049,-0.096,-0.109
-0.082,-0.029,0.053,0.055,-0.067,0.012,0.074,0.107,0.041,-0.046,-0.091,-0.106
-0.068,-0.024,0.044,0.046,-0.056,0.009,0.075,0.135,0.056,-0.038,-0.087,-0.103
-0.076,-0.021,0.055,0.048,-0.066,0.017,0.06,0.169,0.081,-0.027,-0.08,-0.098
-0.101,-0.02,0.081,0.061,-0.091,0.03,0.057,0.193,0.091,-0.019,-0.07,-0.096
-0.079,0.002,0.081,0.038,-0.08,0.041,0.085,0.227,0.129,-0.006,-0.06,-0.09
-0.048,0.031,0.079,0.008,-0.064,0.054,0.093,0.267,0.167,0.011,-0.05,-0.081
-0.043,0.039,0.082,0.002,-0.063,0.06,0.104,0.31,0.188,0.026,-0.043,-0.073
-0.033,0.045,0.078,-0.006,-0.056,0.061,0.113,0.354,0.208,0.041,-0.036,-0.064
-0.024,0.06,0.084,-0.018,-0.054,0.072,0.132,0.363,0.201,0.048,-0.029,-0.056
-0.045,0.05,0.095,-0.003,-0.07,0.072,0.15,0.353,0.189,0.044,-0.022,-0.048
-0.036,0.055,0.09,-0.01,-0.063,0.072,0.136,0.343,0.178,0.04,-0.016,-0.04
0.003,0.088,0.085,-0.046,-0.041,0.086,0.128,0.32,0.163,0.037,-0.011,-0.03
0.005,0.087,0.082,-0.046,-0.039,0.084,0.118,0.292,0.147,0.032,-0.01,-0.02
0.027,0.103,0.076,-0.065,-0.025,0.089,0.113,0.274,0.131,0.03,-0.01,-0.012
0.038,0.11,0.073,-0.074,-0.018,0.091,0.11,0.247,0.112,0.023,-0.005,-0.008
0.027,0.096,0.069,-0.062,-0.021,0.082,0.099,0.204,0.087,0.015,-0.005,-0.002
0.019,0.085,0.066,-0.052,-0.024,0.075,0.074,0.152,0.059,0.008,-0.006,0.004
-0.003,0.059,0.062,-0.028,-0.033,0.06,0.035,0.097,0.02,-0.002,-0.013,0.008
-0.018,0.041,0.06,-0.012,-0.04,0.05,0.023,0.051,0.008,-0.002,-0.011,0.017
0.003,0.056,0.053,-0.03,-0.025,0.054,0.026,0.038,0.016,0.006,0.001,0.032
0.041,0.085,0.044,-0.063,-0.002,0.064,0.025,0.041,0.017,0.016,0.009,0.045
0.052,0.087,0.035,-0.069,0.008,0.061,0.025,0.04,0.025,0.022,0.022,0.053
0.062,0.09,0.028,-0.076,0.017,0.058,0.025,0.039,0.035,0.034,0.037,0.059
0.066,0.089,0.022,-0.078,0.022,0.055,0.023,0.044,0.058,0.061,0.062,0.057
0.062,0.08,0.018,-0.071,0.022,0.049,0.018,0.053,0.082,0.081,0.074,0.051
0.062,0.075,0.013,-0.069,0.024,0.044,0.015,0.049,0.085,0.087,0.065,0.047
0.057,0.067,0.01,-0.062,0.024,0.038,0.012,0.047,0.076,0.078,0.062,0.042
0.058,0.061,0.003,-0.06,0.028,0.031,0.007,0.044,0.063,0.067,0.056,0.038
0.064,0.055,-0.009,-0.06,0.036,0.023,0.004,0.04,0.053,0.058,0.05,0.033
0.065,0.059,-0.006,-0.062,0.035,0.027,0.018,0.04,0.054,0.05,0.046,0.03
0.062,0.062,0.001,-0.062,0.03,0.031,0.03,0.028,0.056,0.05,0.045,0.026
0.059,0.066,0.006,-0.063,0.026,0.036,0.031,0.008,0.054,0.05,0.045,0.023
0.058,0.069,0.011,-0.064,0.023,0.04,0.028,0.001,0.055,0.05,0.045,0.018
0.033,0.07,0.038,-0.052,-0.003,0.054,0.051,0.027,0.054,0.05,0.045,0.014
0.022,0.091,0.069,-0.056,-0.024,0.079,0.106,0.07,0.056,0.05,0.044,0.019
0.06,0.106,0.046,-0.083,0.007,0.076,0.109,0.074,0.055,0.05,0.048,0.03
0.099,0.115,0.017,-0.107,0.041,0.065,0.036,0.036,0.056,0.05,0.057,0.04
0.124,0.122,-0.001,-0.123,0.063,0.06,-0.035,0.015,0.055,0.051,0.067,0.05
0.134,0.117,-0.017,-0.125,0.075,0.05,-0.053,0.005,0.054,0.062,0.067,0.061
0.152,0.124,-0.027,-0.138,0.089,0.048,-0.047,-0.007,0.057,0.067,0.05,0.058
0.148,0.091,-0.057,-0.12,0.102,0.017,-0.064,-0.021,0.018,0.04,0.034,0.041
0.121,0.043,-0.078,-0.082,0.099,-0.017,-0.087,-0.062,-0.025,0.004,0.024,0.025
0.097,0.036,-0.061,-0.066,0.079,-0.012,-0.058,-0.082,-0.047,-0.008,0.027,0.013
0.041,0.024,-0.016,-0.032,0.028,0.004,-0.014,-0.041,-0.051,0.006,0.017,0.0
-0.006,0.016,0.021,-0.005,-0.014,0.018,-0.009,-0.044,-0.052,-0.01,-0.018,-0.009
-0.013,0.005,0.018,0.003,-0.015,0.011,-0.005,-0.057,-0.058,-0.055,-0.038,-0.018
-0.013,-0.001,0.012,0.007,-0.012,0.005,0.009,-0.051,-0.056,-0.051,-0.033,-0.024
-0.021,-0.01,0.011,0.015,-0.015,0.0,0.003,-0.072,-0.075,-0.059,-0.042,-0.031
-0.021,-0.021,0.0,0.021,-0.01,-0.01,0.03,-0.052,-0.065,-0.055,-0.041,-0.042
-0.034,-0.027,0.007,0.031,-0.02,-0.01,0.017,-0.098,-0.092,-0.062,-0.043,-0.041
-0.052,-0.047,0.005,0.05,-0.028,-0.021,0.026,-0.01,-0.034,-0.064,-0.057,-0.065
-0.032,-0.034,-0.001,0.033,-0.015,-0.017,0.101,0.147,0.072,-0.02,-0.054,-0.095
0.033,0.032,-0.001,-0.033,0.017,0.015,0.123,0.297,0.325,0.204,0.133,0.013
0.274,0.261,-0.013,-0.267,0.144,0.123,-0.155,-0.17,0.369,0.692,0.76,0.502
0.754,0.517,-0.237,-0.635,0.495,0.14,-0.827,-1.56,-0.276,0.853,1.188,1.027
0.849,0.394,-0.456,-0.621,0.652,-0.031,-0.971,-2.088,-0.832,0.38,0.755,0.886
0.221,-0.081,-0.301,-0.07,0.261,-0.191,-0.396,-1.576,-1.317,-0.657,-0.261,0.154
-0.24,-0.35,-0.11,0.295,-0.065,-0.23,0.032,-1.027,-1.3,-1.088,-0.765,-0.336
-0.22,-0.272,-0.052,0.246,-0.084,-0.161,0.135,-0.512,-0.627,-0.569,-0.461,-0.29
-0.141,-0.141,-0.001,0.141,-0.07,-0.071,0.138,-0.146,-0.237,-0.256,-0.225,-0.178
-0.071,-0.041,0.029,0.056,-0.05,-0.006,0.1,0.029,-0.056,-0.121,-0.125,-0.116
-0.024,-0.022,0.002,0.023,-0.012,-0.01,0.056,0.075,-0.022,-0.089,-0.086,-0.089
-0.033,-0.023,0.01,0.028,-0.021,-0.006,0.055,0.089,-0.019,-0.092,-0.092,-0.092
-0.067,-0.017,0.05,0.042,-0.059,0.016,0.055,0.108,0.004,-0.063,-0.071,-0.088
-0.065,-0.022,0.043,0.043,-0.054,0.01,0.055,0.11,0.007,-0.072,-0.074,-0.092
-0.059,-0.018,0.041,0.039,-0.05,0.011,0.054,0.111,0.034,-0.049,-0.059,-0.089
-0.056,-0.017,0.039,0.036,-0.047,0.011,0.058,0.125,0.028,-0.051,-0.058,-0.091
-0.015,0.019,0.033,-0.002,-0.024,0.026,0.083,0.142,0.05,-0.036,-0.048,-0.084
0.015,0.053,0.038,-0.035,-0.012,0.045,0.086,0.17,0.07,-0.028,-0.043,-0.077
0.012,0.055,0.044,-0.034,-0.016,0.05,0.078,0.18,0.073,-0.019,-0.036,-0.071
0.01,0.055,0.044,-0.033,-0.018,0.049,0.087,0.197,0.103,-0.004,-0.03,-0.064
0.02,0.056,0.036,-0.038,-0.009,0.046,0.098,0.241,0.128,0.008,-0.024,-0.058
0.027,0.065,0.038,-0.046,-0.006,0.052,0.122,0.273,0.159,0.032,-0.015,-0.051
0.014,0.077,0.063,-0.046,-0.025,0.07,0.142,0.307,0.196,0.039,-0.004,-0.037
0.043,0.108,0.065,-0.076,-0.011,0.086,0.145,0.362,0.233,0.069,0.035,-0.023
0.096,0.151,0.055,-0.124,0.02,0.103,0.15,0.402,0.263,0.108,0.061,-0.014
0.084,0.156,0.072,-0.12,0.005,0.114,0.151,0.414,0.246,0.093,0.059,-0.009
0.075,0.154,0.079,-0.115,-0.002,0.116,0.147,0.408,0.229,0.08,0.057,-0.002
0.086,0.156,0.07,-0.121,0.007,0.113,0.139,0.388,0.219,0.075,0.053,0.002
0.088,0.154,0.066,-0.122,0.01,0.11,0.131,0.374,0.196,0.07,0.051,0.008
0.095,0.155,0.06,-0.125,0.017,0.107,0.122,0.352,0.17,0.068,0.048,0.012
0.097,0.15,0.053,-0.124,0.022,0.101,0.116,0.317,0.153,0.063,0.046,0.017
0.072,0.145,0.072,-0.109,-0.001,0.108,0.109,0.28,0.148,0.061,0.042,0.021
0.062,0.141,0.079,-0.102,-0.009,0.11,0.112,0.242,0.124,0.055,0.041,0.026
0.076,0.136,0.059,-0.106,0.008,0.097,0.1,0.192,0.086,0.045,0.036,0.043
0.069,0.132,0.062,-0.1,0.003,0.097,0.056,0.154,0.064,0.037,0.035,0.053
0.075,0.131,0.056,-0.103,0.009,0.094,0.043,0.124,0.052,0.033,0.047,0.048
0.085,0.138,0.054,-0.112,0.015,0.096,0.043,0.086,0.047,0.024,0.048,0.052
0.105,0.154,0.048,-0.13,0.028,0.101,0.055,0.078,0.052,0.044,0.073,0.075
0.112,0.155,0.043,-0.134,0.034,0.099,0.054,0.081,0.053,0.08,0.093,0.082
0.108,0.15,0.042,-0.129,0.033,0.096,0.031,0.08,0.059,0.08,0.092,0.078
0.134,0.149,0.015,-0.142,0.059,0.082,0.026,0.08,0.081,0.08,0.104,0.081
0.13,0.145,0.015,-0.138,0.057,0.08,0.017,0.082,0.101,0.103,0.117,0.079
0.134,0.145,0.011,-0.14,0.061,0.078,0.015,0.092,0.112,0.118,0.122,0.082
0.151,0.165,0.013,-0.158,0.069,0.089,0.005,0.088,0.112,0.133,0.125,0.089
0.162,0.168,0.006,-0.164,0.077,0.087,0.015,0.077,0.099,0.122,0.12,0.081
0.153,0.15,-0.003,-0.151,0.078,0.073,0.054,0.07,0.087,0.097,0.111,0.068
0.101,0.142,0.041,-0.122,0.03,0.091,0.068,0.06,0.073,0.087,0.11,0.057
0.111,0.138,0.027,-0.125,0.042,0.083,0.062,0.051,0.055,0.076,0.11,0.05
0.146,0.142,-0.004,-0.144,0.075,0.069,0.06,0.044,0.04,0.081,0.111,0.05
0.12,0.137,0.017,-0.129,0.052,0.077,0.069,0.029,0.03,0.079,0.109,0.043
0.119,0.174,0.055,-0.147,0.032,0.114,0.102,0.058,0.049,0.081,0.111,0.049
0.158,0.229,0.071,-0.194,0.043,0.15,0.162,0.116,0.079,0.09,0.106,0.073
0.189,0.233,0.044,-0.211,0.072,0.139,0.141,0.12,0.082,0.099,0.102,0.083
0.202,0.238,0.036,-0.22,0.083,0.137,0.056,0.089,0.076,0.108,0.114,0.084
0.228,0.239,0.011,-0.234,0.109,0.125,-0.008,0.056,0.077,0.108,0.13,0.097
0.287,0.234,-0.054,-0.26,0.17,0.09,-0.048,0.04,0.085,0.116,0.137,0.109
0.269,0.211,-0.058,-0.24,0.163,0.076,-0.042,0.035,0.07,0.088,0.111,0.093
0.222,0.164,-0.058,-0.193,0.14,0.053,-0.048,0.004,0.025,0.058,0.091,0.077
0.221,0.128,-0.093,-0.174,0.156,0.018,-0.039,-0.033,0.002,0.056,0.084,0.069
0.196,0.128,-0.068,-0.162,0.131,0.03,0.012,-0.027,0.001,0.043,0.076,0.061
0.162,0.142,-0.019,-0.152,0.09,0.061,0.049,0.006,0.013,0.036,0.063,0.048
0.129,0.122,-0.008,-0.125,0.068,0.057,0.06,-0.005,-0.009,0.024,0.04,0.028
0.082,0.084,0.001,-0.083,0.04,0.042,0.067,-0.007,-0.042,-0.018,0.02,0.011
0.047,0.069,0.021,-0.058,0.013,0.045,0.065,-0.01,-0.042,-0.041,0.018,0.007
0.067,0.063,-0.004,-0.065,0.035,0.029,0.059,-0.022,-0.052,-0.049,0.008,-0.001
0.065,0.054,-0.011,-0.06,0.038,0.021,0.066,-0.01,-0.034,-0.04,0.0,-0.01
0.039,0.051,0.012,-0.045,0.013,0.032,0.048,-0.044,-0.063,-0.051,-0.002,-0.012
0.028,0.043,0.015,-0.036,0.006,0.029,0.097,0.048,-0.008,-0.045,-0.025,-0.036
0.064,0.062,-0.002,-0.063,0.033,0.029,0.139,0.194,0.112,0.012,-0.013,-0.053
0.112,0.087,-0.026,-0.099,0.069,0.03,0.129,0.32,0.365,0.261,0.212,0.073
0.385,0.336,-0.048,-0.36,0.216,0.144,-0.166,-0.224,0.367,0.707,0.83,0.583
1.031,0.699,-0.332,-0.865,0.681,0.183,-0.774,-1.522,-0.245,0.801,1.188,1.078
0.952,0.485,-0.468,-0.718,0.71,0.009,-0.836,-1.928,-0.781,0.273,0.638,0.831
0.13,-0.068,-0.197,-0.031,0.163,-0.132,-0.309,-1.427,-1.26,-0.71,-0.323,0.087
-0.233,-0.293,-0.06,0.263,-0.086,-0.176,0.064,-0.929,-1.2,-1.026,-0.703,-0.318
-0.18,-0.214,-0.034,0.197,-0.073,-0.123,0.134,-0.456,-0.572,-0.531,-0.42,-0.258
-0.085,-0.083,0.002,0.084,-0.043,-0.04,0.134,-0.106,-0.21,-0.244,-0.193,-0.169
-0.037,-0.01,0.027,0.023,-0.032,0.009,0.105,0.04,-0.054,-0.133,-0.119,-0.115
-0.026,0.028,0.055,-0.001,-0.041,0.041,0.073,0.078,-0.028,-0.093,-0.09,-0.077
0.0,0.054,0.054,-0.028,-0.027,0.054,0.076,0.101,-0.01,-0.069,-0.083,-0.071
0.024,0.075,0.051,-0.05,-0.013,0.063,0.082,0.113,0.005,-0.06,-0.072,-0.069
0.016,0.067,0.051,-0.041,-0.018,0.059,0.093,0.114,0.013,-0.071,-0.072,-0.069
0.005,0.061,0.055,-0.034,-0.025,0.058,0.101,0.13,0.03,-0.059,-0.062,-0.064
0.032,0.088,0.055,-0.061,-0.012,0.071,0.132,0.132,0.031,-0.059,-0.06,-0.066
0.04,0.091,0.051,-0.066,-0.005,0.071,0.143,0.146,0.043,-0.047,-0.053,-0.065
0.042,0.089,0.047,-0.066,-0.002,0.067,0.135,0.174,0.054,-0.043,-0.05,-0.065
0.05,0.091,0.041,-0.071,0.005,0.066,0.135,0.179,0.071,-0.036,-0.046,-0.065
0.05,0.089,0.038,-0.07,0.006,0.063,0.13,0.198,0.091,-0.029,-0.04,-0.065
0.061,0.092,0.031,-0.077,0.015,0.061,0.13,0.222,0.124,-0.016,-0.03,-0.066
0.062,0.096,0.034,-0.079,0.014,0.065,0.137,0.256,0.135,-0.005,-0.02,-0.063
0.045,0.117,0.072,-0.082,-0.014,0.095,0.147,0.299,0.173,0.03,-0.01,-0.051
0.051,0.13,0.079,-0.091,-0.014,0.105,0.151,0.341,0.202,0.055,0.015,-0.036
0.053,0.135,0.082,-0.094,-0.015,0.108,0.153,0.374,0.214,0.061,0.034,-0.027
0.071,0.158,0.086,-0.115,-0.008,0.122,0.156,0.389,0.232,0.091,0.047,-0.013
0.116,0.161,0.045,-0.139,0.036,0.102,0.159,0.397,0.205,0.096,0.051,-0.01
0.091,0.158,0.067,-0.125,0.012,0.112,0.16,0.373,0.196,0.088,0.046,-0.013
0.051,0.155,0.104,-0.104,-0.027,0.13,0.155,0.354,0.186,0.087,0.045,0.002
0.088,0.154,0.067,-0.121,0.01,0.11,0.155,0.343,0.166,0.082,0.04,0.016
0.151,0.191,0.04,-0.172,0.055,0.116,0.154,0.322,0.17,0.082,0.04,0.038
0.151,0.213,0.061,-0.182,0.045,0.137,0.149,0.292,0.156,0.076,0.045,0.046
0.143,0.206,0.063,-0.175,0.039,0.134,0.151,0.244,0.121,0.077,0.053,0.044
0.15,0.205,0.055,-0.178,0.047,0.13,0.144,0.22,0.113,0.07,0.055,0.061
0.142,0.202,0.059,-0.172,0.042,0.13,0.121,0.194,0.099,0.055,0.056,0.067
0.151,0.199,0.047,-0.175,0.052,0.123,0.11,0.14,0.086,0.042,0.054,0.061
0.153,0.196,0.043,-0.175,0.055,0.119,0.11,0.11,0.093,0.041,0.055,0.059
0.165,0.194,0.029,-0.18,0.068,0.111,0.11,0.109,0.088,0.031,0.055,0.076
0.17,0.202,0.032,-0.187,0.069,0.117,0.11,0.11,0.091,0.029,0.048,0.087
0.172,0.202,0.03,-0.187,0.071,0.115,0.107,0.113,0.09,0.076,0.084,0.095
0.204,0.195,-0.009,-0.199,0.106,0.092,0.094,0.116,0.086,0.094,0.097,0.102
0.199,0.202,0.003,-0.2,0.098,0.102,0.082,0.114,0.106,0.1,0.091,0.095
0.163,0.187,0.024,-0.175,0.069,0.105,0.071,0.106,0.117,0.115,0.108,0.093
0.169,0.181,0.012,-0.175,0.078,0.096,0.057,0.094,0.114,0.112,0.097,0.089
0.195,0.191,-0.004,-0.193,0.1,0.093,0.053,0.082,0.104,0.102,0.084,0.079
0.216,0.19,-0.026,-0.203,0.121,0.082,0.055,0.077,0.086,0.083,0.076,0.061
0.202,0.188,-0.014,-0.195,0.108,0.087,0.059,0.081,0.079,0.08,0.069,0.052
0.191,0.185,-0.006,-0.188,0.098,0.089,0.06,0.079,0.069,0.08,0.062,0.056
0.171,0.185,0.014,-0.178,0.078,0.099,0.071,0.084,0.061,0.079,0.054,0.055
0.155,0.186,0.032,-0.17,0.061,0.109,0.086,0.085,0.054,0.081,0.047,0.055
0.179,0.207,0.028,-0.193,0.075,0.118,0.112,0.085,0.06,0.078,0.055,0.055
0.153,0.223,0.07,-0.188,0.042,0.146,0.178,0.116,0.08,0.085,0.081,0.053
0.176,0.236,0.059,-0.206,0.058,0.147,0.14,0.107,0.095,0.092,0.087,0.061
0.229,0.246,0.017,-0.238,0.106,0.131,0.037,0.068,0.099,0.091,0.081,0.071
0.256,0.246,-0.01,-0.251,0.132,0.118,-0.01,0.055,0.089,0.089,0.094,0.075
0.274,0.236,-0.038,-0.254,0.156,0.099,-0.04,0.045,0.086,0.093,0.112,0.072
0.224,0.191,-0.033,-0.207,0.128,0.079,-0.046,0.036,0.064,0.107,0.108,0.064
0.213,0.155,-0.058,-0.184,0.136,0.048,-0.062,0.022,0.03,0.066,0.087,0.058
0.23,0.145,-0.085,-0.187,0.157,0.03,-0.057,0.007,0.023,0.009,0.075,0.048
0.202,0.144,-0.058,-0.173,0.129,0.043,-0.02,-0.01,0.003,0.019,0.07,0.044
0.166,0.146,-0.02,-0.156,0.092,0.063,0.024,0.016,0.028,0.045,0.062,0.027
0.117,0.121,0.004,-0.119,0.056,0.062,0.037,0.017,0.01,0.019,0.043,0.004
0.095,0.087,-0.008,-0.091,0.051,0.039,0.034,0.007,-0.046,-0.017,0.009,-0.01
0.108,0.092,-0.015,-0.1,0.061,0.038,0.034,-0.005,-0.045,-0.023,0.007,-0.01
0.107,0.089,-0.018,-0.097,0.062,0.035,0.027,-0.026,-0.046,-0.031,-0.008,-0.019
0.098,0.097,0.0,-0.097,0.049,0.048,0.033,-0.02,-0.025,-0.015,0.006,-0.023
0.093,0.093,0.001,-0.093,0.045,0.047,0.028,-0.037,-0.046,-0.038,-0.005,-0.026
0.093,0.078,-0.015,-0.085,0.054,0.031,0.083,0.08,0.021,-0.001,-0.037,-0.05
0.13,0.114,-0.016,-0.121,0.073,0.049,0.14,0.24,0.153,0.057,0.005,-0.054
0.199,0.165,-0.034,-0.182,0.116,0.065,0.125,0.368,0.439,0.345,0.273,0.115
0.454,0.389,-0.065,-0.421,0.259,0.162,-0.233,-0.288,0.318,0.781,0.932,0.664
0.918,0.629,-0.289,-0.773,0.603,0.169,-0.86,-1.57,-0.343,0.805,1.225,1.126
0.833,0.451,-0.382,-0.642,0.608,0.034,-0.82,-1.795,-0.778,0.299,0.631,0.85
0.159,0.005,-0.154,-0.082,0.156,-0.074,-0.211,-1.255,-1.238,-0.73,-0.365,0.074
-0.196,-0.211,-0.015,0.204,-0.09,-0.113,0.111,-0.808,-1.129,-0.992,-0.718,-0.326
-0.14,-0.161,-0.02,0.15,-0.06,-0.09,0.157,-0.381,-0.505,-0.445,-0.38,-0.251
-0.029,-0.05,-0.021,0.04,-0.004,-0.035,0.141,-0.065,-0.171,-0.197,-0.185,-0.18
-0.005,0.026,0.031,-0.011,-0.018,0.028,0.091,0.054,-0.03,-0.088,-0.105,-0.125
-0.005,0.037,0.043,-0.016,-0.024,0.04,0.083,0.093,-0.011,-0.071,-0.076,-0.106
0.022,0.058,0.035,-0.04,-0.007,0.046,0.087,0.106,0.019,-0.061,-0.062,-0.097
0.029,0.066,0.037,-0.048,-0.005,0.052,0.08,0.108,0.035,-0.057,-0.035,-0.083
0.033,0.062,0.029,-0.048,0.002,0.045,0.081,0.122,0.063,-0.064,-0.044,-0.087
0.047,0.079,0.033,-0.063,0.007,0.056,0.079,0.126,0.075,-0.056,-0.048,-0.083
0.068,0.091,0.023,-0.08,0.023,0.057,0.076,0.135,0.067,-0.053,-0.048,-0.086
0.067,0.085,0.019,-0.076,0.024,0.052,0.074,0.142,0.072,-0.031,-0.043,-0.084
0.078,0.082,0.005,-0.08,0.036,0.043,0.075,0.164,0.097,-0.025,-0.047,-0.084
0.074,0.079,0.005,-0.077,0.034,0.042,0.075,0.183,0.125,-0.016,-0.044,-0.079
0.028,0.073,0.045,-0.051,-0.009,0.059,0.075,0.196,0.112,-0.017,-0.046,-0.076
0.02,0.084,0.063,-0.052,-0.022,0.073,0.076,0.223,0.125,-0.003,-0.042,-0.073
0.024,0.083,0.059,-0.054,-0.018,0.071,0.074,0.249,0.156,0.02,-0.023,-0.068
0.032,0.089,0.058,-0.06,-0.013,0.073,0.082,0.276,0.188,0.059,-0.004,-0.066
0.042,0.115,0.073,-0.079,-0.016,0.094,0.097,0.315,0.22,0.096,0.001,-0.061
0.049,0.12,0.071,-0.085,-0.011,0.095,0.092,0.336,0.239,0.095,0.013,-0.051
0.059,0.143,0.084,-0.101,-0.013,0.113,0.09,0.336,0.227,0.101,0.039,-0.043
0.057,0.151,0.093,-0.104,-0.018,0.122,0.085,0.334,0.212,0.102,0.047,-0.033
0.058,0.148,0.09,-0.103,-0.016,0.119,0.087,0.328,0.217,0.107,0.043,-0.02
0.106,0.191,0.085,-0.149,0.01,0.137,0.114,0.325,0.209,0.098,0.047,-0.006
0.139,0.213,0.074,-0.176,0.033,0.143,0.115,0.313,0.208,0.067,0.043,0.005
0.111,0.208,0.097,-0.16,0.007,0.153,0.101,0.29,0.195,0.065,0.045,0.013
0.125,0.211,0.086,-0.168,0.02,0.148,0.091,0.263,0.151,0.061,0.059,0.019
0.129,0.21,0.081,-0.169,0.023,0.146,0.079,0.235,0.14,0.06,0.055,0.027
0.125,0.208,0.083,-0.167,0.021,0.145,0.068,0.204,0.126,0.048,0.051,0.046
0.133,0.218,0.085,-0.176,0.024,0.151,0.057,0.171,0.101,0.062,0.069,0.064
0.128,0.212,0.084,-0.171,0.022,0.148,0.051,0.147,0.092,0.091,0.092,0.065
0.152,0.189,0.037,-0.171,0.058,0.113,0.046,0.128,0.074,0.076,0.097,0.065
0.149,0.184,0.035,-0.167,0.056,0.11,0.039,0.112,0.085,0.075,0.093,0.066
0.134,0.178,0.044,-0.156,0.045,0.111,0.034,0.105,0.109,0.088,0.097,0.066
0.143,0.169,0.026,-0.156,0.058,0.097,0.021,0.1,0.104,0.079,0.093,0.072
0.155,0.168,0.012,-0.162,0.071,0.09,0.014,0.096,0.113,0.094,0.1,0.076
0.131,0.151,0.02,-0.141,0.055,0.085,0.005,0.091,0.118,0.129,0.132,0.083
0.156,0.17,0.014,-0.163,0.071,0.092,0.001,0.087,0.118,0.12,0.136,0.086
0.248,0.214,-0.034,-0.231,0.141,0.089,0.029,0.081,0.134,0.122,0.135,0.086
0.233,0.206,-0.027,-0.219,0.13,0.089,0.044,0.07,0.113,0.136,0.156,0.092
0.201,0.199,-0.002,-0.2,0.101,0.098,0.038,0.059,0.111,0.124,0.142,0.083
0.207,0.193,-0.014,-0.2,0.11,0.089,0.039,0.047,0.094,0.091,0.104,0.061
0.193,0.185,-0.008,-0.189,0.1,0.088,0.033,0.041,0.058,0.078,0.091,0.04
0.187,0.173,-0.014,-0.18,0.1,0.08,0.035,0.038,0.053,0.089,0.101,0.037
0.17,0.176,0.006,-0.173,0.082,0.091,0.042,0.049,0.056,0.074,0.1,0.032
0.175,0.234,0.059,-0.205,0.058,0.146,0.085,0.092,0.087,0.062,0.101,0.029
0.224,0.28,0.056,-0.253,0.084,0.168,0.156,0.133,0.12,0.097,0.107,0.06
0.248,0.292,0.044,-0.27,0.102,0.167,0.095,0.107,0.142,0.105,0.101,0.071
0.246,0.293,0.047,-0.27,0.099,0.169,-0.023,0.067,0.141,0.104,0.115,0.078
0.303,0.295,-0.007,-0.299,0.155,0.143,-0.065,0.058,0.143,0.134,0.137,0.099
0.32,0.306,-0.013,-0.313,0.166,0.146,-0.075,0.045,0.149,0.122,0.142,0.108
0.282,0.276,-0.006,-0.279,0.144,0.135,-0.067,0.034,0.107,0.107,0.131,0.105
0.299,0.224,-0.075,-0.261,0.187,0.074,-0.061,0.001,0.062,0.086,0.093,0.068
0.291,0.199,-0.092,-0.245,0.191,0.053,-0.057,-0.036,0.052,0.053,0.083,0.045
0.213,0.18,-0.033,-0.197,0.123,0.073,-0.042,-0.045,0.034,0.066,0.096,0.061
0.13,0.169,0.039,-0.15,0.045,0.104,-0.008,-0.025,0.025,0.042,0.066,0.033
0.136,0.158,0.021,-0.148,0.057,0.09,0.012,-0.026,0.003,-0.033,0.012,-0.022
0.164,0.154,-0.01,-0.159,0.087,0.071,0.018,-0.015,-0.028,-0.033,-0.023,-0.04
0.138,0.149,0.011,-0.144,0.063,0.08,0.01,-0.024,-0.033,-0.024,-0.016,-0.038
0.12,0.141,0.021,-0.131,0.049,0.081,0.038,-0.013,-0.017,-0.024,0.0,-0.036
0.099,0.14,0.041,-0.119,0.029,0.09,0.036,-0.012,-0.016,-0.011,-0.001,-0.029
0.139,0.132,-0.007,-0.136,0.073,0.062,0.01,-0.025,-0.023,-0.013,0.003,-0.025
0.15,0.151,0.001,-0.15,0.074,0.076,0.077,0.109,0.052,0.004,0.014,-0.049
0.146,0.147,0.002,-0.146,0.072,0.074,0.102,0.255,0.222,0.075,0.026,-0.058
0.337,0.265,-0.072,-0.301,0.204,0.096,0.079,0.311,0.501,0.479,0.425,0.219
0.651,0.571,-0.08,-0.611,0.365,0.245,-0.362,-0.534,0.177,0.841,1.116,0.861
0.987,0.754,-0.233,-0.87,0.61,0.26,-0.919,-1.661,-0.459,0.809,1.253,1.229
0.731,0.468,-0.262,-0.599,0.496,0.103,-0.69,-1.624,-0.871,0.143,0.494,0.741
0.027,-0.026,-0.053,0.0,0.04,-0.04,-0.114,-1.118,-1.29,-0.911,-0.534,-0.074
-0.16,-0.166,-0.006,0.163,-0.077,-0.085,0.143,-0.701,-0.987,-0.901,-0.692,-0.35
-0.075,-0.113,-0.038,0.094,-0.018,-0.075,0.149,-0.311,-0.416,-0.388,-0.337,-0.262
0.005,-0.013,-0.018,0.004,0.012,-0.015,0.117,-0.042,-0.133,-0.2,-0.195,-0.177
0.084,0.085,0.001,-0.084,0.041,0.042,0.081,0.066,-0.02,-0.096,-0.121,-0.125
0.097,0.111,0.013,-0.104,0.042,0.062,0.067,0.1,-0.03,-0.092,-0.102,-0.125
0.086,0.103,0.017,-0.095,0.034,0.06,0.07,0.114,0.032,-0.082,-0.067,-0.113
0.103,0.117,0.014,-0.111,0.044,0.066,0.078,0.125,0.053,-0.079,-0.045,-0.098
0.167,0.182,0.015,-0.175,0.076,0.098,0.102,0.161,0.093,0.003,-0.038,-0.082
0.167,0.183,0.016,-0.175,0.075,0.099,0.099,0.178,0.11,-0.012,-0.039,-0.078
0.186,0.197,0.011,-0.192,0.087,0.104,0.1,0.187,0.1,-0.025,-0.035,-0.077
0.19,0.204,0.015,-0.197,0.087,0.109,0.101,0.184,0.111,0.006,-0.023,-0.072
0.171,0.2,0.029,-0.186,0.071,0.114,0.099,0.185,0.11,-0.046,-0.029,-0.071
0.187,0.209,0.022,-0.199,0.083,0.115,0.102,0.204,0.135,0.009,-0.015,-0.068
0.167,0.195,0.028,-0.181,0.069,0.111,0.106,0.226,0.176,0.053,-0.019,-0.065
0.169,0.19,0.021,-0.18,0.074,0.105,0.102,0.257,0.179,0.029,-0.022,-0.065
0.225,0.248,0.023,-0.237,0.101,0.135,0.113,0.3,0.209,0.063,0.028,-0.059
0.216,0.278,0.062,-0.248,0.077,0.17,0.133,0.316,0.252,0.083,0.08,-0.043
0.209,0.267,0.059,-0.238,0.075,0.163,0.134,0.352,0.268,0.077,0.076,-0.031
0.232,0.307,0.075,-0.269,0.078,0.191,0.132,0.393,0.323,0.132,0.09,-0.02
0.228,0.318,0.089,-0.273,0.069,0.203,0.128,0.388,0.308,0.144,0.109,-0.01
0.23,0.313,0.082,-0.272,0.073,0.198,0.124,0.378,0.264,0.115,0.074,0.0
0.236,0.32,0.083,-0.278,0.077,0.201,0.122,0.372,0.264,0.126,0.073,0.012
0.242,0.32,0.079,-0.281,0.082,0.199,0.115,0.357,0.247,0.124,0.093,0.023
0.237,0.317,0.08,-0.277,0.078,0.199,0.117,0.327,0.243,0.134,0.096,0.035
0.256,0.343,0.087,-0.299,0.084,0.214,0.127,0.301,0.232,0.108,0.103,0.045
0.262,0.347,0.085,-0.304,0.088,0.215,0.119,0.292,0.205,0.073,0.106,0.052
0.275,0.332,0.057,-0.304,0.109,0.194,0.104,0.27,0.19,0.086,0.103,0.065
0.26,0.334,0.074,-0.297,0.093,0.204,0.096,0.23,0.164,0.091,0.107,0.064
0.262,0.352,0.09,-0.308,0.086,0.221,0.094,0.206,0.151,0.077,0.102,0.079
0.342,0.417,0.075,-0.38,0.134,0.245,0.095,0.198,0.159,0.089,0.121,0.11
0.366,0.435,0.07,-0.401,0.148,0.252,0.095,0.187,0.16,0.109,0.139,0.115
0.364,0.425,0.061,-0.395,0.151,0.243,0.095,0.185,0.164,0.106,0.138,0.124
0.368,0.435,0.068,-0.402,0.15,0.251,0.094,0.185,0.168,0.128,0.164,0.139
0.409,0.457,0.048,-0.434,0.18,0.253,0.089,0.181,0.176,0.145,0.164,0.151
0.439,0.489,0.051,-0.464,0.194,0.27,0.086,0.179,0.201,0.184,0.196,0.154
0.41,0.471,0.061,-0.441,0.174,0.266,0.083,0.18,0.195,0.199,0.229,0.149
0.398,0.454,0.056,-0.426,0.171,0.255,0.078,0.18,0.211,0.212,0.218,0.151
0.411,0.474,0.063,-0.443,0.174,0.268,0.075,0.18,0.228,0.229,0.217,0.147
0.432,0.486,0.054,-0.459,0.188,0.27,0.082,0.18,0.213,0.205,0.211,0.145
0.464,0.506,0.042,-0.485,0.211,0.274,0.111,0.179,0.228,0.216,0.207,0.145
0.491,0.512,0.021,-0.502,0.235,0.266,0.129,0.181,0.212,0.209,0.201,0.149
0.474,0.53,0.056,-0.502,0.209,0.292,0.134,0.177,0.196,0.203,0.21,0.161
0.465,0.55,0.085,-0.508,0.19,0.317,0.135,0.174,0.19,0.194,0.207,0.165
0.464,0.541,0.077,-0.503,0.193,0.309,0.14,0.168,0.18,0.177,0.196,0.166
0.468,0.575,0.107,-0.521,0.18,0.341,0.21,0.198,0.206,0.175,0.191,0.163
0.524,0.631,0.107,-0.578,0.208,0.369,0.27,0.259,0.253,0.207,0.223,0.174
0.545,0.636,0.091,-0.591,0.227,0.363,0.213,0.251,0.277,0.263,0.271,0.194
0.499,0.595,0.096,-0.547,0.201,0.345,0.107,0.18,0.236,0.239,0.243,0.182
0.46,0.549,0.088,-0.505,0.186,0.318,0.04,0.135,0.19,0.203,0.221,0.171
0.449,0.499,0.05,-0.474,0.199,0.274,0.014,0.132,0.189,0.197,0.221,0.159
0.401,0.434,0.033,-0.418,0.184,0.233,-0.007,0.093,0.165,0.164,0.204,0.145
0.353,0.359,0.006,-0.356,0.173,0.182,-0.035,0.058,0.11,0.117,0.166,0.132
0.328,0.304,-0.024,-0.315,0.176,0.14,-0.042,0.057,0.092,0.108,0.127,0.113
0.241,0.267,0.026,-0.254,0.108,0.146,-0.016,0.043,0.085,0.102,0.122,0.091
0.167,0.235,0.067,-0.201,0.05,0.151,0.027,0.046,0.071,0.078,0.09,0.046
0.128,0.2,0.072,-0.164,0.028,0.136,0.038,0.028,0.046,0.039,0.055,0.017
0.111,0.182,0.071,-0.147,0.02,0.126,0.044,0.035,0.049,0.04,0.053,0.011
0.11,0.176,0.066,-0.143,0.022,0.121,0.044,0.025,0.034,0.049,0.058,0.012
0.111,0.168,0.057,-0.14,0.027,0.113,0.05,0.032,0.037,-0.001,0.043,0.002
0.105,0.162,0.057,-0.134,0.024,0.109,0.05,0.032,0.048,0.011,0.054,0.005
0.107,0.151,0.044,-0.129,0.031,0.097,0.037,0.018,0.01,0.009,0.019,-0.006
0.109,0.152,0.043,-0.13,0.033,0.097,0.086,0.124,0.077,0.007,-0.017,-0.051
0.118,0.138,0.02,-0.128,0.048,0.079,0.106,0.267,0.254,0.107,0.057,-0.044
0.241,0.264,0.023,-0.252,0.109,0.143,0.068,0.319,0.516,0.49,0.45,0.237
0.557,0.568,0.01,-0.562,0.273,0.289,-0.363,-0.552,0.187,0.877,1.158,0.888
0.92,0.73,-0.19,-0.825,0.555,0.269,-0.913,-1.658,-0.448,0.843,1.299,1.227
0.643,0.448,-0.195,-0.545,0.419,0.126,-0.688,-1.604,-0.858,0.126,0.466,0.72
-0.001,-0.015,-0.014,0.008,0.006,-0.014,-0.105,-1.103,-1.262,-0.904,-0.525,-0.068
-0.224,-0.184,0.039,0.204,-0.131,-0.072,0.144,-0.686,-0.966,-0.901,-0.664,-0.333
-0.128,-0.116,0.012,0.122,-0.07,-0.052,0.171,-0.283,-0.38,-0.393,-0.331,-0.239
0.01,0.03,0.02,-0.02,-0.005,0.025,0.131,-0.018,-0.089,-0.179,-0.161,-0.164
0.021,0.101,0.079,-0.061,-0.029,0.09,0.082,0.081,0.062,-0.063,-0.068,-0.102
0.041,0.114,0.073,-0.078,-0.016,0.094,0.07,0.112,0.063,-0.074,-0.069,-0.092
0.057,0.127,0.07,-0.092,-0.007,0.098,0.06,0.132,0.077,-0.056,-0.054,-0.086
0.042,0.112,0.07,-0.077,-0.014,0.091,0.06,0.143,0.087,-0.053,-0.046,-0.083
0.049,0.112,0.063,-0.082,-0.007,0.087,0.06,0.154,0.083,-0.048,-0.052,-0.08
0.036,0.102,0.066,-0.07,-0.015,0.084,0.061,0.157,0.106,-0.037,-0.048,-0.074
0.071,0.129,0.058,-0.1,0.006,0.093,0.07,0.172,0.134,-0.034,-0.052,-0.076
0.091,0.153,0.061,-0.122,0.015,0.107,0.07,0.18,0.141,-0.019,-0.048,-0.074
0.081,0.138,0.057,-0.109,0.011,0.097,0.094,0.188,0.131,-0.016,-0.052,-0.076
0.081,0.136,0.054,-0.109,0.013,0.095,0.101,0.217,0.163,0.012,-0.045,-0.075
0.07,0.126,0.056,-0.098,0.006,0.091,0.09,0.245,0.172,0.032,-0.035,-0.075
0.063,0.116,0.053,-0.09,0.005,0.084,0.091,0.265,0.195,0.049,-0.025,-0.075
0.071,0.132,0.062,-0.102,0.004,0.097,0.082,0.276,0.244,0.076,-0.008,-0.069
0.064,0.132,0.068,-0.098,-0.003,0.1,0.083,0.297,0.247,0.081,0.012,-0.063
0.074,0.153,0.079,-0.114,-0.003,0.116,0.094,0.336,0.293,0.081,0.026,-0.056
0.073,0.179,0.106,-0.126,-0.017,0.142,0.094,0.351,0.305,0.092,0.04,-0.042
0.064,0.166,0.103,-0.115,-0.02,0.134,0.085,0.342,0.287,0.108,0.064,-0.028
0.07,0.165,0.095,-0.118,-0.013,0.13,0.089,0.336,0.285,0.109,0.067,-0.019
0.068,0.16,0.092,-0.114,-0.012,0.126,0.1,0.329,0.275,0.104,0.062,-0.013
0.071,0.154,0.084,-0.113,-0.007,0.119,0.095,0.321,0.245,0.097,0.067,-0.005
0.06,0.168,0.109,-0.114,-0.025,0.138,0.087,0.308,0.213,0.091,0.064,0.0
0.078,0.207,0.128,-0.143,-0.025,0.167,0.081,0.293,0.234,0.083,0.067,0.009
0.108,0.226,0.119,-0.167,-0.006,0.172,0.074,0.267,0.217,0.078,0.084,0.022
0.106,0.215,0.11,-0.161,-0.002,0.162,0.069,0.224,0.174,0.069,0.072,0.019
0.095,0.2,0.104,-0.148,-0.005,0.152,0.055,0.187,0.136,0.055,0.054,0.02
0.079,0.184,0.105,-0.132,-0.013,0.145,0.037,0.154,0.107,0.049,0.049,0.02
0.068,0.173,0.105,-0.121,-0.018,0.139,0.026,0.12,0.102,0.02,0.037,0.02
0.078,0.177,0.1,-0.128,-0.012,0.138,0.019,0.104,0.087,0.061,0.066,0.039
0.076,0.168,0.091,-0.122,-0.008,0.129,0.016,0.106,0.084,0.058,0.089,0.046
0.056,0.135,0.08,-0.096,-0.012,0.107,0.008,0.104,0.084,0.008,0.083,0.048
0.081,0.149,0.068,-0.115,0.007,0.108,0.005,0.1,0.092,0.064,0.087,0.051
0.104,0.162,0.058,-0.133,0.023,0.11,-0.005,0.1,0.115,0.075,0.081,0.058
0.108,0.163,0.055,-0.136,0.027,0.109,-0.018,0.097,0.133,0.101,0.109,0.062
0.107,0.154,0.047,-0.13,0.029,0.1,-0.009,0.088,0.141,0.125,0.127,0.049
0.067,0.112,0.045,-0.09,0.011,0.078,-0.024,0.077,0.129,0.106,0.105,0.037
0.046,0.08,0.034,-0.063,0.006,0.057,-0.034,0.068,0.114,0.096,0.092,0.029
0.036,0.074,0.038,-0.055,-0.002,0.056,-0.019,0.059,0.089,0.05,0.08,0.023
0.029,0.082,0.053,-0.056,-0.012,0.068,-0.016,0.05,0.083,0.063,0.068,0.016
0.047,0.1,0.053,-0.073,-0.003,0.076,0.002,0.046,0.086,0.063,0.058,0.01
0.069,0.113,0.044,-0.092,0.013,0.078,0.007,0.052,0.083,0.035,0.055,0.002
0.075,0.124,0.049,-0.1,0.013,0.086,0.029,0.054,0.087,0.049,0.054,0.003
0.062,0.171,0.11,-0.117,-0.024,0.14,0.066,0.066,0.08,0.071,0.064,0.018
0.075,0.191,0.116,-0.134,-0.021,0.153,0.102,0.107,0.116,0.086,0.09,0.031
0.086,0.17,0.084,-0.128,0.001,0.127,0.081,0.096,0.12,0.051,0.106,0.041
0.083,0.163,0.08,-0.123,0.001,0.121,-0.016,0.061,0.077,0.041,0.099,0.044
0.094,0.154,0.06,-0.124,0.017,0.107,-0.076,0.049,0.07,0.056,0.097,0.05
0.098,0.144,0.046,-0.121,0.026,0.095,-0.094,0.027,0.06,0.063,0.09,0.048
0.125,0.138,0.013,-0.131,0.056,0.075,-0.092,0.003,0.054,0.065,0.088,0.041
0.135,0.1,-0.035,-0.118,0.085,0.032,-0.085,-0.036,0.044,0.042,0.081,0.035
0.127,0.054,-0.073,-0.09,0.1,-0.009,-0.083,-0.051,0.036,0.027,0.074,0.024
0.073,0.043,-0.029,-0.058,0.051,0.007,-0.071,-0.048,0.013,0.014,0.068,-0.001
-0.015,0.037,0.052,-0.011,-0.034,0.044,-0.028,-0.042,0.005,0.009,0.016,-0.04
-0.04,0.016,0.056,0.012,-0.048,0.036,-0.01,-0.048,-0.006,-0.038,-0.026,-0.058
-0.051,-0.014,0.037,0.032,-0.043,0.011,-0.01,-0.037,-0.038,-0.086,-0.048,-0.068
-0.042,-0.024,0.018,0.033,-0.03,-0.002,-0.008,-0.041,-0.056,-0.086,-0.047,-0.061
-0.071,-0.038,0.033,0.054,-0.052,-0.003,-0.021,-0.043,-0.047,-0.097,-0.056,-0.075
-0.105,-0.046,0.059,0.075,-0.082,0.006,-0.026,-0.04,-0.025,-0.081,-0.041,-0.093
-0.072,-0.051,0.021,0.062,-0.047,-0.015,-0.028,-0.053,-0.056,-0.101,-0.055,-0.099
-0.079,-0.057,0.022,0.068,-0.05,-0.017,0.021,0.053,0.013,-0.079,-0.081,-0.119
-0.065,-0.051,0.014,0.058,-0.039,-0.018,0.042,0.171,0.141,-0.029,-0.061,-0.135
0.029,0.02,-0.009,-0.025,0.019,0.006,0.038,0.262,0.409,0.312,0.26,0.077
0.327,0.31,-0.017,-0.318,0.172,0.146,-0.365,-0.507,0.183,0.77,0.989,0.709
0.736,0.518,-0.217,-0.627,0.476,0.15,-0.986,-1.741,-0.495,0.776,1.228,1.127
0.545,0.253,-0.292,-0.399,0.418,-0.019,-0.857,-1.822,-0.899,0.173,0.513,0.722
-0.128,-0.228,-0.1,0.178,-0.014,-0.164,-0.256,-1.289,-1.352,-0.904,-0.527,-0.08
-0.409,-0.416,-0.006,0.412,-0.201,-0.211,0.067,-0.833,-1.139,-1.046,-0.788,-0.412
-0.314,-0.33,-0.016,0.322,-0.149,-0.173,0.096,-0.409,-0.503,-0.494,-0.427,-0.318
-0.249,-0.23,0.019,0.239,-0.134,-0.105,0.078,-0.107,-0.205,-0.283,-0.271,-0.257
-0.209,-0.163,0.047,0.186,-0.128,-0.058,0.047,0.011,-0.057,-0.179,-0.197,-0.208
-0.156,-0.126,0.03,0.14,-0.093,-0.048,0.017,0.035,-0.034,-0.163,-0.154,-0.191
-0.122,-0.091,0.031,0.107,-0.077,-0.03,0.023,0.066,0.0,-0.116,-0.128,-0.181
-0.1,-0.074,0.025,0.087,-0.062,-0.024,0.012,0.085,0.011,-0.108,-0.117,-0.168
-0.094,-0.076,0.018,0.084,-0.055,-0.028,0.024,0.103,0.03,-0.114,-0.12,-0.163
-0.099,-0.074,0.026,0.086,-0.062,-0.024,0.047,0.111,0.039,-0.106,-0.112,-0.158
-0.115,-0.078,0.037,0.096,-0.075,-0.021,0.041,0.128,0.045,-0.114,-0.113,-0.161
-0.113,-0.08,0.032,0.096,-0.072,-0.024,0.038,0.142,0.064,-0.107,-0.108,-0.159
-0.109,-0.079,0.03,0.094,-0.069,-0.025,0.036,0.151,0.063,-0.108,-0.107,-0.161
-0.118,-0.091,0.026,0.104,-0.072,-0.032,0.027,0.153,0.075,-0.095,-0.099,-0.16
-0.108,-0.083,0.025,0.095,-0.066,-0.029,0.044,0.175,0.079,-0.09,-0.092,-0.157
-0.076,-0.056,0.02,0.066,-0.048,-0.018,0.062,0.217,0.111,-0.075,-0.086,-0.152
-0.058,-0.044,0.014,0.05,-0.036,-0.014,0.061,0.243,0.16,-0.062,-0.078,-0.148
-0.077,-0.029,0.048,0.052,-0.062,0.009,0.053,0.276,0.182,-0.044,-0.064,-0.134
-0.052,0.013,0.065,0.019,-0.058,0.038,0.064,0.324,0.208,-0.023,-0.049,-0.114
-0.014,0.053,0.067,-0.02,-0.041,0.06,0.096,0.352,0.219,-0.01,-0.042,-0.106
-0.034,0.05,0.084,-0.008,-0.059,0.067,0.097,0.35,0.21,-0.004,-0.029,-0.094
-0.044,0.041,0.084,0.001,-0.064,0.062,0.094,0.351,0.202,0.007,-0.021,-0.08
-0.052,0.033,0.086,0.009,-0.069,0.059,0.092,0.348,0.195,0.011,-0.015,-0.067
-0.055,0.026,0.081,0.015,-0.068,0.053,0.089,0.327,0.183,0.013,-0.005,-0.053
-0.061,0.018,0.079,0.022,-0.071,0.048,0.087,0.29,0.147,0.017,-0.038,-0.066
-0.074,0.008,0.081,0.033,-0.078,0.044,0.071,0.262,0.122,-0.016,-0.056,-0.073
-0.069,0.001,0.069,0.034,-0.069,0.035,0.059,0.249,0.111,-0.031,-0.042,-0.06
-0.093,-0.011,0.082,0.052,-0.087,0.035,0.047,0.205,0.093,-0.039,-0.039,-0.054
-0.085,-0.012,0.073,0.048,-0.079,0.031,0.039,0.161,0.073,-0.057,-0.031,-0.044
-0.063,0.004,0.066,0.029,-0.065,0.035,0.03,0.133,0.046,-0.054,-0.026,-0.035
-0.049,0.017,0.066,0.016,-0.058,0.041,0.022,0.098,0.026,-0.056,-0.021,-0.025
-0.036,0.014,0.051,0.011,-0.044,0.032,0.018,0.073,0.025,-0.055,-0.017,-0.019
-0.049,0.008,0.058,0.02,-0.054,0.033,0.013,0.057,0.026,-0.055,-0.012,-0.021
-0.053,-0.001,0.052,0.027,-0.053,0.025,0.009,0.048,0.024,-0.053,-0.009,-0.017
-0.05,-0.003,0.047,0.026,-0.048,0.022,0.004,0.05,0.027,-0.042,-0.004,-0.015
-0.058,-0.024,0.035,0.041,-0.046,0.006,0.001,0.05,0.028,-0.032,-0.001,-0.015
-0.091,-0.06,0.031,0.075,-0.061,-0.014,-0.006,0.05,0.035,-0.024,0.007,-0.018
-0.062,-0.055,0.007,0.058,-0.034,-0.024,-0.009,0.05,0.039,-0.018,0.018,-0.022
-0.024,-0.045,-0.021,0.035,-0.001,-0.033,-0.014,0.05,0.046,-0.014,0.015,-0.025
-0.068,-0.04,0.028,0.054,-0.048,-0.006,-0.019,0.046,0.059,-0.007,0.015,-0.028
-0.084,-0.04,0.044,0.062,-0.064,0.002,-0.019,0.034,0.046,-0.002,0.01,-0.031
-0.069,-0.039,0.03,0.054,-0.05,-0.004,-0.014,0.025,0.038,-0.002,0.011,-0.028
-0.079,-0.046,0.033,0.062,-0.055,-0.007,-0.015,0.014,0.027,-0.013,-0.002,-0.038
-0.089,-0.066,0.023,0.077,-0.055,-0.021,-0.015,0.01,0.02,-0.039,-0.025,-0.053
-0.082,-0.061,0.021,0.071,-0.051,-0.019,0.014,0.01,0.018,-0.047,-0.022,-0.048
-0.065,-0.025,0.04,0.045,-0.052,0.007,0.05,0.02,0.01,-0.016,-0.013,-0.041
-0.051,0.025,0.076,0.012,-0.063,0.05,0.105,0.059,0.052,0.029,-0.005,-0.034
-0.036,0.043,0.079,-0.004,-0.058,0.06,0.117,0.078,0.066,0.041,0.002,-0.028
-0.007,0.038,0.045,-0.016,-0.026,0.042,0.026,0.06,0.046,0.037,0.012,-0.017
0.018,0.042,0.024,-0.03,-0.003,0.032,-0.061,0.046,0.043,0.028,0.024,0.0
0.026,0.043,0.016,-0.035,0.005,0.029,-0.083,0.028,0.061,0.045,0.056,0.015
0.035,0.031,-0.004,-0.033,0.019,0.013,-0.079,0.01,0.062,0.045,0.057,0.015
0.032,0.001,-0.031,-0.016,0.032,-0.015,-0.08,-0.016,0.016,-0.002,0.021,0.006
0.045,-0.021,-0.066,-0.011,0.056,-0.044,-0.081,-0.044,0.006,-0.024,0.01,-0.007
0.027,-0.041,-0.068,0.007,0.048,-0.055,-0.073,-0.057,-0.008,-0.036,-0.002,-0.027
-0.018,-0.043,-0.025,0.031,0.004,-0.034,-0.037,-0.054,-0.015,-0.034,-0.012,-0.037
-0.05,-0.056,-0.007,0.053,-0.021,-0.032,-0.017,-0.054,-0.034,-0.049,-0.035,-0.058
-0.135,-0.124,0.011,0.129,-0.073,-0.056,-0.024,-0.058,-0.083,-0.107,-0.09,-0.1
-0.18,-0.163,0.017,0.171,-0.099,-0.072,-0.014,-0.049,-0.09,-0.133,-0.108,-0.112
-0.178,-0.18,-0.002,0.179,-0.088,-0.091,-0.033,-0.065,-0.103,-0.145,-0.11,-0.108
-0.165,-0.186,-0.021,0.176,-0.071,-0.104,-0.041,-0.057,-0.081,-0.145,-0.112,-0.113
-0.155,-0.184,-0.03,0.17,-0.062,-0.107,-0.051,-0.081,-0.103,-0.149,-0.105,-0.104
-0.175,-0.196,-0.021,0.186,-0.077,-0.109,-0.035,-0.014,-0.06,-0.139,-0.118,-0.127
-0.151,-0.163,-0.011,0.157,-0.07,-0.087,0.027,0.119,0.04,-0.088,-0.091,-0.155
-0.107,-0.119,-0.012,0.113,-0.047,-0.065,0.061,0.293,0.258,0.091,0.031,-0.08
0.075,0.058,-0.017,-0.066,0.046,0.02,-0.146,-0.057,0.352,0.552,0.596,0.356
0.528,0.358,-0.169,-0.443,0.348,0.094,-0.795,-1.408,-0.224,0.808,1.162,0.958
0.705,0.325,-0.38,-0.515,0.543,-0.028,-1.05,-2.091,-0.782,0.441,0.809,0.922
0.14,-0.135,-0.275,-0.002,0.208,-0.205,-0.502,-1.637,-1.244,-0.571,-0.208,0.188
-0.39,-0.468,-0.078,0.429,-0.156,-0.273,-0.024,-1.094,-1.344,-1.155,-0.81,-0.366
-0.405,-0.452,-0.047,0.429,-0.179,-0.249,0.079,-0.623,-0.759,-0.718,-0.6,-0.374
-0.306,-0.334,-0.027,0.32,-0.139,-0.18,0.072,-0.231,-0.312,-0.356,-0.322,-0.282
-0.23,-0.231,0.0,0.23,-0.115,-0.115,0.028,-0.049,-0.116,-0.221,-0.23,-0.219
-0.201,-0.196,0.005,0.198,-0.103,-0.095,0.009,-0.012,-0.059,-0.16,-0.181,-0.176
-0.196,-0.187,0.009,0.191,-0.102,-0.088,0.03,0.031,-0.037,-0.151,-0.164,-0.173
-0.194,-0.178,0.017,0.186,-0.105,-0.08,0.03,0.038,-0.015,-0.126,-0.148,-0.167
-0.211,-0.178,0.033,0.194,-0.121,-0.073,0.03,0.04,-0.012,-0.135,-0.151,-0.172
-0.213,-0.171,0.043,0.192,-0.128,-0.064,0.03,0.047,0.004,-0.12,-0.142,-0.168
-0.212,-0.173,0.039,0.192,-0.125,-0.067,0.033,0.049,0.006,-0.122,-0.139,-0.171
-0.195,-0.162,0.033,0.178,-0.114,-0.064,0.045,0.059,0.015,-0.115,-0.135,-0.167
-0.157,-0.127,0.03,0.142,-0.093,-0.049,0.061,0.079,0.032,-0.107,-0.128,-0.162
-0.143,-0.118,0.025,0.13,-0.084,-0.046,0.073,0.11,0.059,-0.088,-0.118,-0.158
-0.141,-0.12,0.02,0.13,-0.08,-0.05,0.073,0.132,0.069,-0.073,-0.107,-0.153
-0.14,-0.121,0.018,0.13,-0.079,-0.052,0.078,0.163,0.091,-0.067,-0.098,-0.149
-0.166,-0.124,0.042,0.145,-0.103,-0.041,0.081,0.195,0.124,-0.052,-0.089,-0.145
-0.179,-0.127,0.052,0.153,-0.115,-0.037,0.085,0.224,0.148,-0.039,-0.083,-0.138
-0.162,-0.115,0.047,0.138,-0.104,-0.034,0.094,0.267,0.169,-0.025,-0.077,-0.128
-0.147,-0.072,0.075,0.11,-0.111,0.001,0.092,0.307,0.197,0.003,-0.054,-0.117
-0.115,-0.034,0.081,0.075,-0.098,0.023,0.091,0.308,0.198,0.018,-0.039,-0.104
-0.097,-0.015,0.082,0.056,-0.089,0.033,0.104,0.299,0.185,0.014,-0.045,-0.09
-0.097,-0.005,0.092,0.051,-0.094,0.043,0.113,0.293,0.179,0.016,-0.036,-0.077
-0.084,0.0,0.084,0.042,-0.084,0.042,0.116,0.286,0.168,0.013,-0.031,-0.069
-0.109,-0.028,0.081,0.068,-0.094,0.026,0.098,0.263,0.154,0.007,-0.045,-0.061
-0.105,-0.031,0.074,0.068,-0.089,0.021,0.085,0.232,0.132,-0.002,-0.051,-0.053
-0.079,-0.011,0.069,0.045,-0.074,0.029,0.079,0.212,0.113,-0.006,-0.049,-0.045
-0.081,-0.017,0.064,0.049,-0.072,0.023,0.074,0.188,0.093,-0.018,-0.05,-0.041
-0.069,-0.013,0.056,0.04,-0.062,0.021,0.052,0.156,0.062,-0.037,-0.05,-0.038
-0.089,-0.04,0.049,0.065,-0.069,0.004,0.01,0.112,0.029,-0.048,-0.05,-0.035
-0.111,-0.068,0.043,0.089,-0.076,-0.012,-0.001,0.071,0.005,-0.058,-0.045,-0.032
-0.097,-0.062,0.036,0.079,-0.066,-0.013,0.001,0.044,0.001,-0.051,-0.038,-0.03
-0.088,-0.058,0.03,0.073,-0.059,-0.014,0.0,0.036,-0.006,-0.039,-0.034,-0.027
-0.079,-0.053,0.025,0.066,-0.052,-0.014,0.0,0.031,-0.009,-0.03,-0.023,-0.017
-0.067,-0.049,0.019,0.058,-0.043,-0.015,0.001,0.026,0.019,-0.004,-0.003,-0.007
-0.06,-0.045,0.015,0.052,-0.037,-0.015,-0.011,0.019,0.039,0.014,0.014,-0.005
-0.054,-0.049,0.004,0.051,-0.029,-0.022,-0.036,0.018,0.048,0.027,0.02,-0.005
-0.058,-0.051,0.008,0.054,-0.033,-0.021,-0.035,0.034,0.059,0.031,0.031,-0.005
-0.066,-0.049,0.018,0.057,-0.042,-0.015,-0.035,0.031,0.064,0.034,0.033,-0.005
-0.062,-0.052,0.01,0.057,-0.036,-0.021,-0.036,0.024,0.07,0.046,0.026,-0.004
-0.055,-0.047,0.009,0.051,-0.032,-0.019,-0.031,0.02,0.061,0.037,0.02,-0.008
-0.066,-0.061,0.005,0.063,-0.036,-0.028,-0.031,0.012,0.049,0.025,0.012,-0.021
-0.079,-0.08,-0.001,0.08,-0.039,-0.041,-0.027,0.012,0.043,0.024,0.007,-0.032
-0.086,-0.081,0.005,0.083,-0.045,-0.038,-0.026,0.018,0.044,0.004,-0.014,-0.043
-0.07,-0.073,-0.002,0.071,-0.034,-0.037,-0.021,0.03,0.046,-0.028,-0.031,-0.047
-0.048,-0.036,0.012,0.042,-0.03,-0.012,0.014,0.034,0.044,-0.006,-0.02,-0.039
-0.053,0.0,0.053,0.026,-0.053,0.026,0.082,0.064,0.054,0.021,-0.007,-0.031
-0.05,0.021,0.071,0.015,-0.061,0.045,0.113,0.088,0.055,0.019,0.001,-0.024
-0.026,0.021,0.047,0.002,-0.037,0.033,0.044,0.05,0.051,0.031,0.013,-0.015
-0.009,0.012,0.021,-0.002,-0.015,0.016,-0.062,0.018,0.049,0.017,0.018,-0.01
-0.012,0.006,0.018,0.003,-0.015,0.012,-0.11,0.007,0.043,0.031,0.032,-0.001
0.029,0.0,-0.029,-0.014,0.029,-0.014,-0.111,-0.003,0.041,0.042,0.037,0.007
0.049,-0.012,-0.061,-0.019,0.055,-0.036,-0.109,-0.02,0.029,0.001,0.018,0.0
0.049,-0.038,-0.087,-0.005,0.069,-0.063,-0.112,-0.048,0.003,-0.009,-0.001,-0.023
0.024,-0.064,-0.088,0.02,0.056,-0.076,-0.104,-0.077,-0.018,-0.028,-0.012,-0.041
-0.074,-0.103,-0.029,0.088,-0.022,-0.065,-0.051,-0.082,-0.022,-0.062,-0.023,-0.05
-0.137,-0.151,-0.014,0.144,-0.061,-0.082,-0.037,-0.077,-0.039,-0.07,-0.063,-0.082
-0.172,-0.179,-0.006,0.176,-0.083,-0.092,-0.049,-0.083,-0.082,-0.097,-0.099,-0.115
-0.17,-0.182,-0.011,0.176,-0.079,-0.096,-0.043,-0.079,-0.095,-0.113,-0.1,-0.12
-0.177,-0.166,0.011,0.171,-0.093,-0.078,-0.056,-0.102,-0.113,-0.123,-0.099,-0.119
-0.195,-0.171,0.024,0.183,-0.109,-0.073,-0.047,-0.073,-0.097,-0.12,-0.103,-0.122
-0.195,-0.192,0.003,0.193,-0.099,-0.094,-0.064,-0.081,-0.111,-0.116,-0.105,-0.121
-0.19,-0.21,-0.019,0.2,-0.085,-0.114,-0.026,-0.054,-0.097,-0.129,-0.131,-0.135
-0.193,-0.227,-0.034,0.211,-0.079,-0.131,0.048,0.072,0.0,-0.097,-0.135,-0.172
-0.166,-0.191,-0.025,0.179,-0.071,-0.107,0.087,0.27,0.193,0.029,-0.051,-0.139
0.009,-0.005,-0.014,-0.002,0.011,-0.01,-0.031,0.122,0.404,0.468,0.437,0.223
0.429,0.28,-0.149,-0.354,0.288,0.065,-0.662,-1.154,-0.052,0.801,1.059,0.796
0.75,0.317,-0.433,-0.533,0.592,-0.058,-1.091,-2.141,-0.682,0.541,0.905,0.911
0.29,-0.097,-0.387,-0.097,0.339,-0.241,-0.646,-1.811,-1.172,-0.38,-0.03,0.312
-0.386,-0.516,-0.129,0.451,-0.128,-0.322,-0.104,-1.23,-1.432,-1.15,-0.789,-0.338
-0.489,-0.536,-0.048,0.513,-0.22,-0.292,0.042,-0.729,-0.903,-0.835,-0.68,-0.428
-0.362,-0.4,-0.038,0.381,-0.162,-0.218,0.073,-0.269,-0.359,-0.383,-0.356,-0.302
-0.28,-0.296,-0.017,0.288,-0.131,-0.156,0.063,-0.036,-0.146,-0.247,-0.249,-0.25
-0.247,-0.238,0.009,0.242,-0.128,-0.114,0.031,0.022,-0.069,-0.171,-0.188,-0.2
-0.224,-0.23,-0.006,0.227,-0.109,-0.118,0.033,0.057,-0.048,-0.163,-0.192,-0.183
-0.209,-0.222,-0.012,0.216,-0.098,-0.117,0.024,0.077,-0.026,-0.134,-0.178,-0.178
-0.222,-0.216,0.006,0.219,-0.114,-0.104,0.02,0.081,-0.036,-0.134,-0.175,-0.177
-0.217,-0.211,0.006,0.213,-0.111,-0.102,0.014,0.079,-0.014,-0.111,-0.158,-0.173
-0.228,-0.208,0.02,0.218,-0.124,-0.094,0.005,0.09,0.0,-0.101,-0.14,-0.17
-0.253,-0.206,0.047,0.229,-0.149,-0.079,-0.003,0.116,0.013,-0.095,-0.138,-0.171
-0.248,-0.201,0.047,0.225,-0.147,-0.077,0.006,0.128,0.02,-0.086,-0.13,-0.17
-0.221,-0.201,0.02,0.21,-0.12,-0.09,0.015,0.13,0.028,-0.082,-0.128,-0.17
-0.214,-0.194,0.02,0.204,-0.117,-0.086,0.018,0.145,0.048,-0.073,-0.122,-0.169
-0.212,-0.172,0.039,0.192,-0.125,-0.066,0.042,0.179,0.081,-0.069,-0.119,-0.165
-0.197,-0.157,0.04,0.177,-0.118,-0.058,0.059,0.224,0.115,-0.057,-0.112,-0.165
-0.184,-0.148,0.036,0.166,-0.11,-0.056,0.052,0.267,0.134,-0.046,-0.107,-0.162
-0.165,-0.137,0.028,0.151,-0.097,-0.054,0.06,0.297,0.162,-0.036,-0.098,-0.154
-0.171,-0.128,0.043,0.149,-0.106,-0.043,0.087,0.322,0.178,-0.029,-0.083,-0.146
-0.201,-0.123,0.078,0.162,-0.139,-0.023,0.092,0.32,0.172,-0.022,-0.07,-0.138
-0.193,-0.12,0.073,0.156,-0.133,-0.023,0.089,0.31,0.171,-0.015,-0.064,-0.131
-0.162,-0.117,0.046,0.139,-0.104,-0.035,0.086,0.304,0.166,-0.009,-0.065,-0.122
-0.179,-0.111,0.068,0.145,-0.123,-0.022,0.084,0.296,0.167,-0.004,-0.065,-0.114
-0.2,-0.111,0.089,0.155,-0.144,-0.01,0.085,0.288,0.15,-0.027,-0.065,-0.105
-0.167,-0.091,0.076,0.129,-0.122,-0.008,0.077,0.267,0.113,-0.051,-0.065,-0.097
-0.154,-0.072,0.082,0.113,-0.117,0.004,0.072,0.231,0.094,-0.052,-0.068,-0.091
-0.163,-0.077,0.086,0.12,-0.124,0.004,0.063,0.185,0.083,-0.056,-0.071,-0.084
-0.144,-0.079,0.065,0.111,-0.104,-0.007,0.059,0.156,0.059,-0.06,-0.075,-0.078
-0.145,-0.104,0.041,0.125,-0.093,-0.031,0.043,0.111,0.022,-0.058,-0.074,-0.071
-0.163,-0.123,0.04,0.143,-0.101,-0.042,0.013,0.044,0.003,-0.053,-0.067,-0.064
-0.157,-0.117,0.04,0.137,-0.098,-0.039,0.001,0.002,-0.003,-0.05,-0.062,-0.057
-0.152,-0.116,0.036,0.133,-0.093,-0.04,-0.019,-0.005,-0.013,-0.047,-0.056,-0.051
-0.145,-0.112,0.033,0.128,-0.089,-0.039,-0.035,-0.018,-0.023,-0.042,-0.051,-0.044
-0.141,-0.11,0.031,0.126,-0.086,-0.039,-0.05,-0.03,-0.015,-0.04,-0.045,-0.037
-0.134,-0.108,0.026,0.121,-0.08,-0.041,-0.066,-0.016,0.008,-0.021,-0.037,-0.037
-0.13,-0.103,0.027,0.116,-0.078,-0.038,-0.06,-0.005,0.027,0.007,-0.029,-0.041
-0.116,-0.1,0.017,0.107,-0.066,-0.041,-0.057,0.002,0.048,0.017,-0.024,-0.043
-0.08,-0.097,-0.017,0.089,-0.031,-0.057,-0.053,0.007,0.066,0.027,-0.019,-0.046
-0.062,-0.092,-0.03,0.077,-0.016,-0.06,-0.048,0.013,0.077,0.028,-0.015,-0.049
-0.07,-0.09,-0.02,0.08,-0.025,-0.055,-0.045,0.018,0.072,0.018,-0.01,-0.05
-0.061,-0.084,-0.023,0.072,-0.019,-0.053,-0.038,0.024,0.058,0.01,-0.005,-0.056
-0.064,-0.079,-0.016,0.072,-0.024,-0.047,-0.03,0.021,0.053,0.001,-0.011,-0.062
-0.098,-0.113,-0.015,0.106,-0.041,-0.063,-0.023,0.015,0.028,-0.01,-0.035,-0.07
-0.104,-0.129,-0.025,0.117,-0.039,-0.077,-0.014,0.009,-0.003,-0.027,-0.055,-0.08
-0.121,-0.111,0.01,0.116,-0.066,-0.05,-0.005,0.005,0.0,-0.032,-0.051,-0.07
-0.12,-0.076,0.045,0.098,-0.082,-0.015,0.027,0.043,0.027,-0.013,-0.038,-0.057
-0.104,-0.038,0.066,0.071,-0.085,0.014,0.076,0.083,0.06,0.005,-0.024,-0.047
-0.085,-0.035,0.051,0.06,-0.068,0.008,0.04,0.077,0.066,0.016,-0.01,-0.033
-0.036,-0.025,0.011,0.031,-0.023,-0.007,-0.058,0.039,0.065,0.031,-0.002,-0.023
0.005,-0.012,-0.017,0.003,0.011,-0.014,-0.114,0.022,0.064,0.054,0.005,-0.011
0.034,-0.007,-0.041,-0.013,0.038,-0.024,-0.118,0.03,0.071,0.057,0.01,-0.011
0.044,0.002,-0.042,-0.023,0.043,-0.019,-0.123,0.014,0.056,0.037,0.019,-0.008
0.031,-0.029,-0.06,0.0,0.046,-0.044,-0.124,-0.029,0.01,0.02,0.015,-0.014
0.02,-0.048,-0.068,0.014,0.044,-0.058,-0.109,-0.058,-0.016,0.009,0.007,-0.026
0.004,-0.041,-0.045,0.019,0.025,-0.043,-0.086,-0.063,-0.009,-0.002,-0.001,-0.024
-0.052,-0.083,-0.031,0.068,-0.01,-0.057,-0.055,-0.056,0.01,-0.017,-0.035,-0.054
-0.1,-0.126,-0.027,0.113,-0.036,-0.076,-0.056,-0.065,-0.032,-0.052,-0.066,-0.085
-0.126,-0.147,-0.021,0.137,-0.052,-0.084,-0.054,-0.056,-0.047,-0.077,-0.088,-0.107
-0.14,-0.154,-0.014,0.147,-0.063,-0.084,-0.056,-0.061,-0.057,-0.073,-0.087,-0.11
-0.138,-0.15,-0.011,0.144,-0.063,-0.081,-0.054,-0.052,-0.064,-0.078,-0.094,-0.112
-0.139,-0.142,-0.003,0.141,-0.068,-0.072,-0.055,-0.038,-0.052,-0.061,-0.086,-0.116
-0.141,-0.14,0.001,0.141,-0.071,-0.07,-0.041,-0.054,-0.073,-0.072,-0.093,-0.113
-0.131,-0.128,0.002,0.129,-0.066,-0.063,0.033,0.059,0.015,-0.053,-0.096,-0.14
-0.114,-0.14,-0.027,0.128,-0.044,-0.083,0.059,0.208,0.151,0.016,-0.061,-0.142
-0.069,-0.09,-0.021,0.08,-0.024,-0.055,0.029,0.267,0.412,0.327,0.228,0.062
0.252,0.19,-0.062,-0.221,0.157,0.064,-0.417,-0.61,0.205,0.78,0.908,0.625
0.736,0.39,-0.346,-0.563,0.54,0.022,-1.02,-1.908,-0.47,0.756,1.103,1.005
0.537,0.116,-0.421,-0.327,0.479,-0.152,-0.853,-1.959,-0.969,0.039,0.362,0.601
-0.176,-0.373,-0.198,0.275,0.011,-0.285,-0.266,-1.377,-1.405,-0.946,-0.594,-0.147
-0.435,-0.522,-0.087,0.478,-0.174,-0.304,0.028,-0.872,-1.12,-0.992,-0.783,-0.441
-0.358,-0.405,-0.047,0.382,-0.155,-0.225,0.07,-0.393,-0.468,-0.458,-0.42,-0.327
-0.298,-0.308,-0.01,0.303,-0.144,-0.159,0.054,-0.106,-0.175,-0.247,-0.261,-0.246
-0.265,-0.241,0.024,0.252,-0.144,-0.108,0.039,0.001,-0.053,-0.128,-0.197,-0.202
-0.226,-0.197,0.03,0.212,-0.128,-0.083,0.031,0.045,-0.039,-0.112,-0.17,-0.18
-0.204,-0.172,0.032,0.188,-0.118,-0.07,0.02,0.068,-0.009,-0.099,-0.156,-0.181
-0.223,-0.177,0.046,0.2,-0.134,-0.065,0.013,0.086,0.003,-0.098,-0.137,-0.179
-0.21,-0.172,0.038,0.191,-0.123,-0.067,0.006,0.102,0.021,-0.104,-0.13,-0.181
-0.223,-0.189,0.034,0.206,-0.128,-0.077,-0.002,0.116,0.033,-0.096,-0.128,-0.18
-0.234,-0.207,0.028,0.22,-0.13,-0.089,-0.01,0.124,0.027,-0.105,-0.148,-0.179
-0.227,-0.205,0.022,0.216,-0.124,-0.091,-0.014,0.124,0.03,-0.089,-0.144,-0.175
-0.213,-0.191,0.022,0.202,-0.117,-0.084,0.002,0.144,0.05,-0.076,-0.135,-0.173
-0.177,-0.15,0.027,0.163,-0.101,-0.062,0.023,0.163,0.084,-0.043,-0.125,-0.17
-0.165,-0.136,0.028,0.151,-0.096,-0.054,0.043,0.199,0.101,-0.02,-0.117,-0.166
-0.167,-0.133,0.033,0.15,-0.1,-0.049,0.051,0.227,0.12,-0.011,-0.109,-0.165
-0.161,-0.126,0.034,0.143,-0.097,-0.046,0.052,0.264,0.148,-0.002,-0.097,-0.161
-0.148,-0.122,0.026,0.135,-0.087,-0.048,0.056,0.311,0.177,0.006,-0.084,-0.15
-0.166,-0.116,0.05,0.141,-0.108,-0.033,0.059,0.345,0.197,0.033,-0.07,-0.14
-0.184,-0.112,0.072,0.148,-0.128,-0.019,0.061,0.381,0.202,0.047,-0.065,-0.13
-0.181,-0.107,0.074,0.144,-0.128,-0.016,0.056,0.381,0.195,0.039,-0.065,-0.117
-0.181,-0.104,0.076,0.142,-0.128,-0.014,0.055,0.37,0.193,0.033,-0.065,-0.105
-0.172,-0.1,0.072,0.136,-0.122,-0.014,0.055,0.36,0.184,0.026,-0.065,-0.095
-0.166,-0.096,0.07,0.131,-0.118,-0.013,0.055,0.344,0.162,0.019,-0.065,-0.087
-0.163,-0.093,0.07,0.128,-0.116,-0.011,0.056,0.317,0.148,0.013,-0.061,-0.079
-0.156,-0.09,0.065,0.123,-0.111,-0.012,0.054,0.274,0.134,0.01,-0.054,-0.071
-0.144,-0.087,0.057,0.116,-0.1,-0.015,0.046,0.235,0.108,0.008,-0.048,-0.064
-0.134,-0.085,0.049,0.109,-0.091,-0.018,0.034,0.2,0.083,0.005,-0.041,-0.056
-0.123,-0.082,0.041,0.102,-0.082,-0.02,0.026,0.16,0.062,0.002,-0.034,-0.048
-0.113,-0.079,0.033,0.096,-0.073,-0.023,0.019,0.127,0.05,-0.001,-0.028,-0.04
-0.112,-0.084,0.029,0.098,-0.07,-0.027,0.004,0.097,0.038,0.004,-0.021,-0.032
-0.104,-0.085,0.019,0.095,-0.061,-0.033,-0.013,0.068,0.028,0.01,-0.014,-0.025
-0.095,-0.084,0.012,0.089,-0.053,-0.036,-0.022,0.056,0.028,0.018,-0.007,-0.017
-0.074,-0.076,-0.002,0.075,-0.036,-0.039,-0.038,0.047,0.034,0.023,0.001,-0.009
-0.062,-0.067,-0.005,0.065,-0.028,-0.036,-0.055,0.057,0.051,0.035,0.017,0.0
-0.084,-0.068,0.016,0.076,-0.05,-0.026,-0.053,0.083,0.084,0.068,0.037,0.004
-0.075,-0.07,0.005,0.072,-0.04,-0.032,-0.049,0.097,0.109,0.088,0.051,-0.002
-0.063,-0.072,-0.009,0.068,-0.026,-0.041,-0.046,0.094,0.105,0.083,0.057,-0.007
-0.074,-0.075,-0.001,0.075,-0.036,-0.038,-0.041,0.084,0.096,0.074,0.048,-0.013
-0.064,-0.076,-0.012,0.07,-0.026,-0.044,-0.039,0.077,0.088,0.065,0.035,-0.019
-0.054,-0.084,-0.03,0.07,-0.012,-0.057,-0.033,0.056,0.081,0.056,0.026,-0.024
-0.077,-0.102,-0.025,0.09,-0.026,-0.064,-0.027,0.035,0.071,0.05,0.021,-0.03
-0.089,-0.108,-0.019,0.099,-0.035,-0.063,-0.023,0.035,0.058,0.045,0.016,-0.03
-0.084,-0.097,-0.013,0.091,-0.035,-0.055,-0.016,0.035,0.052,0.041,0.013,-0.03
-0.094,-0.094,-0.001,0.094,-0.046,-0.047,-0.013,0.034,0.057,0.036,0.007,-0.03
-0.09,-0.076,0.014,0.083,-0.052,-0.031,0.01,0.061,0.06,0.031,0.005,-0.03
-0.081,-0.044,0.037,0.063,-0.059,-0.004,0.073,0.096,0.065,0.031,0.012,-0.031
-0.06,-0.039,0.021,0.05,-0.04,-0.009,0.06,0.102,0.08,0.044,0.019,-0.024
-0.031,-0.04,-0.009,0.036,-0.011,-0.024,-0.041,0.068,0.082,0.061,0.026,-0.011
-0.015,-0.04,-0.024,0.028,0.004,-0.032,-0.104,0.026,0.071,0.06,0.033,0.0
0.013,-0.04,-0.053,0.014,0.033,-0.046,-0.134,0.036,0.061,0.049,0.04,0.009
0.011,-0.045,-0.057,0.018,0.034,-0.051,-0.135,0.045,0.056,0.047,0.033,0.003
-0.007,-0.085,-0.078,0.046,0.036,-0.082,-0.135,-0.005,0.029,0.029,0.012,-0.015
-0.02,-0.122,-0.102,0.071,0.041,-0.111,-0.142,-0.036,-0.004,-0.012,0.0,-0.028
-0.063,-0.125,-0.061,0.094,-0.001,-0.093,-0.113,-0.027,-0.014,-0.029,-0.005,-0.024
-0.098,-0.135,-0.037,0.117,-0.03,-0.086,-0.088,-0.019,-0.006,-0.019,-0.025,-0.037
-0.144,-0.177,-0.033,0.161,-0.055,-0.105,-0.08,-0.041,-0.024,-0.027,-0.056,-0.071
-0.178,-0.205,-0.027,0.191,-0.075,-0.116,-0.067,-0.042,-0.05,-0.06,-0.083,-0.096
-0.171,-0.196,-0.024,0.184,-0.073,-0.11,-0.064,-0.034,-0.048,-0.057,-0.077,-0.094
-0.165,-0.187,-0.022,0.176,-0.071,-0.104,-0.067,-0.038,-0.056,-0.061,-0.082,-0.096
-0.165,-0.184,-0.019,0.174,-0.073,-0.101,-0.062,-0.012,-0.035,-0.049,-0.079,-0.1
-0.184,-0.2,-0.015,0.192,-0.084,-0.107,-0.048,-0.042,-0.06,-0.055,-0.077,-0.097
-0.187,-0.204,-0.017,0.196,-0.085,-0.11,0.011,0.057,0.002,-0.048,-0.101,-0.111
-0.168,-0.208,-0.039,0.188,-0.064,-0.123,0.041,0.196,0.114,-0.007,-0.091,-0.132
-0.1,-0.144,-0.044,0.122,-0.028,-0.094,0.059,0.319,0.377,0.244,0.121,-0.012
0.168,0.122,-0.046,-0.145,0.107,0.038,-0.251,-0.27,0.353,0.709,0.758,0.505
0.645,0.352,-0.293,-0.498,0.468,0.03,-0.948,-1.655,-0.311,0.796,1.124,0.983
0.678,0.227,-0.451,-0.452,0.564,-0.112,-0.976,-2.012,-0.809,0.298,0.605,0.773
0.032,-0.228,-0.26,0.099,0.146,-0.244,-0.381,-1.451,-1.278,-0.714,-0.381,0.045
-0.38,-0.489,-0.109,0.435,-0.135,-0.299,-0.017,-0.933,-1.21,-1.054,-0.802,-0.406
-0.337,-0.397,-0.06,0.368,-0.138,-0.228,0.093,-0.45,-0.543,-0.523,-0.471,-0.323
-0.27,-0.287,-0.017,0.278,-0.126,-0.152,0.082,-0.109,-0.18,-0.24,-0.256,-0.224
-0.222,-0.188,0.034,0.205,-0.128,-0.077,0.062,0.047,-0.005,-0.107,-0.182,-0.184
-0.172,-0.126,0.046,0.149,-0.109,-0.04,0.064,0.089,0.031,-0.078,-0.127,-0.133
-0.142,-0.107,0.035,0.124,-0.088,-0.036,0.056,0.116,0.05,-0.07,-0.123,-0.126
-0.115,-0.104,0.011,0.11,-0.062,-0.047,0.052,0.12,0.051,-0.042,-0.116,-0.119
-0.102,-0.101,0.001,0.102,-0.052,-0.05,0.046,0.137,0.06,-0.045,-0.12,-0.119
-0.135,-0.094,0.041,0.114,-0.088,-0.026,0.04,0.154,0.082,-0.025,-0.106,-0.112
-0.137,-0.111,0.025,0.123,-0.08,-0.043,0.037,0.16,0.077,-0.031,-0.104,-0.11
-0.102,-0.116,-0.014,0.109,-0.044,-0.065,0.024,0.166,0.115,-0.018,-0.095,-0.122
-0.096,-0.114,-0.019,0.106,-0.038,-0.066,0.03,0.185,0.114,-0.017,-0.089,-0.126
-0.096,-0.112,-0.015,0.104,-0.04,-0.063,0.062,0.219,0.114,-0.009,-0.084,-0.125
-0.119,-0.109,0.01,0.114,-0.065,-0.049,0.06,0.235,0.133,-0.005,-0.077,-0.125
-0.119,-0.11,0.009,0.114,-0.064,-0.051,0.06,0.252,0.157,0.004,-0.071,-0.125
-0.112,-0.101,0.011,0.106,-0.061,-0.045,0.06,0.288,0.18,0.022,-0.064,-0.125
-0.145,-0.088,0.057,0.116,-0.1,-0.015,0.06,0.326,0.201,0.035,-0.058,-0.109
-0.123,-0.078,0.045,0.1,-0.084,-0.016,0.086,0.361,0.244,0.059,-0.048,-0.088
-0.1,-0.067,0.033,0.083,-0.066,-0.017,0.09,0.391,0.258,0.073,-0.027,-0.078
-0.118,-0.06,0.058,0.089,-0.088,-0.001,0.082,0.403,0.248,0.079,-0.019,-0.068
-0.119,-0.056,0.062,0.087,-0.09,0.003,0.079,0.396,0.252,0.076,-0.02,-0.057
-0.11,-0.054,0.057,0.082,-0.083,0.001,0.073,0.383,0.244,0.067,-0.02,-0.049
-0.099,-0.049,0.05,0.074,-0.075,0.0,0.07,0.373,0.216,0.061,-0.02,-0.042
-0.091,-0.045,0.046,0.068,-0.068,0.0,0.063,0.346,0.193,0.052,-0.02,-0.036
-0.087,-0.047,0.039,0.067,-0.063,-0.004,0.055,0.308,0.181,0.046,-0.024,-0.029
-0.098,-0.05,0.048,0.074,-0.073,-0.001,0.047,0.276,0.164,0.038,-0.025,-0.023
-0.119,-0.054,0.065,0.086,-0.092,0.005,0.04,0.246,0.139,0.031,-0.025,-0.017
-0.102,-0.053,0.048,0.077,-0.074,-0.002,0.031,0.21,0.111,0.024,-0.025,-0.015
-0.105,-0.066,0.038,0.085,-0.071,-0.013,0.016,0.159,0.087,0.016,-0.025,-0.015
-0.123,-0.082,0.041,0.102,-0.082,-0.021,0.004,0.112,0.07,0.008,-0.024,-0.011
-0.115,-0.079,0.036,0.097,-0.076,-0.021,-0.013,0.085,0.054,0.007,-0.016,-0.009
-0.115,-0.08,0.035,0.097,-0.075,-0.022,-0.024,0.084,0.054,0.016,-0.009,-0.011
-0.115,-0.08,0.035,0.097,-0.075,-0.022,-0.036,0.085,0.063,0.024,0.001,-0.004
-0.116,-0.081,0.036,0.098,-0.076,-0.022,-0.041,0.088,0.067,0.036,0.006,0.001
-0.098,-0.07,0.028,0.083,-0.063,-0.021,-0.036,0.091,0.089,0.06,0.023,0.008
-0.054,-0.046,0.008,0.05,-0.031,-0.019,-0.034,0.089,0.112,0.081,0.048,0.013
-0.024,-0.039,-0.015,0.032,-0.005,-0.027,-0.03,0.101,0.125,0.099,0.059,0.02
-0.035,-0.041,-0.006,0.038,-0.014,-0.023,-0.03,0.116,0.145,0.104,0.071,0.039
-0.052,-0.037,0.015,0.044,-0.033,-0.011,-0.024,0.112,0.141,0.092,0.066,0.021
-0.03,-0.035,-0.005,0.033,-0.012,-0.02,-0.019,0.097,0.126,0.081,0.051,0.016
-0.016,-0.034,-0.019,0.025,0.002,-0.026,-0.013,0.088,0.106,0.068,0.034,-0.005
-0.054,-0.042,0.012,0.048,-0.033,-0.015,-0.009,0.076,0.077,0.055,0.013,-0.018
-0.065,-0.068,-0.003,0.066,-0.031,-0.035,-0.001,0.068,0.073,0.036,0.007,-0.028
-0.046,-0.075,-0.028,0.061,-0.009,-0.051,-0.005,0.056,0.068,0.044,0.004,-0.037
-0.055,-0.046,0.008,0.05,-0.031,-0.019,-0.007,0.057,0.064,0.037,-0.001,-0.002
-0.052,0.001,0.053,0.025,-0.053,0.027,0.071,0.117,0.096,0.066,0.012,-0.045
-0.032,0.031,0.063,0.001,-0.048,0.047,0.082,0.139,0.107,0.063,0.024,0.124
-0.009,0.023,0.032,-0.007,-0.021,0.027,0.005,0.105,0.104,-0.058,0.04,0.13
0.03,0.015,-0.015,-0.023,0.023,0.0,-0.082,0.077,0.106,-0.039,0.052,-0.04
0.073,0.005,-0.067,-0.039,0.07,-0.03,-0.216,0.063,0.105,0.026,0.056,0.027
