0.072,-0.029,-0.1,-0.022,0.086,-0.064,-0.025,0.11,0.086,0.065,0.009,0.025
0.102,-0.011,-0.113,-0.045,0.107,-0.062,-0.037,0.121,0.092,0.071,0.014,0.03
0.161,0.024,-0.138,-0.093,0.149,-0.057,-0.052,0.159,0.109,0.099,0.043,0.058
0.215,0.061,-0.154,-0.138,0.184,-0.046,-0.058,0.196,0.148,0.142,0.083,0.099
0.266,0.091,-0.175,-0.178,0.22,-0.042,-0.094,0.225,0.181,0.182,0.127,0.141
0.328,0.135,-0.193,-0.231,0.26,-0.028,-0.111,0.252,0.222,0.233,0.181,0.193
0.369,0.18,-0.189,-0.274,0.278,-0.005,-0.118,0.277,0.266,0.278,0.227,0.236
0.389,0.214,-0.175,-0.302,0.282,0.019,-0.117,0.296,0.296,0.318,0.27,0.272
0.39,0.232,-0.158,-0.311,0.274,0.037,-0.102,0.29,0.319,0.332,0.289,0.284
0.335,0.209,-0.126,-0.272,0.23,0.041,-0.075,0.254,0.312,0.31,0.263,0.261
0.253,0.171,-0.082,-0.212,0.167,0.044,-0.012,0.198,0.268,0.259,0.203,0.205
0.168,0.126,-0.042,-0.147,0.105,0.042,0.038,0.126,0.203,0.19,0.125,0.131
0.073,0.058,-0.014,-0.065,0.043,0.022,0.06,0.055,0.137,0.115,0.061,0.065
0.016,0.007,-0.009,-0.012,0.013,-0.001,0.062,0.012,0.084,0.054,0.017,0.022
-0.023,-0.033,-0.01,0.028,-0.006,-0.022,0.054,-0.009,0.048,0.025,-0.016,0.0
-0.044,-0.054,-0.009,0.049,-0.017,-0.031,0.051,-0.021,0.028,0.011,-0.037,-0.01
-0.026,-0.056,-0.029,0.041,0.002,-0.042,0.044,-0.027,0.02,0.006,-0.046,-0.017
-0.017,-0.054,-0.037,0.036,0.011,-0.045,0.039,-0.039,0.021,-0.001,-0.049,-0.028
-0.01,-0.041,-0.03,0.026,0.01,-0.035,0.034,-0.043,0.019,-0.008,-0.054,-0.033
-0.034,-0.064,-0.03,0.049,-0.002,-0.047,0.03,-0.04,0.015,-0.014,-0.053,-0.03
-0.052,-0.077,-0.025,0.065,-0.013,-0.051,0.03,-0.035,0.015,-0.019,-0.05,-0.03
-0.041,-0.066,-0.024,0.054,-0.008,-0.045,0.03,-0.033,0.013,-0.02,-0.05,-0.028
-0.045,-0.065,-0.021,0.055,-0.012,-0.043,0.03,-0.028,0.009,-0.02,-0.046,-0.024
-0.039,-0.058,-0.02,0.048,-0.01,-0.039,0.03,-0.025,0.01,-0.02,-0.044,-0.025
-0.037,-0.056,-0.019,0.047,-0.008,-0.038,0.026,-0.041,0.01,-0.021,-0.046,-0.037
-0.04,-0.054,-0.014,0.047,-0.013,-0.034,0.025,-0.047,0.01,-0.019,-0.049,-0.041
-0.034,-0.05,-0.016,0.042,-0.009,-0.032,0.025,-0.044,0.01,-0.015,-0.05,-0.039
-0.037,-0.049,-0.012,0.043,-0.012,-0.03,0.025,-0.042,0.005,-0.015,-0.05,-0.037
-0.035,-0.043,-0.008,0.039,-0.013,-0.025,0.025,-0.039,0.001,-0.015,-0.05,-0.034
-0.046,-0.049,-0.004,0.048,-0.02,-0.026,0.024,-0.041,-0.002,-0.015,-0.049,-0.036
-0.065,-0.065,0.001,0.065,-0.033,-0.031,0.02,-0.039,-0.006,-0.015,-0.053,-0.039
-0.041,-0.066,-0.025,0.053,-0.007,-0.045,0.02,-0.041,-0.009,-0.019,-0.056,-0.04
-0.026,-0.065,-0.038,0.046,0.006,-0.051,0.018,-0.038,-0.012,-0.025,-0.055,-0.04
-0.034,-0.065,-0.031,0.05,-0.001,-0.048,0.014,-0.051,-0.015,-0.031,-0.059,-0.04
-0.034,-0.065,-0.031,0.05,-0.001,-0.047,0.016,-0.068,-0.018,-0.037,-0.06,-0.039
-0.04,-0.066,-0.026,0.054,-0.007,-0.046,0.011,-0.07,-0.021,-0.04,-0.06,-0.043
-0.048,-0.074,-0.025,0.061,-0.011,-0.049,0.01,-0.075,-0.024,-0.04,-0.065,-0.045
-0.05,-0.071,-0.021,0.06,-0.014,-0.046,0.01,-0.079,-0.026,-0.04,-0.065,-0.045
-0.059,-0.079,-0.02,0.069,-0.019,-0.049,0.005,-0.08,-0.029,-0.04,-0.066,-0.049
-0.078,-0.097,-0.019,0.087,-0.029,-0.058,0.005,-0.08,-0.03,-0.04,-0.07,-0.05
-0.078,-0.095,-0.016,0.087,-0.03,-0.055,0.004,-0.08,-0.03,-0.04,-0.069,-0.05
-0.082,-0.095,-0.013,0.089,-0.034,-0.054,-0.001,-0.08,-0.03,-0.036,-0.073,-0.05
-0.074,-0.095,-0.021,0.085,-0.026,-0.058,-0.004,-0.081,-0.029,-0.035,-0.075,-0.05
-0.053,-0.095,-0.041,0.074,-0.006,-0.068,-0.007,-0.09,-0.033,-0.028,-0.075,-0.05
-0.048,-0.091,-0.043,0.07,-0.002,-0.067,-0.012,-0.095,-0.035,-0.038,-0.075,-0.05
-0.046,-0.085,-0.039,0.065,-0.003,-0.061,-0.014,-0.095,-0.036,-0.056,-0.075,-0.05
-0.043,-0.08,-0.037,0.062,-0.003,-0.058,-0.013,-0.095,-0.04,-0.055,-0.075,-0.052
-0.041,-0.075,-0.034,0.059,-0.003,-0.054,-0.005,-0.095,-0.04,-0.053,-0.07,-0.055
-0.036,-0.066,-0.03,0.051,-0.003,-0.048,-0.013,-0.095,-0.04,-0.05,-0.07,-0.055
-0.043,-0.074,-0.031,0.058,-0.005,-0.052,-0.031,-0.093,-0.04,-0.049,-0.069,-0.055
-0.067,-0.096,-0.029,0.082,-0.019,-0.063,-0.025,-0.09,-0.04,-0.053,-0.065,-0.055
-0.049,-0.087,-0.038,0.068,-0.005,-0.062,-0.02,-0.087,-0.04,-0.055,-0.065,-0.055
-0.031,-0.083,-0.053,0.057,0.011,-0.068,-0.018,-0.085,-0.039,-0.055,-0.068,-0.055
-0.031,-0.077,-0.046,0.054,0.008,-0.062,-0.01,-0.081,-0.043,-0.055,-0.07,-0.055
-0.026,-0.071,-0.045,0.049,0.01,-0.058,-0.014,-0.08,-0.045,-0.055,-0.07,-0.055
-0.059,-0.1,-0.041,0.08,-0.009,-0.071,-0.026,-0.079,-0.045,-0.054,-0.073,-0.055
-0.053,-0.092,-0.039,0.072,-0.006,-0.065,-0.027,-0.082,-0.045,-0.05,-0.076,-0.055
-0.031,-0.072,-0.041,0.052,0.005,-0.056,-0.023,-0.081,-0.045,-0.05,-0.074,-0.058
-0.038,-0.077,-0.038,0.058,0.0,-0.057,-0.021,-0.08,-0.045,-0.049,-0.071,-0.06
-0.028,-0.074,-0.046,0.051,0.009,-0.06,-0.018,-0.08,-0.045,-0.045,-0.068,-0.06
-0.016,-0.076,-0.059,0.046,0.022,-0.067,-0.013,-0.079,-0.045,-0.045,-0.065,-0.06
-0.029,-0.092,-0.062,0.06,0.017,-0.077,-0.026,-0.092,-0.045,-0.047,-0.063,-0.06
-0.049,-0.102,-0.053,0.076,0.002,-0.078,-0.036,-0.1,-0.045,-0.051,-0.059,-0.059
-0.047,-0.095,-0.048,0.071,0.001,-0.072,-0.027,-0.091,-0.045,-0.049,-0.069,-0.055
-0.082,-0.095,-0.013,0.088,-0.034,-0.053,-0.025,-0.088,-0.045,-0.045,-0.076,-0.051
-0.074,-0.091,-0.017,0.082,-0.028,-0.053,-0.02,-0.082,-0.045,-0.045,-0.075,-0.048
-0.034,-0.09,-0.056,0.062,0.011,-0.072,-0.014,-0.074,-0.045,-0.045,-0.073,-0.045
-0.046,-0.096,-0.05,0.071,0.003,-0.073,-0.029,-0.089,-0.046,-0.045,-0.07,-0.04
-0.061,-0.094,-0.033,0.078,-0.014,-0.063,-0.037,-0.102,-0.044,-0.045,-0.07,-0.045
-0.07,-0.1,-0.03,0.085,-0.019,-0.065,-0.034,-0.094,-0.046,-0.045,-0.071,-0.055
-0.038,-0.099,-0.06,0.069,0.011,-0.079,-0.035,-0.093,-0.035,-0.046,-0.068,-0.055
-0.048,-0.1,-0.052,0.074,0.002,-0.076,-0.035,-0.088,-0.04,-0.047,-0.076,-0.052
-0.05,-0.107,-0.057,0.079,0.004,-0.082,-0.035,-0.084,-0.06,-0.045,-0.084,-0.05
-0.023,-0.088,-0.065,0.056,0.021,-0.076,-0.035,-0.092,-0.049,-0.041,-0.079,-0.05
0.001,-0.068,-0.069,0.034,0.035,-0.069,-0.035,-0.079,-0.046,-0.039,-0.072,-0.047
0.031,-0.071,-0.102,0.02,0.067,-0.086,-0.034,-0.054,-0.052,-0.036,-0.07,-0.044
0.026,-0.069,-0.095,0.022,0.06,-0.082,-0.028,-0.055,-0.048,-0.034,-0.07,-0.045
0.038,-0.065,-0.103,0.014,0.071,-0.084,-0.02,-0.057,-0.055,-0.032,-0.07,-0.04
0.008,-0.065,-0.074,0.029,0.041,-0.069,-0.015,-0.052,-0.055,-0.024,-0.07,-0.04
0.008,-0.056,-0.064,0.024,0.036,-0.06,-0.006,-0.078,-0.054,-0.034,-0.069,-0.046
-0.015,-0.072,-0.057,0.043,0.021,-0.064,-0.002,-0.069,-0.052,-0.033,-0.072,-0.047
-0.065,-0.086,-0.021,0.075,-0.022,-0.053,-0.004,-0.091,-0.045,-0.039,-0.062,-0.05
-0.047,-0.081,-0.035,0.064,-0.006,-0.058,-0.02,-0.105,-0.048,-0.063,-0.064,-0.065
-0.051,-0.062,-0.011,0.056,-0.019,-0.036,-0.027,-0.097,-0.037,-0.048,-0.052,-0.055
-0.039,-0.062,-0.023,0.051,-0.008,-0.042,0.013,-0.049,-0.025,-0.045,-0.056,-0.056
-0.064,-0.008,0.056,0.036,-0.059,0.024,0.071,0.306,0.174,0.068,-0.03,-0.046
0.142,0.205,0.063,-0.174,0.04,0.134,-0.027,0.237,0.372,0.33,0.243,0.208
0.72,0.608,-0.112,-0.664,0.416,0.248,-0.555,-0.756,0.376,0.712,0.782,0.768
0.874,0.826,-0.048,-0.85,0.461,0.389,-0.869,-1.443,0.28,0.785,0.974,1.015
0.279,0.369,0.09,-0.325,0.095,0.229,-0.499,-1.119,-0.127,0.17,0.38,0.465
-0.125,-0.052,0.073,0.088,-0.098,0.01,-0.166,-0.475,-0.273,-0.183,-0.068,-0.009
-0.106,-0.064,0.042,0.085,-0.074,-0.011,-0.051,-0.092,-0.083,-0.09,-0.051,-0.022
-0.104,-0.074,0.03,0.089,-0.067,-0.022,-0.002,0.001,-0.063,-0.078,-0.054,-0.052
-0.067,-0.069,-0.001,0.068,-0.033,-0.035,-0.007,0.011,-0.047,-0.06,-0.062,-0.064
-0.027,-0.069,-0.042,0.048,0.007,-0.055,0.002,0.021,-0.05,-0.067,-0.078,-0.054
-0.016,-0.073,-0.057,0.045,0.021,-0.065,0.0,0.019,-0.052,-0.065,-0.068,-0.062
-0.037,-0.063,-0.026,0.05,-0.005,-0.044,0.006,0.021,-0.047,-0.064,-0.064,-0.07
-0.068,-0.071,-0.002,0.07,-0.033,-0.036,0.004,0.019,-0.054,-0.067,-0.062,-0.07
-0.035,-0.088,-0.053,0.062,0.009,-0.07,0.0,0.02,-0.041,-0.058,-0.053,-0.064
-0.018,-0.085,-0.067,0.052,0.025,-0.076,0.0,0.02,-0.032,-0.057,-0.065,-0.064
-0.056,-0.077,-0.021,0.067,-0.017,-0.049,0.001,0.02,-0.022,-0.05,-0.062,-0.059
-0.044,-0.074,-0.029,0.059,-0.007,-0.051,-0.005,0.019,-0.021,-0.047,-0.057,-0.058
-0.003,-0.066,-0.064,0.035,0.031,-0.065,-0.014,0.031,-0.014,-0.042,-0.054,-0.052
-0.008,-0.063,-0.055,0.036,0.024,-0.059,-0.006,0.044,-0.011,-0.033,-0.048,-0.048
-0.015,-0.052,-0.037,0.034,0.011,-0.045,0.002,0.053,-0.003,-0.025,-0.045,-0.044
0.011,-0.042,-0.054,0.016,0.033,-0.048,0.0,0.063,0.015,-0.016,-0.04,-0.039
0.059,-0.033,-0.092,-0.013,0.076,-0.062,-0.014,0.077,0.028,-0.004,-0.031,-0.025
0.083,-0.022,-0.104,-0.03,0.094,-0.063,-0.028,0.103,0.038,0.02,-0.02,-0.001
0.073,-0.014,-0.087,-0.029,0.08,-0.05,-0.037,0.127,0.059,0.043,0.006,0.014
0.112,0.003,-0.109,-0.057,0.11,-0.053,-0.059,0.152,0.088,0.059,0.03,0.035
0.205,0.038,-0.167,-0.121,0.185,-0.065,-0.085,0.181,0.114,0.097,0.068,0.074
0.262,0.085,-0.177,-0.173,0.219,-0.046,-0.1,0.216,0.151,0.142,0.118,0.118
0.325,0.132,-0.193,-0.228,0.259,-0.03,-0.128,0.25,0.197,0.192,0.169,0.172
0.374,0.173,-0.201,-0.273,0.287,-0.014,-0.144,0.274,0.231,0.236,0.217,0.216
0.393,0.216,-0.177,-0.304,0.284,0.019,-0.136,0.291,0.266,0.276,0.251,0.253
0.417,0.242,-0.175,-0.329,0.296,0.033,-0.116,0.285,0.287,0.307,0.273,0.28
0.356,0.229,-0.128,-0.292,0.242,0.05,-0.074,0.281,0.273,0.297,0.26,0.263
0.271,0.19,-0.08,-0.23,0.175,0.055,-0.029,0.245,0.258,0.255,0.214,0.206
0.185,0.145,-0.04,-0.165,0.112,0.052,0.016,0.169,0.208,0.182,0.143,0.134
0.054,0.073,0.02,-0.064,0.017,0.046,0.049,0.099,0.137,0.099,0.067,0.067
-0.003,0.017,0.02,-0.007,-0.012,0.018,0.058,0.039,0.087,0.034,0.012,0.012
-0.02,-0.007,0.013,0.013,-0.016,0.003,0.059,0.001,0.045,-0.001,-0.023,-0.026
-0.057,-0.042,0.015,0.05,-0.036,-0.013,0.053,-0.016,0.014,-0.016,-0.037,-0.039
-0.067,-0.063,0.003,0.065,-0.034,-0.03,0.045,-0.022,0.002,-0.024,-0.045,-0.046
-0.078,-0.069,0.009,0.073,-0.044,-0.03,0.039,-0.025,-0.002,-0.032,-0.059,-0.056
-0.047,-0.066,-0.019,0.057,-0.014,-0.042,0.034,-0.026,-0.009,-0.043,-0.064,-0.054
-0.045,-0.075,-0.03,0.06,-0.007,-0.052,0.029,-0.021,-0.01,-0.042,-0.065,-0.063
-0.072,-0.088,-0.016,0.08,-0.028,-0.052,0.025,-0.02,-0.01,-0.039,-0.065,-0.072
-0.04,-0.074,-0.033,0.057,-0.003,-0.053,0.02,-0.02,-0.01,-0.041,-0.065,-0.066
-0.049,-0.065,-0.015,0.057,-0.017,-0.04,0.016,-0.02,-0.01,-0.039,-0.065,-0.065
-0.051,-0.068,-0.017,0.06,-0.017,-0.043,0.011,-0.02,-0.01,-0.041,-0.065,-0.061
-0.059,-0.07,-0.011,0.065,-0.024,-0.04,0.004,-0.021,-0.01,-0.038,-0.066,-0.06
-0.082,-0.063,0.018,0.072,-0.05,-0.022,-0.002,-0.025,-0.01,-0.046,-0.069,-0.064
-0.069,-0.059,0.01,0.064,-0.039,-0.025,-0.009,-0.025,-0.01,-0.061,-0.07,-0.065
-0.063,-0.056,0.007,0.059,-0.035,-0.024,-0.016,-0.028,-0.016,-0.06,-0.07,-0.065
-0.051,-0.049,0.003,0.049,-0.027,-0.023,-0.022,-0.031,-0.01,-0.06,-0.07,-0.065
-0.057,-0.06,-0.003,0.059,-0.027,-0.031,-0.025,-0.03,-0.009,-0.06,-0.069,-0.066
-0.071,-0.075,-0.004,0.073,-0.033,-0.039,-0.028,-0.034,-0.018,-0.06,-0.073,-0.063
-0.074,-0.072,0.002,0.073,-0.038,-0.035,-0.03,-0.037,-0.024,-0.06,-0.075,-0.06
-0.075,-0.065,0.01,0.07,-0.042,-0.027,-0.034,-0.04,-0.032,-0.06,-0.075,-0.06
-0.069,-0.064,0.006,0.066,-0.037,-0.029,-0.036,-0.043,-0.039,-0.06,-0.078,-0.058
-0.053,-0.056,-0.003,0.055,-0.025,-0.03,-0.031,-0.045,-0.046,-0.06,-0.081,-0.054
-0.05,-0.059,-0.009,0.055,-0.02,-0.033,-0.03,-0.045,-0.051,-0.068,-0.079,-0.055
-0.082,-0.097,-0.015,0.09,-0.033,-0.056,-0.03,-0.045,-0.054,-0.071,-0.076,-0.068
-0.106,-0.113,-0.007,0.109,-0.049,-0.06,-0.03,-0.057,-0.059,-0.069,-0.075,-0.077
-0.103,-0.109,-0.006,0.106,-0.049,-0.057,-0.029,-0.061,-0.06,-0.07,-0.075,-0.077
-0.111,-0.11,0.0,0.111,-0.056,-0.055,-0.031,-0.059,-0.06,-0.07,-0.076,-0.081
-0.116,-0.11,0.005,0.112,-0.061,-0.052,-0.028,-0.061,-0.06,-0.07,-0.074,-0.084
-0.083,-0.109,-0.026,0.096,-0.029,-0.067,-0.033,-0.059,-0.06,-0.077,-0.08,-0.085
-0.083,-0.101,-0.018,0.092,-0.032,-0.059,-0.05,-0.06,-0.06,-0.08,-0.091,-0.085
-0.065,-0.082,-0.017,0.074,-0.024,-0.049,-0.05,-0.054,-0.06,-0.08,-0.09,-0.085
-0.048,-0.08,-0.032,0.064,-0.008,-0.056,-0.05,-0.051,-0.06,-0.08,-0.088,-0.085
-0.103,-0.119,-0.015,0.111,-0.044,-0.067,-0.05,-0.07,-0.072,-0.075,-0.085,-0.085
-0.118,-0.134,-0.016,0.126,-0.051,-0.075,-0.05,-0.075,-0.076,-0.075,-0.084,-0.085
-0.123,-0.126,-0.003,0.125,-0.06,-0.064,-0.048,-0.069,-0.074,-0.073,-0.088,-0.087
-0.123,-0.127,-0.003,0.125,-0.06,-0.064,-0.044,-0.068,-0.072,-0.086,-0.094,-0.09
-0.095,-0.123,-0.029,0.109,-0.033,-0.076,-0.046,-0.061,-0.069,-0.097,-0.095,-0.09
-0.089,-0.121,-0.032,0.106,-0.029,-0.076,-0.045,-0.061,-0.072,-0.094,-0.095,-0.09
-0.099,-0.116,-0.017,0.108,-0.041,-0.066,-0.045,-0.069,-0.08,-0.095,-0.095,-0.09
-0.099,-0.113,-0.015,0.106,-0.042,-0.064,-0.045,-0.071,-0.08,-0.095,-0.095,-0.089
-0.084,-0.11,-0.025,0.097,-0.03,-0.067,-0.039,-0.069,-0.079,-0.095,-0.095,-0.086
-0.082,-0.105,-0.022,0.094,-0.029,-0.063,-0.049,-0.07,-0.08,-0.091,-0.097,-0.085
-0.077,-0.107,-0.031,0.092,-0.023,-0.069,-0.056,-0.069,-0.079,-0.086,-0.1,-0.085
-0.077,-0.112,-0.035,0.095,-0.021,-0.073,-0.054,-0.071,-0.082,-0.081,-0.1,-0.085
-0.093,-0.117,-0.023,0.105,-0.035,-0.07,-0.055,-0.075,-0.085,-0.079,-0.1,-0.085
-0.096,-0.12,-0.023,0.108,-0.036,-0.071,-0.055,-0.075,-0.085,-0.07,-0.1,-0.087
-0.102,-0.114,-0.013,0.108,-0.044,-0.063,-0.055,-0.077,-0.085,-0.077,-0.1,-0.09
-0.096,-0.109,-0.013,0.102,-0.041,-0.061,-0.052,-0.081,-0.085,-0.1,-0.1,-0.093
-0.077,-0.104,-0.027,0.091,-0.025,-0.065,-0.047,-0.08,-0.088,-0.1,-0.1,-0.096
-0.083,-0.098,-0.015,0.091,-0.034,-0.056,-0.044,-0.077,-0.09,-0.1,-0.1,-0.1
-0.07,-0.091,-0.021,0.081,-0.024,-0.056,-0.041,-0.074,-0.09,-0.1,-0.1,-0.1
-0.072,-0.094,-0.022,0.083,-0.025,-0.057,-0.035,-0.072,-0.09,-0.1,-0.1,-0.096
-0.099,-0.108,-0.009,0.103,-0.044,-0.058,-0.038,-0.067,-0.09,-0.098,-0.1,-0.094
-0.097,-0.114,-0.016,0.106,-0.04,-0.065,-0.045,-0.065,-0.09,-0.094,-0.1,-0.091
-0.111,-0.108,0.003,0.109,-0.057,-0.052,-0.046,-0.064,-0.09,-0.096,-0.1,-0.087
-0.122,-0.105,0.017,0.113,-0.069,-0.044,-0.043,-0.065,-0.09,-0.094,-0.1,-0.085
-0.113,-0.102,0.011,0.107,-0.062,-0.045,-0.051,-0.065,-0.09,-0.095,-0.1,-0.083
-0.1,-0.096,0.004,0.098,-0.052,-0.046,-0.065,-0.065,-0.089,-0.094,-0.1,-0.078
-0.095,-0.097,-0.002,0.096,-0.046,-0.049,-0.065,-0.077,-0.091,-0.09,-0.094,-0.075
-0.073,-0.084,-0.011,0.079,-0.031,-0.047,-0.066,-0.07,-0.084,-0.082,-0.088,-0.072
-0.043,-0.104,-0.062,0.074,0.01,-0.083,-0.059,-0.059,-0.071,-0.076,-0.08,-0.066
-0.036,-0.109,-0.074,0.073,0.019,-0.091,-0.037,-0.036,-0.062,-0.069,-0.075,-0.066
-0.016,-0.082,-0.066,0.049,0.025,-0.074,-0.028,-0.025,-0.065,-0.062,-0.066,-0.069
-0.01,-0.086,-0.076,0.048,0.033,-0.08,-0.046,-0.025,-0.071,-0.064,-0.069,-0.076
-0.052,-0.085,-0.033,0.069,-0.009,-0.059,-0.063,-0.046,-0.072,-0.078,-0.083,-0.077
-0.069,-0.092,-0.023,0.08,-0.023,-0.057,-0.051,-0.073,-0.091,-0.093,-0.094,-0.084
-0.09,-0.087,0.003,0.088,-0.046,-0.042,-0.051,-0.064,-0.089,-0.085,-0.087,-0.084
-0.112,-0.105,0.006,0.108,-0.059,-0.049,-0.045,-0.086,-0.088,-0.105,-0.085,-0.086
-0.108,-0.103,0.004,0.105,-0.056,-0.049,-0.037,-0.067,-0.071,-0.089,-0.083,-0.092
-0.128,-0.098,0.03,0.113,-0.078,-0.033,-0.048,-0.068,-0.083,-0.086,-0.073,-0.085
-0.126,-0.083,0.043,0.104,-0.084,-0.02,0.017,0.172,0.022,-0.045,-0.083,-0.105
-0.008,0.076,0.083,-0.035,-0.046,0.079,0.024,0.428,0.314,0.195,0.082,0.037
0.481,0.403,-0.078,-0.442,0.279,0.163,-0.361,-0.253,0.398,0.566,0.574,0.54
0.85,0.789,-0.061,-0.819,0.455,0.364,-0.843,-1.227,0.341,0.854,1.023,1.021
0.404,0.615,0.21,-0.51,0.097,0.412,-0.673,-1.328,0.031,0.433,0.663,0.721
-0.123,0.071,0.194,0.026,-0.159,0.132,-0.252,-0.758,-0.316,-0.162,-0.004,0.062
-0.18,-0.089,0.091,0.134,-0.135,0.001,-0.13,-0.232,-0.218,-0.162,-0.123,-0.094
-0.132,-0.081,0.05,0.106,-0.09,-0.016,-0.067,-0.034,-0.121,-0.103,-0.105,-0.078
-0.103,-0.084,0.019,0.093,-0.061,-0.032,-0.048,0.001,-0.116,-0.109,-0.11,-0.091
-0.094,-0.076,0.018,0.084,-0.056,-0.029,-0.039,0.026,-0.089,-0.094,-0.093,-0.08
-0.084,-0.074,0.01,0.079,-0.046,-0.032,-0.025,0.03,-0.092,-0.098,-0.097,-0.089
-0.07,-0.06,0.009,0.065,-0.039,-0.025,-0.022,0.03,-0.078,-0.081,-0.082,-0.081
-0.053,-0.052,0.001,0.052,-0.027,-0.025,-0.01,0.03,-0.076,-0.096,-0.082,-0.081
-0.02,-0.019,0.002,0.019,-0.011,-0.008,-0.005,0.03,-0.067,-0.096,-0.071,-0.072
-0.037,-0.022,0.015,0.029,-0.025,-0.004,-0.004,0.03,-0.061,-0.074,-0.067,-0.07
-0.058,-0.046,0.012,0.052,-0.034,-0.017,-0.013,0.031,-0.055,-0.067,-0.061,-0.065
-0.048,-0.044,0.004,0.046,-0.026,-0.02,-0.015,0.039,-0.05,-0.063,-0.054,-0.06
-0.036,-0.039,-0.003,0.038,-0.017,-0.021,-0.023,0.046,-0.045,-0.058,-0.048,-0.057
-0.022,-0.037,-0.015,0.03,-0.003,-0.025,-0.027,0.051,-0.038,-0.054,-0.04,-0.051
0.001,-0.033,-0.034,0.016,0.018,-0.034,-0.033,0.047,-0.034,-0.049,-0.034,-0.048
0.007,-0.026,-0.033,0.01,0.02,-0.029,-0.039,0.061,-0.025,-0.042,-0.029,-0.042
0.029,-0.019,-0.048,-0.005,0.039,-0.033,-0.045,0.077,-0.015,-0.028,-0.022,-0.038
0.057,-0.008,-0.066,-0.024,0.062,-0.037,-0.056,0.095,-0.006,-0.014,-0.017,-0.028
0.07,-0.007,-0.077,-0.031,0.074,-0.041,-0.06,0.119,0.012,0.007,-0.004,-0.008
0.128,0.019,-0.108,-0.073,0.118,-0.044,-0.079,0.137,0.043,0.039,0.023,0.021
0.162,0.039,-0.124,-0.1,0.143,-0.042,-0.112,0.161,0.067,0.063,0.051,0.049
0.206,0.056,-0.15,-0.131,0.177,-0.047,-0.136,0.195,0.096,0.107,0.1,0.092
0.277,0.106,-0.171,-0.191,0.224,-0.033,-0.159,0.231,0.133,0.15,0.152,0.141
0.327,0.148,-0.179,-0.237,0.253,-0.016,-0.174,0.254,0.172,0.193,0.198,0.188
0.362,0.193,-0.169,-0.277,0.266,0.012,-0.167,0.284,0.216,0.251,0.253,0.242
0.378,0.223,-0.155,-0.3,0.266,0.034,-0.163,0.299,0.245,0.275,0.272,0.26
0.387,0.252,-0.135,-0.319,0.261,0.058,-0.14,0.288,0.25,0.278,0.259,0.246
0.321,0.248,-0.072,-0.284,0.196,0.088,-0.075,0.265,0.235,0.255,0.228,0.213
0.222,0.197,-0.024,-0.209,0.122,0.086,-0.017,0.208,0.196,0.195,0.164,0.152
0.138,0.153,0.015,-0.145,0.061,0.083,0.028,0.135,0.141,0.123,0.09,0.08
0.067,0.104,0.037,-0.086,0.015,0.07,0.047,0.074,0.086,0.051,0.019,0.024
0.033,0.067,0.034,-0.05,-0.001,0.05,0.041,0.021,0.035,0.004,-0.013,-0.024
-0.011,0.024,0.035,-0.007,-0.023,0.029,0.039,-0.002,-0.005,-0.027,-0.036,-0.053
-0.019,0.012,0.031,0.003,-0.025,0.022,0.034,-0.004,-0.021,-0.042,-0.062,-0.056
0.002,0.031,0.03,-0.017,-0.014,0.03,0.031,-0.01,-0.02,-0.04,-0.059,-0.063
0.003,0.033,0.03,-0.018,-0.013,0.031,0.028,-0.013,-0.019,-0.039,-0.063,-0.065
-0.001,0.024,0.025,-0.012,-0.014,0.025,0.024,-0.019,-0.024,-0.046,-0.066,-0.068
-0.011,0.004,0.015,0.003,-0.013,0.009,0.026,-0.018,-0.026,-0.056,-0.062,-0.07
-0.011,0.02,0.031,-0.005,-0.021,0.025,0.021,-0.014,-0.025,-0.055,-0.06,-0.065
-0.014,0.033,0.047,-0.01,-0.031,0.039,0.02,-0.012,-0.024,-0.057,-0.06,-0.065
-0.018,0.019,0.037,-0.001,-0.028,0.028,0.02,-0.009,-0.02,-0.056,-0.06,-0.065
-0.014,0.021,0.035,-0.004,-0.025,0.028,0.015,-0.006,-0.02,-0.052,-0.06,-0.065
-0.017,0.013,0.03,0.002,-0.024,0.021,0.015,-0.005,-0.022,-0.05,-0.06,-0.065
-0.016,0.009,0.025,0.003,-0.021,0.017,0.015,-0.01,-0.03,-0.046,-0.06,-0.065
0.023,0.044,0.021,-0.034,0.001,0.033,0.015,-0.009,-0.034,-0.045,-0.06,-0.065
0.041,0.061,0.02,-0.051,0.01,0.04,0.015,-0.012,-0.037,-0.048,-0.06,-0.065
0.026,0.046,0.019,-0.036,0.003,0.032,0.013,-0.015,-0.04,-0.053,-0.06,-0.065
0.022,0.038,0.016,-0.031,0.003,0.027,0.009,-0.016,-0.04,-0.057,-0.06,-0.065
0.016,0.029,0.013,-0.023,0.001,0.021,0.007,-0.014,-0.04,-0.06,-0.062,-0.066
0.009,0.03,0.022,-0.02,-0.006,0.026,0.004,-0.016,-0.041,-0.062,-0.067,-0.069
-0.006,0.03,0.036,-0.012,-0.021,0.032,0.001,-0.038,-0.055,-0.065,-0.07,-0.073
-0.014,0.021,0.035,-0.004,-0.025,0.028,-0.001,-0.047,-0.061,-0.069,-0.078,-0.075
-0.024,0.009,0.034,0.007,-0.029,0.021,-0.005,-0.047,-0.059,-0.07,-0.081,-0.076
-0.032,-0.003,0.03,0.017,-0.031,0.013,-0.005,-0.052,-0.06,-0.079,-0.079,-0.08
-0.045,-0.014,0.03,0.03,-0.037,0.008,-0.007,-0.054,-0.064,-0.086,-0.081,-0.08
-0.068,-0.04,0.028,0.054,-0.048,-0.006,-0.01,-0.055,-0.071,-0.084,-0.079,-0.075
-0.052,-0.031,0.021,0.041,-0.036,-0.005,-0.01,-0.055,-0.07,-0.085,-0.081,-0.075
-0.041,-0.025,0.016,0.033,-0.029,-0.004,-0.014,-0.055,-0.07,-0.085,-0.085,-0.075
-0.055,-0.046,0.009,0.051,-0.032,-0.018,-0.016,-0.055,-0.07,-0.085,-0.085,-0.075
-0.079,-0.045,0.034,0.062,-0.056,-0.005,-0.014,-0.055,-0.069,-0.09,-0.087,-0.075
-0.087,-0.045,0.042,0.066,-0.064,-0.001,-0.01,-0.055,-0.071,-0.09,-0.09,-0.075
-0.061,-0.045,0.016,0.053,-0.038,-0.014,-0.01,-0.055,-0.069,-0.09,-0.09,-0.075
-0.071,-0.045,0.026,0.058,-0.048,-0.009,-0.009,-0.054,-0.072,-0.09,-0.086,-0.076
-0.084,-0.043,0.041,0.063,-0.062,-0.001,-0.005,-0.068,-0.08,-0.087,-0.085,-0.085
-0.065,-0.036,0.029,0.05,-0.047,-0.003,-0.005,-0.076,-0.08,-0.085,-0.085,-0.085
-0.054,-0.029,0.025,0.041,-0.039,-0.002,-0.008,-0.07,-0.08,-0.085,-0.085,-0.081
-0.041,-0.023,0.018,0.031,-0.029,-0.002,-0.01,-0.068,-0.08,-0.085,-0.085,-0.079
-0.024,-0.016,0.009,0.02,-0.016,-0.003,-0.01,-0.063,-0.08,-0.085,-0.086,-0.076
-0.031,-0.01,0.021,0.02,-0.026,0.005,-0.01,-0.06,-0.08,-0.084,-0.09,-0.074
-0.041,-0.026,0.015,0.034,-0.028,-0.006,-0.01,-0.057,-0.075,-0.081,-0.09,-0.071
-0.065,-0.037,0.028,0.05,-0.046,-0.004,-0.009,-0.054,-0.074,-0.078,-0.092,-0.069
-0.079,-0.034,0.045,0.056,-0.062,0.005,-0.006,-0.056,-0.069,-0.076,-0.096,-0.064
-0.063,-0.036,0.028,0.049,-0.045,-0.004,-0.001,-0.054,-0.076,-0.072,-0.095,-0.072
-0.06,-0.035,0.026,0.047,-0.042,-0.004,0.001,-0.056,-0.087,-0.07,-0.092,-0.082
-0.044,-0.036,0.009,0.04,-0.026,-0.013,0.006,-0.053,-0.083,-0.067,-0.089,-0.079
-0.05,-0.033,0.017,0.041,-0.033,-0.008,0.01,-0.05,-0.081,-0.065,-0.086,-0.08
-0.074,-0.028,0.046,0.05,-0.06,0.009,0.01,-0.05,-0.077,-0.065,-0.083,-0.08
-0.062,-0.022,0.04,0.042,-0.051,0.009,0.01,-0.05,-0.075,-0.065,-0.08,-0.08
-0.053,-0.019,0.034,0.036,-0.044,0.007,0.01,-0.05,-0.073,-0.065,-0.08,-0.084
-0.046,-0.013,0.034,0.029,-0.04,0.01,0.01,-0.05,-0.069,-0.065,-0.08,-0.085
-0.035,-0.012,0.023,0.023,-0.029,0.005,0.01,-0.054,-0.067,-0.075,-0.08,-0.085
-0.055,-0.028,0.026,0.041,-0.04,-0.001,0.01,-0.055,-0.064,-0.077,-0.08,-0.085
-0.074,-0.032,0.042,0.053,-0.058,0.004,0.006,-0.055,-0.061,-0.075,-0.081,-0.086
-0.064,-0.024,0.04,0.044,-0.052,0.008,0.005,-0.059,-0.059,-0.075,-0.079,-0.083
-0.055,-0.027,0.028,0.041,-0.041,0.001,0.005,-0.061,-0.067,-0.076,-0.081,-0.08
-0.044,-0.018,0.026,0.03,-0.035,0.003,-0.001,-0.058,-0.071,-0.073,-0.078,-0.077
-0.043,-0.025,0.018,0.033,-0.03,-0.003,0.001,-0.055,-0.08,-0.082,-0.085,-0.075
-0.056,-0.057,-0.001,0.056,-0.027,-0.028,-0.006,-0.049,-0.091,-0.097,-0.096,-0.072
-0.053,-0.056,-0.003,0.055,-0.025,-0.029,-0.035,-0.046,-0.081,-0.091,-0.09,-0.069
0.001,-0.046,-0.047,0.023,0.024,-0.046,-0.027,-0.041,-0.077,-0.09,-0.087,-0.074
0.024,-0.042,-0.066,0.009,0.045,-0.054,0.003,-0.029,-0.068,-0.084,-0.08,-0.075
0.014,-0.033,-0.047,0.01,0.031,-0.04,0.011,-0.022,-0.064,-0.088,-0.082,-0.075
0.018,-0.03,-0.048,0.006,0.033,-0.038,0.01,-0.009,-0.058,-0.09,-0.085,-0.08
-0.02,-0.053,-0.034,0.037,0.007,-0.044,0.003,-0.042,-0.061,-0.089,-0.088,-0.079
-0.052,-0.07,-0.018,0.061,-0.017,-0.044,-0.001,-0.052,-0.078,-0.095,-0.092,-0.081
-0.073,-0.065,0.008,0.069,-0.04,-0.028,-0.007,-0.065,-0.078,-0.092,-0.092,-0.078
-0.07,-0.066,0.004,0.068,-0.037,-0.03,-0.014,-0.064,-0.085,-0.1,-0.099,-0.082
-0.076,-0.045,0.031,0.06,-0.053,-0.006,-0.007,-0.066,-0.069,-0.081,-0.082,-0.077
-0.093,-0.054,0.039,0.073,-0.066,-0.008,0.021,-0.028,-0.046,-0.081,-0.089,-0.085
-0.079,0.023,0.101,0.028,-0.09,0.062,0.107,0.355,0.167,0.047,-0.034,-0.067
0.116,0.248,0.132,-0.182,-0.008,0.19,-0.002,0.176,0.375,0.335,0.253,0.201
0.621,0.657,0.035,-0.639,0.293,0.346,-0.553,-0.909,0.395,0.767,0.837,0.798
0.739,0.862,0.123,-0.8,0.308,0.492,-0.865,-1.507,0.277,0.839,1.036,1.042
0.191,0.364,0.173,-0.278,0.009,0.268,-0.509,-1.13,-0.188,0.128,0.37,0.443
-0.135,-0.036,0.098,0.085,-0.116,0.031,-0.171,-0.464,-0.32,-0.22,-0.084,-0.035
-0.116,-0.044,0.072,0.08,-0.093,0.014,-0.055,-0.075,-0.097,-0.091,-0.074,-0.041
-0.1,-0.065,0.035,0.082,-0.067,-0.015,0.03,0.034,-0.079,-0.102,-0.093,-0.069
-0.068,-0.054,0.014,0.061,-0.041,-0.019,0.035,0.051,-0.067,-0.091,-0.078,-0.08
-0.083,-0.055,0.028,0.069,-0.055,-0.013,0.035,0.051,-0.06,-0.097,-0.082,-0.08
-0.079,-0.051,0.028,0.065,-0.053,-0.012,0.036,0.05,-0.052,-0.095,-0.08,-0.081
-0.061,-0.047,0.014,0.054,-0.038,-0.016,0.034,0.045,-0.054,-0.094,-0.076,-0.075
-0.042,-0.047,-0.005,0.045,-0.018,-0.026,0.036,0.045,-0.068,-0.09,-0.075,-0.075
-0.024,-0.042,-0.018,0.033,-0.003,-0.03,0.031,0.038,-0.047,-0.075,-0.07,-0.07
-0.038,-0.041,-0.003,0.04,-0.018,-0.022,0.03,0.045,-0.04,-0.07,-0.07,-0.069
-0.04,-0.039,0.001,0.039,-0.02,-0.019,0.025,0.048,-0.03,-0.06,-0.064,-0.065
-0.014,-0.038,-0.025,0.026,0.006,-0.031,0.024,0.046,-0.026,-0.057,-0.065,-0.064
-0.002,-0.034,-0.032,0.018,0.016,-0.033,0.02,0.064,-0.02,-0.049,-0.057,-0.056
-0.031,-0.036,-0.004,0.034,-0.013,-0.02,0.02,0.077,-0.012,-0.041,-0.051,-0.048
-0.007,-0.031,-0.024,0.019,0.009,-0.027,0.031,0.095,-0.006,-0.028,-0.044,-0.039
0.018,-0.024,-0.042,0.004,0.03,-0.033,0.023,0.105,0.005,-0.017,-0.037,-0.033
0.023,-0.017,-0.04,-0.003,0.032,-0.028,0.007,0.117,0.019,-0.004,-0.032,-0.022
0.049,-0.012,-0.061,-0.018,0.055,-0.036,-0.003,0.138,0.041,0.007,-0.023,-0.009
0.077,0.001,-0.076,-0.039,0.077,-0.037,-0.017,0.165,0.067,0.029,-0.002,0.005
0.129,0.035,-0.094,-0.081,0.111,-0.029,-0.024,0.202,0.093,0.061,0.035,0.039
0.182,0.064,-0.118,-0.123,0.15,-0.027,-0.045,0.237,0.134,0.09,0.067,0.068
0.237,0.093,-0.144,-0.165,0.19,-0.025,-0.068,0.279,0.171,0.145,0.114,0.112
0.305,0.141,-0.164,-0.223,0.234,-0.012,-0.08,0.305,0.207,0.193,0.168,0.161
0.364,0.192,-0.172,-0.278,0.267,0.01,-0.091,0.327,0.251,0.241,0.212,0.206
0.406,0.232,-0.174,-0.319,0.29,0.028,-0.079,0.334,0.289,0.29,0.261,0.252
0.386,0.247,-0.139,-0.316,0.263,0.054,-0.063,0.327,0.31,0.301,0.272,0.265
0.316,0.232,-0.084,-0.274,0.2,0.073,-0.036,0.306,0.299,0.283,0.254,0.247
0.271,0.222,-0.049,-0.247,0.16,0.086,0.018,0.247,0.272,0.238,0.208,0.196
0.146,0.164,0.018,-0.155,0.064,0.091,0.073,0.166,0.22,0.165,0.129,0.127
0.047,0.088,0.041,-0.068,0.003,0.064,0.095,0.085,0.138,0.087,0.051,0.062
0.018,0.049,0.031,-0.034,-0.007,0.04,0.091,0.033,0.075,0.029,-0.007,0.015
-0.042,-0.003,0.038,0.022,-0.04,0.017,0.086,0.0,0.036,-0.008,-0.026,-0.025
-0.038,-0.006,0.032,0.022,-0.035,0.013,0.081,-0.02,0.021,-0.033,-0.044,-0.047
-0.04,-0.002,0.038,0.02,-0.039,0.018,0.078,-0.03,0.017,-0.044,-0.062,-0.057
-0.062,-0.04,0.021,0.051,-0.041,-0.009,0.072,-0.032,0.009,-0.045,-0.063,-0.061
-0.052,-0.056,-0.003,0.054,-0.024,-0.029,0.068,-0.029,0.003,-0.045,-0.065,-0.059
-0.055,-0.055,0.0,0.055,-0.027,-0.027,0.065,-0.031,-0.004,-0.045,-0.067,-0.06
-0.072,-0.055,0.017,0.063,-0.044,-0.019,0.061,-0.03,-0.005,-0.045,-0.071,-0.06
-0.068,-0.055,0.013,0.061,-0.04,-0.021,0.058,-0.03,-0.005,-0.046,-0.068,-0.059
-0.06,-0.055,0.005,0.057,-0.032,-0.025,0.053,-0.028,-0.005,-0.05,-0.065,-0.055
-0.079,-0.052,0.027,0.065,-0.053,-0.012,0.05,-0.023,-0.005,-0.05,-0.065,-0.055
-0.079,-0.046,0.033,0.063,-0.055,-0.006,0.046,-0.02,-0.005,-0.05,-0.065,-0.055
-0.067,-0.041,0.026,0.054,-0.046,-0.007,0.044,-0.017,-0.006,-0.05,-0.065,-0.055
-0.065,-0.038,0.027,0.051,-0.046,-0.005,0.045,-0.012,-0.01,-0.05,-0.065,-0.055
-0.051,-0.031,0.02,0.041,-0.035,-0.006,0.045,-0.01,-0.013,-0.054,-0.069,-0.055
-0.055,-0.033,0.022,0.044,-0.038,-0.006,0.045,-0.015,-0.015,-0.055,-0.071,-0.055
-0.053,-0.041,0.012,0.047,-0.032,-0.014,0.044,-0.019,-0.019,-0.055,-0.07,-0.055
-0.035,-0.04,-0.005,0.037,-0.015,-0.023,0.04,-0.022,-0.02,-0.055,-0.07,-0.055
-0.047,-0.04,0.007,0.043,-0.027,-0.016,0.041,-0.026,-0.024,-0.055,-0.069,-0.055
-0.055,-0.041,0.014,0.048,-0.034,-0.013,0.037,-0.029,-0.025,-0.056,-0.072,-0.056
-0.051,-0.038,0.013,0.044,-0.032,-0.012,0.035,-0.032,-0.026,-0.06,-0.075,-0.06
-0.065,-0.046,0.019,0.055,-0.042,-0.013,0.035,-0.037,-0.03,-0.063,-0.078,-0.06
-0.065,-0.062,0.003,0.063,-0.034,-0.029,0.032,-0.04,-0.029,-0.067,-0.08,-0.06
-0.055,-0.058,-0.003,0.056,-0.026,-0.031,0.029,-0.04,-0.036,-0.07,-0.083,-0.064
-0.081,-0.055,0.026,0.068,-0.053,-0.014,0.026,-0.041,-0.041,-0.07,-0.086,-0.065
-0.088,-0.053,0.035,0.07,-0.061,-0.009,0.023,-0.039,-0.043,-0.07,-0.081,-0.065
-0.052,-0.049,0.004,0.051,-0.028,-0.022,0.02,-0.046,-0.046,-0.07,-0.08,-0.07
-0.047,-0.053,-0.006,0.05,-0.021,-0.029,0.021,-0.056,-0.049,-0.07,-0.08,-0.07
-0.084,-0.055,0.03,0.069,-0.057,-0.012,0.025,-0.055,-0.05,-0.069,-0.076,-0.071
-0.108,-0.066,0.041,0.087,-0.074,-0.012,0.025,-0.055,-0.045,-0.072,-0.074,-0.075
-0.104,-0.075,0.029,0.089,-0.066,-0.023,0.025,-0.055,-0.046,-0.075,-0.076,-0.075
-0.101,-0.076,0.025,0.088,-0.062,-0.026,0.025,-0.055,-0.043,-0.075,-0.08,-0.075
-0.098,-0.08,0.018,0.089,-0.058,-0.031,0.025,-0.053,-0.04,-0.075,-0.08,-0.075
-0.091,-0.082,0.009,0.086,-0.049,-0.036,0.022,-0.049,-0.039,-0.075,-0.08,-0.075
-0.102,-0.086,0.016,0.094,-0.059,-0.034,0.019,-0.051,-0.044,-0.075,-0.08,-0.075
-0.114,-0.083,0.031,0.098,-0.072,-0.025,0.02,-0.049,-0.055,-0.071,-0.08,-0.075
-0.102,-0.079,0.023,0.09,-0.062,-0.028,0.02,-0.05,-0.055,-0.071,-0.08,-0.075
-0.1,-0.08,0.02,0.09,-0.06,-0.03,0.021,-0.049,-0.055,-0.068,-0.08,-0.075
-0.095,-0.08,0.015,0.087,-0.055,-0.032,0.019,-0.045,-0.055,-0.078,-0.08,-0.075
-0.09,-0.08,0.01,0.085,-0.05,-0.035,0.015,-0.045,-0.055,-0.095,-0.08,-0.074
-0.1,-0.079,0.02,0.09,-0.06,-0.029,0.015,-0.044,-0.054,-0.087,-0.079,-0.07
-0.1,-0.075,0.025,0.088,-0.062,-0.025,0.013,-0.054,-0.051,-0.08,-0.081,-0.07
-0.087,-0.072,0.016,0.079,-0.051,-0.028,0.01,-0.061,-0.048,-0.075,-0.085,-0.07
-0.082,-0.068,0.014,0.075,-0.048,-0.027,0.01,-0.06,-0.046,-0.065,-0.085,-0.07
-0.071,-0.065,0.006,0.068,-0.038,-0.029,0.014,-0.058,-0.042,-0.072,-0.085,-0.07
-0.059,-0.059,0.0,0.059,-0.029,-0.03,0.024,-0.054,-0.04,-0.081,-0.085,-0.066
-0.088,-0.065,0.023,0.077,-0.055,-0.021,0.028,-0.056,-0.042,-0.079,-0.085,-0.065
-0.096,-0.085,0.011,0.091,-0.053,-0.037,0.025,-0.051,-0.047,-0.082,-0.082,-0.065
-0.089,-0.082,0.007,0.085,-0.048,-0.037,0.023,-0.05,-0.06,-0.085,-0.077,-0.065
-0.096,-0.075,0.021,0.085,-0.058,-0.027,0.02,-0.049,-0.06,-0.085,-0.074,-0.065
-0.081,-0.075,0.007,0.078,-0.044,-0.034,0.017,-0.046,-0.056,-0.081,-0.071,-0.065
-0.067,-0.064,0.003,0.065,-0.035,-0.03,0.014,-0.043,-0.053,-0.08,-0.065,-0.065
-0.069,-0.075,-0.006,0.073,-0.031,-0.041,0.012,-0.05,-0.05,-0.08,-0.07,-0.065
-0.075,-0.089,-0.014,0.083,-0.031,-0.051,0.009,-0.062,-0.048,-0.076,-0.081,-0.065
-0.069,-0.077,-0.007,0.073,-0.031,-0.042,0.006,-0.058,-0.046,-0.075,-0.076,-0.065
-0.048,-0.057,-0.009,0.053,-0.019,-0.033,0.004,-0.055,-0.042,-0.077,-0.074,-0.065
-0.049,-0.067,-0.018,0.058,-0.016,-0.042,0.0,-0.051,-0.04,-0.08,-0.07,-0.065
-0.085,-0.093,-0.008,0.089,-0.038,-0.05,0.002,-0.051,-0.037,-0.08,-0.065,-0.065
-0.078,-0.089,-0.01,0.084,-0.034,-0.049,0.005,-0.046,-0.033,-0.082,-0.068,-0.065
-0.083,-0.084,-0.001,0.084,-0.04,-0.042,0.006,-0.056,-0.051,-0.085,-0.068,-0.065
-0.083,-0.084,-0.001,0.084,-0.041,-0.043,-0.002,-0.064,-0.058,-0.085,-0.064,-0.065
-0.058,-0.077,-0.019,0.067,-0.02,-0.048,-0.012,-0.046,-0.043,-0.082,-0.062,-0.064
-0.059,-0.087,-0.027,0.073,-0.016,-0.057,-0.001,-0.045,-0.036,-0.073,-0.059,-0.059
-0.011,-0.089,-0.078,0.05,0.034,-0.083,0.014,-0.029,-0.026,-0.072,-0.057,-0.061
0.013,-0.067,-0.08,0.027,0.047,-0.074,0.025,-0.012,-0.024,-0.074,-0.054,-0.059
0.006,-0.067,-0.073,0.03,0.04,-0.069,0.025,0.009,-0.025,-0.077,-0.062,-0.061
0.01,-0.059,-0.069,0.025,0.04,-0.064,0.024,-0.008,-0.029,-0.072,-0.061,-0.059
-0.021,-0.064,-0.043,0.043,0.011,-0.053,0.026,-0.06,-0.049,-0.078,-0.069,-0.064
-0.041,-0.077,-0.036,0.059,-0.002,-0.056,0.024,-0.063,-0.042,-0.073,-0.072,-0.066
-0.054,-0.077,-0.024,0.066,-0.015,-0.05,0.027,-0.071,-0.047,-0.073,-0.07,-0.063
-0.058,-0.068,-0.01,0.063,-0.024,-0.039,0.015,-0.048,-0.045,-0.07,-0.068,-0.073
-0.069,-0.063,0.005,0.066,-0.037,-0.029,0.02,-0.067,-0.041,-0.064,-0.055,-0.064
-0.105,-0.059,0.046,0.082,-0.075,-0.007,0.072,0.127,0.037,-0.034,-0.073,-0.078
-0.064,0.069,0.132,-0.003,-0.098,0.1,0.118,0.415,0.303,0.16,0.06,0.024
0.34,0.376,0.036,-0.358,0.152,0.206,-0.205,-0.2,0.387,0.485,0.49,0.451
0.839,0.787,-0.052,-0.813,0.446,0.367,-0.766,-1.232,0.37,0.839,0.993,0.983
0.567,0.648,0.081,-0.608,0.243,0.364,-0.726,-1.372,0.107,0.53,0.767,0.827
-0.034,0.078,0.112,-0.022,-0.073,0.095,-0.299,-0.776,-0.293,-0.114,0.1,0.164
-0.14,-0.087,0.053,0.113,-0.097,-0.017,-0.084,-0.214,-0.183,-0.15,-0.035,-0.038
-0.1,-0.074,0.025,0.087,-0.063,-0.024,0.007,0.0,-0.066,-0.102,-0.036,-0.031
-0.118,-0.085,0.033,0.102,-0.076,-0.026,0.031,0.026,-0.073,-0.113,-0.071,-0.065
-0.116,-0.075,0.041,0.095,-0.079,-0.017,0.033,0.039,-0.042,-0.085,-0.056,-0.06
-0.109,-0.085,0.025,0.097,-0.067,-0.03,0.037,0.033,-0.054,-0.098,-0.072,-0.076
-0.091,-0.075,0.016,0.083,-0.054,-0.029,0.034,0.036,-0.034,-0.081,-0.06,-0.067
-0.082,-0.077,0.005,0.079,-0.043,-0.036,0.036,0.034,-0.036,-0.085,-0.066,-0.068
-0.069,-0.071,-0.003,0.07,-0.033,-0.036,0.034,0.035,-0.026,-0.075,-0.058,-0.064
-0.061,-0.07,-0.009,0.066,-0.026,-0.039,0.036,0.039,-0.023,-0.072,-0.061,-0.065
-0.05,-0.067,-0.017,0.059,-0.016,-0.042,0.031,0.041,-0.017,-0.066,-0.056,-0.06
-0.039,-0.063,-0.024,0.051,-0.007,-0.043,0.03,0.048,-0.011,-0.059,-0.049,-0.052
-0.048,-0.079,-0.031,0.064,-0.008,-0.055,0.03,0.049,-0.006,-0.054,-0.046,-0.05
-0.05,-0.086,-0.035,0.069,-0.007,-0.061,0.025,0.067,0.005,-0.043,-0.038,-0.041
-0.041,-0.076,-0.034,0.059,-0.003,-0.055,0.025,0.078,0.011,-0.036,-0.035,-0.038
-0.023,-0.063,-0.04,0.044,0.008,-0.051,0.024,0.08,0.022,-0.026,-0.028,-0.032
-0.002,-0.052,-0.05,0.027,0.024,-0.051,0.015,0.098,0.026,-0.015,-0.021,-0.023
0.017,-0.043,-0.06,0.014,0.038,-0.051,0.007,0.124,0.042,-0.003,-0.01,-0.013
0.036,-0.034,-0.07,-0.001,0.053,-0.052,-0.002,0.147,0.062,0.02,0.001,0.008
0.053,-0.027,-0.081,-0.013,0.067,-0.054,-0.011,0.173,0.082,0.045,0.024,0.031
0.115,0.006,-0.109,-0.06,0.112,-0.051,-0.026,0.207,0.111,0.074,0.059,0.054
0.188,0.055,-0.133,-0.121,0.16,-0.039,-0.052,0.242,0.141,0.112,0.096,0.095
0.236,0.093,-0.144,-0.164,0.19,-0.025,-0.07,0.273,0.19,0.163,0.15,0.149
0.292,0.141,-0.151,-0.217,0.221,-0.005,-0.08,0.303,0.231,0.212,0.2,0.194
0.333,0.193,-0.14,-0.263,0.236,0.026,-0.08,0.327,0.268,0.257,0.248,0.239
0.354,0.221,-0.133,-0.287,0.243,0.044,-0.082,0.331,0.299,0.287,0.278,0.276
0.353,0.231,-0.122,-0.291,0.237,0.054,-0.065,0.317,0.294,0.28,0.265,0.285
0.299,0.218,-0.081,-0.258,0.19,0.068,-0.026,0.287,0.287,0.268,0.25,0.25
0.202,0.169,-0.033,-0.185,0.117,0.067,0.017,0.226,0.25,0.218,0.197,0.176
0.108,0.11,0.001,-0.109,0.053,0.055,0.068,0.146,0.175,0.134,0.115,0.105
0.037,0.048,0.011,-0.042,0.013,0.029,0.079,0.082,0.113,0.068,0.054,0.044
-0.015,-0.003,0.012,0.008,-0.013,0.004,0.07,0.036,0.063,0.02,0.006,-0.002
-0.05,-0.035,0.016,0.042,-0.033,-0.009,0.067,0.009,0.032,-0.007,-0.019,-0.023
-0.077,-0.059,0.018,0.068,-0.048,-0.02,0.06,0.002,0.015,-0.028,-0.036,-0.038
-0.083,-0.062,0.021,0.073,-0.051,-0.021,0.055,-0.003,-0.001,-0.039,-0.041,-0.047
-0.091,-0.071,0.02,0.081,-0.055,-0.025,0.051,-0.006,-0.001,-0.041,-0.044,-0.046
-0.105,-0.085,0.02,0.095,-0.062,-0.032,0.051,-0.012,0.0,-0.037,-0.043,-0.045
-0.102,-0.082,0.02,0.092,-0.061,-0.03,0.05,-0.015,0.001,-0.035,-0.039,-0.044
-0.097,-0.078,0.019,0.088,-0.058,-0.03,0.05,-0.01,0.005,-0.032,-0.04,-0.04
-0.088,-0.074,0.014,0.081,-0.051,-0.03,0.05,-0.01,0.005,-0.029,-0.04,-0.04
-0.08,-0.071,0.008,0.075,-0.044,-0.031,0.05,-0.009,0.003,-0.04,-0.04,-0.04
-0.071,-0.066,0.005,0.068,-0.038,-0.03,0.049,-0.005,0.0,-0.046,-0.04,-0.04
-0.063,-0.063,0.0,0.063,-0.031,-0.031,0.045,-0.005,0.0,-0.044,-0.044,-0.04
-0.048,-0.053,-0.005,0.051,-0.021,-0.029,0.043,-0.008,-0.004,-0.046,-0.045,-0.04
-0.054,-0.056,-0.001,0.055,-0.027,-0.028,0.04,-0.011,-0.005,-0.045,-0.045,-0.04
-0.083,-0.078,0.005,0.08,-0.044,-0.036,0.037,-0.01,-0.005,-0.045,-0.046,-0.04
-0.082,-0.071,0.01,0.076,-0.046,-0.03,0.034,-0.014,-0.01,-0.048,-0.044,-0.04
-0.069,-0.052,0.017,0.06,-0.043,-0.017,0.035,-0.015,-0.014,-0.052,-0.048,-0.04
-0.074,-0.055,0.019,0.065,-0.047,-0.018,0.035,-0.015,-0.016,-0.055,-0.051,-0.04
-0.099,-0.086,0.013,0.092,-0.056,-0.037,0.035,-0.02,-0.021,-0.055,-0.05,-0.04
-0.099,-0.092,0.007,0.095,-0.053,-0.042,0.035,-0.025,-0.024,-0.057,-0.05,-0.04
-0.092,-0.089,0.003,0.09,-0.047,-0.043,0.035,-0.029,-0.027,-0.061,-0.05,-0.042
-0.086,-0.09,-0.004,0.089,-0.041,-0.047,0.034,-0.034,-0.038,-0.059,-0.051,-0.047
-0.081,-0.09,-0.008,0.086,-0.037,-0.049,0.029,-0.039,-0.045,-0.061,-0.054,-0.05
-0.082,-0.089,-0.007,0.086,-0.037,-0.048,0.031,-0.043,-0.046,-0.059,-0.057,-0.05
-0.081,-0.075,0.006,0.078,-0.044,-0.034,0.027,-0.045,-0.05,-0.062,-0.06,-0.05
-0.095,-0.094,0.0,0.094,-0.047,-0.047,0.025,-0.045,-0.052,-0.07,-0.06,-0.05
-0.091,-0.108,-0.017,0.1,-0.037,-0.062,0.024,-0.045,-0.055,-0.07,-0.06,-0.05
-0.102,-0.103,-0.001,0.103,-0.05,-0.052,0.028,-0.045,-0.055,-0.07,-0.06,-0.05
-0.122,-0.106,0.016,0.114,-0.068,-0.045,0.045,-0.045,-0.055,-0.07,-0.06,-0.052
-0.12,-0.105,0.016,0.112,-0.067,-0.044,0.042,-0.045,-0.055,-0.07,-0.06,-0.06
-0.115,-0.105,0.01,0.11,-0.062,-0.047,0.036,-0.044,-0.055,-0.07,-0.06,-0.064
-0.107,-0.101,0.006,0.103,-0.056,-0.047,0.033,-0.05,-0.055,-0.07,-0.06,-0.061
-0.099,-0.096,0.003,0.097,-0.05,-0.046,0.027,-0.056,-0.055,-0.07,-0.06,-0.058
-0.084,-0.094,-0.01,0.089,-0.036,-0.052,0.024,-0.055,-0.055,-0.07,-0.06,-0.055
-0.068,-0.089,-0.021,0.078,-0.023,-0.055,0.02,-0.055,-0.055,-0.07,-0.06,-0.052
-0.069,-0.085,-0.016,0.078,-0.026,-0.051,0.018,-0.055,-0.054,-0.07,-0.06,-0.049
-0.083,-0.092,-0.009,0.088,-0.037,-0.05,0.015,-0.055,-0.058,-0.074,-0.06,-0.052
-0.083,-0.104,-0.021,0.094,-0.031,-0.062,0.012,-0.051,-0.062,-0.081,-0.06,-0.055
-0.103,-0.121,-0.018,0.112,-0.043,-0.069,0.009,-0.049,-0.06,-0.085,-0.06,-0.055
-0.109,-0.119,-0.011,0.114,-0.049,-0.065,0.011,-0.05,-0.06,-0.085,-0.06,-0.055
-0.094,-0.11,-0.016,0.102,-0.039,-0.062,0.009,-0.05,-0.06,-0.085,-0.06,-0.055
-0.105,-0.105,0.0,0.105,-0.052,-0.052,0.014,-0.05,-0.06,-0.085,-0.061,-0.055
-0.116,-0.099,0.017,0.108,-0.067,-0.041,0.026,-0.05,-0.061,-0.085,-0.064,-0.055
-0.127,-0.101,0.026,0.113,-0.076,-0.037,0.024,-0.05,-0.064,-0.081,-0.065,-0.055
-0.121,-0.1,0.022,0.11,-0.072,-0.039,0.021,-0.05,-0.065,-0.08,-0.065,-0.055
-0.118,-0.1,0.018,0.109,-0.068,-0.041,0.018,-0.05,-0.065,-0.08,-0.065,-0.055
-0.115,-0.1,0.015,0.107,-0.065,-0.042,0.015,-0.05,-0.065,-0.075,-0.065,-0.055
-0.105,-0.096,0.009,0.101,-0.057,-0.043,0.014,-0.05,-0.065,-0.075,-0.062,-0.055
-0.109,-0.093,0.016,0.101,-0.062,-0.038,0.01,-0.054,-0.065,-0.075,-0.06,-0.055
-0.105,-0.089,0.016,0.096,-0.06,-0.036,0.01,-0.055,-0.065,-0.075,-0.06,-0.055
-0.08,-0.087,-0.006,0.083,-0.036,-0.046,0.01,-0.055,-0.065,-0.075,-0.06,-0.055
-0.072,-0.08,-0.008,0.076,-0.032,-0.044,0.01,-0.059,-0.065,-0.075,-0.06,-0.055
-0.096,-0.085,0.012,0.09,-0.054,-0.037,0.01,-0.06,-0.066,-0.076,-0.061,-0.056
-0.114,-0.097,0.017,0.105,-0.065,-0.04,0.007,-0.058,-0.064,-0.074,-0.065,-0.06
-0.102,-0.094,0.009,0.098,-0.055,-0.042,0.004,-0.056,-0.061,-0.072,-0.065,-0.06
-0.107,-0.099,0.008,0.102,-0.057,-0.045,0.005,-0.052,-0.058,-0.068,-0.065,-0.06
-0.102,-0.101,0.001,0.101,-0.051,-0.05,0.005,-0.05,-0.055,-0.074,-0.065,-0.06
-0.078,-0.096,-0.018,0.088,-0.03,-0.057,0.004,-0.046,-0.053,-0.093,-0.063,-0.06
-0.09,-0.094,-0.003,0.092,-0.043,-0.048,0.007,-0.046,-0.048,-0.088,-0.056,-0.057
-0.048,-0.089,-0.041,0.069,-0.004,-0.065,0.008,-0.032,-0.053,-0.078,-0.051,-0.048
-0.003,-0.086,-0.083,0.045,0.041,-0.085,0.028,0.001,-0.055,-0.075,-0.047,-0.042
-0.018,-0.082,-0.064,0.05,0.023,-0.072,0.042,-0.008,-0.055,-0.075,-0.038,-0.038
-0.001,-0.075,-0.073,0.039,0.036,-0.074,0.04,-0.017,-0.055,-0.074,-0.039,-0.042
-0.014,-0.065,-0.051,0.04,0.019,-0.058,0.04,-0.031,-0.054,-0.068,-0.041,-0.036
-0.056,-0.085,-0.029,0.071,-0.013,-0.057,0.041,-0.048,-0.058,-0.073,-0.056,-0.05
-0.097,-0.108,-0.011,0.103,-0.043,-0.059,0.039,-0.054,-0.051,-0.066,-0.062,-0.07
-0.124,-0.108,0.016,0.116,-0.07,-0.046,0.036,-0.049,-0.054,-0.074,-0.061,-0.069
-0.117,-0.099,0.018,0.108,-0.067,-0.04,0.027,-0.034,-0.039,-0.065,-0.047,-0.063
-0.126,-0.097,0.029,0.111,-0.077,-0.034,0.02,-0.058,-0.058,-0.073,-0.047,-0.061
-0.117,-0.039,0.078,0.078,-0.098,0.019,0.097,0.221,0.081,-0.007,-0.028,-0.056
0.006,0.12,0.114,-0.063,-0.054,0.116,0.095,0.404,0.328,0.227,0.157,0.102
0.498,0.455,-0.043,-0.476,0.27,0.206,-0.341,-0.364,0.367,0.573,0.631,0.598
0.88,0.815,-0.065,-0.848,0.473,0.375,-0.804,-1.299,0.326,0.805,1.028,1.035
0.418,0.536,0.118,-0.477,0.15,0.327,-0.597,-1.258,-0.012,0.342,0.613,0.678
-0.11,0.017,0.127,0.046,-0.118,0.072,-0.183,-0.606,-0.304,-0.168,0.022,0.082
-0.155,-0.077,0.078,0.116,-0.116,0.0,-0.052,-0.135,-0.15,-0.123,-0.055,-0.029
-0.139,-0.078,0.061,0.108,-0.1,-0.008,0.002,0.012,-0.077,-0.094,-0.055,-0.036
-0.129,-0.086,0.043,0.107,-0.085,-0.022,0.036,0.035,-0.078,-0.096,-0.058,-0.063
-0.127,-0.08,0.046,0.103,-0.086,-0.017,0.058,0.054,-0.059,-0.083,-0.058,-0.057
-0.113,-0.082,0.031,0.097,-0.072,-0.025,0.062,0.048,-0.065,-0.085,-0.063,-0.064
-0.091,-0.078,0.013,0.084,-0.052,-0.032,0.058,0.05,-0.05,-0.073,-0.055,-0.063
-0.083,-0.077,0.006,0.08,-0.044,-0.035,0.062,0.051,-0.051,-0.074,-0.057,-0.067
-0.068,-0.074,-0.006,0.071,-0.031,-0.04,0.059,0.049,-0.042,-0.063,-0.05,-0.062
-0.068,-0.075,-0.007,0.071,-0.03,-0.041,0.06,0.054,-0.039,-0.062,-0.05,-0.056
-0.075,-0.069,0.006,0.072,-0.041,-0.031,0.054,0.055,-0.035,-0.053,-0.045,-0.049
-0.071,-0.07,0.0,0.071,-0.035,-0.035,0.051,0.062,-0.029,-0.049,-0.044,-0.042
-0.058,-0.068,-0.01,0.063,-0.024,-0.038,0.048,0.064,-0.026,-0.044,-0.04,-0.036
-0.044,-0.061,-0.017,0.053,-0.014,-0.038,0.043,0.073,-0.019,-0.035,-0.033,-0.029
-0.014,-0.053,-0.039,0.034,0.013,-0.046,0.041,0.087,-0.011,-0.027,-0.029,-0.023
-0.033,-0.063,-0.029,0.048,-0.002,-0.046,0.035,0.094,0.001,-0.018,-0.02,-0.015
-0.034,-0.065,-0.031,0.05,-0.002,-0.048,0.025,0.108,0.012,-0.008,-0.007,-0.01
0.01,-0.041,-0.051,0.016,0.031,-0.046,0.017,0.129,0.03,0.007,0.006,-0.001
0.043,-0.016,-0.058,-0.013,0.051,-0.036,0.008,0.151,0.05,0.019,0.028,0.016
0.092,0.009,-0.083,-0.05,0.087,-0.037,-0.002,0.178,0.075,0.044,0.051,0.043
0.146,0.037,-0.109,-0.091,0.127,-0.036,-0.027,0.207,0.101,0.076,0.076,0.076
0.198,0.073,-0.125,-0.135,0.161,-0.026,-0.046,0.246,0.133,0.118,0.122,0.119
0.262,0.116,-0.146,-0.189,0.204,-0.014,-0.057,0.28,0.183,0.169,0.178,0.171
0.319,0.15,-0.169,-0.234,0.244,-0.009,-0.074,0.303,0.215,0.211,0.22,0.211
0.345,0.181,-0.165,-0.263,0.255,0.008,-0.074,0.318,0.241,0.246,0.259,0.245
0.379,0.23,-0.149,-0.304,0.264,0.04,-0.066,0.33,0.276,0.282,0.292,0.285
0.361,0.253,-0.108,-0.307,0.234,0.072,-0.04,0.332,0.29,0.289,0.289,0.284
0.278,0.221,-0.057,-0.249,0.168,0.082,0.015,0.295,0.272,0.252,0.254,0.237
0.19,0.168,-0.022,-0.178,0.106,0.073,0.063,0.226,0.224,0.193,0.187,0.173
0.076,0.097,0.021,-0.087,0.027,0.059,0.098,0.158,0.152,0.124,0.117,0.105
-0.01,0.029,0.039,-0.01,-0.025,0.034,0.124,0.098,0.088,0.057,0.062,0.039
-0.032,-0.004,0.028,0.018,-0.03,0.012,0.118,0.047,0.048,0.007,0.016,-0.005
-0.066,-0.025,0.041,0.046,-0.053,0.007,0.11,0.029,0.023,-0.01,-0.009,-0.015
-0.086,-0.039,0.047,0.062,-0.066,0.004,0.104,0.025,0.005,-0.024,-0.022,-0.022
-0.055,-0.026,0.029,0.04,-0.042,0.002,0.095,0.016,-0.007,-0.034,-0.03,-0.033
-0.067,-0.03,0.037,0.048,-0.051,0.003,0.089,0.01,-0.006,-0.034,-0.038,-0.041
-0.095,-0.054,0.041,0.075,-0.068,-0.007,0.082,0.002,-0.004,-0.036,-0.04,-0.045
-0.085,-0.041,0.044,0.063,-0.064,0.001,0.077,0.004,-0.006,-0.034,-0.04,-0.047
-0.079,-0.033,0.046,0.055,-0.062,0.007,0.072,0.01,-0.004,-0.036,-0.044,-0.05
-0.096,-0.052,0.044,0.074,-0.069,-0.004,0.066,0.015,-0.005,-0.034,-0.045,-0.053
-0.1,-0.053,0.047,0.076,-0.073,-0.003,0.061,0.021,-0.008,-0.038,-0.045,-0.055
-0.091,-0.048,0.043,0.069,-0.066,-0.002,0.075,0.027,-0.011,-0.05,-0.045,-0.052
-0.091,-0.043,0.048,0.066,-0.069,0.002,0.082,0.029,-0.014,-0.05,-0.045,-0.047
-0.079,-0.039,0.04,0.059,-0.059,0.0,0.076,0.025,-0.017,-0.05,-0.045,-0.045
-0.077,-0.034,0.043,0.055,-0.06,0.005,0.075,0.025,-0.019,-0.051,-0.045,-0.04
-0.09,-0.027,0.063,0.058,-0.076,0.018,0.07,0.025,-0.022,-0.049,-0.045,-0.037
-0.101,-0.047,0.054,0.073,-0.077,0.003,0.07,0.025,-0.025,-0.053,-0.048,-0.034
-0.096,-0.051,0.045,0.074,-0.071,-0.003,0.066,0.025,-0.025,-0.055,-0.05,-0.035
-0.082,-0.044,0.037,0.063,-0.059,-0.003,0.061,0.021,-0.025,-0.055,-0.05,-0.047
-0.076,-0.045,0.031,0.06,-0.053,-0.006,0.059,0.015,-0.028,-0.059,-0.05,-0.051
-0.065,-0.039,0.026,0.051,-0.045,-0.006,0.054,0.01,-0.033,-0.06,-0.05,-0.049
-0.064,-0.042,0.022,0.052,-0.042,-0.01,0.051,0.004,-0.036,-0.06,-0.05,-0.047
-0.058,-0.045,0.013,0.051,-0.035,-0.016,0.047,-0.001,-0.045,-0.065,-0.05,-0.044
-0.064,-0.05,0.014,0.057,-0.039,-0.018,0.044,-0.006,-0.047,-0.065,-0.05,-0.046
-0.099,-0.053,0.046,0.076,-0.072,-0.003,0.039,-0.012,-0.044,-0.065,-0.05,-0.049
-0.11,-0.058,0.052,0.084,-0.081,-0.003,0.038,-0.019,-0.046,-0.065,-0.05,-0.052
-0.107,-0.059,0.049,0.083,-0.078,-0.005,0.031,-0.02,-0.044,-0.065,-0.05,-0.054
-0.106,-0.055,0.051,0.08,-0.078,-0.001,0.033,-0.02,-0.046,-0.063,-0.052,-0.058
-0.105,-0.055,0.049,0.08,-0.077,-0.002,0.058,-0.02,-0.043,-0.059,-0.055,-0.06
-0.104,-0.054,0.049,0.079,-0.076,-0.002,0.058,-0.02,-0.051,-0.061,-0.058,-0.062
-0.099,-0.056,0.043,0.078,-0.071,-0.006,0.05,-0.019,-0.07,-0.058,-0.061,-0.065
-0.091,-0.053,0.039,0.072,-0.065,-0.006,0.049,-0.015,-0.07,-0.063,-0.064,-0.065
-0.1,-0.065,0.034,0.082,-0.067,-0.015,0.041,-0.013,-0.07,-0.071,-0.065,-0.065
-0.112,-0.082,0.03,0.097,-0.071,-0.026,0.04,-0.008,-0.07,-0.069,-0.06,-0.065
-0.104,-0.08,0.025,0.091,-0.064,-0.027,0.028,-0.023,-0.07,-0.074,-0.06,-0.064
-0.108,-0.076,0.032,0.092,-0.07,-0.022,0.035,-0.038,-0.07,-0.076,-0.059,-0.061
-0.111,-0.069,0.042,0.091,-0.077,-0.014,0.054,-0.032,-0.07,-0.074,-0.055,-0.06
-0.103,-0.066,0.038,0.084,-0.07,-0.014,0.05,-0.029,-0.069,-0.075,-0.055,-0.06
-0.102,-0.059,0.043,0.08,-0.072,-0.007,0.045,-0.026,-0.072,-0.075,-0.057,-0.06
-0.11,-0.055,0.055,0.082,-0.082,0.0,0.039,-0.021,-0.085,-0.075,-0.061,-0.06
-0.101,-0.048,0.052,0.074,-0.076,0.002,0.033,-0.021,-0.082,-0.078,-0.058,-0.062
-0.11,-0.063,0.047,0.086,-0.078,-0.008,0.029,-0.03,-0.075,-0.082,-0.064,-0.061
-0.134,-0.088,0.047,0.111,-0.09,-0.02,0.024,-0.036,-0.074,-0.085,-0.076,-0.06
-0.119,-0.083,0.037,0.101,-0.078,-0.023,0.021,-0.03,-0.066,-0.081,-0.075,-0.06
-0.132,-0.08,0.051,0.106,-0.092,-0.015,0.017,-0.031,-0.067,-0.079,-0.075,-0.06
-0.142,-0.077,0.065,0.11,-0.103,-0.006,0.014,-0.029,-0.071,-0.076,-0.075,-0.059
-0.118,-0.075,0.043,0.096,-0.08,-0.016,0.009,-0.026,-0.076,-0.075,-0.075,-0.063
-0.109,-0.073,0.036,0.091,-0.072,-0.018,0.017,-0.024,-0.089,-0.093,-0.072,-0.066
-0.101,-0.069,0.031,0.085,-0.066,-0.019,0.03,-0.025,-0.089,-0.099,-0.067,-0.064
-0.096,-0.07,0.026,0.083,-0.061,-0.022,0.029,-0.038,-0.083,-0.091,-0.065,-0.065
-0.085,-0.066,0.019,0.076,-0.052,-0.023,0.025,-0.039,-0.082,-0.088,-0.06,-0.065
-0.082,-0.065,0.018,0.073,-0.05,-0.023,0.023,-0.034,-0.075,-0.084,-0.056,-0.065
-0.109,-0.065,0.044,0.087,-0.076,-0.011,0.019,-0.031,-0.077,-0.081,-0.056,-0.063
-0.121,-0.076,0.046,0.098,-0.083,-0.015,0.018,-0.026,-0.087,-0.077,-0.061,-0.06
-0.118,-0.075,0.044,0.096,-0.081,-0.015,0.014,-0.023,-0.082,-0.074,-0.065,-0.061
-0.11,-0.062,0.047,0.086,-0.078,-0.008,0.021,-0.016,-0.072,-0.067,-0.06,-0.056
-0.098,-0.057,0.042,0.077,-0.07,-0.007,0.043,-0.009,-0.066,-0.061,-0.052,-0.055
-0.096,-0.046,0.051,0.071,-0.073,0.003,0.045,-0.003,-0.056,-0.053,-0.046,-0.055
-0.085,-0.043,0.042,0.064,-0.064,-0.001,0.048,0.007,-0.053,-0.048,-0.039,-0.05
-0.091,-0.027,0.064,0.059,-0.077,0.018,0.054,0.022,-0.045,-0.04,-0.032,-0.05
-0.089,-0.012,0.077,0.05,-0.082,0.032,0.034,0.037,-0.044,-0.037,-0.026,-0.048
-0.038,0.008,0.046,0.014,-0.043,0.027,0.023,0.053,-0.035,-0.034,-0.02,-0.041
0.001,0.025,0.025,-0.013,-0.012,0.025,0.033,0.034,-0.039,-0.038,-0.012,-0.035
-0.008,-0.024,-0.015,0.016,0.004,-0.019,0.036,-0.008,-0.074,-0.069,-0.034,-0.03
-0.022,-0.034,-0.013,0.028,-0.004,-0.023,0.029,-0.028,-0.084,-0.067,-0.044,-0.025
-0.068,-0.04,0.028,0.054,-0.048,-0.006,0.03,-0.025,-0.095,-0.077,-0.056,-0.05
-0.114,-0.072,0.042,0.092,-0.078,-0.015,0.024,-0.023,-0.084,-0.083,-0.068,-0.069
-0.094,-0.066,0.028,0.079,-0.06,-0.019,0.025,-0.054,-0.085,-0.079,-0.067,-0.063
-0.118,-0.059,0.059,0.088,-0.089,0.0,0.018,-0.035,-0.069,-0.07,-0.061,-0.069
-0.125,-0.071,0.054,0.098,-0.089,-0.008,0.021,-0.051,-0.075,-0.065,-0.047,-0.06
-0.099,-0.058,0.042,0.078,-0.07,-0.008,0.09,0.17,-0.01,-0.046,-0.065,-0.076
-0.029,0.087,0.116,-0.029,-0.073,0.101,0.108,0.489,0.277,0.167,0.079,0.027
0.418,0.384,-0.034,-0.401,0.226,0.175,-0.222,-0.061,0.398,0.528,0.528,0.477
0.862,0.775,-0.087,-0.819,0.475,0.344,-0.73,-1.063,0.354,0.842,1.009,0.995
0.485,0.681,0.195,-0.584,0.145,0.438,-0.62,-1.304,0.08,0.517,0.741,0.79
-0.103,0.151,0.254,-0.024,-0.179,0.203,-0.192,-0.781,-0.302,-0.103,0.09,0.127
-0.176,-0.054,0.122,0.115,-0.149,0.033,-0.05,-0.235,-0.241,-0.162,-0.035,-0.067
-0.136,-0.058,0.078,0.096,-0.107,0.01,0.039,-0.003,-0.118,-0.099,-0.045,-0.045
-0.129,-0.063,0.066,0.096,-0.097,0.001,0.062,0.037,-0.122,-0.107,-0.072,-0.067
-0.111,-0.057,0.055,0.084,-0.083,-0.001,0.057,0.053,-0.098,-0.086,-0.063,-0.065
-0.1,-0.054,0.046,0.077,-0.073,-0.004,0.063,0.069,-0.1,-0.089,-0.071,-0.071
-0.074,-0.036,0.038,0.055,-0.055,0.001,0.058,0.07,-0.086,-0.074,-0.052,-0.06
-0.057,-0.029,0.028,0.043,-0.042,-0.001,0.073,0.07,-0.082,-0.076,-0.056,-0.062
-0.042,-0.02,0.021,0.031,-0.031,0.0,0.068,0.07,-0.073,-0.07,-0.041,-0.054
-0.033,-0.016,0.016,0.024,-0.024,0.0,0.071,0.07,-0.065,-0.067,-0.043,-0.053
-0.021,-0.01,0.011,0.016,-0.016,0.0,0.069,0.071,-0.06,-0.065,-0.044,-0.05
0.001,0.009,0.008,-0.005,-0.004,0.008,0.07,0.08,-0.051,-0.057,-0.036,-0.046
0.032,0.034,0.002,-0.033,0.015,0.018,0.069,0.085,-0.047,-0.048,-0.03,-0.045
0.024,0.023,-0.001,-0.023,0.012,0.011,0.062,0.088,-0.04,-0.037,-0.022,-0.04
0.036,0.026,-0.01,-0.031,0.023,0.008,0.058,0.097,-0.036,-0.029,-0.017,-0.041
0.085,0.065,-0.02,-0.075,0.052,0.023,0.051,0.109,-0.024,-0.022,-0.015,-0.021
0.104,0.074,-0.031,-0.089,0.067,0.021,0.047,0.119,-0.01,-0.002,-0.014,-0.004
0.105,0.066,-0.039,-0.085,0.072,0.013,0.04,0.133,0.003,0.015,0.001,0.007
0.124,0.075,-0.049,-0.099,0.086,0.013,0.029,0.156,0.022,0.031,0.027,0.024
0.174,0.09,-0.084,-0.132,0.129,0.002,0.003,0.176,0.041,0.048,0.05,0.046
0.224,0.12,-0.103,-0.172,0.163,0.008,-0.027,0.208,0.063,0.08,0.084,0.08
0.283,0.155,-0.128,-0.218,0.205,0.013,-0.047,0.24,0.1,0.129,0.13,0.122
0.336,0.177,-0.159,-0.256,0.247,0.009,-0.067,0.266,0.14,0.177,0.183,0.18
0.381,0.224,-0.158,-0.302,0.269,0.033,-0.085,0.3,0.175,0.227,0.236,0.226
0.427,0.265,-0.163,-0.346,0.295,0.051,-0.092,0.327,0.218,0.279,0.289,0.274
0.45,0.296,-0.155,-0.373,0.302,0.07,-0.079,0.344,0.256,0.323,0.319,0.306
0.458,0.336,-0.122,-0.397,0.29,0.107,-0.051,0.341,0.27,0.321,0.311,0.293
0.409,0.344,-0.065,-0.377,0.237,0.14,-0.004,0.322,0.264,0.293,0.29,0.268
0.297,0.305,0.008,-0.301,0.144,0.157,0.065,0.272,0.229,0.247,0.23,0.204
0.207,0.255,0.048,-0.232,0.08,0.151,0.114,0.202,0.173,0.176,0.15,0.128
0.141,0.204,0.064,-0.173,0.038,0.134,0.14,0.144,0.114,0.11,0.089,0.072
0.085,0.151,0.066,-0.119,0.009,0.109,0.145,0.095,0.061,0.063,0.043,0.035
0.056,0.12,0.064,-0.089,-0.004,0.092,0.138,0.071,0.034,0.033,0.022,0.017
0.041,0.107,0.065,-0.075,-0.012,0.086,0.134,0.064,0.025,0.014,0.015,0.008
0.036,0.101,0.065,-0.069,-0.015,0.083,0.127,0.055,0.012,0.01,0.007,0.0
0.033,0.096,0.064,-0.065,-0.016,0.079,0.122,0.044,0.003,0.008,-0.001,-0.01
0.033,0.093,0.06,-0.063,-0.014,0.077,0.117,0.042,0.0,0.005,-0.007,-0.018
0.028,0.086,0.057,-0.057,-0.015,0.071,0.114,0.046,0.0,0.002,-0.012,-0.02
0.036,0.091,0.055,-0.064,-0.01,0.073,0.112,0.045,0.0,-0.001,-0.014,-0.02
0.055,0.106,0.052,-0.081,0.001,0.079,0.109,0.045,0.0,0.004,-0.011,-0.02
0.056,0.105,0.049,-0.08,0.003,0.076,0.106,0.04,0.0,0.005,-0.01,-0.02
0.037,0.103,0.066,-0.07,-0.015,0.085,0.104,0.04,-0.005,0.005,-0.01,-0.02
0.03,0.1,0.07,-0.065,-0.02,0.085,0.101,0.04,-0.005,0.005,-0.01,-0.02
0.035,0.099,0.064,-0.068,-0.014,0.081,0.1,0.04,-0.005,0.005,-0.01,-0.021
0.04,0.103,0.063,-0.072,-0.012,0.082,0.1,0.04,-0.005,0.004,-0.012,-0.017
0.049,0.105,0.056,-0.077,-0.004,0.08,0.1,0.038,-0.005,-0.001,-0.016,-0.015
0.053,0.109,0.056,-0.081,-0.002,0.082,0.1,0.032,-0.007,0.0,-0.015,-0.015
0.067,0.109,0.043,-0.088,0.012,0.076,0.098,0.027,-0.015,-0.003,-0.019,-0.015
0.062,0.106,0.044,-0.084,0.009,0.075,0.093,0.024,-0.02,-0.006,-0.02,-0.015
0.043,0.103,0.06,-0.074,-0.008,0.081,0.09,0.019,-0.023,-0.005,-0.02,-0.015
0.05,0.1,0.05,-0.075,0.0,0.075,0.086,0.014,-0.028,-0.009,-0.025,-0.02
0.054,0.097,0.044,-0.076,0.005,0.07,0.082,0.01,-0.03,-0.014,-0.025,-0.02
0.058,0.095,0.037,-0.077,0.01,0.066,0.079,0.005,-0.03,-0.019,-0.025,-0.021
0.067,0.093,0.026,-0.08,0.02,0.059,0.076,0.001,-0.03,-0.022,-0.025,-0.026
0.047,0.086,0.039,-0.067,0.004,0.062,0.075,-0.004,-0.036,-0.028,-0.024,-0.024
0.022,0.079,0.057,-0.051,-0.017,0.068,0.075,-0.008,-0.043,-0.03,-0.028,-0.028
0.017,0.074,0.057,-0.046,-0.02,0.065,0.075,-0.013,-0.045,-0.03,-0.03,-0.03
0.008,0.068,0.06,-0.038,-0.026,0.064,0.075,-0.015,-0.045,-0.03,-0.03,-0.03
-0.001,0.063,0.064,-0.032,-0.032,0.063,0.077,-0.015,-0.049,-0.03,-0.034,-0.03
-0.009,0.056,0.065,-0.024,-0.037,0.06,0.08,-0.015,-0.05,-0.03,-0.036,-0.03
-0.002,0.061,0.062,-0.03,-0.032,0.061,0.08,-0.015,-0.05,-0.03,-0.035,-0.035
0.008,0.066,0.058,-0.037,-0.025,0.061,0.075,-0.015,-0.055,-0.027,-0.036,-0.035
-0.004,0.059,0.062,-0.027,-0.033,0.06,0.072,-0.021,-0.055,-0.025,-0.035,-0.036
0.019,0.076,0.057,-0.048,-0.019,0.067,0.068,-0.031,-0.057,-0.025,-0.036,-0.041
0.026,0.089,0.063,-0.057,-0.019,0.075,0.066,-0.031,-0.059,-0.02,-0.034,-0.04
0.007,0.064,0.057,-0.035,-0.025,0.06,0.058,-0.013,-0.062,-0.021,-0.036,-0.038
0.032,0.097,0.066,-0.065,-0.017,0.081,0.073,0.017,-0.05,-0.018,-0.029,-0.035
0.035,0.147,0.112,-0.091,-0.039,0.129,0.115,0.036,-0.011,0.004,0.0,-0.016
0.032,0.153,0.121,-0.093,-0.044,0.137,0.114,0.03,0.019,0.026,0.018,0.013
0.059,0.191,0.132,-0.126,-0.037,0.162,0.101,0.021,0.02,0.028,0.028,0.031
0.083,0.192,0.108,-0.138,-0.012,0.15,0.082,0.018,0.015,0.021,0.031,0.028
0.07,0.142,0.073,-0.106,-0.001,0.107,0.051,0.004,-0.002,0.012,0.017,0.019
0.067,0.136,0.069,-0.101,-0.002,0.102,0.051,0.005,-0.01,0.003,0.002,0.01
0.073,0.128,0.055,-0.101,0.008,0.091,0.049,-0.015,-0.024,-0.005,-0.008,-0.001
0.031,0.097,0.066,-0.065,-0.017,0.081,0.05,-0.03,-0.059,-0.025,-0.028,-0.027
0.049,0.102,0.054,-0.076,-0.003,0.078,0.061,-0.04,-0.07,-0.028,-0.039,-0.041
0.094,0.097,0.003,-0.096,0.045,0.05,0.071,-0.043,-0.063,-0.039,-0.041,-0.039
0.073,0.103,0.029,-0.088,0.022,0.066,0.062,-0.032,-0.052,-0.041,-0.04,-0.043
0.048,0.097,0.05,-0.073,-0.001,0.073,0.057,-0.048,-0.071,-0.037,-0.034,-0.033
0.026,0.108,0.082,-0.067,-0.028,0.095,0.141,0.269,0.092,0.039,-0.012,-0.035
0.119,0.259,0.14,-0.189,-0.011,0.199,0.132,0.399,0.351,0.266,0.161,0.112
0.582,0.613,0.031,-0.598,0.275,0.321,-0.304,-0.461,0.407,0.668,0.684,0.644
0.914,0.983,0.069,-0.949,0.422,0.526,-0.771,-1.372,0.363,0.944,1.112,1.094
0.452,0.688,0.236,-0.57,0.108,0.462,-0.571,-1.311,-0.003,0.42,0.65,0.703
-0.046,0.146,0.192,-0.051,-0.119,0.169,-0.176,-0.668,-0.325,-0.147,0.018,0.076
-0.025,0.077,0.102,-0.026,-0.064,0.089,-0.036,-0.153,-0.177,-0.103,-0.066,-0.036
0.005,0.072,0.067,-0.039,-0.031,0.069,0.04,0.03,-0.099,-0.07,-0.064,-0.029
-0.036,0.015,0.051,0.01,-0.044,0.033,0.044,0.036,-0.116,-0.079,-0.067,-0.054
-0.066,-0.009,0.057,0.037,-0.062,0.024,0.044,0.045,-0.095,-0.071,-0.062,-0.062
-0.078,-0.026,0.052,0.051,-0.064,0.012,0.041,0.045,-0.1,-0.079,-0.068,-0.067
-0.07,-0.028,0.042,0.049,-0.056,0.006,0.036,0.044,-0.084,-0.072,-0.06,-0.057
-0.078,-0.042,0.036,0.06,-0.056,-0.003,0.037,0.046,-0.083,-0.074,-0.061,-0.059
-0.052,-0.048,0.004,0.05,-0.028,-0.022,0.032,0.044,-0.073,-0.063,-0.053,-0.05
-0.049,-0.044,0.005,0.047,-0.027,-0.019,0.05,0.045,-0.068,-0.061,-0.053,-0.052
-0.035,-0.035,0.0,0.035,-0.017,-0.017,0.052,0.048,-0.061,-0.053,-0.046,-0.052
-0.03,-0.026,0.003,0.028,-0.017,-0.011,0.046,0.051,-0.053,-0.046,-0.045,-0.05
-0.042,-0.014,0.028,0.028,-0.035,0.007,0.041,0.047,-0.048,-0.034,-0.038,-0.045
-0.012,-0.002,0.01,0.007,-0.011,0.004,0.034,0.062,-0.037,-0.026,-0.029,-0.043
-0.003,0.004,0.007,0.0,-0.005,0.005,0.031,0.072,-0.023,-0.013,-0.02,-0.039
0.01,0.017,0.007,-0.014,0.002,0.012,0.023,0.089,-0.01,-0.002,-0.011,-0.03
0.024,0.029,0.005,-0.027,0.009,0.017,0.018,0.12,0.005,0.011,0.004,-0.014
0.043,0.04,-0.003,-0.041,0.022,0.019,0.01,0.127,0.019,0.026,0.016,-0.001
0.106,0.066,-0.04,-0.086,0.073,0.013,0.006,0.144,0.034,0.042,0.026,0.014
0.154,0.084,-0.07,-0.119,0.112,0.007,-0.008,0.187,0.072,0.082,0.063,0.057
0.195,0.107,-0.089,-0.151,0.142,0.009,-0.042,0.215,0.097,0.114,0.1,0.092
0.286,0.15,-0.136,-0.218,0.211,0.007,-0.059,0.258,0.138,0.166,0.152,0.139
0.338,0.197,-0.141,-0.267,0.239,0.028,-0.082,0.299,0.191,0.224,0.21,0.196
0.379,0.236,-0.143,-0.307,0.261,0.046,-0.09,0.313,0.22,0.264,0.257,0.239
0.444,0.288,-0.156,-0.366,0.3,0.066,-0.077,0.328,0.257,0.315,0.305,0.283
0.411,0.312,-0.099,-0.361,0.255,0.106,-0.073,0.326,0.281,0.333,0.319,0.302
0.354,0.295,-0.059,-0.324,0.206,0.118,-0.035,0.311,0.268,0.316,0.298,0.283
0.283,0.288,0.005,-0.286,0.139,0.146,0.023,0.267,0.243,0.267,0.252,0.223
0.184,0.239,0.055,-0.211,0.064,0.147,0.073,0.194,0.189,0.197,0.175,0.151
0.09,0.161,0.071,-0.126,0.01,0.116,0.11,0.127,0.117,0.13,0.1,0.082
0.013,0.114,0.101,-0.064,-0.044,0.107,0.113,0.062,0.065,0.059,0.047,0.022
-0.012,0.08,0.093,-0.034,-0.053,0.086,0.105,0.03,0.026,0.024,0.01,-0.002
-0.039,0.053,0.092,-0.007,-0.066,0.072,0.102,0.021,0.006,0.012,-0.008,-0.009
-0.051,0.038,0.089,0.007,-0.07,0.063,0.094,0.011,-0.004,-0.001,-0.014,-0.02
-0.052,0.03,0.082,0.011,-0.067,0.056,0.09,0.005,-0.016,-0.007,-0.021,-0.036
-0.056,0.022,0.078,0.017,-0.067,0.05,0.099,-0.005,-0.023,-0.018,-0.029,-0.046
-0.057,0.014,0.071,0.021,-0.064,0.042,0.092,-0.008,-0.031,-0.025,-0.036,-0.044
-0.058,0.008,0.066,0.025,-0.062,0.037,0.072,-0.005,-0.04,-0.025,-0.042,-0.045
-0.067,0.003,0.07,0.032,-0.069,0.036,0.065,-0.003,-0.043,-0.025,-0.045,-0.045
-0.081,-0.003,0.078,0.042,-0.079,0.037,0.065,0.0,-0.04,-0.025,-0.048,-0.045
-0.077,-0.006,0.072,0.041,-0.074,0.033,0.064,0.003,-0.037,-0.025,-0.051,-0.049
-0.076,-0.012,0.063,0.044,-0.069,0.025,0.06,0.006,-0.035,-0.025,-0.055,-0.05
-0.072,-0.014,0.058,0.043,-0.064,0.022,0.06,0.001,-0.032,-0.025,-0.055,-0.05
-0.06,-0.011,0.049,0.035,-0.054,0.019,0.058,0.0,-0.029,-0.025,-0.051,-0.05
-0.048,-0.006,0.042,0.027,-0.044,0.018,0.054,0.0,-0.041,-0.025,-0.048,-0.05
-0.065,-0.002,0.062,0.033,-0.063,0.03,0.052,0.0,-0.051,-0.025,-0.046,-0.05
-0.087,-0.015,0.072,0.051,-0.08,0.028,0.049,0.0,-0.049,-0.025,-0.042,-0.05
-0.077,-0.008,0.069,0.042,-0.073,0.031,0.046,-0.001,-0.051,-0.026,-0.04,-0.05
-0.063,0.004,0.066,0.029,-0.065,0.035,0.044,-0.007,-0.05,-0.033,-0.04,-0.05
-0.073,-0.008,0.065,0.04,-0.069,0.028,0.041,-0.014,-0.054,-0.039,-0.04,-0.05
-0.084,-0.02,0.064,0.052,-0.074,0.022,0.039,-0.018,-0.058,-0.04,-0.04,-0.05
-0.083,-0.022,0.061,0.052,-0.072,0.019,0.04,-0.024,-0.063,-0.045,-0.04,-0.046
-0.098,-0.02,0.078,0.059,-0.088,0.029,0.04,-0.023,-0.064,-0.044,-0.049,-0.045
-0.099,-0.02,0.079,0.059,-0.089,0.029,0.041,-0.02,-0.06,-0.04,-0.051,-0.045
-0.093,-0.02,0.073,0.056,-0.083,0.026,0.037,-0.02,-0.06,-0.04,-0.05,-0.045
-0.091,-0.02,0.071,0.055,-0.081,0.026,0.035,-0.02,-0.06,-0.04,-0.048,-0.045
-0.086,-0.02,0.066,0.053,-0.076,0.022,0.035,-0.02,-0.06,-0.04,-0.044,-0.046
-0.083,-0.02,0.063,0.051,-0.073,0.021,0.031,-0.02,-0.06,-0.04,-0.045,-0.055
-0.079,-0.019,0.059,0.049,-0.069,0.02,0.03,-0.035,-0.072,-0.043,-0.049,-0.057
-0.087,-0.035,0.053,0.061,-0.07,0.009,0.03,-0.042,-0.076,-0.048,-0.056,-0.054
-0.092,-0.041,0.05,0.066,-0.071,0.004,0.03,-0.039,-0.074,-0.049,-0.06,-0.055
-0.084,-0.039,0.045,0.061,-0.064,0.002,0.03,-0.037,-0.076,-0.045,-0.06,-0.05
-0.08,-0.04,0.039,0.06,-0.06,0.0,0.03,-0.034,-0.074,-0.045,-0.06,-0.049
-0.106,-0.04,0.066,0.073,-0.086,0.013,0.03,-0.036,-0.076,-0.045,-0.06,-0.052
-0.116,-0.04,0.076,0.078,-0.095,0.017,0.03,-0.039,-0.079,-0.044,-0.06,-0.051
-0.1,-0.034,0.066,0.067,-0.083,0.016,0.028,-0.04,-0.08,-0.046,-0.063,-0.05
-0.094,-0.03,0.064,0.061,-0.079,0.017,0.025,-0.04,-0.08,-0.047,-0.065,-0.045
-0.079,-0.02,0.059,0.049,-0.069,0.019,0.025,-0.04,-0.08,-0.045,-0.065,-0.046
-0.087,-0.033,0.053,0.06,-0.07,0.01,0.022,-0.04,-0.08,-0.045,-0.065,-0.058
-0.106,-0.052,0.053,0.079,-0.08,0.0,0.019,-0.04,-0.077,-0.043,-0.065,-0.061
-0.119,-0.051,0.068,0.085,-0.093,0.008,0.021,-0.04,-0.075,-0.04,-0.063,-0.06
-0.122,-0.056,0.066,0.088,-0.094,0.005,0.012,-0.04,-0.075,-0.039,-0.06,-0.057
-0.114,-0.058,0.055,0.086,-0.084,-0.001,0.017,-0.04,-0.075,-0.048,-0.057,-0.054
-0.113,-0.06,0.053,0.087,-0.083,-0.003,0.036,-0.04,-0.075,-0.052,-0.055,-0.055
-0.096,-0.055,0.042,0.075,-0.069,-0.006,0.033,-0.039,-0.076,-0.049,-0.051,-0.055
-0.082,-0.04,0.042,0.061,-0.062,0.001,0.026,-0.036,-0.079,-0.05,-0.049,-0.055
-0.1,-0.033,0.067,0.066,-0.083,0.017,0.025,-0.035,-0.08,-0.045,-0.054,-0.055
-0.106,-0.034,0.071,0.07,-0.088,0.018,0.017,-0.036,-0.08,-0.045,-0.055,-0.055
-0.1,-0.035,0.065,0.067,-0.082,0.015,0.016,-0.034,-0.08,-0.044,-0.055,-0.055
-0.099,-0.035,0.064,0.066,-0.081,0.015,0.028,-0.036,-0.08,-0.039,-0.06,-0.053
-0.095,-0.035,0.06,0.065,-0.077,0.012,0.026,-0.032,-0.078,-0.041,-0.06,-0.049
-0.096,-0.035,0.061,0.065,-0.078,0.012,0.016,-0.031,-0.074,-0.039,-0.059,-0.051
-0.098,-0.031,0.066,0.064,-0.082,0.017,0.012,-0.04,-0.072,-0.048,-0.053,-0.056
-0.094,-0.03,0.064,0.062,-0.079,0.016,0.001,-0.037,-0.069,-0.052,-0.045,-0.055
-0.092,-0.03,0.062,0.06,-0.077,0.016,-0.002,-0.03,-0.065,-0.044,-0.058,-0.049
-0.081,-0.031,0.051,0.056,-0.066,0.01,0.001,-0.025,-0.065,-0.04,-0.058,-0.046
-0.073,-0.027,0.045,0.05,-0.059,0.009,0.027,-0.02,-0.054,-0.033,-0.039,-0.04
-0.089,0.003,0.092,0.042,-0.09,0.047,0.055,-0.009,-0.041,-0.029,-0.036,-0.037
-0.082,0.04,0.122,0.021,-0.102,0.081,0.049,0.01,-0.026,-0.023,-0.035,-0.034
-0.07,0.056,0.126,0.006,-0.098,0.091,0.037,0.015,-0.025,-0.019,-0.035,-0.03
-0.04,0.067,0.107,-0.014,-0.074,0.087,0.018,0.018,-0.025,-0.017,-0.036,-0.03
-0.028,0.039,0.067,-0.006,-0.048,0.053,-0.009,0.001,-0.023,-0.006,-0.033,-0.022
-0.024,-0.007,0.016,0.015,-0.02,0.005,-0.026,-0.023,-0.052,-0.029,-0.039,-0.033
-0.002,-0.006,-0.004,0.004,0.001,-0.005,-0.02,-0.042,-0.059,-0.041,-0.036,-0.047
-0.065,-0.033,0.032,0.049,-0.048,-0.001,0.001,-0.055,-0.077,-0.055,-0.058,-0.061
-0.108,-0.053,0.055,0.08,-0.081,0.001,0.01,-0.063,-0.083,-0.066,-0.075,-0.076
-0.124,-0.079,0.045,0.101,-0.084,-0.017,0.004,-0.074,-0.091,-0.077,-0.074,-0.075
-0.107,-0.071,0.036,0.089,-0.071,-0.017,-0.002,-0.056,-0.093,-0.074,-0.068,-0.076
-0.078,-0.055,0.022,0.066,-0.05,-0.016,0.005,-0.077,-0.092,-0.059,-0.066,-0.073
-0.114,-0.038,0.076,0.076,-0.095,0.019,0.071,0.19,0.028,-0.007,-0.062,-0.078
-0.03,0.124,0.155,-0.047,-0.093,0.139,0.098,0.384,0.291,0.201,0.103,0.053
0.406,0.447,0.041,-0.427,0.183,0.244,-0.302,-0.434,0.337,0.557,0.568,0.528
0.856,0.845,-0.011,-0.851,0.433,0.417,-0.855,-1.392,0.318,0.868,1.03,1.024
0.512,0.604,0.092,-0.558,0.21,0.348,-0.725,-1.343,0.008,0.449,0.685,0.74
-0.055,0.045,0.099,0.005,-0.077,0.072,-0.279,-0.691,-0.351,-0.145,0.035,0.116
-0.13,-0.058,0.071,0.094,-0.1,0.006,-0.089,-0.173,-0.184,-0.12,-0.072,-0.009
-0.129,-0.066,0.062,0.097,-0.095,-0.002,-0.006,0.0,-0.097,-0.082,-0.06,-0.043
-0.121,-0.07,0.051,0.095,-0.086,-0.009,0.01,0.029,-0.118,-0.097,-0.072,-0.089
-0.117,-0.077,0.04,0.096,-0.078,-0.018,0.019,0.049,-0.096,-0.081,-0.078,-0.073
-0.118,-0.088,0.03,0.103,-0.074,-0.029,0.024,0.043,-0.108,-0.091,-0.088,-0.085
-0.095,-0.073,0.021,0.084,-0.058,-0.025,0.014,0.046,-0.092,-0.081,-0.073,-0.076
-0.096,-0.077,0.019,0.086,-0.057,-0.029,0.013,0.044,-0.095,-0.085,-0.077,-0.083
-0.083,-0.066,0.016,0.074,-0.049,-0.025,0.007,0.045,-0.082,-0.072,-0.066,-0.077
-0.079,-0.066,0.013,0.072,-0.045,-0.026,0.003,0.045,-0.078,-0.072,-0.066,-0.071
-0.07,-0.06,0.011,0.065,-0.04,-0.025,0.0,0.044,-0.071,-0.064,-0.059,-0.064
-0.069,-0.06,0.008,0.064,-0.039,-0.026,0.018,0.056,-0.064,-0.058,-0.053,-0.057
-0.063,-0.058,0.005,0.06,-0.034,-0.026,0.017,0.062,-0.058,-0.054,-0.048,-0.051
-0.05,-0.049,0.002,0.049,-0.026,-0.023,0.01,0.066,-0.043,-0.042,-0.042,-0.045
-0.041,-0.043,-0.002,0.042,-0.019,-0.022,0.007,0.08,-0.034,-0.031,-0.038,-0.038
-0.031,-0.036,-0.004,0.034,-0.013,-0.02,-0.001,0.109,-0.016,-0.018,-0.027,-0.027
-0.009,-0.026,-0.016,0.018,0.004,-0.021,-0.004,0.122,0.001,-0.007,-0.018,-0.018
0.034,-0.014,-0.047,-0.01,0.041,-0.03,-0.011,0.138,0.02,0.006,-0.007,-0.007
0.058,0.001,-0.056,-0.029,0.057,-0.028,-0.016,0.162,0.04,0.031,0.01,0.001
0.093,0.035,-0.058,-0.064,0.075,-0.011,-0.034,0.195,0.058,0.057,0.035,0.029
0.148,0.064,-0.085,-0.106,0.116,-0.01,-0.057,0.233,0.089,0.092,0.07,0.065
0.197,0.096,-0.101,-0.146,0.148,-0.002,-0.071,0.273,0.132,0.138,0.113,0.103
0.249,0.134,-0.114,-0.191,0.181,0.01,-0.093,0.309,0.171,0.183,0.158,0.15
0.287,0.17,-0.117,-0.228,0.202,0.026,-0.106,0.334,0.208,0.234,0.207,0.197
0.318,0.212,-0.106,-0.265,0.212,0.053,-0.105,0.353,0.25,0.279,0.256,0.243
0.351,0.248,-0.103,-0.299,0.227,0.072,-0.105,0.344,0.282,0.308,0.277,0.271
0.337,0.267,-0.07,-0.302,0.203,0.098,-0.077,0.33,0.284,0.303,0.275,0.271
0.272,0.248,-0.024,-0.26,0.148,0.112,-0.027,0.291,0.261,0.267,0.243,0.229
0.18,0.194,0.014,-0.187,0.083,0.104,0.02,0.218,0.215,0.211,0.183,0.167
0.079,0.125,0.046,-0.102,0.016,0.086,0.059,0.152,0.142,0.14,0.115,0.105
0.019,0.07,0.051,-0.045,-0.016,0.06,0.067,0.09,0.078,0.079,0.055,0.042
-0.016,0.034,0.05,-0.009,-0.033,0.042,0.061,0.046,0.034,0.032,0.014,-0.007
-0.039,0.009,0.048,0.015,-0.044,0.029,0.059,0.025,0.009,0.002,-0.01,-0.027
-0.039,0.006,0.045,0.016,-0.043,0.025,0.054,0.011,0.003,-0.012,-0.023,-0.029
-0.048,-0.004,0.045,0.025,-0.047,0.02,0.051,0.005,-0.006,-0.024,-0.026,-0.033
-0.077,-0.03,0.047,0.053,-0.062,0.008,0.047,0.005,-0.014,-0.025,-0.036,-0.036
-0.102,-0.036,0.066,0.069,-0.084,0.015,0.045,0.005,-0.021,-0.025,-0.047,-0.033
-0.095,-0.027,0.068,0.061,-0.081,0.02,0.045,0.005,-0.025,-0.023,-0.045,-0.03
-0.083,-0.026,0.058,0.054,-0.07,0.016,0.041,0.005,-0.025,-0.02,-0.043,-0.027
-0.073,-0.02,0.054,0.046,-0.063,0.017,0.04,0.006,-0.025,-0.019,-0.04,-0.025
-0.06,-0.015,0.045,0.037,-0.052,0.015,0.04,0.011,-0.025,-0.024,-0.04,-0.026
-0.07,-0.029,0.041,0.05,-0.055,0.006,0.035,0.014,-0.025,-0.037,-0.036,-0.042
-0.081,-0.037,0.044,0.059,-0.062,0.003,0.035,0.017,-0.029,-0.041,-0.035,-0.051
-0.08,-0.034,0.046,0.057,-0.063,0.006,0.035,0.022,-0.03,-0.043,-0.034,-0.045
-0.077,-0.033,0.043,0.055,-0.06,0.005,0.035,0.025,-0.03,-0.046,-0.031,-0.043
-0.082,-0.029,0.053,0.055,-0.067,0.011,0.035,0.022,-0.03,-0.049,-0.028,-0.038
-0.093,-0.031,0.062,0.062,-0.077,0.016,0.033,0.019,-0.03,-0.051,-0.036,-0.035
-0.082,-0.025,0.057,0.053,-0.069,0.016,0.028,0.016,-0.031,-0.05,-0.055,-0.035
-0.075,-0.019,0.055,0.046,-0.065,0.018,0.022,0.013,-0.029,-0.05,-0.055,-0.035
-0.09,-0.039,0.051,0.064,-0.07,0.006,0.019,0.01,-0.038,-0.05,-0.055,-0.035
-0.075,-0.025,0.05,0.05,-0.062,0.012,0.013,0.009,-0.045,-0.05,-0.055,-0.037
-0.053,-0.007,0.046,0.029,-0.049,0.019,0.01,0.003,-0.05,-0.049,-0.055,-0.041
-0.085,-0.045,0.04,0.065,-0.062,-0.003,0.015,-0.004,-0.059,-0.052,-0.053,-0.04
-0.102,-0.067,0.035,0.084,-0.068,-0.016,0.015,-0.011,-0.061,-0.055,-0.049,-0.04
-0.093,-0.064,0.029,0.078,-0.06,-0.017,0.015,-0.018,-0.064,-0.055,-0.05,-0.041
-0.09,-0.066,0.024,0.078,-0.057,-0.02,0.015,-0.024,-0.065,-0.059,-0.05,-0.039
-0.083,-0.065,0.018,0.074,-0.05,-0.023,0.015,-0.022,-0.065,-0.06,-0.05,-0.044
-0.107,-0.065,0.043,0.086,-0.075,-0.011,0.013,-0.017,-0.065,-0.06,-0.05,-0.051
-0.126,-0.067,0.059,0.096,-0.092,-0.004,0.009,-0.014,-0.065,-0.06,-0.05,-0.05
-0.113,-0.07,0.043,0.092,-0.078,-0.014,0.011,-0.011,-0.065,-0.06,-0.05,-0.048
-0.114,-0.07,0.044,0.091,-0.079,-0.013,0.009,-0.006,-0.065,-0.06,-0.05,-0.045
-0.119,-0.074,0.046,0.096,-0.082,-0.014,0.023,-0.006,-0.069,-0.06,-0.05,-0.044
-0.125,-0.076,0.049,0.1,-0.086,-0.013,0.031,-0.022,-0.07,-0.06,-0.049,-0.048
-0.124,-0.074,0.05,0.099,-0.087,-0.012,0.023,-0.028,-0.07,-0.06,-0.053,-0.05
-0.113,-0.07,0.043,0.091,-0.078,-0.013,0.02,-0.024,-0.07,-0.06,-0.055,-0.05
-0.113,-0.07,0.042,0.091,-0.078,-0.014,0.015,-0.026,-0.07,-0.06,-0.055,-0.05
-0.105,-0.069,0.036,0.086,-0.07,-0.017,0.011,-0.024,-0.07,-0.06,-0.055,-0.05
-0.1,-0.064,0.036,0.082,-0.067,-0.014,0.006,-0.026,-0.07,-0.06,-0.055,-0.049
-0.093,-0.066,0.027,0.079,-0.059,-0.019,0.005,-0.023,-0.074,-0.06,-0.055,-0.046
-0.084,-0.062,0.022,0.073,-0.053,-0.02,0.005,-0.02,-0.075,-0.06,-0.05,-0.045
-0.111,-0.06,0.051,0.085,-0.081,-0.004,0.0,-0.02,-0.075,-0.06,-0.05,-0.045
-0.112,-0.058,0.054,0.085,-0.083,-0.002,0.0,-0.02,-0.08,-0.06,-0.05,-0.045
-0.099,-0.055,0.044,0.077,-0.071,-0.006,0.001,-0.02,-0.08,-0.06,-0.05,-0.045
-0.097,-0.054,0.043,0.075,-0.069,-0.005,0.007,-0.02,-0.081,-0.061,-0.051,-0.047
-0.097,-0.064,0.033,0.08,-0.065,-0.015,0.01,-0.023,-0.085,-0.057,-0.047,-0.05
-0.112,-0.08,0.032,0.096,-0.072,-0.024,0.015,-0.028,-0.085,-0.055,-0.045,-0.05
-0.119,-0.08,0.039,0.1,-0.079,-0.021,0.011,-0.029,-0.085,-0.055,-0.045,-0.05
-0.12,-0.08,0.04,0.1,-0.08,-0.02,0.004,-0.025,-0.085,-0.052,-0.045,-0.05
-0.121,-0.08,0.04,0.101,-0.081,-0.02,0.027,-0.025,-0.085,-0.049,-0.045,-0.049
-0.118,-0.08,0.038,0.099,-0.078,-0.02,0.02,-0.023,-0.081,-0.05,-0.045,-0.046
-0.114,-0.08,0.033,0.097,-0.073,-0.023,0.003,-0.019,-0.08,-0.06,-0.045,-0.045
-0.105,-0.08,0.025,0.092,-0.065,-0.027,0.006,-0.02,-0.08,-0.062,-0.045,-0.045
-0.1,-0.08,0.02,0.09,-0.06,-0.03,0.004,-0.02,-0.075,-0.054,-0.045,-0.045
-0.093,-0.08,0.013,0.086,-0.053,-0.034,0.006,-0.02,-0.075,-0.051,-0.045,-0.046
-0.084,-0.08,0.004,0.081,-0.044,-0.037,0.004,-0.02,-0.075,-0.046,-0.045,-0.042
-0.108,-0.08,0.028,0.094,-0.068,-0.026,0.008,-0.02,-0.075,-0.041,-0.045,-0.04
-0.122,-0.08,0.042,0.101,-0.082,-0.019,0.01,-0.02,-0.075,-0.044,-0.045,-0.04
-0.117,-0.081,0.036,0.098,-0.077,-0.022,0.01,-0.019,-0.075,-0.045,-0.045,-0.036
-0.097,-0.078,0.019,0.087,-0.058,-0.029,0.01,-0.013,-0.075,-0.039,-0.045,-0.035
-0.06,-0.07,-0.01,0.066,-0.025,-0.04,0.011,-0.008,-0.075,-0.034,-0.045,-0.035
-0.059,-0.065,-0.006,0.062,-0.026,-0.036,0.024,-0.005,-0.068,-0.028,-0.045,-0.029
-0.07,-0.056,0.014,0.063,-0.042,-0.02,0.026,0.001,-0.053,-0.021,-0.038,-0.024
-0.081,-0.053,0.028,0.067,-0.055,-0.012,0.017,0.002,-0.04,-0.028,-0.027,-0.018
-0.069,-0.026,0.043,0.047,-0.056,0.008,0.043,0.021,-0.031,-0.033,-0.018,-0.012
-0.048,-0.005,0.044,0.026,-0.045,0.019,0.069,0.037,-0.023,-0.017,-0.012,-0.004
-0.035,-0.003,0.032,0.019,-0.034,0.014,0.042,0.048,-0.015,-0.015,-0.009,0.002
0.001,0.001,0.0,-0.001,0.001,0.001,0.02,0.035,-0.019,-0.003,-0.004,0.009
0.017,-0.033,-0.05,0.008,0.034,-0.041,0.017,-0.004,-0.044,-0.012,-0.015,0.004
0.015,-0.02,-0.035,0.003,0.025,-0.027,0.002,-0.001,-0.048,-0.024,-0.026,-0.006
-0.023,-0.025,-0.003,0.024,-0.01,-0.014,0.009,-0.015,-0.049,-0.026,-0.023,-0.007
-0.114,-0.075,0.039,0.094,-0.076,-0.018,0.035,-0.024,-0.069,-0.053,-0.037,-0.032
-0.143,-0.092,0.051,0.117,-0.097,-0.02,0.03,-0.035,-0.07,-0.05,-0.044,-0.054
-0.109,-0.114,-0.006,0.111,-0.051,-0.06,0.021,-0.017,-0.073,-0.047,-0.049,-0.058
-0.123,-0.093,0.031,0.108,-0.077,-0.031,0.018,-0.013,-0.053,-0.027,-0.039,-0.051
-0.107,-0.098,0.009,0.102,-0.058,-0.045,0.039,-0.007,-0.058,-0.041,-0.055,-0.061
-0.081,-0.017,0.064,0.049,-0.072,0.023,0.137,0.342,0.123,0.052,-0.003,-0.031
0.061,0.176,0.115,-0.119,-0.027,0.146,0.071,0.312,0.352,0.301,0.241,0.195
0.605,0.543,-0.062,-0.574,0.334,0.241,-0.461,-0.647,0.348,0.667,0.756,0.736
0.837,0.821,-0.017,-0.829,0.427,0.402,-0.836,-1.378,0.269,0.799,1.026,1.051
0.253,0.385,0.132,-0.32,0.061,0.258,-0.513,-1.114,-0.117,0.221,0.463,0.535
-0.147,-0.049,0.098,0.098,-0.122,0.025,-0.14,-0.453,-0.304,-0.16,-0.016,0.051
-0.111,-0.06,0.052,0.085,-0.081,-0.004,-0.006,-0.055,-0.1,-0.076,-0.028,0.021
-0.111,-0.077,0.034,0.094,-0.072,-0.021,0.056,0.044,-0.072,-0.077,-0.04,-0.017
-0.105,-0.091,0.014,0.098,-0.059,-0.038,0.056,0.064,-0.068,-0.065,-0.032,-0.03
-0.105,-0.095,0.01,0.1,-0.057,-0.042,0.062,0.086,-0.056,-0.064,-0.036,-0.037
-0.079,-0.109,-0.029,0.094,-0.025,-0.069,0.059,0.084,-0.056,-0.06,-0.036,-0.041
-0.065,-0.107,-0.042,0.086,-0.011,-0.074,0.06,0.085,-0.043,-0.052,-0.03,-0.034
-0.098,-0.094,0.004,0.096,-0.05,-0.045,0.061,0.085,-0.045,-0.053,-0.032,-0.035
-0.101,-0.095,0.005,0.098,-0.053,-0.045,0.059,0.084,-0.034,-0.045,-0.028,-0.029
-0.062,-0.093,-0.031,0.078,-0.015,-0.062,0.058,0.087,-0.033,-0.046,-0.027,-0.029
-0.051,-0.089,-0.038,0.07,-0.007,-0.063,0.05,0.09,-0.027,-0.04,-0.024,-0.024
-0.06,-0.087,-0.027,0.074,-0.016,-0.057,0.047,0.097,-0.023,-0.038,-0.025,-0.023
-0.053,-0.084,-0.031,0.069,-0.01,-0.057,0.042,0.111,-0.019,-0.028,-0.018,-0.014
-0.061,-0.081,-0.019,0.071,-0.021,-0.05,0.038,0.119,-0.012,-0.019,-0.015,-0.006
-0.032,-0.071,-0.039,0.052,0.004,-0.055,0.033,0.119,-0.007,-0.012,-0.011,0.002
-0.004,-0.062,-0.058,0.034,0.027,-0.06,0.028,0.132,0.002,0.008,-0.004,0.01
-0.002,-0.055,-0.052,0.029,0.025,-0.053,0.022,0.15,0.023,0.024,0.011,0.016
0.048,-0.039,-0.087,-0.004,0.068,-0.063,0.018,0.18,0.045,0.043,0.035,0.032
0.073,-0.029,-0.101,-0.022,0.087,-0.065,0.011,0.199,0.066,0.063,0.054,0.048
0.113,-0.005,-0.117,-0.054,0.115,-0.061,0.008,0.234,0.092,0.089,0.079,0.078
0.181,0.034,-0.147,-0.107,0.164,-0.056,-0.007,0.277,0.122,0.126,0.118,0.115
0.198,0.058,-0.14,-0.128,0.168,-0.041,-0.037,0.298,0.155,0.166,0.159,0.153
0.272,0.115,-0.157,-0.193,0.214,-0.021,-0.05,0.325,0.198,0.217,0.21,0.207
0.333,0.16,-0.173,-0.246,0.253,-0.007,-0.06,0.357,0.245,0.271,0.264,0.255
0.358,0.195,-0.163,-0.276,0.26,0.016,-0.071,0.375,0.276,0.309,0.307,0.292
0.385,0.237,-0.148,-0.311,0.266,0.044,-0.057,0.368,0.3,0.327,0.324,0.313
0.341,0.224,-0.117,-0.282,0.229,0.053,-0.021,0.351,0.303,0.315,0.308,0.295
0.249,0.183,-0.065,-0.216,0.157,0.059,0.027,0.312,0.28,0.279,0.265,0.25
0.159,0.14,-0.019,-0.149,0.089,0.06,0.087,0.254,0.231,0.223,0.199,0.185
0.087,0.082,-0.004,-0.084,0.045,0.038,0.118,0.185,0.164,0.15,0.133,0.115
0.018,0.019,0.001,-0.019,0.009,0.01,0.114,0.124,0.104,0.091,0.077,0.063
-0.037,-0.02,0.018,0.028,-0.027,-0.001,0.112,0.095,0.055,0.049,0.039,0.034
-0.084,-0.054,0.03,0.069,-0.057,-0.011,0.109,0.082,0.033,0.028,0.019,0.022
-0.097,-0.079,0.018,0.088,-0.057,-0.03,0.106,0.079,0.028,0.024,0.005,0.013
-0.102,-0.08,0.022,0.091,-0.062,-0.028,0.104,0.074,0.02,0.018,0.009,0.002
-0.1,-0.077,0.023,0.088,-0.061,-0.027,0.1,0.07,0.015,0.013,0.011,0.0
-0.094,-0.073,0.02,0.083,-0.056,-0.026,0.1,0.066,0.007,0.007,0.006,0.0
-0.097,-0.072,0.025,0.084,-0.061,-0.023,0.099,0.061,0.007,0.002,0.005,0.0
-0.08,-0.067,0.013,0.073,-0.046,-0.027,0.095,0.06,0.01,-0.002,0.0,0.0
-0.087,-0.074,0.013,0.08,-0.05,-0.03,0.095,0.06,0.011,-0.008,-0.001,0.001
-0.074,-0.085,-0.011,0.08,-0.032,-0.048,0.093,0.06,0.015,-0.011,-0.004,-0.003
-0.067,-0.079,-0.012,0.073,-0.027,-0.045,0.088,0.059,0.014,-0.017,-0.005,-0.005
-0.091,-0.072,0.019,0.081,-0.055,-0.026,0.085,0.062,0.01,-0.02,-0.005,-0.005
-0.086,-0.072,0.014,0.079,-0.05,-0.029,0.082,0.072,0.007,-0.016,-0.005,-0.009
-0.077,-0.075,0.001,0.076,-0.038,-0.037,0.077,0.071,0.003,-0.011,-0.005,-0.011
-0.069,-0.075,-0.006,0.072,-0.031,-0.04,0.075,0.067,0.0,-0.009,-0.005,-0.009
-0.078,-0.075,0.003,0.076,-0.04,-0.036,0.08,0.065,-0.005,-0.005,-0.005,-0.006
-0.083,-0.08,0.003,0.081,-0.043,-0.038,0.08,0.061,-0.007,0.0,-0.005,-0.005
-0.075,-0.08,-0.005,0.078,-0.035,-0.042,0.08,0.06,-0.011,-0.002,-0.005,-0.004
-0.072,-0.08,-0.008,0.076,-0.032,-0.044,0.08,0.057,-0.013,-0.006,-0.005,0.0
-0.064,-0.08,-0.016,0.073,-0.024,-0.048,0.08,0.052,-0.016,-0.008,-0.005,0.0
-0.061,-0.08,-0.019,0.07,-0.021,-0.049,0.078,0.049,-0.019,-0.011,-0.005,-0.003
-0.066,-0.082,-0.016,0.075,-0.025,-0.049,0.074,0.045,-0.021,-0.014,-0.005,-0.005
-0.075,-0.087,-0.012,0.081,-0.031,-0.049,0.075,0.042,-0.024,-0.015,-0.005,-0.005
-0.08,-0.09,-0.01,0.085,-0.035,-0.05,0.075,0.038,-0.025,-0.015,-0.005,-0.009
-0.082,-0.085,-0.003,0.084,-0.039,-0.044,0.075,0.035,-0.025,-0.015,-0.005,-0.011
-0.071,-0.09,-0.019,0.081,-0.026,-0.054,0.076,0.035,-0.025,-0.015,-0.008,-0.01
-0.063,-0.095,-0.032,0.079,-0.015,-0.063,0.079,0.033,-0.025,-0.015,-0.01,-0.01
-0.043,-0.073,-0.03,0.058,-0.006,-0.051,0.081,0.029,-0.025,-0.015,-0.01,-0.01
-0.061,-0.089,-0.028,0.075,-0.017,-0.058,0.077,0.03,-0.025,-0.015,-0.014,-0.01
-0.092,-0.116,-0.025,0.105,-0.033,-0.07,0.075,0.033,-0.025,-0.015,-0.015,-0.01
-0.083,-0.108,-0.025,0.096,-0.028,-0.066,0.075,0.035,-0.025,-0.015,-0.015,-0.009
-0.084,-0.103,-0.02,0.094,-0.032,-0.061,0.075,0.035,-0.025,-0.015,-0.015,-0.013
-0.062,-0.098,-0.037,0.08,-0.012,-0.067,0.075,0.035,-0.019,-0.015,-0.015,-0.018
-0.043,-0.091,-0.048,0.067,0.003,-0.07,0.076,0.035,-0.031,-0.015,-0.015,-0.025
-0.054,-0.094,-0.039,0.074,-0.007,-0.066,0.079,0.034,-0.04,-0.01,-0.015,-0.029
-0.052,-0.093,-0.041,0.072,-0.006,-0.067,0.08,0.03,-0.031,-0.01,-0.016,-0.025
-0.045,-0.08,-0.035,0.063,-0.005,-0.057,0.08,0.03,-0.028,-0.009,-0.012,-0.02
-0.069,-0.103,-0.034,0.086,-0.017,-0.068,0.08,0.03,-0.021,-0.005,-0.01,-0.016
-0.073,-0.124,-0.051,0.099,-0.011,-0.087,0.081,0.03,-0.017,-0.005,-0.01,-0.011
-0.066,-0.113,-0.047,0.09,-0.009,-0.08,0.077,0.03,-0.018,-0.007,-0.006,-0.006
-0.085,-0.114,-0.029,0.1,-0.027,-0.071,0.075,0.026,-0.022,-0.015,-0.005,-0.007
-0.082,-0.107,-0.026,0.095,-0.028,-0.066,0.071,0.023,-0.018,-0.019,-0.004,-0.012
-0.098,-0.106,-0.008,0.102,-0.044,-0.057,0.07,0.019,-0.016,-0.015,-0.001,-0.013
-0.079,-0.098,-0.019,0.089,-0.03,-0.058,0.065,0.017,-0.015,-0.012,0.001,-0.019
-0.024,-0.082,-0.059,0.053,0.018,-0.07,0.065,0.009,-0.015,-0.008,-0.001,-0.019
-0.044,-0.105,-0.061,0.075,0.008,-0.083,0.1,0.016,-0.03,-0.005,0.009,-0.016
-0.064,-0.12,-0.056,0.093,-0.004,-0.088,0.112,0.031,-0.035,0.001,0.0,-0.014
-0.055,-0.109,-0.054,0.082,0.0,-0.081,0.099,0.026,-0.031,-0.005,0.018,-0.016
-0.055,-0.106,-0.051,0.08,-0.002,-0.078,0.101,0.027,-0.022,-0.015,0.048,-0.014
-0.047,-0.095,-0.049,0.071,0.001,-0.072,0.093,0.031,-0.026,0.0,0.007,-0.016
-0.052,-0.093,-0.041,0.073,-0.005,-0.067,0.089,0.032,-0.009,0.014,-0.004,-0.006
-0.068,-0.091,-0.022,0.08,-0.023,-0.056,0.09,0.037,-0.023,0.016,0.003,0.041
-0.09,-0.101,-0.011,0.096,-0.039,-0.056,0.029,0.039,0.0,0.013,-0.003,0.027
-0.133,-0.1,0.033,0.116,-0.083,-0.033,-0.01,0.041,-0.019,-0.012,0.003,-0.007
-0.16,-0.107,0.053,0.133,-0.106,-0.027,0.007,0.046,0.03,-0.02,-0.002,0.005
