-0.026,0.23,0.255,-0.102,-0.141,0.242,-0.048,-0.309,-0.114,-0.09,-0.169,-0.11
-0.019,0.237,0.256,-0.109,-0.137,0.246,-0.032,-0.298,-0.1,-0.084,-0.163,-0.108
-0.041,0.203,0.244,-0.081,-0.143,0.223,-0.028,-0.28,-0.079,-0.077,-0.154,-0.103
-0.025,0.21,0.235,-0.093,-0.13,0.222,-0.026,-0.268,-0.07,-0.072,-0.145,-0.099
-0.009,0.215,0.224,-0.104,-0.117,0.219,-0.003,-0.259,-0.051,-0.04,-0.134,-0.094
0.005,0.199,0.194,-0.102,-0.094,0.196,0.003,-0.26,-0.005,-0.009,-0.108,-0.09
0.018,0.188,0.17,-0.103,-0.076,0.179,0.013,-0.26,0.005,-0.01,-0.094,-0.085
0.014,0.184,0.17,-0.099,-0.079,0.177,0.019,-0.26,-0.008,-0.01,-0.095,-0.08
0.016,0.185,0.169,-0.101,-0.077,0.177,0.011,-0.26,-0.018,-0.01,-0.095,-0.076
0.02,0.185,0.165,-0.103,-0.073,0.175,0.004,-0.26,-0.034,-0.01,-0.095,-0.071
0.02,0.185,0.165,-0.103,-0.073,0.175,-0.003,-0.265,-0.034,-0.01,-0.094,-0.072
0.021,0.185,0.164,-0.103,-0.072,0.174,-0.011,-0.274,-0.047,-0.019,-0.098,-0.075
0.01,0.167,0.157,-0.089,-0.074,0.162,-0.018,-0.287,-0.066,-0.03,-0.099,-0.078
-0.008,0.143,0.151,-0.067,-0.08,0.147,-0.016,-0.3,-0.081,-0.043,-0.104,-0.081
-0.007,0.136,0.143,-0.065,-0.076,0.14,-0.027,-0.322,-0.096,-0.052,-0.115,-0.084
-0.007,0.13,0.137,-0.062,-0.073,0.134,-0.042,-0.332,-0.102,-0.056,-0.118,-0.088
-0.012,0.125,0.137,-0.056,-0.075,0.13,-0.038,-0.327,-0.103,-0.054,-0.121,-0.091
-0.016,0.131,0.147,-0.058,-0.082,0.139,-0.04,-0.331,-0.107,-0.055,-0.125,-0.095
-0.012,0.137,0.148,-0.063,-0.08,0.142,-0.039,-0.328,-0.111,-0.056,-0.122,-0.093
-0.002,0.143,0.144,-0.071,-0.073,0.143,-0.04,-0.331,-0.097,-0.048,-0.119,-0.087
-0.007,0.143,0.15,-0.068,-0.079,0.146,-0.031,-0.323,-0.087,-0.043,-0.119,-0.084
0.01,0.158,0.148,-0.084,-0.07,0.153,0.002,-0.306,-0.07,-0.034,-0.114,-0.078
0.019,0.203,0.183,-0.111,-0.082,0.193,0.01,-0.297,-0.083,-0.032,-0.116,-0.076
0.032,0.21,0.178,-0.122,-0.073,0.194,0.051,-0.249,-0.066,-0.031,-0.12,-0.079
0.057,0.189,0.133,-0.124,-0.038,0.161,0.04,-0.255,-0.046,-0.029,-0.119,-0.08
0.063,0.149,0.086,-0.106,-0.011,0.117,-0.061,-0.32,-0.096,-0.032,-0.122,-0.08
0.055,0.137,0.082,-0.096,-0.014,0.109,-0.075,-0.347,-0.093,-0.033,-0.117,-0.079
0.004,0.124,0.12,-0.064,-0.058,0.122,-0.065,-0.347,-0.127,-0.075,-0.123,-0.081
-0.012,0.134,0.147,-0.061,-0.08,0.14,-0.072,-0.357,-0.103,-0.064,-0.12,-0.084
-0.013,0.129,0.142,-0.058,-0.078,0.135,-0.059,-0.335,-0.124,-0.084,-0.145,-0.104
-0.016,0.123,0.139,-0.055,-0.077,0.131,-0.07,-0.345,-0.104,-0.074,-0.136,-0.097
-0.011,0.16,0.171,-0.075,-0.092,0.165,-0.063,-0.329,-0.108,-0.083,-0.14,-0.102
-0.027,0.122,0.149,-0.048,-0.089,0.135,-0.055,-0.315,-0.123,-0.093,-0.145,-0.102
-0.033,0.119,0.152,-0.043,-0.092,0.135,0.064,-0.158,0.066,-0.016,-0.126,-0.105
0.111,0.295,0.184,-0.203,-0.037,0.239,0.0,-0.06,0.65,0.34,0.071,0.019
0.168,1.066,0.898,-0.617,-0.365,0.982,-0.763,-1.315,1.647,1.228,0.71,0.458
-0.194,1.0,1.193,-0.403,-0.694,1.096,-1.304,-2.518,-0.006,0.437,0.418,0.386
-0.378,-0.149,0.228,0.263,-0.303,0.04,-1.167,-2.117,-2.087,-1.062,-0.484,-0.131
-0.253,-0.363,-0.11,0.308,-0.071,-0.236,-0.937,-1.432,-1.282,-0.821,-0.524,-0.262
-0.135,-0.123,0.012,0.129,-0.073,-0.056,-0.58,-0.829,-0.607,-0.428,-0.361,-0.219
-0.02,0.05,0.07,-0.015,-0.045,0.059,-0.199,-0.323,-0.245,-0.19,-0.207,-0.138
-0.006,0.172,0.178,-0.084,-0.092,0.175,-0.008,-0.172,-0.027,-0.046,-0.125,-0.089
0.004,0.157,0.153,-0.081,-0.075,0.155,0.039,-0.129,-0.049,-0.053,-0.127,-0.084
-0.002,0.171,0.174,-0.085,-0.088,0.172,0.064,-0.103,0.05,0.004,-0.094,-0.071
-0.008,0.151,0.159,-0.072,-0.084,0.155,0.096,-0.09,0.019,-0.021,-0.103,-0.075
-0.013,0.154,0.168,-0.071,-0.091,0.161,0.096,-0.076,0.063,0.011,-0.079,-0.066
-0.018,0.145,0.163,-0.064,-0.091,0.154,0.091,-0.06,0.035,0.01,-0.079,-0.067
0.019,0.147,0.128,-0.083,-0.055,0.138,0.116,-0.03,0.085,0.041,-0.065,-0.059
0.027,0.153,0.125,-0.09,-0.049,0.138,0.136,0.008,0.111,0.049,-0.059,-0.05
0.024,0.147,0.124,-0.086,-0.05,0.135,0.147,0.053,0.14,0.065,-0.045,-0.04
0.023,0.153,0.13,-0.088,-0.054,0.141,0.179,0.104,0.205,0.101,-0.02,-0.031
0.059,0.188,0.129,-0.123,-0.035,0.158,0.215,0.184,0.269,0.135,0.003,-0.013
0.094,0.226,0.132,-0.16,-0.019,0.178,0.258,0.285,0.375,0.203,0.039,0.017
0.137,0.271,0.134,-0.204,0.001,0.202,0.287,0.364,0.465,0.269,0.079,0.039
0.172,0.318,0.145,-0.245,0.013,0.231,0.324,0.421,0.541,0.338,0.128,0.066
0.169,0.356,0.187,-0.262,-0.01,0.271,0.341,0.428,0.551,0.366,0.151,0.089
0.174,0.377,0.203,-0.276,-0.015,0.289,0.326,0.394,0.51,0.356,0.149,0.097
0.153,0.375,0.222,-0.264,-0.035,0.298,0.32,0.329,0.455,0.328,0.151,0.092
0.13,0.364,0.234,-0.247,-0.053,0.299,0.302,0.232,0.367,0.271,0.12,0.068
0.1,0.299,0.199,-0.2,-0.05,0.249,0.267,0.133,0.278,0.2,0.066,0.037
0.054,0.236,0.182,-0.145,-0.065,0.209,0.205,0.02,0.191,0.137,0.026,0.018
0.043,0.213,0.169,-0.128,-0.063,0.191,0.149,-0.081,0.101,0.08,-0.017,-0.01
0.027,0.174,0.147,-0.101,-0.06,0.16,0.104,-0.142,0.05,0.029,-0.046,-0.037
-0.006,0.134,0.14,-0.064,-0.073,0.136,0.064,-0.182,0.011,0.003,-0.059,-0.042
-0.014,0.126,0.14,-0.056,-0.077,0.133,0.058,-0.199,-0.021,-0.014,-0.071,-0.047
-0.011,0.129,0.14,-0.059,-0.075,0.135,0.055,-0.2,-0.04,-0.023,-0.078,-0.049
-0.01,0.13,0.14,-0.06,-0.075,0.135,0.051,-0.19,-0.04,-0.016,-0.084,-0.046
-0.011,0.13,0.141,-0.06,-0.075,0.135,0.048,-0.18,-0.025,-0.009,-0.079,-0.043
-0.006,0.131,0.137,-0.063,-0.072,0.134,0.044,-0.17,-0.015,-0.003,-0.069,-0.04
0.013,0.144,0.131,-0.079,-0.059,0.137,0.041,-0.164,0.014,0.004,-0.063,-0.038
0.028,0.151,0.124,-0.09,-0.048,0.137,0.039,-0.166,0.03,0.01,-0.053,-0.034
0.031,0.149,0.118,-0.091,-0.043,0.133,0.04,-0.162,0.033,0.018,-0.052,-0.038
0.04,0.15,0.11,-0.095,-0.035,0.13,0.039,-0.16,0.041,0.024,-0.056,-0.04
0.043,0.15,0.106,-0.097,-0.031,0.128,0.04,-0.159,0.035,0.032,-0.055,-0.04
0.022,0.15,0.128,-0.086,-0.053,0.139,0.038,-0.167,0.029,0.033,-0.055,-0.04
0.015,0.153,0.139,-0.084,-0.062,0.146,0.031,-0.18,0.024,0.022,-0.055,-0.04
0.031,0.162,0.131,-0.097,-0.05,0.146,0.024,-0.186,0.018,0.013,-0.055,-0.04
0.039,0.164,0.124,-0.102,-0.043,0.144,0.017,-0.19,0.005,0.002,-0.06,-0.036
0.039,0.156,0.117,-0.097,-0.04,0.136,0.011,-0.194,-0.013,-0.005,-0.06,-0.035
0.037,0.146,0.109,-0.092,-0.036,0.127,0.004,-0.2,-0.026,-0.01,-0.064,-0.036
0.037,0.138,0.102,-0.088,-0.033,0.12,0.002,-0.209,-0.036,-0.015,-0.066,-0.035
0.027,0.13,0.103,-0.079,-0.038,0.116,-0.004,-0.211,-0.04,-0.018,-0.062,-0.036
0.026,0.131,0.106,-0.079,-0.04,0.118,-0.002,-0.199,-0.039,-0.025,-0.057,-0.032
0.024,0.129,0.105,-0.077,-0.04,0.116,0.006,-0.199,-0.042,-0.021,-0.05,-0.024
0.025,0.131,0.106,-0.079,-0.04,0.118,0.013,-0.181,-0.019,-0.003,-0.046,-0.016
0.04,0.185,0.145,-0.113,-0.053,0.165,0.081,-0.157,0.036,0.03,-0.027,-0.01
0.02,0.209,0.189,-0.115,-0.085,0.199,0.127,-0.153,0.053,0.059,-0.007,-0.01
0.014,0.187,0.173,-0.101,-0.08,0.179,0.058,-0.174,0.022,0.045,-0.012,-0.009
0.054,0.195,0.141,-0.125,-0.044,0.168,-0.007,-0.2,0.021,0.04,-0.008,-0.004
0.039,0.154,0.115,-0.097,-0.038,0.134,-0.014,-0.192,-0.013,0.025,-0.012,-0.005
0.016,0.124,0.108,-0.07,-0.046,0.115,-0.039,-0.251,-0.046,0.009,-0.026,-0.008
0.029,0.135,0.106,-0.082,-0.039,0.12,-0.04,-0.255,-0.064,-0.019,-0.054,-0.027
-0.005,0.084,0.089,-0.04,-0.047,0.087,-0.038,-0.251,-0.073,-0.039,-0.078,-0.05
-0.029,0.07,0.099,-0.02,-0.064,0.084,-0.036,-0.255,-0.055,-0.035,-0.084,-0.055
-0.01,0.061,0.071,-0.026,-0.041,0.066,-0.028,-0.235,-0.074,-0.051,-0.09,-0.059
-0.002,0.088,0.091,-0.043,-0.047,0.089,-0.036,-0.264,-0.018,-0.02,-0.076,-0.045
0.007,0.061,0.054,-0.034,-0.024,0.057,-0.019,-0.212,-0.068,-0.057,-0.098,-0.058
-0.007,0.067,0.074,-0.03,-0.04,0.07,0.014,-0.188,0.049,-0.005,-0.069,-0.061
0.051,0.158,0.107,-0.105,-0.028,0.132,0.095,0.085,0.357,0.134,-0.017,-0.035
0.224,0.747,0.522,-0.486,-0.149,0.634,-0.57,-0.848,1.504,0.985,0.557,0.354
0.005,1.292,1.287,-0.649,-0.642,1.289,-1.561,-2.707,1.313,1.201,0.901,0.671
-0.366,0.308,0.674,0.029,-0.52,0.491,-1.601,-2.727,-1.423,-0.486,-0.029,0.177
-0.324,-0.502,-0.177,0.413,-0.073,-0.339,-1.315,-1.872,-1.796,-1.043,-0.55,-0.213
-0.176,-0.274,-0.098,0.225,-0.039,-0.186,-0.814,-1.033,-0.689,-0.486,-0.342,-0.18
-0.054,-0.069,-0.015,0.062,-0.02,-0.042,-0.206,-0.267,-0.325,-0.236,-0.197,-0.122
-0.012,0.079,0.091,-0.034,-0.051,0.084,0.011,-0.079,-0.006,-0.044,-0.092,-0.056
-0.014,0.093,0.107,-0.04,-0.061,0.1,0.081,-0.041,-0.049,-0.058,-0.094,-0.054
0.004,0.114,0.11,-0.059,-0.053,0.112,0.085,-0.031,0.043,-0.007,-0.072,-0.048
-0.006,0.122,0.128,-0.058,-0.067,0.125,0.117,0.006,0.059,-0.006,-0.074,-0.049
-0.002,0.12,0.122,-0.059,-0.062,0.121,0.138,0.023,0.081,0.0,-0.07,-0.045
0.002,0.129,0.127,-0.066,-0.063,0.128,0.143,0.04,0.109,0.014,-0.061,-0.044
0.017,0.142,0.125,-0.08,-0.054,0.133,0.173,0.073,0.105,0.01,-0.063,-0.044
0.02,0.16,0.14,-0.09,-0.06,0.15,0.17,0.081,0.156,0.028,-0.05,-0.032
0.02,0.157,0.137,-0.089,-0.058,0.147,0.183,0.135,0.208,0.032,-0.045,-0.028
0.028,0.2,0.173,-0.114,-0.073,0.186,0.21,0.189,0.303,0.061,-0.031,-0.016
0.019,0.205,0.185,-0.112,-0.083,0.194,0.264,0.278,0.487,0.093,-0.02,-0.012
0.04,0.22,0.18,-0.131,-0.07,0.2,0.339,0.425,0.716,0.152,0.006,0.003
0.078,0.269,0.191,-0.174,-0.057,0.23,0.401,0.563,0.728,0.215,0.059,0.021
0.117,0.333,0.216,-0.225,-0.05,0.274,0.463,0.672,0.701,0.28,0.102,0.043
0.153,0.39,0.237,-0.272,-0.042,0.313,0.5,0.72,0.711,0.34,0.147,0.082
0.145,0.384,0.238,-0.265,-0.047,0.311,0.483,0.706,0.682,0.343,0.168,0.09
0.137,0.393,0.256,-0.265,-0.059,0.324,0.451,0.629,0.664,0.328,0.158,0.075
0.107,0.389,0.281,-0.248,-0.087,0.335,0.404,0.501,0.607,0.301,0.152,0.069
0.059,0.335,0.276,-0.197,-0.109,0.305,0.336,0.372,0.608,0.228,0.108,0.053
0.037,0.292,0.255,-0.165,-0.109,0.273,0.28,0.25,0.533,0.158,0.055,0.021
0.004,0.243,0.238,-0.124,-0.117,0.24,0.221,0.167,0.382,0.102,0.017,-0.003
-0.017,0.204,0.222,-0.094,-0.12,0.213,0.17,0.115,0.358,0.06,-0.007,-0.024
-0.014,0.196,0.21,-0.091,-0.113,0.203,0.143,0.07,0.334,0.039,-0.021,-0.044
-0.017,0.191,0.208,-0.087,-0.113,0.199,0.123,0.03,0.314,0.021,-0.036,-0.046
-0.024,0.186,0.211,-0.081,-0.118,0.198,0.115,-0.011,0.295,0.008,-0.044,-0.051
-0.031,0.179,0.21,-0.074,-0.121,0.194,0.11,-0.02,0.284,-0.002,-0.053,-0.054
-0.038,0.177,0.215,-0.07,-0.127,0.196,0.105,-0.01,0.255,-0.008,-0.052,-0.059
-0.03,0.185,0.215,-0.078,-0.123,0.199,0.102,-0.005,0.226,-0.006,-0.047,-0.064
-0.031,0.185,0.216,-0.077,-0.124,0.201,0.095,0.003,0.241,-0.005,-0.045,-0.059
-0.04,0.18,0.22,-0.07,-0.13,0.2,0.099,0.008,0.278,-0.004,-0.04,-0.056
-0.041,0.179,0.22,-0.069,-0.13,0.199,0.1,0.014,0.345,0.0,-0.037,-0.053
-0.045,0.175,0.22,-0.065,-0.133,0.197,0.093,0.02,0.361,0.0,-0.033,-0.048
-0.045,0.174,0.219,-0.065,-0.132,0.196,0.09,0.024,0.372,-0.002,-0.03,-0.045
-0.024,0.201,0.225,-0.089,-0.125,0.213,0.084,0.017,0.369,-0.009,-0.03,-0.041
-0.007,0.21,0.217,-0.102,-0.112,0.213,0.081,-0.003,0.348,-0.014,-0.027,-0.04
-0.008,0.197,0.206,-0.095,-0.107,0.201,0.073,-0.021,0.339,-0.019,-0.025,-0.04
-0.01,0.191,0.201,-0.091,-0.106,0.196,0.058,-0.047,0.287,-0.026,-0.025,-0.04
-0.016,0.181,0.196,-0.083,-0.106,0.188,0.045,-0.07,0.257,-0.03,-0.028,-0.04
-0.015,0.177,0.192,-0.081,-0.103,0.184,0.036,-0.093,0.178,-0.05,-0.039,-0.039
-0.018,0.169,0.188,-0.076,-0.103,0.178,0.026,-0.109,0.059,-0.056,-0.039,-0.033
-0.015,0.168,0.183,-0.077,-0.099,0.175,0.019,-0.123,-0.237,-0.053,-0.03,-0.026
0.006,0.165,0.159,-0.086,-0.076,0.162,0.016,-0.125,-0.485,-0.06,-0.025,-0.019
0.017,0.191,0.173,-0.104,-0.078,0.182,0.031,-0.108,-0.224,-0.037,-0.017,-0.012
0.008,0.249,0.242,-0.129,-0.117,0.245,0.077,-0.101,0.003,-0.016,-0.012,-0.006
0.006,0.257,0.251,-0.132,-0.123,0.253,0.102,-0.08,0.048,-0.011,-0.002,0.004
0.028,0.242,0.215,-0.135,-0.094,0.228,0.056,-0.132,0.077,-0.013,0.0,0.009
0.035,0.253,0.218,-0.145,-0.092,0.236,-0.005,-0.192,0.067,-0.02,0.012,0.021
0.035,0.185,0.149,-0.11,-0.057,0.167,-0.021,-0.174,0.011,-0.037,0.011,0.021
0.034,0.137,0.103,-0.085,-0.035,0.12,-0.058,-0.235,-0.029,-0.055,-0.014,-0.004
-0.021,0.127,0.149,-0.054,-0.085,0.138,-0.071,-0.236,-0.041,-0.082,-0.044,-0.034
-0.067,0.07,0.137,-0.002,-0.103,0.103,-0.065,-0.235,-0.074,-0.083,-0.059,-0.045
-0.077,0.078,0.155,-0.001,-0.116,0.117,-0.065,-0.233,-0.069,-0.082,-0.063,-0.05
-0.066,0.066,0.133,-0.001,-0.1,0.1,-0.055,-0.216,-0.111,-0.096,-0.083,-0.059
-0.071,0.087,0.158,-0.008,-0.115,0.122,-0.061,-0.238,-0.057,-0.077,-0.058,-0.053
-0.078,0.059,0.137,0.009,-0.107,0.098,-0.044,-0.19,-0.1,-0.106,-0.084,-0.074
-0.04,0.046,0.086,-0.003,-0.063,0.066,-0.001,-0.16,0.024,-0.033,-0.069,-0.061
0.049,0.142,0.093,-0.096,-0.022,0.118,0.094,0.193,0.357,0.098,0.011,-0.015
0.213,0.761,0.548,-0.487,-0.168,0.654,-0.58,-0.849,1.56,1.016,0.63,0.398
-0.041,1.241,1.282,-0.6,-0.662,1.262,-1.571,-2.72,1.311,1.208,0.969,0.708
-0.423,0.263,0.686,0.079,-0.555,0.474,-1.591,-2.669,-1.507,-0.554,-0.011,0.176
-0.352,-0.461,-0.11,0.407,-0.121,-0.285,-1.29,-1.717,-1.797,-1.069,-0.507,-0.217
-0.202,-0.246,-0.044,0.224,-0.079,-0.144,-0.799,-0.783,-0.68,-0.52,-0.31,-0.185
-0.08,-0.035,0.044,0.057,-0.062,0.004,-0.225,0.029,-0.345,-0.295,-0.19,-0.133
-0.037,0.102,0.139,-0.033,-0.088,0.12,-0.017,0.681,-0.009,-0.097,-0.071,-0.075
-0.036,0.102,0.138,-0.034,-0.087,0.12,0.061,0.608,-0.063,-0.111,-0.083,-0.074
-0.019,0.128,0.147,-0.054,-0.084,0.137,0.066,0.26,0.013,-0.064,-0.055,-0.06
-0.028,0.129,0.157,-0.051,-0.093,0.143,0.069,0.297,0.001,-0.071,-0.06,-0.06
-0.007,0.143,0.15,-0.069,-0.079,0.146,0.084,0.246,0.014,-0.059,-0.054,-0.053
-0.003,0.156,0.159,-0.077,-0.081,0.157,0.092,0.293,0.042,-0.045,-0.046,-0.046
-0.002,0.151,0.153,-0.075,-0.078,0.152,0.113,0.335,0.033,-0.048,-0.048,-0.044
0.009,0.174,0.165,-0.091,-0.079,0.169,0.132,0.39,0.072,-0.03,-0.035,-0.034
0.01,0.181,0.171,-0.095,-0.081,0.176,0.149,0.464,0.075,-0.033,-0.033,-0.033
0.007,0.193,0.186,-0.1,-0.09,0.189,0.172,0.552,0.122,-0.003,-0.023,-0.024
0.023,0.209,0.186,-0.117,-0.082,0.197,0.219,0.703,0.179,0.029,-0.014,-0.021
0.064,0.253,0.189,-0.159,-0.063,0.22,0.274,0.863,0.27,0.089,0.02,-0.015
0.102,0.315,0.213,-0.209,-0.056,0.264,0.318,1.004,0.351,0.142,0.051,0.006
0.136,0.377,0.242,-0.257,-0.053,0.309,0.359,1.106,0.427,0.204,0.094,0.04
0.181,0.396,0.215,-0.289,-0.017,0.306,0.383,1.169,0.48,0.267,0.153,0.082
0.176,0.384,0.208,-0.28,-0.016,0.296,0.366,1.165,0.464,0.268,0.169,0.09
0.158,0.384,0.226,-0.271,-0.034,0.305,0.337,1.079,0.41,0.257,0.155,0.077
0.141,0.358,0.217,-0.25,-0.038,0.287,0.301,0.933,0.345,0.222,0.139,0.072
0.095,0.305,0.21,-0.2,-0.058,0.258,0.243,0.776,0.258,0.147,0.107,0.058
0.059,0.26,0.201,-0.16,-0.071,0.23,0.167,0.606,0.173,0.088,0.062,0.031
0.019,0.211,0.193,-0.115,-0.087,0.202,0.099,0.447,0.09,0.035,0.019,0.001
-0.006,0.176,0.182,-0.085,-0.095,0.179,0.048,0.256,0.017,-0.005,-0.007,-0.022
-0.015,0.161,0.176,-0.074,-0.096,0.168,0.013,-0.087,-0.026,-0.046,-0.034,-0.041
-0.027,0.144,0.171,-0.059,-0.099,0.158,-0.014,-0.637,-0.057,-0.076,-0.055,-0.049
-0.026,0.14,0.166,-0.057,-0.096,0.152,-0.059,-0.873,-0.078,-0.084,-0.058,-0.056
-0.019,0.14,0.16,-0.061,-0.089,0.15,-0.082,-0.635,-0.101,-0.096,-0.057,-0.058
-0.016,0.139,0.155,-0.062,-0.086,0.147,-0.069,-0.435,-0.113,-0.103,-0.052,-0.054
-0.019,0.141,0.16,-0.061,-0.089,0.15,-0.061,-0.279,-0.099,-0.097,-0.05,-0.056
-0.021,0.138,0.16,-0.058,-0.09,0.149,-0.05,-0.205,-0.077,-0.091,-0.045,-0.051
-0.014,0.146,0.161,-0.066,-0.088,0.153,-0.04,-0.144,-0.058,-0.083,-0.041,-0.05
-0.007,0.151,0.158,-0.072,-0.083,0.154,-0.029,-0.115,-0.054,-0.062,-0.038,-0.05
-0.018,0.152,0.17,-0.067,-0.094,0.161,-0.022,-0.137,-0.055,-0.055,-0.035,-0.045
-0.04,0.142,0.182,-0.051,-0.111,0.161,-0.017,-0.124,-0.056,-0.053,-0.035,-0.042
-0.021,0.157,0.179,-0.068,-0.1,0.168,-0.018,-0.15,-0.06,-0.049,-0.035,-0.038
0.0,0.192,0.192,-0.096,-0.097,0.192,-0.034,-0.15,-0.06,-0.048,-0.035,-0.035
-0.027,0.162,0.189,-0.068,-0.108,0.175,-0.041,-0.155,-0.061,-0.043,-0.035,-0.03
-0.029,0.147,0.176,-0.059,-0.103,0.162,-0.046,-0.163,-0.074,-0.054,-0.038,-0.033
-0.016,0.152,0.168,-0.068,-0.092,0.16,-0.051,-0.188,-0.088,-0.059,-0.042,-0.04
-0.014,0.144,0.159,-0.065,-0.087,0.151,-0.052,-0.181,-0.094,-0.064,-0.045,-0.04
-0.016,0.146,0.161,-0.065,-0.089,0.153,-0.058,-0.162,-0.099,-0.074,-0.05,-0.041
-0.019,0.138,0.157,-0.06,-0.088,0.147,-0.059,-0.18,-0.102,-0.081,-0.054,-0.04
-0.014,0.141,0.156,-0.064,-0.085,0.148,-0.063,-0.198,-0.103,-0.09,-0.058,-0.041
-0.021,0.132,0.154,-0.056,-0.088,0.143,-0.065,-0.191,-0.108,-0.082,-0.059,-0.05
-0.025,0.13,0.155,-0.053,-0.09,0.142,-0.064,-0.177,-0.104,-0.075,-0.054,-0.044
-0.026,0.121,0.146,-0.047,-0.087,0.133,-0.075,-0.181,-0.09,-0.07,-0.057,-0.034
0.0,0.172,0.172,-0.086,-0.086,0.172,-0.04,-0.144,-0.071,-0.058,-0.04,-0.026
0.027,0.267,0.241,-0.147,-0.107,0.254,0.015,-0.121,-0.026,-0.027,-0.003,-0.019
0.004,0.236,0.232,-0.12,-0.114,0.234,0.032,-0.114,-0.013,-0.016,-0.001,-0.021
0.012,0.209,0.197,-0.111,-0.093,0.202,-0.019,-0.141,-0.033,-0.027,-0.011,-0.018
0.04,0.207,0.167,-0.124,-0.064,0.187,-0.084,-0.178,-0.03,-0.018,-0.013,-0.015
0.039,0.153,0.115,-0.097,-0.038,0.134,-0.085,-0.181,-0.063,-0.045,-0.027,-0.014
0.01,0.129,0.118,-0.07,-0.054,0.123,-0.088,-0.236,-0.088,-0.056,-0.023,-0.025
-0.017,0.096,0.112,-0.04,-0.065,0.104,-0.081,-0.222,-0.132,-0.083,-0.049,-0.054
-0.019,0.097,0.116,-0.039,-0.068,0.106,-0.09,-0.239,-0.105,-0.093,-0.062,-0.052
-0.035,0.089,0.124,-0.027,-0.08,0.106,-0.079,-0.222,-0.121,-0.109,-0.068,-0.065
-0.039,0.073,0.112,-0.017,-0.076,0.092,-0.098,-0.234,-0.11,-0.105,-0.064,-0.067
-0.053,0.077,0.129,-0.012,-0.091,0.103,-0.104,-0.232,-0.094,-0.106,-0.062,-0.07
-0.041,0.029,0.07,0.005,-0.055,0.049,-0.086,-0.193,-0.133,-0.123,-0.075,-0.081
-0.029,0.053,0.082,-0.012,-0.056,0.067,-0.002,-0.061,0.03,-0.062,-0.067,-0.061
0.107,0.203,0.097,-0.155,0.005,0.15,-0.024,0.101,0.576,0.276,0.131,0.052
0.207,0.956,0.749,-0.582,-0.271,0.852,-0.912,-1.443,1.837,1.34,0.883,0.569
-0.196,1.034,1.231,-0.419,-0.714,1.132,-1.65,-2.933,0.479,0.785,0.758,0.616
-0.444,-0.125,0.32,0.284,-0.382,0.097,-1.493,-2.387,-2.018,-0.949,-0.292,-0.024
-0.291,-0.442,-0.151,0.367,-0.07,-0.296,-1.185,-1.544,-1.413,-0.892,-0.485,-0.243
-0.15,-0.17,-0.02,0.16,-0.064,-0.095,-0.648,-0.707,-0.613,-0.442,-0.288,-0.189
-0.035,-0.043,-0.009,0.039,-0.013,-0.026,-0.18,-0.154,-0.285,-0.221,-0.14,-0.121
-0.025,0.047,0.072,-0.011,-0.049,0.059,-0.035,-0.044,-0.056,-0.068,-0.057,-0.06
-0.016,0.039,0.055,-0.012,-0.036,0.047,0.011,0.005,-0.103,-0.087,-0.063,-0.06
-0.003,0.062,0.065,-0.03,-0.035,0.063,0.028,0.003,-0.006,-0.033,-0.035,-0.051
0.001,0.054,0.053,-0.028,-0.027,0.053,0.056,0.035,-0.051,-0.059,-0.047,-0.058
0.011,0.062,0.051,-0.037,-0.02,0.056,0.068,0.044,0.003,-0.031,-0.03,-0.053
0.012,0.06,0.049,-0.036,-0.019,0.054,0.081,0.071,-0.002,-0.036,-0.031,-0.056
0.019,0.058,0.039,-0.039,-0.01,0.048,0.096,0.099,0.023,-0.025,-0.024,-0.05
0.023,0.062,0.039,-0.043,-0.008,0.05,0.113,0.138,0.044,-0.012,-0.015,-0.04
0.03,0.058,0.029,-0.044,0.0,0.043,0.138,0.195,0.07,0.006,-0.01,-0.03
0.032,0.06,0.028,-0.046,0.002,0.043,0.183,0.275,0.135,0.045,0.008,-0.013
0.065,0.084,0.019,-0.074,0.023,0.051,0.228,0.379,0.194,0.076,0.032,0.003
0.097,0.112,0.015,-0.105,0.04,0.063,0.277,0.49,0.284,0.133,0.069,0.023
0.117,0.144,0.027,-0.131,0.045,0.085,0.337,0.602,0.369,0.205,0.114,0.057
0.149,0.19,0.041,-0.169,0.053,0.115,0.364,0.654,0.432,0.275,0.162,0.087
0.174,0.227,0.053,-0.201,0.061,0.139,0.365,0.643,0.44,0.298,0.191,0.106
0.172,0.242,0.07,-0.207,0.051,0.156,0.366,0.61,0.415,0.294,0.183,0.117
0.149,0.241,0.092,-0.195,0.028,0.166,0.337,0.516,0.365,0.293,0.172,0.104
0.125,0.221,0.096,-0.173,0.014,0.158,0.286,0.39,0.302,0.245,0.164,0.088
0.082,0.164,0.082,-0.123,0.0,0.123,0.239,0.263,0.225,0.182,0.131,0.066
0.037,0.111,0.073,-0.074,-0.018,0.092,0.175,0.128,0.131,0.122,0.09,0.033
0.019,0.059,0.04,-0.04,-0.011,0.05,0.116,0.027,0.057,0.058,0.049,0.004
-0.003,0.005,0.008,-0.001,-0.006,0.007,0.071,-0.038,0.005,0.019,0.017,-0.015
-0.035,-0.025,0.011,0.03,-0.023,-0.007,0.029,-0.082,-0.034,-0.009,-0.001,-0.025
-0.041,-0.031,0.01,0.036,-0.025,-0.01,0.018,-0.118,-0.053,-0.023,-0.009,-0.032
-0.039,-0.03,0.009,0.035,-0.024,-0.01,0.021,-0.135,-0.076,-0.034,-0.013,-0.043
-0.041,-0.03,0.011,0.036,-0.026,-0.009,0.02,-0.128,-0.086,-0.039,-0.019,-0.049
-0.021,-0.03,-0.009,0.026,-0.006,-0.02,0.02,-0.116,-0.081,-0.032,-0.025,-0.043
-0.004,-0.03,-0.026,0.017,0.011,-0.028,0.02,-0.103,-0.069,-0.026,-0.03,-0.036
-0.004,-0.03,-0.026,0.018,0.011,-0.027,0.017,-0.088,-0.043,-0.022,-0.018,-0.029
-0.01,-0.03,-0.02,0.02,0.005,-0.025,0.014,-0.078,-0.029,-0.013,-0.002,-0.022
-0.009,-0.029,-0.02,0.019,0.006,-0.025,0.015,-0.08,-0.021,0.002,0.001,-0.016
-0.016,-0.031,-0.015,0.024,-0.001,-0.022,0.011,-0.082,-0.009,0.015,0.005,-0.011
-0.012,-0.028,-0.016,0.021,0.002,-0.021,0.009,-0.086,-0.009,0.023,0.008,-0.006
0.008,-0.042,-0.05,0.017,0.029,-0.046,0.01,-0.089,-0.014,0.022,0.013,-0.001
0.005,-0.057,-0.062,0.026,0.034,-0.059,0.01,-0.09,-0.018,0.017,0.015,0.002
-0.005,-0.064,-0.059,0.034,0.028,-0.062,0.01,-0.094,-0.023,0.014,0.01,0.008
-0.012,-0.071,-0.059,0.042,0.024,-0.065,0.01,-0.096,-0.026,0.01,0.01,0.009
-0.012,-0.093,-0.081,0.053,0.035,-0.087,0.01,-0.105,-0.034,0.006,0.01,0.004
-0.029,-0.143,-0.114,0.086,0.043,-0.128,0.01,-0.103,-0.033,0.004,0.01,0.005
-0.033,-0.159,-0.126,0.096,0.047,-0.142,0.009,-0.11,-0.043,0.006,0.01,0.002
-0.023,-0.152,-0.129,0.088,0.053,-0.14,0.002,-0.114,-0.063,0.005,0.012,0.0
-0.027,-0.156,-0.13,0.091,0.052,-0.142,0.002,-0.115,-0.067,0.006,0.022,-0.001
-0.014,-0.154,-0.14,0.084,0.064,-0.147,0.013,-0.111,-0.055,0.004,0.027,0.007
0.006,-0.115,-0.121,0.055,0.064,-0.118,0.055,-0.056,-0.012,0.019,0.049,0.028
0.018,-0.081,-0.098,0.032,0.058,-0.089,0.101,-0.038,0.022,0.058,0.069,0.045
0.001,-0.086,-0.087,0.043,0.044,-0.086,0.094,-0.034,0.013,0.054,0.06,0.049
0.024,-0.079,-0.102,0.028,0.063,-0.09,0.062,-0.058,0.003,0.04,0.056,0.043
0.052,-0.087,-0.139,0.018,0.096,-0.112,0.025,-0.096,0.002,0.033,0.054,0.04
0.058,-0.16,-0.218,0.052,0.138,-0.189,-0.008,-0.11,-0.038,0.014,0.045,0.034
0.057,-0.219,-0.276,0.081,0.167,-0.247,-0.018,-0.149,-0.048,0.013,0.047,0.032
0.016,-0.263,-0.28,0.124,0.148,-0.271,-0.011,-0.128,-0.075,-0.014,0.034,0.024
-0.002,-0.268,-0.267,0.135,0.133,-0.268,-0.02,-0.144,-0.05,-0.003,0.041,0.022
-0.016,-0.278,-0.262,0.147,0.123,-0.269,-0.009,-0.121,-0.08,-0.027,0.027,0.013
-0.015,-0.276,-0.262,0.146,0.124,-0.269,-0.021,-0.135,-0.053,-0.017,0.032,0.01
-0.03,-0.267,-0.236,0.149,0.104,-0.251,-0.009,-0.121,-0.059,-0.025,0.024,0.005
-0.01,-0.297,-0.287,0.154,0.139,-0.292,0.002,-0.092,-0.074,-0.016,0.018,-0.007
0.033,-0.266,-0.299,0.117,0.166,-0.282,0.111,0.096,0.106,0.046,0.029,-0.016
0.155,-0.08,-0.235,-0.038,0.195,-0.157,0.017,0.158,0.739,0.433,0.264,0.139
0.186,0.684,0.498,-0.436,-0.156,0.591,-0.888,-1.468,1.879,1.44,1.001,0.65
-0.249,0.583,0.832,-0.167,-0.541,0.707,-1.484,-2.75,0.184,0.63,0.715,0.584
-0.445,-0.576,-0.131,0.511,-0.156,-0.353,-1.319,-2.129,-2.004,-0.957,-0.296,-0.026
-0.277,-0.797,-0.52,0.537,0.122,-0.658,-1.021,-1.322,-1.187,-0.735,-0.371,-0.173
-0.156,-0.553,-0.397,0.355,0.121,-0.475,-0.491,-0.525,-0.508,-0.338,-0.182,-0.114
-0.037,-0.389,-0.352,0.213,0.157,-0.37,-0.069,-0.03,-0.167,-0.118,-0.051,-0.052
-0.023,-0.301,-0.277,0.162,0.127,-0.289,0.072,0.073,0.017,-0.001,0.023,-0.01
-0.003,-0.309,-0.307,0.156,0.152,-0.308,0.114,0.124,-0.005,-0.012,0.026,-0.011
0.009,-0.278,-0.288,0.135,0.149,-0.283,0.124,0.12,0.09,0.045,0.05,0.005
0.008,-0.29,-0.298,0.141,0.154,-0.294,0.142,0.151,0.048,0.032,0.036,0.004
0.024,-0.271,-0.294,0.124,0.159,-0.282,0.16,0.165,0.11,0.059,0.049,0.016
0.02,-0.271,-0.291,0.126,0.156,-0.281,0.178,0.194,0.098,0.055,0.053,0.031
0.028,-0.263,-0.291,0.118,0.159,-0.276,0.196,0.226,0.129,0.082,0.07,0.047
0.045,-0.257,-0.302,0.106,0.174,-0.279,0.216,0.256,0.146,0.08,0.074,0.044
0.054,-0.253,-0.307,0.1,0.181,-0.28,0.229,0.302,0.169,0.084,0.078,0.045
0.043,-0.246,-0.289,0.102,0.166,-0.267,0.258,0.381,0.227,0.115,0.089,0.045
0.055,-0.232,-0.287,0.089,0.171,-0.259,0.302,0.487,0.291,0.147,0.109,0.047
0.089,-0.19,-0.279,0.051,0.184,-0.234,0.357,0.604,0.387,0.214,0.15,0.077
0.129,-0.148,-0.278,0.01,0.204,-0.212,0.409,0.701,0.482,0.286,0.204,0.113
0.164,-0.106,-0.27,-0.029,0.218,-0.188,0.434,0.742,0.537,0.348,0.245,0.142
0.174,-0.079,-0.253,-0.048,0.214,-0.166,0.426,0.743,0.54,0.372,0.274,0.167
0.157,-0.069,-0.226,-0.044,0.192,-0.147,0.415,0.707,0.512,0.369,0.279,0.171
0.143,-0.065,-0.207,-0.039,0.176,-0.136,0.404,0.61,0.452,0.35,0.268,0.156
0.141,-0.07,-0.211,-0.035,0.176,-0.141,0.364,0.488,0.386,0.304,0.251,0.144
0.102,-0.105,-0.207,0.002,0.154,-0.156,0.312,0.359,0.306,0.24,0.202,0.121
0.024,-0.205,-0.229,0.091,0.127,-0.216,0.253,0.231,0.228,0.179,0.161,0.09
-0.009,-0.259,-0.25,0.135,0.12,-0.255,0.192,0.131,0.159,0.128,0.13,0.063
-0.019,-0.267,-0.248,0.143,0.115,-0.258,0.139,0.057,0.107,0.077,0.089,0.045
-0.038,-0.311,-0.272,0.175,0.117,-0.291,0.103,0.015,0.072,0.047,0.068,0.035
-0.039,-0.319,-0.28,0.179,0.121,-0.299,0.094,-0.002,0.029,0.031,0.063,0.022
-0.058,-0.331,-0.273,0.195,0.108,-0.302,0.096,-0.011,0.019,0.022,0.056,0.017
-0.068,-0.337,-0.269,0.202,0.101,-0.303,0.092,-0.01,0.018,0.025,0.05,0.024
-0.059,-0.325,-0.266,0.193,0.103,-0.295,0.09,0.013,0.013,0.029,0.041,0.031
-0.052,-0.31,-0.258,0.181,0.103,-0.284,0.09,0.028,0.027,0.03,0.046,0.038
-0.032,-0.301,-0.269,0.167,0.119,-0.285,0.094,0.038,0.052,0.04,0.063,0.044
-0.017,-0.328,-0.311,0.173,0.147,-0.319,0.106,0.051,0.089,0.077,0.081,0.05
-0.017,-0.327,-0.31,0.172,0.147,-0.318,0.106,0.046,0.099,0.093,0.087,0.05
-0.014,-0.312,-0.297,0.163,0.142,-0.304,0.096,0.039,0.088,0.086,0.084,0.05
-0.006,-0.308,-0.302,0.157,0.148,-0.305,0.089,0.033,0.083,0.086,0.085,0.05
0.005,-0.291,-0.296,0.143,0.151,-0.294,0.08,0.025,0.072,0.08,0.085,0.049
0.007,-0.29,-0.297,0.142,0.152,-0.293,0.076,0.022,0.068,0.08,0.084,0.05
-0.018,-0.31,-0.292,0.165,0.137,-0.301,0.074,0.019,0.061,0.08,0.085,0.047
-0.024,-0.334,-0.31,0.179,0.143,-0.321,0.076,0.022,0.061,0.081,0.084,0.045
-0.021,-0.353,-0.332,0.188,0.155,-0.342,0.073,0.018,0.059,0.079,0.086,0.044
-0.012,-0.306,-0.294,0.16,0.141,-0.3,0.088,0.027,0.063,0.084,0.103,0.055
0.012,-0.246,-0.258,0.117,0.135,-0.252,0.144,0.078,0.097,0.107,0.13,0.08
0.025,-0.237,-0.262,0.106,0.143,-0.249,0.157,0.09,0.115,0.109,0.137,0.088
0.03,-0.241,-0.271,0.106,0.151,-0.256,0.111,0.05,0.087,0.095,0.135,0.088
0.038,-0.228,-0.266,0.095,0.152,-0.246,0.066,0.006,0.074,0.096,0.147,0.099
0.058,-0.284,-0.342,0.113,0.2,-0.313,0.052,-0.01,0.049,0.082,0.136,0.092
0.061,-0.338,-0.399,0.139,0.23,-0.369,0.041,-0.032,0.049,0.083,0.129,0.084
0.01,-0.345,-0.355,0.167,0.183,-0.35,0.036,-0.03,0.022,0.061,0.101,0.069
-0.021,-0.402,-0.381,0.212,0.18,-0.391,0.029,-0.041,-0.036,0.029,0.065,0.034
-0.033,-0.4,-0.367,0.217,0.168,-0.384,0.017,-0.066,-0.027,0.036,0.069,0.022
-0.044,-0.425,-0.381,0.235,0.169,-0.403,0.021,-0.033,-0.062,0.009,0.059,0.014
-0.045,-0.407,-0.362,0.226,0.159,-0.384,0.013,-0.067,-0.01,0.036,0.074,0.021
-0.048,-0.42,-0.372,0.234,0.162,-0.396,0.027,-0.015,-0.076,-0.007,0.054,0.005
-0.024,-0.429,-0.405,0.227,0.191,-0.417,0.045,0.001,0.024,0.029,0.075,0.017
0.011,-0.399,-0.41,0.194,0.211,-0.404,0.173,0.317,0.255,0.113,0.092,0.026
0.184,0.082,-0.103,-0.133,0.144,-0.01,-0.273,-0.291,1.365,0.93,0.618,0.371
0.033,0.763,0.73,-0.398,-0.349,0.746,-1.277,-2.27,1.643,1.456,1.118,0.79
-0.402,-0.016,0.386,0.209,-0.394,0.185,-1.47,-2.605,-1.072,-0.175,0.268,0.343
-0.379,-0.899,-0.52,0.639,0.071,-0.709,-1.178,-1.707,-1.877,-1.01,-0.4,-0.131
-0.208,-0.734,-0.526,0.471,0.159,-0.63,-0.795,-0.934,-0.744,-0.476,-0.241,-0.131
-0.104,-0.541,-0.437,0.323,0.166,-0.489,-0.247,-0.176,-0.363,-0.225,-0.095,-0.08
-0.032,-0.386,-0.353,0.209,0.161,-0.369,0.024,0.086,0.0,-0.01,0.021,0.002
-0.041,-0.363,-0.322,0.202,0.141,-0.342,0.084,0.142,-0.011,-0.007,0.029,0.003
-0.048,-0.372,-0.324,0.21,0.139,-0.348,0.114,0.16,0.057,0.045,0.059,0.014
-0.034,-0.36,-0.326,0.197,0.147,-0.343,0.124,0.174,0.072,0.053,0.068,0.024
-0.011,-0.363,-0.352,0.188,0.17,-0.357,0.154,0.203,0.067,0.054,0.066,0.027
-0.017,-0.346,-0.329,0.182,0.156,-0.337,0.164,0.217,0.106,0.079,0.077,0.037
-0.008,-0.341,-0.333,0.174,0.163,-0.337,0.148,0.242,0.085,0.065,0.072,0.033
0.006,-0.314,-0.32,0.154,0.163,-0.317,0.21,0.291,0.14,0.081,0.076,0.036
0.023,-0.293,-0.315,0.135,0.169,-0.304,0.21,0.318,0.143,0.077,0.081,0.035
0.032,-0.274,-0.306,0.121,0.169,-0.289,0.237,0.393,0.183,0.108,0.083,0.034
0.036,-0.257,-0.293,0.111,0.165,-0.275,0.26,0.491,0.254,0.135,0.107,0.042
0.078,-0.21,-0.287,0.066,0.183,-0.248,0.301,0.578,0.316,0.174,0.141,0.055
0.12,-0.157,-0.276,0.019,0.198,-0.216,0.375,0.7,0.425,0.25,0.174,0.072
0.147,-0.121,-0.269,-0.013,0.209,-0.195,0.335,0.736,0.51,0.317,0.242,0.112
0.17,-0.082,-0.252,-0.044,0.212,-0.167,0.425,0.779,0.524,0.349,0.264,0.14
0.16,-0.079,-0.239,-0.041,0.2,-0.159,0.429,0.768,0.524,0.361,0.281,0.162
0.13,-0.085,-0.215,-0.023,0.173,-0.15,0.396,0.698,0.511,0.333,0.301,0.181
0.107,-0.081,-0.188,-0.013,0.148,-0.134,0.406,0.585,0.477,0.319,0.264,0.17
0.13,-0.113,-0.243,-0.008,0.187,-0.178,0.326,0.431,0.336,0.268,0.235,0.13
0.136,-0.116,-0.252,-0.01,0.194,-0.184,0.258,0.286,0.284,0.199,0.186,0.109
0.063,-0.183,-0.246,0.06,0.155,-0.214,0.189,0.203,0.206,0.153,0.12,0.069
-0.018,-0.258,-0.24,0.139,0.111,-0.249,0.189,0.196,0.081,0.082,0.109,0.008
-0.076,-0.275,-0.2,0.176,0.062,-0.237,0.115,0.045,0.066,0.057,0.08,0.035
-0.038,-0.326,-0.288,0.182,0.125,-0.307,0.006,-0.062,0.0,0.036,0.083,0.061
0.006,-0.321,-0.327,0.157,0.167,-0.324,0.019,-0.057,-0.012,0.02,0.082,0.051
-0.004,-0.326,-0.322,0.166,0.159,-0.324,0.104,-0.065,-0.03,-0.003,0.052,0.054
0.057,-0.303,-0.36,0.124,0.209,-0.331,0.099,-0.032,0.009,0.0,0.064,0.047
0.035,-0.311,-0.346,0.138,0.191,-0.328,0.038,-0.036,0.003,-0.016,0.058,0.046
-0.045,-0.318,-0.273,0.182,0.114,-0.295,0.099,-0.008,-0.051,-0.036,0.06,0.02
-0.02,-0.263,-0.243,0.142,0.112,-0.253,0.108,0.025,0.078,0.049,0.085,0.006
-0.035,-0.335,-0.299,0.185,0.132,-0.317,0.066,-0.018,-0.008,0.004,0.083,0.028
0.0,-0.249,-0.249,0.125,0.125,-0.249,0.115,0.035,-0.085,-0.059,0.064,0.041
0.043,-0.171,-0.214,0.064,0.129,-0.192,0.126,0.065,-0.011,0.025,0.112,0.072
0.021,-0.262,-0.284,0.121,0.153,-0.273,0.082,0.012,-0.081,0.053,0.134,0.069
0.007,-0.251,-0.258,0.122,0.133,-0.254,0.102,0.017,-0.068,0.062,0.118,0.063
-0.03,-0.257,-0.227,0.144,0.099,-0.242,0.12,-0.001,-0.076,0.069,0.127,0.054
-0.005,-0.251,-0.246,0.128,0.121,-0.248,0.113,-0.035,-0.095,0.02,0.111,0.052
-0.022,-0.225,-0.203,0.124,0.091,-0.214,0.111,0.006,-0.059,0.045,0.131,0.09
0.01,-0.141,-0.151,0.066,0.081,-0.146,0.171,0.081,-0.074,0.085,0.15,0.088
0.058,-0.077,-0.135,0.01,0.097,-0.106,0.198,0.075,-0.068,0.09,0.162,0.114
-0.024,-0.158,-0.134,0.091,0.055,-0.145,0.121,0.021,-0.109,0.085,0.173,0.128
-0.003,-0.16,-0.156,0.082,0.076,-0.158,0.081,-0.011,-0.141,0.06,0.169,0.115
0.066,-0.163,-0.23,0.049,0.148,-0.196,0.1,-0.038,-0.172,0.048,0.17,0.117
0.016,-0.233,-0.249,0.109,0.133,-0.241,0.107,-0.05,-0.181,0.027,0.152,0.102
-0.002,-0.242,-0.241,0.122,0.12,-0.241,0.116,-0.027,-0.177,-0.005,0.13,0.088
0.047,-0.259,-0.306,0.106,0.176,-0.282,0.144,-0.041,-0.249,-0.045,0.128,0.071
-0.012,-0.269,-0.257,0.14,0.123,-0.262,0.137,-0.068,-0.232,-0.036,0.129,0.068
-0.047,-0.298,-0.251,0.173,0.102,-0.274,0.14,-0.035,-0.228,-0.035,0.114,0.076
-0.042,-0.303,-0.262,0.173,0.111,-0.282,0.137,-0.066,-0.246,-0.051,0.124,0.091
-0.027,-0.321,-0.294,0.174,0.133,-0.307,0.155,-0.027,-0.299,-0.088,0.1,0.08
0.009,-0.315,-0.324,0.153,0.167,-0.319,0.164,-0.001,-0.213,-0.024,0.117,0.068
0.051,-0.266,-0.317,0.108,0.184,-0.291,0.295,0.3,-0.004,0.046,0.131,0.056
0.229,0.214,-0.015,-0.222,0.122,0.1,-0.094,-0.194,1.033,0.774,0.633,0.393
0.029,0.849,0.82,-0.44,-0.396,0.834,-1.067,-2.051,1.035,1.149,1.075,0.768
-0.362,0.023,0.385,0.17,-0.374,0.204,-1.193,-2.404,-1.546,-0.428,0.216,0.304
-0.315,-0.883,-0.568,0.599,0.127,-0.725,-0.873,-1.503,-2.058,-1.095,-0.369,-0.13
-0.148,-0.659,-0.512,0.404,0.182,-0.585,-0.574,-0.864,-0.964,-0.521,-0.138,-0.067
-0.021,-0.429,-0.408,0.225,0.194,-0.419,-0.126,-0.222,-0.66,-0.314,-0.01,-0.032
0.076,-0.27,-0.346,0.097,0.212,-0.308,0.154,0.06,-0.28,-0.086,0.106,0.045
0.082,-0.24,-0.321,0.079,0.201,-0.28,0.248,0.115,-0.294,-0.059,0.148,0.089
0.001,-0.235,-0.236,0.118,0.119,-0.235,0.227,0.119,-0.243,-0.027,0.162,0.09
0.029,-0.206,-0.235,0.089,0.132,-0.22,0.285,0.144,-0.236,-0.039,0.152,0.086
0.078,-0.219,-0.298,0.071,0.188,-0.258,0.286,0.157,-0.241,-0.064,0.147,0.083
0.057,-0.188,-0.245,0.066,0.151,-0.216,0.252,0.134,-0.177,-0.032,0.146,0.08
0.07,-0.176,-0.247,0.053,0.159,-0.211,0.272,0.158,-0.227,-0.048,0.138,0.08
0.051,-0.169,-0.22,0.059,0.136,-0.194,0.308,0.201,-0.172,-0.022,0.173,0.11
0.072,-0.145,-0.217,0.036,0.145,-0.18,0.305,0.232,-0.161,-0.021,0.164,0.122
0.109,-0.098,-0.207,-0.006,0.158,-0.152,0.315,0.298,-0.124,0.02,0.168,0.124
0.145,-0.051,-0.196,-0.047,0.171,-0.123,0.409,0.421,-0.052,0.08,0.201,0.106
0.169,-0.024,-0.194,-0.072,0.182,-0.108,0.429,0.491,0.044,0.119,0.214,0.125
0.185,0.005,-0.179,-0.095,0.182,-0.087,0.476,0.594,0.154,0.187,0.265,0.171
0.228,0.039,-0.189,-0.133,0.208,-0.075,0.516,0.659,0.204,0.238,0.3,0.179
0.241,0.077,-0.164,-0.159,0.202,-0.043,0.522,0.643,0.211,0.277,0.321,0.2
0.253,0.132,-0.121,-0.193,0.187,0.005,0.53,0.633,0.184,0.278,0.35,0.224
0.231,0.131,-0.101,-0.181,0.166,0.015,0.52,0.581,0.144,0.239,0.346,0.218
0.184,0.113,-0.071,-0.148,0.127,0.021,0.471,0.465,0.05,0.206,0.312,0.204
0.142,0.086,-0.056,-0.114,0.099,0.015,0.419,0.324,-0.062,0.127,0.256,0.176
0.106,0.035,-0.071,-0.07,0.088,-0.018,0.389,0.217,-0.151,0.051,0.208,0.139
0.079,-0.015,-0.094,-0.031,0.086,-0.054,0.307,0.119,-0.25,-0.015,0.154,0.11
0.042,-0.061,-0.102,0.01,0.072,-0.081,0.251,0.029,-0.31,-0.081,0.105,0.082
0.031,-0.086,-0.117,0.028,0.074,-0.102,0.211,-0.023,-0.353,-0.123,0.071,0.064
0.013,-0.122,-0.135,0.055,0.074,-0.129,0.195,-0.049,-0.387,-0.149,0.047,0.052
-0.002,-0.135,-0.133,0.069,0.065,-0.133,0.196,-0.051,-0.399,-0.167,0.032,0.043
0.004,-0.125,-0.129,0.06,0.067,-0.126,0.193,-0.045,-0.39,-0.168,0.017,0.032
0.005,-0.12,-0.125,0.058,0.066,-0.122,0.196,-0.039,-0.377,-0.158,0.015,0.025
0.01,-0.112,-0.122,0.051,0.066,-0.117,0.194,-0.036,-0.358,-0.153,0.015,0.025
0.012,-0.106,-0.118,0.047,0.065,-0.111,0.196,-0.041,-0.329,-0.145,0.015,0.018
0.018,-0.096,-0.114,0.039,0.067,-0.105,0.187,-0.039,-0.308,-0.142,0.015,0.027
0.016,-0.091,-0.108,0.038,0.062,-0.1,0.18,-0.041,-0.286,-0.145,0.015,0.036
0.01,-0.095,-0.105,0.043,0.058,-0.1,0.172,-0.039,-0.274,-0.145,0.004,0.027
0.004,-0.095,-0.1,0.046,0.052,-0.097,0.17,-0.048,-0.275,-0.145,-0.014,0.02
0.002,-0.094,-0.096,0.046,0.049,-0.095,0.17,-0.062,-0.276,-0.145,-0.028,0.013
0.005,-0.107,-0.112,0.052,0.059,-0.109,0.167,-0.068,-0.279,-0.145,-0.033,0.005
-0.01,-0.123,-0.113,0.066,0.052,-0.117,0.165,-0.079,-0.282,-0.14,-0.031,0.001
0.006,-0.089,-0.095,0.042,0.051,-0.092,0.165,-0.07,-0.244,-0.122,-0.029,0.01
0.028,-0.018,-0.047,-0.005,0.037,-0.032,0.213,-0.034,-0.193,-0.104,-0.032,0.018
0.009,0.022,0.013,-0.016,-0.003,0.017,0.246,-0.011,-0.158,-0.091,-0.029,0.028
-0.002,0.006,0.007,-0.002,-0.004,0.006,0.203,-0.052,-0.161,-0.098,-0.031,0.026
0.019,-0.007,-0.026,-0.006,0.023,-0.016,0.142,-0.11,-0.18,-0.098,-0.03,0.015
0.044,-0.008,-0.052,-0.017,0.048,-0.03,0.119,-0.112,-0.196,-0.1,-0.029,0.008
0.033,-0.08,-0.113,0.024,0.073,-0.097,0.108,-0.129,-0.235,-0.128,-0.058,-0.004
-0.002,-0.115,-0.113,0.059,0.056,-0.114,0.095,-0.141,-0.235,-0.131,-0.078,-0.01
-0.023,-0.138,-0.115,0.081,0.046,-0.126,0.091,-0.13,-0.271,-0.158,-0.106,-0.036
-0.03,-0.162,-0.133,0.096,0.052,-0.147,0.073,-0.163,-0.265,-0.159,-0.115,-0.039
-0.027,-0.177,-0.149,0.103,0.061,-0.163,0.08,-0.131,-0.291,-0.174,-0.13,-0.043
-0.017,-0.164,-0.146,0.091,0.065,-0.155,0.06,-0.156,-0.246,-0.144,-0.12,-0.037
-0.02,-0.163,-0.143,0.092,0.062,-0.152,0.068,-0.125,-0.276,-0.156,-0.128,-0.042
-0.014,-0.186,-0.171,0.1,0.079,-0.178,0.07,-0.117,-0.235,-0.136,-0.13,-0.046
-0.019,-0.169,-0.15,0.094,0.066,-0.159,0.192,0.108,-0.053,-0.103,-0.127,-0.056
0.12,0.116,-0.004,-0.118,0.062,0.056,-0.021,-0.005,0.684,0.364,0.168,0.134
0.101,0.963,0.862,-0.532,-0.381,0.912,-1.073,-1.806,1.511,1.199,0.807,0.616
-0.319,0.63,0.949,-0.156,-0.634,0.79,-1.562,-2.832,-0.627,0.087,0.32,0.426
-0.437,-0.571,-0.134,0.504,-0.151,-0.353,-1.305,-2.101,-2.311,-1.219,-0.541,-0.141
-0.261,-0.599,-0.339,0.431,0.039,-0.469,-0.959,-1.291,-1.266,-0.819,-0.491,-0.224
-0.126,-0.304,-0.179,0.215,0.027,-0.241,-0.376,-0.457,-0.673,-0.463,-0.331,-0.152
-0.03,-0.158,-0.128,0.094,0.05,-0.143,-0.001,-0.03,-0.293,-0.222,-0.179,-0.078
-0.024,-0.09,-0.066,0.057,0.021,-0.078,0.111,0.044,-0.178,-0.15,-0.137,-0.063
-0.033,-0.115,-0.082,0.075,0.024,-0.099,0.143,0.081,-0.189,-0.154,-0.152,-0.06
-0.039,-0.085,-0.046,0.062,0.004,-0.065,0.147,0.075,-0.127,-0.117,-0.128,-0.049
-0.035,-0.086,-0.052,0.061,0.009,-0.069,0.165,0.099,-0.157,-0.137,-0.139,-0.052
-0.032,-0.066,-0.035,0.049,0.002,-0.05,0.171,0.102,-0.09,-0.105,-0.121,-0.041
-0.028,-0.063,-0.035,0.046,0.004,-0.049,0.183,0.128,-0.082,-0.116,-0.124,-0.042
-0.024,-0.053,-0.029,0.039,0.003,-0.041,0.199,0.161,-0.041,-0.091,-0.11,-0.032
-0.013,-0.038,-0.024,0.026,0.006,-0.031,0.223,0.206,-0.036,-0.084,-0.105,-0.029
0.003,-0.018,-0.021,0.008,0.012,-0.019,0.25,0.264,-0.007,-0.063,-0.096,-0.02
0.038,0.015,-0.023,-0.026,0.031,-0.004,0.287,0.346,0.046,-0.029,-0.087,-0.016
0.069,0.034,-0.034,-0.051,0.051,0.0,0.344,0.464,0.126,0.015,-0.057,-0.002
0.075,0.05,-0.025,-0.063,0.05,0.013,0.416,0.595,0.217,0.085,-0.014,0.028
0.118,0.103,-0.015,-0.11,0.066,0.044,0.466,0.682,0.28,0.153,0.024,0.059
0.157,0.151,-0.005,-0.154,0.08,0.073,0.49,0.713,0.311,0.198,0.075,0.088
0.152,0.159,0.007,-0.156,0.072,0.083,0.491,0.701,0.298,0.196,0.092,0.087
0.145,0.174,0.028,-0.16,0.058,0.101,0.465,0.629,0.265,0.189,0.078,0.078
0.134,0.17,0.036,-0.153,0.049,0.103,0.422,0.514,0.207,0.165,0.067,0.073
0.095,0.12,0.025,-0.108,0.035,0.072,0.364,0.372,0.125,0.109,0.044,0.066
0.07,0.086,0.016,-0.078,0.027,0.05,0.279,0.216,0.035,0.044,-0.005,0.041
0.036,0.04,0.004,-0.038,0.016,0.022,0.19,0.091,-0.058,-0.024,-0.055,0.004
-0.007,-0.014,-0.007,0.011,0.0,-0.01,0.129,0.005,-0.13,-0.076,-0.087,-0.021
-0.003,-0.022,-0.019,0.013,0.008,-0.02,0.084,-0.069,-0.182,-0.117,-0.116,-0.037
-0.007,-0.037,-0.03,0.022,0.012,-0.033,0.062,-0.101,-0.225,-0.142,-0.13,-0.042
-0.023,-0.056,-0.033,0.04,0.005,-0.044,0.059,-0.095,-0.237,-0.146,-0.131,-0.049
-0.025,-0.048,-0.023,0.037,-0.001,-0.035,0.062,-0.089,-0.228,-0.147,-0.136,-0.055
-0.023,-0.044,-0.022,0.034,0.0,-0.033,0.065,-0.084,-0.219,-0.141,-0.132,-0.048
-0.023,-0.033,-0.01,0.028,-0.006,-0.021,0.067,-0.079,-0.214,-0.142,-0.124,-0.039
-0.019,-0.037,-0.018,0.028,0.0,-0.027,0.071,-0.063,-0.191,-0.126,-0.116,-0.03
-0.001,-0.078,-0.077,0.04,0.038,-0.077,0.068,-0.057,-0.153,-0.094,-0.109,-0.022
0.002,-0.088,-0.09,0.043,0.046,-0.089,0.062,-0.061,-0.149,-0.089,-0.103,-0.02
-0.005,-0.083,-0.079,0.044,0.037,-0.081,0.057,-0.06,-0.152,-0.091,-0.096,-0.02
-0.005,-0.087,-0.081,0.046,0.038,-0.084,0.054,-0.059,-0.154,-0.09,-0.09,-0.02
-0.011,-0.084,-0.073,0.048,0.031,-0.079,0.048,-0.061,-0.156,-0.09,-0.082,-0.02
-0.013,-0.085,-0.072,0.049,0.03,-0.078,0.046,-0.075,-0.157,-0.089,-0.08,-0.02
0.0,-0.063,-0.064,0.032,0.033,-0.063,0.038,-0.072,-0.175,-0.087,-0.077,-0.014
0.027,-0.014,-0.042,-0.006,0.035,-0.028,0.05,-0.056,-0.171,-0.083,-0.074,-0.008
0.043,0.036,-0.006,-0.04,0.024,0.015,0.107,-0.029,-0.171,-0.083,-0.081,-0.005
0.026,0.069,0.044,-0.048,-0.009,0.056,0.132,0.01,-0.146,-0.076,-0.078,0.003
0.018,0.062,0.044,-0.04,-0.013,0.053,0.071,-0.048,-0.161,-0.077,-0.082,0.007
0.044,0.06,0.016,-0.052,0.014,0.037,0.005,-0.125,-0.198,-0.074,-0.079,0.008
0.048,0.019,-0.029,-0.034,0.039,-0.005,-0.012,-0.111,-0.198,-0.091,-0.08,-0.007
0.047,-0.068,-0.114,0.011,0.081,-0.091,-0.03,-0.146,-0.243,-0.112,-0.09,-0.016
0.038,-0.085,-0.124,0.024,0.081,-0.104,-0.033,-0.169,-0.254,-0.129,-0.101,-0.024
0.018,-0.111,-0.129,0.047,0.074,-0.12,-0.022,-0.144,-0.284,-0.168,-0.138,-0.055
-0.005,-0.125,-0.12,0.066,0.058,-0.122,-0.031,-0.168,-0.283,-0.148,-0.145,-0.057
-0.029,-0.159,-0.13,0.095,0.051,-0.144,-0.013,-0.13,-0.313,-0.175,-0.158,-0.065
-0.027,-0.157,-0.129,0.092,0.051,-0.143,-0.029,-0.165,-0.261,-0.15,-0.139,-0.055
-0.039,-0.162,-0.123,0.101,0.042,-0.142,-0.029,-0.129,-0.297,-0.179,-0.163,-0.065
-0.001,-0.146,-0.144,0.074,0.072,-0.145,-0.021,-0.138,-0.253,-0.151,-0.127,-0.059
0.022,-0.127,-0.148,0.052,0.085,-0.137,0.112,0.126,-0.091,-0.102,-0.116,-0.066
0.167,0.18,0.013,-0.174,0.077,0.097,-0.135,-0.043,0.765,0.463,0.214,0.16
0.113,1.002,0.889,-0.558,-0.389,0.946,-1.177,-1.958,1.558,1.302,0.883,0.666
-0.344,0.548,0.892,-0.102,-0.618,0.72,-1.599,-2.839,-0.781,0.034,0.303,0.403
-0.417,-0.561,-0.144,0.489,-0.137,-0.352,-1.306,-1.988,-2.267,-1.199,-0.559,-0.176
-0.235,-0.555,-0.32,0.395,0.043,-0.437,-0.96,-1.191,-1.141,-0.737,-0.477,-0.231
-0.109,-0.301,-0.192,0.206,0.042,-0.247,-0.406,-0.398,-0.652,-0.429,-0.312,-0.16
-0.015,-0.145,-0.129,0.08,0.057,-0.137,-0.065,-0.042,-0.284,-0.221,-0.188,-0.088
-0.017,-0.091,-0.074,0.055,0.029,-0.082,0.013,0.018,-0.223,-0.179,-0.162,-0.07
0.006,-0.076,-0.083,0.035,0.045,-0.079,0.043,0.058,-0.232,-0.166,-0.162,-0.066
0.024,-0.034,-0.058,0.005,0.041,-0.046,0.059,0.06,-0.166,-0.132,-0.145,-0.059
0.036,-0.034,-0.07,0.0,0.053,-0.052,0.075,0.09,-0.191,-0.148,-0.149,-0.062
0.028,-0.011,-0.038,-0.008,0.033,-0.024,0.081,0.085,-0.14,-0.114,-0.133,-0.053
0.02,-0.008,-0.027,-0.006,0.024,-0.017,0.093,0.111,-0.161,-0.123,-0.136,-0.056
0.026,0.006,-0.019,-0.016,0.022,-0.006,0.114,0.135,-0.129,-0.1,-0.12,-0.049
0.027,0.015,-0.012,-0.021,0.019,0.002,0.135,0.177,-0.116,-0.096,-0.116,-0.042
0.038,0.03,-0.008,-0.033,0.023,0.01,0.16,0.24,-0.065,-0.072,-0.105,-0.036
0.038,0.041,0.003,-0.039,0.017,0.022,0.189,0.33,-0.006,-0.045,-0.094,-0.028
0.07,0.075,0.005,-0.073,0.032,0.04,0.236,0.445,0.067,-0.005,-0.072,-0.024
0.106,0.124,0.018,-0.115,0.044,0.071,0.288,0.55,0.155,0.054,-0.037,-0.012
0.129,0.167,0.038,-0.148,0.045,0.102,0.324,0.626,0.227,0.116,0.0,0.023
0.161,0.207,0.046,-0.184,0.057,0.126,0.34,0.639,0.256,0.16,0.039,0.048
0.162,0.232,0.07,-0.197,0.046,0.151,0.33,0.624,0.245,0.163,0.042,0.057
0.15,0.235,0.086,-0.193,0.032,0.16,0.318,0.567,0.218,0.164,0.03,0.05
0.118,0.22,0.102,-0.169,0.008,0.161,0.287,0.46,0.163,0.134,0.025,0.035
0.087,0.203,0.116,-0.145,-0.015,0.159,0.232,0.332,0.091,0.077,0.002,0.019
0.062,0.166,0.104,-0.115,-0.021,0.135,0.169,0.185,0.005,0.014,-0.042,-0.006
0.018,0.114,0.096,-0.066,-0.039,0.105,0.104,0.068,-0.08,-0.057,-0.094,-0.038
-0.015,0.067,0.082,-0.026,-0.049,0.074,0.046,-0.014,-0.15,-0.106,-0.127,-0.067
-0.03,0.037,0.067,-0.004,-0.049,0.052,0.005,-0.068,-0.201,-0.143,-0.147,-0.085
-0.036,0.025,0.061,0.005,-0.049,0.042,-0.011,-0.103,-0.223,-0.166,-0.163,-0.095
-0.033,0.025,0.058,0.004,-0.046,0.041,-0.015,-0.109,-0.231,-0.178,-0.175,-0.095
-0.03,0.025,0.055,0.002,-0.043,0.04,-0.02,-0.097,-0.236,-0.179,-0.175,-0.095
-0.028,0.025,0.053,0.001,-0.041,0.039,-0.023,-0.089,-0.224,-0.168,-0.167,-0.095
-0.024,0.024,0.048,0.0,-0.037,0.036,-0.029,-0.076,-0.209,-0.16,-0.161,-0.095
-0.026,0.028,0.054,-0.001,-0.04,0.04,-0.032,-0.075,-0.183,-0.152,-0.154,-0.095
-0.018,0.038,0.057,-0.01,-0.038,0.047,-0.035,-0.076,-0.169,-0.148,-0.147,-0.09
-0.009,0.051,0.06,-0.021,-0.035,0.055,-0.035,-0.074,-0.171,-0.145,-0.147,-0.09
-0.015,0.06,0.075,-0.023,-0.045,0.067,-0.035,-0.077,-0.168,-0.142,-0.15,-0.089
-0.015,0.06,0.075,-0.023,-0.045,0.067,-0.036,-0.073,-0.166,-0.138,-0.15,-0.085
-0.015,0.058,0.074,-0.022,-0.045,0.065,-0.037,-0.081,-0.165,-0.135,-0.154,-0.086
-0.014,0.055,0.069,-0.02,-0.042,0.061,-0.05,-0.087,-0.171,-0.13,-0.155,-0.083
-0.017,0.055,0.072,-0.019,-0.045,0.063,-0.047,-0.082,-0.173,-0.125,-0.155,-0.076
-0.008,0.055,0.064,-0.024,-0.036,0.059,-0.037,-0.078,-0.167,-0.122,-0.143,-0.069
0.002,0.081,0.079,-0.042,-0.039,0.08,-0.01,-0.05,-0.15,-0.113,-0.128,-0.062
0.003,0.136,0.133,-0.07,-0.065,0.134,0.029,-0.003,-0.122,-0.094,-0.132,-0.057
0.014,0.158,0.144,-0.087,-0.065,0.151,0.018,-0.004,-0.099,-0.085,-0.128,-0.048
0.01,0.145,0.135,-0.078,-0.062,0.14,-0.038,-0.077,-0.132,-0.096,-0.133,-0.048
0.015,0.135,0.12,-0.075,-0.053,0.127,-0.092,-0.102,-0.142,-0.081,-0.126,-0.042
0.012,0.083,0.071,-0.048,-0.029,0.077,-0.099,-0.107,-0.173,-0.113,-0.135,-0.052
-0.002,0.031,0.033,-0.014,-0.018,0.032,-0.107,-0.157,-0.189,-0.143,-0.154,-0.078
-0.029,-0.007,0.023,0.018,-0.026,0.008,-0.104,-0.148,-0.216,-0.166,-0.175,-0.1
-0.053,-0.047,0.006,0.05,-0.03,-0.02,-0.105,-0.148,-0.251,-0.193,-0.197,-0.115
-0.062,-0.043,0.019,0.052,-0.041,-0.012,-0.111,-0.157,-0.232,-0.184,-0.197,-0.113
-0.056,-0.066,-0.01,0.061,-0.022,-0.038,-0.11,-0.138,-0.26,-0.201,-0.208,-0.122
-0.048,-0.036,0.011,0.042,-0.029,-0.012,-0.117,-0.167,-0.208,-0.17,-0.194,-0.114
-0.042,-0.062,-0.019,0.052,-0.011,-0.04,-0.1,-0.122,-0.275,-0.207,-0.221,-0.131
-0.017,-0.065,-0.049,0.041,0.016,-0.057,-0.081,-0.084,-0.17,-0.16,-0.192,-0.133
0.029,-0.05,-0.079,0.011,0.054,-0.064,0.051,0.236,0.071,-0.078,-0.172,-0.123
0.191,0.502,0.311,-0.347,-0.06,0.406,-0.429,-0.388,1.272,0.795,0.395,0.252
-0.016,1.111,1.128,-0.548,-0.572,1.119,-1.315,-2.196,1.225,1.119,0.797,0.586
-0.413,0.158,0.571,0.127,-0.492,0.364,-1.413,-2.43,-1.571,-0.592,-0.133,0.091
-0.358,-0.632,-0.274,0.495,-0.042,-0.452,-1.173,-1.603,-1.965,-1.175,-0.654,-0.295
-0.203,-0.419,-0.216,0.311,0.007,-0.317,-0.845,-0.944,-0.884,-0.644,-0.472,-0.265
-0.074,-0.251,-0.177,0.163,0.052,-0.214,-0.376,-0.282,-0.555,-0.423,-0.345,-0.214
-0.019,-0.097,-0.077,0.058,0.029,-0.087,-0.113,-0.016,-0.163,-0.19,-0.208,-0.134
-0.018,-0.075,-0.056,0.047,0.019,-0.065,-0.043,0.051,-0.196,-0.197,-0.203,-0.129
0.001,-0.054,-0.055,0.027,0.029,-0.054,-0.022,0.064,-0.119,-0.152,-0.175,-0.115
-0.007,-0.047,-0.04,0.027,0.016,-0.043,0.0,0.072,-0.128,-0.158,-0.18,-0.111
0.0,-0.051,-0.051,0.026,0.026,-0.051,0.008,0.079,-0.12,-0.152,-0.174,-0.105
-0.003,-0.036,-0.033,0.019,0.015,-0.034,0.027,0.094,-0.092,-0.137,-0.166,-0.096
-0.001,-0.042,-0.041,0.022,0.02,-0.041,0.037,0.129,-0.092,-0.136,-0.168,-0.093
0.004,-0.025,-0.029,0.011,0.017,-0.027,0.06,0.159,-0.031,-0.099,-0.155,-0.082
0.025,-0.006,-0.032,-0.01,0.028,-0.019,0.082,0.21,-0.018,-0.095,-0.149,-0.079
0.025,-0.004,-0.029,-0.011,0.027,-0.016,0.093,0.27,0.037,-0.057,-0.127,-0.069
0.048,0.024,-0.023,-0.036,0.036,0.0,0.127,0.355,0.094,-0.022,-0.105,-0.066
0.098,0.071,-0.027,-0.084,0.062,0.021,0.171,0.455,0.188,0.032,-0.066,-0.047
0.105,0.105,0.001,-0.105,0.052,0.053,0.204,0.542,0.276,0.097,-0.017,-0.02
0.124,0.152,0.028,-0.138,0.048,0.09,0.227,0.595,0.337,0.157,0.02,0.01
0.145,0.16,0.015,-0.153,0.065,0.087,0.25,0.614,0.356,0.2,0.051,0.039
0.146,0.192,0.046,-0.169,0.05,0.119,0.25,0.591,0.337,0.196,0.053,0.037
0.132,0.215,0.082,-0.173,0.025,0.148,0.237,0.532,0.307,0.182,0.043,0.028
0.107,0.182,0.075,-0.145,0.016,0.128,0.218,0.442,0.253,0.142,0.027,0.025
0.065,0.141,0.076,-0.103,-0.006,0.108,0.18,0.328,0.157,0.076,-0.019,0.004
0.009,0.083,0.074,-0.047,-0.032,0.078,0.129,0.213,0.067,0.021,-0.059,-0.029
-0.022,0.036,0.058,-0.007,-0.04,0.047,0.076,0.103,-0.018,-0.057,-0.11,-0.068
-0.044,0.001,0.045,0.022,-0.044,0.023,0.031,0.035,-0.089,-0.106,-0.146,-0.091
-0.066,-0.029,0.037,0.047,-0.051,0.004,-0.011,-0.006,-0.122,-0.129,-0.16,-0.102
-0.071,-0.041,0.029,0.056,-0.05,-0.006,-0.031,-0.033,-0.16,-0.151,-0.181,-0.115
-0.055,-0.034,0.02,0.044,-0.037,-0.007,-0.03,-0.027,-0.166,-0.144,-0.179,-0.114
-0.041,-0.026,0.016,0.033,-0.028,-0.005,-0.03,-0.024,-0.149,-0.135,-0.173,-0.109
-0.033,-0.018,0.014,0.025,-0.023,-0.002,-0.031,-0.019,-0.123,-0.129,-0.17,-0.106
-0.026,-0.01,0.016,0.018,-0.021,0.002,-0.034,-0.014,-0.092,-0.12,-0.165,-0.102
-0.025,-0.01,0.014,0.017,-0.02,0.001,-0.036,-0.016,-0.09,-0.116,-0.161,-0.099
-0.025,-0.009,0.015,0.016,-0.02,0.003,-0.034,-0.014,-0.09,-0.113,-0.156,-0.094
-0.036,-0.011,0.026,0.023,-0.031,0.007,-0.035,-0.016,-0.09,-0.111,-0.151,-0.092
-0.031,-0.009,0.022,0.02,-0.026,0.006,-0.035,-0.015,-0.09,-0.107,-0.146,-0.089
-0.021,-0.014,0.007,0.017,-0.014,-0.003,-0.033,-0.015,-0.091,-0.106,-0.143,-0.086
-0.024,-0.027,-0.003,0.025,-0.01,-0.014,-0.046,-0.012,-0.098,-0.103,-0.138,-0.083
-0.027,-0.038,-0.011,0.033,-0.008,-0.024,-0.052,-0.006,-0.107,-0.097,-0.133,-0.08
-0.043,-0.065,-0.022,0.054,-0.01,-0.043,-0.048,-0.001,-0.118,-0.094,-0.126,-0.079
-0.026,-0.044,-0.018,0.036,-0.004,-0.031,-0.026,0.005,-0.087,-0.088,-0.113,-0.072
-0.008,0.006,0.014,0.001,-0.011,0.01,0.015,0.035,-0.056,-0.087,-0.107,-0.067
-0.009,0.048,0.056,-0.02,-0.033,0.052,0.055,0.078,-0.031,-0.075,-0.098,-0.058
0.003,0.061,0.057,-0.032,-0.027,0.059,0.014,0.03,-0.063,-0.076,-0.096,-0.053
0.015,0.057,0.042,-0.037,-0.014,0.05,-0.064,-0.037,-0.092,-0.065,-0.087,-0.046
0.019,0.038,0.019,-0.028,0.0,0.028,-0.061,-0.031,-0.088,-0.068,-0.086,-0.039
0.023,-0.05,-0.073,0.013,0.049,-0.061,-0.084,-0.062,-0.147,-0.116,-0.124,-0.061
-0.001,-0.074,-0.072,0.038,0.036,-0.073,-0.101,-0.084,-0.149,-0.122,-0.144,-0.08
-0.047,-0.103,-0.056,0.075,0.005,-0.08,-0.09,-0.064,-0.195,-0.161,-0.171,-0.103
-0.06,-0.126,-0.066,0.093,0.004,-0.096,-0.101,-0.081,-0.193,-0.158,-0.171,-0.108
-0.063,-0.137,-0.074,0.1,0.006,-0.106,-0.089,-0.058,-0.215,-0.17,-0.181,-0.114
-0.054,-0.122,-0.068,0.088,0.008,-0.095,-0.102,-0.092,-0.176,-0.146,-0.171,-0.106
-0.07,-0.119,-0.05,0.095,-0.01,-0.084,-0.077,-0.087,-0.201,-0.16,-0.187,-0.114
-0.049,-0.164,-0.115,0.107,0.033,-0.139,-0.061,-0.057,-0.175,-0.141,-0.174,-0.111
-0.025,-0.162,-0.138,0.094,0.057,-0.15,0.071,0.163,-0.015,-0.096,-0.165,-0.117
0.104,0.091,-0.014,-0.097,0.059,0.038,-0.084,0.149,0.704,0.351,0.096,0.047
0.114,0.868,0.755,-0.491,-0.321,0.811,-0.918,-1.292,1.624,1.223,0.757,0.505
-0.287,0.535,0.821,-0.124,-0.554,0.678,-1.333,-2.315,-0.461,0.134,0.287,0.33
-0.401,-0.572,-0.171,0.487,-0.115,-0.371,-1.151,-1.759,-2.189,-1.193,-0.571,-0.198
-0.257,-0.628,-0.371,0.443,0.057,-0.499,-0.923,-1.097,-1.174,-0.792,-0.513,-0.27
-0.155,-0.401,-0.246,0.279,0.045,-0.323,-0.537,-0.497,-0.677,-0.483,-0.372,-0.224
-0.033,-0.217,-0.184,0.125,0.076,-0.201,-0.17,-0.041,-0.296,-0.238,-0.222,-0.144
-0.027,-0.123,-0.096,0.075,0.035,-0.109,-0.037,0.075,-0.155,-0.147,-0.173,-0.103
-0.029,-0.125,-0.097,0.077,0.034,-0.111,-0.011,0.096,-0.176,-0.147,-0.173,-0.101
-0.025,-0.092,-0.067,0.059,0.021,-0.079,0.02,0.124,-0.094,-0.089,-0.142,-0.092
-0.024,-0.103,-0.079,0.064,0.028,-0.091,0.037,0.136,-0.124,-0.105,-0.148,-0.095
-0.016,-0.08,-0.064,0.048,0.025,-0.072,0.05,0.145,-0.057,-0.065,-0.126,-0.085
-0.017,-0.083,-0.065,0.05,0.024,-0.074,0.067,0.165,-0.06,-0.07,-0.131,-0.086
-0.015,-0.075,-0.059,0.045,0.022,-0.067,0.088,0.18,-0.012,-0.044,-0.119,-0.077
0.0,-0.07,-0.07,0.035,0.035,-0.07,0.097,0.229,0.009,-0.036,-0.11,-0.068
0.014,-0.069,-0.083,0.028,0.049,-0.076,0.113,0.283,0.056,-0.008,-0.086,-0.058
0.018,-0.053,-0.071,0.017,0.045,-0.062,0.152,0.364,0.127,0.03,-0.06,-0.044
0.053,-0.011,-0.064,-0.02,0.058,-0.037,0.191,0.461,0.204,0.077,-0.03,-0.022
0.099,0.047,-0.052,-0.073,0.075,-0.002,0.224,0.546,0.303,0.141,0.009,-0.004
0.127,0.084,-0.043,-0.105,0.084,0.021,0.259,0.62,0.395,0.207,0.053,0.021
0.156,0.124,-0.032,-0.14,0.094,0.046,0.288,0.628,0.418,0.255,0.085,0.055
0.171,0.159,-0.012,-0.164,0.091,0.073,0.298,0.625,0.402,0.251,0.092,0.062
0.152,0.153,0.001,-0.153,0.076,0.077,0.291,0.607,0.363,0.243,0.092,0.051
0.133,0.141,0.008,-0.137,0.062,0.075,0.28,0.528,0.294,0.223,0.074,0.044
0.091,0.118,0.027,-0.105,0.031,0.072,0.26,0.439,0.22,0.165,0.03,0.027
0.038,0.065,0.027,-0.052,0.005,0.046,0.214,0.319,0.115,0.081,-0.015,-0.008
-0.008,0.005,0.013,0.001,-0.01,0.009,0.15,0.207,0.03,0.013,-0.054,-0.041
-0.037,-0.032,0.005,0.035,-0.021,-0.014,0.091,0.131,-0.047,-0.033,-0.101,-0.07
-0.034,-0.05,-0.016,0.042,-0.009,-0.033,0.063,0.072,-0.107,-0.08,-0.124,-0.087
-0.04,-0.076,-0.037,0.058,-0.001,-0.056,0.05,0.058,-0.135,-0.1,-0.136,-0.097
-0.053,-0.095,-0.043,0.074,-0.005,-0.069,0.042,0.062,-0.15,-0.094,-0.148,-0.104
-0.051,-0.094,-0.043,0.073,-0.004,-0.068,0.046,0.064,-0.14,-0.088,-0.148,-0.103
-0.058,-0.096,-0.038,0.077,-0.009,-0.067,0.045,0.067,-0.135,-0.08,-0.142,-0.098
-0.059,-0.094,-0.035,0.077,-0.012,-0.064,0.045,0.071,-0.117,-0.074,-0.133,-0.09
-0.065,-0.097,-0.032,0.081,-0.016,-0.064,0.045,0.067,-0.095,-0.068,-0.128,-0.085
-0.061,-0.087,-0.027,0.074,-0.016,-0.057,0.045,0.061,-0.094,-0.065,-0.12,-0.077
-0.026,-0.052,-0.025,0.039,0.0,-0.038,0.036,0.056,-0.096,-0.065,-0.112,-0.071
-0.014,-0.043,-0.029,0.028,0.008,-0.035,0.023,0.051,-0.094,-0.062,-0.104,-0.086
-0.015,-0.045,-0.031,0.03,0.008,-0.038,0.013,0.045,-0.097,-0.06,-0.1,-0.09
-0.019,-0.049,-0.029,0.034,0.005,-0.039,0.007,0.039,-0.094,-0.059,-0.101,-0.081
-0.031,-0.062,-0.031,0.047,0.0,-0.046,0.004,0.047,-0.094,-0.069,-0.098,-0.08
-0.04,-0.076,-0.036,0.058,-0.002,-0.056,-0.001,0.054,-0.115,-0.07,-0.094,-0.073
-0.026,-0.08,-0.053,0.054,0.014,-0.066,-0.005,0.044,-0.108,-0.061,-0.096,-0.071
-0.018,-0.073,-0.054,0.046,0.018,-0.063,0.013,0.036,-0.105,-0.052,-0.09,-0.063
-0.023,-0.033,-0.01,0.028,-0.006,-0.021,0.05,0.065,-0.108,-0.043,-0.079,-0.058
-0.009,0.033,0.042,-0.012,-0.026,0.037,0.086,0.12,-0.071,-0.041,-0.071,-0.05
-0.009,0.053,0.062,-0.022,-0.036,0.057,0.067,0.102,-0.059,-0.037,-0.057,-0.044
-0.001,0.032,0.034,-0.016,-0.018,0.033,-0.014,0.043,-0.084,-0.039,-0.058,-0.037
0.02,0.03,0.011,-0.025,0.004,0.02,-0.045,0.03,-0.071,-0.029,-0.049,-0.016
0.006,-0.032,-0.038,0.013,0.022,-0.035,-0.031,-0.009,-0.128,-0.058,-0.076,-0.047
-0.008,-0.097,-0.089,0.053,0.041,-0.093,-0.028,-0.064,-0.159,-0.079,-0.106,-0.073
-0.029,-0.106,-0.078,0.068,0.025,-0.092,-0.032,-0.05,-0.158,-0.1,-0.122,-0.088
-0.054,-0.149,-0.094,0.102,0.021,-0.121,-0.058,-0.05,-0.187,-0.13,-0.141,-0.107
-0.064,-0.137,-0.073,0.101,0.005,-0.105,-0.063,-0.052,-0.161,-0.117,-0.138,-0.103
-0.049,-0.151,-0.102,0.1,0.026,-0.126,-0.063,-0.036,-0.189,-0.137,-0.151,-0.114
-0.037,-0.126,-0.089,0.082,0.026,-0.107,-0.069,-0.056,-0.132,-0.108,-0.137,-0.107
-0.053,-0.143,-0.09,0.098,0.019,-0.116,-0.061,-0.025,-0.19,-0.146,-0.164,-0.122
-0.049,-0.168,-0.119,0.109,0.035,-0.143,-0.017,0.016,-0.103,-0.099,-0.129,-0.108
-0.01,-0.12,-0.11,0.065,0.05,-0.115,0.108,0.316,0.134,-0.009,-0.103,-0.098
0.153,0.4,0.247,-0.277,-0.047,0.323,-0.391,-0.288,1.23,0.785,0.41,0.236
-0.007,1.028,1.035,-0.511,-0.521,1.031,-1.293,-2.012,1.331,1.178,0.831,0.585
-0.381,0.164,0.546,0.108,-0.464,0.355,-1.428,-2.325,-1.344,-0.446,-0.038,0.125
-0.361,-0.695,-0.334,0.528,-0.013,-0.514,-1.178,-1.551,-1.95,-1.121,-0.591,-0.265
-0.22,-0.507,-0.287,0.364,0.034,-0.397,-0.827,-0.864,-0.85,-0.579,-0.413,-0.228
-0.095,-0.315,-0.22,0.205,0.062,-0.267,-0.331,-0.191,-0.499,-0.348,-0.282,-0.179
-0.04,-0.147,-0.108,0.094,0.034,-0.127,-0.061,0.094,-0.131,-0.115,-0.147,-0.106
-0.032,-0.121,-0.088,0.077,0.029,-0.104,0.022,0.154,-0.145,-0.118,-0.135,-0.108
-0.011,-0.106,-0.096,0.059,0.043,-0.101,0.055,0.173,-0.071,-0.078,-0.111,-0.091
-0.021,-0.092,-0.072,0.057,0.026,-0.082,0.087,0.187,-0.041,-0.061,-0.112,-0.089
-0.014,-0.097,-0.083,0.056,0.034,-0.09,0.106,0.211,-0.04,-0.06,-0.108,-0.089
-0.017,-0.078,-0.061,0.048,0.022,-0.069,0.11,0.226,-0.011,-0.04,-0.096,-0.081
-0.017,-0.082,-0.065,0.05,0.024,-0.074,0.118,0.246,-0.031,-0.048,-0.099,-0.083
-0.017,-0.069,-0.052,0.043,0.018,-0.06,0.127,0.284,0.015,-0.027,-0.084,-0.077
-0.02,-0.068,-0.047,0.044,0.014,-0.057,0.154,0.339,0.047,-0.022,-0.083,-0.075
-0.015,-0.059,-0.044,0.038,0.015,-0.051,0.19,0.404,0.096,0.022,-0.066,-0.061
0.014,-0.043,-0.057,0.015,0.036,-0.05,0.228,0.5,0.154,0.056,-0.032,-0.05
0.037,-0.012,-0.049,-0.012,0.043,-0.03,0.281,0.608,0.25,0.112,0.005,-0.019
0.072,0.036,-0.036,-0.053,0.054,0.0,0.33,0.71,0.344,0.183,0.044,0.007
0.111,0.083,-0.028,-0.097,0.069,0.027,0.374,0.769,0.419,0.238,0.086,0.028
0.11,0.099,-0.01,-0.104,0.06,0.045,0.393,0.775,0.436,0.268,0.112,0.049
0.121,0.121,0.0,-0.121,0.06,0.06,0.377,0.747,0.407,0.259,0.11,0.046
0.117,0.141,0.024,-0.13,0.046,0.082,0.368,0.688,0.363,0.248,0.101,0.039
0.091,0.133,0.042,-0.112,0.024,0.087,0.344,0.592,0.304,0.222,0.098,0.033
0.067,0.1,0.033,-0.084,0.017,0.067,0.294,0.473,0.219,0.16,0.065,0.026
0.027,0.049,0.022,-0.038,0.002,0.035,0.238,0.35,0.132,0.102,0.02,0.006
0.012,0.026,0.014,-0.019,-0.001,0.02,0.167,0.24,0.072,0.043,-0.021,-0.026
0.0,-0.019,-0.02,0.01,0.01,-0.019,0.115,0.171,0.023,-0.004,-0.054,-0.043
-0.029,-0.085,-0.055,0.057,0.014,-0.07,0.087,0.128,-0.019,-0.034,-0.065,-0.052
-0.044,-0.106,-0.062,0.075,0.01,-0.084,0.057,0.104,-0.055,-0.056,-0.078,-0.061
-0.05,-0.114,-0.064,0.083,0.008,-0.089,0.045,0.106,-0.075,-0.062,-0.081,-0.068
-0.052,-0.113,-0.06,0.083,0.004,-0.086,0.045,0.109,-0.071,-0.058,-0.079,-0.068
-0.05,-0.105,-0.055,0.078,0.003,-0.08,0.045,0.116,-0.06,-0.05,-0.078,-0.063
-0.048,-0.1,-0.052,0.074,0.002,-0.076,0.045,0.135,-0.044,-0.044,-0.074,-0.06
-0.05,-0.095,-0.046,0.073,-0.002,-0.07,0.045,0.143,-0.021,-0.037,-0.075,-0.057
-0.032,-0.075,-0.043,0.054,0.006,-0.059,0.043,0.137,0.004,-0.031,-0.071,-0.052
-0.013,-0.052,-0.039,0.033,0.013,-0.045,0.038,0.131,0.011,-0.028,-0.067,-0.05
-0.015,-0.056,-0.041,0.036,0.013,-0.048,0.035,0.124,0.004,-0.024,-0.065,-0.055
-0.018,-0.058,-0.04,0.038,0.011,-0.049,0.032,0.117,-0.003,-0.021,-0.06,-0.055
-0.021,-0.061,-0.04,0.041,0.009,-0.05,0.027,0.111,-0.009,-0.016,-0.057,-0.056
-0.024,-0.065,-0.041,0.044,0.009,-0.052,0.025,0.106,-0.018,-0.016,-0.054,-0.06
-0.037,-0.068,-0.032,0.053,-0.002,-0.05,0.025,0.106,-0.038,-0.025,-0.048,-0.061
-0.028,-0.075,-0.047,0.052,0.009,-0.061,0.026,0.105,-0.048,-0.028,-0.043,-0.057
-0.012,-0.071,-0.06,0.042,0.024,-0.065,0.024,0.105,-0.053,-0.023,-0.037,-0.048
-0.017,-0.069,-0.052,0.043,0.018,-0.06,0.03,0.105,-0.049,-0.022,-0.032,-0.037
-0.01,-0.035,-0.025,0.023,0.008,-0.03,0.043,0.108,-0.027,-0.017,-0.025,-0.027
-0.004,0.031,0.035,-0.014,-0.019,0.033,0.096,0.164,-0.001,0.004,-0.023,-0.025
-0.003,0.076,0.079,-0.037,-0.041,0.077,0.121,0.178,0.017,0.019,-0.017,-0.025
-0.016,0.059,0.074,-0.022,-0.045,0.066,0.039,0.115,-0.008,0.012,-0.016,-0.025
0.011,0.045,0.033,-0.028,-0.011,0.039,-0.008,0.093,-0.017,0.012,-0.01,-0.025
0.036,0.021,-0.015,-0.029,0.025,0.003,-0.007,0.083,-0.034,0.008,-0.012,-0.025
-0.007,-0.064,-0.057,0.036,0.025,-0.06,-0.034,0.055,-0.084,-0.014,-0.054,-0.028
-0.033,-0.088,-0.055,0.06,0.011,-0.071,-0.038,0.036,-0.07,-0.042,-0.068,-0.04
-0.046,-0.136,-0.09,0.091,0.022,-0.112,-0.031,0.044,-0.111,-0.08,-0.084,-0.058
-0.055,-0.144,-0.089,0.099,0.017,-0.116,-0.041,0.019,-0.101,-0.066,-0.083,-0.054
-0.056,-0.14,-0.084,0.098,0.014,-0.111,-0.028,0.033,-0.13,-0.082,-0.088,-0.071
-0.048,-0.138,-0.09,0.093,0.021,-0.114,-0.041,0.013,-0.103,-0.059,-0.072,-0.062
-0.057,-0.121,-0.064,0.089,0.003,-0.092,-0.024,0.041,-0.12,-0.07,-0.074,-0.066
-0.029,-0.159,-0.13,0.095,0.051,-0.145,-0.016,0.053,-0.118,-0.062,-0.082,-0.07
0.011,-0.107,-0.118,0.048,0.065,-0.112,0.106,0.263,0.058,-0.029,-0.081,-0.068
0.136,0.148,0.011,-0.142,0.062,0.079,-0.065,0.217,0.739,0.399,0.182,0.095
0.15,0.954,0.804,-0.552,-0.327,0.878,-1.092,-1.526,1.776,1.333,0.89,0.601
-0.257,0.767,1.024,-0.255,-0.641,0.895,-1.632,-2.681,-0.111,0.395,0.529,0.482
-0.419,-0.463,-0.044,0.441,-0.188,-0.253,-1.397,-1.992,-2.12,-1.06,-0.434,-0.116
-0.249,-0.62,-0.372,0.435,0.062,-0.496,-1.072,-1.171,-1.196,-0.767,-0.459,-0.224
-0.12,-0.326,-0.206,0.223,0.043,-0.265,-0.484,-0.328,-0.549,-0.384,-0.276,-0.166
-0.035,-0.177,-0.141,0.106,0.053,-0.159,-0.068,0.143,-0.205,-0.172,-0.147,-0.105
-0.036,-0.093,-0.057,0.064,0.011,-0.074,0.048,0.217,-0.059,-0.078,-0.084,-0.067
-0.016,-0.094,-0.078,0.055,0.031,-0.086,0.093,0.268,-0.069,-0.076,-0.087,-0.066
-0.015,-0.066,-0.051,0.041,0.018,-0.058,0.111,0.274,0.02,-0.035,-0.057,-0.054
-0.017,-0.073,-0.056,0.045,0.02,-0.064,0.121,0.293,-0.022,-0.057,-0.065,-0.057
-0.006,-0.048,-0.041,0.027,0.018,-0.044,0.129,0.295,0.031,-0.028,-0.051,-0.046
-0.005,-0.039,-0.035,0.022,0.015,-0.037,0.151,0.32,0.011,-0.037,-0.055,-0.046
0.005,-0.028,-0.033,0.012,0.019,-0.03,0.154,0.353,0.042,-0.018,-0.047,-0.037
0.01,-0.016,-0.026,0.003,0.018,-0.021,0.187,0.407,0.06,-0.004,-0.045,-0.03
0.017,-0.01,-0.027,-0.003,0.022,-0.018,0.232,0.481,0.104,0.017,-0.039,-0.022
0.03,0.008,-0.022,-0.019,0.026,-0.006,0.259,0.567,0.166,0.048,-0.015,-0.015
0.062,0.044,-0.018,-0.053,0.04,0.013,0.316,0.685,0.234,0.096,0.018,-0.004
0.099,0.062,-0.037,-0.08,0.068,0.012,0.382,0.81,0.34,0.161,0.058,0.024
0.123,0.094,-0.029,-0.109,0.076,0.032,0.429,0.895,0.414,0.227,0.109,0.052
0.131,0.144,0.014,-0.138,0.058,0.079,0.451,0.925,0.443,0.27,0.149,0.076
0.14,0.177,0.037,-0.159,0.051,0.107,0.448,0.912,0.436,0.268,0.159,0.091
0.142,0.195,0.053,-0.169,0.045,0.123,0.438,0.845,0.398,0.264,0.15,0.089
0.124,0.171,0.047,-0.148,0.038,0.109,0.417,0.739,0.349,0.25,0.138,0.08
0.087,0.125,0.038,-0.106,0.024,0.081,0.367,0.62,0.293,0.211,0.129,0.075
0.055,0.09,0.035,-0.073,0.01,0.062,0.286,0.473,0.216,0.146,0.094,0.063
0.033,0.05,0.017,-0.042,0.008,0.033,0.211,0.347,0.134,0.08,0.045,0.031
0.005,0.006,0.001,-0.006,0.002,0.004,0.16,0.259,0.07,0.037,0.005,0.007
-0.003,-0.027,-0.024,0.015,0.01,-0.025,0.111,0.202,0.026,0.008,-0.021,-0.007
-0.018,-0.049,-0.031,0.034,0.007,-0.04,0.062,0.169,-0.016,-0.018,-0.032,-0.025
-0.033,-0.057,-0.024,0.045,-0.004,-0.04,0.039,0.136,-0.032,-0.043,-0.038,-0.034
-0.026,-0.081,-0.054,0.054,0.014,-0.067,0.034,0.131,-0.024,-0.045,-0.034,-0.036
-0.03,-0.087,-0.057,0.059,0.013,-0.072,0.05,0.146,-0.02,-0.037,-0.032,-0.04
-0.024,-0.065,-0.041,0.045,0.009,-0.053,0.063,0.154,-0.014,-0.031,-0.029,-0.038
-0.01,-0.05,-0.041,0.03,0.016,-0.045,0.055,0.168,-0.008,-0.024,-0.026,-0.032
-0.012,-0.043,-0.031,0.028,0.01,-0.037,0.054,0.182,-0.005,-0.017,-0.024,-0.027
-0.01,-0.043,-0.033,0.027,0.012,-0.037,0.052,0.187,-0.002,-0.017,-0.02,-0.024
-0.003,-0.038,-0.035,0.021,0.016,-0.036,0.045,0.181,0.0,-0.021,-0.017,-0.018
0.002,-0.036,-0.038,0.017,0.021,-0.037,0.055,0.173,0.004,-0.02,-0.013,-0.015
0.006,-0.034,-0.041,0.014,0.024,-0.037,0.063,0.166,0.005,-0.02,-0.01,-0.02
0.002,-0.042,-0.044,0.021,0.023,-0.043,0.045,0.159,0.002,-0.02,-0.005,-0.02
-0.007,-0.053,-0.045,0.03,0.019,-0.049,0.036,0.152,-0.004,-0.019,-0.005,-0.02
-0.004,-0.055,-0.052,0.03,0.025,-0.053,0.035,0.149,-0.008,-0.016,-0.005,-0.02
0.0,-0.063,-0.064,0.032,0.032,-0.064,0.031,0.151,-0.013,-0.01,-0.005,-0.021
-0.013,-0.079,-0.066,0.046,0.027,-0.072,0.029,0.146,-0.017,-0.006,-0.005,-0.018
-0.016,-0.094,-0.078,0.055,0.031,-0.085,0.027,0.146,-0.018,0.0,-0.004,-0.007
-0.01,-0.061,-0.051,0.036,0.021,-0.056,0.019,0.143,-0.029,0.003,-0.006,0.002
-0.005,-0.006,-0.001,0.005,-0.002,-0.003,0.054,0.172,0.007,0.012,0.015,0.013
0.012,0.045,0.033,-0.029,-0.011,0.038,0.135,0.224,0.054,0.039,0.041,0.022
0.017,0.065,0.048,-0.041,-0.016,0.056,0.098,0.192,0.048,0.047,0.048,0.033
0.027,0.042,0.016,-0.035,0.005,0.029,0.006,0.137,0.03,0.03,0.049,0.038
0.049,0.033,-0.016,-0.04,0.032,0.008,0.011,0.113,0.025,0.03,0.041,0.032
0.054,-0.033,-0.086,-0.01,0.07,-0.059,-0.001,0.11,-0.033,0.01,0.022,0.017
0.037,-0.102,-0.139,0.033,0.088,-0.121,-0.042,0.094,-0.038,-0.008,0.012,0.009
-0.006,-0.126,-0.121,0.066,0.058,-0.123,-0.028,0.096,-0.04,-0.034,-0.018,-0.003
-0.012,-0.153,-0.141,0.083,0.065,-0.147,-0.03,0.09,-0.075,-0.05,-0.031,-0.013
-0.022,-0.139,-0.117,0.08,0.048,-0.128,-0.026,0.08,-0.062,-0.05,-0.03,-0.021
-0.004,-0.148,-0.144,0.076,0.07,-0.146,-0.015,0.091,-0.095,-0.072,-0.044,-0.036
-0.014,-0.123,-0.109,0.069,0.048,-0.116,-0.035,0.058,-0.038,-0.042,-0.031,-0.033
-0.044,-0.13,-0.086,0.088,0.021,-0.108,-0.021,0.094,-0.104,-0.085,-0.053,-0.054
0.004,-0.141,-0.145,0.069,0.075,-0.143,0.027,0.137,0.006,-0.029,-0.009,-0.04
0.058,-0.096,-0.154,0.019,0.106,-0.125,0.142,0.483,0.28,0.085,0.028,-0.021
0.212,0.498,0.287,-0.355,-0.038,0.392,-0.468,-0.36,1.405,0.925,0.578,0.352
0.003,1.125,1.122,-0.564,-0.56,1.123,-1.498,-2.347,1.399,1.271,1.003,0.715
-0.4,0.198,0.598,0.101,-0.499,0.398,-1.589,-2.488,-1.324,-0.383,0.101,0.234
-0.358,-0.657,-0.299,0.508,-0.03,-0.477,-1.281,-1.562,-1.836,-1.036,-0.483,-0.196
-0.197,-0.445,-0.248,0.321,0.026,-0.346,-0.811,-0.723,-0.721,-0.503,-0.299,-0.171
-0.065,-0.246,-0.18,0.156,0.058,-0.213,-0.226,0.032,-0.368,-0.266,-0.162,-0.112
0.0,-0.094,-0.093,0.047,0.047,-0.094,0.005,0.251,-0.04,-0.071,-0.041,-0.046
-0.005,-0.088,-0.084,0.047,0.04,-0.086,0.076,0.302,-0.064,-0.077,-0.044,-0.038
0.002,-0.086,-0.088,0.043,0.045,-0.087,0.084,0.315,0.015,-0.032,-0.028,-0.027
-0.003,-0.068,-0.065,0.036,0.031,-0.067,0.101,0.335,0.019,-0.027,-0.024,-0.024
0.005,-0.073,-0.078,0.034,0.042,-0.075,0.127,0.346,0.03,-0.018,-0.02,-0.018
0.007,-0.056,-0.063,0.024,0.035,-0.059,0.136,0.362,0.057,0.001,-0.006,-0.011
0.013,-0.058,-0.07,0.023,0.042,-0.064,0.156,0.401,0.052,-0.002,-0.006,-0.009
0.016,-0.046,-0.062,0.015,0.039,-0.053,0.181,0.434,0.1,0.024,0.01,0.0
0.023,-0.039,-0.062,0.008,0.043,-0.051,0.2,0.487,0.109,0.024,0.011,0.005
0.022,-0.027,-0.049,0.003,0.036,-0.038,0.231,0.561,0.164,0.051,0.023,0.013
0.03,-0.01,-0.04,-0.009,0.035,-0.025,0.283,0.664,0.226,0.09,0.041,0.02
0.068,0.038,-0.03,-0.053,0.049,0.004,0.329,0.777,0.305,0.139,0.068,0.029
0.097,0.078,-0.02,-0.087,0.058,0.029,0.386,0.891,0.396,0.206,0.115,0.058
0.142,0.134,-0.008,-0.138,0.075,0.063,0.426,0.951,0.45,0.261,0.154,0.083
0.171,0.178,0.007,-0.175,0.082,0.092,0.428,0.951,0.439,0.282,0.186,0.098
0.163,0.185,0.022,-0.174,0.07,0.104,0.419,0.93,0.423,0.278,0.197,0.124
0.162,0.216,0.054,-0.189,0.053,0.135,0.391,0.837,0.395,0.266,0.191,0.121
0.137,0.208,0.071,-0.173,0.033,0.139,0.345,0.706,0.339,0.242,0.181,0.106
0.096,0.158,0.062,-0.127,0.017,0.11,0.295,0.575,0.269,0.188,0.14,0.088
0.055,0.112,0.056,-0.084,-0.001,0.084,0.228,0.43,0.197,0.128,0.092,0.057
0.022,0.07,0.049,-0.046,-0.014,0.059,0.153,0.321,0.121,0.071,0.046,0.029
-0.01,0.024,0.034,-0.007,-0.022,0.029,0.094,0.245,0.052,0.025,0.009,0.01
-0.029,-0.011,0.018,0.02,-0.023,0.003,0.058,0.198,0.01,-0.006,-0.005,0.002
-0.033,-0.028,0.005,0.03,-0.019,-0.012,0.045,0.189,-0.019,-0.023,-0.008,-0.006
-0.047,-0.047,0.0,0.047,-0.024,-0.023,0.045,0.19,-0.035,-0.033,-0.012,-0.015
-0.045,-0.052,-0.006,0.049,-0.02,-0.029,0.045,0.19,-0.031,-0.046,-0.015,-0.018
-0.038,-0.048,-0.009,0.043,-0.014,-0.029,0.045,0.189,-0.02,-0.044,-0.02,-0.015
-0.034,-0.036,-0.002,0.035,-0.015,-0.019,0.045,0.195,-0.004,-0.031,-0.018,-0.015
-0.026,-0.022,0.004,0.023,-0.014,-0.009,0.044,0.208,0.023,-0.02,-0.009,-0.013
-0.018,-0.007,0.011,0.012,-0.014,0.002,0.039,0.218,0.03,-0.014,-0.003,-0.009
-0.01,0.008,0.018,0.001,-0.014,0.013,0.036,0.211,0.035,-0.016,0.005,-0.01
-0.012,0.003,0.015,0.004,-0.013,0.009,0.033,0.201,0.043,-0.012,0.009,-0.006
-0.005,-0.003,0.002,0.004,-0.003,-0.001,0.028,0.193,0.036,-0.01,0.012,-0.005
0.002,-0.008,-0.01,0.003,0.006,-0.008,0.025,0.183,0.028,-0.01,0.016,-0.005
0.0,-0.018,-0.018,0.009,0.009,-0.018,0.021,0.178,0.02,-0.01,0.02,-0.005
0.006,-0.035,-0.041,0.015,0.024,-0.038,0.015,0.17,0.013,-0.01,0.018,-0.005
0.02,-0.036,-0.056,0.008,0.038,-0.046,0.01,0.164,0.005,-0.01,0.013,-0.004
0.03,-0.03,-0.06,0.0,0.045,-0.045,0.005,0.158,0.003,-0.012,0.01,0.001
0.025,-0.03,-0.055,0.003,0.04,-0.042,-0.002,0.151,-0.002,-0.019,0.007,0.004
0.033,-0.02,-0.053,-0.006,0.043,-0.037,-0.003,0.151,-0.002,-0.031,0.002,0.007
0.015,-0.025,-0.04,0.005,0.027,-0.032,0.008,0.148,-0.011,-0.028,0.0,0.012
0.004,0.008,0.004,-0.006,0.0,0.006,0.027,0.167,-0.004,-0.008,0.017,0.014
0.032,0.082,0.05,-0.058,-0.009,0.066,0.075,0.227,0.049,0.021,0.038,0.029
0.024,0.113,0.089,-0.069,-0.033,0.101,0.094,0.227,0.07,0.038,0.04,0.037
0.027,0.111,0.083,-0.069,-0.028,0.097,0.01,0.174,0.042,0.024,0.029,0.027
0.038,0.106,0.068,-0.072,-0.016,0.087,-0.042,0.134,0.034,0.019,0.022,0.026
0.057,0.076,0.019,-0.067,0.019,0.047,-0.037,0.125,0.014,0.009,0.015,0.019
0.073,0.018,-0.054,-0.045,0.063,-0.018,-0.06,0.122,-0.033,-0.008,0.004,0.016
0.028,-0.016,-0.044,-0.006,0.036,-0.03,-0.062,0.108,-0.033,-0.025,-0.002,0.005
0.009,-0.046,-0.055,0.018,0.033,-0.05,-0.056,0.118,-0.079,-0.075,-0.028,-0.031
0.007,-0.035,-0.043,0.014,0.025,-0.039,-0.065,0.091,-0.074,-0.066,-0.034,-0.031
-0.019,-0.065,-0.046,0.043,0.014,-0.055,-0.056,0.114,-0.103,-0.086,-0.054,-0.04
-0.019,-0.068,-0.049,0.044,0.015,-0.058,-0.073,0.08,-0.059,-0.067,-0.037,-0.035
-0.029,-0.068,-0.039,0.049,0.005,-0.053,-0.051,0.102,-0.083,-0.088,-0.059,-0.044
-0.007,-0.097,-0.09,0.053,0.042,-0.094,-0.042,0.114,-0.063,-0.08,-0.044,-0.036
0.026,-0.075,-0.101,0.025,0.064,-0.088,0.07,0.365,0.106,-0.023,-0.01,-0.031
0.18,0.226,0.047,-0.203,0.066,0.136,-0.146,0.242,0.87,0.492,0.29,0.161
0.16,1.051,0.891,-0.605,-0.366,0.971,-1.165,-1.618,1.819,1.399,0.998,0.678
-0.292,0.733,1.025,-0.221,-0.659,0.879,-1.661,-2.637,-0.275,0.304,0.522,0.492
-0.414,-0.402,0.012,0.408,-0.213,-0.195,-1.403,-1.845,-2.04,-1.059,-0.41,-0.113
-0.226,-0.488,-0.262,0.357,0.018,-0.375,-1.049,-1.015,-1.028,-0.69,-0.384,-0.2
-0.099,-0.245,-0.146,0.172,0.024,-0.195,-0.474,-0.194,-0.474,-0.36,-0.215,-0.136
-0.004,-0.107,-0.102,0.056,0.049,-0.104,-0.091,0.225,-0.119,-0.141,-0.075,-0.067
0.002,-0.039,-0.041,0.019,0.022,-0.04,-0.002,0.294,-0.021,-0.072,-0.041,-0.033
0.016,-0.034,-0.049,0.009,0.033,-0.041,0.038,0.326,-0.028,-0.074,-0.043,-0.032
0.019,-0.006,-0.024,-0.006,0.022,-0.015,0.063,0.332,0.043,-0.036,-0.021,-0.027
0.023,-0.008,-0.032,-0.007,0.028,-0.02,0.076,0.354,0.014,-0.056,-0.033,-0.029
0.027,0.011,-0.016,-0.019,0.021,-0.002,0.084,0.361,0.07,-0.023,-0.015,-0.022
0.03,0.017,-0.013,-0.023,0.022,0.002,0.094,0.392,0.046,-0.033,-0.021,-0.027
0.055,0.043,-0.012,-0.049,0.033,0.015,0.109,0.419,0.094,-0.014,-0.009,-0.017
0.068,0.053,-0.015,-0.06,0.041,0.019,0.133,0.475,0.1,-0.005,-0.004,-0.011
0.068,0.053,-0.015,-0.06,0.041,0.019,0.167,0.541,0.139,0.022,0.008,-0.001
0.073,0.058,-0.015,-0.065,0.043,0.021,0.208,0.628,0.202,0.05,0.027,0.005
0.091,0.073,-0.018,-0.081,0.054,0.027,0.263,0.744,0.274,0.098,0.058,0.017
0.112,0.104,-0.008,-0.108,0.06,0.047,0.325,0.861,0.369,0.167,0.104,0.048
0.158,0.157,-0.001,-0.157,0.079,0.077,0.363,0.941,0.438,0.225,0.144,0.078
0.203,0.214,0.011,-0.208,0.095,0.112,0.382,0.957,0.466,0.268,0.178,0.101
0.209,0.234,0.025,-0.222,0.092,0.129,0.373,0.937,0.446,0.263,0.193,0.108
0.186,0.227,0.041,-0.207,0.072,0.133,0.359,0.886,0.417,0.254,0.197,0.1
0.158,0.219,0.061,-0.189,0.048,0.14,0.326,0.781,0.371,0.247,0.191,0.089
0.122,0.201,0.079,-0.162,0.021,0.14,0.277,0.649,0.312,0.205,0.163,0.081
0.084,0.16,0.076,-0.122,0.003,0.118,0.229,0.516,0.238,0.141,0.116,0.063
0.056,0.113,0.057,-0.085,-0.001,0.085,0.149,0.384,0.154,0.076,0.069,0.032
0.026,0.069,0.043,-0.048,-0.009,0.056,0.089,0.3,0.091,0.022,0.023,0.007
0.006,0.034,0.028,-0.02,-0.012,0.031,0.051,0.254,0.063,-0.006,-0.006,-0.01
-0.002,0.013,0.015,-0.006,-0.009,0.014,0.01,0.222,0.043,-0.017,-0.012,-0.016
-0.008,0.001,0.009,0.003,-0.008,0.005,0.01,0.219,0.005,-0.023,-0.014,-0.015
-0.017,-0.013,0.004,0.014,-0.01,-0.004,0.02,0.221,-0.006,-0.032,-0.018,-0.015
-0.018,-0.017,0.001,0.017,-0.009,-0.008,0.024,0.218,0.002,-0.039,-0.02,-0.015
0.002,-0.004,-0.006,0.002,0.004,-0.005,0.03,0.235,0.018,-0.033,-0.014,-0.016
0.001,0.008,0.007,-0.004,-0.003,0.007,0.026,0.25,0.043,-0.024,-0.008,-0.013
-0.007,0.019,0.026,-0.007,-0.016,0.022,0.023,0.245,0.043,-0.015,-0.001,-0.01
0.009,0.032,0.023,-0.021,-0.007,0.028,0.021,0.241,0.053,-0.007,0.005,-0.008
0.022,0.038,0.015,-0.03,0.003,0.026,0.017,0.239,0.062,-0.001,0.015,-0.005
0.023,0.033,0.009,-0.028,0.007,0.021,0.016,0.234,0.053,0.004,0.026,-0.002
0.024,0.027,0.003,-0.026,0.01,0.015,0.012,0.231,0.048,0.01,0.024,0.0
0.03,0.024,-0.006,-0.027,0.018,0.009,0.005,0.226,0.04,0.015,0.019,0.0
0.007,0.018,0.011,-0.013,-0.002,0.014,-0.003,0.214,0.034,0.008,0.017,0.0
-0.009,0.015,0.025,-0.004,-0.017,0.02,-0.009,0.202,0.028,0.001,0.012,0.0
0.005,0.007,0.002,-0.006,0.001,0.004,-0.018,0.194,0.024,-0.006,0.01,0.0
0.009,-0.003,-0.011,-0.003,0.01,-0.007,-0.023,0.197,0.021,-0.014,0.014,-0.001
0.006,-0.012,-0.018,0.004,0.012,-0.015,-0.019,0.193,0.017,-0.021,0.017,0.001
0.009,-0.026,-0.035,0.009,0.022,-0.03,-0.016,0.192,0.015,-0.022,0.022,0.009
0.018,-0.014,-0.032,-0.002,0.025,-0.023,-0.009,0.189,0.007,-0.006,0.023,0.017
0.024,0.033,0.009,-0.028,0.007,0.021,-0.008,0.194,0.031,0.006,0.033,0.026
0.028,0.1,0.072,-0.065,-0.023,0.086,0.052,0.256,0.074,0.028,0.055,0.032
0.017,0.125,0.108,-0.071,-0.045,0.116,0.087,0.252,0.08,0.048,0.056,0.041
0.032,0.118,0.086,-0.075,-0.027,0.102,0.016,0.204,0.058,0.029,0.046,0.04
0.061,0.118,0.057,-0.09,0.002,0.087,-0.032,0.17,0.046,0.02,0.042,0.03
0.07,0.073,0.003,-0.072,0.033,0.038,-0.046,0.151,0.002,-0.003,0.034,0.02
0.089,0.027,-0.062,-0.058,0.075,-0.017,-0.062,0.145,-0.018,-0.023,0.026,0.01
0.041,-0.004,-0.044,-0.018,0.043,-0.024,-0.06,0.131,-0.009,-0.029,0.011,0.005
-0.003,-0.063,-0.06,0.033,0.029,-0.061,-0.056,0.134,-0.051,-0.062,-0.01,-0.003
0.002,-0.071,-0.073,0.035,0.038,-0.072,-0.06,0.113,-0.026,-0.051,-0.01,-0.002
-0.003,-0.096,-0.093,0.05,0.046,-0.094,-0.048,0.14,-0.057,-0.073,-0.032,-0.015
0.007,-0.089,-0.095,0.042,0.051,-0.092,-0.067,0.106,-0.005,-0.048,-0.015,-0.009
-0.012,-0.109,-0.097,0.061,0.043,-0.103,-0.057,0.144,-0.05,-0.081,-0.043,-0.024
0.012,-0.11,-0.121,0.049,0.067,-0.115,-0.039,0.161,0.014,-0.053,-0.026,-0.024
0.054,-0.065,-0.119,0.005,0.087,-0.092,0.093,0.456,0.199,0.012,0.001,-0.027
0.221,0.314,0.092,-0.268,0.064,0.203,-0.245,0.127,1.13,0.676,0.423,0.253
0.132,1.091,0.959,-0.611,-0.414,1.024,-1.267,-1.825,1.753,1.411,1.053,0.726
-0.33,0.528,0.858,-0.099,-0.594,0.693,-1.592,-2.517,-0.688,0.026,0.37,0.402
-0.369,-0.524,-0.155,0.447,-0.107,-0.34,-1.327,-1.642,-1.929,-1.059,-0.427,-0.138
-0.191,-0.458,-0.267,0.325,0.038,-0.362,-0.963,-0.852,-0.837,-0.595,-0.322,-0.177
-0.084,-0.252,-0.168,0.168,0.042,-0.209,-0.398,-0.064,-0.401,-0.318,-0.172,-0.111
0.007,-0.136,-0.143,0.065,0.075,-0.139,-0.067,0.283,-0.02,-0.092,-0.025,-0.032
0.009,-0.094,-0.103,0.043,0.056,-0.098,0.022,0.353,0.026,-0.057,-0.007,-0.013
0.017,-0.097,-0.115,0.04,0.066,-0.106,0.045,0.379,0.057,-0.033,0.002,-0.005
0.016,-0.075,-0.092,0.029,0.054,-0.083,0.075,0.384,0.099,-0.006,0.016,0.005
0.018,-0.085,-0.103,0.034,0.061,-0.094,0.095,0.413,0.079,-0.013,0.008,0.006
0.023,-0.063,-0.086,0.021,0.055,-0.074,0.099,0.42,0.125,0.016,0.024,0.019
0.051,-0.044,-0.095,-0.004,0.074,-0.069,0.102,0.451,0.104,0.004,0.019,0.018
0.074,-0.021,-0.094,-0.026,0.084,-0.058,0.121,0.475,0.149,0.025,0.031,0.021
0.075,-0.019,-0.094,-0.027,0.085,-0.057,0.146,0.521,0.162,0.027,0.036,0.02
0.086,-0.014,-0.099,-0.036,0.093,-0.057,0.173,0.587,0.213,0.051,0.051,0.019
0.097,-0.002,-0.099,-0.048,0.098,-0.051,0.221,0.682,0.268,0.088,0.07,0.037
0.119,0.018,-0.101,-0.068,0.11,-0.041,0.27,0.795,0.345,0.135,0.103,0.064
0.153,0.065,-0.088,-0.109,0.12,-0.011,0.321,0.903,0.426,0.188,0.142,0.087
0.178,0.11,-0.068,-0.144,0.123,0.021,0.355,0.972,0.486,0.249,0.186,0.118
0.181,0.146,-0.036,-0.163,0.109,0.055,0.365,0.968,0.516,0.282,0.222,0.143
0.189,0.175,-0.015,-0.182,0.102,0.08,0.364,0.955,0.492,0.275,0.235,0.146
0.172,0.172,0.0,-0.172,0.086,0.086,0.356,0.906,0.464,0.263,0.237,0.137
0.144,0.167,0.023,-0.156,0.06,0.095,0.321,0.794,0.422,0.253,0.232,0.131
0.127,0.151,0.024,-0.139,0.051,0.087,0.267,0.67,0.351,0.22,0.202,0.123
0.096,0.111,0.015,-0.104,0.04,0.063,0.211,0.539,0.279,0.152,0.155,0.095
0.055,0.065,0.01,-0.061,0.022,0.038,0.141,0.434,0.202,0.088,0.111,0.063
0.02,0.02,0.001,-0.02,0.009,0.01,0.085,0.36,0.137,0.041,0.069,0.043
0.001,-0.012,-0.013,0.005,0.007,-0.013,0.053,0.306,0.096,0.005,0.045,0.03
-0.004,-0.03,-0.026,0.017,0.011,-0.028,0.024,0.284,0.065,-0.013,0.04,0.02
-0.003,-0.029,-0.026,0.016,0.012,-0.027,0.01,0.285,0.055,-0.02,0.035,0.009
-0.001,-0.022,-0.021,0.011,0.011,-0.021,0.01,0.284,0.054,-0.031,0.029,0.008
0.001,-0.017,-0.018,0.008,0.01,-0.017,0.01,0.279,0.057,-0.033,0.023,0.013
0.0,-0.011,-0.01,0.006,0.005,-0.01,0.01,0.281,0.066,-0.022,0.021,0.016
0.003,-0.004,-0.007,0.001,0.006,-0.005,0.011,0.277,0.083,-0.012,0.03,0.019
0.001,0.002,0.0,-0.001,0.001,0.001,0.008,0.271,0.097,-0.005,0.039,0.024
0.023,0.027,0.004,-0.025,0.009,0.015,0.003,0.264,0.094,-0.005,0.04,0.025
0.026,0.038,0.013,-0.032,0.006,0.025,-0.003,0.257,0.091,-0.004,0.04,0.025
-0.01,0.033,0.042,-0.012,-0.026,0.037,-0.009,0.251,0.089,0.0,0.04,0.025
-0.018,0.028,0.046,-0.006,-0.032,0.037,-0.013,0.237,0.085,0.001,0.04,0.025
-0.026,0.019,0.045,0.003,-0.035,0.032,-0.032,0.222,0.084,-0.003,0.039,0.025
-0.009,0.034,0.043,-0.013,-0.026,0.038,-0.042,0.215,0.075,-0.007,0.035,0.025
0.01,0.025,0.015,-0.018,-0.002,0.02,-0.039,0.212,0.065,-0.012,0.036,0.022
0.011,-0.001,-0.011,-0.005,0.011,-0.006,-0.044,0.204,0.054,-0.015,0.032,0.019
-0.002,-0.014,-0.012,0.009,0.005,-0.012,-0.045,0.202,0.046,-0.023,0.03,0.021
-0.009,0.0,0.009,0.004,-0.009,0.004,-0.045,0.192,0.044,-0.032,0.029,0.018
0.019,0.047,0.028,-0.034,-0.005,0.037,-0.018,0.208,0.048,-0.021,0.036,0.024
0.025,0.092,0.067,-0.059,-0.021,0.079,0.041,0.27,0.096,-0.011,0.065,0.045
0.029,0.133,0.105,-0.081,-0.038,0.119,0.054,0.281,0.123,-0.003,0.073,0.056
0.043,0.151,0.108,-0.097,-0.033,0.13,-0.02,0.238,0.105,0.004,0.06,0.06
0.047,0.133,0.086,-0.091,-0.02,0.109,-0.063,0.21,0.09,0.015,0.062,0.054
0.062,0.086,0.025,-0.074,0.018,0.055,-0.064,0.198,0.055,0.0,0.048,0.044
0.069,0.041,-0.028,-0.055,0.048,0.007,-0.082,0.181,0.029,-0.036,0.052,0.037
0.019,-0.003,-0.022,-0.008,0.02,-0.012,-0.08,0.165,0.021,-0.051,0.023,0.024
-0.02,-0.045,-0.025,0.033,0.003,-0.035,-0.079,0.156,0.004,-0.075,0.018,0.01
-0.018,-0.063,-0.045,0.04,0.013,-0.054,-0.085,0.148,-0.008,-0.089,-0.013,-0.002
