-0.067,-0.064,0.002,0.065,-0.034,-0.031,0.07,-0.055,-0.105,-0.085,-0.055,-0.079
-0.052,-0.066,-0.014,0.06,-0.019,-0.04,0.07,-0.044,-0.094,-0.073,-0.056,-0.075
-0.029,-0.063,-0.034,0.046,0.003,-0.048,0.071,-0.041,-0.092,-0.072,-0.061,-0.075
-0.029,-0.07,-0.04,0.05,0.006,-0.055,0.069,-0.068,-0.114,-0.103,-0.073,-0.075
-0.032,-0.074,-0.042,0.054,0.005,-0.058,0.072,-0.071,-0.116,-0.106,-0.076,-0.075
0.035,-0.054,-0.089,0.01,0.062,-0.071,0.089,-0.069,-0.119,-0.104,-0.074,-0.075
-0.018,-0.098,-0.08,0.059,0.031,-0.089,0.089,-0.071,-0.122,-0.102,-0.075,-0.077
-0.047,-0.109,-0.062,0.079,0.008,-0.086,0.084,-0.069,-0.125,-0.099,-0.074,-0.088
-0.026,-0.092,-0.066,0.059,0.02,-0.079,0.082,-0.071,-0.124,-0.101,-0.076,-0.09
-0.036,-0.094,-0.058,0.065,0.011,-0.076,0.078,-0.074,-0.119,-0.099,-0.079,-0.09
-0.026,-0.085,-0.059,0.056,0.016,-0.072,0.075,-0.077,-0.12,-0.1,-0.08,-0.09
-0.055,-0.108,-0.053,0.082,-0.001,-0.08,0.07,-0.08,-0.12,-0.1,-0.08,-0.09
-0.057,-0.116,-0.059,0.087,0.001,-0.087,0.068,-0.08,-0.12,-0.1,-0.08,-0.09
-0.053,-0.125,-0.072,0.089,0.01,-0.098,0.063,-0.08,-0.12,-0.1,-0.08,-0.085
-0.073,-0.139,-0.066,0.106,-0.003,-0.102,0.06,-0.08,-0.124,-0.102,-0.077,-0.085
-0.07,-0.138,-0.068,0.104,-0.001,-0.103,0.056,-0.08,-0.125,-0.106,-0.075,-0.085
-0.05,-0.136,-0.086,0.093,0.019,-0.111,0.053,-0.08,-0.125,-0.104,-0.075,-0.085
-0.057,-0.13,-0.073,0.093,0.008,-0.101,0.049,-0.08,-0.129,-0.105,-0.075,-0.084
-0.064,-0.127,-0.063,0.096,0.0,-0.095,0.046,-0.085,-0.13,-0.105,-0.075,-0.088
-0.034,-0.119,-0.084,0.077,0.025,-0.101,0.04,-0.085,-0.128,-0.105,-0.075,-0.093
-0.053,-0.133,-0.081,0.093,0.014,-0.107,0.042,-0.086,-0.125,-0.11,-0.079,-0.089
-0.073,-0.145,-0.072,0.11,0.0,-0.108,0.052,-0.09,-0.125,-0.11,-0.084,-0.09
-0.06,-0.136,-0.077,0.098,0.009,-0.106,0.051,-0.09,-0.125,-0.11,-0.085,-0.09
-0.058,-0.131,-0.074,0.095,0.008,-0.102,0.05,-0.087,-0.125,-0.11,-0.085,-0.09
-0.051,-0.127,-0.076,0.089,0.013,-0.101,0.048,-0.085,-0.125,-0.11,-0.085,-0.09
-0.048,-0.119,-0.071,0.084,0.012,-0.095,0.045,-0.085,-0.121,-0.107,-0.085,-0.084
-0.062,-0.126,-0.065,0.094,0.002,-0.095,0.044,-0.085,-0.115,-0.097,-0.085,-0.078
-0.079,-0.136,-0.057,0.108,-0.011,-0.096,0.057,-0.085,-0.109,-0.088,-0.085,-0.071
-0.056,-0.108,-0.052,0.082,-0.002,-0.08,0.06,-0.078,-0.104,-0.077,-0.075,-0.065
-0.026,-0.068,-0.042,0.047,0.008,-0.054,0.046,-0.07,-0.099,-0.071,-0.059,-0.057
-0.02,-0.056,-0.036,0.039,0.008,-0.046,0.035,-0.069,-0.095,-0.067,-0.053,-0.057
-0.015,-0.079,-0.064,0.047,0.025,-0.072,0.03,-0.07,-0.094,-0.064,-0.056,-0.061
-0.007,-0.084,-0.077,0.046,0.035,-0.08,0.03,-0.069,-0.088,-0.059,-0.058,-0.06
-0.01,-0.084,-0.074,0.047,0.032,-0.079,0.03,-0.071,-0.089,-0.056,-0.061,-0.067
0.011,-0.064,-0.075,0.027,0.043,-0.069,0.052,-0.068,-0.081,-0.058,-0.064,-0.062
0.002,-0.073,-0.076,0.036,0.039,-0.074,0.06,-0.072,-0.099,-0.083,-0.067,-0.074
-0.055,-0.124,-0.069,0.09,0.007,-0.097,0.048,-0.083,-0.119,-0.116,-0.091,-0.105
-0.073,-0.134,-0.061,0.104,-0.006,-0.098,0.048,-0.087,-0.118,-0.124,-0.097,-0.105
-0.101,-0.151,-0.05,0.126,-0.025,-0.1,0.038,-0.103,-0.144,-0.125,-0.094,-0.106
-0.112,-0.17,-0.058,0.141,-0.027,-0.113,0.036,-0.105,-0.146,-0.128,-0.117,-0.118
-0.082,-0.158,-0.076,0.12,-0.003,-0.116,0.042,-0.106,-0.146,-0.124,-0.089,-0.113
-0.079,-0.134,-0.055,0.107,-0.012,-0.094,0.036,-0.101,-0.142,-0.124,-0.081,-0.116
-0.085,-0.12,-0.035,0.103,-0.025,-0.077,0.046,-0.102,-0.149,-0.123,-0.113,-0.11
-0.073,-0.132,-0.059,0.103,-0.007,-0.095,0.027,-0.098,-0.141,-0.115,-0.112,-0.108
-0.069,-0.129,-0.06,0.099,-0.004,-0.094,0.044,-0.101,-0.147,-0.126,-0.123,-0.115
-0.059,-0.113,-0.053,0.086,-0.003,-0.083,0.025,-0.099,-0.139,-0.101,-0.111,-0.113
-0.064,-0.141,-0.077,0.103,0.006,-0.108,0.067,0.014,-0.1,-0.116,-0.133,-0.145
0.006,-0.066,-0.072,0.03,0.039,-0.069,0.147,0.305,0.058,-0.024,-0.035,-0.069
0.226,0.206,-0.019,-0.216,0.122,0.094,0.043,0.451,0.495,0.33,0.285,0.198
0.446,0.909,0.464,-0.678,-0.009,0.686,-0.285,-0.354,0.739,0.887,0.92,0.878
0.407,1.046,0.639,-0.727,-0.117,0.843,-0.767,-1.242,0.706,1.053,1.096,1.064
0.02,0.226,0.207,-0.123,-0.094,0.216,-0.594,-1.053,0.222,0.31,0.267,0.229
-0.162,-0.073,0.089,0.117,-0.126,0.008,-0.119,-0.485,-0.22,-0.119,-0.126,-0.124
-0.116,-0.071,0.045,0.093,-0.08,-0.013,-0.002,-0.126,-0.068,-0.027,-0.048,-0.067
-0.118,-0.111,0.007,0.115,-0.063,-0.052,0.051,-0.03,-0.07,-0.094,-0.088,-0.111
-0.075,-0.072,0.003,0.073,-0.038,-0.034,0.039,-0.006,-0.103,-0.091,-0.053,-0.077
-0.066,-0.094,-0.028,0.081,-0.019,-0.061,0.058,0.03,-0.068,-0.091,-0.065,-0.098
-0.081,-0.071,0.01,0.075,-0.045,-0.03,0.052,0.025,-0.08,-0.089,-0.052,-0.083
-0.097,-0.075,0.022,0.085,-0.059,-0.026,0.053,0.035,-0.059,-0.08,-0.055,-0.086
-0.055,-0.058,-0.003,0.056,-0.026,-0.03,0.075,0.054,-0.061,-0.084,-0.057,-0.086
-0.043,-0.05,-0.008,0.047,-0.017,-0.029,0.066,0.073,-0.033,-0.072,-0.053,-0.079
-0.034,-0.041,-0.008,0.038,-0.013,-0.024,0.073,0.081,-0.026,-0.068,-0.057,-0.077
-0.004,-0.032,-0.027,0.019,0.012,-0.029,0.068,0.098,-0.025,-0.056,-0.054,-0.067
-0.026,-0.024,0.002,0.025,-0.014,-0.01,0.071,0.105,-0.024,-0.05,-0.046,-0.066
0.019,0.0,-0.019,-0.009,0.019,-0.009,0.067,0.139,-0.02,-0.042,-0.016,-0.056
0.026,0.003,-0.023,-0.014,0.025,-0.009,0.059,0.171,-0.001,-0.033,-0.002,-0.049
0.018,0.009,-0.008,-0.013,0.013,0.0,0.053,0.178,0.027,-0.012,0.012,-0.025
0.051,0.05,-0.001,-0.05,0.025,0.024,0.045,0.228,0.059,0.024,0.035,0.016
0.075,0.093,0.018,-0.084,0.028,0.055,0.038,0.274,0.101,0.07,0.068,0.046
0.113,0.132,0.019,-0.123,0.047,0.075,0.031,0.305,0.12,0.092,0.102,0.079
0.149,0.214,0.066,-0.182,0.041,0.14,0.025,0.321,0.141,0.116,0.135,0.117
0.196,0.251,0.055,-0.223,0.07,0.152,0.022,0.31,0.17,0.15,0.17,0.151
0.201,0.241,0.04,-0.221,0.08,0.14,0.017,0.305,0.161,0.148,0.175,0.178
0.173,0.251,0.078,-0.212,0.047,0.165,0.011,0.281,0.147,0.141,0.16,0.182
0.142,0.217,0.075,-0.179,0.033,0.146,0.005,0.234,0.126,0.13,0.152,0.176
0.103,0.169,0.066,-0.136,0.018,0.117,0.016,0.185,0.084,0.1,0.13,0.149
0.076,0.139,0.063,-0.108,0.007,0.1,0.038,0.133,0.047,0.067,0.092,0.095
0.035,0.093,0.059,-0.064,-0.012,0.076,0.047,0.071,0.003,0.017,0.046,0.048
0.007,0.05,0.043,-0.029,-0.018,0.046,0.055,0.021,-0.048,-0.03,-0.005,0.001
-0.022,0.011,0.033,0.005,-0.027,0.021,0.052,-0.024,-0.075,-0.061,-0.043,-0.044
-0.065,-0.029,0.036,0.047,-0.051,0.004,0.051,-0.059,-0.105,-0.094,-0.075,-0.074
-0.086,-0.052,0.034,0.068,-0.06,-0.009,0.07,-0.055,-0.13,-0.106,-0.084,-0.094
-0.091,-0.055,0.036,0.072,-0.063,-0.009,0.068,-0.065,-0.133,-0.11,-0.097,-0.099
-0.092,-0.058,0.034,0.075,-0.063,-0.012,0.063,-0.081,-0.132,-0.116,-0.12,-0.104
-0.094,-0.058,0.035,0.076,-0.064,-0.011,0.062,-0.09,-0.129,-0.115,-0.12,-0.106
-0.092,-0.076,0.016,0.084,-0.054,-0.03,0.055,-0.093,-0.13,-0.114,-0.12,-0.105
-0.075,-0.062,0.013,0.068,-0.043,-0.024,0.055,-0.075,-0.13,-0.11,-0.12,-0.105
-0.081,-0.053,0.028,0.066,-0.054,-0.012,0.055,-0.067,-0.13,-0.11,-0.12,-0.105
-0.098,-0.077,0.021,0.088,-0.059,-0.028,0.055,-0.063,-0.129,-0.108,-0.119,-0.104
-0.082,-0.048,0.033,0.065,-0.057,-0.007,0.055,-0.059,-0.123,-0.104,-0.115,-0.1
-0.087,-0.037,0.05,0.062,-0.069,0.007,0.055,-0.056,-0.116,-0.106,-0.113,-0.098
-0.077,-0.04,0.036,0.059,-0.057,-0.002,0.055,-0.05,-0.11,-0.101,-0.11,-0.095
-0.057,-0.04,0.017,0.048,-0.037,-0.011,0.055,-0.051,-0.102,-0.1,-0.106,-0.092
-0.063,-0.039,0.024,0.05,-0.043,-0.007,0.055,-0.055,-0.097,-0.101,-0.105,-0.089
-0.07,-0.047,0.024,0.058,-0.047,-0.011,0.055,-0.055,-0.097,-0.104,-0.101,-0.094
-0.079,-0.072,0.007,0.075,-0.043,-0.032,0.055,-0.055,-0.103,-0.109,-0.102,-0.101
-0.082,-0.076,0.006,0.079,-0.044,-0.035,0.055,-0.055,-0.107,-0.11,-0.114,-0.105
-0.107,-0.092,0.015,0.099,-0.061,-0.038,0.054,-0.055,-0.114,-0.11,-0.116,-0.109
-0.099,-0.09,0.009,0.094,-0.054,-0.04,0.049,-0.051,-0.128,-0.109,-0.111,-0.113
-0.064,-0.058,0.006,0.061,-0.035,-0.026,0.046,-0.049,-0.131,-0.111,-0.11,-0.119
-0.07,-0.052,0.018,0.06,-0.044,-0.016,0.043,-0.061,-0.129,-0.115,-0.121,-0.118
-0.089,-0.075,0.014,0.082,-0.051,-0.031,0.038,-0.066,-0.131,-0.116,-0.127,-0.116
-0.097,-0.086,0.012,0.091,-0.054,-0.037,0.035,-0.064,-0.129,-0.114,-0.124,-0.113
-0.073,-0.074,-0.001,0.074,-0.035,-0.038,0.032,-0.065,-0.13,-0.116,-0.126,-0.112
-0.044,-0.07,-0.026,0.057,-0.009,-0.047,0.029,-0.065,-0.13,-0.114,-0.124,-0.108
-0.048,-0.063,-0.016,0.056,-0.016,-0.039,0.026,-0.065,-0.13,-0.118,-0.127,-0.113
-0.052,-0.052,-0.001,0.052,-0.025,-0.026,0.023,-0.072,-0.13,-0.134,-0.139,-0.134
-0.083,-0.075,0.009,0.079,-0.046,-0.033,0.02,-0.076,-0.13,-0.134,-0.136,-0.134
-0.126,-0.104,0.023,0.115,-0.074,-0.04,0.02,-0.075,-0.13,-0.128,-0.129,-0.128
-0.124,-0.099,0.025,0.111,-0.075,-0.036,0.031,-0.075,-0.126,-0.127,-0.126,-0.127
-0.125,-0.099,0.025,0.112,-0.075,-0.037,0.032,-0.075,-0.125,-0.12,-0.116,-0.12
-0.123,-0.102,0.021,0.112,-0.072,-0.04,0.026,-0.075,-0.125,-0.121,-0.118,-0.122
-0.112,-0.091,0.02,0.101,-0.066,-0.035,0.021,-0.073,-0.125,-0.118,-0.118,-0.125
-0.104,-0.085,0.019,0.095,-0.061,-0.033,0.017,-0.069,-0.125,-0.12,-0.116,-0.125
-0.079,-0.063,0.016,0.071,-0.047,-0.023,0.013,-0.07,-0.125,-0.139,-0.125,-0.127
-0.085,-0.071,0.013,0.077,-0.049,-0.029,0.01,-0.07,-0.125,-0.135,-0.125,-0.13
-0.1,-0.09,0.01,0.095,-0.055,-0.04,0.021,-0.07,-0.125,-0.127,-0.123,-0.13
-0.077,-0.068,0.009,0.072,-0.043,-0.029,0.024,-0.07,-0.125,-0.122,-0.12,-0.126
-0.07,-0.069,0.001,0.069,-0.035,-0.034,0.035,-0.064,-0.125,-0.113,-0.12,-0.121
-0.08,-0.061,0.019,0.07,-0.049,-0.02,0.026,-0.058,-0.126,-0.109,-0.118,-0.118
-0.056,-0.045,0.01,0.05,-0.033,-0.017,0.015,-0.05,-0.118,-0.104,-0.111,-0.113
-0.06,-0.04,0.02,0.05,-0.04,-0.01,0.049,-0.044,-0.103,-0.099,-0.107,-0.104
-0.092,-0.025,0.066,0.059,-0.079,0.02,0.038,-0.036,-0.09,-0.094,-0.099,-0.089
-0.057,-0.019,0.038,0.038,-0.048,0.009,0.013,-0.034,-0.084,-0.091,-0.096,-0.085
-0.01,-0.006,0.004,0.008,-0.007,-0.001,0.012,-0.029,-0.086,-0.085,-0.095,-0.085
0.012,-0.003,-0.015,-0.004,0.014,-0.009,0.004,-0.028,-0.082,-0.089,-0.095,-0.085
0.006,-0.017,-0.024,0.005,0.015,-0.02,-0.002,-0.022,-0.08,-0.09,-0.096,-0.086
-0.008,-0.023,-0.015,0.016,0.004,-0.019,-0.003,-0.019,-0.079,-0.09,-0.092,-0.082
-0.041,-0.057,-0.016,0.05,-0.012,-0.036,0.017,-0.056,-0.102,-0.115,-0.114,-0.097
-0.074,-0.084,-0.009,0.079,-0.032,-0.047,0.028,-0.08,-0.133,-0.128,-0.129,-0.107
-0.087,-0.095,-0.008,0.091,-0.039,-0.051,0.017,-0.087,-0.129,-0.134,-0.123,-0.118
-0.101,-0.103,-0.003,0.102,-0.049,-0.053,0.015,-0.097,-0.133,-0.143,-0.128,-0.126
-0.075,-0.095,-0.02,0.085,-0.028,-0.057,0.004,-0.085,-0.125,-0.131,-0.121,-0.109
-0.069,-0.1,-0.03,0.085,-0.019,-0.065,0.0,-0.084,-0.124,-0.136,-0.124,-0.113
-0.071,-0.088,-0.017,0.08,-0.027,-0.053,-0.004,-0.08,-0.123,-0.123,-0.116,-0.095
-0.061,-0.096,-0.036,0.079,-0.012,-0.066,0.009,-0.071,-0.113,-0.128,-0.123,-0.1
-0.054,-0.066,-0.011,0.061,-0.021,-0.038,0.024,-0.071,-0.124,-0.129,-0.107,-0.105
-0.054,-0.098,-0.044,0.076,-0.005,-0.071,0.001,-0.019,-0.077,-0.129,-0.121,-0.133
-0.07,-0.098,-0.027,0.084,-0.021,-0.062,0.09,0.152,-0.038,-0.122,-0.134,-0.143
0.102,0.076,-0.026,-0.089,0.064,0.025,0.096,0.498,0.307,0.118,0.064,0.017
0.378,0.556,0.178,-0.467,0.099,0.367,-0.115,0.209,0.704,0.6,0.557,0.519
0.478,1.112,0.634,-0.796,-0.078,0.873,-0.592,-0.878,0.789,1.07,1.102,1.106
0.222,0.674,0.452,-0.448,-0.115,0.562,-0.809,-1.27,0.507,0.707,0.677,0.658
-0.123,0.045,0.168,0.039,-0.146,0.107,-0.36,-0.794,-0.088,-0.025,-0.07,-0.053
-0.113,0.006,0.118,0.054,-0.115,0.062,-0.078,-0.27,-0.15,-0.097,-0.099,-0.064
-0.078,-0.048,0.031,0.063,-0.054,-0.009,-0.02,-0.039,-0.035,-0.075,-0.088,-0.071
-0.104,-0.044,0.06,0.074,-0.082,0.008,0.026,-0.012,-0.069,-0.095,-0.094,-0.073
-0.075,-0.047,0.027,0.06,-0.051,-0.01,0.02,0.034,-0.032,-0.076,-0.074,-0.065
-0.06,-0.063,-0.003,0.062,-0.028,-0.033,0.046,0.05,-0.051,-0.093,-0.084,-0.076
-0.034,-0.051,-0.017,0.043,-0.008,-0.034,0.033,0.063,-0.029,-0.075,-0.064,-0.06
-0.043,-0.047,-0.004,0.045,-0.019,-0.025,0.036,0.074,-0.033,-0.078,-0.069,-0.064
-0.037,-0.035,0.002,0.036,-0.02,-0.016,0.031,0.086,-0.019,-0.065,-0.054,-0.048
-0.038,-0.044,-0.006,0.041,-0.016,-0.025,0.027,0.1,-0.003,-0.062,-0.053,-0.048
-0.03,-0.034,-0.004,0.032,-0.013,-0.019,0.027,0.114,0.006,-0.054,-0.044,-0.038
-0.007,-0.026,-0.019,0.017,0.006,-0.022,0.023,0.136,0.03,-0.044,-0.038,-0.026
-0.008,-0.012,-0.004,0.01,-0.002,-0.008,0.043,0.156,0.038,-0.036,-0.027,-0.012
0.015,0.014,-0.001,-0.015,0.008,0.007,0.056,0.186,0.051,-0.022,-0.009,0.003
0.033,0.043,0.01,-0.038,0.011,0.026,0.043,0.213,0.067,-0.009,-0.002,0.016
0.05,0.064,0.014,-0.057,0.018,0.039,0.032,0.245,0.099,0.007,0.013,0.032
0.065,0.074,0.009,-0.069,0.028,0.041,0.03,0.283,0.125,0.037,0.042,0.065
0.101,0.108,0.007,-0.105,0.047,0.057,0.013,0.329,0.155,0.074,0.08,0.107
0.172,0.162,-0.01,-0.167,0.091,0.076,-0.007,0.358,0.191,0.097,0.117,0.141
0.184,0.194,0.01,-0.19,0.087,0.102,-0.018,0.366,0.207,0.133,0.147,0.176
0.185,0.219,0.034,-0.203,0.075,0.126,-0.025,0.365,0.22,0.15,0.168,0.208
0.182,0.226,0.043,-0.204,0.069,0.134,-0.035,0.351,0.22,0.139,0.17,0.22
0.177,0.224,0.047,-0.201,0.065,0.135,-0.044,0.322,0.193,0.137,0.164,0.222
0.155,0.213,0.058,-0.184,0.048,0.135,-0.034,0.268,0.156,0.111,0.149,0.21
0.12,0.186,0.066,-0.153,0.027,0.126,-0.015,0.208,0.114,0.073,0.115,0.17
0.112,0.167,0.056,-0.14,0.027,0.111,0.0,0.153,0.079,0.036,0.075,0.12
0.058,0.093,0.035,-0.076,0.011,0.064,0.024,0.11,0.041,-0.006,0.03,0.07
0.023,0.02,-0.003,-0.021,0.013,0.008,0.042,0.068,-0.001,-0.042,-0.009,0.032
-0.022,-0.014,0.008,0.018,-0.015,-0.002,0.037,0.02,-0.036,-0.078,-0.05,-0.006
-0.051,-0.051,0.0,0.051,-0.026,-0.025,0.033,-0.002,-0.068,-0.104,-0.081,-0.035
-0.037,-0.057,-0.02,0.047,-0.008,-0.038,0.028,-0.006,-0.076,-0.113,-0.086,-0.034
-0.042,-0.052,-0.01,0.047,-0.015,-0.031,0.024,-0.012,-0.075,-0.118,-0.09,-0.037
-0.047,-0.057,-0.011,0.052,-0.018,-0.033,0.02,-0.017,-0.086,-0.119,-0.09,-0.05
-0.071,-0.074,-0.003,0.073,-0.034,-0.038,0.019,-0.023,-0.081,-0.114,-0.09,-0.047
-0.069,-0.072,-0.003,0.07,-0.033,-0.037,0.039,-0.023,-0.074,-0.111,-0.087,-0.041
-0.088,-0.065,0.023,0.076,-0.055,-0.021,0.046,-0.019,-0.068,-0.108,-0.084,-0.038
-0.084,-0.068,0.016,0.076,-0.05,-0.026,0.038,-0.017,-0.06,-0.103,-0.085,-0.032
-0.057,-0.074,-0.017,0.066,-0.02,-0.045,0.036,-0.014,-0.055,-0.1,-0.08,-0.031
-0.066,-0.08,-0.014,0.074,-0.026,-0.047,0.031,-0.011,-0.051,-0.096,-0.079,-0.035
-0.057,-0.073,-0.016,0.065,-0.02,-0.044,0.029,-0.008,-0.05,-0.095,-0.075,-0.035
-0.052,-0.065,-0.013,0.059,-0.019,-0.039,0.024,-0.005,-0.051,-0.095,-0.073,-0.037
-0.029,-0.057,-0.028,0.043,0.0,-0.042,0.021,-0.003,-0.049,-0.096,-0.069,-0.041
-0.013,-0.056,-0.043,0.035,0.015,-0.049,0.018,0.001,-0.051,-0.094,-0.069,-0.04
-0.013,-0.053,-0.039,0.033,0.013,-0.046,0.015,-0.003,-0.047,-0.1,-0.086,-0.044
-0.012,-0.052,-0.04,0.032,0.014,-0.046,0.015,-0.011,-0.043,-0.111,-0.092,-0.046
-0.006,-0.047,-0.041,0.026,0.018,-0.044,0.015,-0.019,-0.061,-0.11,-0.089,-0.044
-0.023,-0.061,-0.037,0.042,0.007,-0.049,0.015,-0.025,-0.07,-0.108,-0.091,-0.046
-0.038,-0.087,-0.049,0.063,0.006,-0.067,0.015,-0.025,-0.071,-0.105,-0.089,-0.043
-0.018,-0.082,-0.064,0.051,0.023,-0.073,0.01,-0.025,-0.078,-0.104,-0.092,-0.05
-0.024,-0.079,-0.055,0.052,0.015,-0.067,0.007,-0.024,-0.079,-0.108,-0.095,-0.061
-0.028,-0.076,-0.047,0.052,0.01,-0.061,0.004,-0.03,-0.08,-0.11,-0.095,-0.06
-0.035,-0.073,-0.038,0.054,0.002,-0.055,-0.001,-0.037,-0.082,-0.111,-0.095,-0.06
-0.018,-0.063,-0.045,0.041,0.014,-0.054,-0.004,-0.035,-0.086,-0.115,-0.095,-0.06
-0.001,-0.059,-0.058,0.03,0.029,-0.058,-0.008,-0.031,-0.085,-0.115,-0.095,-0.06
0.002,-0.05,-0.052,0.024,0.027,-0.051,-0.017,-0.03,-0.081,-0.11,-0.092,-0.058
0.008,-0.042,-0.049,0.017,0.029,-0.045,-0.028,-0.024,-0.075,-0.106,-0.087,-0.054
-0.026,-0.073,-0.048,0.05,0.011,-0.06,-0.02,-0.026,-0.066,-0.103,-0.084,-0.055
-0.037,-0.079,-0.042,0.059,0.003,-0.06,-0.011,-0.034,-0.062,-0.099,-0.081,-0.051
-0.017,-0.07,-0.053,0.044,0.018,-0.061,-0.02,-0.039,-0.051,-0.096,-0.076,-0.05
0.001,-0.066,-0.067,0.033,0.035,-0.066,-0.02,-0.053,-0.058,-0.093,-0.074,-0.05
0.001,-0.061,-0.061,0.03,0.031,-0.061,-0.019,-0.047,-0.071,-0.086,-0.068,-0.044
0.008,-0.053,-0.061,0.023,0.035,-0.056,-0.021,-0.04,-0.057,-0.081,-0.062,-0.039
-0.009,-0.065,-0.055,0.037,0.023,-0.06,-0.019,-0.028,-0.051,-0.076,-0.058,-0.034
-0.004,-0.061,-0.056,0.033,0.026,-0.058,-0.021,-0.036,-0.045,-0.07,-0.051,-0.028
0.026,-0.023,-0.049,-0.002,0.038,-0.035,-0.001,-0.03,-0.038,-0.066,-0.047,-0.023
0.015,-0.028,-0.043,0.007,0.029,-0.035,0.008,0.007,-0.031,-0.06,-0.041,-0.02
0.014,-0.016,-0.03,0.001,0.022,-0.023,-0.019,0.005,-0.025,-0.06,-0.04,-0.02
0.054,0.02,-0.034,-0.036,0.043,-0.007,-0.028,0.001,-0.03,-0.059,-0.039,-0.02
0.113,0.016,-0.097,-0.064,0.105,-0.041,-0.022,0.0,-0.031,-0.055,-0.036,-0.02
0.075,-0.016,-0.092,-0.029,0.084,-0.054,-0.022,-0.005,-0.035,-0.055,-0.034,-0.021
0.044,-0.029,-0.073,-0.007,0.059,-0.051,-0.016,-0.004,-0.037,-0.056,-0.036,-0.019
0.03,-0.056,-0.085,0.013,0.058,-0.07,-0.016,-0.024,-0.05,-0.07,-0.059,-0.041
-0.022,-0.08,-0.058,0.052,0.018,-0.069,-0.017,-0.053,-0.073,-0.09,-0.078,-0.063
-0.012,-0.085,-0.073,0.049,0.031,-0.079,-0.032,-0.055,-0.071,-0.091,-0.081,-0.065
-0.024,-0.1,-0.076,0.063,0.026,-0.088,-0.041,-0.055,-0.079,-0.094,-0.088,-0.07
-0.032,-0.091,-0.059,0.062,0.014,-0.075,-0.04,-0.056,-0.074,-0.087,-0.081,-0.06
-0.034,-0.095,-0.062,0.065,0.014,-0.078,-0.034,-0.059,-0.081,-0.088,-0.089,-0.07
-0.038,-0.079,-0.04,0.059,0.001,-0.059,-0.027,-0.061,-0.088,-0.083,-0.081,-0.06
-0.007,-0.089,-0.082,0.048,0.038,-0.085,-0.027,-0.048,-0.065,-0.079,-0.088,-0.07
-0.012,-0.069,-0.057,0.041,0.023,-0.063,-0.01,-0.058,-0.086,-0.084,-0.091,-0.063
-0.006,-0.08,-0.073,0.043,0.034,-0.076,-0.017,0.003,-0.019,-0.072,-0.085,-0.069
-0.039,-0.101,-0.063,0.07,0.013,-0.082,0.055,0.138,-0.012,-0.08,-0.093,-0.106
0.06,0.022,-0.038,-0.041,0.049,-0.008,0.073,0.474,0.26,0.108,0.057,0.013
0.351,0.432,0.081,-0.392,0.135,0.257,-0.096,0.342,0.692,0.556,0.49,0.44
0.527,1.115,0.588,-0.822,-0.031,0.852,-0.547,-0.719,0.836,1.095,1.117,1.115
0.328,0.822,0.493,-0.575,-0.083,0.657,-0.868,-1.255,0.68,0.908,0.865,0.844
-0.057,0.059,0.117,-0.001,-0.087,0.088,-0.475,-0.854,0.037,0.117,0.083,0.075
-0.101,-0.028,0.074,0.064,-0.087,0.023,-0.113,-0.31,-0.149,-0.057,-0.021,-0.002
-0.034,-0.043,-0.009,0.038,-0.013,-0.025,-0.039,-0.026,0.005,-0.012,-0.032,-0.031
-0.043,-0.052,-0.01,0.048,-0.016,-0.031,0.017,0.006,-0.03,-0.044,-0.056,-0.049
-0.028,-0.07,-0.042,0.049,0.007,-0.056,0.02,0.047,0.0,-0.013,-0.027,-0.031
-0.03,-0.072,-0.043,0.051,0.007,-0.057,0.041,0.056,-0.027,-0.034,-0.044,-0.048
-0.014,-0.048,-0.035,0.031,0.011,-0.041,0.032,0.058,-0.003,-0.016,-0.02,-0.026
-0.019,-0.06,-0.041,0.039,0.011,-0.05,0.036,0.091,0.0,-0.017,-0.028,-0.042
-0.014,-0.043,-0.029,0.029,0.008,-0.036,0.035,0.104,0.005,-0.005,-0.014,-0.028
-0.008,-0.045,-0.037,0.027,0.014,-0.041,0.034,0.112,0.02,0.003,-0.013,-0.028
-0.006,-0.031,-0.025,0.019,0.01,-0.028,0.035,0.13,0.025,0.008,-0.006,-0.02
0.004,-0.025,-0.029,0.011,0.017,-0.026,0.028,0.146,0.044,0.018,0.001,-0.014
0.002,-0.02,-0.022,0.009,0.012,-0.02,0.027,0.159,0.044,0.02,0.003,-0.012
0.023,0.003,-0.02,-0.013,0.022,-0.008,0.022,0.19,0.072,0.033,0.018,0.01
0.052,0.031,-0.022,-0.041,0.037,0.004,0.019,0.221,0.093,0.05,0.033,0.027
0.068,0.046,-0.023,-0.056,0.045,0.011,0.015,0.255,0.11,0.067,0.051,0.04
0.1,0.066,-0.034,-0.083,0.067,0.015,0.011,0.297,0.142,0.099,0.081,0.075
0.119,0.103,-0.016,-0.111,0.067,0.043,-0.001,0.342,0.174,0.136,0.122,0.109
0.158,0.148,-0.009,-0.153,0.083,0.069,-0.009,0.38,0.211,0.173,0.165,0.157
0.199,0.205,0.006,-0.202,0.097,0.105,-0.02,0.38,0.232,0.201,0.199,0.2
0.191,0.228,0.037,-0.21,0.077,0.133,-0.044,0.366,0.238,0.219,0.214,0.216
0.183,0.216,0.034,-0.2,0.074,0.125,-0.045,0.354,0.237,0.225,0.225,0.232
0.174,0.214,0.041,-0.194,0.066,0.127,-0.033,0.322,0.224,0.212,0.221,0.23
0.164,0.203,0.039,-0.184,0.063,0.121,-0.027,0.277,0.189,0.198,0.207,0.221
0.151,0.176,0.025,-0.164,0.063,0.1,-0.013,0.222,0.139,0.168,0.173,0.19
0.107,0.119,0.012,-0.113,0.047,0.065,0.007,0.163,0.102,0.121,0.116,0.136
0.055,0.053,-0.001,-0.054,0.028,0.026,0.017,0.111,0.059,0.074,0.068,0.088
0.023,0.014,-0.008,-0.018,0.015,0.003,0.025,0.07,0.015,0.028,0.025,0.039
-0.02,-0.042,-0.022,0.031,0.001,-0.032,0.034,0.038,-0.026,-0.003,-0.016,0.003
-0.05,-0.078,-0.029,0.064,-0.01,-0.053,0.031,0.013,-0.045,-0.02,-0.035,-0.015
-0.029,-0.08,-0.051,0.055,0.011,-0.065,0.03,-0.001,-0.051,-0.036,-0.04,-0.031
-0.064,-0.099,-0.036,0.082,-0.014,-0.067,0.03,-0.005,-0.068,-0.041,-0.046,-0.036
-0.099,-0.1,-0.001,0.099,-0.049,-0.05,0.03,-0.027,-0.07,-0.04,-0.045,-0.035
-0.059,-0.086,-0.027,0.073,-0.015,-0.056,0.031,-0.042,-0.07,-0.04,-0.045,-0.035
-0.042,-0.078,-0.036,0.06,-0.003,-0.057,0.027,-0.034,-0.071,-0.04,-0.045,-0.035
-0.049,-0.069,-0.02,0.059,-0.014,-0.044,0.025,-0.03,-0.069,-0.04,-0.045,-0.035
-0.054,-0.067,-0.014,0.061,-0.02,-0.04,0.021,-0.025,-0.071,-0.038,-0.047,-0.032
-0.031,-0.063,-0.032,0.047,0.001,-0.047,0.02,-0.018,-0.057,-0.035,-0.044,-0.03
-0.011,-0.06,-0.049,0.036,0.019,-0.054,0.015,-0.014,-0.043,-0.032,-0.039,-0.03
-0.017,-0.055,-0.038,0.036,0.011,-0.046,0.016,-0.008,-0.045,-0.029,-0.035,-0.03
-0.015,-0.052,-0.038,0.034,0.012,-0.045,0.029,-0.005,-0.045,-0.026,-0.03,-0.03
-0.013,-0.044,-0.032,0.029,0.01,-0.038,0.029,-0.001,-0.045,-0.025,-0.026,-0.03
-0.017,-0.035,-0.017,0.026,0.0,-0.026,0.024,0.009,-0.045,-0.025,-0.021,-0.03
-0.019,-0.057,-0.038,0.039,0.01,-0.048,0.022,0.007,-0.045,-0.025,-0.02,-0.03
-0.029,-0.081,-0.052,0.055,0.012,-0.066,0.017,-0.001,-0.05,-0.025,-0.02,-0.03
-0.041,-0.083,-0.041,0.062,0.0,-0.062,0.014,-0.008,-0.051,-0.025,-0.022,-0.03
-0.046,-0.086,-0.04,0.066,-0.002,-0.063,0.011,-0.016,-0.055,-0.025,-0.033,-0.03
-0.06,-0.088,-0.028,0.074,-0.016,-0.058,0.009,-0.023,-0.057,-0.027,-0.036,-0.032
-0.037,-0.09,-0.053,0.063,0.008,-0.072,0.007,-0.029,-0.062,-0.031,-0.042,-0.037
-0.028,-0.098,-0.07,0.063,0.021,-0.083,0.003,-0.031,-0.065,-0.03,-0.05,-0.039
-0.048,-0.096,-0.048,0.072,0.001,-0.072,0.012,-0.029,-0.06,-0.03,-0.046,-0.035
-0.029,-0.076,-0.047,0.053,0.009,-0.061,0.026,-0.031,-0.061,-0.031,-0.045,-0.035
-0.027,-0.068,-0.04,0.048,0.007,-0.054,0.025,-0.028,-0.058,-0.029,-0.045,-0.033
-0.05,-0.101,-0.051,0.076,0.001,-0.076,0.021,-0.025,-0.056,-0.037,-0.046,-0.031
-0.061,-0.113,-0.052,0.087,-0.004,-0.082,0.019,-0.025,-0.053,-0.028,-0.043,-0.027
-0.059,-0.105,-0.045,0.082,-0.006,-0.075,0.015,-0.022,-0.064,-0.03,-0.05,-0.043
-0.042,-0.105,-0.063,0.074,0.011,-0.084,0.01,-0.02,-0.081,-0.051,-0.06,-0.061
-0.031,-0.1,-0.069,0.066,0.019,-0.084,0.006,-0.019,-0.072,-0.045,-0.053,-0.053
-0.04,-0.1,-0.06,0.07,0.01,-0.08,0.001,-0.028,-0.066,-0.041,-0.049,-0.049
-0.045,-0.099,-0.054,0.072,0.005,-0.077,-0.004,-0.032,-0.059,-0.037,-0.043,-0.043
-0.059,-0.107,-0.048,0.083,-0.006,-0.077,-0.003,-0.021,-0.052,-0.032,-0.037,-0.037
-0.061,-0.101,-0.04,0.081,-0.01,-0.07,0.007,-0.017,-0.048,-0.027,-0.033,-0.033
-0.017,-0.072,-0.054,0.044,0.019,-0.063,0.027,-0.008,-0.041,-0.02,-0.027,-0.029
-0.01,-0.05,-0.04,0.03,0.015,-0.044,0.036,0.003,-0.036,-0.016,-0.024,-0.027
-0.025,-0.037,-0.012,0.031,-0.007,-0.025,0.036,0.023,-0.03,-0.01,-0.019,-0.024
0.014,-0.042,-0.056,0.015,0.035,-0.049,0.028,0.046,-0.03,-0.003,-0.016,-0.02
0.042,-0.037,-0.079,-0.003,0.061,-0.058,-0.004,0.041,-0.03,0.009,-0.014,-0.015
0.039,-0.049,-0.088,0.005,0.064,-0.068,-0.029,0.03,-0.03,0.012,-0.01,-0.01
0.05,-0.062,-0.112,0.006,0.081,-0.087,-0.024,0.023,-0.031,0.003,-0.008,-0.007
0.051,-0.045,-0.096,-0.002,0.073,-0.07,-0.002,0.013,-0.029,-0.008,-0.004,0.0
0.015,-0.094,-0.109,0.04,0.062,-0.101,0.001,-0.001,-0.039,-0.017,-0.008,-0.005
-0.009,-0.109,-0.1,0.06,0.046,-0.105,0.008,-0.033,-0.066,-0.022,-0.028,-0.032
-0.026,-0.106,-0.08,0.067,0.027,-0.093,0.008,-0.041,-0.064,-0.018,-0.034,-0.035
-0.062,-0.154,-0.093,0.108,0.015,-0.123,0.007,-0.039,-0.064,-0.023,-0.037,-0.037
-0.06,-0.146,-0.086,0.103,0.013,-0.116,0.004,-0.045,-0.061,-0.017,-0.032,-0.032
-0.058,-0.154,-0.095,0.106,0.018,-0.125,0.005,-0.042,-0.056,-0.022,-0.038,-0.039
-0.065,-0.148,-0.083,0.106,0.01,-0.116,0.007,-0.051,-0.067,-0.017,-0.032,-0.031
-0.062,-0.16,-0.097,0.111,0.018,-0.128,-0.001,-0.03,-0.05,-0.011,-0.038,-0.038
-0.074,-0.157,-0.083,0.116,0.004,-0.12,0.02,-0.032,-0.074,-0.013,-0.042,-0.034
-0.066,-0.162,-0.095,0.114,0.015,-0.128,0.004,0.007,-0.031,0.005,-0.034,-0.032
-0.062,-0.17,-0.108,0.116,0.024,-0.139,0.076,0.156,-0.004,-0.015,-0.052,-0.069
0.089,-0.019,-0.108,-0.035,0.099,-0.063,0.113,0.472,0.248,0.152,0.092,0.039
0.348,0.381,0.033,-0.365,0.157,0.207,-0.041,0.361,0.671,0.567,0.503,0.444
0.514,1.036,0.521,-0.775,-0.003,0.778,-0.489,-0.65,0.825,1.115,1.14,1.129
0.368,0.812,0.444,-0.59,-0.039,0.628,-0.826,-1.206,0.709,0.983,0.957,0.927
-0.04,0.034,0.074,0.002,-0.057,0.054,-0.448,-0.814,0.096,0.171,0.116,0.101
-0.103,-0.059,0.043,0.081,-0.072,-0.008,-0.1,-0.291,-0.143,-0.041,-0.034,-0.016
-0.012,-0.052,-0.04,0.032,0.014,-0.045,-0.02,-0.018,0.033,0.012,0.006,0.005
-0.035,-0.095,-0.061,0.065,0.013,-0.078,0.04,0.024,-0.011,-0.017,-0.017,-0.016
-0.024,-0.089,-0.066,0.057,0.022,-0.077,0.027,0.067,0.014,0.018,0.014,0.005
-0.03,-0.098,-0.068,0.065,0.019,-0.083,0.046,0.075,0.001,0.004,-0.002,-0.015
-0.023,-0.083,-0.06,0.053,0.019,-0.071,0.033,0.082,0.004,0.025,0.02,0.005
-0.025,-0.09,-0.065,0.058,0.02,-0.077,0.034,0.107,0.009,0.021,0.011,-0.001
-0.023,-0.078,-0.056,0.05,0.017,-0.067,0.049,0.118,0.009,0.03,0.016,0.015
-0.014,-0.078,-0.064,0.046,0.025,-0.071,0.053,0.119,0.023,0.026,0.023,0.015
0.0,-0.063,-0.063,0.032,0.032,-0.063,0.046,0.126,0.015,0.019,0.031,0.025
0.014,-0.051,-0.066,0.019,0.04,-0.058,0.04,0.164,0.048,0.051,0.037,0.03
0.017,-0.044,-0.061,0.013,0.039,-0.052,0.036,0.177,0.066,0.066,0.046,0.037
0.028,-0.02,-0.048,-0.004,0.038,-0.034,0.03,0.196,0.065,0.064,0.051,0.048
0.027,-0.017,-0.044,-0.004,0.036,-0.03,0.046,0.23,0.096,0.093,0.068,0.057
0.045,0.002,-0.043,-0.023,0.044,-0.02,0.038,0.258,0.13,0.123,0.098,0.079
0.075,0.041,-0.035,-0.058,0.055,0.003,0.023,0.3,0.148,0.137,0.112,0.1
0.11,0.082,-0.028,-0.096,0.069,0.027,0.033,0.346,0.187,0.173,0.148,0.144
0.153,0.136,-0.016,-0.144,0.084,0.06,0.015,0.371,0.209,0.204,0.186,0.182
0.183,0.159,-0.024,-0.171,0.104,0.067,-0.009,0.394,0.231,0.232,0.224,0.218
0.209,0.198,-0.011,-0.203,0.11,0.093,-0.025,0.386,0.239,0.258,0.25,0.25
0.207,0.225,0.018,-0.216,0.094,0.121,-0.034,0.361,0.231,0.259,0.261,0.264
0.212,0.225,0.013,-0.219,0.099,0.119,-0.035,0.341,0.229,0.255,0.266,0.268
0.209,0.218,0.01,-0.213,0.099,0.113,-0.042,0.28,0.185,0.232,0.232,0.247
0.174,0.182,0.007,-0.178,0.083,0.094,-0.009,0.218,0.141,0.187,0.195,0.216
0.136,0.138,0.002,-0.137,0.067,0.07,0.028,0.168,0.106,0.138,0.152,0.167
0.085,0.085,0.0,-0.085,0.043,0.042,0.036,0.117,0.057,0.094,0.098,0.115
0.038,0.033,-0.005,-0.035,0.021,0.013,0.046,0.074,0.014,0.055,0.054,0.076
-0.004,-0.039,-0.035,0.022,0.015,-0.037,0.049,0.04,-0.013,0.015,0.022,0.034
-0.014,-0.071,-0.056,0.043,0.022,-0.063,0.047,0.013,-0.032,-0.003,0.004,0.005
-0.021,-0.062,-0.041,0.042,0.01,-0.051,0.041,-0.003,-0.063,-0.009,-0.006,-0.002
-0.025,-0.065,-0.04,0.045,0.008,-0.052,0.036,-0.009,-0.072,-0.016,-0.012,-0.009
-0.017,-0.058,-0.042,0.038,0.012,-0.05,0.033,-0.016,-0.069,-0.024,-0.019,-0.017
-0.033,-0.061,-0.027,0.047,-0.003,-0.044,0.026,-0.024,-0.071,-0.032,-0.026,-0.025
-0.036,-0.064,-0.027,0.05,-0.004,-0.045,0.026,-0.032,-0.069,-0.033,-0.033,-0.029
-0.034,-0.065,-0.031,0.049,-0.001,-0.047,0.032,-0.033,-0.07,-0.027,-0.033,-0.024
-0.036,-0.066,-0.03,0.051,-0.003,-0.048,0.03,-0.024,-0.064,-0.023,-0.027,-0.021
-0.044,-0.068,-0.024,0.056,-0.01,-0.045,0.03,-0.016,-0.057,-0.019,-0.024,-0.018
-0.044,-0.073,-0.029,0.059,-0.008,-0.05,0.028,-0.01,-0.052,-0.014,-0.018,-0.013
-0.051,-0.065,-0.014,0.058,-0.019,-0.039,0.024,-0.005,-0.043,-0.01,-0.015,-0.01
-0.071,-0.072,-0.001,0.072,-0.035,-0.036,0.026,0.0,-0.043,-0.005,-0.02,-0.01
-0.036,-0.064,-0.028,0.05,-0.004,-0.046,0.021,0.003,-0.045,-0.007,-0.02,-0.01
-0.006,-0.038,-0.032,0.022,0.014,-0.035,0.02,0.009,-0.046,-0.012,-0.02,-0.01
-0.028,-0.054,-0.026,0.041,-0.001,-0.039,0.02,0.008,-0.05,-0.015,-0.02,-0.01
-0.022,-0.057,-0.034,0.04,0.007,-0.045,0.015,0.003,-0.05,-0.02,-0.02,-0.01
0.003,-0.053,-0.056,0.025,0.03,-0.054,0.015,0.0,-0.05,-0.024,-0.023,-0.011
0.005,-0.058,-0.063,0.027,0.034,-0.06,0.014,-0.003,-0.049,-0.027,-0.025,-0.016
0.008,-0.049,-0.058,0.021,0.033,-0.053,0.01,-0.007,-0.054,-0.03,-0.028,-0.019
0.001,-0.062,-0.062,0.03,0.032,-0.062,0.01,-0.011,-0.061,-0.035,-0.031,-0.022
-0.014,-0.072,-0.057,0.043,0.022,-0.065,0.01,-0.002,-0.064,-0.032,-0.034,-0.027
-0.006,-0.069,-0.063,0.038,0.028,-0.066,0.007,-0.011,-0.069,-0.03,-0.035,-0.03
-0.023,-0.071,-0.048,0.047,0.012,-0.059,-0.002,-0.027,-0.07,-0.03,-0.03,-0.03
-0.039,-0.069,-0.03,0.054,-0.005,-0.049,-0.004,-0.024,-0.07,-0.031,-0.031,-0.03
-0.026,-0.072,-0.046,0.049,0.01,-0.058,0.0,-0.025,-0.074,-0.029,-0.028,-0.03
-0.017,-0.058,-0.04,0.038,0.012,-0.049,0.003,-0.026,-0.075,-0.031,-0.025,-0.031
-0.012,-0.059,-0.047,0.036,0.018,-0.053,0.005,-0.024,-0.074,-0.035,-0.024,-0.029
-0.05,-0.083,-0.034,0.067,-0.008,-0.058,0.01,-0.028,-0.07,-0.04,-0.027,-0.031
-0.058,-0.075,-0.018,0.067,-0.02,-0.047,0.018,-0.039,-0.07,-0.057,-0.044,-0.044
-0.028,-0.067,-0.039,0.048,0.005,-0.053,0.015,-0.036,-0.07,-0.058,-0.045,-0.042
-0.033,-0.063,-0.03,0.048,-0.001,-0.046,0.015,-0.029,-0.07,-0.05,-0.04,-0.036
-0.028,-0.057,-0.029,0.043,0.0,-0.043,0.016,-0.025,-0.07,-0.048,-0.039,-0.033
-0.026,-0.05,-0.024,0.039,-0.001,-0.037,0.013,-0.017,-0.067,-0.042,-0.035,-0.027
-0.027,-0.048,-0.021,0.037,-0.003,-0.034,0.018,-0.017,-0.064,-0.039,-0.034,-0.024
-0.017,-0.031,-0.014,0.024,-0.001,-0.022,0.007,-0.022,-0.061,-0.026,-0.026,-0.018
-0.024,0.001,0.026,0.011,-0.025,0.013,0.021,-0.018,-0.058,-0.011,-0.015,-0.013
-0.003,0.027,0.03,-0.012,-0.017,0.028,0.015,-0.007,-0.037,-0.001,-0.006,-0.008
0.049,0.053,0.004,-0.051,0.022,0.028,-0.015,0.008,-0.028,0.011,0.006,-0.001
0.066,0.045,-0.021,-0.055,0.043,0.012,-0.009,0.017,-0.037,0.017,0.012,0.004
0.054,0.016,-0.038,-0.035,0.046,-0.011,-0.034,0.008,-0.041,0.011,0.007,0.0
0.018,-0.007,-0.025,-0.005,0.022,-0.016,-0.04,-0.004,-0.046,-0.001,-0.002,-0.014
0.014,-0.009,-0.022,-0.002,0.018,-0.015,-0.026,-0.013,-0.048,-0.009,-0.006,-0.023
0.007,-0.035,-0.043,0.014,0.025,-0.039,-0.026,-0.037,-0.064,-0.027,-0.017,-0.037
-0.046,-0.063,-0.017,0.055,-0.014,-0.04,-0.013,-0.063,-0.089,-0.051,-0.028,-0.041
-0.037,-0.059,-0.021,0.048,-0.008,-0.04,-0.014,-0.059,-0.083,-0.049,-0.039,-0.039
-0.03,-0.074,-0.044,0.052,0.007,-0.059,-0.012,-0.058,-0.086,-0.052,-0.05,-0.04
-0.032,-0.064,-0.032,0.048,0.0,-0.048,-0.018,-0.057,-0.085,-0.045,-0.042,-0.032
-0.039,-0.067,-0.029,0.053,-0.005,-0.048,-0.012,-0.051,-0.082,-0.047,-0.044,-0.039
-0.06,-0.053,0.007,0.056,-0.033,-0.022,-0.025,-0.064,-0.089,-0.044,-0.034,-0.03
-0.032,-0.06,-0.028,0.047,-0.002,-0.044,-0.039,-0.044,-0.066,-0.041,-0.037,-0.058
-0.044,-0.043,0.001,0.044,-0.023,-0.021,-0.027,-0.045,-0.085,-0.042,-0.027,-0.059
-0.048,-0.056,-0.008,0.052,-0.02,-0.032,-0.026,-0.018,-0.046,-0.035,-0.042,-0.06
-0.063,-0.11,-0.047,0.087,-0.008,-0.078,0.063,0.138,-0.028,-0.045,-0.054,-0.07
0.078,0.053,-0.025,-0.066,0.051,0.014,0.062,0.472,0.256,0.141,0.097,0.043
0.374,0.515,0.141,-0.445,0.116,0.327,-0.091,0.305,0.666,0.578,0.526,0.465
0.511,1.127,0.616,-0.819,-0.053,0.871,-0.543,-0.739,0.773,1.102,1.151,1.135
0.317,0.812,0.495,-0.565,-0.089,0.654,-0.844,-1.225,0.631,0.888,0.867,0.832
-0.077,0.059,0.136,0.009,-0.107,0.097,-0.414,-0.795,0.033,0.123,0.065,0.083
-0.101,0.007,0.108,0.047,-0.104,0.057,-0.088,-0.285,-0.155,-0.038,-0.035,0.019
0.005,0.024,0.019,-0.015,-0.007,0.021,-0.044,-0.035,-0.006,0.002,-0.013,-0.006
-0.032,-0.002,0.029,0.016,-0.03,0.013,0.007,-0.017,-0.065,-0.023,-0.028,-0.02
-0.056,-0.016,0.04,0.036,-0.048,0.012,0.01,0.03,-0.025,0.003,-0.006,-0.014
-0.068,-0.028,0.04,0.048,-0.053,0.005,0.026,0.052,-0.037,-0.013,-0.019,-0.031
-0.034,0.004,0.038,0.015,-0.036,0.021,0.017,0.062,-0.023,0.002,-0.001,-0.012
-0.028,-0.003,0.025,0.015,-0.027,0.011,0.02,0.072,-0.016,-0.001,-0.008,-0.026
-0.015,0.013,0.027,0.001,-0.022,0.02,0.014,0.083,-0.014,0.006,0.003,-0.012
-0.021,-0.005,0.015,0.013,-0.018,0.005,0.014,0.114,0.002,0.009,0.002,-0.017
-0.031,-0.013,0.017,0.022,-0.024,0.002,0.018,0.116,0.002,0.012,0.008,-0.014
-0.003,0.011,0.014,-0.005,-0.008,0.012,0.021,0.125,0.017,0.017,0.011,-0.008
0.016,0.03,0.014,-0.023,0.001,0.021,0.026,0.139,0.022,0.025,0.02,0.003
0.03,0.039,0.009,-0.035,0.01,0.024,0.018,0.181,0.052,0.045,0.036,0.023
0.068,0.078,0.009,-0.073,0.029,0.043,0.014,0.204,0.066,0.059,0.051,0.042
0.079,0.103,0.025,-0.091,0.027,0.064,0.007,0.225,0.078,0.07,0.067,0.06
0.079,0.109,0.03,-0.094,0.024,0.07,0.004,0.28,0.119,0.106,0.097,0.09
0.122,0.146,0.024,-0.135,0.049,0.085,-0.005,0.31,0.146,0.139,0.13,0.117
0.154,0.173,0.019,-0.163,0.067,0.096,-0.018,0.343,0.168,0.168,0.162,0.151
0.186,0.227,0.041,-0.207,0.072,0.134,-0.038,0.353,0.197,0.204,0.205,0.198
0.211,0.277,0.066,-0.244,0.072,0.171,-0.056,0.335,0.195,0.22,0.224,0.222
0.216,0.278,0.061,-0.247,0.077,0.169,-0.047,0.325,0.186,0.227,0.228,0.239
0.217,0.272,0.055,-0.245,0.08,0.164,-0.041,0.291,0.183,0.222,0.233,0.241
0.22,0.274,0.054,-0.247,0.083,0.164,-0.034,0.247,0.156,0.196,0.218,0.224
0.184,0.23,0.045,-0.207,0.069,0.137,-0.028,0.189,0.113,0.156,0.169,0.184
0.095,0.143,0.048,-0.12,0.023,0.095,-0.021,0.125,0.069,0.108,0.119,0.123
0.039,0.102,0.063,-0.071,-0.013,0.082,-0.006,0.092,0.031,0.064,0.077,0.073
0.005,0.065,0.06,-0.036,-0.027,0.063,0.007,0.047,-0.007,0.029,0.034,0.029
-0.019,0.013,0.032,0.002,-0.025,0.022,0.027,0.003,-0.044,-0.004,-0.005,0.002
-0.02,-0.011,0.008,0.015,-0.014,-0.001,0.032,-0.016,-0.056,-0.028,-0.028,-0.012
-0.044,-0.023,0.022,0.033,-0.033,0.0,0.026,-0.04,-0.079,-0.044,-0.039,-0.034
-0.062,-0.032,0.03,0.047,-0.046,-0.001,0.024,-0.045,-0.093,-0.051,-0.04,-0.041
-0.063,-0.043,0.02,0.053,-0.042,-0.011,0.019,-0.053,-0.084,-0.05,-0.034,-0.035
-0.074,-0.054,0.019,0.064,-0.046,-0.017,0.016,-0.06,-0.084,-0.05,-0.032,-0.033
-0.067,-0.05,0.017,0.058,-0.042,-0.016,0.012,-0.05,-0.078,-0.05,-0.027,-0.028
-0.053,-0.043,0.01,0.048,-0.031,-0.017,0.01,-0.045,-0.075,-0.05,-0.025,-0.025
-0.051,-0.035,0.016,0.043,-0.033,-0.009,0.007,-0.037,-0.072,-0.048,-0.034,-0.037
-0.05,-0.032,0.018,0.041,-0.034,-0.007,0.004,-0.031,-0.069,-0.042,-0.034,-0.04
-0.047,-0.035,0.012,0.041,-0.029,-0.011,0.001,-0.026,-0.066,-0.037,-0.029,-0.034
-0.036,-0.031,0.005,0.033,-0.02,-0.013,-0.001,-0.025,-0.063,-0.034,-0.031,-0.032
-0.033,-0.03,0.003,0.032,-0.018,-0.014,0.012,-0.025,-0.06,-0.028,-0.027,-0.027
-0.053,-0.029,0.024,0.041,-0.038,-0.002,0.017,-0.02,-0.061,-0.026,-0.025,-0.025
-0.055,-0.032,0.023,0.043,-0.039,-0.004,0.011,-0.02,-0.065,-0.028,-0.025,-0.029
-0.044,-0.026,0.018,0.035,-0.031,-0.004,0.009,-0.02,-0.065,-0.037,-0.022,-0.033
-0.043,-0.044,-0.001,0.044,-0.021,-0.023,0.004,-0.009,-0.065,-0.046,-0.018,-0.035
-0.042,-0.055,-0.013,0.049,-0.014,-0.034,0.001,-0.009,-0.066,-0.044,-0.025,-0.038
-0.045,-0.056,-0.011,0.051,-0.017,-0.033,-0.004,-0.02,-0.064,-0.047,-0.04,-0.041
-0.028,-0.054,-0.027,0.041,0.0,-0.04,-0.016,-0.031,-0.069,-0.051,-0.04,-0.044
-0.011,-0.035,-0.024,0.024,0.007,-0.03,-0.016,-0.038,-0.076,-0.05,-0.04,-0.045
-0.049,-0.075,-0.026,0.062,-0.011,-0.05,-0.011,-0.035,-0.075,-0.05,-0.041,-0.045
-0.038,-0.061,-0.023,0.05,-0.007,-0.042,-0.009,-0.035,-0.074,-0.05,-0.039,-0.045
-0.028,-0.061,-0.034,0.045,0.003,-0.047,-0.004,-0.035,-0.07,-0.05,-0.043,-0.045
-0.029,-0.088,-0.059,0.059,0.015,-0.073,0.0,-0.035,-0.071,-0.05,-0.045,-0.045
-0.009,-0.051,-0.043,0.03,0.017,-0.047,-0.002,-0.035,-0.067,-0.05,-0.045,-0.045
-0.038,-0.067,-0.028,0.053,-0.005,-0.047,-0.006,-0.038,-0.066,-0.051,-0.045,-0.047
-0.025,-0.073,-0.047,0.049,0.011,-0.06,-0.008,-0.047,-0.075,-0.055,-0.045,-0.051
-0.019,-0.068,-0.048,0.044,0.015,-0.058,-0.011,-0.049,-0.075,-0.055,-0.044,-0.049
-0.028,-0.072,-0.044,0.05,0.008,-0.058,-0.014,-0.043,-0.071,-0.055,-0.04,-0.051
-0.028,-0.069,-0.041,0.048,0.006,-0.054,-0.015,-0.037,-0.07,-0.055,-0.031,-0.049
-0.034,-0.07,-0.036,0.052,0.001,-0.053,-0.015,-0.032,-0.064,-0.055,-0.036,-0.052
-0.028,-0.062,-0.034,0.045,0.004,-0.048,-0.015,-0.027,-0.067,-0.052,-0.047,-0.064
-0.035,-0.057,-0.023,0.046,-0.006,-0.04,-0.015,-0.02,-0.079,-0.049,-0.043,-0.06
-0.004,-0.053,-0.049,0.028,0.023,-0.05,-0.015,-0.032,-0.081,-0.046,-0.041,-0.055
-0.004,-0.045,-0.041,0.025,0.019,-0.043,-0.016,-0.038,-0.077,-0.043,-0.037,-0.05
-0.034,-0.042,-0.008,0.038,-0.012,-0.025,-0.012,-0.026,-0.075,-0.04,-0.035,-0.043
-0.024,-0.048,-0.024,0.036,0.0,-0.036,-0.003,-0.019,-0.074,-0.038,-0.033,-0.039
0.005,-0.028,-0.033,0.012,0.02,-0.03,0.006,-0.009,-0.058,-0.018,-0.011,-0.026
0.036,-0.001,-0.038,-0.017,0.037,-0.019,0.014,-0.003,-0.04,0.0,-0.001,-0.012
0.04,0.009,-0.031,-0.024,0.035,-0.011,0.004,0.005,-0.037,0.008,0.013,0.0
0.065,0.018,-0.046,-0.041,0.055,-0.014,-0.015,0.009,-0.03,0.014,0.028,0.003
0.08,-0.002,-0.082,-0.039,0.081,-0.041,-0.026,-0.002,-0.029,0.005,0.007,-0.007
0.063,-0.014,-0.077,-0.024,0.07,-0.045,-0.025,-0.013,-0.02,-0.004,-0.007,-0.019
0.041,-0.016,-0.057,-0.012,0.049,-0.036,-0.021,-0.026,-0.024,-0.022,-0.012,-0.03
-0.008,-0.059,-0.051,0.034,0.022,-0.055,-0.02,-0.038,-0.071,-0.04,-0.02,-0.044
-0.034,-0.083,-0.049,0.058,0.008,-0.066,-0.014,-0.041,-0.094,-0.041,-0.026,-0.046
-0.046,-0.095,-0.049,0.071,0.002,-0.072,-0.016,-0.034,-0.08,-0.038,-0.032,-0.043
-0.058,-0.104,-0.046,0.081,-0.006,-0.075,-0.008,-0.044,-0.081,-0.042,-0.035,-0.048
-0.047,-0.089,-0.042,0.069,-0.002,-0.065,-0.012,-0.053,-0.072,-0.037,-0.026,-0.041
-0.037,-0.085,-0.048,0.061,0.006,-0.067,-0.009,-0.048,-0.066,-0.043,-0.031,-0.05
-0.055,-0.086,-0.031,0.07,-0.012,-0.058,-0.009,-0.052,-0.067,-0.034,-0.02,-0.043
-0.091,-0.138,-0.047,0.115,-0.021,-0.092,-0.014,-0.031,-0.046,-0.035,-0.024,-0.056
-0.115,-0.135,-0.019,0.125,-0.048,-0.077,0.003,-0.043,-0.06,-0.031,-0.018,-0.051
-0.1,-0.145,-0.045,0.122,-0.027,-0.094,0.011,-0.007,-0.024,-0.022,-0.034,-0.057
-0.091,-0.144,-0.052,0.118,-0.019,-0.098,0.086,0.163,-0.003,-0.032,-0.052,-0.081
0.079,0.018,-0.061,-0.048,0.07,-0.022,0.07,0.487,0.29,0.169,0.117,0.05
0.369,0.493,0.123,-0.431,0.122,0.308,-0.091,0.291,0.708,0.631,0.58,0.518
0.494,1.139,0.646,-0.817,-0.076,0.892,-0.577,-0.783,0.826,1.137,1.18,1.152
0.304,0.768,0.464,-0.536,-0.08,0.615,-0.835,-1.221,0.64,0.866,0.834,0.794
-0.088,0.019,0.107,0.034,-0.098,0.063,-0.369,-0.736,0.034,0.12,0.083,0.055
-0.154,-0.038,0.116,0.096,-0.135,0.038,-0.084,-0.257,-0.129,-0.013,0.038,0.01
-0.064,-0.036,0.028,0.05,-0.045,-0.004,-0.02,-0.019,0.02,0.025,0.029,-0.012
-0.068,-0.033,0.034,0.05,-0.051,0.001,0.018,0.015,-0.04,0.009,0.005,-0.028
-0.078,-0.043,0.036,0.061,-0.057,-0.003,0.014,0.055,-0.011,0.018,0.018,-0.021
-0.1,-0.063,0.037,0.081,-0.068,-0.013,0.049,0.067,-0.019,-0.009,-0.008,-0.029
-0.076,-0.042,0.034,0.058,-0.055,-0.003,0.034,0.082,-0.006,0.007,0.014,-0.007
-0.065,-0.04,0.025,0.052,-0.045,-0.007,0.043,0.096,0.002,0.02,0.021,-0.014
-0.033,-0.009,0.025,0.021,-0.029,0.008,0.04,0.093,0.012,0.028,0.037,0.004
-0.034,-0.004,0.03,0.019,-0.032,0.013,0.038,0.118,0.027,0.023,0.034,0.002
-0.062,-0.023,0.039,0.042,-0.05,0.008,0.047,0.143,0.036,0.037,0.042,0.014
-0.038,-0.014,0.024,0.025,-0.031,0.005,0.052,0.159,0.051,0.033,0.033,0.019
-0.008,0.014,0.022,-0.003,-0.015,0.018,0.047,0.16,0.044,0.037,0.033,0.028
0.017,0.034,0.018,-0.026,0.0,0.026,0.038,0.195,0.075,0.06,0.058,0.036
0.023,0.035,0.012,-0.03,0.005,0.023,0.032,0.223,0.099,0.073,0.071,0.044
0.04,0.048,0.008,-0.044,0.015,0.028,0.024,0.265,0.129,0.101,0.097,0.062
0.066,0.098,0.032,-0.082,0.017,0.064,0.018,0.313,0.167,0.125,0.126,0.092
0.075,0.113,0.038,-0.094,0.018,0.075,0.015,0.334,0.178,0.154,0.153,0.136
0.126,0.175,0.049,-0.151,0.038,0.112,0.015,0.359,0.201,0.191,0.188,0.166
0.155,0.224,0.068,-0.19,0.044,0.145,0.005,0.367,0.223,0.222,0.226,0.207
0.156,0.22,0.064,-0.188,0.046,0.141,-0.011,0.373,0.223,0.242,0.255,0.237
0.2,0.271,0.071,-0.236,0.064,0.171,-0.017,0.352,0.212,0.237,0.251,0.233
0.208,0.291,0.084,-0.25,0.061,0.187,-0.011,0.309,0.2,0.232,0.239,0.226
0.158,0.252,0.094,-0.206,0.032,0.173,-0.006,0.268,0.184,0.216,0.231,0.224
0.129,0.218,0.089,-0.174,0.02,0.153,0.001,0.221,0.151,0.176,0.207,0.198
0.079,0.162,0.083,-0.121,-0.003,0.122,0.003,0.164,0.101,0.131,0.157,0.133
0.014,0.092,0.078,-0.053,-0.032,0.085,0.018,0.105,0.052,0.075,0.089,0.078
-0.015,0.057,0.072,-0.021,-0.044,0.064,0.032,0.061,0.01,0.033,0.044,0.044
-0.042,0.025,0.067,0.008,-0.055,0.046,0.036,0.029,-0.027,0.003,0.024,0.011
-0.058,0.001,0.059,0.028,-0.058,0.03,0.058,0.007,-0.04,-0.017,0.007,-0.011
-0.063,-0.01,0.053,0.036,-0.057,0.021,0.055,-0.012,-0.047,-0.025,-0.004,-0.025
-0.086,-0.041,0.045,0.063,-0.065,0.002,0.036,-0.024,-0.054,-0.039,-0.015,-0.032
-0.08,-0.042,0.038,0.061,-0.058,-0.002,0.032,-0.025,-0.066,-0.041,-0.025,-0.03
-0.067,-0.038,0.029,0.052,-0.048,-0.004,0.028,-0.025,-0.075,-0.039,-0.027,-0.025
-0.099,-0.06,0.039,0.079,-0.068,-0.01,0.025,-0.03,-0.067,-0.036,-0.021,-0.023
-0.098,-0.051,0.047,0.074,-0.073,-0.002,0.023,-0.028,-0.061,-0.035,-0.016,-0.019
-0.084,-0.04,0.044,0.061,-0.064,0.002,0.017,-0.022,-0.054,-0.034,-0.013,-0.013
-0.079,-0.033,0.046,0.056,-0.062,0.006,0.034,-0.019,-0.047,-0.029,-0.007,-0.028
-0.07,-0.025,0.045,0.047,-0.057,0.01,0.046,-0.014,-0.045,-0.031,-0.006,-0.042
-0.062,-0.017,0.045,0.039,-0.053,0.014,0.04,-0.01,-0.042,-0.027,-0.01,-0.034
-0.063,-0.012,0.051,0.037,-0.057,0.02,0.038,-0.005,-0.039,-0.025,-0.01,-0.027
-0.055,-0.003,0.053,0.029,-0.054,0.025,0.034,0.0,-0.035,-0.025,-0.012,-0.021
-0.053,-0.003,0.049,0.028,-0.051,0.023,0.03,0.004,-0.035,-0.025,-0.015,-0.013
-0.092,-0.042,0.05,0.067,-0.071,0.004,0.026,0.008,-0.035,-0.025,-0.015,-0.011
-0.102,-0.056,0.046,0.079,-0.074,-0.005,0.019,0.014,-0.036,-0.025,-0.011,-0.027
-0.094,-0.049,0.045,0.071,-0.069,-0.002,0.012,0.013,-0.034,-0.025,-0.01,-0.037
-0.092,-0.048,0.045,0.069,-0.068,-0.001,0.032,0.006,-0.04,-0.025,-0.009,-0.034
-0.086,-0.046,0.04,0.066,-0.063,-0.002,0.049,0.002,-0.058,-0.027,-0.016,-0.038
-0.078,-0.039,0.039,0.058,-0.058,0.0,0.043,-0.004,-0.061,-0.03,-0.032,-0.04
-0.079,-0.044,0.035,0.061,-0.057,-0.004,0.041,-0.01,-0.059,-0.032,-0.028,-0.04
-0.056,-0.023,0.033,0.039,-0.044,0.005,0.039,-0.015,-0.06,-0.035,-0.025,-0.044
-0.043,-0.014,0.029,0.029,-0.036,0.008,0.037,-0.02,-0.06,-0.035,-0.023,-0.045
-0.092,-0.063,0.028,0.077,-0.06,-0.017,0.035,-0.024,-0.06,-0.035,-0.018,-0.045
-0.09,-0.067,0.023,0.078,-0.056,-0.022,0.035,-0.029,-0.061,-0.036,-0.024,-0.05
-0.083,-0.063,0.02,0.073,-0.051,-0.021,0.035,-0.03,-0.059,-0.034,-0.022,-0.05
-0.101,-0.068,0.033,0.084,-0.067,-0.017,0.035,-0.03,-0.065,-0.039,-0.032,-0.051
-0.098,-0.071,0.027,0.084,-0.062,-0.021,0.035,-0.03,-0.076,-0.046,-0.047,-0.055
-0.087,-0.082,0.005,0.084,-0.045,-0.038,0.035,-0.03,-0.069,-0.043,-0.041,-0.055
-0.085,-0.077,0.008,0.081,-0.046,-0.034,0.035,-0.03,-0.066,-0.04,-0.039,-0.057
-0.097,-0.072,0.025,0.084,-0.061,-0.023,0.035,-0.03,-0.061,-0.038,-0.034,-0.061
-0.112,-0.066,0.046,0.089,-0.079,-0.01,0.035,-0.035,-0.056,-0.035,-0.031,-0.06
-0.121,-0.065,0.057,0.093,-0.089,-0.004,0.035,-0.035,-0.052,-0.033,-0.028,-0.057
-0.117,-0.065,0.052,0.091,-0.084,-0.006,0.031,-0.036,-0.048,-0.028,-0.024,-0.054
-0.108,-0.064,0.044,0.085,-0.075,-0.01,0.03,-0.04,-0.045,-0.025,-0.026,-0.051
-0.093,-0.058,0.035,0.075,-0.064,-0.011,0.028,-0.04,-0.041,-0.022,-0.021,-0.048
-0.084,-0.052,0.032,0.068,-0.058,-0.009,0.023,-0.037,-0.039,-0.017,-0.02,-0.046
-0.061,-0.047,0.014,0.054,-0.037,-0.016,0.03,-0.021,-0.031,-0.014,-0.02,-0.043
-0.072,-0.033,0.039,0.052,-0.055,0.003,0.05,-0.009,-0.039,-0.011,-0.015,-0.031
-0.06,-0.004,0.056,0.032,-0.058,0.026,0.049,0.016,-0.026,-0.007,-0.01,-0.016
0.001,0.037,0.036,-0.019,-0.018,0.036,0.024,0.038,-0.007,-0.004,-0.005,-0.007
0.01,0.044,0.034,-0.027,-0.012,0.039,0.013,0.033,-0.015,0.0,-0.002,-0.001
-0.007,0.014,0.021,-0.004,-0.014,0.017,0.015,0.031,-0.017,0.005,0.005,-0.001
-0.01,-0.004,0.006,0.007,-0.008,0.001,0.016,0.012,-0.023,0.002,0.001,-0.015
-0.002,0.01,0.012,-0.004,-0.007,0.011,0.019,-0.012,-0.026,-0.006,-0.014,-0.028
-0.073,-0.023,0.05,0.048,-0.061,0.013,0.022,-0.023,-0.053,-0.031,-0.033,-0.049
-0.136,-0.088,0.047,0.112,-0.091,-0.02,0.017,-0.032,-0.067,-0.051,-0.046,-0.062
-0.126,-0.086,0.04,0.106,-0.083,-0.023,0.017,-0.043,-0.064,-0.051,-0.045,-0.059
-0.11,-0.071,0.039,0.09,-0.074,-0.015,0.013,-0.05,-0.076,-0.049,-0.043,-0.059
-0.087,-0.057,0.03,0.072,-0.058,-0.013,0.017,-0.053,-0.081,-0.052,-0.047,-0.061
-0.09,-0.059,0.031,0.074,-0.06,-0.014,0.014,-0.054,-0.081,-0.048,-0.042,-0.064
-0.102,-0.087,0.015,0.094,-0.058,-0.036,0.015,-0.047,-0.077,-0.052,-0.052,-0.08
-0.103,-0.052,0.052,0.077,-0.077,0.0,0.029,-0.054,-0.085,-0.049,-0.048,-0.07
-0.104,-0.066,0.038,0.084,-0.07,-0.014,0.023,-0.045,-0.072,-0.049,-0.055,-0.082
-0.114,-0.067,0.047,0.09,-0.08,-0.01,0.028,-0.055,-0.092,-0.052,-0.058,-0.078
-0.109,-0.073,0.036,0.091,-0.072,-0.018,0.004,-0.021,-0.055,-0.05,-0.054,-0.078
-0.114,-0.106,0.008,0.11,-0.06,-0.049,0.087,0.128,-0.02,-0.06,-0.073,-0.101
0.039,0.039,0.001,-0.039,0.019,0.02,0.12,0.444,0.212,0.109,0.065,0.003
0.308,0.435,0.127,-0.372,0.09,0.281,-0.034,0.388,0.661,0.528,0.47,0.389
0.482,1.135,0.653,-0.809,-0.086,0.894,-0.467,-0.613,0.83,1.088,1.121,1.096
0.326,0.93,0.604,-0.628,-0.139,0.767,-0.818,-1.239,0.685,0.958,0.953,0.909
-0.095,0.108,0.203,-0.007,-0.15,0.155,-0.434,-0.834,0.108,0.164,0.109,0.077
-0.145,0.014,0.16,0.065,-0.153,0.087,-0.084,-0.31,-0.156,-0.053,-0.048,-0.036
-0.08,0.022,0.102,0.029,-0.091,0.062,-0.026,-0.046,0.006,-0.001,-0.009,-0.019
-0.108,-0.017,0.091,0.062,-0.099,0.037,0.041,-0.007,-0.038,-0.033,-0.039,-0.056
-0.074,-0.014,0.059,0.043,-0.066,0.022,0.035,0.031,-0.026,-0.004,-0.013,-0.032
-0.108,-0.022,0.087,0.065,-0.097,0.032,0.05,0.058,-0.023,-0.023,-0.035,-0.045
-0.087,0.01,0.097,0.038,-0.092,0.053,0.043,0.057,-0.021,-0.008,-0.014,-0.026
-0.071,0.007,0.078,0.031,-0.075,0.043,0.045,0.088,-0.008,-0.008,-0.02,-0.032
-0.064,0.034,0.097,0.015,-0.081,0.065,0.046,0.096,-0.007,-0.001,-0.007,-0.022
-0.035,0.045,0.081,-0.005,-0.058,0.063,0.043,0.093,0.012,0.005,-0.006,-0.027
-0.032,0.051,0.083,-0.01,-0.057,0.067,0.047,0.104,0.015,0.008,0.002,-0.024
-0.018,0.052,0.07,-0.017,-0.044,0.061,0.044,0.131,0.027,0.017,0.003,-0.025
-0.022,0.045,0.067,-0.012,-0.045,0.056,0.046,0.132,0.024,0.001,-0.019,-0.024
0.0,0.059,0.059,-0.03,-0.03,0.058,0.053,0.17,0.051,0.013,0.009,-0.001
0.021,0.076,0.055,-0.049,-0.017,0.065,0.052,0.212,0.076,0.045,0.039,0.015
0.033,0.107,0.074,-0.07,-0.021,0.09,0.04,0.23,0.088,0.057,0.05,0.025
0.06,0.145,0.086,-0.103,-0.013,0.116,0.035,0.27,0.122,0.086,0.075,0.045
0.079,0.165,0.086,-0.122,-0.004,0.125,0.021,0.309,0.156,0.121,0.107,0.079
0.133,0.215,0.082,-0.174,0.025,0.148,0.008,0.345,0.184,0.154,0.155,0.128
0.154,0.253,0.099,-0.204,0.027,0.176,-0.016,0.347,0.204,0.18,0.191,0.17
0.156,0.273,0.117,-0.215,0.019,0.195,-0.04,0.336,0.208,0.198,0.208,0.188
0.165,0.3,0.135,-0.233,0.015,0.217,-0.035,0.332,0.2,0.212,0.213,0.205
0.145,0.291,0.146,-0.218,-0.001,0.218,-0.029,0.302,0.185,0.197,0.209,0.212
0.121,0.25,0.129,-0.186,-0.004,0.189,-0.023,0.257,0.169,0.178,0.211,0.198
0.098,0.216,0.118,-0.157,-0.01,0.166,-0.001,0.215,0.145,0.155,0.176,0.167
0.063,0.171,0.108,-0.118,-0.023,0.14,0.028,0.165,0.091,0.112,0.121,0.114
0.018,0.118,0.099,-0.068,-0.041,0.108,0.038,0.113,0.033,0.062,0.076,0.065
-0.008,0.083,0.091,-0.038,-0.05,0.087,0.045,0.069,-0.006,0.021,0.035,0.025
-0.046,0.037,0.082,0.004,-0.064,0.059,0.039,0.026,-0.04,-0.012,-0.005,-0.015
-0.068,0.009,0.076,0.029,-0.072,0.042,0.025,-0.015,-0.057,-0.05,-0.042,-0.052
-0.051,0.017,0.068,0.017,-0.06,0.042,0.058,-0.045,-0.077,-0.075,-0.059,-0.067
-0.049,0.013,0.062,0.018,-0.056,0.038,0.062,-0.052,-0.087,-0.075,-0.06,-0.065
-0.075,-0.023,0.052,0.049,-0.063,0.014,0.038,-0.047,-0.088,-0.075,-0.06,-0.064
-0.096,-0.039,0.058,0.067,-0.077,0.009,0.042,-0.046,-0.088,-0.073,-0.06,-0.066
-0.097,-0.033,0.064,0.065,-0.08,0.015,0.038,-0.042,-0.08,-0.069,-0.06,-0.064
-0.088,-0.016,0.072,0.052,-0.08,0.028,0.036,-0.041,-0.077,-0.071,-0.06,-0.065
-0.09,0.001,0.091,0.045,-0.09,0.046,0.034,-0.037,-0.072,-0.066,-0.065,-0.077
-0.116,-0.026,0.09,0.071,-0.103,0.032,0.037,-0.031,-0.068,-0.065,-0.066,-0.078
-0.11,-0.021,0.09,0.065,-0.1,0.035,0.04,-0.024,-0.064,-0.065,-0.062,-0.068
-0.074,0.016,0.09,0.029,-0.082,0.053,0.04,-0.018,-0.065,-0.06,-0.06,-0.064
-0.053,0.037,0.09,0.008,-0.072,0.063,0.051,-0.011,-0.065,-0.06,-0.056,-0.055
-0.05,0.038,0.088,0.006,-0.069,0.063,0.051,-0.005,-0.065,-0.058,-0.055,-0.05
-0.055,0.028,0.083,0.013,-0.069,0.055,0.041,-0.006,-0.066,-0.056,-0.058,-0.071
-0.058,0.022,0.08,0.018,-0.069,0.051,0.036,-0.002,-0.062,-0.053,-0.062,-0.083
-0.059,0.018,0.077,0.02,-0.068,0.047,0.027,-0.023,-0.078,-0.067,-0.065,-0.076
-0.064,0.009,0.072,0.027,-0.068,0.041,0.021,-0.043,-0.092,-0.082,-0.065,-0.075
-0.049,0.019,0.069,0.015,-0.059,0.044,0.042,-0.039,-0.089,-0.079,-0.067,-0.071
-0.057,0.008,0.065,0.024,-0.061,0.037,0.049,-0.04,-0.088,-0.08,-0.071,-0.069
-0.077,-0.029,0.047,0.053,-0.062,0.009,0.04,-0.04,-0.084,-0.08,-0.069,-0.075
-0.058,0.005,0.063,0.026,-0.061,0.034,0.037,-0.041,-0.086,-0.08,-0.075,-0.084
-0.067,0.005,0.073,0.031,-0.07,0.039,0.029,-0.038,-0.087,-0.084,-0.085,-0.087
-0.093,-0.037,0.057,0.065,-0.075,0.01,0.026,-0.053,-0.096,-0.087,-0.091,-0.092
-0.105,-0.04,0.064,0.072,-0.084,0.012,0.03,-0.066,-0.107,-0.092,-0.086,-0.097
-0.106,-0.033,0.073,0.069,-0.089,0.02,0.03,-0.054,-0.104,-0.095,-0.085,-0.095
-0.113,-0.032,0.081,0.072,-0.097,0.024,0.03,-0.05,-0.101,-0.095,-0.085,-0.095
-0.099,-0.019,0.08,0.059,-0.09,0.031,0.029,-0.043,-0.1,-0.095,-0.081,-0.095
-0.07,0.006,0.076,0.031,-0.073,0.041,0.032,-0.034,-0.096,-0.095,-0.079,-0.095
-0.114,-0.041,0.073,0.077,-0.093,0.016,0.045,-0.048,-0.094,-0.095,-0.081,-0.095
-0.134,-0.065,0.069,0.1,-0.101,0.001,0.043,-0.063,-0.095,-0.091,-0.085,-0.099
-0.109,-0.043,0.066,0.076,-0.087,0.011,0.039,-0.059,-0.095,-0.089,-0.085,-0.1
-0.099,-0.038,0.061,0.068,-0.08,0.012,0.036,-0.056,-0.095,-0.09,-0.085,-0.1
-0.099,-0.04,0.058,0.069,-0.078,0.009,0.031,-0.054,-0.094,-0.09,-0.085,-0.1
-0.082,-0.028,0.053,0.055,-0.067,0.012,0.029,-0.049,-0.089,-0.09,-0.085,-0.1
-0.057,-0.013,0.044,0.034,-0.05,0.016,0.015,-0.054,-0.086,-0.089,-0.081,-0.099
-0.097,-0.039,0.058,0.067,-0.077,0.009,0.032,-0.06,-0.083,-0.083,-0.075,-0.093
-0.105,-0.032,0.073,0.068,-0.089,0.02,0.049,-0.05,-0.078,-0.076,-0.07,-0.087
-0.072,-0.006,0.066,0.039,-0.069,0.03,0.04,-0.04,-0.075,-0.069,-0.064,-0.081
-0.048,0.04,0.089,0.004,-0.069,0.064,0.039,-0.03,-0.072,-0.063,-0.059,-0.077
-0.02,0.077,0.097,-0.029,-0.059,0.086,0.035,-0.021,-0.066,-0.056,-0.054,-0.075
0.009,0.078,0.069,-0.044,-0.03,0.073,0.029,-0.018,-0.061,-0.058,-0.05,-0.076
0.004,0.062,0.059,-0.033,-0.028,0.06,0.013,-0.009,-0.058,-0.063,-0.044,-0.074
-0.038,0.021,0.059,0.009,-0.049,0.04,0.002,-0.022,-0.052,-0.065,-0.053,-0.077
-0.038,0.024,0.061,0.007,-0.05,0.042,0.018,-0.046,-0.051,-0.059,-0.066,-0.097
-0.057,0.007,0.063,0.024,-0.06,0.035,0.027,-0.049,-0.069,-0.071,-0.073,-0.101
-0.062,0.005,0.066,0.028,-0.064,0.035,0.02,-0.058,-0.091,-0.093,-0.084,-0.1
-0.065,0.001,0.067,0.032,-0.066,0.034,0.014,-0.062,-0.099,-0.087,-0.098,-0.11
-0.12,-0.047,0.072,0.083,-0.096,0.012,0.011,-0.074,-0.116,-0.104,-0.11,-0.115
-0.109,-0.041,0.068,0.075,-0.088,0.013,0.0,-0.083,-0.123,-0.126,-0.115,-0.12
-0.108,-0.036,0.071,0.072,-0.089,0.017,0.005,-0.079,-0.123,-0.121,-0.116,-0.12
-0.102,-0.032,0.07,0.067,-0.086,0.018,0.008,-0.07,-0.112,-0.112,-0.112,-0.118
-0.091,-0.022,0.069,0.056,-0.08,0.023,0.014,-0.065,-0.114,-0.115,-0.119,-0.123
-0.081,0.0,0.081,0.04,-0.081,0.04,0.006,-0.058,-0.105,-0.102,-0.11,-0.116
-0.088,-0.023,0.065,0.055,-0.076,0.021,0.008,-0.06,-0.106,-0.109,-0.124,-0.125
-0.098,-0.007,0.09,0.052,-0.094,0.041,0.004,-0.095,-0.123,-0.103,-0.115,-0.114
-0.069,-0.005,0.064,0.037,-0.066,0.029,0.022,-0.013,-0.058,-0.096,-0.124,-0.127
-0.106,-0.006,0.1,0.056,-0.103,0.047,0.12,0.192,-0.016,-0.089,-0.111,-0.106
0.096,0.162,0.066,-0.13,0.015,0.114,0.077,0.501,0.337,0.152,0.091,0.037
0.404,0.699,0.295,-0.552,0.054,0.497,-0.134,0.158,0.718,0.647,0.608,0.556
0.499,1.251,0.752,-0.875,-0.127,1.002,-0.628,-0.935,0.793,1.09,1.134,1.117
0.223,0.709,0.486,-0.466,-0.132,0.597,-0.791,-1.231,0.517,0.667,0.632,0.604
-0.163,0.067,0.23,0.048,-0.196,0.148,-0.309,-0.71,-0.079,-0.034,-0.071,-0.064
-0.122,0.084,0.206,0.019,-0.164,0.145,-0.067,-0.233,-0.125,-0.07,-0.074,-0.076
-0.076,0.049,0.124,0.013,-0.1,0.086,-0.008,-0.025,-0.023,-0.058,-0.081,-0.089
-0.091,0.056,0.148,0.017,-0.12,0.102,0.027,-0.01,-0.069,-0.086,-0.079,-0.084
-0.069,0.046,0.115,0.011,-0.092,0.081,0.021,0.026,-0.03,-0.08,-0.07,-0.098
-0.079,0.036,0.115,0.021,-0.097,0.075,0.052,0.04,-0.053,-0.088,-0.081,-0.104
-0.052,0.053,0.105,-0.001,-0.078,0.079,0.048,0.059,-0.034,-0.071,-0.064,-0.082
-0.049,0.067,0.116,-0.009,-0.082,0.091,0.056,0.073,-0.037,-0.077,-0.07,-0.084
-0.012,0.102,0.114,-0.045,-0.063,0.107,0.055,0.079,-0.005,-0.065,-0.056,-0.068
-0.018,0.08,0.098,-0.031,-0.058,0.089,0.06,0.098,0.016,-0.063,-0.059,-0.069
-0.036,0.072,0.108,-0.018,-0.072,0.09,0.059,0.108,0.015,-0.051,-0.049,-0.057
-0.027,0.088,0.115,-0.031,-0.071,0.101,0.054,0.124,0.031,-0.044,-0.05,-0.054
-0.016,0.102,0.118,-0.043,-0.067,0.11,0.053,0.142,0.024,-0.033,-0.05,-0.044
-0.011,0.099,0.11,-0.044,-0.061,0.104,0.049,0.173,0.044,-0.018,-0.031,-0.022
-0.005,0.099,0.104,-0.047,-0.055,0.101,0.046,0.203,0.068,-0.005,0.0,-0.006
0.051,0.171,0.121,-0.111,-0.035,0.146,0.045,0.234,0.09,0.02,0.023,0.012
0.062,0.199,0.138,-0.131,-0.038,0.168,0.038,0.277,0.122,0.047,0.038,0.032
0.075,0.205,0.13,-0.14,-0.028,0.168,0.016,0.317,0.15,0.079,0.076,0.069
0.131,0.26,0.129,-0.195,0.0,0.194,-0.008,0.353,0.19,0.119,0.123,0.121
0.159,0.281,0.123,-0.221,0.018,0.202,-0.034,0.363,0.206,0.145,0.15,0.152
0.18,0.323,0.143,-0.252,0.018,0.232,-0.042,0.344,0.214,0.155,0.168,0.175
0.187,0.351,0.164,-0.269,0.011,0.257,-0.039,0.322,0.216,0.16,0.183,0.188
0.176,0.333,0.157,-0.255,0.01,0.244,-0.041,0.312,0.185,0.161,0.175,0.181
0.162,0.318,0.156,-0.241,0.003,0.237,-0.04,0.26,0.143,0.142,0.141,0.168
0.123,0.275,0.152,-0.199,-0.014,0.213,-0.019,0.177,0.099,0.089,0.1,0.126
0.061,0.211,0.15,-0.136,-0.045,0.18,0.015,0.127,0.061,0.035,0.055,0.07
0.016,0.164,0.147,-0.09,-0.066,0.155,0.027,0.08,0.022,-0.011,0.0,0.02
-0.023,0.114,0.138,-0.046,-0.081,0.126,0.037,0.03,-0.011,-0.056,-0.047,-0.024
-0.053,0.074,0.127,-0.011,-0.09,0.1,0.046,0.001,-0.052,-0.083,-0.076,-0.057
-0.051,0.068,0.119,-0.009,-0.085,0.094,0.044,-0.016,-0.078,-0.106,-0.092,-0.069
-0.041,0.071,0.112,-0.015,-0.077,0.091,0.048,-0.041,-0.089,-0.115,-0.113,-0.088
-0.037,0.07,0.106,-0.017,-0.071,0.088,0.05,-0.057,-0.106,-0.116,-0.13,-0.107
-0.032,0.067,0.099,-0.017,-0.066,0.082,0.05,-0.053,-0.105,-0.121,-0.124,-0.099
-0.028,0.065,0.092,-0.019,-0.061,0.078,0.045,-0.051,-0.105,-0.117,-0.118,-0.095
-0.027,0.065,0.092,-0.019,-0.06,0.078,0.038,-0.047,-0.105,-0.114,-0.113,-0.092
-0.035,0.06,0.095,-0.014,-0.065,0.077,0.03,-0.045,-0.105,-0.112,-0.107,-0.086
-0.054,0.059,0.114,-0.003,-0.084,0.086,0.025,-0.043,-0.101,-0.109,-0.103,-0.085
-0.061,0.062,0.122,0.0,-0.091,0.092,0.013,-0.04,-0.095,-0.106,-0.099,-0.085
-0.054,0.065,0.119,-0.005,-0.087,0.091,0.018,-0.037,-0.089,-0.104,-0.1,-0.085
-0.055,0.065,0.121,-0.005,-0.089,0.092,0.045,-0.034,-0.086,-0.101,-0.096,-0.085
-0.055,0.065,0.12,-0.005,-0.088,0.092,0.04,-0.031,-0.091,-0.1,-0.095,-0.085
-0.055,0.065,0.12,-0.005,-0.088,0.092,0.032,-0.03,-0.09,-0.1,-0.096,-0.085
-0.051,0.065,0.115,-0.008,-0.083,0.09,0.027,-0.035,-0.09,-0.1,-0.1,-0.09
-0.05,0.065,0.115,-0.008,-0.083,0.09,0.018,-0.035,-0.09,-0.1,-0.1,-0.09
-0.049,0.065,0.114,-0.008,-0.082,0.089,0.014,-0.035,-0.09,-0.102,-0.101,-0.091
-0.046,0.063,0.109,-0.009,-0.078,0.086,0.009,-0.037,-0.093,-0.107,-0.105,-0.096
-0.06,0.051,0.111,0.004,-0.085,0.081,0.011,-0.042,-0.096,-0.11,-0.105,-0.094
-0.072,0.035,0.107,0.019,-0.09,0.071,0.007,-0.044,-0.094,-0.105,-0.105,-0.098
-0.058,0.039,0.098,0.009,-0.078,0.069,0.004,-0.043,-0.096,-0.106,-0.106,-0.1
-0.044,0.046,0.09,-0.001,-0.068,0.068,0.006,-0.068,-0.112,-0.123,-0.109,-0.1
-0.036,0.045,0.08,-0.005,-0.059,0.062,0.001,-0.074,-0.115,-0.125,-0.11,-0.1
-0.03,0.045,0.075,-0.007,-0.053,0.06,0.0,-0.064,-0.109,-0.119,-0.11,-0.1
-0.029,0.041,0.07,-0.006,-0.05,0.055,0.0,-0.062,-0.108,-0.118,-0.11,-0.099
-0.027,0.038,0.065,-0.006,-0.046,0.051,-0.004,-0.054,-0.101,-0.111,-0.11,-0.095
-0.027,0.035,0.062,-0.004,-0.045,0.049,-0.005,-0.051,-0.101,-0.11,-0.109,-0.095
-0.022,0.032,0.054,-0.006,-0.038,0.043,-0.004,-0.057,-0.106,-0.115,-0.105,-0.095
-0.036,0.03,0.066,0.003,-0.051,0.048,0.001,-0.069,-0.107,-0.115,-0.105,-0.095
-0.048,0.028,0.076,0.01,-0.063,0.052,0.006,-0.07,-0.103,-0.116,-0.106,-0.095
-0.048,0.022,0.07,0.013,-0.059,0.046,0.009,-0.07,-0.1,-0.12,-0.103,-0.095
-0.05,0.019,0.068,0.015,-0.059,0.043,0.007,-0.07,-0.098,-0.12,-0.116,-0.098
-0.048,0.015,0.062,0.016,-0.056,0.038,0.001,-0.07,-0.093,-0.117,-0.131,-0.101
-0.053,0.008,0.061,0.023,-0.058,0.035,-0.002,-0.07,-0.106,-0.114,-0.122,-0.097
-0.057,-0.003,0.054,0.029,-0.055,0.025,-0.008,-0.07,-0.115,-0.115,-0.116,-0.095
-0.074,-0.007,0.067,0.04,-0.07,0.03,-0.009,-0.075,-0.107,-0.111,-0.11,-0.091
-0.055,0.033,0.088,0.01,-0.072,0.06,0.0,-0.074,-0.101,-0.109,-0.101,-0.09
-0.024,0.059,0.084,-0.018,-0.054,0.071,0.01,-0.071,-0.097,-0.111,-0.108,-0.098
-0.027,0.059,0.086,-0.017,-0.056,0.072,0.021,-0.048,-0.087,-0.093,-0.094,-0.094
-0.015,0.065,0.08,-0.025,-0.048,0.072,0.016,-0.022,-0.072,-0.074,-0.077,-0.082
-0.009,0.061,0.07,-0.027,-0.04,0.066,0.005,-0.025,-0.075,-0.07,-0.081,-0.074
0.001,0.053,0.052,-0.027,-0.026,0.053,-0.006,-0.029,-0.075,-0.069,-0.08,-0.073
0.013,0.048,0.035,-0.031,-0.012,0.041,-0.006,-0.029,-0.077,-0.064,-0.084,-0.077
0.005,0.041,0.036,-0.024,-0.016,0.038,-0.005,-0.039,-0.082,-0.066,-0.085,-0.079
0.001,0.033,0.033,-0.017,-0.016,0.033,-0.005,-0.042,-0.077,-0.089,-0.085,-0.084
-0.014,0.029,0.043,-0.007,-0.029,0.036,-0.005,-0.058,-0.094,-0.108,-0.096,-0.1
-0.064,-0.02,0.043,0.042,-0.053,0.011,-0.006,-0.081,-0.112,-0.114,-0.11,-0.112
-0.084,-0.046,0.037,0.065,-0.06,-0.004,-0.003,-0.089,-0.124,-0.116,-0.11,-0.109
-0.071,-0.037,0.034,0.053,-0.052,-0.001,-0.008,-0.087,-0.123,-0.114,-0.109,-0.11
-0.059,-0.032,0.027,0.045,-0.043,-0.002,0.0,-0.084,-0.127,-0.117,-0.112,-0.111
-0.051,-0.024,0.027,0.037,-0.039,0.002,-0.02,-0.08,-0.127,-0.113,-0.107,-0.108
-0.071,-0.037,0.034,0.054,-0.052,-0.001,-0.027,-0.076,-0.13,-0.117,-0.116,-0.114
-0.064,-0.025,0.039,0.044,-0.052,0.007,-0.029,-0.075,-0.133,-0.113,-0.111,-0.105
-0.07,-0.028,0.043,0.049,-0.056,0.007,-0.019,-0.065,-0.116,-0.117,-0.119,-0.117
-0.069,-0.003,0.066,0.036,-0.067,0.031,-0.016,-0.09,-0.127,-0.115,-0.111,-0.102
-0.041,-0.062,-0.022,0.052,-0.009,-0.042,-0.011,-0.031,-0.081,-0.112,-0.124,-0.13
-0.055,-0.051,0.005,0.053,-0.03,-0.023,0.086,0.174,-0.023,-0.083,-0.108,-0.136
0.128,0.153,0.026,-0.141,0.051,0.089,0.055,0.485,0.321,0.146,0.082,0.027
0.414,0.68,0.266,-0.548,0.074,0.473,-0.144,0.134,0.71,0.637,0.602,0.558
0.508,1.233,0.725,-0.871,-0.109,0.979,-0.653,-0.95,0.78,1.095,1.134,1.122
0.231,0.671,0.441,-0.451,-0.105,0.555,-0.805,-1.219,0.513,0.672,0.631,0.613
-0.103,0.049,0.152,0.027,-0.128,0.1,-0.323,-0.699,-0.066,-0.039,-0.074,-0.056
-0.054,0.085,0.14,-0.016,-0.097,0.112,-0.094,-0.238,-0.136,-0.088,-0.08,-0.048
-0.027,0.041,0.068,-0.007,-0.047,0.054,-0.02,-0.029,-0.026,-0.073,-0.086,-0.081
-0.031,0.054,0.084,-0.012,-0.057,0.069,0.025,-0.011,-0.075,-0.087,-0.084,-0.093
-0.003,0.051,0.054,-0.024,-0.028,0.052,0.025,0.037,-0.041,-0.067,-0.075,-0.084
-0.036,0.042,0.078,-0.004,-0.057,0.06,0.036,0.046,-0.063,-0.083,-0.086,-0.089
-0.019,0.05,0.069,-0.016,-0.044,0.059,0.025,0.053,-0.051,-0.067,-0.068,-0.077
-0.021,0.039,0.06,-0.01,-0.041,0.05,0.034,0.047,-0.053,-0.07,-0.072,-0.084
-0.005,0.055,0.061,-0.025,-0.033,0.058,0.027,0.058,-0.034,-0.058,-0.057,-0.072
0.007,0.055,0.048,-0.032,-0.02,0.051,0.028,0.082,-0.02,-0.057,-0.057,-0.069
0.005,0.051,0.046,-0.029,-0.021,0.048,0.022,0.092,-0.018,-0.049,-0.046,-0.057
0.006,0.069,0.063,-0.038,-0.028,0.066,0.019,0.128,-0.001,-0.045,-0.042,-0.052
0.009,0.083,0.074,-0.047,-0.032,0.078,0.017,0.146,0.019,-0.036,-0.026,-0.043
0.021,0.081,0.06,-0.052,-0.019,0.071,0.01,0.171,0.041,-0.019,-0.013,-0.036
0.036,0.09,0.054,-0.063,-0.009,0.072,0.01,0.19,0.048,0.003,-0.003,-0.025
0.06,0.102,0.042,-0.081,0.009,0.071,-0.001,0.217,0.071,0.029,0.012,-0.009
0.083,0.146,0.063,-0.115,0.01,0.104,-0.008,0.261,0.102,0.05,0.031,0.023
0.117,0.197,0.08,-0.157,0.018,0.138,-0.018,0.299,0.13,0.081,0.081,0.067
0.138,0.209,0.071,-0.174,0.033,0.14,-0.026,0.324,0.154,0.112,0.118,0.102
0.181,0.259,0.078,-0.221,0.051,0.169,-0.025,0.328,0.183,0.146,0.148,0.151
0.205,0.312,0.107,-0.259,0.049,0.209,-0.057,0.335,0.192,0.173,0.182,0.183
0.192,0.305,0.113,-0.249,0.039,0.208,-0.064,0.328,0.176,0.18,0.182,0.201
0.21,0.31,0.1,-0.26,0.054,0.205,-0.049,0.278,0.164,0.165,0.172,0.201
0.19,0.288,0.097,-0.239,0.046,0.192,-0.046,0.218,0.136,0.135,0.15,0.169
0.149,0.236,0.087,-0.193,0.031,0.161,-0.025,0.172,0.096,0.096,0.111,0.125
0.108,0.185,0.078,-0.147,0.014,0.131,0.005,0.105,0.047,0.046,0.051,0.071
0.068,0.136,0.067,-0.102,0.001,0.101,0.022,0.048,-0.007,0.002,-0.002,0.025
0.038,0.095,0.058,-0.067,-0.01,0.076,0.021,0.01,-0.038,-0.042,-0.034,-0.013
0.011,0.064,0.054,-0.038,-0.022,0.059,0.017,-0.029,-0.068,-0.074,-0.074,-0.051
-0.027,0.023,0.049,0.002,-0.038,0.036,0.011,-0.049,-0.091,-0.09,-0.094,-0.073
-0.043,0.005,0.047,0.019,-0.045,0.026,0.008,-0.049,-0.093,-0.092,-0.091,-0.071
-0.02,0.021,0.041,-0.001,-0.031,0.031,0.001,-0.064,-0.107,-0.104,-0.103,-0.084
-0.028,0.013,0.041,0.008,-0.035,0.026,0.003,-0.094,-0.124,-0.124,-0.123,-0.104
-0.048,-0.002,0.046,0.024,-0.047,0.022,0.02,-0.091,-0.12,-0.118,-0.119,-0.097
-0.087,-0.028,0.058,0.057,-0.072,0.015,0.02,-0.083,-0.112,-0.11,-0.11,-0.089
-0.1,-0.023,0.077,0.061,-0.089,0.027,0.015,-0.08,-0.106,-0.104,-0.106,-0.081
-0.065,0.008,0.073,0.028,-0.069,0.041,0.013,-0.07,-0.099,-0.099,-0.104,-0.076
-0.046,0.017,0.063,0.014,-0.054,0.04,0.008,-0.064,-0.095,-0.101,-0.105,-0.08
-0.034,0.027,0.061,0.003,-0.047,0.044,0.005,-0.055,-0.096,-0.097,-0.105,-0.08
-0.035,0.022,0.057,0.007,-0.047,0.039,0.008,-0.047,-0.092,-0.095,-0.105,-0.08
-0.046,0.009,0.055,0.018,-0.051,0.031,0.011,-0.041,-0.09,-0.095,-0.105,-0.08
-0.054,-0.002,0.052,0.028,-0.053,0.025,0.009,-0.039,-0.09,-0.098,-0.109,-0.08
-0.056,-0.009,0.048,0.032,-0.051,0.019,0.011,-0.036,-0.086,-0.101,-0.11,-0.077
-0.059,0.0,0.059,0.029,-0.059,0.029,0.009,-0.034,-0.085,-0.1,-0.11,-0.074
-0.057,0.005,0.062,0.026,-0.06,0.033,0.005,-0.029,-0.084,-0.1,-0.11,-0.075
-0.044,-0.003,0.041,0.023,-0.043,0.019,0.006,-0.033,-0.081,-0.099,-0.11,-0.075
-0.022,0.009,0.031,0.006,-0.027,0.02,0.002,-0.049,-0.078,-0.101,-0.109,-0.075
-0.041,-0.011,0.029,0.026,-0.035,0.009,0.0,-0.051,-0.087,-0.105,-0.104,-0.076
-0.087,-0.061,0.026,0.073,-0.056,-0.017,-0.001,-0.049,-0.101,-0.105,-0.106,-0.082
-0.073,-0.049,0.024,0.061,-0.048,-0.013,0.008,-0.052,-0.1,-0.107,-0.102,-0.089
-0.071,-0.052,0.02,0.061,-0.045,-0.015,0.017,-0.054,-0.098,-0.11,-0.1,-0.09
-0.074,-0.054,0.02,0.064,-0.047,-0.017,0.01,-0.063,-0.095,-0.11,-0.1,-0.091
-0.053,-0.033,0.02,0.043,-0.037,-0.006,0.007,-0.067,-0.094,-0.107,-0.096,-0.094
-0.046,-0.027,0.019,0.036,-0.032,-0.003,0.001,-0.061,-0.098,-0.102,-0.093,-0.096
-0.039,-0.018,0.021,0.028,-0.03,0.002,0.0,-0.056,-0.103,-0.099,-0.089,-0.093
-0.063,-0.051,0.011,0.057,-0.037,-0.02,-0.012,-0.053,-0.101,-0.096,-0.086,-0.09
-0.068,-0.07,-0.002,0.069,-0.033,-0.036,-0.017,-0.046,-0.099,-0.091,-0.08,-0.09
-0.044,-0.06,-0.017,0.052,-0.013,-0.038,0.009,-0.05,-0.1,-0.091,-0.085,-0.088
-0.058,-0.074,-0.015,0.066,-0.021,-0.044,0.012,-0.062,-0.1,-0.1,-0.096,-0.084
-0.082,-0.072,0.009,0.077,-0.045,-0.031,0.006,-0.058,-0.1,-0.106,-0.091,-0.085
-0.073,-0.071,0.002,0.072,-0.038,-0.034,0.007,-0.055,-0.098,-0.105,-0.088,-0.093
-0.064,-0.069,-0.005,0.067,-0.03,-0.037,0.0,-0.052,-0.094,-0.105,-0.085,-0.096
-0.057,-0.066,-0.009,0.061,-0.023,-0.037,0.001,-0.05,-0.096,-0.105,-0.08,-0.095
-0.038,-0.065,-0.026,0.051,-0.005,-0.045,0.002,-0.048,-0.094,-0.105,-0.084,-0.092
-0.072,-0.069,0.004,0.07,-0.038,-0.032,0.007,-0.039,-0.095,-0.1,-0.082,-0.089
-0.075,-0.068,0.007,0.071,-0.041,-0.031,0.008,-0.033,-0.095,-0.092,-0.073,-0.091
0.003,-0.025,-0.028,0.011,0.016,-0.026,0.014,-0.025,-0.089,-0.084,-0.066,-0.077
0.036,0.02,-0.016,-0.028,0.026,0.002,0.038,-0.02,-0.074,-0.062,-0.057,-0.065
0.03,0.023,-0.006,-0.026,0.018,0.008,0.003,-0.019,-0.049,-0.053,-0.058,-0.065
0.028,0.009,-0.019,-0.018,0.023,-0.005,-0.028,-0.021,-0.043,-0.056,-0.061,-0.065
0.043,0.007,-0.036,-0.025,0.04,-0.014,-0.014,-0.016,-0.049,-0.054,-0.059,-0.065
0.036,-0.022,-0.058,-0.007,0.048,-0.04,-0.015,-0.016,-0.053,-0.056,-0.066,-0.065
0.008,-0.059,-0.067,0.026,0.037,-0.062,-0.011,-0.03,-0.058,-0.053,-0.063,-0.066
-0.009,-0.072,-0.064,0.041,0.028,-0.068,-0.008,-0.045,-0.062,-0.067,-0.072,-0.07
-0.031,-0.098,-0.067,0.065,0.018,-0.082,-0.006,-0.074,-0.091,-0.093,-0.093,-0.085
-0.034,-0.097,-0.062,0.066,0.014,-0.079,-0.003,-0.082,-0.104,-0.088,-0.087,-0.081
-0.024,-0.092,-0.068,0.058,0.022,-0.079,0.01,-0.073,-0.093,-0.099,-0.102,-0.092
-0.025,-0.083,-0.057,0.054,0.016,-0.069,0.018,-0.075,-0.1,-0.106,-0.11,-0.1
-0.054,-0.116,-0.062,0.085,0.004,-0.089,0.006,-0.066,-0.086,-0.092,-0.099,-0.093
-0.089,-0.149,-0.06,0.119,-0.014,-0.104,0.011,-0.067,-0.095,-0.094,-0.1,-0.093
-0.087,-0.143,-0.056,0.115,-0.015,-0.099,-0.002,-0.067,-0.089,-0.077,-0.086,-0.08
-0.085,-0.157,-0.072,0.121,-0.007,-0.115,0.003,-0.081,-0.101,-0.083,-0.093,-0.097
-0.067,-0.145,-0.078,0.106,0.006,-0.111,0.01,-0.074,-0.089,-0.077,-0.071,-0.079
-0.048,-0.168,-0.121,0.108,0.037,-0.144,0.037,0.024,-0.033,-0.101,-0.085,-0.109
-0.025,-0.095,-0.069,0.06,0.022,-0.082,0.112,0.277,0.056,-0.028,-0.047,-0.078
0.192,0.132,-0.06,-0.162,0.126,0.036,0.051,0.516,0.47,0.284,0.206,0.151
0.467,0.783,0.316,-0.626,0.075,0.549,-0.251,-0.13,0.772,0.805,0.809,0.774
0.496,1.108,0.612,-0.802,-0.058,0.86,-0.736,-1.11,0.8,1.107,1.144,1.135
0.13,0.348,0.217,-0.239,-0.044,0.282,-0.676,-1.094,0.396,0.47,0.431,0.403
-0.15,-0.096,0.054,0.123,-0.102,-0.021,-0.189,-0.544,-0.138,-0.083,-0.084,-0.082
-0.031,-0.043,-0.011,0.037,-0.01,-0.027,-0.026,-0.139,-0.055,-0.032,-0.033,-0.025
-0.015,-0.078,-0.063,0.047,0.024,-0.07,0.029,-0.011,-0.014,-0.059,-0.068,-0.066
-0.041,-0.08,-0.039,0.061,-0.001,-0.059,0.046,0.007,-0.057,-0.047,-0.048,-0.044
-0.015,-0.101,-0.086,0.059,0.036,-0.093,0.031,0.046,-0.023,-0.049,-0.058,-0.061
-0.026,-0.097,-0.071,0.061,0.023,-0.083,0.038,0.043,-0.035,-0.052,-0.055,-0.053
-0.013,-0.099,-0.086,0.057,0.037,-0.093,0.063,0.066,-0.004,-0.039,-0.047,-0.049
0.002,-0.087,-0.088,0.043,0.045,-0.087,0.078,0.096,-0.005,-0.044,-0.045,-0.045
0.021,-0.078,-0.099,0.029,0.06,-0.088,0.059,0.112,0.007,-0.032,-0.033,-0.033
0.014,-0.074,-0.088,0.031,0.051,-0.081,0.062,0.113,0.013,-0.032,-0.032,-0.032
0.013,-0.065,-0.078,0.026,0.046,-0.071,0.047,0.125,0.016,-0.014,-0.02,-0.019
0.017,-0.065,-0.082,0.024,0.05,-0.073,0.049,0.148,0.034,-0.006,-0.014,-0.015
0.025,-0.053,-0.078,0.014,0.052,-0.065,0.067,0.171,0.065,0.006,-0.002,-0.003
0.027,-0.055,-0.082,0.014,0.055,-0.068,0.061,0.208,0.074,0.014,0.007,0.002
0.052,-0.033,-0.085,-0.009,0.068,-0.058,0.051,0.226,0.087,0.032,0.029,0.028
0.083,-0.002,-0.085,-0.04,0.084,-0.043,0.043,0.253,0.116,0.058,0.056,0.055
0.082,0.002,-0.08,-0.042,0.081,-0.039,0.033,0.301,0.142,0.083,0.073,0.071
0.129,0.049,-0.079,-0.089,0.104,-0.015,0.026,0.331,0.174,0.116,0.107,0.11
0.181,0.106,-0.075,-0.143,0.127,0.016,0.017,0.353,0.205,0.155,0.152,0.155
0.225,0.153,-0.072,-0.189,0.148,0.04,0.009,0.353,0.228,0.192,0.192,0.196
0.264,0.2,-0.064,-0.232,0.164,0.068,0.001,0.344,0.225,0.193,0.216,0.225
0.255,0.196,-0.058,-0.225,0.156,0.069,0.0,0.327,0.215,0.184,0.217,0.241
0.233,0.188,-0.045,-0.211,0.139,0.072,0.0,0.293,0.195,0.182,0.211,0.231
0.174,0.15,-0.024,-0.162,0.099,0.063,0.001,0.237,0.151,0.156,0.18,0.189
0.134,0.086,-0.047,-0.11,0.09,0.019,0.026,0.185,0.11,0.113,0.127,0.141
0.093,0.038,-0.054,-0.065,0.073,-0.008,0.044,0.131,0.068,0.062,0.078,0.086
0.04,-0.02,-0.059,-0.01,0.05,-0.039,0.056,0.064,0.025,0.025,0.034,0.039
0.024,-0.038,-0.062,0.007,0.043,-0.05,0.069,0.036,-0.014,-0.005,-0.001,0.004
-0.005,-0.077,-0.072,0.041,0.034,-0.074,0.067,0.019,-0.037,-0.034,-0.022,-0.018
0.018,-0.105,-0.123,0.044,0.071,-0.114,0.084,-0.004,-0.051,-0.056,-0.045,-0.031
-0.007,-0.126,-0.119,0.067,0.056,-0.122,0.077,-0.02,-0.068,-0.078,-0.069,-0.052
-0.059,-0.166,-0.107,0.113,0.024,-0.136,0.057,-0.035,-0.07,-0.081,-0.071,-0.056
-0.031,-0.138,-0.106,0.085,0.038,-0.122,0.06,-0.04,-0.075,-0.079,-0.069,-0.054
-0.032,-0.136,-0.104,0.085,0.036,-0.12,0.059,-0.037,-0.072,-0.076,-0.07,-0.055
-0.046,-0.151,-0.105,0.099,0.03,-0.128,0.062,-0.031,-0.064,-0.074,-0.07,-0.055
-0.039,-0.144,-0.105,0.092,0.034,-0.125,0.065,-0.027,-0.061,-0.075,-0.069,-0.054
-0.023,-0.143,-0.119,0.083,0.048,-0.131,0.065,-0.022,-0.054,-0.067,-0.064,-0.049
-0.025,-0.136,-0.112,0.081,0.044,-0.124,0.063,-0.018,-0.049,-0.063,-0.061,-0.044
-0.058,-0.136,-0.077,0.097,0.01,-0.106,0.056,-0.013,-0.045,-0.057,-0.058,-0.039
-0.05,-0.131,-0.081,0.091,0.016,-0.106,0.051,-0.01,-0.045,-0.051,-0.053,-0.035
-0.009,-0.13,-0.121,0.069,0.056,-0.125,0.046,-0.01,-0.045,-0.046,-0.051,-0.03
-0.017,-0.125,-0.108,0.071,0.046,-0.116,0.04,-0.01,-0.045,-0.048,-0.046,-0.035
-0.018,-0.126,-0.107,0.072,0.045,-0.116,0.036,-0.01,-0.045,-0.063,-0.045,-0.044
-0.024,-0.142,-0.119,0.084,0.048,-0.13,0.043,-0.01,-0.045,-0.066,-0.045,-0.046
-0.041,-0.148,-0.107,0.094,0.033,-0.127,0.046,-0.015,-0.049,-0.065,-0.045,-0.049
-0.038,-0.149,-0.111,0.094,0.036,-0.13,0.045,-0.03,-0.053,-0.065,-0.062,-0.052
-0.042,-0.141,-0.1,0.092,0.029,-0.12,0.05,-0.038,-0.061,-0.065,-0.072,-0.055
-0.016,-0.132,-0.116,0.074,0.05,-0.124,0.05,-0.035,-0.066,-0.065,-0.069,-0.055
0.02,-0.127,-0.147,0.054,0.083,-0.137,0.049,-0.036,-0.064,-0.065,-0.068,-0.055
0.031,-0.113,-0.144,0.041,0.088,-0.128,0.044,-0.034,-0.065,-0.066,-0.064,-0.055
-0.002,-0.147,-0.145,0.075,0.072,-0.146,0.041,-0.044,-0.073,-0.064,-0.065,-0.055
-0.029,-0.174,-0.145,0.102,0.058,-0.159,0.038,-0.056,-0.075,-0.074,-0.065,-0.059
-0.023,-0.167,-0.144,0.096,0.06,-0.155,0.033,-0.05,-0.068,-0.081,-0.064,-0.06
-0.035,-0.183,-0.148,0.109,0.057,-0.165,0.03,-0.045,-0.065,-0.079,-0.067,-0.06
-0.032,-0.182,-0.149,0.107,0.059,-0.165,0.034,-0.043,-0.06,-0.08,-0.07,-0.064
-0.025,-0.176,-0.151,0.1,0.063,-0.163,0.046,-0.034,-0.055,-0.08,-0.065,-0.065
-0.023,-0.171,-0.149,0.097,0.063,-0.16,0.051,-0.043,-0.066,-0.08,-0.056,-0.063
-0.013,-0.164,-0.152,0.088,0.07,-0.158,0.056,-0.056,-0.072,-0.077,-0.053,-0.06
-0.014,-0.161,-0.148,0.088,0.067,-0.154,0.059,-0.054,-0.067,-0.074,-0.041,-0.057
-0.016,-0.165,-0.149,0.091,0.067,-0.157,0.058,-0.056,-0.065,-0.075,-0.046,-0.055
0.001,-0.166,-0.167,0.083,0.084,-0.166,0.053,-0.054,-0.061,-0.074,-0.07,-0.051
0.002,-0.161,-0.163,0.08,0.083,-0.162,0.052,-0.056,-0.06,-0.075,-0.067,-0.05
-0.036,-0.187,-0.151,0.112,0.057,-0.168,0.047,-0.052,-0.056,-0.074,-0.061,-0.047
-0.04,-0.188,-0.147,0.114,0.054,-0.167,0.046,-0.045,-0.047,-0.068,-0.058,-0.041
-0.021,-0.171,-0.149,0.096,0.065,-0.16,0.043,-0.037,-0.04,-0.062,-0.052,-0.036
-0.02,-0.173,-0.154,0.097,0.067,-0.163,0.035,-0.031,-0.03,-0.056,-0.049,-0.033
0.014,-0.143,-0.157,0.065,0.086,-0.15,0.051,-0.022,-0.027,-0.052,-0.045,-0.028
0.055,-0.105,-0.16,0.025,0.108,-0.132,0.047,0.006,-0.029,-0.053,-0.046,-0.023
0.072,-0.089,-0.161,0.009,0.117,-0.125,0.033,0.01,-0.031,-0.056,-0.043,-0.02
0.056,-0.118,-0.174,0.031,0.115,-0.146,0.035,0.014,-0.028,-0.054,-0.039,-0.019
0.044,-0.155,-0.199,0.055,0.122,-0.177,0.029,0.005,-0.033,-0.056,-0.04,-0.021
0.082,-0.127,-0.209,0.023,0.146,-0.168,0.028,-0.011,-0.025,-0.054,-0.044,-0.018
0.05,-0.15,-0.2,0.05,0.125,-0.175,0.025,-0.025,-0.033,-0.056,-0.057,-0.034
0.012,-0.182,-0.194,0.085,0.103,-0.188,0.024,-0.06,-0.076,-0.08,-0.074,-0.065
0.008,-0.174,-0.182,0.083,0.095,-0.178,0.027,-0.071,-0.09,-0.087,-0.075,-0.065
-0.028,-0.214,-0.186,0.121,0.08,-0.2,0.022,-0.073,-0.08,-0.083,-0.076,-0.064
-0.022,-0.207,-0.185,0.115,0.082,-0.196,0.028,-0.086,-0.085,-0.084,-0.083,-0.067
-0.007,-0.191,-0.183,0.1,0.088,-0.187,0.021,-0.078,-0.076,-0.076,-0.077,-0.062
-0.002,-0.193,-0.19,0.098,0.094,-0.191,0.029,-0.061,-0.082,-0.084,-0.083,-0.069
0.001,-0.184,-0.185,0.092,0.093,-0.185,0.027,-0.058,-0.081,-0.071,-0.071,-0.059
-0.035,-0.237,-0.202,0.136,0.084,-0.219,0.031,-0.043,-0.076,-0.078,-0.078,-0.072
-0.045,-0.232,-0.187,0.139,0.071,-0.209,0.032,-0.052,-0.083,-0.07,-0.073,-0.057
-0.021,-0.234,-0.213,0.128,0.096,-0.223,0.029,-0.008,-0.034,-0.069,-0.084,-0.081
-0.011,-0.2,-0.189,0.106,0.089,-0.194,0.117,0.191,0.01,-0.061,-0.073,-0.082
0.166,-0.042,-0.208,-0.062,0.187,-0.125,0.102,0.508,0.367,0.19,0.123,0.084
0.427,0.484,0.057,-0.455,0.185,0.27,-0.113,0.154,0.729,0.665,0.626,0.596
0.546,1.075,0.529,-0.811,0.009,0.801,-0.62,-0.915,0.8,1.11,1.153,1.157
0.277,0.515,0.238,-0.396,0.019,0.377,-0.77,-1.193,0.562,0.714,0.675,0.663
-0.101,-0.157,-0.056,0.129,-0.022,-0.106,-0.284,-0.69,-0.03,-0.006,-0.044,-0.022
-0.073,-0.135,-0.062,0.104,-0.005,-0.098,-0.028,-0.227,-0.119,-0.057,-0.051,-0.03
-0.013,-0.151,-0.137,0.082,0.063,-0.144,0.023,-0.011,-0.009,-0.043,-0.051,-0.044
-0.022,-0.129,-0.107,0.076,0.042,-0.117,0.047,-0.002,-0.037,-0.059,-0.054,-0.04
-0.013,-0.173,-0.16,0.093,0.074,-0.166,0.056,0.04,0.001,-0.041,-0.039,-0.037
-0.021,-0.187,-0.166,0.104,0.073,-0.176,0.072,0.054,-0.021,-0.058,-0.052,-0.045
-0.001,-0.159,-0.158,0.08,0.079,-0.158,0.06,0.054,-0.002,-0.04,-0.033,-0.031
-0.002,-0.161,-0.159,0.082,0.079,-0.16,0.067,0.077,-0.008,-0.046,-0.039,-0.034
0.012,-0.134,-0.146,0.061,0.079,-0.14,0.058,0.093,-0.003,-0.034,-0.024,-0.021
0.017,-0.131,-0.148,0.057,0.083,-0.14,0.059,0.099,0.011,-0.035,-0.025,-0.022
0.02,-0.117,-0.136,0.049,0.078,-0.127,0.055,0.108,0.022,-0.025,-0.016,-0.011
0.023,-0.113,-0.136,0.045,0.079,-0.124,0.051,0.129,0.037,-0.015,-0.007,-0.01
0.021,-0.107,-0.128,0.043,0.075,-0.117,0.05,0.147,0.048,-0.006,0.001,0.001
0.065,-0.086,-0.151,0.011,0.108,-0.118,0.052,0.176,0.061,0.007,0.018,0.009
0.096,-0.064,-0.159,-0.016,0.128,-0.111,0.047,0.205,0.088,0.022,0.027,0.027
0.087,-0.052,-0.14,-0.018,0.114,-0.096,0.037,0.242,0.12,0.057,0.055,0.057
0.099,-0.041,-0.14,-0.029,0.12,-0.091,0.03,0.275,0.133,0.082,0.08,0.069
0.124,-0.017,-0.14,-0.054,0.132,-0.078,0.022,0.312,0.166,0.111,0.104,0.109
0.199,0.06,-0.139,-0.129,0.169,-0.039,0.016,0.349,0.208,0.156,0.157,0.163
0.249,0.108,-0.141,-0.178,0.195,-0.016,0.006,0.344,0.219,0.182,0.188,0.2
0.226,0.105,-0.121,-0.166,0.173,-0.008,-0.001,0.332,0.213,0.194,0.2,0.229
0.24,0.138,-0.103,-0.189,0.171,0.017,-0.015,0.324,0.203,0.196,0.2,0.231
0.248,0.138,-0.109,-0.193,0.178,0.014,-0.025,0.296,0.196,0.196,0.195,0.224
0.232,0.117,-0.115,-0.174,0.173,0.001,0.001,0.252,0.18,0.178,0.193,0.217
0.224,0.104,-0.12,-0.164,0.172,-0.008,0.019,0.192,0.136,0.133,0.153,0.18
0.136,0.014,-0.122,-0.075,0.129,-0.054,0.025,0.134,0.095,0.083,0.093,0.126
0.082,-0.055,-0.138,-0.013,0.11,-0.096,0.057,0.089,0.053,0.03,0.038,0.076
0.078,-0.083,-0.161,0.002,0.12,-0.122,0.07,0.046,0.002,-0.009,-0.001,0.03
0.017,-0.137,-0.154,0.061,0.085,-0.145,0.063,0.005,-0.034,-0.044,-0.023,-0.008
0.03,-0.132,-0.162,0.051,0.096,-0.146,0.059,-0.017,-0.057,-0.065,-0.051,-0.025
0.031,-0.155,-0.186,0.063,0.109,-0.171,0.053,-0.034,-0.061,-0.07,-0.067,-0.042
-0.005,-0.192,-0.187,0.099,0.091,-0.189,0.047,-0.039,-0.067,-0.085,-0.07,-0.052
0.021,-0.178,-0.198,0.078,0.11,-0.188,0.047,-0.045,-0.079,-0.085,-0.07,-0.049
0.006,-0.182,-0.187,0.088,0.097,-0.184,0.05,-0.06,-0.075,-0.08,-0.066,-0.05
-0.02,-0.179,-0.159,0.1,0.07,-0.169,0.045,-0.058,-0.07,-0.079,-0.063,-0.05
0.005,-0.18,-0.185,0.088,0.095,-0.182,0.045,-0.054,-0.064,-0.075,-0.059,-0.05
0.012,-0.18,-0.192,0.084,0.102,-0.186,0.044,-0.051,-0.058,-0.074,-0.056,-0.046
-0.002,-0.181,-0.179,0.092,0.089,-0.18,0.039,-0.046,-0.054,-0.069,-0.051,-0.045
0.001,-0.185,-0.186,0.093,0.094,-0.186,0.041,-0.044,-0.05,-0.066,-0.051,-0.045
-0.003,-0.187,-0.184,0.095,0.09,-0.185,0.037,-0.04,-0.051,-0.063,-0.055,-0.045
-0.005,-0.191,-0.186,0.099,0.091,-0.188,0.031,-0.038,-0.048,-0.058,-0.057,-0.046
-0.008,-0.192,-0.183,0.101,0.088,-0.187,0.024,-0.035,-0.044,-0.055,-0.06,-0.043
-0.012,-0.198,-0.187,0.105,0.088,-0.193,0.038,-0.032,-0.045,-0.059,-0.064,-0.04
0.002,-0.179,-0.181,0.089,0.092,-0.18,0.057,-0.029,-0.048,-0.061,-0.065,-0.037
0.021,-0.155,-0.176,0.067,0.099,-0.165,0.051,-0.034,-0.051,-0.06,-0.069,-0.034
0.042,-0.169,-0.211,0.064,0.127,-0.19,0.048,-0.035,-0.049,-0.066,-0.07,-0.032
0.016,-0.201,-0.217,0.093,0.117,-0.208,0.045,-0.035,-0.052,-0.064,-0.07,-0.028
-0.003,-0.216,-0.214,0.11,0.106,-0.215,0.039,-0.04,-0.064,-0.07,-0.075,-0.034
0.007,-0.208,-0.215,0.101,0.111,-0.211,0.046,-0.039,-0.071,-0.081,-0.075,-0.051
0.004,-0.204,-0.208,0.1,0.107,-0.205,0.053,-0.042,-0.069,-0.08,-0.075,-0.059
0.009,-0.202,-0.21,0.097,0.11,-0.206,0.046,-0.045,-0.073,-0.079,-0.069,-0.06
0.007,-0.192,-0.199,0.093,0.104,-0.196,0.038,-0.045,-0.075,-0.075,-0.071,-0.06
0.019,-0.205,-0.225,0.093,0.123,-0.215,0.032,-0.045,-0.075,-0.074,-0.068,-0.06
0.021,-0.232,-0.253,0.105,0.137,-0.242,0.021,-0.045,-0.079,-0.078,-0.063,-0.061
0.025,-0.226,-0.251,0.101,0.139,-0.238,0.027,-0.046,-0.08,-0.081,-0.068,-0.061
0.032,-0.223,-0.256,0.096,0.144,-0.239,0.04,-0.04,-0.08,-0.086,-0.059,-0.066
0.038,-0.22,-0.258,0.091,0.148,-0.239,0.034,-0.052,-0.085,-0.09,-0.08,-0.065
0.047,-0.214,-0.261,0.084,0.154,-0.237,0.028,-0.063,-0.085,-0.098,-0.064,-0.067
0.04,-0.215,-0.256,0.088,0.148,-0.235,0.024,-0.056,-0.084,-0.099,-0.076,-0.073
0.055,-0.2,-0.255,0.073,0.156,-0.228,0.015,-0.055,-0.079,-0.093,-0.068,-0.066
0.03,-0.223,-0.253,0.097,0.142,-0.238,0.022,-0.051,-0.075,-0.097,0.009,-0.072
0.019,-0.229,-0.249,0.105,0.134,-0.239,0.037,-0.05,-0.073,-0.092,-0.001,-0.052
0.025,-0.215,-0.24,0.096,0.133,-0.228,0.033,-0.046,-0.068,-0.098,-0.003,-0.061
0.012,-0.227,-0.238,0.108,0.125,-0.232,0.028,-0.035,-0.065,-0.092,0.004,-0.037
0.009,-0.217,-0.225,0.104,0.117,-0.221,0.025,-0.028,-0.06,-0.11,-0.005,-0.05
0.015,-0.199,-0.214,0.092,0.115,-0.206,0.02,-0.017,-0.052,-0.063,0.005,-0.002
