-0.155,-0.05,0.105,0.102,-0.13,0.027,-0.145,0.045,0.025,0.015,0.13,-0.005
-0.164,-0.048,0.117,0.106,-0.14,0.034,-0.145,0.045,0.025,0.015,0.13,-0.005
-0.167,-0.043,0.124,0.105,-0.145,0.04,-0.142,0.045,0.026,0.021,0.13,-0.008
-0.135,-0.039,0.096,0.087,-0.116,0.029,-0.14,0.045,0.03,0.026,0.13,-0.011
-0.133,-0.035,0.098,0.083,-0.115,0.032,-0.137,0.062,0.03,0.032,0.13,-0.014
-0.15,-0.03,0.121,0.09,-0.135,0.045,-0.134,0.078,0.035,0.038,0.13,-0.015
-0.143,-0.022,0.12,0.083,-0.131,0.049,-0.139,0.08,0.044,0.042,0.13,-0.009
-0.135,-0.016,0.12,0.076,-0.127,0.052,-0.14,0.079,0.046,0.047,0.143,-0.002
-0.13,-0.01,0.12,0.07,-0.125,0.055,-0.14,0.084,0.044,0.05,0.145,0.004
-0.121,-0.001,0.12,0.061,-0.12,0.06,-0.146,0.084,0.045,0.045,0.146,0.011
-0.112,0.009,0.12,0.051,-0.117,0.064,-0.145,0.086,0.045,0.038,0.16,0.017
-0.147,-0.001,0.146,0.074,-0.146,0.072,-0.142,0.088,0.045,0.034,0.158,0.023
-0.191,-0.023,0.168,0.107,-0.18,0.072,-0.139,0.095,0.047,0.027,0.154,0.025
-0.183,-0.02,0.163,0.101,-0.173,0.071,-0.136,0.107,0.05,0.022,0.151,0.028
-0.173,-0.004,0.168,0.088,-0.17,0.082,-0.134,0.111,0.05,0.02,0.146,0.032
-0.162,0.008,0.17,0.077,-0.166,0.089,-0.13,0.119,0.049,0.02,0.144,0.033
-0.142,0.028,0.17,0.057,-0.156,0.099,-0.13,0.131,0.052,0.02,0.146,0.038
-0.126,0.047,0.173,0.039,-0.15,0.11,-0.128,0.136,0.048,0.019,0.142,0.036
-0.121,0.057,0.178,0.031,-0.15,0.117,-0.125,0.152,0.071,0.041,0.155,0.054
-0.107,0.072,0.179,0.017,-0.143,0.125,-0.124,0.186,0.096,0.059,0.173,0.072
-0.062,0.091,0.153,-0.015,-0.108,0.121,-0.13,0.205,0.118,0.077,0.189,0.087
-0.031,0.096,0.128,-0.033,-0.08,0.112,-0.144,0.235,0.168,0.116,0.23,0.125
-0.007,0.11,0.117,-0.052,-0.063,0.113,-0.14,0.282,0.211,0.144,0.259,0.144
0.029,0.132,0.103,-0.081,-0.037,0.117,-0.134,0.325,0.253,0.175,0.296,0.165
0.054,0.137,0.083,-0.095,-0.015,0.109,-0.129,0.353,0.284,0.203,0.315,0.177
0.061,0.133,0.072,-0.097,-0.006,0.102,-0.124,0.346,0.306,0.218,0.308,0.173
0.052,0.131,0.079,-0.092,-0.013,0.105,-0.126,0.336,0.307,0.227,0.311,0.176
0.049,0.127,0.078,-0.088,-0.015,0.103,-0.122,0.328,0.295,0.228,0.308,0.174
0.051,0.125,0.075,-0.089,-0.013,0.1,-0.12,0.318,0.293,0.221,0.305,0.176
0.046,0.122,0.076,-0.084,-0.015,0.099,-0.12,0.304,0.281,0.214,0.305,0.172
0.036,0.108,0.072,-0.072,-0.018,0.09,-0.126,0.278,0.264,0.206,0.302,0.158
0.029,0.099,0.071,-0.064,-0.021,0.085,-0.138,0.247,0.242,0.199,0.293,0.149
0.033,0.101,0.068,-0.067,-0.017,0.084,-0.141,0.223,0.226,0.191,0.284,0.142
0.022,0.099,0.077,-0.061,-0.028,0.088,-0.138,0.195,0.209,0.177,0.276,0.136
0.019,0.101,0.082,-0.06,-0.032,0.091,-0.149,0.158,0.179,0.163,0.267,0.129
0.003,0.094,0.092,-0.049,-0.045,0.093,-0.156,0.142,0.148,0.149,0.258,0.122
-0.04,0.065,0.105,-0.012,-0.073,0.085,-0.155,0.131,0.127,0.131,0.247,0.112
-0.045,0.043,0.088,0.0,-0.066,0.066,-0.152,0.118,0.113,0.118,0.238,0.103
-0.058,0.029,0.087,0.014,-0.073,0.058,-0.15,0.103,0.099,0.107,0.233,0.104
-0.043,0.021,0.064,0.011,-0.054,0.042,-0.15,0.091,0.098,0.098,0.23,0.105
-0.042,0.016,0.058,0.013,-0.051,0.037,-0.145,0.091,0.1,0.099,0.227,0.105
-0.067,0.02,0.087,0.024,-0.077,0.053,-0.127,0.089,0.102,0.1,0.221,0.105
-0.043,0.057,0.1,-0.007,-0.072,0.079,-0.088,0.109,0.107,0.101,0.221,0.105
-0.063,0.085,0.148,-0.012,-0.106,0.117,-0.051,0.135,0.103,0.098,0.223,0.107
-0.041,0.124,0.165,-0.042,-0.103,0.144,-0.033,0.165,0.125,0.125,0.236,0.117
0.008,0.156,0.147,-0.082,-0.07,0.151,-0.071,0.167,0.142,0.146,0.26,0.135
0.024,0.148,0.123,-0.086,-0.049,0.135,-0.129,0.138,0.135,0.146,0.266,0.141
0.076,0.151,0.075,-0.114,0.001,0.113,-0.185,0.123,0.128,0.158,0.278,0.154
0.107,0.147,0.04,-0.127,0.033,0.093,-0.217,0.115,0.125,0.161,0.292,0.158
0.091,0.11,0.019,-0.101,0.035,0.064,-0.223,0.101,0.115,0.157,0.278,0.143
0.076,0.077,0.001,-0.077,0.038,0.039,-0.218,0.091,0.082,0.127,0.258,0.129
0.022,0.058,0.036,-0.04,-0.008,0.047,-0.18,0.08,0.045,0.085,0.235,0.105
-0.064,0.016,0.08,0.024,-0.072,0.048,-0.158,0.061,0.032,0.06,0.192,0.076
-0.104,-0.029,0.075,0.066,-0.089,0.023,-0.136,0.06,0.037,0.045,0.166,0.043
-0.101,-0.028,0.073,0.064,-0.087,0.022,-0.138,0.027,0.031,0.044,0.172,0.033
-0.085,-0.021,0.064,0.053,-0.074,0.021,-0.129,0.055,0.043,0.037,0.16,0.029
-0.083,-0.02,0.063,0.051,-0.073,0.021,-0.135,0.029,0.033,0.031,0.165,0.025
-0.059,-0.007,0.052,0.033,-0.055,0.022,-0.122,0.062,0.047,0.028,0.148,0.022
-0.078,-0.012,0.066,0.045,-0.072,0.027,-0.073,0.178,0.064,0.017,0.107,0.002
-0.027,0.002,0.028,0.012,-0.027,0.015,-0.041,0.42,0.267,0.169,0.211,0.03
0.23,0.168,-0.062,-0.199,0.146,0.052,-0.181,0.24,0.449,0.621,0.745,0.401
0.835,0.54,-0.296,-0.687,0.565,0.122,-0.802,-1.129,0.109,0.993,1.406,1.028
1.105,0.405,-0.7,-0.754,0.902,-0.147,-1.109,-1.994,-0.667,0.302,0.899,0.902
0.325,-0.194,-0.519,-0.065,0.422,-0.356,-0.684,-1.749,-1.407,-0.849,-0.217,0.183
-0.179,-0.274,-0.095,0.227,-0.042,-0.184,-0.341,-1.083,-1.093,-0.812,-0.368,-0.074
-0.123,-0.153,-0.03,0.139,-0.046,-0.091,-0.197,-0.309,-0.352,-0.28,-0.082,-0.049
-0.158,-0.107,0.051,0.133,-0.104,-0.028,-0.105,0.012,-0.108,-0.107,0.036,-0.049
-0.118,-0.048,0.071,0.083,-0.094,0.011,-0.097,0.104,-0.007,-0.038,0.084,-0.032
-0.112,-0.051,0.061,0.081,-0.086,0.004,-0.089,0.12,-0.007,-0.039,0.079,-0.032
-0.106,-0.031,0.075,0.069,-0.09,0.022,-0.08,0.127,0.012,-0.026,0.093,-0.029
-0.102,-0.037,0.065,0.069,-0.083,0.014,-0.076,0.14,0.023,-0.023,0.088,-0.031
-0.104,-0.035,0.069,0.069,-0.086,0.017,-0.085,0.133,0.023,-0.018,0.091,-0.03
-0.096,-0.034,0.062,0.065,-0.079,0.014,-0.094,0.146,0.039,-0.011,0.089,-0.03
-0.103,-0.037,0.067,0.07,-0.085,0.015,-0.096,0.141,0.036,-0.008,0.092,-0.029
-0.097,-0.033,0.064,0.065,-0.08,0.015,-0.1,0.152,0.044,0.003,0.108,-0.025
-0.095,-0.029,0.066,0.062,-0.08,0.018,-0.104,0.171,0.044,0.006,0.105,-0.023
-0.083,-0.017,0.065,0.05,-0.074,0.024,-0.104,0.176,0.044,0.015,0.105,-0.019
-0.098,-0.011,0.086,0.054,-0.092,0.037,-0.09,0.175,0.038,0.009,0.104,-0.017
-0.1,-0.001,0.099,0.051,-0.1,0.049,-0.076,0.174,0.036,0.004,0.099,-0.014
-0.097,0.004,0.1,0.046,-0.099,0.052,-0.064,0.178,0.031,-0.001,0.1,-0.02
-0.126,0.011,0.136,0.057,-0.131,0.073,-0.049,0.193,0.029,-0.008,0.097,-0.025
-0.123,0.018,0.141,0.052,-0.132,0.079,-0.027,0.199,0.032,-0.012,0.093,-0.032
-0.119,0.022,0.141,0.049,-0.13,0.081,-0.01,0.211,0.041,-0.024,0.089,-0.034
-0.123,0.04,0.163,0.041,-0.143,0.101,-0.002,0.226,0.048,-0.027,0.087,-0.02
-0.117,0.055,0.171,0.031,-0.144,0.113,0.004,0.232,0.053,-0.017,0.082,-0.007
-0.119,0.056,0.175,0.031,-0.147,0.115,0.011,0.235,0.059,-0.01,0.08,0.007
-0.114,0.061,0.176,0.026,-0.145,0.118,0.027,0.251,0.071,-0.003,0.091,0.02
-0.099,0.075,0.174,0.012,-0.137,0.124,0.036,0.278,0.099,0.011,0.107,0.038
-0.088,0.089,0.177,-0.001,-0.133,0.132,0.038,0.301,0.131,0.038,0.126,0.064
-0.072,0.091,0.163,-0.01,-0.117,0.126,0.043,0.331,0.169,0.065,0.154,0.089
-0.02,0.113,0.133,-0.047,-0.077,0.123,0.046,0.369,0.214,0.1,0.178,0.113
0.006,0.12,0.114,-0.063,-0.055,0.117,0.052,0.401,0.254,0.133,0.2,0.128
0.009,0.111,0.102,-0.06,-0.046,0.106,0.068,0.416,0.287,0.152,0.222,0.141
0.039,0.137,0.098,-0.088,-0.029,0.117,0.07,0.412,0.305,0.178,0.239,0.14
0.039,0.143,0.104,-0.091,-0.033,0.123,0.065,0.408,0.308,0.195,0.242,0.132
0.014,0.134,0.121,-0.074,-0.054,0.128,0.097,0.405,0.296,0.189,0.236,0.127
-0.013,0.114,0.127,-0.051,-0.07,0.12,0.127,0.388,0.281,0.176,0.226,0.119
-0.041,0.082,0.124,-0.021,-0.083,0.103,0.124,0.359,0.268,0.166,0.214,0.113
-0.049,0.077,0.126,-0.014,-0.088,0.101,0.126,0.32,0.247,0.152,0.201,0.105
-0.053,0.071,0.124,-0.009,-0.089,0.097,0.119,0.287,0.229,0.138,0.187,0.097
-0.062,0.065,0.127,-0.002,-0.095,0.096,0.085,0.265,0.204,0.123,0.173,0.091
-0.073,0.056,0.13,0.009,-0.102,0.093,0.069,0.23,0.168,0.085,0.153,0.083
-0.088,0.043,0.131,0.022,-0.109,0.087,0.071,0.208,0.149,0.054,0.132,0.073
-0.102,0.033,0.134,0.034,-0.118,0.083,0.069,0.188,0.133,0.046,0.119,0.065
-0.112,0.024,0.135,0.044,-0.124,0.079,0.071,0.15,0.118,0.037,0.105,0.055
-0.116,0.018,0.134,0.049,-0.125,0.076,0.069,0.137,0.106,0.029,0.092,0.05
-0.126,0.01,0.136,0.058,-0.131,0.072,0.073,0.141,0.087,0.018,0.079,0.05
-0.132,0.003,0.134,0.064,-0.133,0.068,0.075,0.139,0.083,0.001,0.068,0.049
-0.14,-0.005,0.135,0.072,-0.137,0.065,0.092,0.14,0.088,-0.013,0.068,0.05
-0.151,0.018,0.169,0.066,-0.161,0.093,0.136,0.141,0.093,0.0,0.073,0.048
-0.149,0.058,0.207,0.045,-0.178,0.133,0.181,0.138,0.096,0.023,0.078,0.052
-0.136,0.072,0.208,0.032,-0.172,0.14,0.226,0.169,0.112,0.039,0.081,0.052
-0.101,0.096,0.197,0.003,-0.15,0.146,0.225,0.194,0.138,0.067,0.101,0.071
-0.067,0.117,0.184,-0.025,-0.126,0.15,0.184,0.165,0.138,0.077,0.116,0.092
-0.061,0.113,0.174,-0.027,-0.118,0.143,0.137,0.147,0.133,0.075,0.123,0.104
-0.03,0.12,0.15,-0.045,-0.09,0.134,0.079,0.136,0.128,0.093,0.139,0.133
-0.005,0.104,0.109,-0.05,-0.058,0.107,0.071,0.13,0.126,0.099,0.14,0.129
-0.009,0.071,0.08,-0.031,-0.045,0.075,0.061,0.11,0.1,0.081,0.128,0.116
-0.015,0.055,0.07,-0.02,-0.043,0.062,0.054,0.078,0.065,0.04,0.091,0.097
-0.118,0.016,0.135,0.051,-0.126,0.075,0.093,0.048,0.055,0.002,0.055,0.061
-0.203,-0.037,0.166,0.119,-0.184,0.064,0.116,0.052,0.033,-0.03,0.017,0.021
-0.2,-0.049,0.151,0.124,-0.175,0.051,0.135,0.042,-0.005,-0.051,-0.013,-0.016
-0.198,-0.055,0.143,0.126,-0.17,0.043,0.139,0.034,-0.01,-0.058,-0.023,-0.024
-0.207,-0.075,0.132,0.141,-0.169,0.028,0.146,0.041,-0.016,-0.063,-0.029,-0.03
-0.193,-0.063,0.13,0.128,-0.161,0.033,0.138,-0.008,-0.029,-0.065,-0.017,-0.012
-0.21,-0.065,0.145,0.137,-0.177,0.04,0.165,0.081,0.018,-0.08,-0.049,-0.045
-0.216,-0.062,0.153,0.139,-0.185,0.045,0.213,0.234,0.127,-0.016,-0.043,-0.074
-0.032,-0.005,0.027,0.019,-0.03,0.01,0.197,0.449,0.382,0.267,0.228,0.09
0.374,0.261,-0.113,-0.317,0.243,0.074,-0.172,-0.223,0.359,0.748,0.919,0.651
0.965,0.519,-0.446,-0.742,0.705,0.037,-0.803,-1.612,-0.23,0.68,1.125,1.064
0.683,0.12,-0.563,-0.401,0.623,-0.221,-0.717,-1.919,-1.085,-0.399,0.142,0.543
-0.196,-0.317,-0.122,0.257,-0.037,-0.22,-0.211,-1.43,-1.364,-1.032,-0.575,-0.041
-0.34,-0.263,0.078,0.301,-0.208,-0.092,-0.04,-0.726,-0.726,-0.616,-0.405,-0.105
-0.286,-0.174,0.111,0.23,-0.198,-0.031,0.06,-0.175,-0.222,-0.263,-0.212,-0.103
-0.273,-0.098,0.175,0.185,-0.223,0.038,0.112,0.009,-0.067,-0.152,-0.14,-0.093
-0.242,-0.08,0.163,0.161,-0.202,0.041,0.101,0.079,-0.015,-0.112,-0.103,-0.085
-0.253,-0.086,0.167,0.169,-0.21,0.04,0.106,0.064,-0.023,-0.119,-0.101,-0.078
-0.248,-0.075,0.173,0.161,-0.21,0.048,0.098,0.073,0.0,-0.104,-0.099,-0.07
-0.27,-0.079,0.191,0.174,-0.23,0.056,0.102,0.069,-0.006,-0.105,-0.098,-0.071
-0.249,-0.068,0.181,0.158,-0.215,0.056,0.099,0.068,0.008,-0.096,-0.093,-0.069
-0.255,-0.068,0.187,0.161,-0.221,0.059,0.101,0.073,0.012,-0.096,-0.096,-0.071
-0.245,-0.06,0.184,0.152,-0.214,0.062,0.099,0.078,0.013,-0.092,-0.099,-0.069
-0.239,-0.058,0.181,0.148,-0.21,0.061,0.101,0.066,0.008,-0.089,-0.1,-0.072
-0.243,-0.048,0.195,0.145,-0.219,0.073,0.099,0.042,0.001,-0.086,-0.101,-0.075
-0.233,-0.039,0.194,0.135,-0.213,0.077,0.103,0.058,0.0,-0.084,-0.105,-0.075
-0.247,-0.033,0.214,0.14,-0.23,0.09,0.137,0.057,-0.007,-0.09,-0.105,-0.078
-0.245,-0.025,0.22,0.135,-0.232,0.097,0.141,0.058,-0.01,-0.09,-0.107,-0.08
-0.229,-0.02,0.209,0.124,-0.219,0.094,0.139,0.082,-0.003,-0.09,-0.111,-0.08
-0.221,-0.011,0.209,0.116,-0.215,0.098,0.14,0.087,0.005,-0.09,-0.113,-0.077
-0.216,-0.014,0.201,0.115,-0.208,0.093,0.144,0.078,0.008,-0.091,-0.117,-0.069
-0.222,-0.023,0.198,0.123,-0.21,0.087,0.157,0.084,0.012,-0.088,-0.119,-0.063
-0.238,-0.016,0.222,0.127,-0.23,0.103,0.154,0.109,0.015,-0.082,-0.121,-0.056
-0.23,-0.01,0.22,0.12,-0.225,0.105,0.155,0.124,0.021,-0.078,-0.108,-0.049
-0.208,-0.007,0.202,0.107,-0.205,0.097,0.149,0.123,0.021,-0.074,-0.096,-0.044
-0.18,0.031,0.211,0.074,-0.196,0.121,0.151,0.126,0.033,-0.069,-0.078,-0.027
-0.116,0.054,0.17,0.031,-0.143,0.111,0.146,0.159,0.07,-0.05,-0.042,0.002
-0.09,0.049,0.138,0.02,-0.114,0.094,0.136,0.203,0.115,-0.012,-0.01,0.042
-0.058,0.049,0.107,0.005,-0.083,0.078,0.163,0.231,0.156,0.023,0.014,0.069
-0.013,0.045,0.059,-0.016,-0.037,0.052,0.162,0.265,0.196,0.056,0.041,0.083
-0.018,0.043,0.061,-0.013,-0.04,0.052,0.157,0.305,0.239,0.092,0.058,0.101
-0.005,0.051,0.056,-0.023,-0.031,0.053,0.152,0.321,0.272,0.111,0.076,0.099
0.017,0.056,0.039,-0.037,-0.011,0.047,0.113,0.315,0.281,0.118,0.084,0.094
0.037,0.043,0.007,-0.04,0.015,0.025,0.098,0.312,0.27,0.123,0.081,0.092
0.018,0.032,0.014,-0.025,0.002,0.022,0.101,0.304,0.258,0.128,0.091,0.087
-0.016,0.024,0.04,-0.005,-0.028,0.032,0.099,0.288,0.248,0.126,0.089,0.085
0.003,0.017,0.015,-0.01,-0.006,0.016,0.094,0.252,0.233,0.118,0.084,0.079
0.018,0.011,-0.007,-0.014,0.012,0.002,0.074,0.218,0.217,0.115,0.082,0.072
-0.027,0.004,0.031,0.011,-0.03,0.018,0.066,0.202,0.199,0.107,0.078,0.066
-0.064,-0.003,0.062,0.033,-0.063,0.029,0.076,0.167,0.17,0.088,0.068,0.059
-0.044,-0.009,0.035,0.026,-0.039,0.013,0.074,0.142,0.142,0.07,0.052,0.053
-0.05,-0.016,0.034,0.033,-0.042,0.009,0.073,0.13,0.123,0.061,0.039,0.046
-0.093,-0.023,0.07,0.058,-0.081,0.024,0.067,0.111,0.103,0.049,0.024,0.034
-0.11,-0.027,0.083,0.068,-0.096,0.028,0.073,0.103,0.082,0.028,0.003,0.029
-0.108,-0.036,0.072,0.072,-0.09,0.018,0.091,0.087,0.056,0.004,-0.017,0.03
-0.124,-0.032,0.092,0.077,-0.107,0.03,0.095,0.068,0.04,-0.018,-0.027,0.03
-0.112,-0.047,0.065,0.079,-0.088,0.009,0.084,0.05,0.023,-0.033,-0.043,0.03
-0.097,-0.037,0.06,0.066,-0.078,0.011,0.089,0.049,0.015,-0.025,-0.05,0.03
-0.104,0.011,0.115,0.047,-0.11,0.062,0.127,0.076,0.034,-0.015,-0.043,0.031
-0.094,0.039,0.133,0.028,-0.114,0.085,0.148,0.088,0.054,-0.005,-0.032,0.039
-0.089,0.075,0.164,0.006,-0.126,0.119,0.18,0.117,0.079,0.007,-0.013,0.04
-0.029,0.105,0.135,-0.038,-0.082,0.12,0.158,0.126,0.097,0.026,0.012,0.048
0.021,0.125,0.104,-0.073,-0.042,0.114,0.091,0.103,0.1,0.046,0.033,0.066
0.04,0.124,0.084,-0.082,-0.022,0.103,0.04,0.081,0.098,0.05,0.04,0.085
0.098,0.119,0.021,-0.109,0.038,0.07,0.003,0.074,0.103,0.059,0.051,0.105
0.115,0.099,-0.016,-0.106,0.065,0.041,0.002,0.054,0.08,0.03,0.039,0.097
0.128,0.093,-0.035,-0.11,0.081,0.029,-0.008,0.018,0.042,0.015,0.024,0.085
0.047,0.063,0.016,-0.055,0.015,0.039,0.026,0.02,0.027,-0.001,0.001,0.058
-0.054,0.011,0.066,0.021,-0.06,0.038,0.06,0.04,0.027,-0.05,-0.041,0.034
-0.077,-0.011,0.066,0.044,-0.071,0.027,0.082,0.05,-0.009,-0.077,-0.073,-0.009
-0.105,-0.048,0.057,0.077,-0.081,0.004,0.084,0.003,-0.075,-0.11,-0.112,-0.05
-0.106,-0.057,0.049,0.081,-0.078,-0.004,0.05,0.004,-0.06,-0.112,-0.121,-0.048
-0.103,-0.055,0.048,0.079,-0.075,-0.003,0.012,-0.044,-0.072,-0.103,-0.104,-0.044
-0.078,-0.047,0.032,0.062,-0.055,-0.007,0.03,0.007,-0.045,-0.099,-0.11,-0.043
-0.101,-0.051,0.05,0.076,-0.075,-0.001,0.1,0.141,0.024,-0.077,-0.121,-0.073
-0.021,-0.03,-0.009,0.025,-0.006,-0.019,0.106,0.366,0.236,0.1,0.0,-0.026
0.253,0.142,-0.11,-0.197,0.181,0.016,-0.078,0.181,0.396,0.554,0.558,0.371
0.878,0.503,-0.375,-0.69,0.626,0.064,-0.662,-1.158,-0.018,0.828,1.156,0.979
1.074,0.355,-0.718,-0.714,0.896,-0.181,-0.915,-2.005,-0.861,0.054,0.561,0.81
0.229,-0.239,-0.467,0.005,0.348,-0.353,-0.464,-1.728,-1.517,-1.029,-0.54,0.058
-0.231,-0.33,-0.098,0.281,-0.066,-0.214,-0.142,-1.07,-1.119,-0.91,-0.623,-0.167
-0.138,-0.196,-0.057,0.167,-0.04,-0.126,-0.033,-0.364,-0.398,-0.38,-0.322,-0.125
-0.124,-0.122,0.002,0.123,-0.063,-0.06,0.052,-0.05,-0.157,-0.208,-0.227,-0.129
-0.101,-0.08,0.022,0.09,-0.061,-0.029,0.047,0.047,-0.062,-0.128,-0.168,-0.103
-0.119,-0.083,0.036,0.101,-0.077,-0.023,0.046,0.06,-0.063,-0.13,-0.168,-0.103
-0.121,-0.066,0.055,0.093,-0.088,-0.005,0.039,0.067,-0.047,-0.115,-0.16,-0.093
-0.116,-0.073,0.044,0.094,-0.08,-0.014,0.049,0.074,-0.044,-0.111,-0.159,-0.092
-0.11,-0.069,0.041,0.089,-0.076,-0.014,0.071,0.071,-0.04,-0.105,-0.156,-0.086
-0.101,-0.07,0.031,0.085,-0.066,-0.02,0.062,0.083,-0.031,-0.096,-0.147,-0.081
-0.1,-0.071,0.029,0.085,-0.065,-0.02,0.06,0.091,-0.031,-0.095,-0.134,-0.078
-0.09,-0.069,0.021,0.079,-0.055,-0.024,0.052,0.103,-0.018,-0.086,-0.12,-0.074
-0.086,-0.066,0.02,0.076,-0.053,-0.023,0.048,0.104,-0.016,-0.084,-0.121,-0.076
-0.076,-0.064,0.012,0.07,-0.044,-0.026,0.041,0.105,-0.006,-0.078,-0.119,-0.071
-0.078,-0.064,0.013,0.071,-0.045,-0.025,0.042,0.107,-0.009,-0.074,-0.12,-0.07
-0.109,-0.059,0.05,0.084,-0.08,-0.004,0.063,0.111,-0.011,-0.07,-0.12,-0.07
-0.117,-0.061,0.057,0.088,-0.087,-0.001,0.066,0.109,-0.009,-0.075,-0.12,-0.065
-0.111,-0.058,0.054,0.084,-0.082,-0.002,0.064,0.113,-0.011,-0.076,-0.117,-0.06
-0.107,-0.051,0.056,0.079,-0.082,0.002,0.066,0.118,-0.008,-0.076,-0.112,-0.056
-0.101,-0.047,0.054,0.073,-0.077,0.004,0.065,0.122,-0.003,-0.074,-0.11,-0.051
-0.096,-0.041,0.055,0.068,-0.075,0.007,0.064,0.13,0.005,-0.066,-0.105,-0.047
-0.081,-0.034,0.047,0.058,-0.064,0.006,0.06,0.145,0.011,-0.061,-0.101,-0.041
-0.072,-0.031,0.042,0.051,-0.057,0.005,0.059,0.165,0.017,-0.056,-0.098,-0.024
-0.052,-0.019,0.033,0.035,-0.042,0.007,0.068,0.191,0.034,-0.048,-0.084,-0.007
-0.034,-0.005,0.029,0.019,-0.031,0.012,0.077,0.213,0.053,-0.029,-0.063,0.012
-0.008,0.009,0.017,-0.001,-0.013,0.012,0.072,0.217,0.084,-0.002,-0.041,0.032
0.022,0.024,0.002,-0.023,0.01,0.012,0.07,0.243,0.124,0.018,-0.015,0.05
0.055,0.036,-0.019,-0.045,0.037,0.008,0.067,0.284,0.169,0.053,0.014,0.074
0.111,0.055,-0.056,-0.082,0.083,0.0,0.064,0.314,0.216,0.092,0.048,0.095
0.112,0.061,-0.051,-0.086,0.081,0.004,0.062,0.336,0.253,0.125,0.073,0.105
0.111,0.053,-0.058,-0.082,0.084,-0.002,0.056,0.334,0.268,0.146,0.084,0.107
0.134,0.048,-0.086,-0.091,0.11,-0.019,0.052,0.321,0.26,0.148,0.085,0.104
0.121,0.042,-0.078,-0.081,0.099,-0.018,0.047,0.314,0.258,0.143,0.085,0.101
0.109,0.037,-0.072,-0.073,0.091,-0.017,0.043,0.297,0.252,0.135,0.09,0.098
0.101,0.029,-0.072,-0.065,0.086,-0.021,0.038,0.261,0.233,0.129,0.09,0.095
0.099,0.023,-0.076,-0.06,0.087,-0.027,0.035,0.232,0.209,0.122,0.089,0.094
0.096,0.015,-0.081,-0.055,0.088,-0.033,0.031,0.211,0.187,0.116,0.081,0.086
0.075,0.008,-0.067,-0.041,0.071,-0.03,0.028,0.183,0.172,0.11,0.074,0.079
0.052,0.0,-0.051,-0.026,0.051,-0.025,0.023,0.156,0.153,0.1,0.068,0.073
0.043,-0.006,-0.05,-0.019,0.047,-0.028,0.02,0.134,0.127,0.09,0.058,0.066
0.035,-0.016,-0.051,-0.01,0.043,-0.033,0.024,0.121,0.093,0.072,0.047,0.059
0.031,-0.019,-0.049,-0.006,0.04,-0.034,0.025,0.114,0.069,0.054,0.034,0.052
0.019,-0.032,-0.051,0.007,0.035,-0.041,0.024,0.084,0.056,0.041,0.021,0.046
-0.011,-0.054,-0.042,0.033,0.016,-0.048,0.025,0.055,0.047,0.032,0.005,0.041
-0.013,-0.045,-0.033,0.029,0.01,-0.039,0.024,0.055,0.05,0.035,-0.003,0.045
-0.014,-0.036,-0.021,0.025,0.004,-0.028,0.027,0.055,0.05,0.034,-0.009,0.047
-0.02,-0.022,-0.002,0.021,-0.009,-0.012,0.049,0.056,0.056,0.035,-0.009,0.05
-0.017,0.012,0.029,0.002,-0.023,0.02,0.094,0.072,0.054,0.035,0.005,0.053
-0.009,0.06,0.069,-0.026,-0.039,0.064,0.127,0.107,0.066,0.043,0.017,0.055
0.044,0.091,0.047,-0.067,-0.002,0.069,0.115,0.117,0.095,0.088,0.044,0.072
0.087,0.093,0.007,-0.09,0.04,0.05,0.059,0.1,0.093,0.107,0.061,0.082
0.101,0.093,-0.007,-0.097,0.053,0.043,-0.016,0.093,0.086,0.1,0.072,0.104
0.155,0.104,-0.052,-0.129,0.103,0.026,-0.055,0.097,0.078,0.097,0.09,0.12
0.171,0.083,-0.088,-0.127,0.13,-0.002,-0.061,0.076,0.074,0.092,0.089,0.109
0.12,0.022,-0.098,-0.071,0.109,-0.038,-0.067,0.019,0.054,0.083,0.071,0.095
0.072,-0.004,-0.076,-0.034,0.074,-0.039,-0.039,0.011,0.017,0.051,0.03,0.069
0.022,-0.036,-0.058,0.007,0.04,-0.047,-0.008,-0.002,-0.007,0.015,0.003,0.029
-0.037,-0.092,-0.055,0.065,0.009,-0.074,0.012,0.003,-0.013,-0.019,-0.038,-0.01
-0.061,-0.105,-0.043,0.083,-0.009,-0.074,0.01,-0.014,-0.032,-0.035,-0.064,-0.015
-0.033,-0.102,-0.068,0.068,0.018,-0.085,0.002,-0.011,-0.036,-0.037,-0.067,-0.031
-0.048,-0.099,-0.051,0.074,0.001,-0.075,0.001,-0.013,-0.034,-0.034,-0.064,-0.038
-0.039,-0.092,-0.053,0.066,0.007,-0.072,-0.006,-0.025,-0.041,-0.035,-0.064,-0.03
-0.054,-0.095,-0.041,0.075,-0.007,-0.068,0.08,0.096,0.009,-0.039,-0.081,-0.055
-0.038,-0.076,-0.038,0.057,0.0,-0.057,0.119,0.255,0.156,0.064,-0.03,-0.054
0.145,-0.007,-0.152,-0.069,0.149,-0.079,0.034,0.359,0.385,0.4,0.335,0.172
0.66,0.312,-0.348,-0.486,0.503,-0.018,-0.42,-0.604,0.208,0.804,1.018,0.786
1.171,0.415,-0.755,-0.793,0.963,-0.17,-0.905,-1.854,-0.558,0.369,0.818,0.917
0.598,-0.113,-0.711,-0.242,0.654,-0.412,-0.602,-1.871,-1.343,-0.751,-0.276,0.247
-0.173,-0.404,-0.231,0.289,0.029,-0.317,-0.167,-1.302,-1.279,-0.97,-0.632,-0.136
-0.188,-0.283,-0.095,0.236,-0.046,-0.189,-0.063,-0.582,-0.564,-0.451,-0.346,-0.127
-0.128,-0.193,-0.065,0.161,-0.031,-0.129,0.015,-0.133,-0.176,-0.185,-0.195,-0.122
-0.102,-0.133,-0.031,0.118,-0.035,-0.082,0.042,-0.02,-0.064,-0.096,-0.136,-0.103
-0.076,-0.118,-0.041,0.097,-0.017,-0.079,0.043,0.018,-0.038,-0.071,-0.112,-0.094
-0.071,-0.114,-0.043,0.093,-0.013,-0.079,0.035,0.01,-0.039,-0.065,-0.109,-0.089
-0.07,-0.115,-0.045,0.093,-0.012,-0.08,0.032,0.038,-0.026,-0.056,-0.106,-0.09
-0.076,-0.116,-0.04,0.096,-0.017,-0.077,0.024,0.045,-0.032,-0.053,-0.103,-0.091
-0.078,-0.114,-0.036,0.097,-0.02,-0.075,0.022,0.052,-0.02,-0.043,-0.1,-0.089
-0.107,-0.114,-0.007,0.111,-0.049,-0.061,0.045,0.049,-0.022,-0.04,-0.099,-0.093
-0.092,-0.109,-0.017,0.101,-0.037,-0.063,0.045,0.05,-0.016,-0.032,-0.093,-0.104
-0.104,-0.108,-0.004,0.106,-0.049,-0.056,0.041,0.05,-0.014,-0.026,-0.086,-0.1
-0.137,-0.104,0.032,0.12,-0.084,-0.036,0.039,0.051,-0.011,-0.019,-0.079,-0.093
-0.119,-0.101,0.017,0.11,-0.068,-0.042,0.035,0.056,-0.008,-0.013,-0.073,-0.09
-0.117,-0.1,0.017,0.108,-0.067,-0.041,0.034,0.054,-0.006,-0.005,-0.066,-0.085
-0.107,-0.093,0.014,0.1,-0.06,-0.039,0.029,0.055,-0.003,-0.011,-0.074,-0.083
-0.074,-0.078,-0.003,0.076,-0.035,-0.04,0.023,0.055,0.0,-0.024,-0.082,-0.078
-0.091,-0.065,0.025,0.078,-0.058,-0.02,0.02,0.055,0.0,-0.026,-0.079,-0.075
-0.112,-0.057,0.054,0.084,-0.083,-0.001,0.015,0.06,0.002,-0.025,-0.081,-0.071
-0.093,-0.051,0.042,0.072,-0.067,-0.004,0.011,0.069,0.006,-0.025,-0.08,-0.06
-0.082,-0.044,0.038,0.063,-0.06,-0.002,0.022,0.08,0.004,-0.032,-0.08,-0.05
-0.074,-0.037,0.037,0.055,-0.055,0.0,0.025,0.105,0.013,-0.019,-0.074,-0.04
-0.071,-0.031,0.04,0.051,-0.055,0.004,0.019,0.118,0.03,0.003,-0.06,-0.025
-0.065,-0.023,0.042,0.044,-0.054,0.009,0.018,0.134,0.056,0.017,-0.043,-0.012
-0.015,-0.008,0.008,0.012,-0.011,0.0,0.012,0.173,0.08,0.03,-0.023,0.003
0.017,0.005,-0.011,-0.011,0.014,-0.003,0.01,0.195,0.111,0.041,-0.01,0.011
0.055,0.03,-0.025,-0.042,0.039,0.002,0.015,0.226,0.161,0.079,0.024,0.032
0.114,0.062,-0.051,-0.088,0.082,0.005,0.014,0.265,0.21,0.128,0.064,0.061
0.145,0.065,-0.08,-0.105,0.112,-0.007,0.017,0.289,0.243,0.149,0.07,0.075
0.175,0.061,-0.114,-0.118,0.145,-0.026,0.011,0.297,0.269,0.165,0.082,0.091
0.175,0.057,-0.118,-0.115,0.147,-0.03,0.013,0.289,0.277,0.186,0.097,0.089
0.173,0.057,-0.116,-0.115,0.144,-0.029,0.025,0.287,0.266,0.189,0.102,0.082
0.197,0.067,-0.129,-0.132,0.163,-0.031,0.012,0.279,0.266,0.194,0.103,0.08
0.181,0.058,-0.124,-0.119,0.152,-0.033,-0.006,0.256,0.249,0.193,0.093,0.073
0.168,0.045,-0.123,-0.107,0.145,-0.038,-0.018,0.233,0.221,0.182,0.088,0.071
0.162,0.034,-0.128,-0.098,0.145,-0.046,-0.02,0.2,0.2,0.173,0.08,0.069
0.149,0.023,-0.126,-0.086,0.137,-0.051,-0.027,0.153,0.174,0.158,0.072,0.071
0.14,0.011,-0.129,-0.076,0.134,-0.059,-0.037,0.121,0.158,0.142,0.066,0.066
0.105,0.001,-0.105,-0.053,0.105,-0.052,-0.034,0.112,0.123,0.124,0.054,0.05
0.1,-0.01,-0.11,-0.044,0.105,-0.06,-0.038,0.091,0.097,0.095,0.04,0.033
0.103,-0.021,-0.124,-0.041,0.114,-0.073,-0.04,0.059,0.085,0.076,0.027,0.023
0.088,-0.019,-0.108,-0.034,0.098,-0.063,-0.04,0.055,0.066,0.068,0.015,0.015
0.08,-0.021,-0.101,-0.03,0.091,-0.061,-0.037,0.041,0.051,0.056,0.003,0.01
0.073,-0.019,-0.092,-0.027,0.082,-0.055,-0.029,0.027,0.037,0.04,-0.007,-0.001
0.063,-0.022,-0.086,-0.02,0.075,-0.054,-0.025,0.033,0.04,0.037,-0.023,-0.023
0.069,-0.009,-0.078,-0.029,0.073,-0.043,-0.016,0.039,0.046,0.045,-0.02,-0.02
0.08,0.044,-0.036,-0.061,0.058,0.003,0.024,0.052,0.05,0.045,0.004,0.001
0.107,0.092,-0.014,-0.099,0.06,0.039,0.064,0.078,0.076,0.067,0.02,0.012
0.156,0.118,-0.038,-0.137,0.097,0.04,0.047,0.106,0.106,0.092,0.037,0.028
0.173,0.13,-0.043,-0.151,0.108,0.043,0.003,0.087,0.112,0.103,0.04,0.037
0.202,0.12,-0.082,-0.161,0.142,0.018,-0.043,0.067,0.089,0.105,0.041,0.045
0.253,0.133,-0.12,-0.193,0.186,0.006,-0.105,0.063,0.089,0.112,0.076,0.08
0.269,0.137,-0.132,-0.203,0.2,0.003,-0.123,0.053,0.124,0.146,0.093,0.09
0.257,0.083,-0.174,-0.17,0.216,-0.045,-0.111,0.013,0.087,0.125,0.073,0.073
0.228,0.057,-0.172,-0.142,0.2,-0.057,-0.115,-0.038,0.039,0.078,0.035,0.046
0.15,0.022,-0.128,-0.086,0.139,-0.053,-0.089,-0.061,0.013,0.039,-0.004,0.005
0.094,-0.025,-0.119,-0.034,0.107,-0.072,-0.055,-0.062,-0.02,-0.02,-0.048,-0.04
0.068,-0.041,-0.109,-0.013,0.089,-0.075,-0.05,-0.055,-0.036,-0.047,-0.077,-0.063
0.061,-0.044,-0.106,-0.009,0.084,-0.075,-0.063,-0.066,-0.045,-0.041,-0.073,-0.056
0.06,-0.037,-0.097,-0.011,0.079,-0.067,-0.047,-0.042,-0.03,-0.034,-0.078,-0.065
0.055,-0.033,-0.089,-0.011,0.072,-0.061,-0.06,-0.072,-0.043,-0.027,-0.071,-0.053
0.07,-0.029,-0.099,-0.02,0.084,-0.063,-0.034,0.006,-0.003,-0.024,-0.083,-0.075
0.053,-0.026,-0.079,-0.013,0.067,-0.053,0.03,0.138,0.092,0.013,-0.081,-0.118
0.179,-0.011,-0.19,-0.084,0.185,-0.101,0.011,0.336,0.337,0.268,0.141,-0.002
0.573,0.201,-0.373,-0.387,0.473,-0.086,-0.239,0.04,0.417,0.706,0.772,0.515
1.199,0.53,-0.669,-0.864,0.934,-0.07,-0.851,-1.315,-0.128,0.734,1.118,1.034
1.085,0.332,-0.753,-0.708,0.919,-0.21,-0.911,-1.945,-0.922,-0.102,0.342,0.692
0.176,-0.144,-0.32,-0.016,0.249,-0.232,-0.342,-1.472,-1.313,-0.898,-0.52,0.04
-0.114,-0.231,-0.117,0.173,0.002,-0.174,-0.127,-0.906,-0.889,-0.701,-0.514,-0.168
-0.028,-0.156,-0.128,0.092,0.05,-0.142,-0.088,-0.355,-0.327,-0.282,-0.291,-0.181
-0.029,-0.105,-0.075,0.067,0.023,-0.09,-0.037,-0.083,-0.124,-0.162,-0.206,-0.177
0.005,-0.071,-0.075,0.033,0.04,-0.073,-0.05,-0.022,-0.054,-0.104,-0.165,-0.171
0.003,-0.063,-0.066,0.03,0.035,-0.064,-0.046,-0.012,-0.054,-0.096,-0.162,-0.169
0.021,-0.051,-0.072,0.015,0.047,-0.061,-0.053,-0.011,-0.037,-0.079,-0.156,-0.161
0.022,-0.048,-0.069,0.013,0.046,-0.058,-0.055,-0.008,-0.036,-0.071,-0.156,-0.161
0.03,-0.04,-0.07,0.005,0.05,-0.055,-0.061,-0.007,-0.035,-0.066,-0.151,-0.159
0.032,-0.037,-0.069,0.003,0.051,-0.053,-0.064,-0.003,-0.034,-0.058,-0.15,-0.16
0.03,-0.032,-0.062,0.002,0.046,-0.047,-0.068,-0.005,-0.037,-0.057,-0.146,-0.172
0.033,-0.028,-0.061,-0.003,0.047,-0.044,-0.072,0.001,-0.033,-0.045,-0.137,-0.175
0.032,-0.023,-0.056,-0.004,0.045,-0.039,-0.077,0.004,-0.037,-0.053,-0.131,-0.169
0.033,-0.02,-0.053,-0.006,0.043,-0.036,-0.08,0.002,-0.034,-0.075,-0.126,-0.167
0.029,-0.02,-0.049,-0.005,0.039,-0.034,-0.081,-0.004,-0.036,-0.076,-0.132,-0.162
0.03,-0.016,-0.045,-0.007,0.038,-0.031,-0.079,-0.009,-0.034,-0.074,-0.14,-0.159
0.027,-0.015,-0.042,-0.006,0.035,-0.028,-0.081,-0.012,-0.038,-0.077,-0.136,-0.156
0.025,-0.011,-0.037,-0.007,0.031,-0.024,-0.088,-0.018,-0.044,-0.073,-0.132,-0.151
0.029,0.0,-0.028,-0.014,0.029,-0.014,-0.07,-0.019,-0.039,-0.085,-0.149,-0.149
0.024,0.005,-0.019,-0.015,0.021,-0.006,-0.062,-0.011,-0.053,-0.09,-0.164,-0.144
0.033,0.021,-0.012,-0.026,0.022,0.004,-0.066,-0.003,-0.06,-0.083,-0.157,-0.141
0.041,0.041,0.0,-0.041,0.021,0.02,-0.067,0.001,-0.051,-0.08,-0.148,-0.136
0.036,0.033,-0.003,-0.034,0.019,0.015,-0.071,0.014,-0.052,-0.074,-0.137,-0.118
0.066,0.035,-0.031,-0.05,0.048,0.002,-0.067,0.025,-0.03,-0.072,-0.128,-0.108
0.092,0.066,-0.026,-0.079,0.059,0.02,-0.063,0.045,0.0,-0.056,-0.118,-0.094
0.108,0.089,-0.019,-0.098,0.063,0.035,-0.057,0.078,0.027,-0.024,-0.087,-0.072
0.144,0.105,-0.04,-0.124,0.092,0.032,-0.054,0.116,0.09,0.02,-0.044,-0.045
0.183,0.138,-0.045,-0.16,0.114,0.046,-0.049,0.169,0.15,0.069,-0.006,-0.018
0.199,0.157,-0.041,-0.178,0.12,0.058,-0.045,0.213,0.191,0.097,0.017,-0.013
0.188,0.154,-0.033,-0.171,0.11,0.06,-0.05,0.251,0.229,0.12,0.03,-0.01
0.202,0.154,-0.048,-0.178,0.125,0.053,-0.05,0.265,0.25,0.135,0.042,-0.006
0.221,0.15,-0.071,-0.185,0.146,0.039,-0.051,0.258,0.256,0.158,0.054,-0.003
0.223,0.15,-0.073,-0.186,0.148,0.039,-0.056,0.252,0.254,0.182,0.065,0.001
0.227,0.148,-0.079,-0.187,0.153,0.034,-0.054,0.226,0.256,0.182,0.06,-0.008
0.231,0.142,-0.088,-0.186,0.159,0.027,-0.059,0.186,0.231,0.174,0.055,-0.014
0.23,0.138,-0.092,-0.184,0.161,0.023,-0.077,0.138,0.196,0.167,0.05,-0.021
0.222,0.135,-0.087,-0.179,0.154,0.024,-0.087,0.096,0.178,0.162,0.043,-0.029
0.196,0.116,-0.08,-0.155,0.138,0.018,-0.086,0.066,0.147,0.136,0.039,-0.035
0.165,0.088,-0.077,-0.126,0.121,0.005,-0.083,0.038,0.115,0.098,0.012,-0.047
0.149,0.081,-0.069,-0.115,0.109,0.006,-0.08,0.023,0.088,0.083,-0.012,-0.059
0.141,0.074,-0.067,-0.107,0.104,0.004,-0.077,0.012,0.068,0.069,-0.023,-0.077
0.139,0.067,-0.072,-0.103,0.105,-0.002,-0.075,0.003,0.052,0.051,-0.033,-0.086
0.139,0.061,-0.077,-0.099,0.108,-0.008,-0.073,-0.008,0.039,0.038,-0.049,-0.096
0.148,0.065,-0.084,-0.106,0.115,-0.009,-0.063,-0.016,0.04,0.033,-0.065,-0.092
0.14,0.065,-0.075,-0.102,0.107,-0.005,-0.058,-0.026,0.04,0.036,-0.069,-0.091
0.131,0.069,-0.062,-0.1,0.096,0.004,-0.051,-0.033,0.04,0.029,-0.068,-0.11
0.139,0.097,-0.042,-0.118,0.091,0.027,-0.027,-0.023,0.041,0.032,-0.058,-0.103
0.138,0.121,-0.018,-0.129,0.078,0.052,0.014,-0.003,0.037,0.027,-0.052,-0.092
0.156,0.15,-0.006,-0.153,0.081,0.071,0.032,0.026,0.06,0.03,-0.038,-0.073
0.156,0.161,0.004,-0.159,0.076,0.082,-0.022,0.016,0.086,0.068,-0.025,-0.054
0.174,0.149,-0.025,-0.161,0.099,0.062,-0.071,-0.014,0.085,0.069,-0.01,-0.052
0.217,0.145,-0.072,-0.181,0.144,0.036,-0.112,-0.041,0.085,0.077,0.015,-0.054
0.226,0.137,-0.089,-0.181,0.157,0.024,-0.143,-0.042,0.083,0.106,0.035,-0.059
0.249,0.124,-0.125,-0.187,0.187,0.0,-0.146,-0.055,0.04,0.09,0.034,-0.061
0.242,0.096,-0.146,-0.169,0.194,-0.024,-0.157,-0.093,-0.004,0.042,-0.016,-0.065
0.193,0.067,-0.126,-0.13,0.159,-0.029,-0.117,-0.1,-0.021,0.008,-0.043,-0.067
0.155,0.038,-0.117,-0.096,0.136,-0.039,-0.089,-0.103,-0.043,0.0,-0.076,-0.112
0.108,0.006,-0.102,-0.057,0.105,-0.047,-0.087,-0.093,-0.06,-0.034,-0.12,-0.161
0.094,-0.001,-0.095,-0.047,0.095,-0.048,-0.089,-0.111,-0.072,-0.045,-0.111,-0.157
0.08,-0.012,-0.092,-0.034,0.087,-0.052,-0.076,-0.085,-0.054,-0.042,-0.119,-0.164
0.064,-0.012,-0.076,-0.026,0.07,-0.044,-0.071,-0.116,-0.063,-0.061,-0.11,-0.155
0.061,-0.027,-0.088,-0.017,0.075,-0.058,-0.037,-0.059,-0.035,-0.049,-0.123,-0.167
0.057,-0.04,-0.097,-0.008,0.078,-0.069,0.006,0.075,0.042,-0.025,-0.144,-0.207
0.171,-0.007,-0.178,-0.082,0.174,-0.092,-0.012,0.295,0.295,0.201,0.047,-0.114
0.477,0.198,-0.279,-0.337,0.378,-0.041,-0.202,0.089,0.426,0.695,0.712,0.396
1.061,0.577,-0.484,-0.819,0.772,0.047,-0.801,-1.274,-0.053,0.912,1.262,1.041
1.068,0.446,-0.623,-0.757,0.845,-0.088,-0.941,-1.992,-0.806,0.179,0.62,0.827
0.242,-0.061,-0.303,-0.09,0.273,-0.182,-0.408,-1.553,-1.309,-0.799,-0.422,0.073
-0.09,-0.196,-0.106,0.143,0.008,-0.15,-0.153,-1.015,-1.003,-0.785,-0.6,-0.246
-0.024,-0.152,-0.128,0.088,0.052,-0.139,-0.095,-0.451,-0.407,-0.364,-0.373,-0.272
-0.046,-0.111,-0.066,0.079,0.01,-0.088,-0.024,-0.14,-0.168,-0.193,-0.258,-0.265
0.007,-0.066,-0.073,0.03,0.04,-0.069,-0.019,-0.065,-0.078,-0.117,-0.201,-0.244
0.018,-0.056,-0.074,0.02,0.046,-0.065,-0.033,-0.057,-0.067,-0.1,-0.191,-0.241
0.03,-0.041,-0.071,0.006,0.05,-0.055,-0.037,-0.047,-0.054,-0.076,-0.183,-0.234
0.032,-0.036,-0.068,0.002,0.05,-0.052,-0.034,-0.036,-0.053,-0.074,-0.179,-0.229
0.03,-0.035,-0.064,0.003,0.048,-0.05,-0.036,-0.031,-0.048,-0.069,-0.173,-0.224
0.038,-0.032,-0.07,-0.003,0.054,-0.051,-0.035,-0.022,-0.045,-0.059,-0.167,-0.218
0.041,-0.03,-0.07,-0.005,0.055,-0.05,-0.035,-0.022,-0.052,-0.069,-0.163,-0.215
0.047,-0.029,-0.076,-0.009,0.062,-0.052,-0.031,-0.016,-0.048,-0.08,-0.159,-0.215
0.036,-0.022,-0.058,-0.007,0.047,-0.039,-0.048,-0.015,-0.054,-0.077,-0.158,-0.215
0.041,-0.019,-0.06,-0.011,0.05,-0.039,-0.058,-0.008,-0.055,-0.073,-0.153,-0.215
0.045,-0.012,-0.057,-0.016,0.051,-0.034,-0.05,-0.023,-0.055,-0.07,-0.173,-0.215
0.012,-0.01,-0.023,-0.001,0.018,-0.016,-0.05,-0.038,-0.052,-0.064,-0.186,-0.212
0.02,-0.002,-0.022,-0.009,0.021,-0.012,-0.045,-0.032,-0.049,-0.068,-0.187,-0.209
0.058,0.021,-0.038,-0.039,0.048,-0.008,-0.045,-0.03,-0.049,-0.069,-0.191,-0.206
0.046,0.026,-0.02,-0.036,0.032,0.003,-0.049,-0.025,-0.043,-0.085,-0.194,-0.203
0.023,0.03,0.007,-0.027,0.008,0.018,-0.05,-0.021,-0.049,-0.089,-0.196,-0.201
0.031,0.028,-0.003,-0.03,0.017,0.013,-0.047,-0.018,-0.055,-0.077,-0.189,-0.198
0.043,0.045,0.002,-0.044,0.02,0.023,-0.044,-0.011,-0.053,-0.074,-0.176,-0.188
0.006,0.039,0.033,-0.023,-0.014,0.036,-0.045,0.001,-0.047,-0.063,-0.165,-0.175
0.026,0.047,0.02,-0.037,0.003,0.033,-0.041,0.012,-0.024,-0.062,-0.149,-0.162
0.063,0.074,0.011,-0.069,0.026,0.043,-0.04,0.024,0.009,-0.046,-0.12,-0.142
0.08,0.086,0.007,-0.083,0.036,0.046,-0.04,0.061,0.046,-0.026,-0.089,-0.105
0.167,0.131,-0.036,-0.149,0.101,0.047,-0.035,0.106,0.084,0.013,-0.048,-0.072
0.163,0.137,-0.026,-0.15,0.094,0.056,-0.032,0.163,0.146,0.078,-0.021,-0.059
0.168,0.133,-0.036,-0.15,0.102,0.048,-0.027,0.206,0.193,0.094,-0.009,-0.045
0.222,0.137,-0.085,-0.179,0.153,0.026,-0.017,0.234,0.226,0.122,0.003,-0.039
0.22,0.133,-0.087,-0.176,0.153,0.023,-0.008,0.258,0.265,0.153,0.02,-0.04
0.223,0.136,-0.087,-0.18,0.155,0.024,0.007,0.262,0.268,0.153,0.035,-0.037
0.222,0.128,-0.094,-0.175,0.158,0.017,-0.002,0.246,0.26,0.157,0.032,-0.035
0.231,0.124,-0.107,-0.177,0.168,0.008,-0.029,0.211,0.25,0.165,0.045,-0.035
0.225,0.119,-0.106,-0.172,0.165,0.006,-0.03,0.183,0.241,0.169,0.047,-0.039
0.222,0.112,-0.11,-0.167,0.166,0.002,-0.03,0.163,0.222,0.159,0.036,-0.039
0.223,0.108,-0.115,-0.165,0.168,-0.003,-0.037,0.143,0.187,0.156,0.031,-0.043
0.216,0.101,-0.115,-0.158,0.165,-0.007,-0.032,0.12,0.178,0.15,0.022,-0.043
0.217,0.09,-0.127,-0.153,0.171,-0.018,-0.051,0.085,0.161,0.134,0.016,-0.051
0.195,0.079,-0.117,-0.137,0.156,-0.019,-0.065,0.065,0.122,0.108,0.008,-0.07
0.167,0.067,-0.1,-0.117,0.134,-0.017,-0.053,0.054,0.096,0.071,0.001,-0.082
0.167,0.055,-0.112,-0.111,0.139,-0.028,-0.055,0.041,0.067,0.051,-0.006,-0.095
0.139,0.036,-0.103,-0.088,0.121,-0.033,-0.056,0.027,0.044,0.047,-0.013,-0.099
0.152,0.048,-0.104,-0.1,0.128,-0.027,-0.059,0.012,0.039,0.037,-0.033,-0.098
0.195,0.086,-0.109,-0.14,0.152,-0.011,-0.061,0.005,0.041,0.033,-0.044,-0.091
0.134,0.071,-0.063,-0.103,0.098,0.004,-0.049,-0.004,0.04,0.021,-0.036,-0.086
0.123,0.085,-0.038,-0.104,0.08,0.023,-0.021,0.003,0.04,0.025,-0.03,-0.081
0.144,0.14,-0.005,-0.142,0.074,0.067,0.027,0.027,0.056,0.049,-0.022,-0.075
0.149,0.148,-0.001,-0.148,0.075,0.073,0.046,0.061,0.076,0.061,-0.017,-0.07
0.196,0.174,-0.021,-0.185,0.108,0.076,0.014,0.058,0.099,0.099,-0.003,-0.061
0.212,0.191,-0.021,-0.202,0.117,0.085,-0.043,0.029,0.108,0.113,0.017,-0.048
0.23,0.178,-0.052,-0.204,0.14,0.063,-0.086,0.022,0.099,0.109,0.039,-0.037
0.254,0.17,-0.084,-0.212,0.168,0.043,-0.115,0.018,0.102,0.126,0.056,-0.035
0.245,0.128,-0.117,-0.186,0.18,0.005,-0.123,0.016,0.076,0.117,0.051,-0.035
0.24,0.096,-0.144,-0.168,0.192,-0.024,-0.115,-0.01,0.037,0.098,0.029,-0.035
0.175,0.061,-0.114,-0.118,0.144,-0.026,-0.097,-0.03,0.021,0.066,-0.007,-0.045
0.104,0.013,-0.091,-0.058,0.097,-0.039,-0.073,-0.047,-0.01,0.021,-0.044,-0.084
0.12,0.0,-0.12,-0.059,0.12,-0.06,-0.054,-0.047,-0.033,-0.01,-0.071,-0.128
0.111,-0.005,-0.117,-0.053,0.114,-0.061,-0.046,-0.072,-0.054,-0.022,-0.078,-0.126
0.105,-0.02,-0.125,-0.043,0.115,-0.072,-0.03,-0.061,-0.045,-0.017,-0.089,-0.133
0.099,-0.014,-0.113,-0.043,0.107,-0.063,-0.023,-0.079,-0.056,-0.014,-0.086,-0.128
0.105,-0.015,-0.12,-0.045,0.113,-0.067,-0.012,-0.051,-0.038,-0.008,-0.091,-0.13
0.054,-0.05,-0.104,-0.002,0.08,-0.077,0.038,0.066,0.019,-0.005,-0.121,-0.175
0.095,-0.022,-0.116,-0.037,0.106,-0.069,0.069,0.267,0.199,0.116,-0.043,-0.152
0.354,0.116,-0.238,-0.234,0.296,-0.061,-0.039,0.294,0.42,0.526,0.439,0.168
0.866,0.467,-0.398,-0.666,0.631,0.035,-0.589,-0.886,0.148,0.962,1.205,0.872
1.242,0.522,-0.72,-0.881,0.981,-0.099,-0.996,-1.975,-0.541,0.547,0.986,0.985
0.587,-0.003,-0.591,-0.292,0.589,-0.297,-0.613,-1.809,-1.262,-0.595,-0.15,0.283
-0.073,-0.253,-0.18,0.163,0.053,-0.216,-0.213,-1.237,-1.206,-0.879,-0.571,-0.152
-0.058,-0.185,-0.127,0.122,0.035,-0.156,-0.108,-0.552,-0.524,-0.402,-0.358,-0.22
-0.033,-0.121,-0.087,0.077,0.027,-0.104,-0.027,-0.144,-0.191,-0.182,-0.232,-0.216
0.024,-0.052,-0.076,0.014,0.05,-0.063,-0.018,-0.034,-0.083,-0.094,-0.164,-0.193
0.032,-0.046,-0.078,0.008,0.055,-0.062,-0.014,-0.006,-0.062,-0.06,-0.142,-0.195
0.027,-0.037,-0.063,0.005,0.045,-0.05,-0.005,-0.003,-0.053,-0.054,-0.135,-0.188
0.029,-0.037,-0.066,0.004,0.048,-0.051,0.0,0.013,-0.036,-0.045,-0.13,-0.186
0.02,-0.033,-0.054,0.007,0.038,-0.043,0.007,0.013,-0.035,-0.046,-0.125,-0.181
0.024,-0.029,-0.054,0.003,0.039,-0.041,0.004,0.027,-0.023,-0.036,-0.117,-0.178
0.014,-0.03,-0.044,0.008,0.029,-0.037,0.006,0.034,-0.024,-0.036,-0.117,-0.174
0.045,-0.023,-0.068,-0.01,0.057,-0.046,0.004,0.036,-0.016,-0.029,-0.115,-0.168
0.049,-0.022,-0.07,-0.013,0.059,-0.046,0.005,0.035,-0.013,-0.031,-0.11,-0.165
0.038,-0.017,-0.056,-0.01,0.047,-0.036,0.001,0.035,-0.011,-0.028,-0.105,-0.16
0.035,-0.014,-0.049,-0.01,0.042,-0.031,-0.001,0.035,-0.015,-0.025,-0.102,-0.156
0.029,-0.01,-0.039,-0.009,0.034,-0.024,0.0,0.035,-0.015,-0.025,-0.095,-0.151
0.034,-0.007,-0.041,-0.014,0.038,-0.023,0.0,0.039,-0.017,-0.025,-0.098,-0.146
0.032,-0.004,-0.036,-0.014,0.034,-0.02,0.0,0.04,-0.021,-0.025,-0.1,-0.142
0.033,-0.002,-0.035,-0.015,0.034,-0.018,0.001,0.039,-0.02,-0.027,-0.101,-0.138
0.035,0.002,-0.033,-0.019,0.034,-0.015,0.008,0.044,-0.016,-0.035,-0.111,-0.133
0.032,0.003,-0.029,-0.017,0.03,-0.012,0.013,0.038,-0.009,-0.03,-0.105,-0.129
0.039,0.009,-0.03,-0.024,0.034,-0.01,0.019,0.057,-0.001,-0.021,-0.095,-0.121
0.037,0.014,-0.023,-0.025,0.03,-0.004,0.024,0.079,0.003,-0.017,-0.088,-0.104
0.064,0.035,-0.029,-0.049,0.046,0.003,0.022,0.085,0.013,-0.007,-0.08,-0.081
0.102,0.052,-0.05,-0.077,0.076,0.001,0.019,0.108,0.034,0.004,-0.063,-0.058
0.098,0.055,-0.043,-0.076,0.07,0.006,0.02,0.135,0.059,0.032,-0.033,-0.037
0.111,0.079,-0.032,-0.095,0.071,0.023,0.015,0.172,0.093,0.065,-0.002,-0.017
0.164,0.094,-0.069,-0.129,0.116,0.013,0.015,0.207,0.148,0.101,0.041,0.011
0.226,0.115,-0.112,-0.17,0.169,0.001,0.015,0.246,0.204,0.146,0.076,0.034
0.242,0.125,-0.117,-0.183,0.179,0.004,0.006,0.282,0.233,0.164,0.084,0.036
0.228,0.115,-0.113,-0.171,0.171,0.001,0.017,0.307,0.259,0.19,0.097,0.035
0.228,0.111,-0.117,-0.169,0.172,-0.003,0.027,0.303,0.264,0.206,0.103,0.032
0.215,0.102,-0.113,-0.158,0.164,-0.005,0.025,0.282,0.252,0.199,0.096,0.029
0.214,0.096,-0.118,-0.155,0.166,-0.011,0.023,0.262,0.249,0.196,0.095,0.03
0.228,0.088,-0.14,-0.158,0.184,-0.026,0.02,0.229,0.24,0.19,0.09,0.024
0.213,0.08,-0.133,-0.146,0.173,-0.026,0.019,0.208,0.223,0.186,0.086,0.017
0.194,0.074,-0.12,-0.134,0.157,-0.022,0.01,0.175,0.194,0.182,0.084,0.011
0.19,0.069,-0.121,-0.129,0.156,-0.026,0.0,0.14,0.169,0.175,0.075,0.004
0.179,0.066,-0.112,-0.122,0.145,-0.023,-0.01,0.113,0.137,0.16,0.066,-0.002
0.161,0.062,-0.099,-0.111,0.13,-0.018,-0.019,0.095,0.108,0.142,0.057,-0.011
0.141,0.059,-0.082,-0.099,0.112,-0.011,-0.02,0.079,0.098,0.124,0.049,-0.033
0.145,0.055,-0.091,-0.1,0.118,-0.018,-0.02,0.045,0.077,0.101,0.037,-0.046
0.149,0.052,-0.096,-0.1,0.122,-0.022,-0.02,0.028,0.052,0.084,0.021,-0.053
0.135,0.048,-0.087,-0.091,0.111,-0.019,-0.02,0.024,0.035,0.066,0.02,-0.057
0.138,0.046,-0.093,-0.092,0.115,-0.023,-0.02,0.018,0.019,0.055,0.02,-0.053
0.123,0.041,-0.083,-0.082,0.103,-0.021,-0.03,0.013,0.021,0.055,0.02,-0.051
0.099,0.043,-0.056,-0.071,0.077,-0.006,-0.012,0.007,0.032,0.055,0.019,-0.047
0.099,0.085,-0.015,-0.092,0.057,0.035,0.032,0.011,0.044,0.071,0.02,-0.046
0.101,0.119,0.017,-0.11,0.042,0.068,0.077,0.034,0.044,0.075,0.023,-0.042
0.13,0.131,0.001,-0.131,0.065,0.066,0.083,0.055,0.062,0.088,0.032,-0.034
0.148,0.149,0.0,-0.148,0.074,0.074,0.034,0.042,0.077,0.118,0.052,-0.023
0.16,0.141,-0.019,-0.15,0.089,0.061,-0.016,0.036,0.071,0.12,0.056,-0.018
0.198,0.129,-0.069,-0.163,0.133,0.03,-0.058,0.028,0.067,0.13,0.077,0.012
0.218,0.12,-0.098,-0.168,0.157,0.011,-0.073,0.029,0.063,0.143,0.093,0.036
0.225,0.073,-0.152,-0.149,0.188,-0.039,-0.097,0.014,0.057,0.129,0.082,0.02
0.213,0.048,-0.164,-0.13,0.188,-0.058,-0.095,-0.029,0.019,0.091,0.06,0.005
0.164,0.047,-0.117,-0.105,0.14,-0.035,-0.055,-0.051,0.003,0.054,0.023,-0.025
0.107,0.003,-0.104,-0.054,0.105,-0.05,-0.041,-0.05,-0.004,0.034,-0.01,-0.064
0.064,-0.041,-0.106,-0.011,0.085,-0.073,-0.022,-0.035,-0.039,0.011,-0.044,-0.095
0.052,-0.052,-0.105,0.0,0.079,-0.078,-0.029,-0.047,-0.04,-0.001,-0.049,-0.097
0.063,-0.052,-0.115,-0.006,0.089,-0.083,-0.014,-0.016,-0.022,-0.008,-0.053,-0.103
0.063,-0.04,-0.103,-0.012,0.084,-0.072,-0.023,-0.044,-0.028,-0.008,-0.04,-0.085
0.077,-0.038,-0.115,-0.019,0.096,-0.076,-0.003,0.003,-0.004,0.01,-0.052,-0.1
0.054,-0.028,-0.082,-0.013,0.068,-0.054,0.059,0.1,0.023,0.022,-0.083,-0.154
0.111,-0.024,-0.135,-0.043,0.123,-0.079,0.07,0.333,0.237,0.182,0.044,-0.09
0.389,0.145,-0.245,-0.267,0.317,-0.05,-0.121,0.072,0.384,0.653,0.627,0.332
1.027,0.519,-0.507,-0.772,0.767,0.006,-0.743,-1.33,-0.002,0.939,1.211,0.923
1.193,0.306,-0.887,-0.749,1.04,-0.29,-0.965,-2.07,-0.793,0.143,0.579,0.706
0.359,-0.239,-0.598,-0.06,0.479,-0.418,-0.518,-1.754,-1.44,-0.892,-0.449,0.017
-0.099,-0.304,-0.205,0.202,0.053,-0.254,-0.206,-1.099,-1.063,-0.77,-0.524,-0.2
-0.036,-0.196,-0.16,0.117,0.062,-0.178,-0.08,-0.381,-0.38,-0.285,-0.266,-0.19
-0.007,-0.092,-0.085,0.05,0.04,-0.088,-0.029,-0.091,-0.161,-0.121,-0.161,-0.182
0.011,-0.073,-0.084,0.031,0.048,-0.079,-0.025,-0.005,-0.072,-0.055,-0.125,-0.173
-0.006,-0.076,-0.07,0.042,0.032,-0.073,-0.011,0.004,-0.07,-0.055,-0.122,-0.172
0.011,-0.046,-0.057,0.018,0.035,-0.051,-0.008,0.003,-0.056,-0.042,-0.107,-0.163
-0.006,-0.061,-0.055,0.033,0.025,-0.058,0.0,0.009,-0.054,-0.042,-0.112,-0.16
0.008,-0.052,-0.059,0.022,0.034,-0.055,0.003,0.009,-0.049,-0.036,-0.108,-0.153
0.01,-0.056,-0.066,0.024,0.038,-0.061,0.011,0.022,-0.04,-0.031,-0.105,-0.148
0.006,-0.055,-0.061,0.025,0.034,-0.058,0.014,0.03,-0.04,-0.028,-0.106,-0.142
0.022,-0.052,-0.074,0.015,0.048,-0.062,0.012,0.036,-0.032,-0.024,-0.102,-0.137
0.012,-0.044,-0.056,0.016,0.035,-0.05,0.023,0.026,-0.037,-0.026,-0.093,-0.132
0.007,-0.031,-0.037,0.012,0.022,-0.034,0.02,0.025,-0.03,-0.021,-0.082,-0.125
0.022,-0.026,-0.048,0.003,0.035,-0.037,0.012,0.018,-0.031,-0.02,-0.085,-0.129
0.018,-0.024,-0.041,0.003,0.03,-0.032,0.006,0.015,-0.029,-0.02,-0.085,-0.134
0.002,-0.026,-0.028,0.012,0.016,-0.027,-0.004,0.022,-0.026,-0.025,-0.085,-0.129
0.003,-0.025,-0.028,0.011,0.016,-0.026,-0.007,0.032,-0.025,-0.025,-0.085,-0.123
-0.03,-0.023,0.007,0.026,-0.018,-0.008,-0.007,0.044,-0.026,-0.027,-0.086,-0.12
-0.019,-0.013,0.006,0.016,-0.012,-0.004,-0.002,0.069,-0.024,-0.03,-0.083,-0.115
-0.011,-0.004,0.008,0.008,-0.009,0.002,-0.001,0.076,-0.026,-0.031,-0.079,-0.111
-0.036,0.003,0.038,0.016,-0.037,0.02,0.004,0.074,-0.021,-0.027,-0.076,-0.106
0.013,0.037,0.024,-0.025,-0.006,0.03,0.016,0.095,-0.013,-0.021,-0.073,-0.099
0.027,0.058,0.031,-0.043,-0.002,0.044,0.016,0.1,-0.003,-0.014,-0.069,-0.093
0.026,0.05,0.024,-0.038,0.0,0.037,0.015,0.121,0.018,0.0,-0.052,-0.079
0.091,0.068,-0.023,-0.08,0.057,0.023,0.014,0.156,0.044,0.026,-0.018,-0.053
0.111,0.096,-0.015,-0.103,0.062,0.04,0.009,0.183,0.095,0.065,0.014,-0.027
0.126,0.099,-0.027,-0.112,0.076,0.036,0.011,0.227,0.136,0.098,0.035,-0.008
0.185,0.105,-0.08,-0.145,0.132,0.012,0.009,0.253,0.173,0.135,0.064,0.018
0.212,0.131,-0.081,-0.171,0.146,0.025,0.01,0.263,0.215,0.161,0.085,0.032
0.217,0.134,-0.084,-0.175,0.15,0.024,0.01,0.279,0.227,0.17,0.096,0.029
0.21,0.124,-0.085,-0.167,0.147,0.019,0.011,0.274,0.234,0.171,0.104,0.03
0.199,0.121,-0.078,-0.16,0.138,0.021,0.025,0.257,0.224,0.162,0.103,0.025
0.191,0.114,-0.077,-0.152,0.134,0.019,0.024,0.244,0.215,0.16,0.099,0.025
0.177,0.109,-0.068,-0.142,0.122,0.02,0.02,0.222,0.204,0.154,0.093,0.024
0.155,0.1,-0.055,-0.127,0.105,0.022,0.017,0.192,0.175,0.151,0.09,0.017
0.138,0.092,-0.046,-0.115,0.091,0.023,0.013,0.167,0.155,0.157,0.085,0.013
0.123,0.084,-0.039,-0.103,0.08,0.022,0.009,0.153,0.144,0.151,0.081,0.007
0.1,0.078,-0.023,-0.089,0.061,0.027,0.008,0.133,0.129,0.138,0.075,0.001
0.064,0.071,0.007,-0.067,0.028,0.039,0.024,0.106,0.1,0.128,0.065,-0.003
0.021,0.067,0.046,-0.044,-0.013,0.056,0.025,0.076,0.078,0.114,0.057,-0.009
0.006,0.061,0.054,-0.034,-0.024,0.057,0.025,0.054,0.062,0.1,0.048,-0.015
-0.018,0.055,0.073,-0.019,-0.045,0.063,0.025,0.045,0.046,0.086,0.039,-0.02
-0.031,0.05,0.081,-0.01,-0.056,0.066,0.025,0.04,0.03,0.074,0.035,-0.025
-0.033,0.049,0.082,-0.008,-0.057,0.066,0.024,0.04,0.014,0.073,0.035,-0.032
-0.059,0.051,0.11,0.004,-0.085,0.08,0.018,0.04,0.017,0.078,0.034,-0.034
-0.079,0.047,0.126,0.016,-0.103,0.087,0.041,0.041,0.033,0.08,0.035,-0.023
-0.095,0.062,0.157,0.016,-0.126,0.11,0.065,0.042,0.042,0.085,0.034,-0.011
-0.106,0.085,0.192,0.01,-0.15,0.138,0.107,0.067,0.054,0.087,0.038,0.003
-0.083,0.126,0.209,-0.022,-0.146,0.167,0.137,0.106,0.086,0.108,0.067,0.022
-0.039,0.156,0.196,-0.059,-0.118,0.176,0.093,0.109,0.105,0.135,0.092,0.043
-0.026,0.145,0.171,-0.06,-0.098,0.157,0.041,0.105,0.105,0.136,0.097,0.057
-0.019,0.137,0.155,-0.059,-0.087,0.146,0.002,0.093,0.103,0.158,0.116,0.075
-0.006,0.128,0.135,-0.061,-0.071,0.132,-0.014,0.092,0.106,0.173,0.141,0.102
-0.017,0.116,0.133,-0.049,-0.076,0.124,-0.021,0.073,0.096,0.153,0.14,0.099
-0.044,0.082,0.126,-0.019,-0.085,0.103,-0.04,0.028,0.064,0.126,0.111,0.076
-0.107,0.035,0.143,0.036,-0.125,0.088,-0.001,0.02,0.03,0.088,0.071,0.043
-0.2,-0.011,0.189,0.105,-0.194,0.089,0.042,0.004,0.004,0.055,0.03,0.007
-0.238,-0.045,0.193,0.141,-0.215,0.074,0.049,0.008,-0.002,0.039,0.006,-0.014
-0.237,-0.039,0.199,0.138,-0.218,0.08,0.044,-0.019,-0.017,0.037,0.007,-0.014
-0.24,-0.04,0.199,0.14,-0.219,0.08,0.056,0.008,-0.01,0.034,-0.006,-0.024
-0.244,-0.036,0.208,0.14,-0.225,0.086,0.055,-0.005,-0.031,0.028,-0.003,-0.027
-0.235,-0.031,0.204,0.133,-0.219,0.086,0.062,0.019,-0.01,0.027,-0.02,-0.028
-0.278,-0.064,0.215,0.171,-0.246,0.075,0.127,0.131,0.042,0.024,-0.047,-0.067
-0.245,-0.063,0.182,0.154,-0.214,0.06,0.158,0.337,0.21,0.137,0.038,-0.058
0.01,0.095,0.085,-0.053,-0.037,0.09,0.051,0.294,0.414,0.548,0.509,0.273
0.596,0.469,-0.127,-0.532,0.361,0.171,-0.5,-0.94,0.12,0.939,1.185,0.9
0.942,0.401,-0.542,-0.671,0.742,-0.07,-0.862,-1.95,-0.645,0.343,0.799,0.865
0.217,-0.177,-0.395,-0.02,0.306,-0.286,-0.47,-1.783,-1.4,-0.81,-0.325,0.152
-0.414,-0.352,0.062,0.383,-0.238,-0.145,-0.1,-1.173,-1.184,-0.875,-0.562,-0.146
-0.353,-0.216,0.136,0.284,-0.244,-0.04,0.017,-0.431,-0.433,-0.33,-0.26,-0.112
-0.324,-0.113,0.211,0.218,-0.267,0.049,0.105,-0.067,-0.141,-0.123,-0.14,-0.114
-0.314,-0.07,0.245,0.192,-0.279,0.087,0.123,0.038,-0.03,-0.043,-0.08,-0.097
-0.323,-0.079,0.244,0.201,-0.283,0.082,0.118,0.065,-0.023,-0.04,-0.066,-0.096
-0.318,-0.066,0.252,0.192,-0.285,0.092,0.121,0.067,-0.018,-0.027,-0.06,-0.09
-0.304,-0.067,0.237,0.185,-0.27,0.085,0.119,0.084,-0.005,-0.019,-0.055,-0.088
-0.303,-0.06,0.243,0.181,-0.273,0.091,0.121,0.084,-0.007,-0.02,-0.053,-0.084
-0.302,-0.071,0.231,0.186,-0.267,0.08,0.119,0.096,0.008,-0.013,-0.045,-0.08
-0.312,-0.072,0.241,0.192,-0.276,0.084,0.115,0.097,0.005,-0.014,-0.048,-0.077
-0.302,-0.061,0.241,0.181,-0.271,0.09,0.115,0.101,0.015,-0.009,-0.05,-0.074
-0.304,-0.058,0.247,0.181,-0.275,0.094,0.114,0.1,0.017,-0.006,-0.05,-0.075
-0.299,-0.048,0.25,0.174,-0.274,0.101,0.11,0.1,0.02,0.022,-0.05,-0.07
-0.296,-0.047,0.249,0.171,-0.272,0.101,0.109,0.1,0.014,0.024,-0.05,-0.07
-0.296,-0.04,0.256,0.168,-0.276,0.107,0.113,0.1,0.008,0.014,-0.05,-0.07
-0.29,-0.037,0.253,0.163,-0.271,0.108,0.115,0.1,0.005,0.008,-0.055,-0.07
-0.295,-0.032,0.263,0.163,-0.279,0.116,0.115,0.1,0.0,-0.002,-0.055,-0.07
-0.293,-0.024,0.269,0.159,-0.281,0.123,0.115,0.099,-0.005,-0.007,-0.057,-0.07
-0.289,-0.014,0.275,0.152,-0.282,0.13,0.115,0.109,-0.001,-0.015,-0.06,-0.07
-0.292,-0.006,0.285,0.149,-0.288,0.139,0.115,0.119,0.006,-0.019,-0.06,-0.071
-0.266,0.012,0.278,0.127,-0.272,0.145,0.115,0.125,0.011,-0.013,-0.056,-0.064
-0.241,0.032,0.274,0.104,-0.258,0.153,0.115,0.13,0.017,-0.005,-0.044,-0.05
-0.234,0.034,0.267,0.1,-0.251,0.15,0.115,0.149,0.03,0.0,-0.033,-0.037
-0.208,0.055,0.263,0.077,-0.236,0.158,0.115,0.187,0.055,0.009,-0.018,-0.019
-0.183,0.071,0.254,0.056,-0.219,0.162,0.113,0.203,0.082,0.027,0.0,0.004
-0.154,0.075,0.228,0.039,-0.191,0.151,0.109,0.233,0.116,0.059,0.016,0.031
-0.127,0.081,0.208,0.022,-0.168,0.145,0.104,0.279,0.159,0.092,0.039,0.05
-0.099,0.095,0.195,0.002,-0.147,0.145,0.102,0.306,0.2,0.125,0.065,0.057
-0.071,0.111,0.182,-0.02,-0.127,0.146,0.096,0.338,0.238,0.153,0.085,0.076
-0.071,0.109,0.179,-0.019,-0.125,0.144,0.097,0.345,0.249,0.156,0.096,0.095
-0.063,0.118,0.18,-0.028,-0.122,0.149,0.11,0.33,0.243,0.154,0.093,0.097
-0.069,0.107,0.176,-0.019,-0.122,0.141,0.108,0.314,0.235,0.156,0.09,0.089
-0.084,0.091,0.175,-0.004,-0.13,0.133,0.104,0.28,0.23,0.154,0.087,0.083
-0.077,0.097,0.174,-0.01,-0.126,0.136,0.101,0.258,0.219,0.156,0.085,0.076
-0.077,0.094,0.17,-0.009,-0.124,0.132,0.096,0.238,0.19,0.151,0.083,0.069
-0.069,0.096,0.164,-0.014,-0.117,0.13,0.094,0.202,0.17,0.137,0.074,0.063
-0.067,0.093,0.16,-0.013,-0.114,0.126,0.089,0.16,0.154,0.123,0.068,0.04
-0.093,0.064,0.157,0.014,-0.125,0.11,0.083,0.123,0.125,0.104,0.061,0.02
-0.108,0.04,0.149,0.034,-0.129,0.094,0.08,0.106,0.096,0.082,0.051,0.015
-0.133,0.034,0.168,0.05,-0.151,0.1,0.075,0.094,0.07,0.065,0.036,0.009
-0.16,0.029,0.189,0.065,-0.174,0.109,0.07,0.07,0.047,0.049,0.019,0.003
-0.168,0.013,0.181,0.078,-0.175,0.097,0.073,0.043,0.023,0.033,0.005,-0.007
-0.192,-0.012,0.179,0.102,-0.185,0.083,0.075,0.036,0.004,0.017,-0.006,-0.018
-0.194,-0.015,0.178,0.104,-0.186,0.081,0.077,0.029,-0.003,0.002,-0.019,-0.031
-0.178,-0.008,0.17,0.092,-0.174,0.08,0.08,0.026,-0.005,0.0,-0.036,-0.031
-0.188,-0.002,0.187,0.095,-0.188,0.092,0.082,0.025,-0.013,-0.004,-0.031,-0.025
-0.171,0.034,0.205,0.068,-0.188,0.119,0.085,0.025,-0.013,-0.005,-0.014,-0.02
-0.167,0.064,0.231,0.052,-0.199,0.147,0.125,0.036,-0.001,0.006,-0.004,-0.013
-0.163,0.093,0.257,0.035,-0.21,0.175,0.167,0.07,0.029,0.031,0.009,-0.009
-0.095,0.142,0.237,-0.023,-0.167,0.189,0.138,0.091,0.058,0.05,0.019,0.006
-0.063,0.143,0.206,-0.04,-0.135,0.175,0.082,0.056,0.059,0.048,0.031,0.017
-0.045,0.126,0.171,-0.041,-0.109,0.148,0.041,0.038,0.053,0.062,0.05,0.039
-0.015,0.119,0.135,-0.052,-0.075,0.127,0.016,0.033,0.047,0.067,0.073,0.059
-0.037,0.085,0.122,-0.024,-0.08,0.104,0.009,0.03,0.048,0.059,0.085,0.044
-0.082,0.046,0.128,0.018,-0.105,0.087,-0.014,0.015,-0.005,0.04,0.044,0.028
-0.116,0.015,0.131,0.05,-0.124,0.073,0.002,-0.011,-0.03,0.0,0.005,0.008
-0.182,-0.021,0.161,0.101,-0.171,0.07,0.063,-0.035,-0.04,-0.034,-0.016,-0.015
-0.208,-0.052,0.156,0.13,-0.181,0.052,0.078,-0.04,-0.079,-0.066,-0.067,-0.057
-0.221,-0.071,0.15,0.146,-0.186,0.039,0.074,-0.061,-0.091,-0.08,-0.085,-0.078
-0.214,-0.079,0.135,0.146,-0.174,0.028,0.074,-0.057,-0.089,-0.077,-0.086,-0.074
-0.216,-0.092,0.124,0.154,-0.17,0.016,0.079,-0.056,-0.089,-0.076,-0.093,-0.079
-0.22,-0.086,0.134,0.153,-0.177,0.024,0.066,-0.065,-0.096,-0.059,-0.09,-0.067
-0.233,-0.104,0.128,0.168,-0.18,0.012,0.115,0.038,-0.059,-0.057,-0.108,-0.108
-0.232,-0.097,0.135,0.164,-0.183,0.019,0.165,0.18,0.067,-0.014,-0.086,-0.122
-0.021,-0.007,0.015,0.014,-0.018,0.004,0.112,0.364,0.314,0.287,0.219,0.073
0.423,0.275,-0.148,-0.349,0.285,0.063,-0.287,-0.47,0.201,0.739,0.915,0.643
1.005,0.453,-0.552,-0.729,0.778,-0.049,-0.832,-1.798,-0.471,0.486,0.942,0.919
0.584,-0.037,-0.621,-0.274,0.602,-0.328,-0.633,-1.974,-1.319,-0.632,-0.124,0.312
-0.281,-0.409,-0.128,0.345,-0.076,-0.269,-0.154,-1.461,-1.445,-1.072,-0.687,-0.18
-0.334,-0.291,0.043,0.312,-0.188,-0.124,-0.018,-0.702,-0.718,-0.582,-0.43,-0.178
-0.309,-0.204,0.105,0.256,-0.207,-0.049,0.073,-0.181,-0.268,-0.263,-0.253,-0.168
-0.295,-0.135,0.16,0.214,-0.227,0.012,0.117,-0.033,-0.135,-0.16,-0.182,-0.158
-0.262,-0.106,0.156,0.184,-0.209,0.025,0.118,0.014,-0.092,-0.134,-0.156,-0.15
-0.264,-0.097,0.167,0.18,-0.215,0.035,0.117,0.009,-0.098,-0.131,-0.155,-0.145
-0.256,-0.109,0.147,0.182,-0.201,0.019,0.11,0.034,-0.075,-0.114,-0.14,-0.136
-0.255,-0.098,0.157,0.177,-0.206,0.029,0.108,0.034,-0.082,-0.113,-0.138,-0.135
-0.21,-0.072,0.138,0.141,-0.174,0.032,0.101,0.045,-0.065,-0.098,-0.13,-0.13
-0.246,-0.086,0.16,0.166,-0.203,0.036,0.098,0.037,-0.065,-0.097,-0.129,-0.128
-0.258,-0.07,0.188,0.164,-0.223,0.059,0.093,0.035,-0.058,-0.092,-0.123,-0.124
-0.231,-0.048,0.183,0.139,-0.207,0.067,0.116,0.063,-0.056,-0.09,-0.118,-0.12
-0.248,-0.058,0.19,0.153,-0.219,0.066,0.129,0.077,-0.052,-0.085,-0.111,-0.112
-0.255,-0.065,0.189,0.16,-0.222,0.062,0.118,0.071,-0.048,-0.087,-0.104,-0.106
-0.243,-0.053,0.19,0.148,-0.217,0.068,0.113,0.07,-0.046,-0.091,-0.098,-0.099
-0.242,-0.052,0.19,0.147,-0.216,0.069,0.104,0.066,-0.039,-0.089,-0.091,-0.092
-0.243,-0.043,0.2,0.143,-0.221,0.078,0.095,0.065,-0.049,-0.094,-0.098,-0.088
-0.235,-0.04,0.194,0.137,-0.214,0.077,0.108,0.072,-0.056,-0.096,-0.101,-0.083
-0.189,-0.022,0.167,0.105,-0.178,0.072,0.123,0.079,-0.048,-0.094,-0.1,-0.08
-0.204,-0.005,0.2,0.104,-0.202,0.097,0.117,0.073,-0.045,-0.089,-0.101,-0.077
-0.235,-0.004,0.231,0.119,-0.232,0.113,0.115,0.078,-0.04,-0.079,-0.099,-0.072
-0.199,0.019,0.218,0.09,-0.208,0.118,0.112,0.106,-0.035,-0.072,-0.101,-0.07
-0.182,0.038,0.22,0.072,-0.201,0.129,0.108,0.12,-0.024,-0.064,-0.088,-0.052
-0.137,0.08,0.217,0.028,-0.177,0.148,0.119,0.145,0.003,-0.056,-0.068,-0.028
-0.084,0.099,0.183,-0.008,-0.134,0.141,0.126,0.167,0.027,-0.045,-0.058,-0.018
-0.082,0.086,0.168,-0.002,-0.125,0.127,0.12,0.204,0.065,-0.009,-0.031,0.004
-0.033,0.113,0.146,-0.04,-0.09,0.129,0.117,0.26,0.113,0.022,0.01,0.033
0.003,0.136,0.133,-0.07,-0.065,0.134,0.114,0.28,0.157,0.051,0.033,0.048
-0.008,0.141,0.149,-0.067,-0.078,0.144,0.107,0.3,0.197,0.081,0.046,0.053
0.023,0.143,0.12,-0.083,-0.049,0.132,0.118,0.336,0.221,0.099,0.057,0.072
0.028,0.146,0.118,-0.087,-0.045,0.131,0.127,0.342,0.227,0.116,0.061,0.08
0.029,0.15,0.121,-0.089,-0.046,0.135,0.115,0.311,0.216,0.122,0.077,0.07
0.041,0.15,0.109,-0.095,-0.034,0.129,0.103,0.284,0.209,0.127,0.08,0.065
0.038,0.143,0.106,-0.091,-0.034,0.124,0.105,0.262,0.197,0.121,0.07,0.057
0.039,0.135,0.095,-0.087,-0.028,0.115,0.112,0.239,0.18,0.117,0.065,0.052
0.036,0.127,0.092,-0.082,-0.028,0.109,0.099,0.216,0.164,0.113,0.057,0.045
0.042,0.119,0.077,-0.081,-0.018,0.098,0.091,0.18,0.136,0.09,0.052,0.035
0.015,0.111,0.097,-0.063,-0.041,0.104,0.089,0.141,0.103,0.067,0.043,0.025
-0.015,0.1,0.114,-0.043,-0.065,0.107,0.086,0.108,0.069,0.047,0.026,0.015
-0.028,0.087,0.115,-0.03,-0.072,0.101,0.084,0.091,0.042,0.032,0.01,0.005
-0.051,0.085,0.136,-0.018,-0.094,0.111,0.08,0.078,0.029,0.017,0.0,-0.003
-0.05,0.084,0.134,-0.017,-0.093,0.109,0.08,0.059,0.015,0.0,-0.009,-0.012
-0.036,0.086,0.122,-0.025,-0.079,0.104,0.081,0.051,-0.001,-0.015,-0.017,-0.02
-0.052,0.084,0.136,-0.016,-0.095,0.11,0.079,0.039,-0.017,-0.027,-0.027,-0.019
-0.019,0.087,0.106,-0.034,-0.063,0.096,0.081,0.032,-0.034,-0.047,-0.034,-0.025
-0.024,0.081,0.105,-0.029,-0.065,0.093,0.078,0.016,-0.032,-0.059,-0.035,-0.034
-0.07,0.073,0.143,-0.001,-0.107,0.108,0.08,0.004,-0.019,-0.048,-0.041,-0.025
-0.055,0.098,0.154,-0.022,-0.104,0.126,0.108,0.028,-0.011,-0.037,-0.037,-0.017
-0.096,0.115,0.211,-0.01,-0.154,0.163,0.146,0.051,0.008,-0.032,-0.032,-0.008
-0.061,0.15,0.211,-0.045,-0.136,0.181,0.155,0.091,0.038,0.0,-0.016,0.013
0.003,0.181,0.178,-0.092,-0.088,0.179,0.114,0.097,0.055,0.034,0.016,0.03
0.013,0.176,0.163,-0.095,-0.075,0.169,0.068,0.071,0.055,0.035,0.03,0.043
0.072,0.187,0.114,-0.13,-0.021,0.15,0.02,0.059,0.05,0.049,0.052,0.074
0.099,0.176,0.077,-0.138,0.011,0.126,-0.024,0.044,0.048,0.057,0.065,0.089
0.071,0.13,0.059,-0.101,0.006,0.094,-0.039,0.011,0.005,0.02,0.044,0.065
0.049,0.103,0.054,-0.076,-0.003,0.079,-0.028,-0.025,-0.039,-0.013,0.023,0.037
0.015,0.078,0.063,-0.047,-0.024,0.07,0.01,-0.035,-0.044,-0.033,-0.001,0.017
-0.063,0.026,0.089,0.018,-0.076,0.057,0.035,-0.038,-0.075,-0.071,-0.055,-0.019
-0.115,-0.031,0.084,0.073,-0.099,0.026,0.06,-0.029,-0.096,-0.088,-0.087,-0.049
-0.111,-0.05,0.061,0.081,-0.086,0.005,0.065,-0.038,-0.098,-0.081,-0.082,-0.041
-0.134,-0.059,0.075,0.096,-0.104,0.008,0.076,-0.02,-0.086,-0.099,-0.089,-0.049
-0.146,-0.058,0.088,0.102,-0.116,0.015,0.071,-0.039,-0.097,-0.102,-0.081,-0.041
-0.108,-0.046,0.062,0.077,-0.085,0.008,0.078,0.012,-0.075,-0.098,-0.091,-0.049
-0.147,-0.068,0.079,0.108,-0.113,0.005,0.134,0.111,-0.013,-0.08,-0.106,-0.093
-0.069,-0.049,0.021,0.059,-0.045,-0.013,0.146,0.33,0.182,0.075,-0.002,-0.045
0.22,0.11,-0.111,-0.165,0.166,-0.001,-0.013,0.179,0.333,0.484,0.507,0.312
0.837,0.425,-0.412,-0.631,0.624,0.007,-0.579,-1.095,-0.07,0.706,1.036,0.866
1.061,0.297,-0.764,-0.679,0.913,-0.234,-0.83,-1.979,-0.903,-0.066,0.439,0.699
0.206,-0.237,-0.443,0.016,0.325,-0.34,-0.379,-1.757,-1.502,-1.023,-0.54,0.024
-0.311,-0.35,-0.039,0.33,-0.136,-0.194,-0.077,-1.112,-1.126,-0.889,-0.595,-0.183
-0.217,-0.224,-0.007,0.22,-0.104,-0.115,0.01,-0.417,-0.44,-0.404,-0.324,-0.158
-0.202,-0.132,0.07,0.167,-0.136,-0.031,0.086,-0.098,-0.191,-0.225,-0.205,-0.145
-0.176,-0.1,0.076,0.138,-0.126,-0.012,0.092,-0.007,-0.096,-0.145,-0.156,-0.116
-0.187,-0.113,0.073,0.15,-0.129,-0.02,0.092,-0.004,-0.1,-0.135,-0.16,-0.115
-0.177,-0.099,0.078,0.138,-0.127,-0.011,0.084,0.004,-0.091,-0.124,-0.142,-0.106
-0.176,-0.104,0.072,0.139,-0.124,-0.015,0.081,0.037,-0.083,-0.122,-0.137,-0.105
-0.176,-0.098,0.078,0.137,-0.127,-0.01,0.072,0.039,-0.083,-0.118,-0.129,-0.098
-0.166,-0.094,0.072,0.129,-0.119,-0.011,0.075,0.036,-0.071,-0.112,-0.122,-0.095
-0.16,-0.082,0.078,0.121,-0.119,-0.002,0.085,0.032,-0.072,-0.109,-0.116,-0.095
-0.143,-0.072,0.071,0.107,-0.107,-0.001,0.078,0.029,-0.061,-0.104,-0.109,-0.095
-0.154,-0.063,0.091,0.108,-0.122,0.013,0.074,0.023,-0.059,-0.103,-0.104,-0.095
-0.153,-0.059,0.094,0.106,-0.124,0.017,0.068,0.04,-0.051,-0.099,-0.1,-0.095
-0.152,-0.061,0.092,0.107,-0.122,0.015,0.061,0.052,-0.052,-0.097,-0.1,-0.095
-0.174,-0.06,0.114,0.116,-0.144,0.027,0.064,0.049,-0.063,-0.093,-0.1,-0.093
-0.176,-0.06,0.116,0.117,-0.145,0.027,0.07,0.048,-0.07,-0.118,-0.114,-0.089
-0.169,-0.054,0.114,0.111,-0.141,0.03,0.071,0.045,-0.078,-0.133,-0.123,-0.087
-0.165,-0.049,0.116,0.106,-0.14,0.034,0.069,0.044,-0.078,-0.122,-0.125,-0.084
-0.157,-0.043,0.114,0.1,-0.135,0.035,0.077,0.051,-0.072,-0.121,-0.122,-0.081
-0.155,-0.037,0.118,0.095,-0.136,0.04,0.081,0.059,-0.069,-0.114,-0.113,-0.08
-0.153,-0.029,0.124,0.091,-0.138,0.047,0.075,0.068,-0.062,-0.11,-0.108,-0.073
-0.141,-0.021,0.12,0.081,-0.13,0.049,0.07,0.077,-0.061,-0.111,-0.101,-0.063
-0.121,-0.009,0.112,0.065,-0.117,0.051,0.067,0.1,-0.042,-0.102,-0.095,-0.049
-0.101,0.005,0.106,0.048,-0.104,0.055,0.059,0.123,-0.016,-0.089,-0.086,-0.024
-0.07,0.022,0.092,0.024,-0.082,0.057,0.068,0.146,0.017,-0.066,-0.067,0.004
-0.024,0.053,0.077,-0.015,-0.05,0.065,0.092,0.199,0.058,-0.038,-0.037,0.026
0.015,0.085,0.07,-0.05,-0.028,0.077,0.092,0.234,0.101,0.002,-0.005,0.042
0.04,0.091,0.051,-0.066,-0.006,0.071,0.085,0.269,0.146,0.033,0.017,0.056
0.06,0.09,0.029,-0.075,0.016,0.059,0.081,0.31,0.179,0.048,0.033,0.062
0.097,0.087,-0.01,-0.092,0.053,0.038,0.074,0.31,0.21,0.076,0.053,0.069
0.093,0.084,-0.008,-0.088,0.05,0.038,0.071,0.293,0.207,0.082,0.056,0.075
0.063,0.085,0.022,-0.075,0.02,0.053,0.065,0.274,0.19,0.079,0.055,0.068
0.079,0.079,0.0,-0.079,0.039,0.04,0.061,0.251,0.185,0.081,0.06,0.061
0.066,0.073,0.007,-0.069,0.029,0.039,0.056,0.225,0.168,0.079,0.06,0.054
0.049,0.066,0.017,-0.057,0.016,0.041,0.051,0.197,0.141,0.081,0.059,0.046
0.059,0.06,0.001,-0.059,0.028,0.03,0.05,0.167,0.111,0.068,0.047,0.039
0.044,0.049,0.005,-0.047,0.02,0.026,0.05,0.134,0.088,0.052,0.036,0.032
-0.006,0.027,0.033,-0.011,-0.02,0.03,0.051,0.107,0.067,0.034,0.024,0.022
-0.029,0.013,0.042,0.008,-0.036,0.027,0.049,0.088,0.048,0.012,0.011,0.013
-0.024,0.008,0.033,0.007,-0.029,0.02,0.051,0.074,0.025,-0.006,-0.001,0.002
-0.033,0.0,0.033,0.017,-0.033,0.017,0.049,0.066,-0.005,-0.024,-0.027,-0.005
-0.031,-0.004,0.026,0.017,-0.028,0.011,0.045,0.052,-0.029,-0.037,-0.035,-0.01
-0.042,-0.018,0.024,0.03,-0.033,0.003,0.045,0.035,-0.041,-0.061,-0.046,-0.015
-0.072,-0.04,0.032,0.056,-0.051,-0.004,0.042,0.029,-0.055,-0.078,-0.064,-0.018
-0.064,-0.029,0.034,0.046,-0.049,0.003,0.042,0.03,-0.059,-0.071,-0.057,-0.024
-0.032,-0.02,0.011,0.026,-0.021,-0.004,0.035,0.024,-0.051,-0.07,-0.053,-0.023
-0.03,-0.01,0.021,0.02,-0.025,0.006,0.057,0.027,-0.043,-0.065,-0.048,-0.017
-0.064,0.018,0.082,0.023,-0.074,0.05,0.074,0.026,-0.039,-0.062,-0.041,-0.011
-0.081,0.033,0.114,0.024,-0.098,0.073,0.112,0.051,-0.02,-0.057,-0.037,-0.006
-0.029,0.077,0.106,-0.024,-0.068,0.091,0.137,0.079,0.01,-0.029,-0.028,0.007
-0.002,0.105,0.108,-0.052,-0.055,0.106,0.093,0.052,0.016,-0.004,-0.012,0.024
0.025,0.097,0.072,-0.061,-0.024,0.084,0.044,0.043,0.015,-0.004,0.0,0.042
0.075,0.102,0.027,-0.089,0.024,0.064,-0.02,0.037,0.014,0.004,0.026,0.066
0.108,0.097,-0.011,-0.103,0.059,0.043,-0.031,0.031,0.03,0.026,0.048,0.079
0.141,0.067,-0.073,-0.104,0.107,-0.003,-0.054,0.024,0.005,-0.004,0.018,0.07
0.107,0.025,-0.082,-0.065,0.094,-0.029,-0.071,0.008,-0.05,-0.05,-0.009,0.039
0.015,-0.023,-0.038,0.004,0.027,-0.03,-0.023,-0.005,-0.074,-0.069,-0.031,0.006
-0.089,-0.082,0.007,0.085,-0.048,-0.037,-0.002,-0.031,-0.098,-0.112,-0.082,-0.035
-0.136,-0.125,0.011,0.13,-0.073,-0.057,0.023,-0.039,-0.111,-0.138,-0.108,-0.068
-0.111,-0.123,-0.012,0.118,-0.049,-0.067,0.014,-0.063,-0.12,-0.142,-0.116,-0.071
-0.107,-0.127,-0.019,0.117,-0.044,-0.073,0.022,-0.036,-0.108,-0.145,-0.122,-0.076
-0.107,-0.134,-0.027,0.121,-0.04,-0.081,0.034,-0.067,-0.123,-0.145,-0.124,-0.076
-0.104,-0.125,-0.021,0.115,-0.041,-0.072,0.06,-0.016,-0.105,-0.146,-0.131,-0.086
-0.133,-0.108,0.024,0.12,-0.078,-0.042,0.104,0.109,-0.024,-0.111,-0.114,-0.112
-0.014,-0.08,-0.066,0.047,0.026,-0.073,0.106,0.321,0.194,0.08,0.024,-0.052
0.321,0.088,-0.233,-0.204,0.277,-0.072,-0.061,0.184,0.34,0.485,0.57,0.372
0.972,0.396,-0.576,-0.684,0.774,-0.089,-0.646,-1.082,-0.115,0.578,0.951,0.882
1.032,0.261,-0.771,-0.646,0.901,-0.255,-0.804,-1.888,-0.927,-0.194,0.287,0.653
0.103,-0.207,-0.31,0.052,0.206,-0.258,-0.276,-1.542,-1.385,-0.979,-0.524,0.046
-0.301,-0.317,-0.017,0.309,-0.142,-0.167,-0.02,-0.988,-1.025,-0.834,-0.567,-0.182
-0.233,-0.257,-0.023,0.245,-0.105,-0.14,0.037,-0.41,-0.459,-0.43,-0.349,-0.192
-0.242,-0.194,0.048,0.218,-0.145,-0.072,0.106,-0.106,-0.224,-0.257,-0.239,-0.159
-0.185,-0.137,0.048,0.161,-0.116,-0.045,0.1,-0.02,-0.134,-0.185,-0.194,-0.131
-0.197,-0.149,0.048,0.173,-0.122,-0.051,0.099,0.009,-0.134,-0.185,-0.184,-0.137
-0.185,-0.14,0.044,0.162,-0.114,-0.048,0.093,0.009,-0.115,-0.173,-0.179,-0.134
-0.181,-0.141,0.04,0.161,-0.111,-0.05,0.089,0.017,-0.11,-0.173,-0.176,-0.136
-0.176,-0.136,0.039,0.156,-0.107,-0.048,0.084,0.012,-0.108,-0.167,-0.17,-0.135
-0.18,-0.129,0.051,0.154,-0.115,-0.039,0.081,0.011,-0.102,-0.162,-0.165,-0.133
-0.19,-0.126,0.064,0.158,-0.127,-0.031,0.079,0.009,-0.101,-0.158,-0.16,-0.128
-0.172,-0.118,0.054,0.145,-0.113,-0.032,0.075,0.01,-0.094,-0.153,-0.154,-0.122
-0.17,-0.114,0.056,0.142,-0.113,-0.029,0.073,0.01,-0.094,-0.149,-0.149,-0.119
-0.158,-0.108,0.05,0.133,-0.104,-0.029,0.069,0.01,-0.089,-0.144,-0.144,-0.113
-0.154,-0.106,0.049,0.13,-0.101,-0.028,0.073,0.014,-0.087,-0.14,-0.14,-0.111
-0.176,-0.102,0.074,0.139,-0.125,-0.014,0.075,0.026,-0.084,-0.133,-0.139,-0.114
-0.188,-0.1,0.088,0.143,-0.138,-0.005,0.078,0.032,-0.082,-0.129,-0.141,-0.111
-0.18,-0.096,0.084,0.138,-0.131,-0.006,0.081,0.03,-0.078,-0.125,-0.137,-0.108
-0.181,-0.095,0.085,0.137,-0.133,-0.005,0.08,0.03,-0.103,-0.17,-0.161,-0.106
-0.189,-0.09,0.099,0.14,-0.144,0.004,0.08,0.031,-0.119,-0.191,-0.18,-0.102
-0.183,-0.081,0.102,0.131,-0.142,0.011,0.08,0.03,-0.108,-0.166,-0.167,-0.101
-0.164,-0.073,0.091,0.118,-0.127,0.009,0.079,0.043,-0.1,-0.165,-0.156,-0.096
-0.149,-0.063,0.086,0.106,-0.118,0.012,0.086,0.06,-0.091,-0.158,-0.142,-0.082
-0.137,-0.061,0.076,0.099,-0.107,0.008,0.09,0.065,-0.083,-0.147,-0.127,-0.068
-0.12,-0.049,0.071,0.085,-0.096,0.011,0.085,0.088,-0.056,-0.138,-0.117,-0.053
-0.104,-0.027,0.077,0.065,-0.09,0.025,0.083,0.114,-0.015,-0.132,-0.098,-0.03
-0.071,-0.014,0.057,0.043,-0.064,0.021,0.078,0.159,0.028,-0.095,-0.072,-0.004
-0.04,-0.004,0.035,0.022,-0.037,0.015,0.074,0.211,0.089,-0.026,-0.034,0.023
-0.007,0.024,0.032,-0.009,-0.02,0.028,0.079,0.247,0.136,0.004,-0.002,0.041
0.027,0.047,0.02,-0.038,0.003,0.033,0.088,0.298,0.173,0.015,0.0,0.05
0.035,0.041,0.005,-0.038,0.015,0.023,0.086,0.316,0.214,0.046,0.024,0.065
0.05,0.039,-0.011,-0.044,0.03,0.013,0.079,0.304,0.233,0.086,0.061,0.076
0.073,0.035,-0.038,-0.053,0.055,-0.001,0.072,0.301,0.232,0.101,0.069,0.079
0.077,0.029,-0.048,-0.053,0.062,-0.009,0.066,0.288,0.225,0.104,0.074,0.081
0.079,0.036,-0.042,-0.057,0.06,-0.003,0.059,0.268,0.221,0.115,0.086,0.077
0.071,0.03,-0.041,-0.051,0.056,-0.005,0.053,0.231,0.196,0.108,0.087,0.068
0.05,0.013,-0.037,-0.031,0.043,-0.012,0.046,0.193,0.155,0.095,0.078,0.057
0.027,-0.008,-0.035,-0.009,0.031,-0.022,0.039,0.179,0.132,0.079,0.064,0.048
0.004,-0.029,-0.033,0.013,0.018,-0.031,0.033,0.144,0.106,0.051,0.038,0.037
-0.008,-0.037,-0.03,0.022,0.011,-0.033,0.024,0.103,0.075,0.044,0.018,0.028
-0.017,-0.048,-0.03,0.033,0.007,-0.039,0.036,0.089,0.048,0.025,0.003,0.02
-0.029,-0.056,-0.026,0.043,-0.001,-0.041,0.052,0.075,0.029,-0.011,-0.015,0.01
-0.029,-0.053,-0.025,0.042,-0.001,-0.039,0.049,0.064,0.015,-0.014,-0.025,0.002
-0.043,-0.068,-0.025,0.056,-0.009,-0.047,0.051,0.052,0.003,-0.031,-0.041,-0.001
-0.062,-0.08,-0.018,0.071,-0.022,-0.049,0.049,0.05,-0.003,-0.041,-0.053,-0.005
-0.059,-0.066,-0.007,0.063,-0.026,-0.036,0.055,0.05,-0.005,-0.028,-0.049,-0.009
-0.06,-0.059,0.001,0.059,-0.03,-0.029,0.069,0.046,-0.012,-0.044,-0.05,-0.012
-0.062,-0.043,0.018,0.052,-0.04,-0.013,0.078,0.046,-0.014,-0.045,-0.045,-0.017
-0.058,-0.005,0.052,0.032,-0.055,0.023,0.099,0.044,-0.004,-0.046,-0.045,-0.006
-0.056,0.023,0.08,0.016,-0.068,0.051,0.139,0.078,0.018,-0.026,-0.04,0.0
-0.031,0.047,0.078,-0.009,-0.055,0.062,0.151,0.09,0.057,0.024,-0.003,0.016
0.004,0.063,0.059,-0.034,-0.028,0.061,0.099,0.07,0.062,0.017,-0.003,0.028
0.012,0.058,0.046,-0.036,-0.017,0.052,0.045,0.065,0.051,0.036,0.006,0.041
0.025,0.05,0.025,-0.038,0.0,0.037,0.007,0.045,0.041,0.06,0.039,0.075
0.077,0.043,-0.033,-0.06,0.055,0.005,-0.01,0.042,0.036,0.036,0.027,0.069
0.095,0.012,-0.083,-0.053,0.089,-0.035,-0.029,-0.002,0.013,0.018,0.013,0.052
0.027,-0.043,-0.07,0.009,0.049,-0.056,-0.034,-0.042,-0.018,-0.003,-0.006,0.04
-0.019,-0.065,-0.046,0.042,0.013,-0.055,0.019,-0.045,-0.02,-0.025,-0.03,0.011
-0.057,-0.098,-0.042,0.078,-0.007,-0.07,0.044,-0.038,-0.049,-0.076,-0.066,-0.033
-0.102,-0.131,-0.029,0.117,-0.036,-0.08,0.038,-0.032,-0.073,-0.104,-0.105,-0.063
-0.101,-0.131,-0.03,0.117,-0.036,-0.08,0.032,-0.036,-0.068,-0.106,-0.108,-0.069
-0.121,-0.134,-0.013,0.128,-0.054,-0.073,0.038,-0.012,-0.058,-0.101,-0.094,-0.073
-0.114,-0.14,-0.027,0.127,-0.043,-0.083,0.017,-0.041,-0.067,-0.1,-0.097,-0.064
-0.111,-0.155,-0.044,0.133,-0.033,-0.099,0.068,0.058,-0.032,-0.103,-0.115,-0.091
-0.092,-0.127,-0.035,0.11,-0.029,-0.08,0.128,0.222,0.093,-0.014,-0.087,-0.109
0.061,-0.072,-0.133,0.006,0.097,-0.102,0.082,0.423,0.363,0.29,0.217,0.076
0.493,0.196,-0.297,-0.344,0.395,-0.05,-0.255,-0.129,0.335,0.75,0.941,0.692
1.045,0.476,-0.568,-0.76,0.806,-0.046,-0.818,-1.498,-0.286,0.662,1.125,1.126
0.694,0.174,-0.52,-0.434,0.607,-0.173,-0.669,-1.813,-1.015,-0.268,0.213,0.652
-0.163,-0.259,-0.097,0.211,-0.033,-0.178,-0.146,-1.267,-1.264,-0.921,-0.538,0.003
-0.324,-0.332,-0.008,0.328,-0.158,-0.17,-0.027,-0.749,-0.795,-0.68,-0.5,-0.181
-0.227,-0.287,-0.061,0.257,-0.083,-0.174,0.043,-0.249,-0.311,-0.329,-0.298,-0.163
-0.202,-0.229,-0.027,0.215,-0.087,-0.127,0.083,-0.021,-0.13,-0.207,-0.201,-0.131
-0.166,-0.194,-0.028,0.181,-0.069,-0.111,0.069,0.025,-0.07,-0.158,-0.165,-0.122
-0.171,-0.189,-0.018,0.18,-0.076,-0.103,0.077,0.05,-0.082,-0.146,-0.166,-0.121
-0.165,-0.184,-0.019,0.175,-0.072,-0.101,0.064,0.063,-0.054,-0.129,-0.157,-0.116
-0.173,-0.186,-0.013,0.18,-0.08,-0.099,0.081,0.065,-0.049,-0.129,-0.153,-0.113
-0.175,-0.184,-0.009,0.179,-0.082,-0.096,0.095,0.07,-0.041,-0.122,-0.147,-0.109
-0.161,-0.186,-0.025,0.174,-0.067,-0.105,0.092,0.07,-0.034,-0.116,-0.142,-0.106
-0.153,-0.182,-0.029,0.168,-0.062,-0.105,0.088,0.071,-0.029,-0.111,-0.14,-0.105
-0.159,-0.18,-0.02,0.17,-0.07,-0.1,0.084,0.075,-0.019,-0.113,-0.136,-0.104
-0.166,-0.18,-0.014,0.173,-0.076,-0.097,0.08,0.075,-0.026,-0.115,-0.134,-0.1
-0.169,-0.176,-0.008,0.173,-0.08,-0.092,0.082,0.073,-0.029,-0.115,-0.13,-0.1
-0.174,-0.175,0.0,0.175,-0.086,-0.087,0.086,0.067,-0.031,-0.114,-0.13,-0.098
-0.165,-0.175,-0.01,0.17,-0.077,-0.092,0.089,0.062,-0.029,-0.116,-0.135,-0.094
-0.162,-0.169,-0.007,0.166,-0.077,-0.088,0.092,0.058,-0.035,-0.112,-0.138,-0.091
-0.194,-0.162,0.032,0.178,-0.112,-0.065,0.096,0.054,-0.047,-0.108,-0.144,-0.088
-0.206,-0.157,0.049,0.181,-0.127,-0.053,0.099,0.05,-0.044,-0.134,-0.145,-0.085
-0.194,-0.148,0.046,0.171,-0.12,-0.051,0.101,0.062,-0.044,-0.143,-0.145,-0.079
-0.179,-0.144,0.034,0.161,-0.106,-0.054,0.097,0.085,-0.038,-0.138,-0.148,-0.067
-0.173,-0.132,0.041,0.152,-0.107,-0.045,0.095,0.092,-0.041,-0.141,-0.15,-0.058
-0.183,-0.114,0.069,0.149,-0.126,-0.022,0.095,0.089,-0.037,-0.14,-0.151,-0.047
-0.146,-0.083,0.063,0.114,-0.105,-0.009,0.091,0.09,-0.027,-0.137,-0.127,-0.031
-0.118,-0.062,0.056,0.09,-0.087,-0.003,0.09,0.108,-0.019,-0.137,-0.108,-0.02
-0.115,-0.066,0.049,0.09,-0.082,-0.008,0.088,0.154,0.031,-0.097,-0.092,0.009
-0.084,-0.048,0.036,0.066,-0.06,-0.005,0.1,0.183,0.085,-0.042,-0.056,0.035
-0.063,-0.032,0.032,0.047,-0.047,0.0,0.11,0.228,0.149,0.006,-0.028,0.059
-0.04,-0.02,0.02,0.029,-0.029,0.0,0.125,0.3,0.205,0.044,-0.001,0.069
-0.03,-0.025,0.005,0.027,-0.017,-0.01,0.134,0.339,0.247,0.066,0.031,0.072
-0.012,-0.031,-0.02,0.022,0.004,-0.025,0.123,0.353,0.265,0.096,0.048,0.1
0.031,-0.023,-0.054,-0.004,0.043,-0.038,0.118,0.343,0.268,0.099,0.04,0.099
0.045,-0.022,-0.066,-0.011,0.056,-0.044,0.109,0.336,0.286,0.125,0.059,0.093
0.053,-0.013,-0.065,-0.02,0.06,-0.039,0.103,0.319,0.276,0.151,0.087,0.092
0.04,-0.042,-0.082,0.001,0.061,-0.062,0.095,0.27,0.255,0.147,0.081,0.085
0.03,-0.065,-0.095,0.018,0.063,-0.08,0.085,0.236,0.237,0.142,0.077,0.085
0.037,-0.056,-0.093,0.01,0.065,-0.074,0.075,0.212,0.214,0.128,0.073,0.074
0.004,-0.086,-0.089,0.041,0.047,-0.087,0.069,0.197,0.188,0.121,0.067,0.066
-0.016,-0.1,-0.084,0.059,0.035,-0.092,0.071,0.178,0.172,0.108,0.063,0.058
-0.008,-0.101,-0.093,0.055,0.043,-0.097,0.067,0.139,0.147,0.068,0.038,0.048
-0.026,-0.117,-0.091,0.071,0.032,-0.103,0.066,0.107,0.109,0.031,0.012,0.041
-0.043,-0.115,-0.072,0.079,0.015,-0.093,0.063,0.087,0.08,0.017,-0.004,0.034
-0.062,-0.13,-0.068,0.096,0.003,-0.099,0.076,0.075,0.064,-0.002,-0.019,0.027
-0.068,-0.119,-0.051,0.093,-0.008,-0.085,0.092,0.063,0.059,-0.022,-0.031,0.021
-0.069,-0.128,-0.059,0.098,-0.005,-0.093,0.089,0.053,0.05,-0.031,-0.037,0.014
-0.072,-0.167,-0.095,0.12,0.012,-0.131,0.09,0.054,0.039,-0.029,-0.033,0.01
-0.059,-0.155,-0.096,0.108,0.019,-0.125,0.09,0.057,0.032,-0.035,-0.027,0.011
-0.062,-0.149,-0.087,0.106,0.013,-0.118,0.09,0.06,0.026,-0.052,-0.022,0.008
-0.049,-0.115,-0.066,0.082,0.009,-0.091,0.102,0.063,0.044,-0.027,-0.016,0.026
-0.088,-0.082,0.006,0.085,-0.047,-0.038,0.139,0.074,0.07,0.007,-0.011,0.045
-0.105,-0.071,0.034,0.088,-0.069,-0.018,0.168,0.1,0.082,0.012,-0.004,0.046
-0.044,-0.032,0.012,0.038,-0.028,-0.01,0.147,0.107,0.097,0.019,0.001,0.059
-0.039,-0.037,0.003,0.038,-0.021,-0.017,0.114,0.087,0.101,0.029,0.007,0.064
-0.003,-0.043,-0.04,0.023,0.019,-0.041,0.081,0.072,0.095,0.043,0.04,0.074
0.033,-0.028,-0.062,-0.003,0.048,-0.045,0.049,0.06,0.09,0.074,0.055,0.101
0.03,-0.058,-0.088,0.014,0.059,-0.073,0.022,0.052,0.089,0.055,0.035,0.101
0.039,-0.1,-0.138,0.031,0.089,-0.119,-0.013,0.037,0.075,0.024,0.021,0.089
0.004,-0.116,-0.12,0.056,0.063,-0.117,0.019,0.043,0.062,0.03,0.021,0.082
-0.06,-0.152,-0.091,0.106,0.016,-0.121,0.082,0.028,0.02,-0.012,-0.004,0.052
-0.097,-0.201,-0.105,0.149,0.004,-0.153,0.103,0.035,-0.007,-0.051,-0.063,0.009
-0.107,-0.215,-0.108,0.161,0.001,-0.161,0.099,0.022,-0.019,-0.074,-0.069,0.005
-0.142,-0.238,-0.096,0.191,-0.023,-0.166,0.099,0.022,-0.029,-0.084,-0.061,-0.002
-0.155,-0.254,-0.1,0.205,-0.027,-0.177,0.104,0.026,-0.033,-0.091,-0.06,-0.011
-0.118,-0.25,-0.132,0.184,0.008,-0.191,0.091,-0.007,-0.02,-0.094,-0.043,-0.012
-0.142,-0.257,-0.115,0.2,-0.013,-0.186,0.14,0.11,0.049,-0.071,-0.086,-0.062
-0.094,-0.236,-0.142,0.166,0.024,-0.189,0.172,0.266,0.175,0.0,-0.068,-0.057
0.097,-0.157,-0.254,0.03,0.176,-0.205,0.12,0.439,0.455,0.397,0.353,0.215
0.512,0.184,-0.328,-0.348,0.42,-0.072,-0.296,-0.399,0.314,0.932,1.198,0.938
0.936,0.446,-0.49,-0.69,0.713,-0.022,-0.818,-1.723,-0.341,0.786,1.324,1.332
0.458,0.015,-0.443,-0.236,0.451,-0.214,-0.541,-1.742,-1.054,-0.299,0.212,0.687
-0.241,-0.422,-0.181,0.332,-0.029,-0.302,-0.077,-1.202,-1.246,-0.978,-0.583,0.001
-0.275,-0.446,-0.172,0.361,-0.051,-0.308,0.006,-0.644,-0.672,-0.627,-0.474,-0.14
-0.196,-0.377,-0.181,0.286,-0.007,-0.278,0.105,-0.165,-0.218,-0.284,-0.268,-0.138
-0.167,-0.3,-0.133,0.234,-0.017,-0.216,0.151,0.006,-0.051,-0.179,-0.181,-0.105
-0.179,-0.31,-0.131,0.244,-0.023,-0.22,0.155,0.056,-0.005,-0.143,-0.162,-0.097
-0.201,-0.295,-0.093,0.248,-0.054,-0.194,0.157,0.064,-0.015,-0.117,-0.159,-0.102
-0.192,-0.294,-0.103,0.243,-0.044,-0.198,0.142,0.077,0.007,-0.129,-0.149,-0.095
-0.174,-0.299,-0.124,0.237,-0.025,-0.211,0.143,0.077,-0.011,-0.157,-0.148,-0.096
-0.17,-0.271,-0.101,0.221,-0.034,-0.186,0.128,0.08,-0.001,-0.125,-0.138,-0.094
-0.156,-0.272,-0.116,0.214,-0.019,-0.194,0.137,0.074,0.003,-0.133,-0.137,-0.096
-0.14,-0.261,-0.121,0.2,-0.009,-0.191,0.15,0.07,0.011,-0.128,-0.139,-0.095
-0.145,-0.256,-0.111,0.201,-0.017,-0.183,0.142,0.068,0.018,-0.125,-0.138,-0.094
-0.128,-0.25,-0.122,0.19,-0.003,-0.186,0.135,0.063,0.023,-0.126,-0.134,-0.089
-0.16,-0.241,-0.082,0.201,-0.039,-0.161,0.13,0.06,0.023,-0.123,-0.135,-0.086
-0.181,-0.263,-0.081,0.222,-0.049,-0.172,0.12,0.063,0.012,-0.121,-0.136,-0.083
-0.17,-0.271,-0.101,0.221,-0.034,-0.186,0.127,0.071,0.009,-0.115,-0.134,-0.078
-0.178,-0.246,-0.068,0.212,-0.055,-0.156,0.141,0.078,-0.002,-0.116,-0.137,-0.075
-0.174,-0.247,-0.072,0.211,-0.051,-0.159,0.137,0.082,-0.002,-0.107,-0.138,-0.071
-0.174,-0.247,-0.072,0.211,-0.051,-0.159,0.132,0.077,-0.022,-0.134,-0.146,-0.063
-0.186,-0.234,-0.048,0.21,-0.069,-0.141,0.132,0.088,-0.02,-0.154,-0.154,-0.056
-0.187,-0.225,-0.038,0.206,-0.074,-0.131,0.123,0.088,0.006,-0.135,-0.145,-0.049
-0.183,-0.215,-0.033,0.199,-0.075,-0.124,0.129,0.091,-0.023,-0.135,-0.136,-0.035
-0.184,-0.206,-0.022,0.195,-0.081,-0.114,0.154,0.124,-0.008,-0.13,-0.125,-0.022
-0.19,-0.2,-0.009,0.195,-0.09,-0.104,0.155,0.133,0.034,-0.121,-0.112,-0.003
-0.174,-0.176,-0.001,0.175,-0.086,-0.088,0.155,0.148,0.048,-0.099,-0.089,0.017
-0.118,-0.132,-0.014,0.125,-0.052,-0.073,0.155,0.175,0.082,-0.063,-0.053,0.051
-0.077,-0.132,-0.054,0.105,-0.011,-0.093,0.158,0.22,0.137,-0.024,-0.021,0.087
-0.065,-0.137,-0.071,0.102,0.003,-0.104,0.173,0.293,0.205,0.017,0.013,0.101
-0.049,-0.133,-0.084,0.092,0.018,-0.109,0.179,0.326,0.26,0.067,0.042,0.124
-0.05,-0.133,-0.083,0.092,0.017,-0.108,0.185,0.351,0.294,0.097,0.049,0.132
-0.03,-0.127,-0.097,0.079,0.034,-0.112,0.178,0.372,0.309,0.104,0.061,0.129
-0.021,-0.133,-0.112,0.077,0.046,-0.122,0.17,0.366,0.318,0.143,0.09,0.131
-0.009,-0.119,-0.11,0.064,0.051,-0.114,0.164,0.359,0.316,0.147,0.102,0.129
0.009,-0.14,-0.15,0.066,0.079,-0.145,0.156,0.32,0.309,0.136,0.101,0.13
-0.018,-0.177,-0.158,0.098,0.07,-0.167,0.149,0.294,0.302,0.151,0.101,0.123
-0.009,-0.16,-0.151,0.085,0.072,-0.155,0.14,0.265,0.26,0.148,0.097,0.116
-0.028,-0.158,-0.13,0.094,0.051,-0.144,0.135,0.218,0.221,0.142,0.092,0.109
-0.034,-0.16,-0.126,0.097,0.046,-0.142,0.129,0.204,0.202,0.124,0.092,0.1
-0.025,-0.161,-0.136,0.093,0.055,-0.148,0.126,0.176,0.172,0.101,0.08,0.095
-0.062,-0.187,-0.125,0.125,0.032,-0.156,0.12,0.141,0.15,0.089,0.069,0.087
-0.063,-0.196,-0.133,0.129,0.035,-0.164,0.117,0.126,0.148,0.073,0.046,0.079
-0.077,-0.204,-0.127,0.141,0.025,-0.166,0.111,0.108,0.095,0.027,0.026,0.072
-0.096,-0.222,-0.126,0.159,0.015,-0.173,0.109,0.095,0.069,-0.015,-0.003,0.065
-0.096,-0.218,-0.122,0.157,0.013,-0.17,0.108,0.084,0.065,-0.029,-0.009,0.057
-0.102,-0.223,-0.121,0.162,0.009,-0.172,0.099,0.075,0.042,-0.029,-0.017,0.051
-0.113,-0.231,-0.118,0.172,0.003,-0.174,0.108,0.086,0.063,-0.019,-0.038,0.046
-0.095,-0.219,-0.124,0.157,0.015,-0.171,0.088,0.082,0.032,-0.03,-0.017,0.04
-0.095,-0.204,-0.108,0.15,0.007,-0.155,0.135,0.095,0.074,-0.04,-0.043,0.05
-0.112,-0.162,-0.05,0.137,-0.031,-0.106,0.149,0.091,0.027,0.009,0.029,0.069
-0.102,-0.133,-0.031,0.117,-0.035,-0.082,0.198,0.114,0.121,-0.03,-0.163,0.079
-0.114,-0.136,-0.022,0.125,-0.045,-0.079,0.188,0.146,0.049,-0.05,-0.208,0.081
-0.133,-0.134,-0.001,0.133,-0.065,-0.067,0.217,0.064,-0.193,0.016,0.07,0.07
