-0.042,0.103,0.145,-0.031,-0.094,0.124,0.04,-0.096,-0.104,-0.14,-0.09,-0.019
-0.037,0.108,0.144,-0.036,-0.091,0.126,0.044,-0.089,-0.097,-0.14,-0.086,-0.014
0.004,0.152,0.149,-0.078,-0.073,0.15,0.06,-0.08,-0.087,-0.127,-0.079,-0.006
0.025,0.177,0.152,-0.102,-0.064,0.165,0.074,-0.085,-0.077,-0.116,-0.072,0.003
0.023,0.166,0.143,-0.094,-0.06,0.154,0.072,-0.061,-0.08,-0.122,-0.067,0.008
0.022,0.16,0.138,-0.091,-0.058,0.149,0.081,-0.052,-0.084,-0.118,-0.068,0.023
0.043,0.173,0.13,-0.108,-0.044,0.151,0.048,-0.071,-0.089,-0.121,-0.072,0.024
0.052,0.176,0.124,-0.114,-0.037,0.15,0.009,-0.089,-0.092,-0.119,-0.067,0.018
0.034,0.152,0.119,-0.093,-0.043,0.135,0.001,-0.104,-0.102,-0.127,-0.077,0.01
0.024,0.138,0.113,-0.082,-0.045,0.125,-0.011,-0.112,-0.111,-0.139,-0.081,0.004
-0.018,0.095,0.112,-0.039,-0.065,0.103,-0.003,-0.108,-0.112,-0.143,-0.083,-0.005
-0.071,0.038,0.11,0.016,-0.091,0.074,0.002,-0.123,-0.135,-0.175,-0.12,-0.043
-0.1,0.02,0.121,0.039,-0.111,0.07,0.006,-0.147,-0.151,-0.181,-0.13,-0.051
-0.083,0.024,0.108,0.029,-0.096,0.066,0.014,-0.153,-0.172,-0.204,-0.155,-0.065
-0.074,0.049,0.124,0.012,-0.099,0.086,0.018,-0.137,-0.145,-0.173,-0.128,-0.054
-0.124,-0.019,0.104,0.071,-0.114,0.042,0.051,-0.114,-0.172,-0.212,-0.169,-0.088
-0.179,-0.01,0.169,0.094,-0.173,0.079,0.137,-0.098,-0.155,-0.244,-0.225,-0.141
-0.177,0.0,0.177,0.088,-0.177,0.088,0.122,-0.021,-0.079,-0.166,-0.167,-0.109
0.327,0.217,-0.11,-0.272,0.219,0.053,-0.243,0.09,0.259,0.283,0.309,0.249
0.926,0.71,-0.216,-0.818,0.571,0.247,-0.613,0.08,0.838,0.976,1.05,0.81
0.797,0.507,-0.29,-0.652,0.543,0.109,-0.704,-0.481,0.233,0.413,0.674,0.661
0.404,0.122,-0.282,-0.263,0.343,-0.079,-0.64,-0.996,-0.63,-0.411,-0.047,0.236
0.135,0.102,-0.033,-0.119,0.084,0.035,-0.357,-0.694,-0.48,-0.34,-0.132,0.088
0.024,0.071,0.047,-0.048,-0.012,0.059,-0.116,-0.3,-0.279,-0.263,-0.17,-0.014
-0.025,0.057,0.082,-0.016,-0.054,0.069,-0.023,-0.159,-0.184,-0.199,-0.149,-0.032
-0.087,0.025,0.112,0.031,-0.1,0.069,0.044,-0.11,-0.16,-0.179,-0.149,-0.058
-0.076,0.031,0.107,0.022,-0.091,0.069,0.047,-0.097,-0.162,-0.18,-0.148,-0.055
-0.085,0.03,0.114,0.027,-0.1,0.072,0.061,-0.072,-0.138,-0.163,-0.136,-0.054
-0.09,0.023,0.112,0.033,-0.102,0.068,0.07,-0.064,-0.141,-0.17,-0.141,-0.055
-0.09,0.027,0.117,0.031,-0.104,0.072,0.073,-0.047,-0.12,-0.154,-0.125,-0.047
-0.088,0.024,0.111,0.032,-0.1,0.067,0.09,-0.033,-0.115,-0.154,-0.126,-0.052
-0.084,0.025,0.109,0.03,-0.097,0.066,0.094,-0.016,-0.099,-0.139,-0.113,-0.045
-0.071,0.033,0.105,0.018,-0.088,0.069,0.111,0.002,-0.088,-0.134,-0.11,-0.042
-0.063,0.039,0.102,0.012,-0.082,0.07,0.124,0.022,-0.074,-0.123,-0.103,-0.036
-0.06,0.038,0.097,0.011,-0.079,0.067,0.126,0.05,-0.058,-0.111,-0.095,-0.032
-0.032,0.062,0.095,-0.016,-0.064,0.079,0.131,0.087,-0.035,-0.1,-0.086,-0.028
-0.048,0.065,0.113,-0.009,-0.081,0.089,0.144,0.136,0.002,-0.065,-0.068,-0.023
-0.039,0.071,0.11,-0.017,-0.074,0.09,0.17,0.2,0.037,-0.033,-0.047,-0.013
-0.003,0.094,0.097,-0.046,-0.05,0.095,0.2,0.268,0.076,-0.007,-0.014,0.003
0.007,0.132,0.125,-0.07,-0.059,0.128,0.239,0.347,0.133,0.046,0.017,0.023
0.031,0.173,0.142,-0.102,-0.056,0.157,0.261,0.42,0.182,0.089,0.048,0.048
0.038,0.178,0.14,-0.108,-0.051,0.159,0.28,0.464,0.223,0.132,0.092,0.076
0.065,0.203,0.138,-0.134,-0.037,0.17,0.289,0.493,0.234,0.151,0.109,0.094
0.077,0.223,0.147,-0.15,-0.035,0.185,0.272,0.489,0.219,0.132,0.11,0.099
0.05,0.209,0.158,-0.13,-0.054,0.183,0.268,0.427,0.217,0.119,0.102,0.092
0.048,0.195,0.147,-0.121,-0.05,0.171,0.24,0.329,0.181,0.091,0.072,0.076
0.023,0.164,0.141,-0.094,-0.059,0.152,0.194,0.212,0.104,0.042,0.038,0.059
0.0,0.135,0.134,-0.068,-0.067,0.134,0.156,0.103,0.027,-0.019,-0.006,0.036
-0.03,0.095,0.125,-0.033,-0.078,0.11,0.113,0.023,-0.029,-0.076,-0.059,0.004
-0.077,0.041,0.118,0.018,-0.098,0.08,0.086,-0.036,-0.083,-0.12,-0.103,-0.027
-0.079,0.03,0.11,0.024,-0.095,0.07,0.083,-0.081,-0.111,-0.136,-0.109,-0.048
-0.051,0.051,0.102,-0.001,-0.077,0.076,0.078,-0.102,-0.112,-0.135,-0.108,-0.056
-0.047,0.053,0.1,-0.003,-0.074,0.076,0.073,-0.1,-0.139,-0.161,-0.121,-0.055
-0.057,0.042,0.1,0.007,-0.079,0.071,0.066,-0.096,-0.153,-0.177,-0.119,-0.055
-0.049,0.051,0.1,-0.001,-0.075,0.075,0.059,-0.095,-0.148,-0.174,-0.129,-0.055
-0.067,0.033,0.099,0.017,-0.084,0.066,0.053,-0.094,-0.146,-0.175,-0.146,-0.055
-0.089,0.012,0.101,0.038,-0.095,0.056,0.045,-0.091,-0.144,-0.175,-0.145,-0.051
-0.066,0.033,0.099,0.017,-0.083,0.065,0.055,-0.09,-0.141,-0.17,-0.142,-0.05
-0.06,0.032,0.092,0.014,-0.077,0.062,0.067,-0.089,-0.131,-0.161,-0.134,-0.05
-0.1,-0.012,0.088,0.056,-0.094,0.038,0.064,-0.084,-0.127,-0.153,-0.127,-0.045
-0.094,-0.015,0.078,0.054,-0.086,0.031,0.065,-0.079,-0.119,-0.144,-0.122,-0.045
-0.06,0.037,0.097,0.011,-0.079,0.067,0.066,-0.075,-0.111,-0.135,-0.114,-0.044
-0.057,0.06,0.117,-0.002,-0.087,0.088,0.063,-0.069,-0.101,-0.127,-0.108,-0.036
-0.028,0.077,0.105,-0.025,-0.066,0.091,0.079,-0.068,-0.094,-0.119,-0.101,-0.03
-0.003,0.1,0.103,-0.049,-0.054,0.101,0.097,-0.051,-0.078,-0.108,-0.086,-0.022
-0.003,0.092,0.095,-0.045,-0.05,0.093,0.1,-0.026,-0.048,-0.097,-0.074,-0.016
-0.001,0.098,0.098,-0.048,-0.05,0.098,0.099,-0.017,-0.038,-0.085,-0.068,-0.009
0.007,0.107,0.1,-0.057,-0.047,0.103,0.077,-0.025,-0.028,-0.092,-0.072,0.007
0.038,0.103,0.065,-0.071,-0.014,0.084,0.042,-0.056,-0.045,-0.095,-0.069,0.016
0.008,0.064,0.056,-0.036,-0.024,0.06,0.035,-0.066,-0.079,-0.097,-0.069,0.001
-0.028,0.029,0.056,-0.001,-0.042,0.042,0.039,-0.067,-0.083,-0.113,-0.082,-0.009
-0.024,0.027,0.052,-0.002,-0.038,0.039,0.056,-0.072,-0.085,-0.123,-0.093,-0.019
-0.021,0.009,0.029,0.006,-0.025,0.019,0.065,-0.091,-0.112,-0.154,-0.116,-0.049
0.003,0.01,0.007,-0.007,-0.002,0.008,0.042,-0.109,-0.138,-0.152,-0.119,-0.067
-0.081,-0.045,0.036,0.063,-0.058,-0.004,0.058,-0.107,-0.159,-0.176,-0.145,-0.085
-0.118,-0.066,0.051,0.092,-0.084,-0.007,0.067,-0.105,-0.141,-0.161,-0.129,-0.065
-0.094,-0.081,0.012,0.087,-0.053,-0.034,0.07,-0.097,-0.159,-0.194,-0.168,-0.104
-0.197,-0.089,0.108,0.143,-0.152,0.009,0.156,-0.068,-0.147,-0.211,-0.206,-0.141
-0.19,-0.078,0.112,0.133,-0.151,0.017,0.15,0.019,-0.073,-0.143,-0.166,-0.123
0.302,0.122,-0.18,-0.212,0.241,-0.029,-0.187,0.152,0.252,0.251,0.259,0.184
0.914,0.603,-0.311,-0.758,0.612,0.145,-0.578,0.181,0.824,0.966,1.017,0.748
0.846,0.471,-0.375,-0.658,0.611,0.048,-0.696,-0.372,0.311,0.486,0.722,0.653
0.435,0.073,-0.362,-0.254,0.399,-0.144,-0.621,-0.957,-0.568,-0.359,-0.001,0.245
0.147,0.022,-0.125,-0.084,0.136,-0.051,-0.351,-0.694,-0.482,-0.335,-0.124,0.075
0.021,-0.023,-0.043,0.002,0.032,-0.033,-0.097,-0.28,-0.272,-0.251,-0.151,-0.039
-0.015,-0.032,-0.017,0.024,0.001,-0.024,0.003,-0.149,-0.179,-0.179,-0.131,-0.057
-0.091,-0.049,0.042,0.069,-0.066,-0.003,0.055,-0.091,-0.138,-0.167,-0.135,-0.09
-0.072,-0.04,0.032,0.056,-0.052,-0.004,0.066,-0.061,-0.14,-0.17,-0.138,-0.095
-0.083,-0.044,0.04,0.063,-0.061,-0.002,0.079,-0.025,-0.13,-0.154,-0.131,-0.087
-0.096,-0.067,0.03,0.081,-0.063,-0.018,0.085,-0.023,-0.133,-0.163,-0.139,-0.087
-0.075,-0.053,0.022,0.064,-0.049,-0.015,0.101,-0.014,-0.106,-0.148,-0.13,-0.078
-0.07,-0.058,0.012,0.064,-0.04,-0.023,0.103,0.003,-0.103,-0.145,-0.129,-0.076
-0.057,-0.05,0.008,0.053,-0.032,-0.021,0.107,0.011,-0.088,-0.123,-0.114,-0.081
-0.093,-0.05,0.042,0.071,-0.067,-0.004,0.122,0.03,-0.081,-0.137,-0.11,-0.103
-0.092,-0.047,0.045,0.069,-0.068,-0.001,0.118,0.057,-0.064,-0.121,-0.096,-0.088
-0.08,-0.037,0.044,0.058,-0.062,0.003,0.128,0.085,-0.041,-0.087,-0.084,-0.072
-0.072,-0.034,0.038,0.053,-0.055,0.002,0.143,0.122,-0.025,-0.07,-0.068,-0.066
-0.046,-0.007,0.039,0.026,-0.042,0.015,0.16,0.171,0.001,-0.041,-0.046,-0.055
-0.028,0.004,0.032,0.011,-0.03,0.018,0.18,0.231,0.039,-0.005,-0.016,-0.045
0.001,0.019,0.018,-0.01,-0.009,0.019,0.211,0.315,0.092,0.028,0.017,-0.016
-0.013,0.033,0.046,-0.01,-0.029,0.039,0.251,0.391,0.139,0.055,0.034,0.005
0.004,0.056,0.052,-0.031,-0.024,0.054,0.279,0.464,0.203,0.116,0.082,0.029
0.036,0.107,0.071,-0.072,-0.018,0.089,0.297,0.526,0.253,0.161,0.12,0.061
0.035,0.118,0.083,-0.077,-0.024,0.1,0.306,0.532,0.266,0.168,0.132,0.063
0.056,0.128,0.072,-0.093,-0.008,0.1,0.3,0.523,0.278,0.172,0.142,0.065
0.045,0.119,0.074,-0.082,-0.014,0.096,0.283,0.476,0.248,0.162,0.136,0.074
0.044,0.11,0.066,-0.077,-0.011,0.087,0.257,0.38,0.192,0.133,0.118,0.071
0.033,0.099,0.066,-0.067,-0.017,0.083,0.21,0.273,0.129,0.082,0.073,0.044
0.004,0.058,0.054,-0.031,-0.025,0.056,0.16,0.154,0.059,0.025,0.025,0.011
-0.012,0.028,0.04,-0.008,-0.027,0.034,0.132,0.07,-0.006,-0.04,-0.02,-0.01
-0.042,-0.016,0.027,0.029,-0.035,0.005,0.112,0.023,-0.064,-0.091,-0.06,-0.021
-0.053,-0.034,0.02,0.043,-0.036,-0.007,0.095,-0.022,-0.079,-0.108,-0.074,-0.031
-0.074,-0.045,0.029,0.059,-0.052,-0.008,0.089,-0.051,-0.096,-0.124,-0.09,-0.054
-0.074,-0.063,0.011,0.068,-0.043,-0.026,0.086,-0.059,-0.112,-0.135,-0.101,-0.066
-0.039,-0.055,-0.016,0.047,-0.011,-0.035,0.082,-0.052,-0.102,-0.127,-0.093,-0.057
-0.032,-0.053,-0.02,0.043,-0.006,-0.036,0.078,-0.047,-0.1,-0.122,-0.09,-0.055
-0.038,-0.049,-0.011,0.044,-0.013,-0.03,0.075,-0.042,-0.095,-0.116,-0.085,-0.05
-0.048,-0.044,0.004,0.046,-0.026,-0.02,0.071,-0.036,-0.09,-0.111,-0.08,-0.045
-0.067,-0.04,0.027,0.053,-0.046,-0.007,0.07,-0.032,-0.087,-0.106,-0.085,-0.041
-0.073,-0.042,0.031,0.057,-0.052,-0.005,0.07,-0.029,-0.082,-0.1,-0.083,-0.04
-0.06,-0.037,0.023,0.048,-0.041,-0.007,0.071,-0.027,-0.08,-0.096,-0.077,-0.04
-0.052,-0.029,0.023,0.04,-0.038,-0.003,0.069,-0.023,-0.076,-0.09,-0.073,-0.035
-0.038,-0.022,0.016,0.03,-0.027,-0.003,0.072,-0.021,-0.071,-0.083,-0.066,-0.036
-0.024,-0.007,0.016,0.015,-0.02,0.004,0.077,-0.018,-0.068,-0.079,-0.062,-0.033
-0.017,0.011,0.028,0.002,-0.023,0.02,0.086,-0.008,-0.057,-0.072,-0.056,-0.031
0.017,0.041,0.024,-0.029,-0.004,0.032,0.101,0.01,-0.044,-0.066,-0.049,-0.027
0.039,0.052,0.012,-0.046,0.013,0.032,0.093,0.013,-0.042,-0.065,-0.046,-0.026
0.056,0.063,0.007,-0.059,0.024,0.035,0.077,0.002,-0.031,-0.064,-0.049,-0.017
0.068,0.061,-0.007,-0.064,0.038,0.027,0.071,-0.013,-0.035,-0.067,-0.055,0.0
0.063,0.038,-0.025,-0.05,0.043,0.006,0.069,-0.032,-0.057,-0.062,-0.054,0.0
0.061,0.027,-0.034,-0.044,0.047,-0.004,0.071,-0.034,-0.08,-0.07,-0.064,-0.014
0.022,-0.001,-0.023,-0.01,0.023,-0.012,0.07,-0.019,-0.065,-0.068,-0.057,-0.035
-0.036,-0.063,-0.028,0.05,-0.004,-0.045,0.065,-0.038,-0.084,-0.102,-0.077,-0.059
-0.036,-0.081,-0.045,0.059,0.004,-0.062,0.034,-0.074,-0.108,-0.118,-0.086,-0.058
-0.05,-0.095,-0.045,0.073,-0.002,-0.069,0.03,-0.075,-0.114,-0.126,-0.099,-0.077
-0.061,-0.096,-0.035,0.079,-0.013,-0.065,0.046,-0.081,-0.14,-0.15,-0.101,-0.083
-0.073,-0.096,-0.023,0.085,-0.025,-0.059,0.038,-0.064,-0.125,-0.143,-0.083,-0.072
-0.148,-0.151,-0.003,0.149,-0.072,-0.077,0.107,-0.039,-0.155,-0.182,-0.17,-0.14
-0.212,-0.139,0.073,0.175,-0.142,-0.033,0.208,0.021,-0.094,-0.141,-0.185,-0.175
-0.007,-0.096,-0.089,0.051,0.041,-0.092,0.057,0.15,0.072,0.023,-0.013,-0.051
0.645,0.329,-0.316,-0.487,0.48,0.006,-0.393,0.305,0.677,0.753,0.753,0.521
0.96,0.625,-0.335,-0.792,0.647,0.145,-0.682,0.053,0.856,1.022,1.151,0.884
0.608,0.243,-0.365,-0.425,0.486,-0.06,-0.673,-0.711,-0.143,0.086,0.448,0.54
0.234,0.01,-0.225,-0.122,0.229,-0.107,-0.511,-0.868,-0.558,-0.328,0.006,0.232
0.052,-0.018,-0.07,-0.017,0.061,-0.044,-0.234,-0.431,-0.313,-0.212,-0.074,0.065
-0.014,-0.056,-0.042,0.035,0.014,-0.049,-0.038,-0.17,-0.188,-0.169,-0.103,-0.016
-0.043,-0.077,-0.034,0.06,-0.004,-0.056,0.043,-0.06,-0.11,-0.113,-0.079,-0.043
-0.048,-0.107,-0.059,0.078,0.006,-0.083,0.059,-0.041,-0.121,-0.124,-0.104,-0.067
-0.053,-0.097,-0.044,0.075,-0.004,-0.07,0.066,-0.018,-0.096,-0.101,-0.089,-0.06
-0.06,-0.102,-0.042,0.081,-0.009,-0.072,0.083,-0.006,-0.097,-0.104,-0.098,-0.068
-0.058,-0.094,-0.036,0.076,-0.01,-0.065,0.078,-0.003,-0.086,-0.093,-0.084,-0.056
-0.063,-0.094,-0.031,0.078,-0.016,-0.062,0.081,0.014,-0.078,-0.087,-0.078,-0.056
-0.065,-0.092,-0.027,0.079,-0.019,-0.059,0.094,0.029,-0.069,-0.083,-0.071,-0.05
-0.059,-0.081,-0.022,0.07,-0.019,-0.051,0.105,0.056,-0.053,-0.071,-0.061,-0.045
-0.075,-0.093,-0.017,0.084,-0.029,-0.055,0.115,0.073,-0.052,-0.067,-0.057,-0.042
-0.099,-0.116,-0.016,0.108,-0.041,-0.066,0.124,0.102,-0.031,-0.054,-0.045,-0.04
-0.073,-0.112,-0.039,0.093,-0.016,-0.076,0.126,0.134,-0.009,-0.04,-0.04,-0.038
-0.022,-0.059,-0.037,0.041,0.008,-0.048,0.148,0.175,0.033,-0.013,-0.014,-0.034
-0.007,-0.034,-0.028,0.021,0.011,-0.031,0.173,0.232,0.071,0.006,0.012,-0.034
-0.011,-0.032,-0.02,0.022,0.005,-0.026,0.195,0.295,0.101,0.025,0.016,-0.02
-0.008,-0.02,-0.012,0.014,0.002,-0.016,0.225,0.371,0.151,0.07,0.034,-0.008
0.015,-0.003,-0.018,-0.006,0.017,-0.011,0.26,0.447,0.206,0.121,0.077,0.015
0.048,0.044,-0.004,-0.046,0.025,0.02,0.288,0.511,0.259,0.166,0.125,0.05
0.04,0.069,0.029,-0.055,0.005,0.048,0.301,0.54,0.283,0.188,0.157,0.071
0.027,0.079,0.052,-0.053,-0.013,0.065,0.302,0.543,0.3,0.197,0.16,0.072
0.061,0.103,0.041,-0.082,0.01,0.072,0.288,0.511,0.3,0.214,0.16,0.066
0.07,0.106,0.036,-0.088,0.017,0.07,0.256,0.433,0.25,0.185,0.16,0.059
0.053,0.087,0.033,-0.07,0.01,0.06,0.206,0.329,0.183,0.118,0.128,0.056
0.054,0.054,0.0,-0.054,0.026,0.027,0.167,0.211,0.11,0.064,0.07,0.033
0.006,0.006,0.0,-0.006,0.003,0.003,0.121,0.12,0.035,0.008,0.02,0.002
0.02,0.02,0.0,-0.02,0.01,0.01,0.096,0.042,-0.009,-0.031,-0.013,0.001
0.004,-0.012,-0.015,0.004,0.01,-0.013,0.087,-0.016,-0.045,-0.066,-0.045,-0.022
-0.084,-0.103,-0.019,0.094,-0.032,-0.061,0.059,-0.04,-0.08,-0.104,-0.065,-0.05
-0.035,-0.076,-0.041,0.056,0.003,-0.058,0.054,-0.053,-0.081,-0.105,-0.065,-0.049
-0.026,-0.073,-0.047,0.05,0.011,-0.06,0.053,-0.052,-0.079,-0.104,-0.065,-0.05
-0.055,-0.098,-0.044,0.077,-0.005,-0.071,0.048,-0.046,-0.081,-0.106,-0.06,-0.05
-0.041,-0.083,-0.043,0.062,0.001,-0.063,0.046,-0.041,-0.079,-0.104,-0.06,-0.05
-0.057,-0.095,-0.038,0.076,-0.009,-0.066,0.045,-0.035,-0.079,-0.105,-0.059,-0.05
-0.048,-0.089,-0.041,0.068,-0.003,-0.065,0.044,-0.03,-0.074,-0.097,-0.054,-0.045
-0.031,-0.074,-0.044,0.053,0.007,-0.059,0.056,-0.025,-0.071,-0.093,-0.056,-0.045
-0.03,-0.076,-0.046,0.054,0.008,-0.061,0.067,-0.025,-0.068,-0.087,-0.052,-0.045
-0.028,-0.072,-0.044,0.05,0.008,-0.058,0.062,-0.025,-0.064,-0.081,-0.05,-0.045
-0.025,-0.071,-0.046,0.048,0.011,-0.058,0.06,-0.025,-0.061,-0.077,-0.051,-0.046
-0.027,-0.068,-0.041,0.048,0.007,-0.054,0.057,-0.025,-0.055,-0.07,-0.046,-0.043
-0.017,-0.046,-0.029,0.032,0.006,-0.037,0.054,-0.022,-0.045,-0.06,-0.037,-0.036
-0.005,-0.024,-0.018,0.015,0.007,-0.021,0.055,-0.013,-0.035,-0.05,-0.029,-0.03
-0.003,-0.016,-0.013,0.01,0.005,-0.014,0.071,-0.002,-0.024,-0.042,-0.02,-0.022
0.001,-0.004,-0.005,0.001,0.003,-0.004,0.083,0.007,-0.02,-0.046,-0.01,-0.017
0.003,0.026,0.023,-0.015,-0.01,0.024,0.085,0.028,-0.02,-0.046,-0.001,-0.014
0.038,0.05,0.012,-0.044,0.013,0.031,0.061,0.013,-0.019,-0.052,0.002,-0.016
0.06,0.046,-0.014,-0.053,0.037,0.016,0.023,-0.029,-0.029,-0.052,0.005,-0.014
0.039,-0.006,-0.044,-0.016,0.042,-0.025,0.016,-0.044,-0.047,-0.057,-0.005,-0.016
0.022,-0.048,-0.07,0.013,0.047,-0.059,0.009,-0.048,-0.041,-0.051,-0.012,-0.015
-0.005,-0.069,-0.064,0.038,0.029,-0.066,0.003,-0.04,-0.042,-0.052,-0.024,-0.018
-0.026,-0.089,-0.063,0.057,0.019,-0.075,-0.004,-0.062,-0.085,-0.095,-0.054,-0.046
-0.071,-0.121,-0.05,0.097,-0.011,-0.085,-0.01,-0.089,-0.097,-0.107,-0.067,-0.056
-0.109,-0.164,-0.055,0.137,-0.027,-0.109,-0.005,-0.091,-0.108,-0.126,-0.085,-0.07
-0.112,-0.147,-0.035,0.13,-0.038,-0.091,0.008,-0.076,-0.089,-0.101,-0.061,-0.077
-0.125,-0.166,-0.04,0.146,-0.042,-0.103,0.059,-0.066,-0.126,-0.154,-0.12,-0.126
-0.16,-0.143,0.018,0.151,-0.088,-0.062,0.156,-0.049,-0.12,-0.187,-0.179,-0.157
-0.126,-0.161,-0.035,0.143,-0.045,-0.098,0.111,0.043,-0.034,-0.097,-0.114,-0.124
0.359,0.109,-0.249,-0.233,0.304,-0.07,-0.275,0.203,0.441,0.48,0.477,0.295
0.835,0.606,-0.229,-0.72,0.532,0.188,-0.648,0.191,1.068,1.214,1.248,0.869
0.723,0.397,-0.326,-0.56,0.524,0.035,-0.741,-0.433,0.345,0.563,0.853,0.721
0.385,0.054,-0.331,-0.219,0.358,-0.138,-0.635,-0.895,-0.526,-0.254,0.172,0.352
0.106,-0.012,-0.118,-0.047,0.112,-0.065,-0.344,-0.566,-0.36,-0.209,0.034,0.14
0.022,-0.07,-0.091,0.024,0.057,-0.08,-0.111,-0.229,-0.193,-0.163,-0.028,0.005
-0.015,-0.081,-0.066,0.048,0.026,-0.073,-0.017,-0.11,-0.115,-0.117,-0.041,-0.013
-0.073,-0.122,-0.049,0.097,-0.011,-0.085,0.031,-0.058,-0.089,-0.117,-0.063,-0.067
-0.061,-0.107,-0.046,0.085,-0.007,-0.076,0.049,-0.035,-0.092,-0.107,-0.052,-0.065
-0.062,-0.105,-0.043,0.084,-0.009,-0.074,0.065,-0.012,-0.078,-0.092,-0.048,-0.064
-0.057,-0.104,-0.047,0.081,-0.004,-0.075,0.064,-0.007,-0.08,-0.094,-0.047,-0.067
-0.049,-0.091,-0.042,0.071,-0.003,-0.067,0.068,0.006,-0.061,-0.078,-0.037,-0.062
-0.046,-0.111,-0.065,0.079,0.01,-0.088,0.081,0.016,-0.058,-0.079,-0.038,-0.068
-0.058,-0.116,-0.058,0.088,0.0,-0.087,0.087,0.036,-0.044,-0.067,-0.028,-0.06
-0.068,-0.11,-0.042,0.089,-0.012,-0.076,0.094,0.063,-0.035,-0.062,-0.024,-0.061
-0.066,-0.102,-0.035,0.084,-0.015,-0.068,0.096,0.078,-0.025,-0.054,-0.015,-0.058
-0.061,-0.096,-0.035,0.079,-0.013,-0.065,0.114,0.109,0.005,-0.037,-0.01,-0.055
-0.05,-0.084,-0.034,0.067,-0.007,-0.059,0.136,0.156,0.032,-0.018,0.0,-0.055
-0.047,-0.076,-0.029,0.062,-0.009,-0.052,0.147,0.187,0.056,-0.011,0.009,-0.046
-0.032,-0.063,-0.031,0.047,0.0,-0.046,0.178,0.253,0.105,0.035,0.027,-0.031
-0.016,-0.043,-0.027,0.03,0.006,-0.035,0.21,0.332,0.148,0.082,0.059,-0.02
-0.018,-0.036,-0.018,0.027,0.0,-0.026,0.238,0.402,0.196,0.111,0.094,0.01
0.006,-0.004,-0.01,-0.001,0.008,-0.006,0.28,0.482,0.256,0.167,0.143,0.046
0.05,0.049,-0.001,-0.05,0.025,0.024,0.304,0.518,0.298,0.215,0.183,0.066
0.066,0.072,0.006,-0.069,0.03,0.039,0.299,0.511,0.303,0.224,0.199,0.074
0.066,0.077,0.011,-0.072,0.027,0.044,0.292,0.497,0.288,0.212,0.201,0.069
0.055,0.073,0.018,-0.064,0.018,0.045,0.267,0.452,0.275,0.198,0.183,0.06
0.041,0.058,0.018,-0.05,0.011,0.038,0.222,0.347,0.228,0.153,0.153,0.055
0.018,0.02,0.003,-0.019,0.007,0.011,0.168,0.229,0.153,0.1,0.116,0.044
-0.014,-0.023,-0.009,0.019,-0.003,-0.016,0.125,0.13,0.083,0.059,0.075,0.018
-0.016,-0.038,-0.022,0.027,0.004,-0.03,0.088,0.054,0.033,0.004,0.037,-0.006
-0.048,-0.079,-0.032,0.064,-0.008,-0.055,0.052,0.01,-0.011,-0.042,0.008,-0.034
-0.072,-0.109,-0.037,0.091,-0.017,-0.073,0.048,-0.029,-0.042,-0.064,-0.006,-0.052
-0.05,-0.102,-0.053,0.077,0.002,-0.078,0.051,-0.041,-0.052,-0.071,-0.017,-0.049
-0.043,-0.099,-0.056,0.071,0.006,-0.077,0.049,-0.043,-0.058,-0.075,-0.031,-0.05
-0.054,-0.108,-0.054,0.082,0.0,-0.081,0.05,-0.061,-0.064,-0.075,-0.037,-0.05
-0.072,-0.127,-0.055,0.1,-0.008,-0.091,0.05,-0.059,-0.065,-0.075,-0.033,-0.05
-0.069,-0.124,-0.055,0.097,-0.007,-0.09,0.048,-0.056,-0.058,-0.075,-0.03,-0.05
-0.072,-0.125,-0.053,0.099,-0.009,-0.089,0.045,-0.054,-0.055,-0.075,-0.027,-0.05
-0.072,-0.123,-0.05,0.097,-0.011,-0.086,0.042,-0.05,-0.05,-0.072,-0.025,-0.05
-0.072,-0.12,-0.047,0.096,-0.013,-0.083,0.04,-0.049,-0.045,-0.069,-0.023,-0.05
-0.074,-0.119,-0.045,0.097,-0.014,-0.081,0.036,-0.045,-0.048,-0.066,-0.019,-0.05
-0.074,-0.115,-0.041,0.094,-0.016,-0.078,0.035,-0.043,-0.051,-0.063,-0.017,-0.05
-0.075,-0.114,-0.039,0.095,-0.018,-0.076,0.036,-0.04,-0.049,-0.061,-0.014,-0.045
-0.065,-0.11,-0.044,0.088,-0.01,-0.077,0.033,-0.036,-0.043,-0.059,-0.011,-0.039
-0.065,-0.093,-0.027,0.079,-0.019,-0.06,0.052,-0.035,-0.037,-0.051,-0.009,-0.034
-0.049,-0.067,-0.018,0.058,-0.016,-0.042,0.073,-0.028,-0.033,-0.044,-0.004,-0.029
-0.02,-0.041,-0.021,0.031,0.001,-0.031,0.069,-0.008,-0.026,-0.034,0.008,-0.021
-0.012,-0.031,-0.019,0.022,0.003,-0.025,0.063,0.001,-0.021,-0.028,0.017,-0.024
0.005,-0.018,-0.022,0.007,0.014,-0.02,0.066,0.017,-0.017,-0.021,0.026,-0.026
0.005,-0.008,-0.013,0.002,0.009,-0.01,0.047,0.006,-0.01,-0.02,0.039,-0.025
-0.01,-0.035,-0.024,0.023,0.007,-0.029,0.027,-0.035,-0.014,-0.021,0.035,-0.026
0.01,-0.046,-0.056,0.019,0.033,-0.051,0.025,-0.04,-0.022,-0.018,0.019,-0.023
-0.001,-0.076,-0.075,0.039,0.037,-0.076,0.018,-0.042,-0.048,-0.04,-0.001,-0.028
-0.028,-0.091,-0.062,0.06,0.017,-0.076,0.013,-0.037,-0.045,-0.032,-0.007,-0.022
-0.05,-0.112,-0.062,0.081,0.006,-0.087,0.007,-0.061,-0.06,-0.064,-0.034,-0.051
-0.05,-0.13,-0.08,0.09,0.015,-0.105,0.011,-0.088,-0.095,-0.086,-0.041,-0.067
-0.059,-0.154,-0.095,0.107,0.018,-0.125,0.023,-0.074,-0.111,-0.099,-0.05,-0.074
-0.071,-0.152,-0.081,0.111,0.006,-0.116,0.009,-0.075,-0.115,-0.105,-0.05,-0.066
-0.088,-0.157,-0.069,0.122,-0.009,-0.113,0.021,-0.058,-0.106,-0.106,-0.057,-0.078
-0.168,-0.207,-0.039,0.188,-0.065,-0.122,0.104,-0.066,-0.141,-0.157,-0.144,-0.14
-0.219,-0.174,0.045,0.197,-0.132,-0.064,0.166,-0.023,-0.084,-0.111,-0.147,-0.144
0.063,-0.096,-0.159,0.017,0.111,-0.128,-0.077,0.099,0.14,0.131,0.132,0.04
0.701,0.395,-0.306,-0.548,0.503,0.044,-0.521,0.211,0.834,0.965,0.976,0.645
0.832,0.511,-0.321,-0.671,0.576,0.095,-0.723,-0.125,0.807,1.006,1.155,0.838
0.505,0.071,-0.434,-0.287,0.47,-0.181,-0.725,-0.834,-0.297,-0.043,0.356,0.431
0.23,-0.016,-0.246,-0.107,0.238,-0.131,-0.502,-0.815,-0.52,-0.288,0.033,0.194
0.005,-0.093,-0.098,0.044,0.052,-0.095,-0.195,-0.355,-0.246,-0.171,-0.032,0.021
-0.028,-0.118,-0.09,0.073,0.031,-0.104,-0.061,-0.159,-0.165,-0.135,-0.074,-0.035
-0.072,-0.124,-0.052,0.099,-0.01,-0.088,0.017,-0.076,-0.081,-0.085,-0.047,-0.05
-0.109,-0.166,-0.058,0.138,-0.025,-0.112,0.033,-0.052,-0.093,-0.12,-0.065,-0.085
-0.094,-0.139,-0.045,0.117,-0.024,-0.092,0.042,-0.031,-0.069,-0.089,-0.045,-0.067
-0.098,-0.146,-0.048,0.122,-0.025,-0.097,0.063,-0.02,-0.073,-0.092,-0.055,-0.075
-0.089,-0.132,-0.043,0.111,-0.023,-0.087,0.057,-0.006,-0.061,-0.081,-0.045,-0.064
-0.087,-0.127,-0.04,0.107,-0.023,-0.083,0.064,0.01,-0.056,-0.079,-0.042,-0.066
-0.089,-0.131,-0.042,0.11,-0.023,-0.086,0.078,0.02,-0.05,-0.066,-0.037,-0.063
-0.101,-0.146,-0.044,0.124,-0.028,-0.095,0.086,0.037,-0.026,-0.053,-0.03,-0.057
-0.087,-0.129,-0.042,0.108,-0.022,-0.086,0.095,0.06,-0.029,-0.049,-0.025,-0.053
-0.076,-0.115,-0.039,0.095,-0.018,-0.076,0.105,0.088,-0.008,-0.037,-0.02,-0.048
-0.072,-0.113,-0.041,0.093,-0.016,-0.077,0.112,0.113,0.014,-0.016,-0.009,-0.045
-0.068,-0.102,-0.034,0.085,-0.016,-0.068,0.134,0.157,0.036,0.012,0.015,-0.039
-0.064,-0.1,-0.036,0.083,-0.014,-0.067,0.161,0.22,0.084,0.034,0.038,-0.036
-0.068,-0.101,-0.033,0.085,-0.017,-0.067,0.187,0.286,0.128,0.063,0.049,-0.023
-0.058,-0.077,-0.019,0.068,-0.019,-0.048,0.23,0.367,0.178,0.103,0.083,0.001
-0.02,-0.016,0.005,0.018,-0.012,-0.005,0.262,0.447,0.237,0.158,0.138,0.029
-0.003,0.015,0.018,-0.007,-0.011,0.017,0.27,0.486,0.275,0.196,0.152,0.05
0.008,0.024,0.016,-0.017,-0.004,0.02,0.285,0.525,0.306,0.216,0.179,0.065
0.033,0.061,0.028,-0.047,0.002,0.044,0.284,0.529,0.311,0.214,0.197,0.074
0.041,0.073,0.032,-0.057,0.004,0.052,0.265,0.472,0.284,0.205,0.183,0.063
0.052,0.078,0.025,-0.065,0.013,0.051,0.233,0.4,0.243,0.198,0.175,0.056
0.039,0.067,0.027,-0.054,0.006,0.047,0.183,0.286,0.18,0.15,0.145,0.043
-0.024,-0.003,0.022,0.013,-0.023,0.009,0.137,0.156,0.106,0.078,0.089,0.016
-0.059,-0.048,0.011,0.054,-0.035,-0.018,0.101,0.075,0.047,0.03,0.031,-0.016
-0.06,-0.08,-0.02,0.071,-0.02,-0.05,0.078,0.006,-0.003,-0.014,0.001,-0.042
-0.056,-0.092,-0.036,0.074,-0.01,-0.064,0.06,-0.047,-0.051,-0.058,-0.014,-0.052
-0.069,-0.091,-0.021,0.08,-0.024,-0.056,0.045,-0.066,-0.074,-0.074,-0.041,-0.063
-0.07,-0.117,-0.046,0.094,-0.012,-0.082,0.039,-0.073,-0.066,-0.072,-0.048,-0.057
-0.063,-0.121,-0.059,0.092,-0.002,-0.09,0.04,-0.079,-0.073,-0.079,-0.044,-0.063
-0.071,-0.123,-0.052,0.098,-0.009,-0.088,0.04,-0.089,-0.095,-0.09,-0.045,-0.081
-0.07,-0.127,-0.057,0.099,-0.006,-0.092,0.04,-0.083,-0.089,-0.086,-0.041,-0.073
-0.076,-0.13,-0.054,0.103,-0.011,-0.091,0.041,-0.074,-0.082,-0.081,-0.039,-0.068
-0.074,-0.129,-0.056,0.102,-0.009,-0.092,0.035,-0.071,-0.078,-0.077,-0.045,-0.063
-0.064,-0.122,-0.058,0.093,-0.003,-0.09,0.028,-0.06,-0.072,-0.072,-0.055,-0.057
-0.053,-0.116,-0.063,0.085,0.005,-0.089,0.02,-0.066,-0.07,-0.07,-0.047,-0.055
-0.044,-0.109,-0.064,0.077,0.01,-0.086,0.014,-0.08,-0.07,-0.07,-0.041,-0.055
-0.046,-0.103,-0.057,0.075,0.006,-0.08,0.004,-0.074,-0.066,-0.07,-0.035,-0.055
-0.041,-0.095,-0.054,0.068,0.007,-0.074,0.004,-0.069,-0.065,-0.07,-0.026,-0.055
-0.046,-0.103,-0.057,0.075,0.006,-0.08,0.027,-0.064,-0.065,-0.07,-0.031,-0.055
-0.055,-0.106,-0.051,0.081,-0.002,-0.079,0.032,-0.056,-0.061,-0.066,-0.037,-0.05
-0.044,-0.097,-0.053,0.071,0.005,-0.075,0.028,-0.062,-0.056,-0.06,-0.032,-0.044
-0.047,-0.088,-0.041,0.067,-0.003,-0.064,0.032,-0.062,-0.051,-0.056,-0.029,-0.039
-0.022,-0.064,-0.042,0.043,0.01,-0.053,0.027,-0.057,-0.048,-0.052,-0.027,-0.033
-0.017,-0.037,-0.021,0.027,0.002,-0.029,0.035,-0.047,-0.04,-0.047,-0.021,-0.026
-0.041,-0.033,0.008,0.036,-0.024,-0.012,0.062,-0.046,-0.04,-0.046,-0.023,-0.032
-0.013,-0.018,-0.005,0.016,-0.004,-0.011,0.068,-0.027,-0.009,-0.038,0.007,-0.04
-0.005,-0.012,-0.008,0.009,0.002,-0.01,0.017,-0.026,0.004,-0.035,0.028,-0.04
-0.008,-0.044,-0.036,0.026,0.014,-0.039,-0.032,-0.06,-0.024,-0.025,0.001,-0.039
-0.011,-0.067,-0.056,0.04,0.023,-0.061,-0.039,-0.069,-0.043,-0.036,-0.024,-0.04
0.003,-0.071,-0.074,0.034,0.039,-0.073,-0.035,-0.098,-0.058,-0.075,-0.021,-0.04
-0.001,-0.062,-0.061,0.032,0.03,-0.062,-0.033,-0.103,-0.049,-0.073,-0.014,-0.043
-0.05,-0.117,-0.068,0.084,0.01,-0.092,-0.026,-0.095,-0.087,-0.087,-0.052,-0.07
-0.058,-0.12,-0.062,0.09,0.002,-0.091,-0.027,-0.113,-0.099,-0.089,-0.062,-0.081
-0.06,-0.123,-0.063,0.092,0.002,-0.093,-0.019,-0.13,-0.114,-0.117,-0.086,-0.109
-0.065,-0.144,-0.078,0.104,0.007,-0.111,-0.009,-0.131,-0.119,-0.102,-0.075,-0.102
-0.112,-0.15,-0.038,0.131,-0.036,-0.094,0.0,-0.105,-0.106,-0.11,-0.086,-0.109
-0.171,-0.159,0.012,0.165,-0.091,-0.073,0.084,-0.099,-0.132,-0.155,-0.142,-0.156
-0.215,-0.143,0.073,0.179,-0.144,-0.035,0.138,-0.018,-0.055,-0.085,-0.115,-0.148
0.11,-0.041,-0.151,-0.035,0.131,-0.096,-0.15,0.097,0.196,0.205,0.185,0.076
0.746,0.448,-0.298,-0.597,0.522,0.075,-0.579,0.169,0.842,1.004,1.008,0.68
0.832,0.48,-0.352,-0.656,0.592,0.064,-0.758,-0.242,0.621,0.842,1.008,0.762
0.484,0.036,-0.447,-0.26,0.465,-0.205,-0.757,-0.917,-0.431,-0.182,0.195,0.315
0.196,-0.036,-0.232,-0.08,0.215,-0.134,-0.507,-0.797,-0.509,-0.307,-0.038,0.121
-0.003,-0.086,-0.083,0.045,0.04,-0.084,-0.2,-0.363,-0.246,-0.177,-0.078,-0.02
-0.077,-0.119,-0.041,0.098,-0.018,-0.08,-0.071,-0.177,-0.163,-0.13,-0.091,-0.067
-0.072,-0.103,-0.031,0.088,-0.021,-0.067,-0.003,-0.093,-0.097,-0.087,-0.072,-0.083
-0.07,-0.117,-0.047,0.093,-0.011,-0.082,0.006,-0.083,-0.111,-0.102,-0.085,-0.109
-0.094,-0.104,-0.01,0.099,-0.042,-0.057,0.015,-0.056,-0.088,-0.075,-0.065,-0.093
-0.113,-0.116,-0.003,0.114,-0.055,-0.059,0.025,-0.051,-0.095,-0.085,-0.075,-0.105
-0.075,-0.101,-0.026,0.088,-0.025,-0.063,0.033,-0.04,-0.078,-0.065,-0.062,-0.097
-0.066,-0.1,-0.035,0.083,-0.015,-0.067,0.051,-0.029,-0.069,-0.07,-0.062,-0.102
-0.095,-0.121,-0.025,0.108,-0.035,-0.072,0.055,-0.019,-0.057,-0.075,-0.055,-0.096
-0.084,-0.117,-0.033,0.1,-0.026,-0.074,0.055,0.005,-0.047,-0.064,-0.051,-0.091
-0.077,-0.105,-0.028,0.091,-0.025,-0.066,0.074,0.037,-0.034,-0.05,-0.047,-0.088
-0.084,-0.098,-0.014,0.092,-0.035,-0.056,0.093,0.05,-0.013,-0.043,-0.04,-0.082
-0.094,-0.09,0.004,0.092,-0.049,-0.043,0.092,0.083,0.015,-0.026,-0.03,-0.079
-0.101,-0.08,0.021,0.09,-0.061,-0.029,0.117,0.145,0.042,0.013,-0.011,-0.065
-0.101,-0.069,0.032,0.085,-0.067,-0.018,0.142,0.192,0.062,0.027,-0.003,-0.052
-0.056,-0.028,0.028,0.042,-0.042,0.0,0.157,0.262,0.115,0.058,0.023,-0.037
-0.023,0.0,0.023,0.012,-0.023,0.011,0.193,0.336,0.166,0.1,0.062,-0.02
-0.016,0.019,0.035,-0.001,-0.026,0.026,0.226,0.413,0.225,0.149,0.108,0.015
0.011,0.061,0.05,-0.037,-0.019,0.055,0.257,0.475,0.277,0.199,0.149,0.04
0.021,0.09,0.068,-0.056,-0.023,0.079,0.269,0.502,0.305,0.221,0.173,0.057
0.05,0.114,0.064,-0.082,-0.007,0.089,0.26,0.507,0.32,0.24,0.183,0.074
0.062,0.116,0.054,-0.089,0.003,0.085,0.247,0.459,0.307,0.232,0.176,0.065
0.05,0.1,0.05,-0.075,-0.001,0.075,0.217,0.369,0.26,0.197,0.162,0.055
0.039,0.081,0.042,-0.06,-0.002,0.061,0.157,0.257,0.183,0.14,0.122,0.044
0.008,0.046,0.038,-0.027,-0.015,0.042,0.105,0.146,0.108,0.068,0.07,0.019
-0.016,0.017,0.034,-0.001,-0.025,0.025,0.076,0.053,0.031,0.009,0.03,-0.016
-0.041,-0.01,0.031,0.026,-0.036,0.01,0.033,-0.022,-0.023,-0.036,-0.01,-0.042
-0.082,-0.055,0.027,0.068,-0.054,-0.014,0.014,-0.067,-0.051,-0.064,-0.045,-0.057
-0.093,-0.069,0.024,0.08,-0.058,-0.022,0.014,-0.085,-0.066,-0.073,-0.052,-0.061
-0.089,-0.069,0.02,0.079,-0.054,-0.024,0.01,-0.096,-0.076,-0.082,-0.065,-0.072
-0.086,-0.071,0.014,0.078,-0.05,-0.028,0.007,-0.11,-0.099,-0.096,-0.085,-0.095
-0.079,-0.068,0.011,0.074,-0.045,-0.028,0.006,-0.106,-0.095,-0.09,-0.079,-0.088
-0.074,-0.069,0.006,0.071,-0.04,-0.031,-0.001,-0.099,-0.087,-0.085,-0.073,-0.08
-0.091,-0.089,0.003,0.09,-0.047,-0.043,-0.023,-0.098,-0.084,-0.082,-0.069,-0.075
-0.09,-0.099,-0.009,0.095,-0.04,-0.054,-0.025,-0.09,-0.076,-0.075,-0.061,-0.066
-0.056,-0.069,-0.013,0.063,-0.021,-0.04,-0.018,-0.093,-0.074,-0.078,-0.061,-0.068
-0.073,-0.061,0.013,0.067,-0.043,-0.024,-0.013,-0.095,-0.068,-0.08,-0.059,-0.07
-0.094,-0.065,0.029,0.079,-0.061,-0.018,-0.008,-0.096,-0.073,-0.081,-0.062,-0.07
-0.105,-0.075,0.029,0.09,-0.067,-0.023,0.002,-0.102,-0.089,-0.085,-0.075,-0.07
-0.077,-0.067,0.01,0.072,-0.043,-0.028,0.016,-0.097,-0.09,-0.085,-0.075,-0.069
-0.082,-0.082,0.0,0.082,-0.041,-0.041,0.009,-0.106,-0.086,-0.081,-0.071,-0.066
-0.13,-0.099,0.031,0.115,-0.081,-0.034,0.001,-0.116,-0.083,-0.08,-0.069,-0.064
-0.107,-0.064,0.043,0.085,-0.074,-0.01,-0.003,-0.111,-0.081,-0.079,-0.065,-0.066
-0.099,-0.061,0.038,0.08,-0.068,-0.011,-0.018,-0.108,-0.079,-0.074,-0.064,-0.065
-0.106,-0.065,0.042,0.085,-0.074,-0.012,-0.015,-0.104,-0.075,-0.076,-0.058,-0.066
-0.068,-0.029,0.039,0.049,-0.054,0.005,0.002,-0.099,-0.072,-0.072,-0.05,-0.062
-0.063,-0.022,0.041,0.043,-0.052,0.009,0.006,-0.096,-0.067,-0.064,-0.045,-0.053
-0.059,-0.012,0.047,0.035,-0.052,0.017,0.02,-0.085,-0.067,-0.056,-0.037,-0.043
-0.017,0.024,0.041,-0.004,-0.03,0.033,0.027,-0.074,-0.051,-0.043,-0.031,-0.032
-0.005,0.023,0.028,-0.009,-0.017,0.025,0.023,-0.071,-0.028,-0.032,-0.03,-0.024
0.034,0.051,0.017,-0.043,0.008,0.034,0.004,-0.061,-0.019,-0.012,-0.029,-0.011
0.017,0.039,0.022,-0.029,-0.002,0.03,-0.041,-0.087,-0.047,-0.038,-0.036,-0.025
-0.02,0.007,0.026,0.006,-0.024,0.016,-0.048,-0.117,-0.079,-0.075,-0.05,-0.047
-0.008,0.001,0.009,0.003,-0.008,0.005,-0.032,-0.116,-0.085,-0.079,-0.048,-0.041
-0.026,-0.024,0.002,0.025,-0.014,-0.011,-0.04,-0.113,-0.08,-0.074,-0.044,-0.042
-0.057,-0.054,0.003,0.055,-0.029,-0.025,-0.044,-0.122,-0.095,-0.094,-0.087,-0.074
-0.096,-0.083,0.012,0.089,-0.053,-0.035,-0.042,-0.142,-0.11,-0.104,-0.1,-0.088
-0.077,-0.078,0.0,0.077,-0.038,-0.039,-0.037,-0.145,-0.128,-0.114,-0.11,-0.097
-0.071,-0.075,-0.003,0.073,-0.034,-0.039,-0.037,-0.14,-0.13,-0.113,-0.095,-0.099
-0.129,-0.122,0.008,0.125,-0.068,-0.057,-0.023,-0.13,-0.131,-0.137,-0.12,-0.119
-0.159,-0.112,0.047,0.135,-0.102,-0.032,0.056,-0.127,-0.141,-0.159,-0.176,-0.165
-0.211,-0.087,0.124,0.149,-0.167,0.018,0.112,-0.05,-0.062,-0.101,-0.132,-0.159
0.097,0.011,-0.086,-0.054,0.091,-0.037,-0.142,0.057,0.145,0.149,0.127,0.052
0.756,0.485,-0.271,-0.62,0.513,0.107,-0.581,0.112,0.754,0.903,0.913,0.635
0.867,0.528,-0.339,-0.697,0.603,0.095,-0.788,-0.285,0.568,0.768,0.933,0.736
0.515,0.077,-0.438,-0.295,0.476,-0.18,-0.77,-0.966,-0.473,-0.238,0.105,0.276
0.194,-0.007,-0.201,-0.093,0.197,-0.104,-0.524,-0.864,-0.55,-0.357,-0.109,0.085
0.016,-0.014,-0.03,-0.001,0.023,-0.022,-0.231,-0.406,-0.269,-0.205,-0.125,-0.015
-0.027,-0.052,-0.025,0.04,-0.001,-0.038,-0.099,-0.226,-0.172,-0.163,-0.124,-0.065
-0.068,-0.053,0.015,0.06,-0.041,-0.019,-0.022,-0.137,-0.093,-0.102,-0.087,-0.066
-0.098,-0.072,0.026,0.085,-0.062,-0.023,-0.009,-0.125,-0.107,-0.116,-0.111,-0.089
-0.112,-0.065,0.047,0.088,-0.08,-0.008,-0.016,-0.091,-0.084,-0.091,-0.092,-0.095
-0.091,-0.061,0.031,0.076,-0.061,-0.015,-0.004,-0.069,-0.094,-0.098,-0.106,-0.099
-0.116,-0.064,0.052,0.09,-0.083,-0.006,0.004,-0.067,-0.084,-0.083,-0.097,-0.087
-0.132,-0.063,0.069,0.097,-0.1,0.002,0.016,-0.054,-0.082,-0.081,-0.098,-0.086
-0.12,-0.06,0.06,0.09,-0.09,0.0,0.028,-0.037,-0.064,-0.073,-0.085,-0.078
-0.117,-0.055,0.062,0.086,-0.089,0.003,0.046,0.001,-0.042,-0.064,-0.071,-0.074
-0.112,-0.058,0.054,0.085,-0.083,-0.002,0.05,0.023,-0.037,-0.061,-0.066,-0.068
-0.092,-0.034,0.057,0.062,-0.074,0.011,0.053,0.035,-0.015,-0.047,-0.055,-0.06
-0.037,0.011,0.048,0.013,-0.043,0.029,0.085,0.079,0.012,-0.025,-0.04,-0.055
-0.048,0.004,0.052,0.021,-0.05,0.028,0.101,0.123,0.046,0.007,-0.017,-0.047
-0.05,0.015,0.065,0.017,-0.058,0.04,0.114,0.173,0.075,0.026,0.002,-0.039
-0.035,0.03,0.065,0.002,-0.051,0.048,0.151,0.245,0.122,0.054,0.023,-0.024
-0.019,0.054,0.072,-0.018,-0.046,0.063,0.181,0.328,0.179,0.099,0.057,-0.001
-0.001,0.089,0.09,-0.044,-0.046,0.089,0.215,0.408,0.232,0.151,0.098,0.028
0.011,0.126,0.115,-0.069,-0.052,0.12,0.232,0.462,0.284,0.191,0.134,0.056
0.028,0.142,0.115,-0.085,-0.044,0.128,0.241,0.493,0.302,0.216,0.161,0.068
0.048,0.157,0.109,-0.102,-0.031,0.133,0.255,0.476,0.318,0.236,0.164,0.082
0.087,0.196,0.109,-0.142,-0.011,0.152,0.236,0.444,0.304,0.214,0.153,0.093
0.053,0.157,0.104,-0.106,-0.026,0.13,0.191,0.382,0.249,0.176,0.139,0.079
0.024,0.126,0.103,-0.076,-0.04,0.114,0.145,0.261,0.187,0.135,0.106,0.056
0.016,0.105,0.089,-0.061,-0.037,0.097,0.105,0.153,0.112,0.073,0.06,0.027
-0.023,0.055,0.077,-0.016,-0.05,0.066,0.071,0.049,0.047,0.007,0.01,-0.002
-0.026,0.042,0.068,-0.009,-0.047,0.055,0.039,-0.023,-0.007,-0.035,-0.025,-0.034
-0.024,0.033,0.056,-0.005,-0.04,0.044,0.014,-0.053,-0.042,-0.055,-0.042,-0.054
-0.039,0.013,0.052,0.013,-0.045,0.032,0.006,-0.085,-0.065,-0.082,-0.062,-0.056
-0.067,-0.02,0.047,0.044,-0.057,0.013,0.002,-0.101,-0.079,-0.093,-0.076,-0.059
-0.094,-0.037,0.056,0.065,-0.074,0.009,-0.004,-0.109,-0.083,-0.088,-0.08,-0.064
-0.096,-0.034,0.062,0.065,-0.078,0.014,-0.01,-0.11,-0.086,-0.091,-0.073,-0.071
-0.085,-0.035,0.05,0.06,-0.067,0.007,-0.014,-0.11,-0.085,-0.1,-0.073,-0.068
-0.078,-0.032,0.046,0.055,-0.062,0.006,-0.011,-0.115,-0.089,-0.102,-0.086,-0.065
-0.065,-0.026,0.039,0.045,-0.052,0.006,-0.008,-0.115,-0.091,-0.096,-0.08,-0.063
-0.062,-0.026,0.036,0.044,-0.049,0.005,-0.006,-0.114,-0.088,-0.094,-0.075,-0.059
-0.044,-0.019,0.025,0.031,-0.035,0.003,-0.002,-0.109,-0.084,-0.089,-0.072,-0.066
-0.054,-0.018,0.036,0.036,-0.044,0.008,0.0,-0.104,-0.078,-0.086,-0.065,-0.072
-0.074,-0.012,0.062,0.043,-0.067,0.024,-0.002,-0.1,-0.075,-0.082,-0.07,-0.068
-0.062,-0.006,0.056,0.034,-0.059,0.025,-0.007,-0.095,-0.07,-0.08,-0.08,-0.065
-0.052,0.002,0.053,0.025,-0.053,0.027,-0.01,-0.09,-0.065,-0.08,-0.08,-0.063
-0.032,0.017,0.05,0.008,-0.041,0.033,-0.013,-0.095,-0.069,-0.077,-0.08,-0.058
-0.076,-0.031,0.046,0.053,-0.061,0.007,-0.018,-0.103,-0.07,-0.074,-0.08,-0.069
-0.055,-0.011,0.043,0.032,-0.049,0.016,-0.02,-0.1,-0.071,-0.075,-0.08,-0.074
-0.036,0.02,0.056,0.008,-0.046,0.038,-0.016,-0.096,-0.075,-0.085,-0.078,-0.067
-0.074,-0.001,0.073,0.038,-0.073,0.035,-0.011,-0.093,-0.076,-0.086,-0.071,-0.063
-0.068,0.001,0.069,0.033,-0.068,0.034,-0.009,-0.089,-0.074,-0.079,-0.067,-0.056
-0.089,-0.016,0.073,0.052,-0.081,0.028,-0.004,-0.084,-0.065,-0.072,-0.061,-0.051
-0.063,0.013,0.076,0.024,-0.07,0.044,-0.001,-0.089,-0.057,-0.068,-0.055,-0.045
-0.018,0.055,0.073,-0.019,-0.046,0.064,0.003,-0.089,-0.047,-0.06,-0.05,-0.037
-0.027,0.059,0.086,-0.016,-0.056,0.072,0.033,-0.084,-0.039,-0.05,-0.043,-0.031
-0.021,0.066,0.086,-0.023,-0.054,0.076,0.033,-0.086,-0.013,-0.048,-0.035,-0.026
0.023,0.076,0.053,-0.049,-0.016,0.064,-0.008,-0.081,-0.003,-0.052,-0.034,-0.03
0.041,0.06,0.019,-0.051,0.011,0.039,-0.04,-0.081,-0.033,-0.055,-0.036,-0.031
0.063,0.067,0.004,-0.065,0.029,0.035,-0.047,-0.077,-0.038,-0.055,-0.032,-0.027
0.038,0.047,0.009,-0.043,0.015,0.028,-0.043,-0.09,-0.046,-0.064,-0.039,-0.04
-0.026,0.009,0.035,0.008,-0.031,0.022,-0.047,-0.092,-0.054,-0.056,-0.046,-0.048
-0.066,-0.028,0.039,0.047,-0.052,0.005,-0.043,-0.108,-0.084,-0.092,-0.084,-0.073
-0.08,-0.039,0.042,0.059,-0.061,0.002,-0.047,-0.14,-0.105,-0.106,-0.095,-0.085
-0.085,-0.046,0.039,0.066,-0.062,-0.004,-0.04,-0.13,-0.113,-0.114,-0.111,-0.105
-0.117,-0.076,0.041,0.097,-0.078,-0.018,-0.035,-0.125,-0.116,-0.108,-0.096,-0.1
-0.131,-0.091,0.039,0.111,-0.085,-0.026,-0.029,-0.11,-0.11,-0.108,-0.106,-0.101
-0.148,-0.089,0.058,0.118,-0.103,-0.015,0.053,-0.091,-0.118,-0.142,-0.184,-0.163
-0.211,-0.069,0.141,0.14,-0.176,0.036,0.133,0.005,-0.022,-0.062,-0.133,-0.152
0.068,-0.001,-0.069,-0.034,0.068,-0.035,-0.09,0.154,0.194,0.181,0.124,0.036
0.789,0.487,-0.302,-0.638,0.545,0.093,-0.546,0.241,0.812,0.944,0.916,0.612
0.96,0.621,-0.339,-0.79,0.649,0.141,-0.775,-0.179,0.688,0.899,1.03,0.785
0.564,0.167,-0.397,-0.366,0.48,-0.114,-0.754,-0.915,-0.381,-0.133,0.216,0.356
0.253,0.061,-0.191,-0.157,0.222,-0.065,-0.547,-0.887,-0.567,-0.338,-0.075,0.124
0.065,0.042,-0.023,-0.053,0.044,0.01,-0.267,-0.44,-0.301,-0.203,-0.127,-0.005
0.007,-0.01,-0.017,0.002,0.012,-0.013,-0.11,-0.207,-0.184,-0.157,-0.119,-0.063
-0.027,-0.011,0.016,0.018,-0.021,0.003,-0.042,-0.106,-0.105,-0.1,-0.087,-0.085
-0.053,-0.041,0.012,0.046,-0.032,-0.014,-0.028,-0.093,-0.123,-0.111,-0.115,-0.103
-0.085,-0.055,0.03,0.07,-0.057,-0.012,-0.019,-0.065,-0.095,-0.081,-0.089,-0.095
-0.086,-0.061,0.025,0.073,-0.055,-0.018,-0.012,-0.052,-0.099,-0.086,-0.102,-0.103
-0.074,-0.052,0.022,0.063,-0.047,-0.015,-0.007,-0.049,-0.076,-0.067,-0.088,-0.106
-0.073,-0.051,0.021,0.062,-0.047,-0.015,0.002,-0.041,-0.066,-0.071,-0.089,-0.114
-0.058,-0.047,0.012,0.052,-0.035,-0.017,0.009,-0.02,-0.066,-0.07,-0.085,-0.098
-0.074,-0.043,0.031,0.058,-0.052,-0.006,0.021,0.01,-0.059,-0.069,-0.078,-0.092
-0.086,-0.04,0.047,0.062,-0.066,0.003,0.03,0.025,-0.059,-0.07,-0.074,-0.084
-0.064,-0.02,0.045,0.041,-0.054,0.013,0.041,0.052,-0.029,-0.033,-0.066,-0.078
-0.028,0.017,0.045,0.005,-0.037,0.031,0.062,0.097,0.003,-0.005,-0.058,-0.071
-0.048,-0.003,0.045,0.025,-0.047,0.021,0.059,0.124,0.019,0.007,-0.039,-0.064
-0.048,-0.004,0.045,0.026,-0.046,0.02,0.082,0.178,0.048,0.035,-0.014,-0.058
-0.003,0.046,0.049,-0.021,-0.026,0.047,0.12,0.256,0.097,0.059,0.009,-0.044
0.008,0.058,0.05,-0.033,-0.021,0.054,0.141,0.322,0.144,0.1,0.049,-0.022
0.023,0.073,0.05,-0.048,-0.014,0.061,0.177,0.405,0.197,0.149,0.092,0.006
0.04,0.09,0.05,-0.065,-0.006,0.07,0.203,0.47,0.243,0.184,0.116,0.017
0.065,0.128,0.062,-0.097,0.001,0.095,0.223,0.507,0.284,0.224,0.15,0.043
0.092,0.175,0.083,-0.134,0.004,0.129,0.221,0.51,0.303,0.233,0.155,0.057
0.1,0.184,0.084,-0.142,0.008,0.134,0.21,0.483,0.283,0.223,0.156,0.043
0.097,0.173,0.077,-0.135,0.01,0.125,0.182,0.407,0.243,0.202,0.146,0.041
0.081,0.155,0.074,-0.119,0.003,0.114,0.13,0.292,0.195,0.148,0.101,0.029
0.036,0.104,0.068,-0.07,-0.017,0.086,0.079,0.182,0.112,0.085,0.055,-0.001
0.004,0.069,0.065,-0.037,-0.031,0.067,0.041,0.077,0.026,0.031,0.016,-0.019
-0.008,0.051,0.059,-0.022,-0.034,0.055,0.015,0.008,-0.022,-0.013,-0.02,-0.042
-0.032,0.02,0.052,0.006,-0.042,0.036,-0.009,-0.038,-0.062,-0.055,-0.065,-0.071
-0.015,0.031,0.046,-0.008,-0.03,0.038,-0.03,-0.075,-0.081,-0.076,-0.085,-0.082
-0.027,0.012,0.039,0.007,-0.033,0.026,-0.046,-0.093,-0.092,-0.08,-0.088,-0.093
-0.026,0.006,0.032,0.01,-0.029,0.019,-0.045,-0.099,-0.1,-0.083,-0.095,-0.099
-0.01,0.022,0.032,-0.006,-0.021,0.027,-0.045,-0.1,-0.096,-0.085,-0.095,-0.097
-0.031,0.005,0.036,0.012,-0.033,0.02,-0.045,-0.1,-0.095,-0.085,-0.095,-0.091
-0.031,0.004,0.035,0.013,-0.033,0.019,-0.044,-0.1,-0.094,-0.085,-0.095,-0.086
-0.048,-0.013,0.035,0.03,-0.041,0.011,-0.049,-0.101,-0.091,-0.085,-0.095,-0.083
-0.061,-0.026,0.035,0.043,-0.048,0.004,-0.05,-0.099,-0.09,-0.085,-0.095,-0.076
-0.071,-0.035,0.035,0.053,-0.053,0.0,-0.05,-0.095,-0.09,-0.086,-0.094,-0.077
-0.056,-0.016,0.04,0.036,-0.048,0.012,-0.05,-0.095,-0.09,-0.084,-0.09,-0.079
-0.022,0.019,0.04,0.001,-0.031,0.029,-0.05,-0.093,-0.09,-0.08,-0.09,-0.092
-0.031,0.008,0.039,0.011,-0.036,0.024,-0.05,-0.09,-0.09,-0.08,-0.088,-0.101
-0.052,-0.01,0.043,0.031,-0.047,0.016,-0.05,-0.09,-0.09,-0.078,-0.086,-0.095
-0.045,0.001,0.045,0.022,-0.045,0.023,-0.05,-0.09,-0.09,-0.075,-0.083,-0.093
-0.02,0.025,0.045,-0.003,-0.033,0.034,-0.05,-0.091,-0.093,-0.075,-0.094,-0.089
-0.011,0.034,0.045,-0.012,-0.028,0.039,-0.062,-0.1,-0.096,-0.079,-0.111,-0.084
-0.016,0.029,0.045,-0.007,-0.031,0.037,-0.061,-0.104,-0.094,-0.08,-0.103,-0.09
-0.056,-0.011,0.045,0.033,-0.051,0.017,-0.05,-0.098,-0.089,-0.073,-0.096,-0.098
-0.054,-0.003,0.051,0.028,-0.052,0.024,-0.043,-0.09,-0.083,-0.067,-0.09,-0.093
-0.015,0.042,0.057,-0.014,-0.037,0.049,-0.035,-0.084,-0.08,-0.063,-0.082,-0.086
-0.006,0.056,0.061,-0.025,-0.034,0.058,-0.029,-0.077,-0.074,-0.055,-0.073,-0.079
0.017,0.081,0.064,-0.049,-0.024,0.072,-0.026,-0.071,-0.071,-0.052,-0.064,-0.072
0.031,0.094,0.063,-0.063,-0.017,0.078,-0.019,-0.074,-0.073,-0.052,-0.057,-0.066
0.035,0.089,0.054,-0.062,-0.009,0.071,-0.035,-0.076,-0.075,-0.056,-0.058,-0.067
0.031,0.078,0.047,-0.055,-0.008,0.063,-0.074,-0.087,-0.08,-0.06,-0.064,-0.073
0.036,0.078,0.042,-0.057,-0.003,0.06,-0.093,-0.099,-0.079,-0.059,-0.063,-0.072
0.031,0.06,0.029,-0.046,0.001,0.044,-0.09,-0.102,-0.089,-0.07,-0.073,-0.082
0.022,0.044,0.022,-0.033,0.0,0.032,-0.085,-0.097,-0.078,-0.058,-0.068,-0.074
0.001,0.002,0.001,-0.002,0.0,0.002,-0.083,-0.11,-0.1,-0.09,-0.101,-0.093
-0.053,-0.049,0.004,0.051,-0.029,-0.022,-0.078,-0.131,-0.13,-0.115,-0.133,-0.119
-0.06,-0.067,-0.008,0.064,-0.026,-0.037,-0.075,-0.136,-0.142,-0.134,-0.161,-0.141
-0.038,-0.044,-0.006,0.041,-0.016,-0.025,-0.081,-0.136,-0.144,-0.112,-0.16,-0.131
-0.082,-0.06,0.022,0.071,-0.052,-0.019,-0.07,-0.131,-0.14,-0.121,-0.157,-0.129
-0.154,-0.101,0.053,0.127,-0.103,-0.024,0.012,-0.12,-0.134,-0.176,-0.212,-0.2
-0.18,-0.073,0.107,0.126,-0.143,0.017,0.087,-0.003,-0.041,-0.087,-0.186,-0.218
0.101,0.016,-0.085,-0.059,0.093,-0.034,-0.139,0.152,0.195,0.188,0.102,-0.006
0.736,0.499,-0.237,-0.617,0.486,0.13,-0.588,0.247,0.889,1.014,0.959,0.627
0.901,0.639,-0.261,-0.77,0.581,0.189,-0.813,-0.174,0.767,0.987,1.112,0.829
0.53,0.219,-0.311,-0.374,0.42,-0.046,-0.791,-0.915,-0.338,-0.061,0.305,0.426
0.217,0.085,-0.132,-0.151,0.174,-0.024,-0.597,-0.874,-0.542,-0.299,-0.029,0.169
0.056,0.033,-0.022,-0.044,0.039,0.006,-0.31,-0.43,-0.293,-0.196,-0.116,-0.008
0.011,-0.004,-0.015,-0.003,0.013,-0.009,-0.148,-0.21,-0.187,-0.138,-0.136,-0.073
-0.05,-0.034,0.016,0.042,-0.033,-0.009,-0.084,-0.113,-0.126,-0.106,-0.111,-0.098
-0.069,-0.054,0.016,0.061,-0.042,-0.019,-0.055,-0.104,-0.13,-0.13,-0.129,-0.126
-0.059,-0.028,0.032,0.043,-0.045,0.002,-0.046,-0.085,-0.089,-0.079,-0.107,-0.115
-0.069,-0.025,0.044,0.047,-0.056,0.009,-0.034,-0.071,-0.096,-0.087,-0.121,-0.124
-0.064,-0.003,0.061,0.033,-0.062,0.029,-0.03,-0.055,-0.082,-0.071,-0.106,-0.117
-0.1,-0.046,0.054,0.072,-0.077,0.005,-0.027,-0.041,-0.075,-0.069,-0.107,-0.122
-0.099,-0.052,0.047,0.076,-0.073,-0.003,-0.023,-0.029,-0.06,-0.061,-0.1,-0.117
-0.084,-0.038,0.046,0.061,-0.064,0.003,-0.021,-0.005,-0.045,-0.054,-0.096,-0.112
-0.07,-0.037,0.033,0.053,-0.051,-0.002,-0.011,0.025,-0.033,-0.048,-0.092,-0.108
-0.064,-0.019,0.044,0.041,-0.054,0.012,0.004,0.052,-0.016,-0.032,-0.088,-0.103
-0.101,-0.03,0.071,0.066,-0.086,0.02,0.039,0.077,-0.001,-0.021,-0.093,-0.099
-0.067,0.003,0.069,0.032,-0.068,0.036,0.05,0.122,0.036,0.006,-0.063,-0.095
-0.072,-0.002,0.071,0.037,-0.072,0.034,0.049,0.177,0.063,0.025,-0.041,-0.077
-0.054,0.015,0.069,0.019,-0.061,0.042,0.088,0.239,0.105,0.059,-0.016,-0.053
-0.003,0.068,0.072,-0.033,-0.038,0.07,0.134,0.326,0.16,0.102,0.033,-0.043
0.009,0.075,0.065,-0.042,-0.028,0.07,0.168,0.407,0.216,0.145,0.066,-0.017
0.073,0.131,0.057,-0.102,0.008,0.094,0.192,0.466,0.282,0.209,0.113,0.023
0.056,0.156,0.099,-0.106,-0.022,0.127,0.215,0.507,0.305,0.237,0.141,0.041
0.059,0.165,0.106,-0.113,-0.024,0.136,0.214,0.506,0.298,0.233,0.131,0.04
0.067,0.176,0.109,-0.122,-0.021,0.143,0.196,0.456,0.285,0.227,0.127,0.035
0.038,0.159,0.122,-0.099,-0.042,0.14,0.161,0.375,0.254,0.202,0.118,0.033
0.045,0.141,0.096,-0.093,-0.026,0.118,0.107,0.261,0.188,0.152,0.087,0.03
0.011,0.103,0.092,-0.057,-0.041,0.097,0.057,0.141,0.114,0.096,0.045,0.009
-0.003,0.083,0.085,-0.04,-0.044,0.084,0.019,0.054,0.044,0.044,0.005,-0.023
-0.013,0.058,0.071,-0.023,-0.042,0.064,-0.02,-0.028,-0.016,-0.002,-0.036,-0.055
-0.036,0.028,0.064,0.004,-0.05,0.045,-0.049,-0.083,-0.051,-0.041,-0.072,-0.071
-0.012,0.012,0.025,0.0,-0.019,0.018,-0.039,-0.099,-0.078,-0.065,-0.091,-0.075
-0.031,0.001,0.032,0.014,-0.031,0.017,-0.043,-0.111,-0.08,-0.075,-0.099,-0.083
-0.079,-0.018,0.061,0.048,-0.07,0.021,-0.064,-0.115,-0.1,-0.095,-0.119,-0.092
-0.081,-0.03,0.051,0.055,-0.066,0.01,-0.065,-0.116,-0.11,-0.095,-0.129,-0.093
-0.062,-0.011,0.051,0.037,-0.056,0.02,-0.061,-0.114,-0.091,-0.086,-0.117,-0.088
-0.053,-0.006,0.048,0.029,-0.05,0.021,-0.058,-0.11,-0.09,-0.083,-0.113,-0.082
-0.056,-0.012,0.044,0.034,-0.049,0.015,-0.055,-0.11,-0.087,-0.075,-0.11,-0.077
-0.044,0.007,0.051,0.018,-0.048,0.029,-0.053,-0.109,-0.084,-0.072,-0.107,-0.069
-0.028,0.036,0.064,-0.004,-0.047,0.049,-0.05,-0.105,-0.081,-0.066,-0.102,-0.073
-0.022,0.038,0.06,-0.008,-0.041,0.048,-0.05,-0.105,-0.079,-0.065,-0.1,-0.086
-0.026,0.028,0.053,-0.001,-0.04,0.04,-0.05,-0.105,-0.081,-0.065,-0.105,-0.083
-0.021,0.024,0.044,-0.002,-0.033,0.034,-0.05,-0.105,-0.08,-0.065,-0.105,-0.08
-0.025,0.015,0.04,0.005,-0.033,0.027,-0.05,-0.105,-0.08,-0.065,-0.105,-0.078
-0.013,0.016,0.028,-0.002,-0.021,0.022,-0.055,-0.108,-0.081,-0.067,-0.105,-0.075
-0.016,0.012,0.029,0.002,-0.023,0.02,-0.056,-0.111,-0.079,-0.071,-0.106,-0.073
-0.024,0.009,0.033,0.008,-0.029,0.021,-0.05,-0.108,-0.084,-0.07,-0.103,-0.066
0.003,0.013,0.01,-0.008,-0.004,0.012,-0.044,-0.116,-0.084,-0.075,-0.093,-0.059
-0.021,0.031,0.052,-0.005,-0.037,0.041,-0.039,-0.109,-0.061,-0.063,-0.085,-0.053
0.017,0.091,0.075,-0.054,-0.029,0.083,-0.03,-0.077,-0.05,-0.049,-0.076,-0.045
0.033,0.12,0.087,-0.077,-0.027,0.103,-0.02,-0.071,-0.05,-0.05,-0.069,-0.041
0.014,0.112,0.098,-0.063,-0.043,0.104,-0.01,-0.066,-0.05,-0.05,-0.071,-0.045
0.049,0.118,0.069,-0.083,-0.011,0.093,-0.008,-0.058,-0.043,-0.042,-0.067,-0.045
0.044,0.108,0.064,-0.077,-0.01,0.086,-0.046,-0.09,-0.047,-0.042,-0.067,-0.046
0.05,0.101,0.051,-0.076,-0.001,0.076,-0.068,-0.106,-0.045,-0.032,-0.062,-0.044
0.033,0.076,0.043,-0.055,-0.005,0.059,-0.064,-0.105,-0.052,-0.032,-0.07,-0.047
0.016,0.056,0.039,-0.036,-0.012,0.047,-0.065,-0.096,-0.064,-0.045,-0.078,-0.044
0.001,0.03,0.029,-0.016,-0.014,0.03,-0.07,-0.117,-0.082,-0.069,-0.101,-0.06
-0.02,0.005,0.025,0.007,-0.022,0.015,-0.085,-0.157,-0.12,-0.098,-0.128,-0.084
-0.036,-0.018,0.018,0.027,-0.027,0.0,-0.074,-0.155,-0.125,-0.111,-0.137,-0.086
-0.056,-0.039,0.017,0.047,-0.036,-0.01,-0.07,-0.167,-0.138,-0.131,-0.165,-0.085
-0.032,0.0,0.032,0.016,-0.032,0.016,-0.058,-0.139,-0.109,-0.102,-0.14,-0.088
-0.082,-0.038,0.044,0.06,-0.063,0.003,0.008,-0.117,-0.142,-0.151,-0.188,-0.137
-0.198,-0.059,0.139,0.129,-0.168,0.04,0.08,-0.082,-0.117,-0.149,-0.221,-0.156
-0.056,-0.02,0.035,0.038,-0.046,0.007,-0.037,0.032,0.039,0.01,-0.069,-0.063
0.545,0.356,-0.189,-0.45,0.367,0.084,-0.455,0.138,0.623,0.73,0.661,0.459
0.898,0.689,-0.209,-0.793,0.553,0.24,-0.773,-0.061,0.97,1.186,1.197,0.874
0.624,0.314,-0.31,-0.469,0.467,0.002,-0.815,-0.754,-0.032,0.232,0.515,0.548
0.3,0.077,-0.223,-0.188,0.261,-0.073,-0.66,-0.983,-0.624,-0.339,-0.027,0.228
0.117,0.084,-0.033,-0.1,0.075,0.025,-0.357,-0.538,-0.329,-0.186,-0.082,0.073
0.023,0.016,-0.007,-0.02,0.015,0.005,-0.16,-0.254,-0.204,-0.15,-0.138,-0.028
-0.048,-0.012,0.036,0.029,-0.042,0.012,-0.08,-0.152,-0.122,-0.081,-0.113,-0.048
-0.082,-0.045,0.038,0.063,-0.06,-0.003,-0.036,-0.108,-0.114,-0.098,-0.14,-0.083
-0.05,-0.001,0.049,0.025,-0.05,0.024,-0.012,-0.086,-0.094,-0.077,-0.119,-0.07
-0.048,-0.005,0.043,0.026,-0.046,0.019,0.003,-0.07,-0.081,-0.072,-0.109,-0.077
-0.048,-0.002,0.046,0.025,-0.047,0.022,0.01,-0.065,-0.079,-0.068,-0.1,-0.074
-0.049,0.02,0.069,0.014,-0.06,0.045,0.013,-0.05,-0.067,-0.058,-0.102,-0.075
-0.094,-0.017,0.077,0.056,-0.086,0.03,-0.003,-0.035,-0.069,-0.059,-0.116,-0.075
-0.092,-0.014,0.078,0.053,-0.084,0.031,0.003,-0.01,-0.051,-0.046,-0.101,-0.066
-0.074,-0.006,0.068,0.04,-0.071,0.031,0.011,0.004,-0.034,-0.048,-0.097,-0.062
-0.055,0.013,0.068,0.02,-0.062,0.041,0.032,0.036,-0.018,-0.027,-0.085,-0.053
0.014,0.073,0.059,-0.044,-0.023,0.066,0.062,0.075,-0.009,-0.009,-0.075,-0.048
0.019,0.083,0.064,-0.051,-0.023,0.073,0.063,0.104,0.024,0.003,-0.062,-0.041
0.005,0.08,0.075,-0.043,-0.035,0.077,0.094,0.161,0.062,0.023,-0.041,-0.033
0.003,0.088,0.085,-0.046,-0.042,0.086,0.132,0.233,0.101,0.058,-0.009,-0.013
-0.011,0.082,0.093,-0.036,-0.053,0.088,0.153,0.306,0.156,0.102,0.019,0.008
0.017,0.101,0.084,-0.059,-0.034,0.092,0.192,0.393,0.211,0.154,0.061,0.037
0.05,0.141,0.092,-0.096,-0.021,0.116,0.22,0.464,0.268,0.203,0.106,0.062
0.049,0.172,0.122,-0.111,-0.037,0.147,0.243,0.511,0.319,0.251,0.133,0.084
0.059,0.2,0.14,-0.129,-0.041,0.17,0.258,0.528,0.331,0.271,0.152,0.099
0.078,0.215,0.137,-0.147,-0.03,0.176,0.238,0.494,0.311,0.263,0.142,0.09
0.073,0.206,0.133,-0.14,-0.031,0.169,0.2,0.42,0.292,0.25,0.141,0.081
0.059,0.188,0.129,-0.123,-0.036,0.158,0.154,0.309,0.237,0.207,0.121,0.076
0.034,0.16,0.126,-0.098,-0.046,0.143,0.107,0.191,0.155,0.141,0.067,0.062
0.006,0.127,0.121,-0.067,-0.058,0.124,0.057,0.085,0.073,0.059,0.022,0.025
-0.021,0.084,0.105,-0.031,-0.063,0.094,0.027,-0.005,-0.006,-0.003,-0.039,0.0
-0.019,0.069,0.089,-0.025,-0.054,0.079,0.016,-0.056,-0.037,-0.039,-0.071,-0.006
-0.015,0.063,0.077,-0.024,-0.046,0.07,0.002,-0.088,-0.063,-0.063,-0.088,-0.019
-0.056,0.015,0.071,0.02,-0.064,0.043,-0.006,-0.102,-0.09,-0.067,-0.11,-0.03
-0.048,0.016,0.063,0.016,-0.056,0.039,-0.014,-0.098,-0.094,-0.072,-0.111,-0.043
-0.051,0.007,0.057,0.022,-0.054,0.032,-0.023,-0.095,-0.102,-0.072,-0.115,-0.05
-0.071,-0.024,0.047,0.047,-0.058,0.011,-0.028,-0.093,-0.1,-0.069,-0.118,-0.05
-0.041,0.01,0.051,0.015,-0.046,0.03,-0.026,-0.087,-0.1,-0.07,-0.12,-0.05
-0.048,0.019,0.066,0.014,-0.057,0.042,-0.019,-0.1,-0.1,-0.069,-0.12,-0.05
-0.064,0.001,0.065,0.031,-0.064,0.032,-0.016,-0.115,-0.1,-0.071,-0.123,-0.05
-0.081,-0.016,0.065,0.048,-0.073,0.024,-0.011,-0.101,-0.1,-0.069,-0.126,-0.048
-0.072,-0.007,0.065,0.039,-0.068,0.029,-0.006,-0.095,-0.096,-0.065,-0.124,-0.045
-0.028,0.037,0.065,-0.005,-0.047,0.051,-0.007,-0.095,-0.093,-0.06,-0.121,-0.042
-0.023,0.04,0.062,-0.009,-0.043,0.051,-0.018,-0.095,-0.09,-0.058,-0.114,-0.039
-0.044,0.014,0.059,0.015,-0.052,0.036,-0.027,-0.095,-0.087,-0.053,-0.111,-0.035
-0.039,0.016,0.054,0.011,-0.047,0.035,-0.025,-0.095,-0.085,-0.05,-0.106,-0.035
-0.018,0.034,0.052,-0.008,-0.035,0.043,-0.02,-0.095,-0.083,-0.059,-0.102,-0.04
-0.013,0.034,0.047,-0.011,-0.03,0.04,-0.017,-0.094,-0.077,-0.058,-0.098,-0.044
-0.032,0.013,0.046,0.009,-0.039,0.029,-0.011,-0.097,-0.071,-0.048,-0.091,-0.043
-0.06,0.025,0.085,0.017,-0.073,0.055,-0.008,-0.082,-0.065,-0.043,-0.086,-0.033
-0.043,0.063,0.106,-0.01,-0.074,0.084,0.0,-0.073,-0.061,-0.035,-0.08,-0.022
-0.023,0.07,0.092,-0.024,-0.057,0.081,0.006,-0.075,-0.064,-0.03,-0.075,-0.012
-0.01,0.076,0.086,-0.033,-0.048,0.08,0.02,-0.076,-0.066,-0.036,-0.071,-0.005
0.011,0.091,0.08,-0.051,-0.035,0.085,0.015,-0.079,-0.065,-0.033,-0.069,-0.001
0.042,0.104,0.062,-0.073,-0.01,0.083,-0.028,-0.081,-0.072,-0.038,-0.07,0.001
0.043,0.091,0.047,-0.067,-0.002,0.069,-0.043,-0.079,-0.067,-0.038,-0.063,0.006
0.001,0.04,0.039,-0.021,-0.019,0.04,-0.038,-0.069,-0.075,-0.041,-0.066,0.009
-0.034,0.004,0.039,0.015,-0.037,0.021,-0.041,-0.077,-0.074,-0.048,-0.07,0.003
-0.056,-0.026,0.031,0.041,-0.043,0.002,-0.033,-0.099,-0.081,-0.074,-0.102,-0.042
-0.075,-0.046,0.028,0.06,-0.051,-0.009,-0.036,-0.119,-0.119,-0.106,-0.126,-0.062
-0.094,-0.069,0.025,0.081,-0.059,-0.021,-0.037,-0.112,-0.134,-0.125,-0.134,-0.069
-0.084,-0.051,0.033,0.068,-0.058,-0.009,-0.044,-0.109,-0.142,-0.132,-0.146,-0.076
-0.09,-0.029,0.061,0.059,-0.075,0.016,-0.054,-0.094,-0.129,-0.11,-0.131,-0.066
-0.111,-0.063,0.047,0.087,-0.079,-0.008,0.029,-0.095,-0.156,-0.164,-0.194,-0.116
-0.201,-0.053,0.148,0.127,-0.174,0.047,0.127,-0.065,-0.107,-0.143,-0.207,-0.129
-0.054,-0.029,0.025,0.041,-0.039,-0.002,-0.035,0.044,0.047,0.019,-0.042,-0.02
0.617,0.383,-0.233,-0.5,0.425,0.075,-0.462,0.157,0.64,0.758,0.71,0.519
0.924,0.649,-0.275,-0.787,0.599,0.187,-0.756,-0.058,0.862,1.072,1.126,0.858
0.631,0.223,-0.408,-0.427,0.52,-0.092,-0.795,-0.766,-0.174,0.055,0.362,0.471
0.302,0.036,-0.266,-0.169,0.284,-0.115,-0.61,-0.939,-0.626,-0.391,-0.092,0.182
0.073,0.042,-0.031,-0.057,0.052,0.006,-0.298,-0.475,-0.315,-0.219,-0.113,0.061
0.012,0.004,-0.008,-0.008,0.01,-0.002,-0.115,-0.217,-0.203,-0.184,-0.156,-0.014
-0.03,0.02,0.051,0.005,-0.041,0.035,-0.041,-0.123,-0.112,-0.116,-0.119,-0.04
-0.068,-0.02,0.048,0.044,-0.058,0.014,-0.009,-0.09,-0.118,-0.133,-0.138,-0.069
-0.084,-0.039,0.045,0.061,-0.064,0.003,0.006,-0.065,-0.096,-0.107,-0.118,-0.054
-0.092,-0.047,0.045,0.069,-0.068,-0.001,0.021,-0.05,-0.081,-0.105,-0.122,-0.064
-0.07,-0.035,0.035,0.053,-0.052,0.0,0.027,-0.046,-0.078,-0.097,-0.116,-0.058
-0.072,-0.034,0.039,0.052,-0.055,0.002,0.024,-0.025,-0.066,-0.089,-0.112,-0.061
-0.069,-0.031,0.038,0.05,-0.053,0.003,0.027,-0.008,-0.065,-0.088,-0.113,-0.058
-0.068,-0.019,0.048,0.043,-0.058,0.014,0.061,0.021,-0.047,-0.074,-0.104,-0.05
-0.106,-0.043,0.063,0.074,-0.084,0.01,0.067,0.03,-0.04,-0.071,-0.108,-0.045
-0.099,-0.032,0.067,0.065,-0.083,0.018,0.063,0.046,-0.017,-0.053,-0.099,-0.036
-0.066,-0.004,0.062,0.035,-0.063,0.029,0.09,0.092,0.002,-0.042,-0.085,-0.031
-0.062,0.0,0.062,0.031,-0.062,0.031,0.105,0.136,0.024,-0.008,-0.061,-0.025
-0.048,0.01,0.058,0.019,-0.053,0.034,0.117,0.186,0.06,0.02,-0.037,-0.014
-0.047,0.02,0.067,0.014,-0.058,0.043,0.153,0.261,0.106,0.052,-0.018,0.008
-0.016,0.076,0.091,-0.03,-0.054,0.083,0.186,0.339,0.162,0.1,0.015,0.022
0.018,0.105,0.087,-0.062,-0.035,0.096,0.208,0.41,0.214,0.139,0.052,0.035
0.029,0.116,0.087,-0.073,-0.029,0.101,0.244,0.483,0.277,0.203,0.103,0.075
0.041,0.147,0.105,-0.094,-0.032,0.126,0.265,0.524,0.317,0.239,0.138,0.101
0.068,0.17,0.102,-0.119,-0.017,0.135,0.257,0.512,0.331,0.251,0.152,0.117
0.086,0.182,0.096,-0.135,-0.005,0.139,0.247,0.497,0.333,0.264,0.171,0.139
0.085,0.178,0.093,-0.132,-0.004,0.135,0.225,0.443,0.294,0.233,0.151,0.129
0.068,0.155,0.087,-0.112,-0.01,0.121,0.177,0.323,0.22,0.176,0.106,0.103
0.0,0.084,0.084,-0.043,-0.042,0.084,0.115,0.196,0.143,0.104,0.054,0.066
-0.016,0.061,0.077,-0.023,-0.047,0.069,0.071,0.089,0.069,0.045,0.007,0.025
-0.021,0.05,0.071,-0.015,-0.047,0.06,0.055,0.018,0.0,-0.004,-0.047,0.002
-0.052,0.014,0.066,0.019,-0.059,0.04,0.039,-0.029,-0.043,-0.051,-0.09,-0.015
-0.055,0.006,0.061,0.025,-0.059,0.033,0.017,-0.071,-0.073,-0.076,-0.1,-0.025
-0.08,-0.023,0.058,0.051,-0.069,0.017,0.009,-0.09,-0.086,-0.082,-0.106,-0.036
-0.087,-0.035,0.052,0.061,-0.069,0.008,0.006,-0.09,-0.084,-0.08,-0.104,-0.043
-0.06,-0.011,0.05,0.036,-0.055,0.019,0.002,-0.09,-0.085,-0.08,-0.109,-0.04
-0.05,0.0,0.05,0.025,-0.05,0.025,-0.001,-0.09,-0.088,-0.077,-0.111,-0.04
-0.061,-0.011,0.05,0.036,-0.055,0.019,-0.006,-0.09,-0.092,-0.075,-0.109,-0.038
-0.069,-0.019,0.05,0.044,-0.059,0.015,-0.001,-0.088,-0.086,-0.073,-0.116,-0.034
-0.1,-0.05,0.05,0.075,-0.075,0.0,0.0,-0.083,-0.1,-0.09,-0.118,-0.035
-0.131,-0.081,0.05,0.106,-0.09,-0.015,0.0,-0.077,-0.11,-0.099,-0.113,-0.035
-0.117,-0.07,0.047,0.093,-0.081,-0.011,0.005,-0.074,-0.101,-0.087,-0.11,-0.035
-0.114,-0.071,0.042,0.092,-0.078,-0.014,0.005,-0.068,-0.097,-0.08,-0.106,-0.035
-0.096,-0.057,0.039,0.077,-0.068,-0.009,0.004,-0.065,-0.091,-0.072,-0.102,-0.035
-0.049,-0.013,0.036,0.03,-0.042,0.011,-0.001,-0.065,-0.087,-0.073,-0.1,-0.035
-0.045,-0.014,0.031,0.029,-0.038,0.008,-0.005,-0.064,-0.085,-0.083,-0.094,-0.034
-0.068,-0.037,0.031,0.052,-0.049,-0.003,-0.002,-0.076,-0.08,-0.083,-0.103,-0.03
-0.08,-0.04,0.04,0.06,-0.06,0.0,0.006,-0.085,-0.077,-0.08,-0.111,-0.028
-0.071,-0.024,0.047,0.047,-0.059,0.011,0.01,-0.075,-0.074,-0.073,-0.103,-0.025
-0.08,-0.029,0.051,0.054,-0.065,0.011,0.016,-0.069,-0.068,-0.07,-0.1,-0.022
-0.051,0.003,0.054,0.023,-0.052,0.029,0.022,-0.063,-0.06,-0.066,-0.096,-0.021
-0.017,0.043,0.059,-0.013,-0.038,0.051,0.026,-0.052,-0.054,-0.057,-0.088,-0.014
-0.063,0.009,0.072,0.027,-0.068,0.04,0.033,-0.069,-0.047,-0.07,-0.094,-0.026
-0.026,0.042,0.068,-0.008,-0.047,0.055,0.038,-0.057,-0.044,-0.057,-0.084,-0.015
0.0,0.065,0.065,-0.033,-0.033,0.064,0.043,-0.037,-0.047,-0.032,-0.064,0.012
-0.013,0.048,0.061,-0.018,-0.037,0.054,0.015,-0.046,-0.042,-0.035,-0.064,0.018
0.013,0.044,0.03,-0.029,-0.009,0.037,-0.016,-0.052,-0.048,-0.037,-0.067,0.023
0.02,0.041,0.021,-0.03,-0.001,0.031,-0.013,-0.06,-0.041,-0.032,-0.062,0.017
0.02,0.026,0.005,-0.023,0.007,0.015,-0.01,-0.068,-0.051,-0.04,-0.068,0.004
0.016,0.032,0.016,-0.024,0.0,0.023,0.0,-0.074,-0.061,-0.038,-0.061,0.001
-0.032,0.003,0.035,0.014,-0.034,0.019,0.009,-0.08,-0.068,-0.058,-0.087,-0.015
-0.08,-0.069,0.011,0.075,-0.046,-0.029,0.002,-0.102,-0.102,-0.088,-0.119,-0.027
-0.071,-0.066,0.006,0.068,-0.038,-0.03,-0.002,-0.104,-0.099,-0.097,-0.131,-0.044
-0.093,-0.076,0.017,0.084,-0.054,-0.03,-0.004,-0.107,-0.116,-0.113,-0.14,-0.047
-0.117,-0.086,0.031,0.101,-0.073,-0.028,-0.015,-0.102,-0.109,-0.099,-0.128,-0.046
-0.146,-0.112,0.035,0.129,-0.09,-0.038,0.042,-0.087,-0.133,-0.142,-0.179,-0.101
-0.211,-0.07,0.141,0.14,-0.176,0.035,0.146,-0.028,-0.073,-0.097,-0.163,-0.095
-0.059,-0.036,0.023,0.047,-0.041,-0.007,0.008,0.068,0.063,0.045,-0.031,-0.001
0.566,0.332,-0.234,-0.449,0.4,0.049,-0.422,0.148,0.573,0.695,0.652,0.484
0.913,0.617,-0.296,-0.765,0.604,0.16,-0.71,-0.061,0.792,1.01,1.066,0.823
0.615,0.174,-0.441,-0.394,0.528,-0.133,-0.752,-0.754,-0.194,0.034,0.306,0.431
0.292,-0.019,-0.311,-0.136,0.301,-0.164,-0.595,-0.94,-0.637,-0.41,-0.141,0.149
0.064,0.004,-0.061,-0.034,0.063,-0.028,-0.28,-0.474,-0.313,-0.206,-0.111,0.06
-0.03,-0.056,-0.027,0.043,-0.001,-0.041,-0.105,-0.209,-0.187,-0.156,-0.143,-0.026
-0.083,-0.058,0.025,0.07,-0.054,-0.016,-0.03,-0.119,-0.094,-0.091,-0.113,-0.036
-0.109,-0.079,0.03,0.094,-0.07,-0.024,0.016,-0.074,-0.088,-0.103,-0.129,-0.053
-0.094,-0.064,0.03,0.079,-0.062,-0.017,0.029,-0.041,-0.069,-0.077,-0.115,-0.048
-0.103,-0.074,0.029,0.088,-0.066,-0.022,0.041,-0.021,-0.066,-0.074,-0.118,-0.058
-0.118,-0.068,0.05,0.093,-0.084,-0.009,0.044,-0.016,-0.061,-0.063,-0.11,-0.054
-0.146,-0.071,0.075,0.109,-0.111,0.002,0.069,0.005,-0.042,-0.054,-0.103,-0.058
-0.136,-0.069,0.067,0.102,-0.101,-0.001,0.076,0.017,-0.035,-0.052,-0.1,-0.061
-0.144,-0.073,0.072,0.108,-0.108,0.0,0.075,0.038,-0.015,-0.04,-0.092,-0.06
-0.122,-0.052,0.069,0.087,-0.096,0.009,0.074,0.051,-0.005,-0.037,-0.087,-0.053
-0.099,-0.03,0.07,0.064,-0.084,0.02,0.09,0.065,0.012,-0.029,-0.072,-0.034
-0.115,-0.041,0.074,0.078,-0.094,0.016,0.103,0.101,0.032,-0.019,-0.068,-0.025
-0.068,0.007,0.075,0.03,-0.071,0.041,0.106,0.143,0.055,0.005,-0.044,-0.015
-0.046,0.031,0.077,0.007,-0.062,0.054,0.139,0.203,0.095,0.033,-0.02,-0.002
-0.092,-0.01,0.082,0.051,-0.087,0.036,0.162,0.266,0.131,0.07,-0.007,0.015
-0.074,-0.001,0.073,0.037,-0.074,0.036,0.183,0.341,0.174,0.105,0.034,0.032
-0.029,0.062,0.091,-0.017,-0.06,0.076,0.219,0.43,0.242,0.158,0.077,0.055
0.002,0.11,0.108,-0.056,-0.054,0.109,0.251,0.495,0.301,0.208,0.117,0.091
0.047,0.145,0.098,-0.097,-0.026,0.121,0.27,0.552,0.346,0.252,0.158,0.119
0.1,0.193,0.093,-0.147,0.003,0.143,0.273,0.566,0.372,0.271,0.171,0.132
0.096,0.181,0.086,-0.139,0.005,0.133,0.251,0.524,0.363,0.254,0.171,0.129
0.065,0.145,0.079,-0.105,-0.007,0.112,0.221,0.46,0.325,0.24,0.166,0.126
0.078,0.149,0.072,-0.114,0.003,0.11,0.186,0.354,0.257,0.188,0.124,0.123
0.034,0.109,0.076,-0.072,-0.021,0.092,0.137,0.229,0.171,0.121,0.065,0.091
-0.002,0.076,0.078,-0.037,-0.04,0.076,0.098,0.13,0.094,0.057,0.018,0.052
-0.013,0.055,0.068,-0.021,-0.041,0.061,0.069,0.049,0.032,0.002,-0.034,0.024
-0.047,0.016,0.063,0.015,-0.055,0.039,0.042,-0.017,-0.007,-0.029,-0.071,0.01
-0.087,-0.03,0.056,0.058,-0.071,0.013,0.032,-0.05,-0.025,-0.062,-0.09,0.004
-0.097,-0.044,0.054,0.07,-0.075,0.005,0.026,-0.056,-0.041,-0.077,-0.102,-0.005
-0.071,-0.019,0.052,0.045,-0.061,0.016,0.019,-0.067,-0.058,-0.086,-0.097,-0.012
-0.081,-0.033,0.047,0.057,-0.064,0.007,0.013,-0.071,-0.061,-0.09,-0.095,-0.03
-0.087,-0.041,0.046,0.063,-0.067,0.003,0.005,-0.066,-0.056,-0.084,-0.092,-0.036
-0.093,-0.051,0.042,0.072,-0.068,-0.004,0.013,-0.065,-0.054,-0.082,-0.089,-0.03
-0.088,-0.051,0.037,0.07,-0.063,-0.007,0.022,-0.06,-0.051,-0.077,-0.099,-0.028
-0.077,-0.048,0.028,0.062,-0.052,-0.01,0.019,-0.06,-0.049,-0.075,-0.101,-0.023
-0.054,-0.032,0.022,0.043,-0.038,-0.005,0.016,-0.055,-0.045,-0.07,-0.1,-0.019
-0.042,0.003,0.046,0.019,-0.044,0.024,0.013,-0.056,-0.038,-0.065,-0.098,-0.027
-0.074,-0.021,0.052,0.047,-0.063,0.015,0.01,-0.053,-0.034,-0.06,-0.094,-0.033
-0.069,-0.028,0.041,0.048,-0.055,0.006,0.011,-0.051,-0.029,-0.057,-0.095,-0.028
-0.058,-0.023,0.035,0.04,-0.046,0.006,0.017,-0.05,-0.02,-0.05,-0.095,-0.026
-0.053,-0.025,0.028,0.039,-0.04,0.001,0.023,-0.05,-0.031,-0.054,-0.095,-0.023
-0.036,-0.018,0.018,0.027,-0.027,0.0,0.029,-0.06,-0.046,-0.068,-0.095,-0.02
-0.057,-0.021,0.035,0.039,-0.046,0.007,0.034,-0.05,-0.047,-0.07,-0.095,-0.02
-0.093,-0.022,0.071,0.057,-0.082,0.024,0.032,-0.064,-0.05,-0.07,-0.095,-0.02
-0.099,-0.03,0.069,0.065,-0.084,0.019,0.029,-0.079,-0.055,-0.07,-0.094,-0.02
-0.096,-0.02,0.076,0.057,-0.085,0.028,0.031,-0.072,-0.054,-0.07,-0.088,-0.02
-0.089,-0.014,0.075,0.051,-0.082,0.03,0.029,-0.077,-0.06,-0.071,-0.082,-0.021
-0.1,-0.018,0.082,0.059,-0.091,0.032,0.031,-0.074,-0.057,-0.062,-0.076,-0.02
-0.07,0.007,0.077,0.032,-0.074,0.041,0.03,-0.068,-0.03,-0.053,-0.072,-0.017
-0.015,0.042,0.057,-0.014,-0.037,0.05,0.03,-0.056,-0.022,-0.042,-0.066,-0.011
-0.005,0.071,0.077,-0.033,-0.041,0.074,0.048,-0.038,-0.02,-0.033,-0.065,-0.008
0.017,0.081,0.065,-0.049,-0.024,0.073,0.041,-0.034,-0.001,-0.023,-0.066,-0.003
0.014,0.072,0.058,-0.043,-0.023,0.065,0.015,-0.038,0.011,-0.011,-0.07,0.027
0.023,0.061,0.037,-0.042,-0.007,0.049,-0.016,-0.046,0.005,-0.01,-0.071,0.04
0.057,0.049,-0.009,-0.053,0.033,0.02,-0.037,-0.051,-0.017,-0.017,-0.068,0.027
0.021,0.001,-0.02,-0.011,0.021,-0.01,-0.033,-0.046,-0.039,-0.036,-0.073,0.012
-0.002,-0.015,-0.012,0.009,0.005,-0.013,-0.037,-0.05,-0.031,-0.036,-0.064,0.003
-0.035,-0.039,-0.004,0.037,-0.015,-0.021,-0.033,-0.079,-0.057,-0.072,-0.099,-0.034
-0.067,-0.057,0.01,0.062,-0.038,-0.024,-0.038,-0.102,-0.073,-0.079,-0.11,-0.055
-0.058,-0.058,0.0,0.058,-0.029,-0.029,-0.028,-0.103,-0.088,-0.094,-0.128,-0.067
-0.033,-0.046,-0.012,0.04,-0.01,-0.028,-0.024,-0.101,-0.085,-0.089,-0.131,-0.065
-0.048,-0.037,0.011,0.043,-0.029,-0.013,-0.013,-0.094,-0.08,-0.088,-0.132,-0.07
-0.169,-0.092,0.077,0.13,-0.123,-0.007,0.081,-0.075,-0.099,-0.133,-0.175,-0.107
-0.237,-0.09,0.147,0.164,-0.192,0.028,0.138,0.021,0.003,-0.051,-0.129,-0.092
0.123,0.026,-0.097,-0.074,0.11,-0.036,-0.11,0.157,0.226,0.219,0.148,0.108
0.799,0.487,-0.312,-0.642,0.555,0.087,-0.544,0.243,0.829,0.96,0.92,0.671
0.917,0.543,-0.374,-0.729,0.645,0.085,-0.73,-0.166,0.631,0.821,0.93,0.767
0.556,0.086,-0.47,-0.321,0.513,-0.192,-0.716,-0.887,-0.419,-0.206,0.098,0.305
0.212,-0.016,-0.228,-0.098,0.22,-0.122,-0.519,-0.83,-0.527,-0.334,-0.117,0.12
0.015,-0.028,-0.043,0.007,0.029,-0.035,-0.224,-0.372,-0.243,-0.177,-0.106,0.023
-0.039,-0.056,-0.017,0.047,-0.011,-0.036,-0.094,-0.166,-0.131,-0.128,-0.117,-0.039
-0.104,-0.073,0.031,0.088,-0.067,-0.02,-0.043,-0.08,-0.065,-0.077,-0.091,-0.048
-0.096,-0.08,0.015,0.088,-0.055,-0.032,-0.013,-0.082,-0.075,-0.093,-0.103,-0.055
-0.121,-0.069,0.052,0.095,-0.086,-0.009,0.011,-0.044,-0.04,-0.066,-0.08,-0.046
-0.126,-0.08,0.046,0.102,-0.085,-0.017,0.039,-0.014,-0.035,-0.076,-0.088,-0.051
-0.109,-0.072,0.037,0.09,-0.073,-0.017,0.046,-0.009,-0.029,-0.059,-0.081,-0.042
-0.111,-0.073,0.038,0.092,-0.074,-0.017,0.045,0.003,-0.028,-0.061,-0.082,-0.047
-0.082,-0.059,0.024,0.07,-0.053,-0.017,0.045,0.014,-0.018,-0.046,-0.074,-0.04
-0.082,-0.05,0.031,0.066,-0.056,-0.009,0.046,0.035,-0.007,-0.034,-0.069,-0.04
-0.08,-0.04,0.039,0.06,-0.059,-0.001,0.044,0.052,0.0,-0.027,-0.064,-0.04
-0.071,-0.029,0.042,0.05,-0.056,0.006,0.057,0.092,0.025,-0.012,-0.058,-0.034
-0.047,-0.02,0.026,0.033,-0.036,0.003,0.075,0.123,0.048,-0.002,-0.048,-0.036
-0.064,-0.032,0.032,0.048,-0.048,0.0,0.085,0.156,0.078,0.041,-0.031,-0.033
-0.09,-0.028,0.062,0.059,-0.076,0.017,0.11,0.222,0.115,0.065,-0.013,-0.019
-0.045,0.022,0.067,0.011,-0.056,0.044,0.147,0.297,0.144,0.086,0.023,0.009
-0.021,0.043,0.064,-0.012,-0.042,0.053,0.18,0.371,0.201,0.137,0.05,0.034
0.001,0.067,0.066,-0.034,-0.033,0.066,0.205,0.453,0.257,0.184,0.097,0.057
0.044,0.109,0.065,-0.077,-0.011,0.087,0.228,0.527,0.309,0.228,0.143,0.08
0.065,0.131,0.066,-0.099,-0.001,0.098,0.244,0.557,0.352,0.266,0.164,0.096
0.058,0.136,0.078,-0.097,-0.01,0.107,0.236,0.553,0.351,0.28,0.179,0.115
0.052,0.128,0.076,-0.09,-0.012,0.102,0.23,0.523,0.339,0.27,0.167,0.122
0.062,0.128,0.066,-0.095,-0.003,0.097,0.204,0.442,0.316,0.24,0.158,0.108
0.06,0.113,0.053,-0.086,0.003,0.083,0.15,0.329,0.251,0.189,0.133,0.093
0.047,0.088,0.041,-0.068,0.002,0.064,0.096,0.22,0.171,0.133,0.085,0.07
-0.003,0.048,0.051,-0.023,-0.027,0.049,0.056,0.118,0.102,0.08,0.047,0.04
-0.014,0.016,0.029,-0.001,-0.022,0.022,0.041,0.04,0.038,0.024,-0.009,0.007
-0.045,-0.016,0.028,0.03,-0.037,0.006,0.025,-0.01,-0.009,-0.024,-0.05,-0.022
-0.097,-0.065,0.032,0.081,-0.064,-0.017,0.012,-0.049,-0.037,-0.047,-0.055,-0.033
-0.07,-0.047,0.022,0.058,-0.046,-0.012,0.001,-0.07,-0.054,-0.056,-0.068,-0.042
-0.096,-0.055,0.041,0.075,-0.068,-0.007,-0.02,-0.072,-0.057,-0.058,-0.071,-0.053
-0.111,-0.087,0.023,0.099,-0.067,-0.032,-0.026,-0.07,-0.055,-0.055,-0.069,-0.055
-0.06,-0.068,-0.007,0.064,-0.026,-0.037,-0.025,-0.07,-0.055,-0.052,-0.082,-0.055
-0.066,-0.059,0.007,0.063,-0.036,-0.026,-0.025,-0.067,-0.055,-0.049,-0.086,-0.055
-0.082,-0.051,0.031,0.066,-0.056,-0.01,-0.025,-0.065,-0.055,-0.045,-0.085,-0.055
-0.076,-0.05,0.026,0.063,-0.051,-0.011,-0.024,-0.065,-0.055,-0.045,-0.081,-0.054
-0.059,-0.043,0.016,0.05,-0.037,-0.013,-0.021,-0.076,-0.066,-0.057,-0.08,-0.058
-0.07,-0.047,0.024,0.058,-0.047,-0.011,-0.018,-0.082,-0.066,-0.061,-0.08,-0.06
-0.106,-0.061,0.045,0.083,-0.075,-0.008,-0.015,-0.079,-0.055,-0.059,-0.074,-0.06
-0.069,-0.036,0.033,0.052,-0.051,-0.002,-0.013,-0.081,-0.051,-0.057,-0.067,-0.06
-0.058,-0.051,0.007,0.055,-0.033,-0.022,-0.008,-0.08,-0.045,-0.054,-0.061,-0.06
-0.084,-0.059,0.025,0.072,-0.054,-0.017,-0.021,-0.08,-0.04,-0.055,-0.055,-0.06
-0.068,-0.023,0.045,0.045,-0.056,0.011,-0.038,-0.08,-0.037,-0.05,-0.046,-0.055
-0.064,-0.041,0.023,0.052,-0.043,-0.009,-0.032,-0.08,-0.03,-0.047,-0.048,-0.055
-0.069,-0.077,-0.008,0.073,-0.031,-0.042,-0.031,-0.08,-0.039,-0.044,-0.047,-0.054
-0.085,-0.076,0.008,0.081,-0.046,-0.034,-0.027,-0.08,-0.045,-0.04,-0.046,-0.05
-0.063,-0.057,0.007,0.06,-0.035,-0.025,-0.024,-0.081,-0.037,-0.036,-0.044,-0.051
-0.041,-0.057,-0.016,0.049,-0.012,-0.036,-0.023,-0.077,-0.033,-0.032,-0.049,-0.048
-0.06,-0.05,0.01,0.055,-0.035,-0.02,-0.002,-0.067,-0.025,-0.026,-0.056,-0.041
-0.085,-0.033,0.052,0.058,-0.068,0.009,0.004,-0.057,-0.022,-0.021,-0.033,-0.034
-0.088,-0.019,0.069,0.053,-0.078,0.025,0.019,-0.052,-0.012,-0.015,-0.022,-0.027
-0.043,0.013,0.057,0.015,-0.05,0.035,0.042,-0.056,0.005,-0.009,-0.023,-0.021
-0.005,0.04,0.044,-0.018,-0.025,0.042,0.018,-0.054,0.02,0.001,-0.015,-0.013
-0.003,0.033,0.036,-0.016,-0.02,0.035,0.002,-0.056,0.013,0.006,-0.016,-0.011
0.002,0.02,0.018,-0.012,-0.008,0.019,-0.005,-0.055,-0.011,0.018,-0.007,0.0
0.006,0.008,0.002,-0.007,0.002,0.005,-0.013,-0.06,-0.023,0.021,-0.019,-0.008
-0.07,-0.054,0.016,0.061,-0.043,-0.019,-0.022,-0.072,-0.032,0.017,-0.033,-0.029
-0.075,-0.072,0.004,0.073,-0.039,-0.034,-0.027,-0.07,-0.046,-0.013,-0.05,-0.05
-0.051,-0.074,-0.023,0.063,-0.013,-0.049,-0.037,-0.093,-0.073,-0.051,-0.077,-0.067
-0.095,-0.13,-0.036,0.113,-0.029,-0.083,-0.065,-0.118,-0.103,-0.082,-0.109,-0.092
-0.062,-0.094,-0.032,0.078,-0.015,-0.062,-0.053,-0.122,-0.104,-0.091,-0.126,-0.1
-0.127,-0.123,0.004,0.125,-0.065,-0.059,-0.029,-0.105,-0.08,-0.073,-0.11,-0.083
-0.201,-0.193,0.007,0.197,-0.104,-0.093,0.031,-0.086,-0.099,-0.105,-0.149,-0.121
-0.213,-0.111,0.102,0.161,-0.157,-0.004,0.129,0.003,-0.014,-0.038,-0.132,-0.135
-0.103,-0.106,-0.002,0.105,-0.05,-0.054,0.019,0.147,0.128,0.104,0.005,-0.059
0.525,0.278,-0.246,-0.402,0.386,0.016,-0.403,0.289,0.706,0.808,0.734,0.469
0.903,0.629,-0.274,-0.766,0.588,0.177,-0.733,0.059,0.999,1.21,1.239,0.873
0.615,0.258,-0.357,-0.436,0.486,-0.049,-0.766,-0.696,-0.008,0.26,0.554,0.544
0.277,0.022,-0.255,-0.149,0.265,-0.116,-0.613,-0.932,-0.567,-0.283,0.036,0.242
0.001,-0.049,-0.05,0.025,0.025,-0.049,-0.335,-0.529,-0.317,-0.164,-0.053,0.056
-0.042,-0.075,-0.033,0.059,-0.004,-0.054,-0.134,-0.228,-0.167,-0.106,-0.104,-0.035
-0.038,-0.064,-0.027,0.051,-0.005,-0.045,-0.066,-0.107,-0.076,-0.039,-0.072,-0.032
-0.119,-0.143,-0.024,0.131,-0.047,-0.083,-0.034,-0.076,-0.086,-0.061,-0.094,-0.083
-0.127,-0.127,0.0,0.127,-0.064,-0.063,-0.013,-0.041,-0.064,-0.042,-0.08,-0.08
-0.127,-0.129,-0.002,0.128,-0.062,-0.066,-0.002,-0.027,-0.057,-0.035,-0.086,-0.082
-0.106,-0.122,-0.016,0.115,-0.045,-0.069,-0.001,-0.02,-0.05,-0.027,-0.081,-0.08
-0.125,-0.12,0.005,0.122,-0.065,-0.057,0.005,-0.004,-0.035,-0.012,-0.076,-0.078
-0.126,-0.115,0.011,0.12,-0.068,-0.052,0.019,0.008,-0.037,-0.012,-0.078,-0.076
-0.083,-0.076,0.007,0.079,-0.045,-0.034,0.034,0.041,-0.02,0.006,-0.066,-0.074
-0.087,-0.088,-0.001,0.088,-0.043,-0.044,0.028,0.057,-0.001,0.018,-0.043,-0.074
-0.091,-0.099,-0.008,0.095,-0.041,-0.054,0.03,0.07,0.021,0.014,-0.027,-0.065
-0.06,-0.064,-0.004,0.062,-0.027,-0.034,0.058,0.101,0.052,0.044,-0.023,-0.061
-0.068,-0.067,0.001,0.067,-0.034,-0.032,0.059,0.133,0.059,0.075,-0.013,-0.055
-0.082,-0.065,0.017,0.073,-0.049,-0.024,0.087,0.193,0.084,0.089,0.01,-0.046
-0.091,-0.057,0.034,0.073,-0.062,-0.011,0.118,0.254,0.129,0.117,0.032,-0.033
-0.069,-0.031,0.037,0.049,-0.053,0.003,0.137,0.323,0.171,0.154,0.059,-0.02
0.008,0.04,0.032,-0.025,-0.012,0.036,0.179,0.413,0.238,0.21,0.108,0.011
0.009,0.051,0.042,-0.03,-0.017,0.046,0.199,0.485,0.296,0.262,0.152,0.05
0.017,0.083,0.066,-0.05,-0.025,0.075,0.236,0.543,0.356,0.316,0.201,0.081
0.05,0.123,0.072,-0.086,-0.012,0.097,0.251,0.555,0.367,0.332,0.219,0.099
0.022,0.109,0.087,-0.066,-0.033,0.098,0.227,0.523,0.353,0.329,0.216,0.095
0.032,0.113,0.081,-0.073,-0.025,0.097,0.202,0.459,0.334,0.313,0.206,0.093
0.04,0.102,0.062,-0.071,-0.011,0.082,0.155,0.352,0.261,0.249,0.161,0.083
0.003,0.065,0.062,-0.034,-0.029,0.064,0.102,0.238,0.187,0.198,0.112,0.056
-0.029,0.019,0.048,0.005,-0.039,0.033,0.057,0.129,0.114,0.139,0.064,0.021
-0.063,-0.036,0.028,0.049,-0.045,-0.004,0.013,0.047,0.057,0.076,0.018,-0.006
-0.093,-0.076,0.018,0.084,-0.055,-0.029,-0.013,-0.01,0.0,0.049,-0.002,-0.018
-0.095,-0.08,0.015,0.087,-0.055,-0.032,-0.017,-0.046,-0.03,0.036,-0.017,-0.027
-0.078,-0.069,0.009,0.074,-0.044,-0.03,-0.028,-0.055,-0.025,0.031,-0.041,-0.038
-0.097,-0.09,0.007,0.093,-0.052,-0.041,-0.031,-0.06,-0.051,0.024,-0.046,-0.055
-0.101,-0.11,-0.008,0.106,-0.046,-0.059,-0.029,-0.06,-0.056,0.017,-0.044,-0.061
-0.08,-0.102,-0.022,0.091,-0.028,-0.062,-0.031,-0.06,-0.054,0.011,-0.045,-0.059
-0.093,-0.107,-0.014,0.1,-0.039,-0.06,-0.029,-0.061,-0.056,0.009,-0.039,-0.06
-0.093,-0.104,-0.01,0.099,-0.041,-0.057,-0.03,-0.059,-0.054,0.01,-0.034,-0.06
-0.092,-0.096,-0.004,0.094,-0.044,-0.05,-0.03,-0.062,-0.056,0.009,-0.029,-0.06
-0.086,-0.084,0.002,0.085,-0.044,-0.041,-0.03,-0.065,-0.049,0.011,-0.023,-0.056
-0.073,-0.069,0.004,0.07,-0.038,-0.032,-0.03,-0.07,-0.045,0.019,-0.016,-0.051
-0.077,-0.084,-0.008,0.081,-0.034,-0.046,-0.03,-0.074,-0.04,0.028,-0.023,-0.049
-0.052,-0.072,-0.02,0.062,-0.016,-0.045,-0.031,-0.076,-0.037,0.026,-0.032,-0.044
-0.045,-0.068,-0.022,0.057,-0.011,-0.045,-0.029,-0.079,-0.03,0.025,-0.029,-0.041
-0.065,-0.084,-0.019,0.075,-0.023,-0.052,-0.032,-0.082,-0.032,0.024,-0.03,-0.039
-0.062,-0.078,-0.015,0.07,-0.023,-0.046,-0.045,-0.085,-0.045,0.021,-0.03,-0.041
-0.092,-0.107,-0.015,0.1,-0.038,-0.061,-0.043,-0.084,-0.042,0.019,-0.03,-0.046
-0.115,-0.121,-0.006,0.118,-0.054,-0.064,-0.039,-0.078,-0.036,0.021,-0.027,-0.042
-0.073,-0.092,-0.019,0.083,-0.026,-0.055,-0.036,-0.075,-0.033,0.024,-0.019,-0.034
-0.067,-0.083,-0.016,0.075,-0.025,-0.049,-0.031,-0.069,-0.027,0.025,-0.013,-0.028
-0.074,-0.076,-0.001,0.075,-0.037,-0.038,-0.029,-0.066,-0.024,0.031,-0.006,-0.02
-0.069,-0.04,0.029,0.054,-0.049,-0.005,-0.016,-0.054,-0.015,0.051,0.001,-0.016
-0.081,-0.025,0.055,0.053,-0.068,0.015,-0.008,-0.033,-0.005,0.067,0.015,-0.007
-0.05,-0.021,0.029,0.035,-0.04,0.004,0.016,-0.036,0.005,0.061,0.028,-0.002
-0.007,0.019,0.026,-0.006,-0.017,0.022,-0.002,-0.039,0.014,0.077,0.033,0.008
-0.005,0.014,0.02,-0.005,-0.013,0.017,-0.052,-0.045,0.005,0.087,0.022,0.006
-0.016,-0.018,-0.002,0.017,-0.007,-0.01,-0.058,-0.067,0.0,0.08,0.02,-0.001
-0.005,-0.037,-0.032,0.021,0.014,-0.034,-0.06,-0.077,-0.007,0.062,0.009,-0.014
-0.019,-0.057,-0.038,0.039,0.009,-0.047,-0.061,-0.074,-0.023,0.04,0.005,-0.022
-0.046,-0.077,-0.031,0.062,-0.007,-0.054,-0.059,-0.074,-0.046,0.021,-0.006,-0.031
-0.078,-0.113,-0.035,0.095,-0.021,-0.073,-0.061,-0.091,-0.073,0.014,-0.038,-0.052
-0.126,-0.15,-0.024,0.138,-0.051,-0.087,-0.049,-0.094,-0.08,0.012,-0.052,-0.063
-0.12,-0.159,-0.039,0.14,-0.04,-0.099,-0.041,-0.102,-0.1,-0.01,-0.063,-0.072
-0.104,-0.142,-0.037,0.123,-0.033,-0.089,-0.031,-0.083,-0.079,0.003,-0.032,-0.055
-0.142,-0.174,-0.032,0.158,-0.055,-0.102,0.008,-0.078,-0.116,-0.071,-0.104,-0.108
-0.194,-0.131,0.063,0.163,-0.128,-0.034,0.111,-0.022,-0.059,-0.038,-0.116,-0.129
-0.131,-0.141,-0.01,0.136,-0.061,-0.075,0.02,0.092,0.082,0.104,0.004,-0.064
0.415,0.191,-0.224,-0.302,0.319,-0.017,-0.419,0.201,0.609,0.757,0.673,0.423
0.846,0.615,-0.231,-0.73,0.538,0.192,-0.726,0.077,1.058,1.318,1.323,0.931
0.616,0.247,-0.368,-0.431,0.492,-0.06,-0.795,-0.618,0.119,0.434,0.703,0.635
0.319,0.002,-0.316,-0.16,0.317,-0.156,-0.663,-0.932,-0.56,-0.219,0.107,0.298
0.055,-0.023,-0.078,-0.016,0.066,-0.05,-0.362,-0.533,-0.304,-0.087,0.014,0.134
-0.074,-0.132,-0.058,0.103,-0.008,-0.094,-0.17,-0.231,-0.185,-0.071,-0.066,-0.01
-0.063,-0.095,-0.032,0.079,-0.015,-0.063,-0.068,-0.106,-0.082,0.005,-0.021,-0.014
-0.077,-0.103,-0.027,0.09,-0.025,-0.065,-0.029,-0.071,-0.072,0.019,-0.035,-0.037
-0.113,-0.119,-0.006,0.116,-0.054,-0.062,-0.016,-0.05,-0.059,0.035,-0.021,-0.034
-0.113,-0.122,-0.009,0.118,-0.052,-0.065,-0.001,-0.024,-0.043,0.037,-0.026,-0.048
-0.075,-0.109,-0.034,0.092,-0.021,-0.071,0.01,-0.014,-0.044,0.031,-0.023,-0.045
-0.095,-0.113,-0.018,0.104,-0.039,-0.065,0.016,0.006,-0.029,0.039,-0.017,-0.044
-0.102,-0.112,-0.011,0.107,-0.045,-0.061,0.0,0.012,-0.032,0.031,-0.023,-0.047
-0.124,-0.129,-0.005,0.127,-0.059,-0.066,0.001,0.02,-0.018,0.039,-0.011,-0.043
-0.105,-0.127,-0.022,0.116,-0.041,-0.074,0.024,0.058,-0.008,0.043,-0.006,-0.043
-0.096,-0.115,-0.019,0.105,-0.038,-0.067,0.036,0.08,0.007,0.047,0.003,-0.032
-0.107,-0.122,-0.016,0.115,-0.045,-0.069,0.052,0.097,0.027,0.068,0.019,-0.029
-0.105,-0.119,-0.014,0.112,-0.046,-0.066,0.083,0.139,0.069,0.112,0.046,-0.02
-0.095,-0.104,-0.01,0.099,-0.042,-0.056,0.097,0.191,0.087,0.124,0.056,-0.015
-0.045,-0.053,-0.009,0.049,-0.018,-0.031,0.121,0.259,0.121,0.141,0.08,-0.007
-0.068,-0.046,0.022,0.057,-0.045,-0.012,0.148,0.329,0.177,0.187,0.106,0.015
-0.059,-0.018,0.041,0.039,-0.05,0.012,0.189,0.414,0.237,0.245,0.153,0.048
-0.004,0.036,0.04,-0.016,-0.022,0.037,0.236,0.502,0.311,0.314,0.217,0.092
0.02,0.058,0.038,-0.039,-0.009,0.048,0.254,0.546,0.353,0.354,0.246,0.118
0.041,0.09,0.049,-0.066,-0.004,0.069,0.257,0.538,0.371,0.359,0.255,0.126
0.035,0.09,0.055,-0.063,-0.01,0.072,0.239,0.525,0.364,0.362,0.245,0.132
0.053,0.099,0.046,-0.076,0.003,0.073,0.214,0.473,0.33,0.356,0.235,0.134
0.04,0.085,0.044,-0.063,-0.002,0.064,0.176,0.362,0.281,0.311,0.222,0.125
0.002,0.04,0.039,-0.021,-0.019,0.039,0.118,0.242,0.201,0.247,0.183,0.095
-0.028,0.006,0.034,0.01,-0.031,0.02,0.07,0.126,0.116,0.173,0.118,0.059
-0.076,-0.049,0.027,0.062,-0.051,-0.011,0.035,0.041,0.061,0.11,0.058,0.02
-0.081,-0.068,0.014,0.074,-0.047,-0.027,0.017,-0.009,0.007,0.084,0.033,-0.019
-0.095,-0.092,0.004,0.093,-0.049,-0.044,0.008,-0.05,-0.037,0.061,0.022,-0.031
-0.121,-0.13,-0.008,0.126,-0.057,-0.069,-0.003,-0.07,-0.044,0.034,0.016,-0.029
-0.117,-0.13,-0.013,0.124,-0.052,-0.071,-0.013,-0.07,-0.046,0.028,0.009,-0.03
-0.107,-0.13,-0.023,0.119,-0.042,-0.076,-0.022,-0.07,-0.062,0.03,0.002,-0.03
-0.091,-0.13,-0.039,0.111,-0.026,-0.084,-0.021,-0.07,-0.068,0.024,-0.004,-0.03
-0.089,-0.13,-0.041,0.11,-0.024,-0.085,-0.016,-0.07,-0.068,0.022,-0.009,-0.033
-0.088,-0.128,-0.04,0.108,-0.024,-0.083,-0.014,-0.067,-0.065,0.017,-0.011,-0.035
-0.084,-0.124,-0.04,0.104,-0.021,-0.082,-0.01,-0.065,-0.062,0.014,-0.014,-0.035
-0.085,-0.125,-0.04,0.105,-0.022,-0.082,-0.005,-0.065,-0.059,0.028,-0.017,-0.035
-0.083,-0.121,-0.038,0.102,-0.022,-0.08,-0.007,-0.062,-0.056,0.04,-0.02,-0.035
-0.084,-0.119,-0.035,0.102,-0.024,-0.077,-0.015,-0.059,-0.054,0.042,-0.019,-0.034
-0.088,-0.121,-0.032,0.105,-0.028,-0.076,-0.02,-0.061,-0.051,0.045,-0.014,-0.03
-0.095,-0.125,-0.03,0.11,-0.032,-0.077,-0.025,-0.065,-0.047,0.045,-0.009,-0.025
-0.098,-0.125,-0.026,0.112,-0.035,-0.075,-0.025,-0.065,-0.043,0.045,-0.005,-0.02
-0.102,-0.127,-0.024,0.115,-0.039,-0.076,-0.026,-0.069,-0.04,0.045,0.0,-0.017
-0.104,-0.129,-0.026,0.117,-0.039,-0.077,-0.03,-0.071,-0.034,0.05,0.004,-0.01
-0.108,-0.131,-0.023,0.12,-0.043,-0.077,-0.03,-0.068,-0.039,0.05,0.009,-0.015
-0.089,-0.126,-0.037,0.108,-0.026,-0.081,-0.028,-0.061,-0.042,0.051,0.01,-0.023
-0.073,-0.115,-0.042,0.094,-0.015,-0.078,-0.017,-0.056,-0.034,0.056,0.013,-0.013
-0.072,-0.102,-0.03,0.088,-0.021,-0.066,-0.01,-0.051,-0.027,0.054,0.015,-0.002
-0.065,-0.079,-0.013,0.072,-0.026,-0.046,0.0,-0.044,-0.021,0.059,0.017,0.006
-0.05,-0.045,0.005,0.047,-0.028,-0.02,0.008,-0.041,-0.013,0.075,0.041,0.022
-0.016,-0.014,0.002,0.015,-0.009,-0.006,0.024,-0.034,-0.005,0.084,0.052,0.03
-0.036,-0.044,-0.008,0.04,-0.014,-0.026,0.022,-0.036,0.006,0.085,0.048,0.035
-0.056,-0.07,-0.014,0.063,-0.02,-0.042,-0.022,-0.026,0.021,0.101,0.065,0.045
-0.039,-0.062,-0.023,0.051,-0.008,-0.042,-0.033,-0.043,-0.012,0.09,0.071,0.046
-0.025,-0.067,-0.042,0.046,0.009,-0.054,-0.073,-0.05,-0.018,0.088,0.069,0.03
-0.009,-0.061,-0.052,0.035,0.022,-0.056,-0.129,-0.006,-0.036,0.071,0.071,0.026
