1.145,0.431,-0.714,-0.787,0.929,-0.142,-0.772,-1.645,-0.278,0.263,0.357,0.629
0.842,0.188,-0.654,-0.514,0.748,-0.233,-0.571,-1.668,-0.662,-0.217,-0.015,0.379
-0.104,-0.398,-0.294,0.251,0.095,-0.346,0.031,-1.284,-1.203,-0.985,-0.608,-0.138
-0.311,-0.475,-0.164,0.393,-0.073,-0.319,0.224,-0.651,-0.835,-0.793,-0.564,-0.275
-0.155,-0.416,-0.261,0.286,0.054,-0.338,0.188,-0.205,-0.46,-0.513,-0.426,-0.245
-0.168,-0.423,-0.255,0.295,0.044,-0.339,0.186,-0.034,-0.386,-0.486,-0.405,-0.257
-0.128,-0.406,-0.279,0.267,0.076,-0.342,0.136,-0.009,-0.352,-0.45,-0.383,-0.233
-0.142,-0.408,-0.266,0.275,0.063,-0.337,0.134,0.02,-0.371,-0.462,-0.409,-0.246
-0.074,-0.4,-0.325,0.237,0.125,-0.362,0.134,0.02,-0.332,-0.429,-0.382,-0.265
-0.033,-0.343,-0.31,0.188,0.139,-0.326,0.139,0.061,-0.293,-0.38,-0.336,-0.221
-0.019,-0.21,-0.191,0.115,0.087,-0.201,0.152,0.117,-0.235,-0.31,-0.265,-0.162
-0.066,-0.15,-0.083,0.108,0.009,-0.116,0.249,0.168,-0.172,-0.259,-0.204,-0.116
-0.103,-0.096,0.007,0.1,-0.055,-0.044,0.278,0.196,-0.134,-0.232,-0.176,-0.085
-0.058,-0.021,0.037,0.039,-0.047,0.008,0.187,0.146,-0.115,-0.194,-0.145,-0.06
-0.094,-0.009,0.085,0.051,-0.089,0.038,0.15,0.154,-0.103,-0.166,-0.116,-0.027
-0.012,-0.011,0.001,0.012,-0.007,-0.005,0.103,0.165,-0.093,-0.165,-0.115,-0.025
0.022,-0.028,-0.05,0.003,0.037,-0.039,0.08,0.142,-0.084,-0.161,-0.116,-0.026
-0.032,-0.039,-0.007,0.035,-0.012,-0.023,0.075,0.131,-0.083,-0.159,-0.115,0.005
0.038,-0.032,-0.07,-0.003,0.054,-0.051,0.064,0.137,-0.098,-0.155,-0.115,0.023
0.028,-0.032,-0.06,0.002,0.044,-0.046,0.065,0.164,-0.099,-0.157,-0.117,0.015
0.011,-0.027,-0.037,0.008,0.024,-0.032,0.06,0.15,-0.089,-0.16,-0.12,0.017
0.048,-0.025,-0.073,-0.011,0.061,-0.049,0.057,0.136,-0.09,-0.16,-0.12,0.028
0.062,-0.027,-0.089,-0.017,0.076,-0.058,0.055,0.133,-0.079,-0.165,-0.12,0.022
0.074,-0.041,-0.115,-0.016,0.095,-0.078,0.057,0.124,-0.086,-0.164,-0.117,0.014
0.021,-0.069,-0.09,0.024,0.055,-0.079,0.075,0.117,-0.118,-0.173,-0.148,-0.003
-0.019,-0.111,-0.092,0.066,0.037,-0.101,0.104,0.114,-0.127,-0.188,-0.185,-0.039
-0.002,-0.168,-0.166,0.085,0.082,-0.167,0.098,0.091,-0.18,-0.237,-0.228,-0.069
-0.052,-0.226,-0.174,0.139,0.062,-0.2,0.101,0.042,-0.238,-0.299,-0.287,-0.118
-0.085,-0.304,-0.219,0.195,0.067,-0.261,0.123,0.021,-0.272,-0.337,-0.334,-0.156
-0.094,-0.325,-0.231,0.21,0.069,-0.278,0.129,0.011,-0.294,-0.36,-0.349,-0.166
-0.055,-0.327,-0.272,0.191,0.109,-0.299,0.117,0.015,-0.292,-0.356,-0.348,-0.181
-0.055,-0.259,-0.205,0.157,0.075,-0.232,0.139,0.049,-0.226,-0.298,-0.291,-0.118
0.006,-0.15,-0.156,0.072,0.081,-0.152,0.161,0.112,-0.168,-0.252,-0.251,-0.092
0.212,-0.175,-0.386,-0.018,0.299,-0.28,0.215,0.162,-0.203,-0.255,-0.27,-0.109
0.064,-0.1,-0.165,0.018,0.115,-0.132,0.281,0.187,-0.139,-0.188,-0.195,-0.033
-0.083,-0.012,0.071,0.047,-0.076,0.029,0.205,0.181,-0.089,-0.139,-0.15,-0.009
-0.022,-0.027,-0.004,0.024,-0.009,-0.016,0.154,0.173,-0.099,-0.149,-0.16,-0.01
0.008,-0.016,-0.024,0.004,0.016,-0.019,0.138,0.138,-0.092,-0.145,-0.145,0.007
0.048,-0.022,-0.07,-0.013,0.059,-0.046,0.108,0.11,-0.1,-0.152,-0.145,-0.007
0.011,-0.035,-0.046,0.012,0.029,-0.04,0.119,0.12,-0.098,-0.154,-0.137,-0.014
0.027,-0.042,-0.069,0.008,0.049,-0.055,0.094,0.075,-0.103,-0.154,-0.133,-0.012
-0.001,-0.064,-0.064,0.033,0.032,-0.064,0.113,0.144,-0.072,-0.168,-0.159,-0.028
0.014,-0.083,-0.097,0.035,0.056,-0.09,0.138,0.265,-0.03,-0.133,-0.182,-0.058
0.086,-0.011,-0.097,-0.037,0.091,-0.054,0.104,0.337,0.159,0.092,-0.01,0.075
0.452,0.295,-0.157,-0.373,0.304,0.069,-0.243,-0.37,0.227,0.471,0.399,0.479
1.062,0.463,-0.599,-0.762,0.83,-0.068,-0.733,-1.557,-0.226,0.32,0.369,0.63
0.526,-0.018,-0.544,-0.254,0.535,-0.28,-0.404,-1.65,-0.96,-0.564,-0.312,0.172
-0.258,-0.443,-0.184,0.351,-0.037,-0.313,0.14,-1.068,-1.142,-0.954,-0.661,-0.231
-0.214,-0.411,-0.197,0.313,-0.008,-0.304,0.153,-0.483,-0.655,-0.617,-0.507,-0.261
-0.212,-0.391,-0.179,0.301,-0.016,-0.284,0.155,-0.102,-0.382,-0.428,-0.434,-0.251
-0.169,-0.396,-0.226,0.283,0.029,-0.311,0.145,-0.034,-0.355,-0.403,-0.427,-0.251
-0.167,-0.383,-0.217,0.275,0.025,-0.3,0.115,0.005,-0.333,-0.397,-0.404,-0.236
-0.177,-0.391,-0.214,0.284,0.019,-0.302,0.103,-0.003,-0.338,-0.41,-0.419,-0.257
-0.068,-0.359,-0.291,0.213,0.112,-0.325,0.096,0.012,-0.308,-0.377,-0.393,-0.246
-0.051,-0.259,-0.208,0.155,0.079,-0.233,0.13,0.062,-0.262,-0.309,-0.321,-0.176
-0.06,-0.166,-0.107,0.114,0.024,-0.136,0.177,0.115,-0.197,-0.236,-0.255,-0.124
-0.09,-0.102,-0.012,0.096,-0.039,-0.056,0.26,0.175,-0.142,-0.184,-0.214,-0.086
-0.115,-0.033,0.082,0.074,-0.098,0.024,0.214,0.154,-0.102,-0.138,-0.174,-0.044
-0.087,0.001,0.088,0.043,-0.088,0.044,0.134,0.128,-0.084,-0.119,-0.131,-0.021
-0.082,0.002,0.084,0.039,-0.083,0.043,0.095,0.132,-0.074,-0.121,-0.124,-0.014
-0.122,-0.006,0.115,0.064,-0.118,0.054,0.048,0.119,-0.055,-0.119,-0.117,0.0
-0.086,-0.013,0.074,0.049,-0.08,0.03,0.038,0.12,-0.084,-0.122,-0.112,0.0
-0.105,-0.021,0.084,0.063,-0.094,0.031,0.03,0.12,-0.099,-0.116,-0.101,-0.003
-0.072,-0.028,0.044,0.05,-0.058,0.008,0.04,0.12,-0.104,-0.133,-0.109,-0.01
-0.025,-0.034,-0.009,0.029,-0.007,-0.022,0.046,0.12,-0.123,-0.144,-0.144,-0.004
-0.068,-0.035,0.033,0.052,-0.05,-0.001,0.048,0.128,-0.092,-0.115,-0.137,0.035
-0.011,-0.035,-0.023,0.023,0.007,-0.029,0.066,0.138,-0.087,-0.113,-0.126,0.039
-0.001,-0.035,-0.034,0.019,0.017,-0.034,0.054,0.131,-0.093,-0.118,-0.12,0.026
0.0,-0.036,-0.036,0.018,0.018,-0.036,0.056,0.128,-0.088,-0.112,-0.112,0.013
0.046,-0.061,-0.106,0.008,0.076,-0.083,0.07,0.127,-0.114,-0.149,-0.151,-0.03
-0.055,-0.099,-0.044,0.077,-0.005,-0.071,0.084,0.107,-0.127,-0.159,-0.178,-0.049
-0.147,-0.157,-0.01,0.152,-0.068,-0.083,0.125,0.065,-0.173,-0.194,-0.211,-0.077
-0.054,-0.233,-0.179,0.144,0.063,-0.206,0.092,0.009,-0.265,-0.308,-0.293,-0.158
-0.054,-0.283,-0.229,0.169,0.088,-0.256,0.079,-0.014,-0.266,-0.327,-0.324,-0.178
-0.112,-0.3,-0.188,0.206,0.039,-0.244,0.092,-0.012,-0.249,-0.317,-0.315,-0.159
-0.107,-0.262,-0.155,0.185,0.024,-0.209,0.106,0.02,-0.229,-0.292,-0.292,-0.15
-0.054,-0.173,-0.119,0.113,0.033,-0.146,0.166,0.085,-0.168,-0.218,-0.244,-0.12
-0.045,-0.094,-0.05,0.07,0.003,-0.072,0.209,0.118,-0.132,-0.182,-0.204,-0.082
-0.11,-0.046,0.065,0.078,-0.087,0.01,0.263,0.141,-0.087,-0.142,-0.167,-0.048
-0.09,0.003,0.093,0.043,-0.091,0.048,0.226,0.142,-0.061,-0.115,-0.127,-0.013
-0.074,0.055,0.129,0.01,-0.102,0.091,0.153,0.128,-0.051,-0.088,-0.106,0.027
-0.022,0.054,0.076,-0.016,-0.049,0.065,0.134,0.123,-0.061,-0.083,-0.107,0.008
-0.066,0.042,0.107,0.012,-0.087,0.074,0.129,0.122,-0.043,-0.069,-0.094,0.025
-0.074,0.024,0.098,0.025,-0.086,0.061,0.106,0.151,-0.025,-0.067,-0.101,0.036
0.042,-0.005,-0.048,-0.018,0.045,-0.026,0.041,0.084,-0.089,-0.12,-0.121,-0.022
-0.003,-0.012,-0.009,0.008,0.003,-0.01,0.07,0.086,-0.082,-0.121,-0.12,-0.023
-0.042,-0.047,-0.005,0.045,-0.018,-0.025,0.126,0.201,-0.062,-0.122,-0.133,-0.037
0.041,-0.033,-0.074,-0.004,0.058,-0.054,0.112,0.322,0.058,-0.026,-0.093,-0.023
0.146,0.144,-0.002,-0.145,0.074,0.071,0.009,0.18,0.277,0.305,0.215,0.252
0.716,0.463,-0.253,-0.589,0.484,0.105,-0.503,-0.903,0.136,0.544,0.529,0.652
0.963,0.372,-0.591,-0.668,0.777,-0.109,-0.724,-1.751,-0.493,0.024,0.168,0.516
0.074,-0.211,-0.285,0.069,0.18,-0.248,-0.137,-1.441,-1.08,-0.803,-0.483,-0.041
-0.376,-0.442,-0.065,0.409,-0.155,-0.253,0.198,-0.823,-0.899,-0.8,-0.563,-0.255
-0.256,-0.375,-0.119,0.316,-0.069,-0.247,0.145,-0.293,-0.45,-0.461,-0.397,-0.218
-0.268,-0.382,-0.114,0.325,-0.076,-0.248,0.122,-0.052,-0.329,-0.381,-0.358,-0.218
-0.258,-0.369,-0.111,0.314,-0.073,-0.239,0.106,0.012,-0.272,-0.332,-0.322,-0.21
-0.226,-0.38,-0.155,0.303,-0.035,-0.267,0.113,0.016,-0.291,-0.363,-0.349,-0.232
-0.141,-0.373,-0.232,0.257,0.046,-0.302,0.102,-0.001,-0.289,-0.359,-0.345,-0.232
-0.129,-0.278,-0.149,0.204,0.01,-0.214,0.108,0.053,-0.213,-0.282,-0.27,-0.175
-0.085,-0.16,-0.075,0.122,-0.004,-0.117,0.128,0.089,-0.145,-0.24,-0.229,-0.138
-0.115,-0.099,0.017,0.107,-0.066,-0.041,0.216,0.159,-0.087,-0.179,-0.171,-0.102
-0.173,-0.052,0.121,0.112,-0.147,0.035,0.234,0.196,-0.066,-0.13,-0.121,-0.058
-0.128,0.019,0.146,0.054,-0.137,0.082,0.144,0.17,-0.052,-0.114,-0.1,-0.034
-0.148,0.03,0.178,0.059,-0.164,0.104,0.103,0.165,-0.05,-0.103,-0.065,-0.019
-0.103,0.016,0.119,0.044,-0.112,0.068,0.041,0.127,-0.047,-0.097,-0.06,-0.008
-0.058,0.015,0.073,0.021,-0.066,0.044,0.018,0.113,-0.044,-0.087,-0.064,0.002
-0.085,0.004,0.089,0.04,-0.087,0.046,0.013,0.124,-0.04,-0.081,-0.059,0.008
-0.113,0.001,0.114,0.056,-0.114,0.058,0.023,0.126,-0.04,-0.085,-0.06,0.017
-0.137,0.005,0.142,0.066,-0.14,0.073,0.05,0.15,-0.044,-0.084,-0.054,0.025
-0.111,0.012,0.122,0.049,-0.117,0.066,0.043,0.147,-0.041,-0.087,-0.055,0.017
-0.109,0.018,0.127,0.046,-0.118,0.072,0.046,0.142,-0.036,-0.089,-0.05,0.036
-0.06,0.017,0.077,0.021,-0.069,0.047,0.039,0.138,-0.03,-0.091,-0.046,0.05
-0.053,-0.003,0.051,0.028,-0.052,0.024,0.041,0.133,-0.055,-0.09,-0.063,0.054
-0.063,-0.029,0.034,0.046,-0.048,0.003,0.036,0.128,-0.083,-0.101,-0.088,0.026
-0.058,-0.045,0.013,0.052,-0.035,-0.016,0.047,0.125,-0.067,-0.108,-0.092,-0.017
-0.114,-0.104,0.01,0.109,-0.061,-0.047,0.079,0.1,-0.101,-0.14,-0.122,-0.041
-0.116,-0.196,-0.08,0.156,-0.018,-0.138,0.08,0.046,-0.188,-0.226,-0.186,-0.116
-0.132,-0.253,-0.121,0.193,-0.005,-0.187,0.079,0.03,-0.229,-0.27,-0.231,-0.154
-0.126,-0.28,-0.154,0.203,0.014,-0.217,0.078,0.018,-0.241,-0.295,-0.26,-0.158
-0.135,-0.287,-0.152,0.212,0.009,-0.22,0.072,0.034,-0.207,-0.279,-0.235,-0.146
-0.13,-0.214,-0.083,0.172,-0.023,-0.148,0.079,0.076,-0.156,-0.214,-0.186,-0.099
-0.096,-0.106,-0.01,0.101,-0.043,-0.057,0.124,0.106,-0.118,-0.171,-0.146,-0.055
-0.1,-0.053,0.047,0.076,-0.073,-0.003,0.196,0.144,-0.062,-0.12,-0.105,-0.018
-0.155,-0.002,0.152,0.078,-0.154,0.075,0.214,0.166,-0.027,-0.073,-0.062,0.0
-0.123,0.068,0.192,0.027,-0.158,0.13,0.149,0.146,-0.019,-0.054,-0.024,0.013
-0.036,0.085,0.121,-0.025,-0.079,0.103,0.1,0.141,0.001,-0.053,-0.02,0.026
-0.073,0.063,0.136,0.005,-0.104,0.099,0.065,0.131,0.003,-0.057,-0.018,0.033
-0.04,0.04,0.08,0.0,-0.06,0.06,0.036,0.11,-0.008,-0.062,-0.03,0.026
-0.051,0.019,0.07,0.016,-0.061,0.045,0.036,0.113,-0.017,-0.062,-0.031,0.016
-0.052,0.021,0.072,0.015,-0.062,0.046,0.007,0.068,-0.047,-0.081,-0.056,0.008
-0.056,-0.009,0.048,0.032,-0.052,0.019,0.041,0.125,-0.033,-0.087,-0.097,0.013
-0.08,-0.017,0.062,0.048,-0.071,0.022,0.07,0.246,0.04,-0.035,-0.052,0.001
0.038,0.062,0.024,-0.05,0.007,0.042,0.051,0.329,0.233,0.166,0.104,0.095
0.41,0.331,-0.079,-0.371,0.244,0.126,-0.27,-0.311,0.296,0.508,0.463,0.485
1.001,0.505,-0.495,-0.753,0.748,0.005,-0.792,-1.521,-0.16,0.355,0.452,0.641
0.533,0.067,-0.466,-0.3,0.499,-0.199,-0.493,-1.708,-0.882,-0.481,-0.198,0.191
-0.383,-0.375,0.008,0.379,-0.195,-0.183,0.108,-1.101,-1.024,-0.845,-0.528,-0.19
-0.338,-0.382,-0.044,0.36,-0.147,-0.212,0.132,-0.532,-0.567,-0.534,-0.402,-0.228
-0.249,-0.355,-0.106,0.302,-0.071,-0.23,0.095,-0.155,-0.321,-0.386,-0.339,-0.221
-0.261,-0.353,-0.091,0.307,-0.085,-0.222,0.099,-0.053,-0.292,-0.354,-0.322,-0.221
-0.209,-0.339,-0.13,0.275,-0.039,-0.234,0.075,-0.04,-0.281,-0.327,-0.306,-0.214
-0.248,-0.336,-0.088,0.293,-0.08,-0.212,0.083,-0.041,-0.27,-0.312,-0.291,-0.213
-0.168,-0.32,-0.152,0.244,-0.008,-0.236,0.078,-0.004,-0.234,-0.269,-0.257,-0.205
-0.124,-0.225,-0.1,0.175,-0.012,-0.162,0.083,0.04,-0.172,-0.236,-0.208,-0.151
-0.121,-0.109,0.012,0.115,-0.066,-0.048,0.105,0.086,-0.094,-0.152,-0.139,-0.097
-0.154,-0.058,0.096,0.106,-0.124,0.019,0.2,0.138,-0.052,-0.103,-0.091,-0.072
-0.187,-0.01,0.177,0.098,-0.182,0.083,0.196,0.118,-0.007,-0.091,-0.071,-0.038
-0.161,0.029,0.19,0.066,-0.176,0.109,0.107,0.095,-0.005,-0.062,-0.043,-0.004
-0.14,0.039,0.179,0.05,-0.16,0.109,0.071,0.089,0.017,-0.048,-0.028,0.024
-0.111,0.033,0.144,0.038,-0.128,0.089,0.019,0.08,0.033,-0.052,-0.025,0.01
-0.108,0.024,0.132,0.041,-0.12,0.078,-0.016,0.068,0.03,-0.048,-0.015,0.033
-0.114,0.021,0.135,0.047,-0.125,0.078,-0.025,0.069,0.016,-0.061,-0.024,0.046
-0.119,0.01,0.129,0.054,-0.124,0.07,-0.026,0.1,-0.021,-0.068,-0.027,0.009
-0.107,0.014,0.121,0.046,-0.114,0.067,-0.023,0.101,-0.015,-0.052,-0.016,0.013
-0.077,0.032,0.109,0.022,-0.093,0.07,-0.02,0.1,-0.01,-0.064,-0.008,0.017
-0.093,0.029,0.123,0.031,-0.108,0.076,-0.02,0.1,0.013,-0.064,-0.01,0.037
-0.054,0.013,0.066,0.02,-0.06,0.039,-0.017,0.091,0.024,-0.062,-0.029,0.032
-0.048,-0.011,0.036,0.029,-0.042,0.012,0.001,0.09,0.014,-0.055,-0.038,0.008
-0.085,-0.028,0.057,0.056,-0.071,0.014,0.013,0.083,-0.005,-0.057,-0.052,0.003
-0.123,-0.05,0.073,0.086,-0.098,0.011,0.021,0.081,-0.029,-0.092,-0.073,-0.021
-0.135,-0.1,0.034,0.117,-0.084,-0.033,0.047,0.062,-0.08,-0.139,-0.119,-0.069
-0.102,-0.174,-0.072,0.138,-0.015,-0.123,0.081,0.031,-0.133,-0.194,-0.172,-0.113
-0.199,-0.239,-0.04,0.219,-0.079,-0.139,0.078,0.026,-0.131,-0.216,-0.191,-0.131
-0.147,-0.269,-0.121,0.208,-0.013,-0.195,0.042,-0.008,-0.208,-0.254,-0.231,-0.173
-0.073,-0.255,-0.182,0.164,0.055,-0.218,0.038,-0.024,-0.211,-0.259,-0.218,-0.168
-0.109,-0.177,-0.068,0.143,-0.021,-0.122,0.091,0.033,-0.096,-0.173,-0.152,-0.112
-0.058,-0.088,-0.03,0.073,-0.014,-0.059,0.098,0.086,-0.056,-0.126,-0.111,-0.07
-0.083,-0.03,0.053,0.057,-0.067,0.011,0.162,0.153,-0.026,-0.093,-0.073,-0.022
-0.145,0.012,0.157,0.066,-0.151,0.084,0.242,0.166,0.06,-0.041,-0.039,0.011
-0.109,0.059,0.168,0.025,-0.139,0.113,0.148,0.134,0.089,-0.019,-0.009,0.042
-0.044,0.096,0.14,-0.026,-0.092,0.118,0.098,0.121,0.068,0.024,0.019,0.052
-0.056,0.089,0.145,-0.017,-0.101,0.117,0.087,0.114,0.097,0.027,0.042,0.046
-0.072,0.061,0.133,0.006,-0.103,0.097,0.036,0.102,0.076,-0.029,0.036,0.042
-0.053,0.044,0.097,0.004,-0.075,0.07,0.014,0.095,0.05,-0.044,0.007,0.036
-0.023,0.048,0.071,-0.013,-0.047,0.059,-0.008,0.075,0.044,-0.044,-0.018,0.035
-0.026,0.03,0.056,-0.002,-0.041,0.043,0.003,0.081,0.022,-0.035,-0.038,0.024
-0.026,0.011,0.037,0.008,-0.032,0.024,0.04,0.163,0.063,-0.008,-0.028,0.011
0.057,0.006,-0.052,-0.032,0.054,-0.023,0.029,0.259,0.167,0.059,0.0,0.008
0.246,0.166,-0.08,-0.206,0.163,0.043,-0.099,0.161,0.328,0.357,0.285,0.266
0.809,0.495,-0.313,-0.652,0.561,0.091,-0.578,-0.833,0.146,0.53,0.563,0.655
0.941,0.459,-0.482,-0.7,0.711,-0.012,-0.785,-1.696,-0.394,0.087,0.258,0.567
0.078,0.076,-0.002,-0.077,0.04,0.037,-0.167,-1.311,-0.738,-0.473,-0.203,0.135
-0.39,-0.231,0.159,0.31,-0.274,-0.036,0.184,-0.755,-0.661,-0.567,-0.361,-0.142
-0.29,-0.339,-0.048,0.314,-0.12,-0.193,0.111,-0.364,-0.366,-0.392,-0.328,-0.216
-0.246,-0.317,-0.071,0.282,-0.087,-0.193,0.104,-0.091,-0.225,-0.305,-0.284,-0.235
-0.156,-0.317,-0.161,0.236,0.003,-0.239,0.049,-0.037,-0.201,-0.297,-0.286,-0.237
-0.141,-0.299,-0.159,0.22,0.009,-0.229,0.044,-0.008,-0.193,-0.276,-0.274,-0.233
-0.098,-0.282,-0.184,0.19,0.043,-0.233,0.017,-0.008,-0.185,-0.258,-0.258,-0.227
-0.072,-0.257,-0.185,0.165,0.057,-0.22,0.01,0.032,-0.112,-0.239,-0.244,-0.184
-0.096,-0.15,-0.055,0.123,-0.02,-0.102,0.069,0.078,-0.016,-0.139,-0.159,-0.117
-0.094,-0.051,0.042,0.073,-0.068,-0.005,0.108,0.127,0.051,-0.079,-0.069,-0.065
-0.14,0.012,0.152,0.064,-0.146,0.082,0.185,0.184,0.084,-0.064,-0.041,-0.035
-0.116,0.052,0.168,0.032,-0.142,0.11,0.158,0.156,0.089,-0.016,-0.031,-0.012
-0.084,0.114,0.199,-0.015,-0.142,0.156,0.063,0.148,0.124,0.038,0.001,0.002
-0.057,0.147,0.204,-0.045,-0.131,0.175,0.045,0.158,0.154,0.062,0.036,0.016
-0.026,0.131,0.157,-0.053,-0.092,0.144,-0.004,0.149,0.138,0.037,0.031,0.038
-0.024,0.118,0.143,-0.047,-0.084,0.13,-0.045,0.147,0.132,0.04,0.024,0.054
-0.009,0.081,0.09,-0.036,-0.05,0.085,-0.042,0.147,0.128,0.019,0.008,0.055
-0.077,0.067,0.144,0.005,-0.111,0.105,-0.033,0.169,0.111,0.053,0.037,0.055
-0.096,0.073,0.169,0.011,-0.133,0.121,-0.01,0.167,0.094,0.091,0.063,0.054
-0.067,0.078,0.145,-0.005,-0.106,0.111,0.0,0.18,0.124,0.069,0.046,0.06
-0.095,0.065,0.16,0.015,-0.128,0.112,-0.03,0.193,0.146,0.082,0.056,0.06
-0.028,0.074,0.103,-0.023,-0.066,0.088,-0.036,0.182,0.13,0.059,0.034,0.036
0.013,0.084,0.072,-0.049,-0.03,0.078,0.009,0.183,0.121,0.049,0.016,0.025
0.002,0.042,0.04,-0.022,-0.019,0.041,0.026,0.161,0.101,0.039,0.005,0.013
-0.012,0.011,0.022,0.001,-0.017,0.016,0.015,0.114,0.065,-0.011,-0.034,-0.003
-0.046,-0.028,0.017,0.037,-0.031,-0.005,0.029,0.088,0.032,-0.044,-0.067,-0.022
0.004,-0.1,-0.104,0.048,0.054,-0.102,0.032,0.065,-0.024,-0.096,-0.116,-0.085
-0.02,-0.163,-0.143,0.092,0.062,-0.153,0.028,0.043,-0.069,-0.144,-0.153,-0.126
-0.076,-0.198,-0.121,0.137,0.023,-0.159,0.03,0.049,-0.052,-0.16,-0.176,-0.137
-0.072,-0.206,-0.135,0.14,0.032,-0.17,0.021,0.051,-0.043,-0.143,-0.177,-0.139
-0.049,-0.152,-0.102,0.101,0.027,-0.127,0.029,0.07,-0.001,-0.112,-0.132,-0.095
0.039,-0.038,-0.077,0.0,0.059,-0.058,0.028,0.099,0.058,-0.06,-0.063,-0.037
0.01,0.055,0.045,-0.033,-0.017,0.049,0.09,0.168,0.116,0.017,0.001,0.026
-0.051,0.105,0.156,-0.027,-0.104,0.13,0.174,0.212,0.188,0.052,0.028,0.06
-0.014,0.143,0.157,-0.065,-0.086,0.15,0.111,0.174,0.202,0.117,0.073,0.072
0.016,0.184,0.168,-0.101,-0.076,0.176,0.039,0.143,0.2,0.118,0.105,0.094
0.079,0.185,0.107,-0.132,-0.014,0.146,0.013,0.132,0.206,0.076,0.097,0.088
0.078,0.169,0.091,-0.124,-0.006,0.13,-0.021,0.135,0.188,0.121,0.103,0.08
0.067,0.159,0.093,-0.113,-0.013,0.126,-0.056,0.115,0.172,0.122,0.093,0.074
0.101,0.144,0.043,-0.123,0.029,0.094,-0.082,0.115,0.161,0.091,0.069,0.064
0.06,0.106,0.045,-0.083,0.007,0.075,-0.077,0.079,0.135,0.077,0.047,0.066
0.025,0.063,0.038,-0.044,-0.007,0.05,-0.034,0.112,0.147,0.07,0.028,0.058
0.08,0.056,-0.024,-0.068,0.052,0.016,-0.017,0.195,0.158,0.046,0.007,0.023
0.161,0.062,-0.099,-0.111,0.13,-0.019,-0.051,0.288,0.309,0.189,0.104,0.092
0.414,0.316,-0.097,-0.365,0.255,0.109,-0.283,-0.094,0.431,0.566,0.52,0.502
0.96,0.635,-0.326,-0.797,0.643,0.154,-0.788,-1.261,0.107,0.657,0.734,0.844
0.75,0.434,-0.316,-0.592,0.533,0.059,-0.68,-1.61,-0.422,0.068,0.241,0.563
-0.161,-0.034,0.127,0.097,-0.144,0.046,-0.011,-0.985,-0.688,-0.534,-0.266,0.057
-0.284,-0.266,0.018,0.275,-0.15,-0.124,0.079,-0.568,-0.499,-0.493,-0.328,-0.173
-0.118,-0.288,-0.171,0.203,0.027,-0.229,-0.01,-0.238,-0.218,-0.294,-0.281,-0.205
-0.123,-0.277,-0.153,0.2,0.015,-0.215,0.046,-0.025,-0.115,-0.239,-0.26,-0.208
-0.099,-0.275,-0.176,0.187,0.039,-0.226,0.004,0.01,-0.069,-0.182,-0.233,-0.183
-0.154,-0.289,-0.135,0.222,-0.009,-0.212,-0.017,0.042,-0.058,-0.187,-0.237,-0.173
-0.037,-0.237,-0.2,0.137,0.082,-0.218,-0.042,0.046,-0.05,-0.19,-0.227,-0.168
0.02,-0.116,-0.135,0.049,0.078,-0.125,-0.001,0.068,0.036,-0.1,-0.14,-0.091
-0.001,-0.033,-0.032,0.017,0.016,-0.032,0.038,0.125,0.103,-0.031,-0.075,-0.04
-0.025,0.043,0.068,-0.009,-0.047,0.055,0.118,0.182,0.152,0.017,-0.049,-0.029
-0.097,0.098,0.194,0.0,-0.146,0.145,0.132,0.167,0.21,0.045,-0.017,-0.004
-0.036,0.142,0.178,-0.053,-0.107,0.16,0.034,0.153,0.205,0.06,0.019,0.034
0.002,0.163,0.161,-0.083,-0.08,0.162,-0.007,0.169,0.222,0.083,0.036,0.059
-0.027,0.148,0.174,-0.061,-0.101,0.161,-0.055,0.163,0.23,0.086,0.037,0.051
-0.019,0.146,0.164,-0.064,-0.092,0.155,-0.067,0.166,0.219,0.095,0.05,0.064
-0.024,0.137,0.161,-0.057,-0.093,0.149,-0.056,0.159,0.216,0.1,0.057,0.06
-0.02,0.131,0.151,-0.056,-0.086,0.141,-0.056,0.155,0.206,0.099,0.079,0.063
-0.014,0.13,0.144,-0.058,-0.079,0.137,-0.049,0.15,0.202,0.095,0.087,0.074
0.007,0.13,0.123,-0.069,-0.058,0.126,-0.045,0.147,0.202,0.094,0.085,0.072
0.027,0.124,0.098,-0.076,-0.036,0.111,-0.056,0.142,0.208,0.084,0.092,0.094
0.031,0.126,0.095,-0.079,-0.032,0.111,-0.066,0.137,0.209,0.1,0.091,0.091
0.067,0.121,0.054,-0.094,0.006,0.087,-0.057,0.144,0.217,0.135,0.094,0.084
0.057,0.104,0.048,-0.081,0.004,0.076,-0.055,0.129,0.205,0.106,0.072,0.078
0.044,0.059,0.016,-0.052,0.014,0.037,-0.05,0.088,0.16,0.07,0.036,0.049
0.052,0.012,-0.039,-0.031,0.045,-0.014,-0.044,0.055,0.108,0.032,-0.008,0.015
-0.007,-0.034,-0.027,0.021,0.011,-0.031,-0.048,0.035,0.063,-0.025,-0.058,-0.023
-0.02,-0.105,-0.086,0.063,0.033,-0.095,-0.059,0.017,0.046,-0.042,-0.077,-0.038
-0.015,-0.141,-0.126,0.078,0.055,-0.133,-0.046,0.014,0.038,-0.074,-0.113,-0.062
-0.012,-0.171,-0.16,0.092,0.074,-0.165,-0.041,-0.012,0.001,-0.09,-0.133,-0.096
0.029,-0.134,-0.163,0.053,0.096,-0.148,-0.033,-0.011,0.009,-0.058,-0.1,-0.069
0.029,-0.026,-0.055,-0.002,0.042,-0.041,-0.012,0.043,0.09,0.007,-0.049,-0.006
0.061,0.073,0.013,-0.067,0.024,0.043,0.034,0.113,0.158,0.075,0.015,0.04
-0.014,0.139,0.153,-0.063,-0.084,0.146,0.13,0.164,0.224,0.134,0.078,0.081
-0.06,0.163,0.223,-0.051,-0.142,0.192,0.09,0.138,0.272,0.172,0.102,0.102
0.02,0.212,0.192,-0.116,-0.086,0.202,0.004,0.099,0.261,0.17,0.098,0.097
0.03,0.215,0.185,-0.122,-0.078,0.2,-0.007,0.097,0.267,0.185,0.115,0.092
0.028,0.172,0.144,-0.1,-0.058,0.158,-0.043,0.084,0.264,0.175,0.116,0.091
0.037,0.162,0.125,-0.1,-0.044,0.143,-0.063,0.081,0.261,0.177,0.101,0.083
0.072,0.154,0.082,-0.114,-0.005,0.118,-0.069,0.095,0.256,0.175,0.097,0.089
0.037,0.13,0.092,-0.084,-0.028,0.111,-0.073,0.067,0.235,0.156,0.085,0.089
0.023,0.083,0.06,-0.053,-0.018,0.071,-0.039,0.128,0.245,0.132,0.052,0.052
0.093,0.047,-0.047,-0.07,0.07,0.0,-0.019,0.235,0.265,0.112,0.02,0.018
0.115,0.101,-0.013,-0.108,0.064,0.044,-0.024,0.312,0.47,0.331,0.191,0.124
0.428,0.442,0.014,-0.435,0.207,0.227,-0.367,-0.335,0.563,0.801,0.694,0.6
0.955,0.724,-0.231,-0.84,0.593,0.246,-0.879,-1.479,0.243,0.93,0.889,0.959
0.594,0.337,-0.258,-0.465,0.426,0.04,-0.62,-1.595,-0.435,0.089,0.243,0.543
-0.18,-0.185,-0.005,0.183,-0.087,-0.095,-0.042,-1.05,-0.831,-0.649,-0.363,-0.037
-0.252,-0.286,-0.034,0.269,-0.109,-0.16,0.053,-0.524,-0.417,-0.419,-0.31,-0.167
-0.196,-0.275,-0.079,0.236,-0.059,-0.177,0.026,-0.126,-0.096,-0.202,-0.211,-0.177
-0.137,-0.287,-0.15,0.212,0.007,-0.218,0.043,-0.014,-0.042,-0.182,-0.225,-0.2
-0.056,-0.282,-0.226,0.169,0.086,-0.254,-0.01,0.006,-0.03,-0.167,-0.203,-0.182
-0.113,-0.286,-0.172,0.2,0.03,-0.229,-0.046,0.021,-0.061,-0.182,-0.2,-0.185
-0.052,-0.228,-0.177,0.14,0.063,-0.202,-0.032,0.058,0.015,-0.122,-0.161,-0.165
-0.003,-0.099,-0.096,0.051,0.047,-0.097,-0.003,0.076,0.088,-0.052,-0.087,-0.118
-0.007,0.006,0.013,0.001,-0.011,0.01,0.062,0.128,0.15,0.022,-0.011,-0.06
-0.019,0.078,0.098,-0.03,-0.059,0.088,0.108,0.183,0.184,0.054,0.019,-0.016
-0.072,0.111,0.184,-0.02,-0.128,0.147,0.091,0.174,0.228,0.091,0.048,0.016
-0.05,0.12,0.169,-0.036,-0.11,0.144,0.019,0.172,0.25,0.111,0.088,0.05
-0.014,0.124,0.138,-0.055,-0.077,0.131,-0.054,0.156,0.238,0.102,0.088,0.055
-0.027,0.116,0.143,-0.044,-0.086,0.129,-0.062,0.147,0.233,0.099,0.08,0.046
-0.014,0.113,0.127,-0.05,-0.071,0.12,-0.06,0.163,0.223,0.093,0.077,0.045
-0.003,0.108,0.111,-0.052,-0.057,0.109,-0.06,0.16,0.218,0.085,0.069,0.037
0.0,0.105,0.105,-0.053,-0.053,0.105,-0.06,0.15,0.214,0.098,0.066,0.036
0.01,0.099,0.089,-0.055,-0.039,0.094,-0.059,0.135,0.214,0.111,0.08,0.051
0.024,0.099,0.075,-0.062,-0.026,0.087,-0.061,0.142,0.208,0.097,0.08,0.057
0.033,0.09,0.058,-0.062,-0.013,0.074,-0.079,0.151,0.213,0.112,0.067,0.052
0.042,0.094,0.052,-0.068,-0.005,0.073,-0.072,0.139,0.23,0.121,0.062,0.051
0.011,0.068,0.056,-0.039,-0.023,0.062,-0.052,0.136,0.215,0.104,0.049,0.049
-0.006,0.019,0.026,-0.007,-0.016,0.022,-0.044,0.126,0.186,0.087,0.04,0.03
0.028,0.023,-0.005,-0.026,0.017,0.009,-0.031,0.124,0.166,0.042,0.013,-0.01
-0.002,-0.043,-0.041,0.023,0.02,-0.042,-0.025,0.105,0.11,-0.018,-0.042,-0.057
-0.021,-0.129,-0.108,0.076,0.043,-0.118,-0.017,0.07,0.037,-0.068,-0.099,-0.094
-0.027,-0.172,-0.145,0.099,0.059,-0.158,-0.002,0.064,0.011,-0.097,-0.141,-0.114
-0.045,-0.208,-0.163,0.127,0.059,-0.185,-0.026,0.066,0.003,-0.109,-0.147,-0.123
0.0,-0.162,-0.161,0.081,0.081,-0.161,-0.003,0.063,0.03,-0.089,-0.128,-0.116
0.042,-0.043,-0.086,0.001,0.064,-0.064,0.034,0.099,0.118,-0.021,-0.064,-0.067
0.032,0.044,0.012,-0.038,0.01,0.028,0.089,0.16,0.169,0.03,-0.002,-0.021
-0.048,0.1,0.148,-0.026,-0.098,0.124,0.147,0.163,0.201,0.069,0.036,0.023
-0.067,0.135,0.202,-0.034,-0.135,0.168,0.086,0.138,0.23,0.076,0.062,0.046
-0.006,0.146,0.152,-0.07,-0.079,0.149,0.034,0.119,0.221,0.078,0.052,0.034
-0.044,0.142,0.186,-0.049,-0.115,0.163,0.02,0.13,0.225,0.113,0.045,0.042
-0.024,0.114,0.138,-0.045,-0.081,0.126,-0.03,0.106,0.216,0.108,0.041,0.039
0.018,0.101,0.082,-0.06,-0.032,0.092,-0.047,0.118,0.219,0.108,0.029,0.03
-0.021,0.097,0.118,-0.038,-0.07,0.108,-0.062,0.101,0.181,0.101,0.038,0.023
-0.019,0.088,0.107,-0.034,-0.063,0.097,-0.047,0.094,0.17,0.104,0.039,0.018
-0.025,0.07,0.094,-0.023,-0.06,0.082,0.036,0.201,0.214,0.09,0.038,-0.002
0.117,0.058,-0.06,-0.087,0.088,-0.002,0.012,0.306,0.301,0.125,0.045,-0.027
0.222,0.172,-0.05,-0.197,0.136,0.061,-0.084,0.246,0.535,0.467,0.315,0.204
0.626,0.555,-0.071,-0.59,0.348,0.242,-0.557,-0.791,0.52,0.92,0.831,0.732
1.001,0.586,-0.415,-0.793,0.708,0.085,-0.898,-1.71,-0.085,0.536,0.594,0.748
0.263,-0.021,-0.284,-0.121,0.274,-0.152,-0.372,-1.447,-0.864,-0.534,-0.236,0.13
-0.265,-0.334,-0.069,0.299,-0.098,-0.201,0.047,-0.871,-0.814,-0.719,-0.455,-0.207
-0.138,-0.275,-0.138,0.207,0.0,-0.206,0.059,-0.317,-0.275,-0.322,-0.286,-0.197
-0.152,-0.257,-0.106,0.205,-0.023,-0.181,0.076,-0.032,-0.114,-0.208,-0.212,-0.186
-0.122,-0.261,-0.138,0.192,0.008,-0.199,0.052,0.054,-0.072,-0.187,-0.207,-0.212
-0.084,-0.289,-0.205,0.187,0.061,-0.247,0.017,0.024,-0.074,-0.238,-0.246,-0.225
-0.106,-0.276,-0.17,0.191,0.032,-0.223,0.003,0.015,-0.07,-0.204,-0.216,-0.205
-0.066,-0.214,-0.148,0.14,0.041,-0.181,0.015,0.073,-0.004,-0.13,-0.158,-0.182
-0.008,-0.082,-0.074,0.046,0.033,-0.078,0.062,0.097,0.067,-0.07,-0.096,-0.134
-0.058,0.012,0.07,0.022,-0.064,0.041,0.134,0.182,0.143,0.016,-0.027,-0.083
-0.095,0.05,0.146,0.022,-0.121,0.098,0.125,0.164,0.196,0.054,0.008,-0.05
-0.081,0.12,0.201,-0.019,-0.141,0.16,0.061,0.147,0.219,0.075,0.05,-0.041
-0.009,0.131,0.14,-0.061,-0.075,0.135,0.015,0.179,0.205,0.085,0.081,-0.034
0.007,0.121,0.114,-0.064,-0.054,0.117,-0.021,0.161,0.203,0.083,0.081,-0.011
-0.017,0.122,0.138,-0.053,-0.077,0.13,-0.042,0.144,0.193,0.079,0.079,0.004
-0.007,0.11,0.116,-0.052,-0.062,0.113,-0.04,0.141,0.186,0.077,0.076,0.01
0.011,0.099,0.088,-0.055,-0.038,0.093,-0.04,0.139,0.179,0.073,0.075,0.01
-0.027,0.087,0.114,-0.03,-0.07,0.1,-0.042,0.139,0.179,0.084,0.075,0.013
-0.091,0.085,0.175,0.003,-0.133,0.13,-0.003,0.163,0.215,0.12,0.099,0.042
-0.004,0.085,0.089,-0.041,-0.047,0.087,-0.015,0.143,0.207,0.14,0.121,0.062
0.004,0.085,0.081,-0.045,-0.039,0.083,-0.056,0.134,0.188,0.121,0.101,0.044
-0.009,0.085,0.094,-0.039,-0.052,0.089,-0.056,0.142,0.199,0.109,0.087,0.032
-0.021,0.063,0.084,-0.021,-0.053,0.073,-0.024,0.147,0.191,0.112,0.087,0.032
-0.03,0.017,0.048,0.006,-0.039,0.032,0.004,0.149,0.166,0.062,0.04,-0.016
0.008,-0.027,-0.034,0.01,0.021,-0.031,0.006,0.104,0.123,-0.007,-0.015,-0.057
-0.05,-0.104,-0.054,0.078,0.002,-0.079,0.019,0.071,0.07,-0.053,-0.066,-0.099
-0.046,-0.172,-0.126,0.11,0.041,-0.149,0.015,0.055,0.016,-0.107,-0.115,-0.151
-0.076,-0.213,-0.137,0.145,0.03,-0.174,-0.002,0.031,-0.023,-0.127,-0.128,-0.165
-0.084,-0.22,-0.136,0.152,0.026,-0.177,-0.005,0.033,-0.017,-0.097,-0.124,-0.184
-0.038,-0.137,-0.099,0.088,0.031,-0.117,0.055,0.097,0.059,-0.048,-0.079,-0.138
-0.019,-0.047,-0.028,0.033,0.005,-0.037,0.096,0.15,0.119,-0.008,-0.038,-0.08
0.007,0.046,0.039,-0.026,-0.016,0.042,0.134,0.18,0.148,0.033,-0.008,-0.07
-0.041,0.102,0.143,-0.031,-0.093,0.123,0.161,0.19,0.207,0.073,0.035,-0.045
-0.048,0.113,0.161,-0.033,-0.105,0.137,0.096,0.169,0.213,0.09,0.071,-0.026
-0.046,0.129,0.175,-0.042,-0.11,0.152,0.048,0.167,0.225,0.12,0.1,-0.018
-0.046,0.12,0.166,-0.037,-0.106,0.142,0.023,0.17,0.239,0.13,0.109,-0.008
0.025,0.109,0.083,-0.067,-0.03,0.096,-0.004,0.132,0.199,0.109,0.094,-0.001
0.02,0.075,0.055,-0.048,-0.018,0.065,-0.001,0.136,0.19,0.095,0.081,-0.001
-0.017,0.058,0.075,-0.021,-0.046,0.066,-0.013,0.095,0.186,0.094,0.082,0.009
-0.015,0.043,0.058,-0.014,-0.037,0.05,-0.012,0.114,0.185,0.084,0.072,-0.02
-0.004,0.019,0.023,-0.007,-0.013,0.02,0.049,0.23,0.194,0.071,0.072,-0.049
0.08,0.035,-0.045,-0.058,0.062,-0.005,0.056,0.371,0.343,0.191,0.115,-0.008
0.238,0.233,-0.005,-0.235,0.121,0.114,-0.143,0.1,0.543,0.588,0.471,0.297
0.775,0.581,-0.194,-0.678,0.485,0.193,-0.693,-1.095,0.392,0.903,0.861,0.742
0.886,0.433,-0.453,-0.66,0.669,-0.01,-0.808,-1.75,-0.281,0.285,0.413,0.572
-0.008,-0.131,-0.122,0.07,0.057,-0.126,-0.194,-1.325,-0.897,-0.615,-0.287,0.0
-0.344,-0.337,0.007,0.34,-0.175,-0.165,0.088,-0.747,-0.671,-0.588,-0.372,-0.236
-0.135,-0.301,-0.166,0.218,0.016,-0.233,0.055,-0.242,-0.228,-0.286,-0.246,-0.254
-0.135,-0.304,-0.169,0.219,0.018,-0.236,0.052,-0.021,-0.13,-0.223,-0.208,-0.26
-0.128,-0.288,-0.16,0.208,0.016,-0.224,0.034,0.034,-0.107,-0.176,-0.176,-0.249
-0.146,-0.302,-0.156,0.224,0.005,-0.229,0.026,0.037,-0.105,-0.177,-0.172,-0.246
-0.131,-0.302,-0.171,0.216,0.02,-0.236,-0.002,0.038,-0.075,-0.161,-0.166,-0.24
-0.091,-0.186,-0.095,0.139,0.002,-0.14,0.033,0.088,0.0,-0.088,-0.11,-0.197
-0.051,-0.048,0.003,0.05,-0.027,-0.022,0.083,0.136,0.076,-0.009,-0.036,-0.131
-0.115,0.001,0.116,0.057,-0.115,0.058,0.161,0.199,0.148,0.055,0.042,-0.095
-0.138,0.051,0.188,0.043,-0.163,0.119,0.128,0.186,0.193,0.078,0.064,-0.082
-0.097,0.095,0.192,0.001,-0.145,0.143,0.035,0.154,0.19,0.09,0.078,-0.063
-0.106,0.088,0.194,0.009,-0.15,0.141,0.034,0.153,0.19,0.118,0.115,-0.043
-0.079,0.084,0.163,-0.003,-0.121,0.123,-0.01,0.13,0.189,0.115,0.108,-0.037
-0.071,0.074,0.145,-0.002,-0.108,0.109,-0.042,0.138,0.193,0.113,0.111,-0.033
-0.061,0.068,0.129,-0.003,-0.095,0.098,-0.038,0.136,0.177,0.11,0.108,-0.028
-0.096,0.061,0.157,0.017,-0.127,0.109,-0.012,0.151,0.181,0.109,0.103,-0.024
-0.107,0.053,0.161,0.026,-0.134,0.107,-0.012,0.142,0.171,0.109,0.106,-0.019
-0.055,0.072,0.127,-0.008,-0.092,0.1,-0.043,0.116,0.139,0.096,0.103,-0.016
-0.069,0.08,0.149,-0.006,-0.109,0.114,-0.038,0.144,0.163,0.11,0.107,-0.014
-0.031,0.071,0.102,-0.02,-0.067,0.087,-0.04,0.141,0.158,0.107,0.103,-0.017
0.003,0.071,0.068,-0.037,-0.032,0.069,-0.04,0.135,0.147,0.103,0.098,-0.012
-0.034,0.043,0.077,-0.005,-0.056,0.059,-0.025,0.127,0.138,0.096,0.079,-0.024
-0.054,-0.006,0.048,0.03,-0.051,0.02,-0.019,0.122,0.117,0.081,0.066,-0.041
-0.088,-0.051,0.037,0.069,-0.062,-0.007,0.013,0.09,0.081,0.041,0.026,-0.072
-0.117,-0.127,-0.01,0.122,-0.053,-0.068,0.04,0.04,0.034,-0.036,-0.039,-0.126
-0.131,-0.193,-0.062,0.162,-0.034,-0.127,0.037,0.013,-0.011,-0.075,-0.074,-0.157
-0.116,-0.226,-0.11,0.171,-0.003,-0.168,0.034,-0.014,-0.049,-0.106,-0.108,-0.178
-0.11,-0.218,-0.108,0.164,0.0,-0.163,0.036,0.031,-0.017,-0.091,-0.085,-0.176
-0.084,-0.133,-0.049,0.109,-0.017,-0.091,0.065,0.076,0.04,-0.033,-0.022,-0.132
-0.101,-0.036,0.065,0.069,-0.083,0.014,0.105,0.138,0.124,0.044,0.04,-0.087
-0.135,0.025,0.16,0.055,-0.148,0.092,0.168,0.182,0.181,0.1,0.084,-0.057
-0.095,0.076,0.171,0.009,-0.133,0.123,0.171,0.164,0.172,0.097,0.078,-0.039
-0.083,0.123,0.205,-0.02,-0.144,0.164,0.088,0.152,0.182,0.12,0.104,-0.027
-0.073,0.127,0.201,-0.027,-0.137,0.164,0.043,0.131,0.184,0.121,0.117,-0.019
-0.09,0.114,0.204,-0.012,-0.147,0.158,0.027,0.14,0.177,0.118,0.113,-0.011
-0.088,0.101,0.189,-0.007,-0.138,0.144,0.001,0.124,0.172,0.145,0.123,0.0
-0.07,0.07,0.14,0.0,-0.105,0.105,-0.009,0.142,0.167,0.143,0.123,-0.001
-0.033,0.063,0.096,-0.015,-0.065,0.079,-0.021,0.11,0.159,0.133,0.124,-0.012
-0.055,0.038,0.093,0.008,-0.075,0.065,0.02,0.147,0.164,0.106,0.103,-0.035
-0.115,0.005,0.12,0.055,-0.118,0.063,0.068,0.256,0.191,0.099,0.082,-0.061
0.031,0.056,0.025,-0.044,0.003,0.04,0.047,0.378,0.362,0.262,0.163,0.0
0.339,0.319,-0.02,-0.329,0.179,0.149,-0.211,-0.055,0.529,0.678,0.572,0.374
0.912,0.616,-0.295,-0.764,0.603,0.16,-0.801,-1.327,0.23,0.797,0.793,0.73
0.74,0.304,-0.436,-0.521,0.588,-0.066,-0.717,-1.753,-0.527,0.005,0.199,0.395
-0.187,-0.23,-0.043,0.208,-0.072,-0.136,-0.073,-1.239,-0.943,-0.67,-0.347,-0.121
-0.342,-0.311,0.031,0.326,-0.186,-0.139,0.085,-0.637,-0.552,-0.461,-0.299,-0.233
-0.221,-0.286,-0.064,0.254,-0.078,-0.175,0.062,-0.149,-0.183,-0.227,-0.193,-0.246
-0.242,-0.303,-0.06,0.273,-0.091,-0.181,0.06,-0.028,-0.143,-0.184,-0.183,-0.269
-0.177,-0.297,-0.12,0.238,-0.028,-0.208,0.039,0.009,-0.124,-0.15,-0.172,-0.265
-0.188,-0.308,-0.12,0.248,-0.033,-0.214,0.041,0.024,-0.113,-0.154,-0.17,-0.273
-0.131,-0.263,-0.132,0.197,0.001,-0.197,0.017,0.049,-0.052,-0.117,-0.147,-0.25
-0.062,-0.141,-0.079,0.101,0.009,-0.11,0.035,0.087,-0.01,-0.073,-0.093,-0.2
-0.087,-0.032,0.055,0.059,-0.071,0.011,0.111,0.129,0.036,-0.017,-0.024,-0.156
-0.115,0.03,0.145,0.043,-0.13,0.087,0.164,0.184,0.098,0.023,0.034,-0.114
-0.138,0.085,0.223,0.027,-0.181,0.154,0.134,0.184,0.137,0.07,0.068,-0.083
-0.121,0.107,0.228,0.006,-0.175,0.167,0.082,0.169,0.166,0.107,0.091,-0.068
-0.098,0.114,0.212,-0.009,-0.155,0.163,0.046,0.151,0.164,0.108,0.098,-0.055
-0.104,0.108,0.211,-0.002,-0.158,0.159,0.022,0.144,0.166,0.108,0.102,-0.042
-0.094,0.102,0.196,-0.004,-0.146,0.149,0.001,0.128,0.158,0.105,0.105,-0.03
-0.095,0.098,0.193,-0.002,-0.144,0.145,-0.023,0.127,0.136,0.105,0.106,-0.036
-0.077,0.082,0.159,-0.003,-0.118,0.12,-0.043,0.154,0.136,0.105,0.117,-0.04
-0.033,0.1,0.133,-0.034,-0.083,0.116,-0.023,0.151,0.119,0.105,0.1,-0.034
-0.045,0.109,0.154,-0.032,-0.099,0.131,0.011,0.144,0.105,0.102,0.089,-0.033
-0.102,0.098,0.199,0.002,-0.151,0.148,0.022,0.141,0.134,0.123,0.131,-0.026
-0.047,0.093,0.14,-0.023,-0.094,0.116,0.019,0.133,0.142,0.116,0.126,-0.026
0.001,0.087,0.086,-0.044,-0.043,0.086,0.009,0.13,0.123,0.073,0.078,-0.028
-0.049,0.062,0.111,-0.006,-0.081,0.086,0.018,0.114,0.1,0.064,0.062,-0.042
-0.058,0.019,0.077,0.019,-0.068,0.048,0.037,0.104,0.06,0.039,0.037,-0.068
-0.088,-0.03,0.057,0.059,-0.072,0.014,0.041,0.08,0.003,-0.016,-0.01,-0.1
-0.128,-0.119,0.009,0.123,-0.069,-0.054,0.04,0.041,-0.056,-0.077,-0.071,-0.161
-0.111,-0.179,-0.069,0.145,-0.021,-0.123,0.04,0.026,-0.101,-0.126,-0.112,-0.196
-0.11,-0.199,-0.09,0.155,-0.01,-0.144,0.04,0.016,-0.109,-0.146,-0.132,-0.205
-0.09,-0.192,-0.102,0.141,0.006,-0.147,0.039,0.035,-0.074,-0.12,-0.114,-0.195
-0.06,-0.102,-0.041,0.081,-0.009,-0.071,0.056,0.082,-0.016,-0.058,-0.056,-0.155
-0.067,-0.001,0.066,0.034,-0.067,0.033,0.108,0.149,0.049,-0.012,-0.012,-0.109
-0.125,0.045,0.17,0.04,-0.148,0.107,0.162,0.171,0.085,0.037,0.037,-0.067
-0.142,0.085,0.227,0.028,-0.185,0.155,0.15,0.162,0.097,0.07,0.064,-0.052
-0.093,0.143,0.236,-0.025,-0.165,0.189,0.101,0.156,0.128,0.092,0.097,-0.037
-0.088,0.154,0.243,-0.033,-0.166,0.198,0.072,0.148,0.148,0.11,0.12,-0.03
-0.059,0.136,0.195,-0.038,-0.127,0.165,0.037,0.138,0.115,0.083,0.094,-0.03
-0.006,0.129,0.136,-0.062,-0.071,0.132,-0.011,0.109,0.107,0.077,0.091,-0.026
-0.014,0.115,0.13,-0.051,-0.072,0.122,-0.023,0.137,0.114,0.075,0.09,-0.025
-0.032,0.11,0.143,-0.039,-0.088,0.126,-0.034,0.106,0.105,0.062,0.08,-0.026
-0.044,0.068,0.112,-0.012,-0.078,0.09,-0.012,0.162,0.117,0.052,0.081,-0.055
-0.027,0.038,0.065,-0.006,-0.046,0.052,0.033,0.24,0.123,0.059,0.072,-0.076
0.045,0.1,0.055,-0.073,-0.005,0.077,0.027,0.324,0.291,0.229,0.164,0.003
0.33,0.365,0.034,-0.348,0.148,0.199,-0.256,-0.168,0.42,0.628,0.571,0.4
0.935,0.596,-0.339,-0.765,0.637,0.128,-0.802,-1.418,0.045,0.623,0.681,0.663
0.605,0.216,-0.389,-0.41,0.497,-0.087,-0.611,-1.723,-0.683,-0.198,0.057,0.271
-0.329,-0.282,0.047,0.305,-0.188,-0.117,-0.004,-1.173,-0.979,-0.741,-0.391,-0.181
-0.369,-0.343,0.027,0.356,-0.198,-0.158,0.083,-0.597,-0.57,-0.489,-0.319,-0.3
-0.235,-0.29,-0.056,0.263,-0.089,-0.173,0.058,-0.132,-0.247,-0.264,-0.22,-0.301
-0.256,-0.269,-0.013,0.263,-0.122,-0.141,0.061,-0.031,-0.209,-0.24,-0.191,-0.298
-0.213,-0.287,-0.074,0.25,-0.07,-0.18,0.057,-0.019,-0.19,-0.223,-0.194,-0.302
-0.163,-0.281,-0.118,0.222,-0.022,-0.199,0.064,-0.02,-0.188,-0.22,-0.211,-0.296
-0.141,-0.233,-0.092,0.187,-0.024,-0.162,0.065,0.015,-0.141,-0.176,-0.176,-0.261
-0.106,-0.132,-0.026,0.119,-0.04,-0.078,0.063,0.056,-0.074,-0.115,-0.113,-0.209
-0.111,-0.025,0.085,0.068,-0.098,0.03,0.112,0.092,-0.022,-0.069,-0.051,-0.156
-0.2,0.003,0.204,0.098,-0.202,0.103,0.185,0.158,0.021,-0.014,-0.006,-0.115
-0.176,0.07,0.246,0.052,-0.211,0.158,0.132,0.133,0.067,0.039,0.04,-0.082
-0.142,0.119,0.26,0.011,-0.201,0.189,0.074,0.111,0.082,0.06,0.077,-0.06
-0.127,0.111,0.238,0.008,-0.183,0.174,0.033,0.111,0.075,0.067,0.079,-0.072
-0.129,0.105,0.234,0.012,-0.182,0.17,-0.011,0.101,0.081,0.064,0.084,-0.068
-0.128,0.097,0.225,0.015,-0.177,0.161,-0.033,0.1,0.084,0.066,0.083,-0.058
-0.14,0.09,0.23,0.024,-0.185,0.16,-0.033,0.089,0.069,0.062,0.073,-0.055
-0.132,0.082,0.214,0.025,-0.173,0.148,-0.025,0.105,0.043,0.043,0.067,-0.047
-0.087,0.077,0.163,0.005,-0.125,0.12,-0.024,0.123,0.03,0.035,0.058,-0.046
-0.076,0.068,0.144,0.004,-0.11,0.106,-0.016,0.119,0.03,0.03,0.053,-0.038
-0.093,0.067,0.16,0.012,-0.127,0.113,-0.014,0.121,0.03,0.03,0.049,-0.038
-0.116,0.059,0.175,0.028,-0.145,0.117,-0.005,0.121,0.023,0.023,0.042,-0.027
-0.097,0.06,0.157,0.018,-0.128,0.108,0.0,0.118,0.028,0.023,0.039,-0.028
-0.113,0.04,0.153,0.037,-0.134,0.096,0.019,0.141,0.018,0.011,0.027,-0.055
-0.126,-0.014,0.111,0.07,-0.118,0.048,0.055,0.131,-0.01,-0.024,-0.003,-0.073
-0.123,-0.064,0.06,0.093,-0.091,-0.002,0.061,0.059,-0.069,-0.084,-0.061,-0.139
-0.122,-0.149,-0.027,0.136,-0.047,-0.088,0.05,0.022,-0.141,-0.147,-0.12,-0.191
-0.217,-0.208,0.009,0.213,-0.113,-0.099,0.051,0.026,-0.143,-0.153,-0.144,-0.189
-0.211,-0.218,-0.007,0.214,-0.102,-0.112,0.042,0.019,-0.159,-0.174,-0.165,-0.212
-0.089,-0.194,-0.105,0.142,0.008,-0.149,0.04,0.022,-0.155,-0.168,-0.146,-0.205
-0.119,-0.092,0.027,0.105,-0.072,-0.032,0.071,0.075,-0.079,-0.102,-0.088,-0.153
-0.108,0.008,0.116,0.05,-0.112,0.062,0.133,0.144,0.001,-0.03,-0.028,-0.106
-0.137,0.036,0.173,0.051,-0.155,0.104,0.189,0.169,0.041,-0.006,0.009,-0.096
-0.127,0.08,0.207,0.023,-0.168,0.144,0.155,0.153,0.044,-0.009,0.023,-0.076
-0.114,0.119,0.233,-0.002,-0.174,0.176,0.1,0.12,0.053,0.034,0.042,-0.028
-0.114,0.128,0.242,-0.007,-0.178,0.184,0.059,0.122,0.081,0.073,0.061,-0.028
-0.03,0.13,0.16,-0.051,-0.095,0.145,0.006,0.105,0.072,0.057,0.065,-0.035
-0.06,0.094,0.154,-0.017,-0.107,0.124,-0.009,0.096,0.035,0.027,0.036,-0.023
-0.099,0.072,0.171,0.013,-0.135,0.121,-0.01,0.099,0.027,0.039,0.026,-0.03
-0.092,0.055,0.147,0.018,-0.12,0.101,-0.025,0.066,0.018,0.026,0.024,-0.055
-0.098,0.042,0.14,0.028,-0.119,0.091,0.016,0.138,0.018,-0.011,0.001,-0.078
-0.005,0.04,0.045,-0.018,-0.025,0.043,0.041,0.257,0.09,0.037,0.006,-0.081
0.099,0.116,0.017,-0.108,0.041,0.066,-0.012,0.308,0.296,0.286,0.209,0.081
0.516,0.441,-0.075,-0.478,0.295,0.183,-0.4,-0.48,0.312,0.621,0.579,0.502
1.003,0.536,-0.467,-0.769,0.735,0.035,-0.844,-1.611,-0.225,0.338,0.444,0.582
0.336,0.05,-0.286,-0.193,0.311,-0.118,-0.43,-1.602,-0.897,-0.51,-0.201,0.096
-0.403,-0.315,0.088,0.359,-0.246,-0.113,0.103,-0.998,-0.914,-0.74,-0.444,-0.241
-0.334,-0.308,0.026,0.321,-0.18,-0.141,0.1,-0.449,-0.482,-0.433,-0.313,-0.264
-0.269,-0.282,-0.013,0.275,-0.128,-0.148,0.09,-0.114,-0.297,-0.309,-0.264,-0.263
-0.22,-0.289,-0.069,0.255,-0.075,-0.179,0.069,-0.032,-0.276,-0.297,-0.262,-0.288
-0.226,-0.314,-0.088,0.27,-0.069,-0.201,0.039,-0.014,-0.27,-0.303,-0.273,-0.305
-0.226,-0.326,-0.1,0.276,-0.062,-0.213,0.043,-0.016,-0.262,-0.294,-0.268,-0.303
-0.145,-0.265,-0.12,0.205,-0.012,-0.192,0.034,0.011,-0.216,-0.256,-0.233,-0.278
-0.094,-0.145,-0.052,0.12,-0.021,-0.098,0.062,0.057,-0.141,-0.168,-0.157,-0.206
-0.126,-0.066,0.06,0.096,-0.093,-0.003,0.128,0.125,-0.059,-0.104,-0.079,-0.137
-0.179,-0.023,0.155,0.101,-0.167,0.066,0.182,0.157,-0.034,-0.077,-0.038,-0.105
-0.176,0.043,0.218,0.066,-0.197,0.13,0.153,0.15,-0.007,-0.037,0.009,-0.093
-0.156,0.082,0.238,0.037,-0.198,0.16,0.092,0.126,0.017,-0.033,0.023,-0.087
-0.145,0.086,0.232,0.029,-0.189,0.159,0.043,0.115,0.011,-0.026,0.009,-0.074
-0.099,0.084,0.183,0.007,-0.141,0.133,-0.006,0.126,0.006,-0.019,0.019,-0.06
-0.084,0.069,0.153,0.007,-0.119,0.111,-0.046,0.132,-0.001,-0.012,0.052,-0.048
-0.131,0.042,0.173,0.044,-0.153,0.108,-0.045,0.145,0.022,-0.016,0.06,-0.043
-0.095,0.051,0.145,0.022,-0.12,0.098,-0.024,0.151,0.018,-0.035,0.05,-0.037
-0.048,0.075,0.123,-0.014,-0.085,0.099,-0.026,0.136,-0.026,-0.049,0.045,-0.034
-0.085,0.053,0.138,0.016,-0.112,0.095,-0.023,0.124,-0.025,-0.05,0.036,-0.028
-0.103,0.043,0.146,0.03,-0.125,0.094,-0.016,0.14,-0.02,-0.05,0.029,-0.026
-0.042,0.051,0.094,-0.005,-0.068,0.072,-0.004,0.155,-0.011,-0.049,0.022,-0.028
-0.051,0.036,0.087,0.007,-0.069,0.061,0.003,0.142,-0.016,-0.049,0.014,-0.036
-0.095,-0.008,0.087,0.051,-0.091,0.039,0.023,0.134,-0.041,-0.065,-0.011,-0.057
-0.132,-0.04,0.092,0.086,-0.111,0.025,0.046,0.132,-0.04,-0.062,-0.031,-0.068
-0.142,-0.078,0.064,0.11,-0.103,-0.007,0.051,0.077,-0.093,-0.123,-0.069,-0.11
-0.109,-0.175,-0.066,0.142,-0.021,-0.121,0.05,0.019,-0.164,-0.213,-0.152,-0.176
-0.132,-0.232,-0.1,0.182,-0.016,-0.166,0.048,-0.007,-0.207,-0.257,-0.202,-0.22
-0.159,-0.262,-0.104,0.211,-0.028,-0.183,0.053,-0.031,-0.224,-0.261,-0.211,-0.227
-0.145,-0.26,-0.115,0.203,-0.015,-0.187,0.044,-0.005,-0.193,-0.227,-0.194,-0.209
-0.118,-0.156,-0.038,0.137,-0.04,-0.096,0.084,0.06,-0.132,-0.178,-0.121,-0.162
-0.065,-0.056,0.009,0.06,-0.036,-0.023,0.117,0.112,-0.064,-0.124,-0.063,-0.107
-0.109,-0.026,0.083,0.067,-0.095,0.028,0.162,0.166,-0.027,-0.1,-0.036,-0.074
-0.142,0.013,0.155,0.064,-0.149,0.084,0.218,0.179,0.0,-0.07,-0.011,-0.053
-0.078,0.073,0.151,0.002,-0.115,0.112,0.16,0.158,0.004,-0.041,0.019,-0.038
-0.079,0.097,0.176,-0.01,-0.128,0.136,0.101,0.124,0.01,-0.033,0.039,-0.018
-0.042,0.101,0.144,-0.03,-0.093,0.122,0.063,0.128,0.031,-0.019,0.04,-0.009
-0.019,0.081,0.099,-0.031,-0.059,0.09,0.034,0.129,0.01,-0.003,0.059,0.001
-0.081,0.038,0.119,0.021,-0.1,0.079,0.043,0.135,0.01,-0.001,0.059,0.007
-0.064,0.023,0.088,0.021,-0.076,0.055,0.006,0.089,-0.013,-0.044,0.033,-0.004
-0.03,0.029,0.058,0.0,-0.044,0.043,0.006,0.061,-0.027,-0.08,-0.011,-0.039
-0.111,-0.033,0.078,0.071,-0.094,0.022,0.07,0.186,0.009,-0.07,-0.026,-0.061
-0.019,-0.053,-0.034,0.036,0.008,-0.043,0.038,0.282,0.078,-0.008,0.012,-0.042
0.202,0.152,-0.05,-0.177,0.126,0.051,-0.065,0.217,0.282,0.301,0.302,0.21
0.735,0.463,-0.272,-0.599,0.503,0.096,-0.545,-0.753,0.152,0.52,0.62,0.603
0.974,0.439,-0.535,-0.706,0.754,-0.048,-0.791,-1.672,-0.448,0.056,0.304,0.526
0.081,0.013,-0.069,-0.047,0.075,-0.028,-0.172,-1.295,-0.853,-0.586,-0.221,0.084
-0.451,-0.298,0.153,0.375,-0.302,-0.072,0.184,-0.724,-0.728,-0.652,-0.352,-0.194
-0.278,-0.355,-0.077,0.317,-0.1,-0.216,0.1,-0.353,-0.428,-0.437,-0.294,-0.269
-0.26,-0.352,-0.092,0.306,-0.084,-0.221,0.078,-0.077,-0.297,-0.373,-0.259,-0.275
-0.259,-0.348,-0.089,0.303,-0.085,-0.218,0.051,-0.008,-0.251,-0.359,-0.244,-0.271
-0.231,-0.342,-0.111,0.287,-0.06,-0.226,0.044,0.001,-0.242,-0.349,-0.251,-0.257
-0.178,-0.338,-0.159,0.258,-0.01,-0.248,0.028,0.008,-0.24,-0.331,-0.246,-0.256
-0.117,-0.268,-0.151,0.193,0.017,-0.209,0.034,0.049,-0.204,-0.27,-0.19,-0.225
-0.128,-0.13,-0.001,0.129,-0.063,-0.065,0.077,0.109,-0.103,-0.184,-0.122,-0.145
-0.154,-0.066,0.089,0.11,-0.121,0.011,0.14,0.156,-0.039,-0.129,-0.069,-0.098
-0.143,-0.03,0.113,0.086,-0.128,0.042,0.181,0.175,-0.028,-0.114,-0.044,-0.087
-0.128,0.043,0.171,0.042,-0.15,0.107,0.142,0.17,0.01,-0.087,-0.028,-0.073
-0.14,0.095,0.235,0.022,-0.188,0.165,0.093,0.164,0.044,-0.054,0.02,-0.031
-0.119,0.091,0.209,0.014,-0.164,0.15,0.048,0.163,0.061,-0.018,0.042,-0.02
-0.093,0.054,0.147,0.019,-0.12,0.1,-0.004,0.154,0.046,-0.033,0.019,-0.033
-0.105,0.042,0.147,0.031,-0.126,0.095,-0.012,0.162,0.032,-0.073,0.004,-0.023
-0.091,0.036,0.127,0.027,-0.109,0.081,0.005,0.18,0.048,-0.051,0.015,-0.024
-0.098,0.024,0.122,0.036,-0.11,0.073,0.016,0.187,0.041,-0.058,0.036,-0.017
-0.086,0.021,0.107,0.033,-0.097,0.063,0.014,0.181,0.009,-0.072,0.03,-0.017
-0.063,0.01,0.074,0.026,-0.069,0.042,0.012,0.181,0.012,-0.064,0.024,0.0
-0.077,0.008,0.085,0.034,-0.081,0.046,0.006,0.194,0.039,-0.062,0.023,0.035
-0.069,-0.003,0.065,0.036,-0.067,0.031,0.006,0.187,0.025,-0.054,0.016,0.01
-0.042,-0.004,0.038,0.023,-0.04,0.017,0.013,0.168,0.004,-0.072,0.01,-0.023
-0.012,-0.03,-0.018,0.021,0.003,-0.024,0.025,0.161,-0.008,-0.1,-0.026,-0.046
-0.058,-0.076,-0.019,0.067,-0.019,-0.047,0.041,0.14,-0.024,-0.091,-0.043,-0.055
-0.055,-0.093,-0.037,0.074,-0.009,-0.065,0.044,0.093,-0.069,-0.132,-0.075,-0.069
-0.044,-0.185,-0.141,0.114,0.049,-0.163,0.031,0.067,-0.164,-0.241,-0.172,-0.146
-0.105,-0.247,-0.142,0.176,0.019,-0.194,0.038,0.056,-0.17,-0.24,-0.206,-0.188
-0.123,-0.262,-0.138,0.193,0.008,-0.2,0.082,0.056,-0.186,-0.26,-0.208,-0.192
-0.074,-0.265,-0.191,0.17,0.059,-0.228,0.085,0.057,-0.201,-0.274,-0.207,-0.197
-0.042,-0.164,-0.122,0.103,0.04,-0.143,0.085,0.1,-0.116,-0.181,-0.147,-0.139
-0.047,-0.074,-0.027,0.06,-0.01,-0.05,0.088,0.154,-0.046,-0.122,-0.066,-0.061
0.0,0.001,0.001,0.0,-0.001,0.001,0.127,0.184,-0.005,-0.081,-0.02,-0.036
-0.046,0.042,0.088,0.001,-0.067,0.065,0.194,0.208,0.013,-0.076,-0.015,-0.03
-0.051,0.058,0.109,-0.004,-0.081,0.083,0.13,0.191,0.063,-0.063,0.025,-0.001
-0.002,0.119,0.12,-0.059,-0.061,0.119,0.043,0.158,0.082,-0.029,0.044,0.022
-0.008,0.105,0.113,-0.049,-0.061,0.109,0.021,0.152,0.079,-0.024,0.029,0.019
0.022,0.089,0.067,-0.055,-0.023,0.077,0.004,0.139,0.073,-0.011,0.032,0.022
0.032,0.092,0.06,-0.062,-0.014,0.076,-0.023,0.111,0.026,-0.027,0.018,0.018
0.014,0.05,0.036,-0.032,-0.011,0.043,-0.024,0.119,-0.001,-0.045,0.018,0.022
0.025,0.032,0.007,-0.029,0.008,0.019,-0.02,0.096,-0.028,-0.038,0.003,0.018
-0.005,0.003,0.008,0.001,-0.007,0.005,0.011,0.156,-0.007,-0.052,-0.011,-0.012
0.023,-0.042,-0.064,0.01,0.044,-0.053,0.031,0.231,0.046,-0.041,-0.023,-0.065
0.151,0.027,-0.124,-0.089,0.137,-0.048,-0.014,0.284,0.202,0.167,0.128,0.076
0.545,0.358,-0.187,-0.451,0.365,0.085,-0.364,-0.333,0.228,0.498,0.542,0.53
1.031,0.57,-0.461,-0.8,0.745,0.055,-0.83,-1.486,-0.197,0.38,0.545,0.71
0.452,0.26,-0.191,-0.356,0.321,0.034,-0.442,-1.483,-0.673,-0.238,0.042,0.347
-0.338,-0.161,0.177,0.249,-0.257,0.008,0.132,-0.849,-0.777,-0.633,-0.314,-0.079
-0.285,-0.343,-0.058,0.314,-0.113,-0.2,0.084,-0.48,-0.545,-0.528,-0.371,-0.247
-0.187,-0.356,-0.169,0.272,-0.009,-0.262,0.052,-0.151,-0.325,-0.38,-0.326,-0.268
-0.151,-0.324,-0.173,0.238,0.011,-0.248,0.067,-0.037,-0.274,-0.354,-0.31,-0.261
-0.129,-0.328,-0.2,0.229,0.036,-0.264,0.032,-0.011,-0.258,-0.343,-0.307,-0.257
-0.119,-0.353,-0.235,0.236,0.058,-0.294,0.023,0.03,-0.245,-0.345,-0.295,-0.251
-0.044,-0.287,-0.243,0.166,0.1,-0.265,0.008,0.052,-0.216,-0.284,-0.248,-0.199
-0.035,-0.148,-0.113,0.092,0.039,-0.13,0.047,0.111,-0.13,-0.209,-0.172,-0.142
-0.055,-0.068,-0.013,0.062,-0.021,-0.04,0.105,0.177,-0.065,-0.151,-0.117,-0.092
-0.096,-0.01,0.086,0.053,-0.091,0.038,0.174,0.2,-0.011,-0.09,-0.075,-0.065
-0.103,0.04,0.144,0.031,-0.124,0.092,0.147,0.196,0.02,-0.059,-0.038,-0.055
-0.039,0.074,0.113,-0.018,-0.076,0.093,0.067,0.183,0.043,-0.052,-0.029,-0.026
-0.044,0.081,0.125,-0.019,-0.085,0.103,0.043,0.191,0.069,-0.048,-0.018,-0.02
-0.103,0.07,0.173,0.016,-0.138,0.122,0.013,0.208,0.043,-0.049,-0.013,-0.025
-0.115,0.07,0.185,0.022,-0.15,0.127,0.0,0.21,0.046,-0.041,0.005,-0.015
-0.039,0.063,0.102,-0.012,-0.071,0.082,-0.009,0.212,0.053,-0.051,0.009,-0.01
-0.019,0.06,0.078,-0.021,-0.049,0.069,-0.025,0.198,0.037,-0.072,-0.028,-0.003
-0.054,0.055,0.109,-0.001,-0.082,0.081,-0.02,0.208,0.032,-0.036,-0.029,0.005
0.001,0.048,0.047,-0.025,-0.023,0.047,-0.008,0.212,0.038,-0.032,-0.024,0.009
0.012,0.043,0.031,-0.028,-0.009,0.037,-0.016,0.196,0.046,-0.028,-0.019,0.019
-0.016,0.038,0.054,-0.011,-0.036,0.046,-0.022,0.194,0.03,-0.025,-0.016,0.036
-0.002,0.031,0.033,-0.014,-0.018,0.032,0.007,0.182,0.029,-0.042,-0.008,0.034
0.05,0.014,-0.036,-0.032,0.043,-0.011,0.003,0.171,0.009,-0.042,-0.027,-0.009
0.029,-0.027,-0.055,-0.001,0.042,-0.041,0.005,0.157,-0.032,-0.097,-0.078,-0.023
-0.037,-0.069,-0.032,0.053,-0.002,-0.05,0.032,0.136,-0.03,-0.096,-0.069,-0.035
-0.02,-0.133,-0.114,0.077,0.048,-0.123,0.009,0.097,-0.109,-0.144,-0.121,-0.106
-0.05,-0.209,-0.158,0.13,0.054,-0.183,-0.001,0.06,-0.187,-0.243,-0.189,-0.156
-0.059,-0.241,-0.181,0.15,0.061,-0.211,0.035,0.077,-0.166,-0.24,-0.204,-0.171
-0.036,-0.26,-0.224,0.149,0.094,-0.241,0.024,0.079,-0.174,-0.222,-0.215,-0.172
-0.043,-0.204,-0.162,0.124,0.059,-0.183,0.036,0.089,-0.145,-0.165,-0.163,-0.122
0.023,-0.084,-0.107,0.031,0.065,-0.095,0.052,0.134,-0.07,-0.119,-0.094,-0.064
0.024,0.001,-0.023,-0.012,0.024,-0.011,0.094,0.182,0.013,-0.07,-0.06,-0.029
-0.041,0.039,0.079,0.001,-0.061,0.059,0.188,0.216,0.051,-0.027,-0.047,0.009
-0.013,0.062,0.074,-0.025,-0.044,0.068,0.128,0.189,0.032,-0.042,-0.036,0.021
0.0,0.113,0.113,-0.057,-0.057,0.113,0.056,0.148,0.053,0.005,0.003,0.045
0.028,0.122,0.094,-0.075,-0.033,0.108,0.017,0.137,0.066,0.035,0.031,0.055
0.036,0.105,0.068,-0.071,-0.016,0.086,-0.011,0.137,0.046,0.022,0.032,0.044
0.045,0.1,0.055,-0.073,-0.005,0.077,-0.024,0.118,0.036,0.006,0.019,0.043
0.068,0.082,0.013,-0.075,0.027,0.047,-0.057,0.126,0.03,-0.037,0.013,0.032
0.039,0.073,0.034,-0.056,0.002,0.053,-0.059,0.082,0.004,-0.032,0.009,0.034
0.065,0.05,-0.015,-0.058,0.04,0.017,-0.024,0.118,0.026,-0.02,-0.035,0.0
0.055,0.021,-0.034,-0.038,0.045,-0.006,0.034,0.234,0.043,-0.043,-0.048,-0.035
0.156,0.037,-0.12,-0.096,0.138,-0.041,-0.009,0.315,0.178,0.102,0.053,0.051
0.434,0.309,-0.126,-0.371,0.28,0.091,-0.269,-0.109,0.313,0.492,0.482,0.484
0.937,0.624,-0.313,-0.78,0.625,0.155,-0.778,-1.262,0.014,0.614,0.726,0.857
0.729,0.382,-0.347,-0.556,0.538,0.017,-0.642,-1.565,-0.545,-0.006,0.213,0.534
-0.159,-0.108,0.051,0.133,-0.105,-0.028,0.02,-0.969,-0.827,-0.62,-0.305,0.005
-0.274,-0.305,-0.031,0.29,-0.121,-0.168,0.12,-0.544,-0.604,-0.546,-0.38,-0.198
-0.165,-0.328,-0.163,0.247,-0.001,-0.246,0.066,-0.181,-0.342,-0.378,-0.336,-0.24
-0.167,-0.331,-0.164,0.249,-0.001,-0.248,0.063,-0.012,-0.248,-0.328,-0.293,-0.246
-0.125,-0.337,-0.212,0.231,0.044,-0.274,0.024,0.016,-0.234,-0.298,-0.278,-0.245
-0.085,-0.322,-0.236,0.204,0.076,-0.279,0.013,0.029,-0.241,-0.306,-0.299,-0.241
-0.034,-0.262,-0.228,0.148,0.097,-0.244,-0.001,0.054,-0.189,-0.25,-0.243,-0.185
-0.021,-0.158,-0.137,0.09,0.058,-0.147,0.043,0.107,-0.137,-0.194,-0.17,-0.129
0.027,-0.046,-0.072,0.009,0.05,-0.059,0.062,0.133,-0.051,-0.122,-0.123,-0.083
-0.046,-0.004,0.042,0.025,-0.044,0.019,0.144,0.205,-0.001,-0.071,-0.071,-0.046
-0.061,0.037,0.098,0.012,-0.08,0.067,0.153,0.205,0.02,-0.052,-0.032,-0.031
-0.009,0.113,0.122,-0.052,-0.066,0.117,0.057,0.163,0.057,-0.033,-0.014,-0.016
0.011,0.139,0.128,-0.075,-0.058,0.133,0.023,0.169,0.07,-0.033,-0.015,-0.007
0.008,0.132,0.124,-0.07,-0.058,0.128,-0.009,0.157,0.062,-0.039,-0.003,0.014
-0.01,0.124,0.134,-0.057,-0.073,0.129,-0.042,0.165,0.058,-0.036,0.01,0.033
-0.005,0.111,0.116,-0.053,-0.061,0.113,-0.05,0.196,0.051,-0.03,0.026,0.036
0.032,0.101,0.07,-0.066,-0.019,0.085,-0.047,0.202,0.046,-0.027,0.011,0.033
-0.002,0.096,0.098,-0.047,-0.05,0.096,-0.041,0.198,0.05,-0.021,-0.001,0.037
-0.018,0.092,0.11,-0.037,-0.064,0.101,-0.04,0.198,0.049,-0.017,0.013,0.032
0.022,0.087,0.065,-0.054,-0.022,0.076,-0.034,0.193,0.045,-0.008,0.005,0.037
0.034,0.083,0.049,-0.059,-0.008,0.066,-0.024,0.2,0.039,0.005,0.009,0.041
0.085,0.077,-0.009,-0.081,0.047,0.034,-0.034,0.207,0.038,0.01,0.012,0.023
0.036,0.048,0.012,-0.042,0.012,0.03,-0.016,0.183,0.015,-0.02,-0.023,0.022
0.045,0.003,-0.042,-0.024,0.044,-0.02,0.009,0.148,-0.021,-0.058,-0.068,-0.015
0.071,-0.034,-0.106,-0.018,0.089,-0.07,0.019,0.116,-0.048,-0.093,-0.093,-0.054
0.005,-0.092,-0.097,0.043,0.051,-0.094,0.027,0.076,-0.101,-0.148,-0.135,-0.089
-0.024,-0.163,-0.14,0.094,0.058,-0.151,0.036,0.064,-0.138,-0.183,-0.192,-0.133
-0.05,-0.203,-0.153,0.127,0.052,-0.178,0.039,0.066,-0.156,-0.204,-0.215,-0.143
-0.018,-0.218,-0.2,0.119,0.091,-0.209,0.013,0.053,-0.159,-0.204,-0.213,-0.136
-0.002,-0.175,-0.173,0.089,0.086,-0.174,0.033,0.088,-0.128,-0.184,-0.196,-0.124
0.024,-0.085,-0.11,0.031,0.067,-0.097,0.045,0.115,-0.077,-0.127,-0.138,-0.09
0.043,0.004,-0.04,-0.023,0.041,-0.018,0.091,0.178,0.007,-0.037,-0.055,-0.035
-0.043,0.05,0.092,-0.004,-0.068,0.071,0.187,0.227,0.049,-0.021,-0.027,-0.013
-0.043,0.091,0.134,-0.024,-0.089,0.112,0.127,0.187,0.039,-0.022,-0.027,-0.004
0.016,0.142,0.126,-0.08,-0.055,0.133,0.047,0.17,0.067,-0.008,0.004,0.013
0.028,0.141,0.113,-0.085,-0.042,0.126,0.031,0.169,0.084,0.005,0.02,0.023
0.047,0.136,0.089,-0.092,-0.021,0.112,-0.01,0.162,0.061,0.014,0.014,0.036
0.055,0.108,0.054,-0.082,0.001,0.081,-0.043,0.149,0.065,0.003,0.004,0.037
0.042,0.074,0.032,-0.058,0.005,0.053,-0.041,0.158,0.067,0.004,-0.006,0.032
0.11,0.078,-0.031,-0.094,0.07,0.024,-0.048,0.108,0.036,-0.011,-0.012,0.022
0.119,0.051,-0.068,-0.085,0.093,-0.008,-0.007,0.154,0.042,-0.013,-0.042,-0.018
0.053,-0.002,-0.054,-0.025,0.053,-0.028,0.053,0.262,0.059,-0.027,-0.078,-0.063
0.152,0.031,-0.121,-0.091,0.137,-0.045,0.022,0.36,0.214,0.12,0.039,0.028
0.48,0.328,-0.151,-0.404,0.315,0.088,-0.273,-0.155,0.31,0.517,0.468,0.457
0.998,0.617,-0.381,-0.807,0.69,0.118,-0.792,-1.366,-0.028,0.572,0.651,0.781
0.721,0.36,-0.361,-0.54,0.541,0.0,-0.608,-1.613,-0.58,-0.052,0.142,0.474
-0.108,-0.111,-0.003,0.109,-0.052,-0.057,0.029,-1.025,-0.868,-0.636,-0.337,-0.027
-0.24,-0.297,-0.057,0.268,-0.091,-0.177,0.119,-0.54,-0.6,-0.557,-0.373,-0.224
-0.177,-0.306,-0.129,0.241,-0.024,-0.217,0.077,-0.132,-0.301,-0.343,-0.321,-0.215
-0.123,-0.285,-0.162,0.204,0.02,-0.223,0.095,0.033,-0.246,-0.314,-0.307,-0.23
-0.043,-0.285,-0.241,0.164,0.099,-0.263,0.03,0.038,-0.203,-0.288,-0.282,-0.253
-0.059,-0.294,-0.235,0.177,0.088,-0.264,0.032,0.044,-0.207,-0.289,-0.274,-0.238
-0.028,-0.273,-0.245,0.151,0.109,-0.258,0.035,0.092,-0.176,-0.265,-0.264,-0.216
-0.009,-0.171,-0.162,0.09,0.077,-0.166,0.039,0.121,-0.113,-0.206,-0.201,-0.17
0.001,-0.06,-0.062,0.03,0.032,-0.061,0.08,0.157,-0.052,-0.136,-0.123,-0.121
-0.095,-0.026,0.069,0.06,-0.081,0.021,0.168,0.238,0.036,-0.085,-0.074,-0.08
-0.085,0.042,0.127,0.021,-0.106,0.084,0.169,0.228,0.06,-0.08,-0.043,-0.051
0.0,0.117,0.116,-0.059,-0.058,0.116,0.07,0.198,0.065,-0.06,-0.032,-0.039
-0.05,0.119,0.168,-0.035,-0.109,0.143,0.026,0.201,0.097,-0.035,-0.023,-0.023
-0.006,0.112,0.118,-0.053,-0.062,0.114,0.003,0.201,0.095,-0.035,-0.014,-0.014
0.027,0.109,0.082,-0.068,-0.028,0.095,-0.027,0.22,0.094,-0.035,-0.008,0.006
-0.018,0.103,0.122,-0.043,-0.071,0.113,-0.037,0.219,0.092,-0.035,0.0,0.005
-0.016,0.099,0.115,-0.042,-0.065,0.107,-0.033,0.214,0.088,-0.036,0.005,-0.005
-0.015,0.096,0.11,-0.041,-0.063,0.103,-0.029,0.212,0.091,-0.034,0.014,0.005
0.001,0.092,0.091,-0.047,-0.045,0.092,-0.027,0.208,0.081,-0.032,0.012,-0.009
0.053,0.089,0.036,-0.071,0.008,0.062,-0.024,0.202,0.079,-0.029,0.004,-0.01
0.103,0.086,-0.016,-0.094,0.059,0.035,-0.025,0.19,0.071,-0.028,-0.004,0.001
0.095,0.081,-0.014,-0.087,0.054,0.033,-0.024,0.178,0.059,-0.022,-0.012,0.007
0.047,0.064,0.017,-0.055,0.015,0.04,0.004,0.156,0.032,-0.035,-0.019,-0.013
0.004,0.008,0.004,-0.006,0.0,0.006,0.016,0.131,-0.007,-0.069,-0.052,-0.047
-0.004,-0.034,-0.029,0.019,0.012,-0.031,0.029,0.101,-0.024,-0.095,-0.088,-0.068
-0.016,-0.09,-0.074,0.053,0.029,-0.082,0.05,0.061,-0.082,-0.164,-0.133,-0.108
-0.036,-0.179,-0.143,0.107,0.054,-0.161,0.038,0.038,-0.141,-0.222,-0.188,-0.15
-0.02,-0.208,-0.187,0.114,0.084,-0.197,0.041,0.023,-0.152,-0.237,-0.207,-0.183
-0.04,-0.211,-0.171,0.126,0.066,-0.191,0.027,0.014,-0.155,-0.239,-0.196,-0.192
-0.042,-0.163,-0.12,0.102,0.039,-0.141,0.042,0.062,-0.114,-0.19,-0.159,-0.154
0.013,-0.078,-0.092,0.033,0.053,-0.085,0.063,0.112,-0.059,-0.136,-0.111,-0.1
0.051,-0.009,-0.06,-0.021,0.055,-0.034,0.1,0.15,-0.015,-0.099,-0.08,-0.072
-0.013,0.055,0.068,-0.021,-0.041,0.061,0.169,0.171,0.029,-0.061,-0.043,-0.042
-0.041,0.103,0.144,-0.031,-0.093,0.124,0.144,0.155,0.068,-0.017,0.002,-0.003
0.037,0.158,0.121,-0.097,-0.042,0.139,0.083,0.13,0.07,-0.009,0.007,-0.006
0.025,0.154,0.129,-0.09,-0.053,0.141,0.046,0.132,0.065,-0.012,0.004,-0.007
0.006,0.111,0.106,-0.059,-0.05,0.109,0.012,0.125,0.064,-0.008,0.007,-0.002
0.06,0.105,0.045,-0.083,0.007,0.075,-0.017,0.117,0.056,-0.014,0.0,-0.009
0.021,0.096,0.075,-0.059,-0.027,0.085,0.0,0.126,0.06,0.014,0.028,0.023
-0.001,0.077,0.078,-0.038,-0.04,0.077,-0.022,0.093,0.037,-0.01,-0.01,-0.006
0.051,0.049,-0.002,-0.05,0.026,0.023,0.016,0.16,0.033,-0.044,-0.043,-0.049
0.051,-0.003,-0.055,-0.024,0.053,-0.029,0.075,0.279,0.083,-0.027,-0.036,-0.063
0.138,0.091,-0.048,-0.114,0.093,0.021,0.008,0.313,0.273,0.173,0.123,0.067
0.556,0.425,-0.132,-0.49,0.344,0.146,-0.386,-0.459,0.33,0.579,0.572,0.519
1.06,0.598,-0.463,-0.829,0.761,0.068,-0.86,-1.595,-0.068,0.493,0.583,0.704
0.564,0.21,-0.355,-0.387,0.46,-0.072,-0.493,-1.592,-0.701,-0.287,-0.023,0.277
-0.253,-0.243,0.01,0.248,-0.131,-0.116,0.068,-1.023,-0.894,-0.727,-0.401,-0.147
-0.225,-0.289,-0.064,0.257,-0.08,-0.176,0.114,-0.503,-0.505,-0.501,-0.361,-0.242
-0.148,-0.273,-0.125,0.211,-0.011,-0.199,0.091,-0.106,-0.255,-0.322,-0.282,-0.236
-0.135,-0.283,-0.148,0.209,0.007,-0.215,0.057,-0.018,-0.212,-0.287,-0.257,-0.243
-0.106,-0.281,-0.175,0.193,0.035,-0.228,0.039,-0.004,-0.19,-0.276,-0.258,-0.255
-0.113,-0.283,-0.17,0.198,0.028,-0.226,0.022,0.013,-0.193,-0.282,-0.259,-0.254
-0.048,-0.224,-0.177,0.136,0.065,-0.2,0.015,0.055,-0.163,-0.244,-0.215,-0.222
-0.038,-0.117,-0.079,0.078,0.02,-0.098,0.05,0.11,-0.084,-0.154,-0.13,-0.154
-0.048,-0.009,0.039,0.028,-0.043,0.015,0.114,0.179,-0.003,-0.077,-0.062,-0.091
-0.12,0.041,0.161,0.04,-0.141,0.1,0.176,0.218,0.022,-0.063,-0.042,-0.091
-0.063,0.089,0.152,-0.013,-0.108,0.121,0.12,0.19,0.051,-0.033,-0.017,-0.066
-0.021,0.125,0.147,-0.052,-0.084,0.136,0.034,0.172,0.07,-0.004,0.01,-0.028
-0.051,0.144,0.194,-0.047,-0.123,0.169,0.003,0.173,0.094,0.02,0.032,-0.019
0.009,0.155,0.146,-0.082,-0.069,0.151,-0.022,0.157,0.09,0.029,0.029,-0.011
0.0,0.146,0.145,-0.073,-0.073,0.145,-0.039,0.176,0.077,0.027,0.029,-0.002
-0.01,0.144,0.153,-0.067,-0.082,0.148,-0.051,0.195,0.072,0.028,0.024,0.003
0.002,0.135,0.133,-0.068,-0.066,0.134,-0.056,0.173,0.061,0.02,0.028,0.013
0.021,0.133,0.111,-0.077,-0.045,0.122,-0.048,0.186,0.076,0.022,0.058,0.033
0.062,0.122,0.059,-0.092,0.002,0.09,-0.049,0.188,0.066,0.011,0.055,0.03
0.048,0.105,0.056,-0.077,-0.005,0.08,-0.039,0.178,0.063,0.026,0.047,0.022
-0.002,0.093,0.095,-0.046,-0.049,0.094,-0.045,0.175,0.078,0.045,0.041,0.016
0.027,0.079,0.052,-0.054,-0.013,0.065,-0.052,0.139,0.048,0.013,0.033,0.008
0.061,0.065,0.004,-0.063,0.028,0.034,-0.004,0.107,0.014,-0.02,0.002,-0.016
0.036,0.0,-0.036,-0.018,0.036,-0.018,0.002,0.09,-0.018,-0.058,-0.04,-0.055
0.021,-0.043,-0.064,0.012,0.043,-0.053,-0.014,0.056,-0.073,-0.093,-0.075,-0.082
-0.036,-0.107,-0.071,0.072,0.018,-0.089,-0.017,0.023,-0.107,-0.137,-0.129,-0.127
-0.065,-0.18,-0.115,0.123,0.026,-0.148,-0.011,0.001,-0.134,-0.18,-0.169,-0.172
-0.032,-0.194,-0.162,0.113,0.065,-0.178,-0.012,-0.029,-0.17,-0.21,-0.202,-0.187
-0.046,-0.195,-0.148,0.121,0.051,-0.171,0.009,0.007,-0.136,-0.186,-0.181,-0.16
-0.051,-0.112,-0.061,0.082,0.005,-0.086,0.074,0.077,-0.057,-0.101,-0.114,-0.109
0.036,-0.002,-0.038,-0.017,0.037,-0.02,0.068,0.101,-0.015,-0.06,-0.082,-0.071
-0.01,0.062,0.072,-0.026,-0.041,0.067,0.142,0.136,0.038,-0.008,-0.04,-0.041
-0.06,0.111,0.171,-0.025,-0.116,0.141,0.151,0.137,0.085,0.036,-0.02,-0.031
0.019,0.156,0.137,-0.088,-0.059,0.146,0.036,0.102,0.078,0.033,-0.003,-0.018
0.003,0.158,0.155,-0.081,-0.076,0.156,0.029,0.117,0.07,0.029,0.021,-0.007
-0.007,0.141,0.147,-0.067,-0.077,0.144,-0.001,0.132,0.065,0.026,0.018,0.004
0.024,0.133,0.109,-0.079,-0.043,0.121,-0.048,0.114,0.052,0.021,0.013,0.007
0.035,0.126,0.091,-0.081,-0.028,0.108,-0.068,0.126,0.054,0.019,0.004,-0.008
0.035,0.113,0.078,-0.074,-0.022,0.095,-0.076,0.083,0.05,0.034,0.006,-0.008
0.048,0.089,0.041,-0.069,0.004,0.065,-0.028,0.12,0.044,0.025,-0.018,-0.027
0.008,0.073,0.065,-0.041,-0.029,0.068,0.019,0.245,0.093,0.032,-0.017,-0.045
0.034,0.092,0.058,-0.063,-0.012,0.074,0.011,0.367,0.271,0.181,0.09,0.032
0.374,0.35,-0.024,-0.362,0.199,0.163,-0.269,-0.133,0.379,0.538,0.454,0.382
0.962,0.616,-0.346,-0.789,0.654,0.135,-0.805,-1.377,0.087,0.625,0.637,0.669
0.786,0.305,-0.481,-0.545,0.633,-0.088,-0.693,-1.76,-0.617,-0.115,0.066,0.341
-0.123,-0.206,-0.083,0.165,-0.02,-0.145,-0.091,-1.234,-0.99,-0.726,-0.43,-0.133
-0.32,-0.31,0.01,0.315,-0.164,-0.15,0.064,-0.623,-0.598,-0.508,-0.356,-0.242
-0.197,-0.274,-0.077,0.236,-0.059,-0.175,0.027,-0.146,-0.257,-0.267,-0.249,-0.224
-0.213,-0.284,-0.071,0.249,-0.071,-0.178,0.024,-0.022,-0.206,-0.226,-0.228,-0.229
-0.163,-0.28,-0.117,0.222,-0.023,-0.198,0.002,0.011,-0.183,-0.212,-0.225,-0.221
-0.172,-0.288,-0.116,0.23,-0.028,-0.201,-0.03,0.015,-0.178,-0.203,-0.223,-0.222
-0.092,-0.24,-0.149,0.166,0.029,-0.194,-0.029,0.03,-0.132,-0.158,-0.205,-0.215
-0.043,-0.131,-0.088,0.088,0.023,-0.109,0.016,0.081,-0.079,-0.109,-0.151,-0.156
-0.077,-0.026,0.051,0.051,-0.064,0.013,0.06,0.135,0.001,-0.034,-0.076,-0.094
-0.077,0.045,0.122,0.016,-0.1,0.083,0.132,0.202,0.051,-0.002,-0.038,-0.076
-0.072,0.101,0.173,-0.015,-0.123,0.137,0.082,0.185,0.078,0.035,0.013,-0.037
-0.071,0.136,0.208,-0.033,-0.14,0.172,0.005,0.159,0.117,0.091,0.06,0.006
-0.052,0.139,0.191,-0.044,-0.122,0.164,-0.039,0.156,0.121,0.101,0.06,0.015
-0.056,0.132,0.187,-0.038,-0.122,0.159,-0.086,0.146,0.11,0.1,0.059,0.029
-0.067,0.129,0.196,-0.031,-0.132,0.162,-0.088,0.142,0.1,0.1,0.069,0.039
-0.041,0.123,0.164,-0.041,-0.103,0.143,-0.109,0.133,0.091,0.099,0.07,0.04
-0.039,0.121,0.16,-0.041,-0.099,0.14,-0.108,0.131,0.088,0.101,0.067,0.041
-0.018,0.125,0.144,-0.054,-0.081,0.134,-0.099,0.126,0.083,0.095,0.063,0.039
-0.037,0.119,0.156,-0.041,-0.097,0.137,-0.099,0.125,0.082,0.096,0.062,0.041
-0.004,0.113,0.116,-0.055,-0.06,0.114,-0.091,0.118,0.074,0.093,0.058,0.038
0.026,0.105,0.079,-0.066,-0.026,0.092,-0.09,0.126,0.077,0.097,0.058,0.041
-0.055,0.1,0.155,-0.023,-0.105,0.128,-0.08,0.139,0.08,0.095,0.081,0.037
0.018,0.09,0.072,-0.055,-0.027,0.081,-0.071,0.096,0.033,0.047,0.045,-0.007
0.065,0.053,-0.012,-0.06,0.038,0.02,-0.064,0.064,-0.003,0.014,-0.019,-0.039
-0.017,-0.011,0.006,0.014,-0.012,-0.002,-0.054,0.039,-0.022,-0.017,-0.049,-0.059
-0.073,-0.088,-0.015,0.081,-0.029,-0.051,-0.054,0.001,-0.074,-0.072,-0.095,-0.103
-0.065,-0.137,-0.072,0.101,0.004,-0.104,-0.044,-0.005,-0.108,-0.1,-0.143,-0.143
-0.023,-0.153,-0.131,0.088,0.054,-0.141,-0.045,-0.018,-0.112,-0.112,-0.171,-0.171
-0.045,-0.141,-0.096,0.093,0.026,-0.118,-0.035,0.01,-0.084,-0.084,-0.138,-0.141
-0.031,-0.078,-0.047,0.055,0.008,-0.063,-0.007,0.067,-0.02,-0.026,-0.08,-0.089
-0.016,0.021,0.037,-0.003,-0.027,0.029,0.033,0.117,0.033,0.016,-0.031,-0.052
-0.113,0.075,0.189,0.019,-0.151,0.132,0.128,0.17,0.098,0.085,0.051,0.017
-0.093,0.115,0.207,-0.011,-0.15,0.161,0.106,0.168,0.133,0.124,0.08,0.046
0.0,0.185,0.185,-0.093,-0.093,0.185,0.027,0.143,0.116,0.11,0.068,0.035
-0.018,0.191,0.21,-0.087,-0.114,0.2,0.008,0.148,0.113,0.108,0.069,0.036
-0.027,0.163,0.19,-0.068,-0.109,0.176,-0.036,0.141,0.105,0.102,0.063,0.031
0.009,0.154,0.145,-0.082,-0.068,0.149,-0.077,0.127,0.094,0.093,0.06,0.029
0.014,0.146,0.133,-0.08,-0.06,0.139,-0.063,0.141,0.096,0.104,0.057,0.035
-0.006,0.125,0.131,-0.06,-0.069,0.128,-0.072,0.083,0.072,0.102,0.044,0.037
-0.042,0.1,0.142,-0.029,-0.092,0.121,-0.038,0.142,0.094,0.092,0.04,0.026
0.013,0.1,0.087,-0.057,-0.037,0.093,0.01,0.25,0.131,0.087,0.028,-0.011
0.047,0.134,0.087,-0.091,-0.021,0.11,-0.004,0.358,0.313,0.267,0.158,0.083
0.336,0.42,0.084,-0.378,0.126,0.252,-0.273,-0.15,0.467,0.697,0.577,0.493
1.058,0.684,-0.374,-0.87,0.715,0.155,-0.844,-1.421,0.09,0.668,0.654,0.714
0.699,0.278,-0.421,-0.488,0.56,-0.071,-0.665,-1.741,-0.647,-0.159,0.031,0.32
-0.237,-0.235,0.002,0.236,-0.119,-0.117,-0.033,-1.153,-0.935,-0.69,-0.422,-0.125
-0.293,-0.274,0.019,0.284,-0.156,-0.127,0.062,-0.574,-0.522,-0.422,-0.317,-0.212
-0.188,-0.223,-0.035,0.206,-0.076,-0.129,0.027,-0.142,-0.213,-0.201,-0.201,-0.188
-0.182,-0.226,-0.044,0.204,-0.068,-0.135,0.021,0.012,-0.164,-0.175,-0.189,-0.192
-0.172,-0.232,-0.06,0.203,-0.056,-0.146,-0.011,0.015,-0.129,-0.148,-0.172,-0.19
-0.114,-0.239,-0.125,0.176,0.006,-0.181,-0.063,0.008,-0.136,-0.164,-0.182,-0.201
-0.071,-0.192,-0.122,0.132,0.026,-0.157,-0.051,0.07,-0.082,-0.104,-0.146,-0.169
-0.091,-0.075,0.016,0.083,-0.053,-0.029,0.018,0.114,-0.021,-0.034,-0.077,-0.108
-0.024,0.029,0.054,-0.003,-0.039,0.041,0.063,0.143,0.019,0.014,-0.025,-0.071
-0.078,0.069,0.147,0.004,-0.113,0.108,0.146,0.193,0.077,0.078,0.015,-0.04
-0.09,0.129,0.219,-0.02,-0.155,0.174,0.095,0.206,0.11,0.111,0.049,-0.004
-0.032,0.189,0.221,-0.079,-0.127,0.205,0.024,0.189,0.138,0.14,0.094,0.034
-0.048,0.194,0.242,-0.073,-0.145,0.218,-0.014,0.18,0.16,0.158,0.114,0.048
0.0,0.183,0.183,-0.091,-0.092,0.182,-0.071,0.172,0.152,0.149,0.111,0.055
0.001,0.186,0.185,-0.094,-0.092,0.185,-0.081,0.166,0.156,0.139,0.103,0.061
0.007,0.184,0.176,-0.096,-0.085,0.18,-0.106,0.159,0.154,0.159,0.122,0.078
0.03,0.176,0.146,-0.103,-0.058,0.161,-0.08,0.152,0.148,0.188,0.146,0.097
-0.021,0.169,0.191,-0.074,-0.106,0.18,-0.063,0.146,0.137,0.176,0.134,0.089
-0.017,0.161,0.178,-0.073,-0.098,0.17,-0.059,0.139,0.131,0.171,0.129,0.085
0.014,0.154,0.141,-0.084,-0.064,0.147,-0.067,0.134,0.126,0.166,0.121,0.081
0.027,0.147,0.12,-0.087,-0.047,0.133,-0.105,0.125,0.12,0.16,0.114,0.076
0.029,0.136,0.106,-0.083,-0.039,0.121,-0.07,0.149,0.116,0.156,0.105,0.07
0.019,0.108,0.089,-0.064,-0.036,0.099,-0.037,0.167,0.096,0.136,0.081,0.046
-0.004,0.069,0.073,-0.033,-0.039,0.07,-0.039,0.141,0.062,0.1,0.052,0.019
-0.033,0.008,0.04,0.013,-0.037,0.024,-0.009,0.101,0.007,0.049,0.006,-0.019
-0.069,-0.065,0.003,0.067,-0.036,-0.031,0.021,0.065,-0.026,0.005,-0.046,-0.072
-0.106,-0.127,-0.021,0.116,-0.043,-0.073,0.039,0.05,-0.049,-0.031,-0.082,-0.102
-0.114,-0.166,-0.051,0.14,-0.031,-0.108,0.04,0.045,-0.074,-0.033,-0.085,-0.108
-0.055,-0.126,-0.071,0.091,0.008,-0.099,0.039,0.058,-0.052,-0.02,-0.071,-0.095
-0.02,-0.035,-0.014,0.028,-0.003,-0.024,0.044,0.1,0.02,0.035,-0.02,-0.054
-0.067,0.051,0.118,0.008,-0.093,0.084,0.07,0.168,0.102,0.12,0.052,-0.004
-0.05,0.099,0.149,-0.025,-0.1,0.124,0.139,0.185,0.134,0.15,0.093,0.031
-0.042,0.133,0.174,-0.046,-0.108,0.153,0.135,0.181,0.156,0.167,0.115,0.052
-0.037,0.193,0.23,-0.078,-0.134,0.211,0.073,0.177,0.181,0.198,0.138,0.086
0.007,0.202,0.196,-0.105,-0.095,0.199,0.048,0.173,0.199,0.22,0.151,0.089
0.01,0.18,0.17,-0.094,-0.08,0.175,0.013,0.174,0.186,0.214,0.152,0.078
0.023,0.165,0.142,-0.094,-0.06,0.153,-0.031,0.151,0.174,0.208,0.144,0.08
0.012,0.139,0.128,-0.076,-0.059,0.134,-0.034,0.143,0.167,0.2,0.131,0.064
0.02,0.118,0.098,-0.069,-0.039,0.107,-0.046,0.111,0.149,0.196,0.133,0.075
0.015,0.107,0.092,-0.062,-0.039,0.1,-0.005,0.191,0.191,0.213,0.13,0.076
0.047,0.093,0.046,-0.07,0.0,0.07,0.036,0.286,0.222,0.208,0.105,0.033
0.142,0.152,0.01,-0.147,0.066,0.08,-0.009,0.352,0.388,0.396,0.25,0.146
0.514,0.456,-0.058,-0.485,0.286,0.198,-0.347,-0.299,0.466,0.754,0.639,0.543
1.083,0.632,-0.451,-0.857,0.766,0.09,-0.834,-1.518,0.009,0.602,0.622,0.712
0.569,0.214,-0.355,-0.391,0.462,-0.071,-0.511,-1.642,-0.674,-0.194,0.003,0.278
-0.31,-0.233,0.077,0.272,-0.194,-0.078,0.078,-1.021,-0.802,-0.556,-0.323,-0.103
-0.32,-0.26,0.059,0.29,-0.189,-0.1,0.105,-0.453,-0.372,-0.251,-0.197,-0.131
-0.221,-0.223,-0.002,0.222,-0.109,-0.112,0.062,-0.059,-0.145,-0.097,-0.118,-0.158
-0.189,-0.236,-0.047,0.212,-0.071,-0.141,0.048,0.045,-0.097,-0.073,-0.12,-0.168
-0.111,-0.236,-0.125,0.174,0.007,-0.18,0.031,0.072,-0.07,-0.058,-0.122,-0.167
-0.083,-0.241,-0.158,0.163,0.037,-0.199,0.027,0.059,-0.078,-0.062,-0.115,-0.17
-0.056,-0.189,-0.133,0.123,0.039,-0.161,0.018,0.085,-0.029,-0.014,-0.085,-0.117
-0.037,-0.068,-0.031,0.052,-0.002,-0.049,0.03,0.133,0.04,0.046,-0.015,-0.066
-0.043,0.026,0.068,0.008,-0.056,0.047,0.095,0.185,0.117,0.129,0.068,-0.014
-0.101,0.068,0.168,0.016,-0.135,0.118,0.188,0.241,0.165,0.163,0.112,0.015
-0.091,0.127,0.218,-0.018,-0.155,0.173,0.131,0.228,0.201,0.198,0.147,0.06
-0.047,0.177,0.224,-0.066,-0.135,0.2,0.057,0.204,0.212,0.233,0.176,0.104
-0.03,0.19,0.22,-0.081,-0.125,0.205,0.027,0.201,0.206,0.228,0.174,0.102
0.012,0.181,0.17,-0.097,-0.079,0.175,-0.025,0.193,0.198,0.238,0.177,0.111
-0.022,0.169,0.191,-0.074,-0.107,0.18,-0.032,0.191,0.192,0.255,0.181,0.105
-0.04,0.16,0.2,-0.06,-0.12,0.18,-0.045,0.18,0.181,0.233,0.166,0.115
-0.008,0.15,0.158,-0.072,-0.083,0.154,-0.044,0.191,0.19,0.228,0.176,0.133
-0.024,0.14,0.164,-0.058,-0.095,0.152,-0.035,0.216,0.216,0.253,0.201,0.128
-0.01,0.143,0.153,-0.067,-0.081,0.147,-0.049,0.21,0.207,0.246,0.197,0.131
0.014,0.151,0.136,-0.083,-0.061,0.143,-0.038,0.206,0.201,0.238,0.193,0.128
0.012,0.141,0.129,-0.077,-0.059,0.135,-0.026,0.202,0.194,0.232,0.192,0.132
0.032,0.135,0.103,-0.084,-0.036,0.119,-0.013,0.196,0.187,0.224,0.183,0.116
0.019,0.106,0.087,-0.063,-0.034,0.096,0.003,0.192,0.179,0.215,0.157,0.083
0.018,0.053,0.035,-0.036,-0.009,0.044,0.009,0.173,0.145,0.187,0.118,0.053
-0.002,-0.008,-0.006,0.005,0.002,-0.007,0.013,0.131,0.102,0.146,0.082,0.03
-0.11,-0.083,0.027,0.097,-0.068,-0.028,0.033,0.097,0.05,0.083,0.037,0.005
-0.077,-0.143,-0.066,0.11,-0.005,-0.104,0.04,0.102,0.019,0.051,0.019,-0.056
-0.026,-0.188,-0.162,0.107,0.069,-0.175,0.003,0.088,0.008,0.04,0.004,-0.071
-0.049,-0.158,-0.109,0.104,0.03,-0.133,0.02,0.108,0.043,0.068,0.007,-0.031
0.01,-0.039,-0.049,0.014,0.03,-0.044,0.069,0.158,0.106,0.136,0.073,0.008
0.046,0.059,0.013,-0.052,0.016,0.035,0.101,0.186,0.155,0.187,0.127,0.05
-0.022,0.091,0.113,-0.035,-0.068,0.102,0.163,0.224,0.201,0.236,0.167,0.086
-0.033,0.126,0.159,-0.046,-0.096,0.142,0.143,0.241,0.221,0.26,0.192,0.11
-0.021,0.174,0.195,-0.077,-0.108,0.184,0.083,0.231,0.265,0.297,0.226,0.143
0.03,0.172,0.143,-0.101,-0.057,0.157,0.046,0.236,0.281,0.316,0.25,0.159
0.068,0.155,0.087,-0.112,-0.01,0.121,0.004,0.237,0.264,0.303,0.24,0.146
0.018,0.148,0.13,-0.083,-0.056,0.138,-0.016,0.228,0.258,0.328,0.26,0.166
0.043,0.132,0.09,-0.088,-0.024,0.111,-0.038,0.225,0.25,0.333,0.268,0.183
0.055,0.124,0.07,-0.09,-0.008,0.097,-0.052,0.15,0.233,0.293,0.234,0.151
0.056,0.108,0.053,-0.082,0.001,0.08,0.017,0.208,0.229,0.28,0.245,0.144
0.044,0.082,0.038,-0.063,0.003,0.059,0.062,0.311,0.289,0.309,0.239,0.129
0.137,0.131,-0.007,-0.134,0.072,0.062,0.004,0.379,0.465,0.483,0.317,0.189
0.521,0.432,-0.089,-0.476,0.305,0.171,-0.319,-0.198,0.559,0.848,0.708,0.583
1.069,0.635,-0.434,-0.852,0.751,0.101,-0.837,-1.425,0.149,0.753,0.745,0.79
0.667,0.196,-0.471,-0.431,0.569,-0.137,-0.577,-1.644,-0.588,-0.075,0.1,0.357
-0.248,-0.289,-0.041,0.269,-0.103,-0.165,0.033,-1.041,-0.775,-0.496,-0.278,-0.055
-0.255,-0.3,-0.045,0.278,-0.105,-0.172,0.093,-0.478,-0.318,-0.177,-0.141,-0.104
-0.197,-0.255,-0.058,0.227,-0.069,-0.156,0.076,-0.07,-0.071,-0.008,-0.054,-0.094
-0.205,-0.256,-0.051,0.231,-0.077,-0.154,0.089,0.059,-0.011,0.032,-0.042,-0.092
-0.067,-0.254,-0.187,0.161,0.061,-0.22,0.029,0.079,0.038,0.067,-0.028,-0.087
-0.116,-0.261,-0.145,0.189,0.015,-0.203,-0.002,0.075,0.018,0.045,-0.027,-0.077
-0.054,-0.186,-0.132,0.121,0.039,-0.158,0.026,0.106,0.073,0.107,0.029,-0.03
0.017,-0.078,-0.095,0.031,0.056,-0.086,0.058,0.144,0.129,0.163,0.094,0.009
-0.031,0.011,0.041,0.01,-0.036,0.026,0.118,0.203,0.203,0.243,0.158,0.053
-0.048,0.057,0.105,-0.005,-0.077,0.081,0.175,0.237,0.239,0.276,0.192,0.088
-0.04,0.11,0.15,-0.035,-0.095,0.13,0.118,0.227,0.271,0.308,0.233,0.121
-0.011,0.165,0.176,-0.077,-0.094,0.171,0.06,0.227,0.3,0.337,0.27,0.139
0.004,0.158,0.154,-0.081,-0.075,0.156,0.02,0.215,0.283,0.319,0.263,0.138
-0.013,0.15,0.163,-0.069,-0.088,0.156,-0.008,0.221,0.283,0.346,0.265,0.166
0.018,0.144,0.126,-0.081,-0.054,0.135,-0.038,0.24,0.272,0.331,0.266,0.173
0.037,0.134,0.097,-0.086,-0.03,0.115,-0.063,0.24,0.269,0.317,0.263,0.167
0.029,0.131,0.102,-0.081,-0.036,0.116,-0.032,0.241,0.26,0.321,0.268,0.173
-0.008,0.129,0.137,-0.061,-0.073,0.133,-0.007,0.245,0.259,0.329,0.27,0.167
-0.026,0.135,0.16,-0.055,-0.093,0.147,0.005,0.245,0.276,0.35,0.276,0.175
0.07,0.129,0.059,-0.1,0.005,0.094,-0.011,0.244,0.272,0.361,0.301,0.205
0.097,0.115,0.018,-0.106,0.039,0.066,-0.035,0.232,0.26,0.348,0.286,0.194
0.059,0.107,0.048,-0.083,0.005,0.078,-0.012,0.226,0.255,0.323,0.255,0.165
0.062,0.084,0.022,-0.073,0.02,0.053,0.012,0.215,0.24,0.291,0.23,0.134
0.071,0.045,-0.026,-0.058,0.048,0.009,0.028,0.205,0.214,0.258,0.189,0.102
-0.004,-0.026,-0.022,0.015,0.009,-0.024,0.047,0.18,0.186,0.238,0.158,0.087
-0.029,-0.114,-0.085,0.072,0.029,-0.099,0.034,0.128,0.147,0.202,0.119,0.035
0.01,-0.161,-0.171,0.075,0.091,-0.166,0.017,0.099,0.123,0.17,0.08,-0.01
-0.005,-0.181,-0.176,0.094,0.086,-0.178,0.033,0.089,0.1,0.142,0.066,0.002
0.022,-0.136,-0.158,0.057,0.091,-0.147,0.056,0.138,0.144,0.182,0.116,0.042
0.077,-0.048,-0.125,-0.015,0.101,-0.086,0.074,0.178,0.194,0.223,0.16,0.071
0.059,0.033,-0.026,-0.046,0.043,0.003,0.121,0.228,0.251,0.277,0.209,0.115
0.007,0.086,0.079,-0.046,-0.036,0.082,0.169,0.278,0.324,0.348,0.267,0.156
0.028,0.112,0.084,-0.07,-0.028,0.097,0.149,0.247,0.32,0.339,0.261,0.159
0.014,0.162,0.149,-0.088,-0.068,0.155,0.098,0.249,0.363,0.383,0.304,0.204
0.088,0.178,0.091,-0.133,-0.002,0.134,0.061,0.239,0.387,0.408,0.326,0.22
0.123,0.165,0.042,-0.144,0.04,0.103,0.03,0.221,0.372,0.39,0.305,0.195
0.085,0.153,0.068,-0.119,0.008,0.11,0.007,0.209,0.356,0.389,0.314,0.193
0.107,0.133,0.026,-0.12,0.04,0.079,0.002,0.204,0.336,0.377,0.313,0.203
0.098,0.131,0.033,-0.115,0.033,0.082,-0.012,0.196,0.336,0.373,0.294,0.202
0.142,0.123,-0.02,-0.132,0.081,0.051,0.035,0.238,0.321,0.363,0.287,0.168
0.124,0.102,-0.022,-0.113,0.073,0.04,0.054,0.336,0.375,0.381,0.288,0.149
0.198,0.156,-0.042,-0.177,0.12,0.057,0.002,0.432,0.568,0.587,0.422,0.265
0.61,0.411,-0.2,-0.51,0.405,0.105,-0.308,-0.146,0.606,0.889,0.765,0.629
1.156,0.603,-0.553,-0.879,0.854,0.025,-0.805,-1.344,0.157,0.709,0.733,0.788
0.689,0.291,-0.399,-0.49,0.544,-0.054,-0.494,-1.52,-0.425,0.039,0.22,0.424
-0.251,-0.139,0.112,0.195,-0.182,-0.013,0.141,-0.883,-0.513,-0.282,-0.077,0.058
-0.218,-0.249,-0.031,0.234,-0.094,-0.139,0.178,-0.403,-0.19,-0.082,-0.038,-0.036
-0.127,-0.265,-0.139,0.196,0.007,-0.202,0.122,-0.028,0.036,0.078,0.032,-0.043
-0.131,-0.266,-0.136,0.199,0.003,-0.201,0.107,0.116,0.111,0.132,0.064,-0.046
-0.064,-0.262,-0.199,0.163,0.068,-0.23,0.077,0.109,0.103,0.153,0.068,-0.069
-0.098,-0.27,-0.172,0.184,0.038,-0.221,0.083,0.105,0.092,0.136,0.056,-0.064
0.005,-0.205,-0.21,0.101,0.108,-0.207,0.077,0.141,0.139,0.16,0.089,-0.023
0.016,-0.093,-0.109,0.039,0.063,-0.101,0.083,0.207,0.228,0.24,0.176,0.031
0.047,-0.002,-0.049,-0.022,0.048,-0.026,0.102,0.245,0.3,0.316,0.237,0.093
0.006,0.039,0.033,-0.022,-0.014,0.036,0.207,0.297,0.34,0.345,0.272,0.122
-0.048,0.081,0.13,-0.017,-0.09,0.106,0.212,0.317,0.374,0.377,0.304,0.149
0.015,0.152,0.137,-0.084,-0.062,0.145,0.119,0.315,0.402,0.411,0.34,0.185
0.036,0.181,0.145,-0.109,-0.054,0.163,0.081,0.309,0.439,0.462,0.372,0.213
0.074,0.167,0.092,-0.121,-0.009,0.129,0.021,0.275,0.415,0.467,0.367,0.216
0.078,0.153,0.074,-0.116,0.002,0.113,0.018,0.296,0.434,0.453,0.387,0.211
0.091,0.145,0.054,-0.118,0.018,0.099,0.018,0.307,0.447,0.45,0.392,0.21
0.061,0.145,0.083,-0.103,-0.012,0.114,0.016,0.297,0.422,0.439,0.378,0.204
0.053,0.145,0.092,-0.099,-0.02,0.118,0.03,0.299,0.424,0.441,0.376,0.206
0.135,0.145,0.011,-0.14,0.062,0.078,0.014,0.29,0.412,0.437,0.363,0.208
0.111,0.141,0.03,-0.126,0.04,0.086,0.018,0.293,0.427,0.456,0.382,0.23
0.095,0.125,0.03,-0.111,0.033,0.077,0.001,0.275,0.435,0.472,0.391,0.237
0.101,0.108,0.007,-0.105,0.046,0.057,0.029,0.279,0.432,0.471,0.382,0.225
0.093,0.095,0.002,-0.094,0.045,0.048,0.051,0.278,0.411,0.444,0.351,0.202
0.155,0.068,-0.088,-0.111,0.121,-0.01,0.045,0.239,0.373,0.382,0.303,0.15
0.18,0.027,-0.153,-0.103,0.167,-0.063,0.066,0.215,0.345,0.347,0.274,0.133
0.097,-0.053,-0.15,-0.022,0.124,-0.101,0.078,0.177,0.296,0.313,0.244,0.102
0.032,-0.13,-0.162,0.05,0.097,-0.146,0.092,0.155,0.257,0.265,0.189,0.066
0.034,-0.171,-0.205,0.069,0.12,-0.188,0.098,0.145,0.258,0.243,0.149,0.073
0.047,-0.184,-0.231,0.069,0.14,-0.207,0.094,0.137,0.255,0.248,0.16,0.068
0.099,-0.11,-0.209,0.006,0.154,-0.159,0.104,0.177,0.281,0.291,0.21,0.074
0.139,-0.022,-0.16,-0.058,0.15,-0.091,0.103,0.204,0.339,0.347,0.272,0.115
0.085,0.042,-0.044,-0.063,0.064,-0.001,0.15,0.264,0.409,0.405,0.327,0.179
0.012,0.09,0.078,-0.052,-0.033,0.084,0.232,0.309,0.482,0.46,0.371,0.193
0.081,0.128,0.047,-0.105,0.016,0.088,0.173,0.279,0.504,0.472,0.384,0.185
0.114,0.189,0.075,-0.152,0.019,0.132,0.096,0.272,0.503,0.493,0.409,0.24
0.072,0.192,0.12,-0.132,-0.025,0.156,0.085,0.255,0.498,0.504,0.404,0.258
0.132,0.171,0.04,-0.152,0.046,0.105,0.063,0.252,0.5,0.489,0.409,0.254
0.208,0.16,-0.048,-0.183,0.128,0.055,0.042,0.239,0.481,0.484,0.419,0.251
0.188,0.145,-0.043,-0.167,0.115,0.051,0.038,0.248,0.473,0.473,0.395,0.25
0.124,0.135,0.011,-0.13,0.056,0.073,0.017,0.231,0.468,0.465,0.385,0.24
0.111,0.088,-0.023,-0.099,0.067,0.032,0.03,0.24,0.453,0.457,0.37,0.206
0.153,0.066,-0.087,-0.109,0.119,-0.01,0.084,0.34,0.467,0.454,0.37,0.196
0.272,0.095,-0.176,-0.183,0.224,-0.04,0.051,0.438,0.609,0.585,0.425,0.232
0.481,0.341,-0.14,-0.411,0.31,0.101,-0.146,0.086,0.737,0.931,0.798,0.6
1.081,0.668,-0.413,-0.875,0.747,0.127,-0.689,-1.078,0.455,1.013,1.003,0.945
0.977,0.482,-0.495,-0.729,0.736,-0.007,-0.642,-1.563,-0.106,0.433,0.56,0.681
0.057,0.025,-0.033,-0.041,0.045,-0.004,0.013,-0.984,-0.359,-0.083,0.14,0.257
