-0.099,-0.136,-0.037,0.118,-0.031,-0.086,0.252,0.197,-0.222,-0.393,-0.386,-0.22
-0.043,0.017,0.06,0.013,-0.052,0.038,0.255,0.225,-0.093,-0.276,-0.283,-0.131
0.341,0.441,0.1,-0.391,0.12,0.27,-0.186,-0.242,0.363,0.25,0.194,0.303
0.636,1.147,0.511,-0.892,0.062,0.829,-0.891,-1.199,0.999,1.08,0.985,1.033
0.481,0.998,0.517,-0.739,-0.018,0.757,-0.923,-1.371,0.802,0.925,0.883,1.003
0.13,-0.089,-0.219,-0.02,0.174,-0.154,-0.569,-1.047,-0.376,-0.321,-0.214,0.087
-0.054,-0.302,-0.249,0.178,0.098,-0.275,-0.259,-0.65,-0.543,-0.536,-0.471,-0.218
-0.05,-0.151,-0.101,0.1,0.026,-0.126,-0.059,-0.317,-0.239,-0.341,-0.337,-0.155
-0.016,-0.12,-0.104,0.068,0.044,-0.111,-0.037,-0.211,-0.249,-0.359,-0.335,-0.159
-0.014,-0.048,-0.035,0.031,0.01,-0.041,-0.028,-0.153,-0.186,-0.294,-0.284,-0.127
-0.015,-0.056,-0.041,0.035,0.013,-0.048,-0.02,-0.136,-0.189,-0.308,-0.305,-0.136
-0.014,-0.03,-0.017,0.022,0.002,-0.023,-0.019,-0.119,-0.165,-0.276,-0.277,-0.112
0.0,-0.026,-0.026,0.013,0.013,-0.025,-0.015,-0.103,-0.166,-0.285,-0.282,-0.118
-0.002,-0.017,-0.014,0.01,0.006,-0.015,-0.013,-0.091,-0.158,-0.27,-0.27,-0.114
0.003,-0.007,-0.01,0.002,0.007,-0.009,-0.009,-0.085,-0.149,-0.265,-0.267,-0.115
0.042,0.025,-0.017,-0.034,0.03,0.004,-0.009,-0.081,-0.148,-0.262,-0.266,-0.116
0.053,0.022,-0.031,-0.037,0.041,-0.004,-0.003,-0.073,-0.135,-0.25,-0.258,-0.113
0.04,0.012,-0.027,-0.026,0.033,-0.007,0.0,-0.07,-0.132,-0.245,-0.258,-0.109
0.031,0.013,-0.018,-0.021,0.024,-0.002,0.003,-0.053,-0.12,-0.233,-0.252,-0.099
0.043,0.029,-0.014,-0.036,0.028,0.008,0.008,-0.029,-0.116,-0.228,-0.247,-0.095
0.058,0.053,-0.005,-0.056,0.031,0.024,0.01,0.004,-0.103,-0.213,-0.238,-0.086
0.031,0.036,0.005,-0.033,0.013,0.02,0.0,0.03,-0.079,-0.204,-0.227,-0.079
0.037,0.057,0.02,-0.048,0.008,0.039,-0.008,0.073,-0.046,-0.176,-0.207,-0.066
0.07,0.101,0.031,-0.086,0.02,0.066,0.001,0.15,-0.003,-0.135,-0.17,-0.058
0.077,0.122,0.046,-0.1,0.015,0.084,0.008,0.238,0.05,-0.095,-0.138,-0.034
0.099,0.171,0.072,-0.135,0.013,0.121,0.014,0.338,0.128,-0.039,-0.105,0.01
0.135,0.221,0.086,-0.178,0.024,0.153,0.009,0.438,0.211,0.03,-0.04,0.062
0.181,0.274,0.093,-0.228,0.044,0.183,-0.003,0.495,0.291,0.104,0.022,0.116
0.198,0.317,0.12,-0.258,0.039,0.218,-0.011,0.495,0.343,0.164,0.067,0.157
0.189,0.328,0.139,-0.259,0.025,0.233,-0.025,0.487,0.349,0.192,0.107,0.196
0.182,0.324,0.143,-0.253,0.019,0.233,-0.033,0.42,0.333,0.172,0.12,0.198
0.147,0.297,0.15,-0.222,-0.002,0.223,-0.027,0.289,0.257,0.129,0.076,0.165
0.089,0.25,0.16,-0.17,-0.036,0.204,-0.022,0.154,0.141,0.053,0.005,0.115
0.03,0.192,0.162,-0.111,-0.067,0.177,-0.019,0.043,0.033,-0.041,-0.06,0.052
-0.025,0.134,0.159,-0.055,-0.092,0.146,-0.014,-0.035,-0.049,-0.104,-0.11,0.003
-0.058,0.098,0.156,-0.021,-0.107,0.127,-0.01,-0.077,-0.101,-0.146,-0.14,-0.019
-0.067,0.087,0.153,-0.01,-0.11,0.12,-0.01,-0.106,-0.134,-0.176,-0.164,-0.027
-0.074,0.076,0.15,-0.001,-0.112,0.112,-0.01,-0.127,-0.145,-0.191,-0.177,-0.041
-0.079,0.072,0.151,0.003,-0.115,0.111,-0.01,-0.124,-0.158,-0.187,-0.174,-0.045
-0.086,0.069,0.155,0.008,-0.12,0.112,-0.01,-0.125,-0.162,-0.183,-0.175,-0.045
-0.092,0.066,0.157,0.013,-0.125,0.111,-0.009,-0.125,-0.159,-0.181,-0.175,-0.045
-0.099,0.061,0.16,0.019,-0.13,0.11,-0.013,-0.125,-0.16,-0.178,-0.175,-0.044
-0.103,0.061,0.163,0.021,-0.133,0.112,-0.015,-0.121,-0.155,-0.175,-0.171,-0.046
-0.092,0.074,0.166,0.009,-0.129,0.119,-0.015,-0.11,-0.155,-0.174,-0.169,-0.043
-0.085,0.076,0.161,0.005,-0.124,0.118,-0.015,-0.1,-0.156,-0.175,-0.17,-0.04
-0.085,0.074,0.16,0.005,-0.123,0.116,-0.015,-0.092,-0.16,-0.175,-0.169,-0.04
-0.085,0.075,0.16,0.005,-0.123,0.117,-0.014,-0.095,-0.16,-0.175,-0.171,-0.04
-0.085,0.075,0.16,0.005,-0.123,0.117,-0.011,-0.098,-0.162,-0.175,-0.169,-0.04
-0.085,0.075,0.16,0.005,-0.123,0.117,-0.01,-0.102,-0.166,-0.175,-0.165,-0.04
-0.087,0.072,0.159,0.008,-0.123,0.115,-0.01,-0.105,-0.164,-0.178,-0.165,-0.045
-0.087,0.067,0.154,0.009,-0.12,0.11,-0.01,-0.108,-0.17,-0.181,-0.165,-0.046
-0.084,0.065,0.149,0.01,-0.117,0.106,-0.01,-0.117,-0.18,-0.184,-0.165,-0.045
-0.084,0.06,0.144,0.012,-0.114,0.102,-0.012,-0.119,-0.187,-0.187,-0.165,-0.045
-0.083,0.057,0.14,0.013,-0.112,0.098,-0.015,-0.123,-0.194,-0.19,-0.161,-0.045
-0.082,0.053,0.135,0.014,-0.109,0.094,-0.018,-0.136,-0.199,-0.19,-0.159,-0.046
-0.081,0.05,0.131,0.015,-0.106,0.09,-0.021,-0.142,-0.206,-0.19,-0.16,-0.049
-0.08,0.05,0.13,0.015,-0.105,0.09,-0.025,-0.148,-0.219,-0.19,-0.16,-0.05
-0.082,0.047,0.129,0.017,-0.105,0.088,-0.025,-0.15,-0.23,-0.19,-0.16,-0.05
-0.081,0.045,0.126,0.018,-0.104,0.086,-0.021,-0.15,-0.237,-0.19,-0.159,-0.05
-0.079,0.044,0.123,0.017,-0.101,0.084,-0.017,-0.153,-0.24,-0.19,-0.151,-0.05
-0.086,0.043,0.128,0.021,-0.107,0.085,-0.014,-0.156,-0.255,-0.187,-0.143,-0.048
-0.091,0.036,0.127,0.028,-0.109,0.081,-0.011,-0.153,-0.254,-0.183,-0.135,-0.039
-0.08,0.062,0.142,0.009,-0.111,0.102,-0.006,-0.139,-0.247,-0.178,-0.127,-0.031
-0.067,0.113,0.18,-0.023,-0.124,0.146,0.001,-0.116,-0.235,-0.17,-0.121,-0.023
-0.062,0.126,0.188,-0.032,-0.125,0.157,0.015,-0.099,-0.235,-0.16,-0.116,-0.012
-0.056,0.123,0.179,-0.034,-0.118,0.151,-0.02,-0.123,-0.278,-0.149,-0.111,-0.003
-0.039,0.131,0.17,-0.046,-0.105,0.15,-0.062,-0.144,-0.294,-0.149,-0.108,0.01
-0.032,0.128,0.16,-0.048,-0.097,0.144,-0.052,-0.138,-0.305,-0.15,-0.102,0.018
-0.047,0.085,0.132,-0.019,-0.09,0.108,-0.043,-0.14,-0.332,-0.15,-0.098,0.015
-0.078,0.041,0.119,0.019,-0.099,0.079,-0.032,-0.147,-0.349,-0.153,-0.115,-0.008
-0.108,-0.004,0.105,0.056,-0.107,0.05,-0.025,-0.161,-0.384,-0.189,-0.154,-0.043
-0.122,-0.015,0.107,0.069,-0.115,0.046,-0.025,-0.174,-0.4,-0.201,-0.155,-0.046
-0.12,-0.028,0.092,0.074,-0.106,0.032,-0.024,-0.167,-0.41,-0.196,-0.153,-0.048
-0.122,-0.033,0.09,0.077,-0.106,0.029,-0.019,-0.173,-0.426,-0.207,-0.16,-0.056
-0.116,-0.029,0.087,0.072,-0.101,0.029,-0.021,-0.167,-0.411,-0.189,-0.146,-0.05
-0.116,-0.05,0.066,0.083,-0.091,0.007,-0.02,-0.171,-0.441,-0.216,-0.168,-0.055
-0.11,-0.017,0.093,0.063,-0.102,0.038,-0.03,-0.172,-0.41,-0.177,-0.139,-0.034
-0.129,-0.113,0.016,0.121,-0.072,-0.049,0.048,-0.022,-0.456,-0.261,-0.234,-0.115
-0.17,-0.033,0.137,0.101,-0.153,0.052,0.25,0.242,-0.395,-0.263,-0.239,-0.143
0.083,0.277,0.193,-0.18,-0.055,0.235,0.015,0.055,-0.015,0.152,0.134,0.184
0.432,0.981,0.548,-0.707,-0.058,0.765,-0.685,-0.861,0.678,1.02,0.932,0.89
0.388,1.22,0.832,-0.804,-0.222,1.025,-0.905,-1.351,0.855,1.287,1.189,1.129
0.057,0.183,0.126,-0.12,-0.034,0.154,-0.576,-1.079,-0.312,0.082,0.161,0.345
-0.157,-0.292,-0.134,0.224,-0.011,-0.213,-0.268,-0.7,-0.817,-0.495,-0.359,-0.133
-0.142,-0.164,-0.022,0.153,-0.06,-0.092,-0.098,-0.344,-0.489,-0.253,-0.215,-0.086
-0.111,-0.129,-0.018,0.12,-0.046,-0.073,-0.044,-0.195,-0.472,-0.25,-0.213,-0.095
-0.108,-0.037,0.071,0.072,-0.089,0.017,-0.028,-0.142,-0.39,-0.174,-0.152,-0.05
-0.109,-0.044,0.065,0.076,-0.087,0.01,-0.019,-0.1,-0.386,-0.175,-0.161,-0.051
-0.105,-0.016,0.089,0.06,-0.097,0.037,-0.018,-0.1,-0.374,-0.155,-0.139,-0.042
-0.086,-0.016,0.07,0.05,-0.078,0.027,-0.011,-0.084,-0.364,-0.151,-0.133,-0.036
-0.077,-0.002,0.074,0.039,-0.075,0.036,-0.008,-0.081,-0.366,-0.151,-0.125,-0.033
-0.064,0.006,0.069,0.029,-0.067,0.037,-0.005,-0.069,-0.348,-0.136,-0.113,-0.024
-0.056,0.006,0.062,0.024,-0.059,0.033,-0.011,-0.062,-0.345,-0.141,-0.115,-0.024
-0.058,0.017,0.075,0.02,-0.067,0.046,-0.01,-0.053,-0.322,-0.127,-0.103,-0.017
-0.061,0.018,0.079,0.022,-0.07,0.048,-0.01,-0.044,-0.319,-0.128,-0.102,-0.022
-0.054,0.027,0.081,0.014,-0.068,0.054,-0.01,-0.036,-0.311,-0.117,-0.094,-0.019
-0.05,0.029,0.079,0.011,-0.065,0.054,-0.01,-0.023,-0.309,-0.114,-0.088,-0.021
-0.045,0.035,0.08,0.005,-0.063,0.057,-0.014,-0.004,-0.283,-0.108,-0.078,-0.018
-0.042,0.038,0.08,0.002,-0.061,0.059,-0.02,0.023,-0.253,-0.094,-0.07,-0.008
-0.031,0.047,0.079,-0.008,-0.055,0.063,-0.025,0.053,-0.231,-0.071,-0.061,0.004
0.005,0.078,0.073,-0.042,-0.035,0.075,-0.031,0.098,-0.188,-0.03,-0.044,0.017
0.023,0.093,0.07,-0.058,-0.024,0.081,-0.036,0.167,-0.134,0.008,-0.017,0.036
0.05,0.113,0.063,-0.082,-0.007,0.088,-0.041,0.254,-0.046,0.065,0.032,0.081
0.093,0.173,0.081,-0.133,0.006,0.127,-0.049,0.336,0.044,0.141,0.092,0.127
0.127,0.225,0.098,-0.176,0.014,0.161,-0.06,0.399,0.126,0.21,0.151,0.177
0.174,0.267,0.093,-0.221,0.04,0.18,-0.083,0.428,0.203,0.278,0.206,0.238
0.195,0.291,0.096,-0.244,0.049,0.193,-0.094,0.422,0.218,0.308,0.236,0.251
0.186,0.29,0.103,-0.238,0.041,0.196,-0.085,0.374,0.206,0.306,0.249,0.245
0.146,0.274,0.128,-0.21,0.009,0.201,-0.077,0.27,0.152,0.268,0.217,0.236
0.08,0.229,0.149,-0.155,-0.034,0.188,-0.068,0.144,0.037,0.177,0.14,0.173
0.027,0.168,0.14,-0.098,-0.057,0.154,-0.06,0.036,-0.08,0.081,0.066,0.107
-0.022,0.112,0.134,-0.045,-0.078,0.123,-0.05,-0.04,-0.18,0.0,0.01,0.065
-0.053,0.074,0.127,-0.011,-0.091,0.1,-0.039,-0.083,-0.236,-0.047,-0.03,0.028
-0.067,0.051,0.119,0.008,-0.093,0.085,-0.035,-0.109,-0.266,-0.08,-0.058,0.003
-0.073,0.04,0.113,0.016,-0.093,0.076,-0.035,-0.117,-0.289,-0.103,-0.066,-0.006
-0.07,0.035,0.105,0.017,-0.088,0.07,-0.035,-0.114,-0.292,-0.1,-0.064,-0.008
-0.067,0.031,0.097,0.018,-0.082,0.064,-0.035,-0.115,-0.288,-0.1,-0.066,-0.012
-0.065,0.026,0.091,0.019,-0.079,0.058,-0.035,-0.115,-0.285,-0.099,-0.064,-0.015
-0.073,0.022,0.094,0.025,-0.084,0.057,-0.031,-0.115,-0.281,-0.095,-0.066,-0.011
-0.078,0.017,0.096,0.03,-0.087,0.056,-0.025,-0.113,-0.277,-0.095,-0.063,-0.01
-0.078,0.015,0.092,0.031,-0.086,0.053,-0.02,-0.106,-0.274,-0.095,-0.06,-0.01
-0.075,0.015,0.09,0.03,-0.083,0.052,-0.014,-0.099,-0.27,-0.095,-0.06,-0.006
-0.072,0.015,0.087,0.028,-0.08,0.051,-0.008,-0.093,-0.27,-0.095,-0.057,-0.004
-0.069,0.015,0.084,0.027,-0.077,0.049,-0.006,-0.086,-0.268,-0.095,-0.055,-0.007
-0.066,0.015,0.081,0.026,-0.074,0.047,-0.012,-0.081,-0.265,-0.095,-0.055,-0.01
-0.069,0.01,0.079,0.03,-0.074,0.045,-0.019,-0.086,-0.265,-0.095,-0.059,-0.013
-0.065,0.01,0.075,0.027,-0.07,0.042,-0.02,-0.093,-0.267,-0.098,-0.066,-0.015
-0.066,0.009,0.075,0.028,-0.071,0.041,-0.02,-0.098,-0.278,-0.101,-0.071,-0.018
-0.069,0.005,0.074,0.032,-0.072,0.039,-0.02,-0.101,-0.279,-0.104,-0.075,-0.021
-0.064,0.005,0.07,0.03,-0.068,0.037,-0.019,-0.107,-0.287,-0.107,-0.075,-0.024
-0.067,0.003,0.07,0.032,-0.069,0.036,-0.022,-0.118,-0.3,-0.11,-0.077,-0.027
-0.07,0.0,0.07,0.035,-0.07,0.035,-0.025,-0.122,-0.301,-0.111,-0.081,-0.03
-0.073,-0.003,0.07,0.038,-0.071,0.033,-0.025,-0.127,-0.305,-0.115,-0.079,-0.03
-0.076,-0.006,0.07,0.041,-0.073,0.032,-0.028,-0.13,-0.308,-0.12,-0.084,-0.03
-0.079,-0.01,0.069,0.045,-0.074,0.03,-0.03,-0.125,-0.317,-0.12,-0.085,-0.03
-0.08,-0.009,0.071,0.044,-0.075,0.031,-0.031,-0.125,-0.316,-0.12,-0.085,-0.03
-0.076,-0.006,0.069,0.041,-0.072,0.031,-0.026,-0.124,-0.312,-0.12,-0.085,-0.03
-0.074,-0.004,0.071,0.039,-0.072,0.033,-0.022,-0.119,-0.31,-0.12,-0.085,-0.031
-0.077,-0.008,0.069,0.042,-0.072,0.03,-0.016,-0.12,-0.306,-0.121,-0.085,-0.026
-0.067,0.009,0.076,0.029,-0.071,0.042,-0.014,-0.119,-0.3,-0.119,-0.067,-0.019
-0.042,0.069,0.111,-0.014,-0.077,0.09,0.01,-0.12,-0.269,-0.11,-0.051,-0.012
-0.032,0.092,0.124,-0.03,-0.079,0.108,0.022,-0.12,-0.26,-0.102,-0.049,-0.006
-0.027,0.087,0.113,-0.03,-0.07,0.1,-0.034,-0.12,-0.272,-0.092,-0.045,0.002
-0.025,0.08,0.105,-0.028,-0.065,0.092,-0.053,-0.12,-0.277,-0.087,-0.044,0.005
-0.021,0.076,0.098,-0.028,-0.06,0.087,-0.041,-0.121,-0.278,-0.083,-0.039,0.007
-0.014,0.068,0.082,-0.027,-0.048,0.075,-0.042,-0.125,-0.281,-0.087,-0.04,0.012
-0.042,0.034,0.076,0.004,-0.059,0.055,-0.033,-0.134,-0.292,-0.101,-0.051,-0.005
-0.086,-0.026,0.06,0.056,-0.073,0.017,-0.032,-0.144,-0.323,-0.131,-0.088,-0.041
-0.111,-0.049,0.062,0.08,-0.086,0.006,-0.025,-0.148,-0.34,-0.15,-0.109,-0.057
-0.108,-0.055,0.053,0.082,-0.08,-0.001,-0.025,-0.142,-0.331,-0.145,-0.108,-0.057
-0.104,-0.059,0.045,0.081,-0.074,-0.006,-0.024,-0.147,-0.342,-0.158,-0.122,-0.065
-0.095,-0.046,0.049,0.07,-0.072,0.002,-0.02,-0.144,-0.324,-0.142,-0.105,-0.058
-0.094,-0.071,0.023,0.083,-0.058,-0.023,-0.02,-0.145,-0.348,-0.171,-0.123,-0.074
-0.075,-0.03,0.044,0.052,-0.059,0.007,-0.016,-0.143,-0.32,-0.135,-0.096,-0.058
-0.084,-0.139,-0.055,0.112,-0.014,-0.097,0.052,-0.022,-0.359,-0.208,-0.175,-0.128
-0.143,-0.092,0.051,0.118,-0.097,-0.021,0.238,0.241,-0.347,-0.25,-0.215,-0.186
0.057,0.208,0.151,-0.133,-0.048,0.179,0.076,0.127,0.003,0.126,0.111,0.096
0.422,0.87,0.448,-0.646,-0.013,0.659,-0.629,-0.774,0.674,0.955,0.875,0.772
0.449,1.272,0.823,-0.861,-0.187,1.048,-0.968,-1.348,0.996,1.385,1.285,1.133
0.113,0.292,0.18,-0.203,-0.034,0.236,-0.644,-1.1,-0.074,0.278,0.344,0.43
-0.115,-0.308,-0.193,0.211,0.039,-0.25,-0.296,-0.719,-0.753,-0.461,-0.319,-0.149
-0.137,-0.177,-0.04,0.157,-0.048,-0.108,-0.099,-0.35,-0.429,-0.232,-0.183,-0.113
-0.121,-0.157,-0.036,0.139,-0.042,-0.096,-0.019,-0.169,-0.38,-0.226,-0.183,-0.122
-0.095,-0.048,0.048,0.071,-0.071,0.0,-0.007,-0.115,-0.311,-0.156,-0.121,-0.094
-0.112,-0.062,0.05,0.087,-0.081,-0.006,0.01,-0.068,-0.282,-0.139,-0.116,-0.086
-0.102,-0.039,0.064,0.071,-0.083,0.012,0.013,-0.06,-0.27,-0.122,-0.11,-0.081
-0.097,-0.035,0.062,0.066,-0.079,0.013,0.024,-0.042,-0.248,-0.105,-0.099,-0.075
-0.107,-0.037,0.07,0.072,-0.088,0.016,0.031,-0.037,-0.253,-0.113,-0.102,-0.078
-0.097,-0.026,0.071,0.061,-0.084,0.022,0.033,-0.024,-0.227,-0.094,-0.088,-0.069
-0.092,-0.032,0.06,0.061,-0.076,0.014,0.03,-0.016,-0.216,-0.1,-0.094,-0.072
-0.086,-0.021,0.065,0.054,-0.075,0.022,0.026,-0.004,-0.179,-0.086,-0.084,-0.065
-0.077,-0.026,0.052,0.051,-0.064,0.013,0.025,0.009,-0.159,-0.087,-0.086,-0.064
-0.077,-0.014,0.063,0.045,-0.07,0.024,0.02,0.021,-0.141,-0.077,-0.08,-0.061
-0.085,-0.01,0.075,0.047,-0.08,0.032,0.02,0.034,-0.131,-0.073,-0.079,-0.058
-0.078,-0.003,0.075,0.04,-0.076,0.036,0.026,0.049,-0.114,-0.067,-0.072,-0.056
-0.067,0.005,0.072,0.031,-0.07,0.038,0.032,0.074,-0.09,-0.048,-0.058,-0.053
-0.058,0.01,0.068,0.024,-0.063,0.039,0.035,0.111,-0.046,-0.034,-0.047,-0.039
-0.058,0.025,0.082,0.016,-0.07,0.053,0.03,0.17,0.004,-0.007,-0.028,-0.022
-0.04,0.058,0.099,-0.01,-0.07,0.078,0.024,0.245,0.059,0.039,0.002,-0.001
0.004,0.095,0.091,-0.05,-0.044,0.093,0.019,0.339,0.136,0.082,0.033,0.026
0.044,0.144,0.1,-0.094,-0.028,0.122,0.013,0.434,0.235,0.152,0.084,0.063
0.074,0.199,0.124,-0.137,-0.025,0.161,0.007,0.506,0.327,0.226,0.146,0.113
0.111,0.238,0.127,-0.175,-0.009,0.183,0.003,0.54,0.396,0.284,0.196,0.16
0.14,0.271,0.131,-0.205,0.004,0.2,-0.001,0.529,0.427,0.307,0.22,0.186
0.143,0.277,0.134,-0.211,0.004,0.205,-0.004,0.469,0.408,0.291,0.21,0.179
0.118,0.257,0.138,-0.188,-0.01,0.198,-0.008,0.358,0.358,0.273,0.198,0.172
0.062,0.213,0.151,-0.137,-0.044,0.182,-0.01,0.221,0.25,0.201,0.148,0.131
0.003,0.149,0.146,-0.076,-0.072,0.147,-0.004,0.098,0.136,0.098,0.073,0.058
-0.04,0.098,0.138,-0.029,-0.09,0.118,0.001,0.01,0.054,0.024,0.016,0.007
-0.07,0.064,0.133,0.003,-0.102,0.098,0.007,-0.037,-0.011,-0.028,-0.028,-0.033
-0.087,0.037,0.125,0.025,-0.106,0.081,0.013,-0.061,-0.048,-0.058,-0.051,-0.056
-0.096,0.025,0.121,0.035,-0.109,0.073,0.018,-0.069,-0.067,-0.074,-0.068,-0.06
-0.104,0.015,0.118,0.044,-0.111,0.066,0.021,-0.065,-0.066,-0.079,-0.076,-0.065
-0.105,0.01,0.115,0.047,-0.11,0.062,0.02,-0.065,-0.062,-0.082,-0.078,-0.065
-0.103,0.01,0.113,0.046,-0.108,0.061,0.024,-0.064,-0.059,-0.085,-0.082,-0.065
-0.098,0.01,0.108,0.044,-0.103,0.059,0.025,-0.06,-0.055,-0.085,-0.085,-0.065
-0.106,0.01,0.115,0.048,-0.11,0.062,0.025,-0.06,-0.052,-0.085,-0.081,-0.065
-0.114,0.011,0.126,0.051,-0.12,0.068,0.03,-0.058,-0.048,-0.085,-0.08,-0.064
-0.11,0.015,0.125,0.047,-0.118,0.07,0.03,-0.053,-0.044,-0.085,-0.08,-0.067
-0.109,0.015,0.124,0.047,-0.117,0.069,0.03,-0.047,-0.038,-0.085,-0.075,-0.07
-0.102,0.017,0.12,0.042,-0.111,0.068,0.03,-0.044,-0.035,-0.085,-0.074,-0.071
-0.1,0.02,0.12,0.04,-0.11,0.07,0.03,-0.039,-0.03,-0.09,-0.077,-0.074
-0.098,0.02,0.118,0.039,-0.108,0.068,0.03,-0.035,-0.025,-0.09,-0.08,-0.075
-0.095,0.016,0.111,0.039,-0.103,0.063,0.03,-0.04,-0.029,-0.09,-0.081,-0.078
-0.097,0.009,0.106,0.043,-0.102,0.058,0.03,-0.045,-0.034,-0.092,-0.079,-0.08
-0.096,0.005,0.101,0.045,-0.099,0.053,0.029,-0.049,-0.036,-0.096,-0.081,-0.08
-0.095,-0.001,0.094,0.048,-0.095,0.046,0.031,-0.053,-0.044,-0.095,-0.079,-0.08
-0.097,-0.006,0.091,0.052,-0.094,0.042,0.032,-0.057,-0.049,-0.095,-0.084,-0.082
-0.106,-0.011,0.094,0.058,-0.1,0.041,0.03,-0.06,-0.056,-0.105,-0.098,-0.089
-0.111,-0.015,0.095,0.062,-0.102,0.04,0.03,-0.067,-0.059,-0.111,-0.101,-0.092
-0.113,-0.018,0.095,0.065,-0.104,0.038,0.027,-0.078,-0.054,-0.113,-0.099,-0.094
-0.117,-0.022,0.095,0.069,-0.106,0.036,0.024,-0.08,-0.056,-0.116,-0.1,-0.098
-0.12,-0.025,0.096,0.072,-0.107,0.035,0.026,-0.08,-0.052,-0.119,-0.108,-0.1
-0.117,-0.025,0.092,0.071,-0.104,0.033,0.029,-0.084,-0.05,-0.12,-0.111,-0.104
-0.114,-0.025,0.09,0.07,-0.102,0.032,0.031,-0.085,-0.05,-0.116,-0.109,-0.105
-0.115,-0.025,0.09,0.07,-0.102,0.032,0.029,-0.085,-0.05,-0.113,-0.108,-0.099
-0.115,-0.025,0.089,0.07,-0.101,0.031,0.031,-0.078,-0.05,-0.111,-0.104,-0.094
-0.116,-0.025,0.091,0.071,-0.103,0.033,0.032,-0.07,-0.051,-0.107,-0.106,-0.089
-0.11,-0.023,0.087,0.067,-0.098,0.031,0.039,-0.063,-0.048,-0.106,-0.101,-0.083
-0.1,0.02,0.121,0.04,-0.111,0.07,0.053,-0.062,-0.015,-0.102,-0.091,-0.077
-0.083,0.071,0.154,0.006,-0.119,0.112,0.063,-0.066,0.011,-0.094,-0.085,-0.077
-0.063,0.076,0.14,-0.007,-0.102,0.108,0.052,-0.065,0.012,-0.084,-0.075,-0.08
-0.056,0.069,0.125,-0.007,-0.091,0.097,0.015,-0.065,0.019,-0.076,-0.072,-0.08
-0.051,0.069,0.12,-0.009,-0.086,0.094,0.003,-0.065,0.018,-0.075,-0.075,-0.08
-0.041,0.064,0.105,-0.012,-0.074,0.085,0.011,-0.071,0.005,-0.074,-0.074,-0.08
-0.066,0.032,0.098,0.017,-0.082,0.065,0.014,-0.078,-0.013,-0.084,-0.079,-0.08
-0.103,-0.019,0.085,0.061,-0.094,0.033,0.018,-0.079,-0.03,-0.11,-0.11,-0.1
-0.116,-0.046,0.069,0.081,-0.092,0.011,0.024,-0.098,-0.052,-0.141,-0.142,-0.132
-0.126,-0.055,0.07,0.09,-0.098,0.007,0.023,-0.108,-0.062,-0.135,-0.134,-0.131
-0.127,-0.08,0.047,0.103,-0.087,-0.016,0.019,-0.104,-0.082,-0.147,-0.148,-0.14
-0.123,-0.058,0.065,0.09,-0.094,0.004,0.021,-0.106,-0.07,-0.133,-0.131,-0.13
-0.117,-0.091,0.026,0.104,-0.071,-0.032,0.011,-0.097,-0.078,-0.146,-0.148,-0.14
-0.114,-0.055,0.059,0.084,-0.086,0.003,0.02,-0.106,-0.076,-0.136,-0.133,-0.131
-0.102,-0.101,0.001,0.101,-0.051,-0.05,0.047,-0.05,-0.068,-0.147,-0.153,-0.147
-0.182,-0.18,0.001,0.181,-0.091,-0.089,0.227,0.199,-0.115,-0.262,-0.263,-0.26
-0.083,0.053,0.136,0.015,-0.11,0.094,0.238,0.262,0.103,-0.052,-0.071,-0.111
0.341,0.588,0.247,-0.465,0.047,0.417,-0.401,-0.475,0.666,0.631,0.553,0.479
0.523,1.221,0.698,-0.872,-0.088,0.96,-0.952,-1.251,1.223,1.343,1.254,1.117
0.274,0.615,0.341,-0.445,-0.034,0.478,-0.798,-1.192,0.57,0.693,0.7,0.723
-0.066,-0.299,-0.233,0.183,0.084,-0.266,-0.386,-0.816,-0.425,-0.368,-0.241,-0.1
-0.161,-0.26,-0.099,0.211,-0.031,-0.179,-0.118,-0.41,-0.269,-0.294,-0.225,-0.191
-0.122,-0.184,-0.062,0.153,-0.03,-0.122,-0.006,-0.137,-0.1,-0.182,-0.182,-0.163
-0.114,-0.109,0.005,0.112,-0.059,-0.052,0.043,-0.071,-0.082,-0.163,-0.155,-0.165
-0.105,-0.088,0.017,0.096,-0.061,-0.035,0.059,-0.022,-0.019,-0.124,-0.127,-0.149
-0.122,-0.09,0.031,0.106,-0.076,-0.029,0.064,-0.007,-0.035,-0.144,-0.143,-0.16
-0.112,-0.064,0.048,0.088,-0.08,-0.008,0.066,0.004,-0.007,-0.114,-0.118,-0.142
-0.102,-0.071,0.032,0.086,-0.067,-0.019,0.064,0.013,-0.02,-0.125,-0.129,-0.15
-0.104,-0.053,0.05,0.078,-0.077,-0.001,0.065,0.02,-0.001,-0.106,-0.11,-0.138
-0.102,-0.061,0.04,0.081,-0.071,-0.01,0.065,0.032,-0.004,-0.109,-0.115,-0.139
-0.099,-0.051,0.048,0.075,-0.073,-0.002,0.065,0.043,0.006,-0.099,-0.108,-0.134
-0.091,-0.052,0.039,0.071,-0.065,-0.007,0.065,0.055,0.013,-0.094,-0.11,-0.13
-0.09,-0.049,0.04,0.07,-0.065,-0.004,0.065,0.067,0.018,-0.09,-0.106,-0.127
-0.083,-0.043,0.04,0.063,-0.061,-0.001,0.065,0.077,0.028,-0.082,-0.104,-0.123
-0.072,-0.033,0.039,0.052,-0.055,0.003,0.065,0.097,0.033,-0.074,-0.105,-0.117
-0.062,-0.021,0.04,0.042,-0.051,0.009,0.065,0.128,0.06,-0.059,-0.09,-0.108
-0.05,-0.008,0.042,0.029,-0.046,0.017,0.07,0.158,0.079,-0.048,-0.077,-0.103
-0.041,0.004,0.046,0.018,-0.044,0.025,0.07,0.211,0.105,-0.027,-0.063,-0.093
-0.026,0.022,0.048,0.002,-0.038,0.035,0.073,0.286,0.153,0.009,-0.04,-0.072
0.008,0.059,0.05,-0.034,-0.021,0.054,0.079,0.383,0.223,0.056,0.0,-0.04
0.054,0.104,0.05,-0.079,0.002,0.077,0.071,0.486,0.309,0.119,0.046,-0.005
0.104,0.153,0.049,-0.129,0.028,0.101,0.059,0.568,0.385,0.182,0.089,0.036
0.143,0.203,0.06,-0.173,0.041,0.131,0.048,0.614,0.454,0.249,0.144,0.083
0.163,0.244,0.08,-0.204,0.041,0.162,0.036,0.623,0.5,0.296,0.191,0.126
0.187,0.262,0.075,-0.225,0.056,0.169,0.024,0.583,0.506,0.301,0.203,0.133
0.179,0.254,0.075,-0.217,0.052,0.164,0.019,0.481,0.465,0.286,0.196,0.119
0.126,0.218,0.091,-0.172,0.017,0.154,0.021,0.347,0.382,0.232,0.157,0.103
0.07,0.156,0.086,-0.113,-0.008,0.121,0.018,0.203,0.271,0.146,0.09,0.055
0.01,0.086,0.076,-0.048,-0.033,0.081,0.029,0.104,0.162,0.056,0.028,-0.006
-0.034,0.034,0.068,0.0,-0.051,0.051,0.041,0.047,0.096,-0.003,-0.022,-0.049
-0.049,0.01,0.058,0.019,-0.054,0.034,0.039,0.0,0.054,-0.033,-0.062,-0.082
-0.056,-0.001,0.055,0.028,-0.055,0.027,0.043,-0.012,0.034,-0.056,-0.079,-0.101
-0.07,-0.015,0.055,0.042,-0.062,0.02,0.045,-0.016,0.032,-0.062,-0.085,-0.1
-0.075,-0.023,0.053,0.049,-0.064,0.015,0.045,-0.021,0.028,-0.06,-0.093,-0.1
-0.069,-0.019,0.05,0.044,-0.059,0.015,0.045,-0.024,0.025,-0.06,-0.093,-0.101
-0.07,-0.02,0.05,0.045,-0.06,0.015,0.045,-0.031,0.02,-0.06,-0.09,-0.1
-0.07,-0.02,0.05,0.045,-0.06,0.015,0.045,-0.025,0.022,-0.06,-0.087,-0.1
-0.07,-0.02,0.05,0.045,-0.06,0.015,0.045,-0.016,0.028,-0.06,-0.084,-0.1
-0.07,-0.02,0.05,0.045,-0.06,0.015,0.045,-0.008,0.032,-0.06,-0.081,-0.1
-0.07,-0.02,0.05,0.045,-0.06,0.015,0.047,0.001,0.035,-0.06,-0.08,-0.1
-0.07,-0.02,0.05,0.045,-0.06,0.015,0.05,0.007,0.03,-0.06,-0.085,-0.103
-0.069,-0.02,0.049,0.044,-0.059,0.014,0.053,0.014,0.03,-0.06,-0.085,-0.106
-0.065,-0.02,0.044,0.042,-0.054,0.012,0.055,0.011,0.03,-0.06,-0.085,-0.109
-0.06,-0.02,0.041,0.04,-0.051,0.01,0.058,0.004,0.029,-0.061,-0.085,-0.112
-0.06,-0.023,0.038,0.041,-0.049,0.008,0.061,0.0,0.03,-0.066,-0.085,-0.115
-0.058,-0.025,0.033,0.041,-0.045,0.004,0.056,-0.006,0.027,-0.064,-0.088,-0.115
-0.055,-0.025,0.03,0.041,-0.042,0.002,0.055,-0.011,0.021,-0.072,-0.09,-0.115
-0.051,-0.024,0.027,0.037,-0.038,0.001,0.055,-0.016,0.016,-0.085,-0.093,-0.115
-0.053,-0.031,0.022,0.042,-0.038,-0.004,0.055,-0.022,0.011,-0.085,-0.096,-0.115
-0.061,-0.042,0.019,0.052,-0.04,-0.011,0.056,-0.028,0.005,-0.085,-0.099,-0.115
-0.063,-0.047,0.015,0.054,-0.039,-0.016,0.053,-0.034,0.0,-0.09,-0.1,-0.115
-0.065,-0.054,0.012,0.06,-0.038,-0.021,0.05,-0.035,-0.004,-0.089,-0.095,-0.111
-0.067,-0.059,0.008,0.063,-0.038,-0.025,0.05,-0.036,-0.005,-0.092,-0.096,-0.11
-0.063,-0.06,0.003,0.062,-0.033,-0.028,0.05,-0.034,-0.005,-0.095,-0.093,-0.103
-0.055,-0.06,-0.005,0.058,-0.025,-0.032,0.05,-0.039,-0.006,-0.095,-0.09,-0.113
-0.059,-0.061,-0.001,0.06,-0.029,-0.031,0.05,-0.046,-0.004,-0.095,-0.089,-0.13
-0.059,-0.058,0.0,0.059,-0.029,-0.029,0.053,-0.045,-0.008,-0.095,-0.095,-0.122
-0.053,-0.051,0.001,0.052,-0.027,-0.025,0.057,-0.044,-0.011,-0.095,-0.103,-0.116
-0.048,-0.041,0.008,0.044,-0.028,-0.017,0.054,-0.045,-0.009,-0.092,-0.094,-0.11
-0.034,-0.035,-0.002,0.034,-0.016,-0.018,0.059,-0.043,-0.012,-0.088,-0.086,-0.102
-0.046,-0.01,0.036,0.028,-0.04,0.013,0.079,-0.014,0.022,-0.062,-0.078,-0.098
-0.049,0.031,0.08,0.009,-0.065,0.056,0.094,0.003,0.056,-0.044,-0.068,-0.092
-0.027,0.036,0.063,-0.005,-0.046,0.049,0.069,-0.006,0.052,-0.045,-0.057,-0.087
-0.014,0.027,0.041,-0.007,-0.028,0.034,0.024,-0.009,0.043,-0.045,-0.051,-0.083
-0.001,0.028,0.03,-0.014,-0.016,0.029,0.021,-0.016,0.038,-0.045,-0.049,-0.079
0.003,0.012,0.009,-0.008,-0.003,0.01,0.03,-0.021,0.031,-0.044,-0.051,-0.074
-0.026,-0.02,0.006,0.023,-0.016,-0.007,0.036,-0.026,0.018,-0.049,-0.049,-0.079
-0.07,-0.077,-0.007,0.074,-0.032,-0.042,0.042,-0.042,0.003,-0.064,-0.067,-0.11
-0.098,-0.112,-0.015,0.105,-0.041,-0.063,0.046,-0.056,-0.021,-0.082,-0.093,-0.134
-0.092,-0.115,-0.023,0.104,-0.034,-0.069,0.044,-0.055,-0.02,-0.081,-0.084,-0.128
-0.085,-0.137,-0.052,0.111,-0.017,-0.094,0.046,-0.05,-0.032,-0.099,-0.098,-0.134
-0.095,-0.119,-0.024,0.107,-0.035,-0.072,0.045,-0.05,-0.016,-0.08,-0.08,-0.124
-0.091,-0.153,-0.063,0.122,-0.014,-0.107,0.045,-0.039,-0.035,-0.1,-0.101,-0.136
-0.092,-0.119,-0.027,0.106,-0.032,-0.073,0.046,-0.048,-0.016,-0.08,-0.077,-0.123
-0.073,-0.176,-0.103,0.125,0.016,-0.139,0.067,0.006,-0.044,-0.101,-0.105,-0.154
-0.138,-0.223,-0.085,0.181,-0.026,-0.154,0.271,0.263,-0.087,-0.191,-0.196,-0.25
-0.019,0.01,0.029,0.004,-0.024,0.02,0.251,0.318,0.18,0.057,0.027,-0.07
0.417,0.577,0.161,-0.497,0.128,0.369,-0.398,-0.444,0.739,0.763,0.689,0.559
0.577,1.188,0.611,-0.883,-0.017,0.899,-0.902,-1.19,1.268,1.439,1.34,1.147
0.294,0.48,0.187,-0.387,0.053,0.333,-0.714,-1.096,0.503,0.666,0.687,0.652
-0.053,-0.385,-0.333,0.219,0.14,-0.359,-0.319,-0.723,-0.43,-0.33,-0.203,-0.109
-0.124,-0.321,-0.197,0.222,0.037,-0.259,-0.075,-0.333,-0.217,-0.206,-0.159,-0.161
-0.081,-0.258,-0.177,0.17,0.048,-0.217,0.043,-0.085,-0.091,-0.128,-0.119,-0.151
-0.076,-0.18,-0.104,0.128,0.015,-0.142,0.074,-0.024,-0.056,-0.084,-0.077,-0.136
-0.06,-0.168,-0.108,0.115,0.024,-0.138,0.077,0.025,-0.007,-0.048,-0.05,-0.113
-0.062,-0.162,-0.1,0.112,0.02,-0.131,0.075,0.044,-0.01,-0.058,-0.057,-0.12
-0.055,-0.144,-0.089,0.1,0.017,-0.116,0.085,0.064,0.019,-0.032,-0.035,-0.104
-0.052,-0.147,-0.095,0.1,0.021,-0.12,0.091,0.068,0.005,-0.045,-0.043,-0.107
-0.055,-0.13,-0.074,0.093,0.01,-0.102,0.09,0.075,0.025,-0.023,-0.024,-0.094
-0.048,-0.138,-0.09,0.093,0.022,-0.114,0.096,0.079,0.022,-0.027,-0.024,-0.094
-0.03,-0.127,-0.097,0.079,0.033,-0.112,0.095,0.085,0.031,-0.011,-0.012,-0.085
-0.026,-0.129,-0.103,0.077,0.039,-0.116,0.095,0.103,0.038,-0.007,-0.008,-0.079
-0.028,-0.124,-0.097,0.076,0.035,-0.11,0.095,0.109,0.044,0.001,-0.002,-0.073
-0.026,-0.122,-0.096,0.075,0.035,-0.109,0.095,0.129,0.047,0.015,0.002,-0.065
-0.02,-0.113,-0.093,0.067,0.037,-0.103,0.095,0.145,0.059,0.028,0.002,-0.06
-0.004,-0.104,-0.1,0.055,0.048,-0.102,0.095,0.161,0.078,0.041,0.009,-0.067
0.015,-0.096,-0.112,0.04,0.064,-0.104,0.092,0.199,0.097,0.051,0.025,-0.061
0.023,-0.086,-0.108,0.032,0.066,-0.097,0.09,0.248,0.135,0.078,0.05,-0.032
0.037,-0.068,-0.105,0.016,0.071,-0.087,0.089,0.321,0.184,0.111,0.078,-0.008
0.066,-0.037,-0.103,-0.015,0.085,-0.069,0.085,0.412,0.249,0.156,0.111,0.029
0.107,0.007,-0.099,-0.057,0.103,-0.046,0.085,0.503,0.33,0.224,0.164,0.068
0.155,0.057,-0.098,-0.105,0.126,-0.021,0.075,0.583,0.409,0.303,0.224,0.116
0.194,0.101,-0.094,-0.147,0.144,0.004,0.055,0.622,0.487,0.367,0.282,0.166
0.224,0.133,-0.091,-0.179,0.158,0.021,0.048,0.627,0.528,0.407,0.328,0.197
0.214,0.127,-0.087,-0.171,0.15,0.02,0.05,0.601,0.528,0.432,0.325,0.224
0.199,0.114,-0.085,-0.156,0.142,0.014,0.05,0.51,0.498,0.419,0.316,0.211
0.187,0.097,-0.089,-0.142,0.138,0.004,0.05,0.374,0.4,0.346,0.29,0.17
0.126,0.035,-0.092,-0.081,0.109,-0.028,0.049,0.253,0.28,0.249,0.219,0.123
0.07,-0.024,-0.095,-0.023,0.083,-0.059,0.062,0.158,0.177,0.171,0.162,0.064
0.021,-0.076,-0.097,0.028,0.06,-0.087,0.076,0.094,0.107,0.113,0.113,0.022
-0.026,-0.126,-0.1,0.076,0.038,-0.113,0.079,0.056,0.065,0.08,0.083,0.001
-0.037,-0.137,-0.1,0.087,0.032,-0.118,0.08,0.043,0.037,0.067,0.074,-0.004
-0.04,-0.14,-0.1,0.09,0.03,-0.12,0.08,0.041,0.023,0.058,0.064,-0.008
-0.035,-0.145,-0.11,0.091,0.038,-0.128,0.08,0.038,0.006,0.047,0.066,-0.013
-0.027,-0.144,-0.117,0.086,0.046,-0.13,0.079,0.033,-0.005,0.04,0.065,-0.018
-0.026,-0.146,-0.12,0.086,0.047,-0.133,0.083,0.031,-0.016,0.04,0.065,-0.019
-0.034,-0.159,-0.125,0.097,0.046,-0.142,0.085,0.032,-0.029,0.039,0.065,-0.014
-0.036,-0.16,-0.124,0.098,0.044,-0.142,0.085,0.046,-0.036,0.048,0.065,-0.011
-0.029,-0.155,-0.126,0.093,0.049,-0.14,0.085,0.056,-0.059,0.057,0.069,-0.008
-0.03,-0.154,-0.124,0.093,0.047,-0.139,0.085,0.054,-0.079,0.051,0.074,-0.003
-0.023,-0.149,-0.126,0.087,0.052,-0.137,0.089,0.063,-0.082,0.05,0.073,0.0
-0.03,-0.151,-0.121,0.091,0.046,-0.136,0.09,0.065,-0.087,0.046,0.069,-0.003
-0.038,-0.157,-0.119,0.098,0.041,-0.138,0.09,0.06,-0.09,0.044,0.07,-0.006
-0.022,-0.164,-0.143,0.093,0.061,-0.153,0.09,0.058,-0.095,0.05,0.066,-0.005
-0.018,-0.165,-0.146,0.092,0.065,-0.156,0.09,0.053,-0.098,0.05,0.065,-0.005
-0.022,-0.165,-0.144,0.094,0.061,-0.154,0.087,0.05,-0.104,0.05,0.065,-0.005
-0.018,-0.164,-0.146,0.092,0.065,-0.155,0.085,0.046,-0.11,0.047,0.071,-0.005
-0.024,-0.168,-0.144,0.096,0.06,-0.156,0.085,0.04,-0.114,0.044,0.073,-0.006
-0.037,-0.184,-0.147,0.111,0.055,-0.165,0.081,0.035,-0.126,0.045,0.069,-0.004
-0.035,-0.185,-0.15,0.11,0.058,-0.167,0.079,0.029,-0.131,0.041,0.071,-0.012
-0.031,-0.185,-0.154,0.109,0.062,-0.17,0.081,0.024,-0.136,0.04,0.066,-0.022
-0.03,-0.189,-0.159,0.11,0.065,-0.174,0.084,0.019,-0.139,0.04,0.065,-0.02
-0.031,-0.19,-0.159,0.111,0.064,-0.175,0.085,0.015,-0.14,0.04,0.064,-0.02
-0.026,-0.189,-0.163,0.107,0.069,-0.176,0.086,0.015,-0.14,0.04,0.061,-0.018
-0.02,-0.184,-0.164,0.103,0.073,-0.174,0.09,0.015,-0.14,0.041,0.059,-0.014
-0.014,-0.183,-0.169,0.099,0.078,-0.176,0.09,0.016,-0.14,0.046,0.061,-0.016
0.002,-0.176,-0.178,0.088,0.09,-0.177,0.09,0.014,-0.14,0.049,0.059,-0.011
-0.024,-0.18,-0.156,0.102,0.067,-0.168,0.09,0.023,-0.139,0.054,0.062,-0.002
-0.021,-0.143,-0.122,0.082,0.051,-0.133,0.104,0.043,-0.104,0.076,0.098,0.005
-0.014,-0.101,-0.087,0.058,0.037,-0.094,0.131,0.054,-0.083,0.098,0.119,0.016
-0.014,-0.106,-0.092,0.06,0.039,-0.098,0.1,0.051,-0.09,0.093,0.119,0.019
0.008,-0.106,-0.114,0.049,0.061,-0.109,0.062,0.045,-0.083,0.091,0.125,0.024
0.001,-0.111,-0.112,0.055,0.057,-0.111,0.066,0.037,-0.087,0.114,0.133,0.04
0.033,-0.108,-0.141,0.038,0.087,-0.124,0.067,0.031,-0.081,0.122,0.13,0.034
0.026,-0.12,-0.146,0.047,0.087,-0.133,0.071,0.024,-0.091,0.092,0.114,0.021
-0.018,-0.179,-0.162,0.099,0.072,-0.17,0.07,0.015,-0.114,0.068,0.101,0.013
-0.036,-0.233,-0.197,0.134,0.081,-0.215,0.07,0.006,-0.151,0.048,0.07,-0.005
-0.055,-0.236,-0.181,0.146,0.063,-0.208,0.07,0.003,-0.158,0.054,0.073,-0.004
-0.043,-0.256,-0.213,0.15,0.085,-0.234,0.07,0.004,-0.162,0.04,0.067,-0.015
-0.046,-0.236,-0.19,0.141,0.073,-0.213,0.071,-0.006,-0.16,0.042,0.071,-0.015
-0.03,-0.249,-0.219,0.14,0.095,-0.234,0.069,0.001,-0.155,0.037,0.071,-0.02
-0.043,-0.236,-0.192,0.14,0.075,-0.213,0.076,-0.013,-0.171,0.03,0.065,-0.03
-0.037,-0.256,-0.219,0.147,0.091,-0.237,0.079,0.026,-0.144,0.057,0.066,-0.022
-0.062,-0.358,-0.295,0.21,0.117,-0.326,0.218,0.23,-0.212,-0.065,-0.037,-0.117
-0.058,-0.185,-0.126,0.122,0.034,-0.156,0.351,0.442,-0.051,0.046,0.057,-0.063
0.281,0.224,-0.057,-0.253,0.168,0.084,-0.089,-0.025,0.44,0.624,0.57,0.405
0.523,0.977,0.454,-0.751,0.034,0.715,-0.744,-0.962,1.147,1.52,1.386,1.094
0.343,0.734,0.391,-0.539,-0.024,0.563,-0.727,-1.132,0.856,1.248,1.168,0.965
0.012,-0.348,-0.361,0.168,0.186,-0.354,-0.337,-0.763,-0.372,-0.032,0.087,0.132
-0.116,-0.486,-0.37,0.301,0.127,-0.427,-0.092,-0.4,-0.457,-0.183,-0.099,-0.1
-0.062,-0.386,-0.323,0.224,0.131,-0.354,0.044,-0.106,-0.199,-0.004,0.006,-0.051
-0.034,-0.328,-0.294,0.181,0.13,-0.311,0.078,-0.017,-0.196,-0.007,0.013,-0.051
-0.025,-0.258,-0.234,0.142,0.105,-0.246,0.087,0.042,-0.102,0.07,0.075,-0.011
-0.035,-0.271,-0.236,0.154,0.101,-0.254,0.098,0.069,-0.116,0.052,0.067,-0.019
-0.021,-0.234,-0.214,0.128,0.096,-0.224,0.093,0.073,-0.084,0.092,0.092,0.001
-0.009,-0.246,-0.238,0.128,0.115,-0.242,0.092,0.094,-0.093,0.084,0.082,0.001
-0.005,-0.229,-0.224,0.117,0.109,-0.226,0.087,0.101,-0.079,0.093,0.094,0.012
-0.003,-0.232,-0.229,0.118,0.113,-0.23,0.086,0.107,-0.073,0.089,0.099,0.016
-0.001,-0.224,-0.224,0.113,0.112,-0.224,0.083,0.103,-0.071,0.091,0.108,0.018
0.004,-0.22,-0.224,0.108,0.114,-0.221,0.08,0.121,-0.058,0.105,0.112,0.024
0.003,-0.217,-0.221,0.107,0.112,-0.219,0.08,0.132,-0.057,0.108,0.113,0.025
0.008,-0.21,-0.218,0.101,0.113,-0.214,0.08,0.129,-0.046,0.119,0.117,0.031
0.015,-0.208,-0.223,0.097,0.119,-0.216,0.08,0.147,-0.035,0.121,0.124,0.033
0.024,-0.202,-0.226,0.089,0.126,-0.214,0.08,0.168,-0.011,0.133,0.135,0.041
0.034,-0.198,-0.232,0.082,0.133,-0.215,0.075,0.192,0.016,0.151,0.141,0.039
0.05,-0.185,-0.234,0.068,0.142,-0.209,0.067,0.225,0.036,0.161,0.156,0.047
0.07,-0.159,-0.23,0.045,0.151,-0.194,0.061,0.277,0.082,0.196,0.176,0.075
0.1,-0.123,-0.222,0.012,0.161,-0.173,0.053,0.354,0.148,0.244,0.211,0.102
0.13,-0.086,-0.216,-0.021,0.173,-0.151,0.046,0.442,0.226,0.301,0.263,0.146
0.17,-0.038,-0.209,-0.066,0.19,-0.123,0.039,0.534,0.321,0.379,0.317,0.195
0.222,0.02,-0.202,-0.121,0.212,-0.091,0.024,0.579,0.393,0.444,0.367,0.237
0.257,0.063,-0.194,-0.16,0.225,-0.065,0.007,0.586,0.45,0.496,0.413,0.285
0.257,0.071,-0.186,-0.163,0.221,-0.057,0.004,0.57,0.46,0.518,0.434,0.306
0.251,0.071,-0.18,-0.161,0.215,-0.054,0.015,0.506,0.431,0.504,0.424,0.294
0.233,0.052,-0.18,-0.143,0.206,-0.064,0.025,0.392,0.347,0.443,0.39,0.257
0.171,-0.007,-0.178,-0.082,0.175,-0.093,0.033,0.26,0.218,0.343,0.317,0.201
0.107,-0.068,-0.175,-0.019,0.142,-0.121,0.052,0.169,0.113,0.253,0.239,0.144
0.052,-0.122,-0.174,0.036,0.113,-0.148,0.062,0.102,0.028,0.184,0.183,0.095
0.018,-0.161,-0.179,0.072,0.098,-0.169,0.063,0.06,-0.016,0.138,0.147,0.06
0.014,-0.179,-0.193,0.083,0.104,-0.185,0.066,0.045,-0.043,0.118,0.131,0.039
0.008,-0.193,-0.2,0.093,0.104,-0.196,0.06,0.039,-0.062,0.114,0.115,0.033
0.009,-0.195,-0.204,0.094,0.107,-0.199,0.06,0.037,-0.059,0.109,0.109,0.03
0.015,-0.195,-0.209,0.09,0.112,-0.202,0.06,0.033,-0.06,0.103,0.111,0.027
0.009,-0.198,-0.208,0.095,0.108,-0.203,0.06,0.032,-0.06,0.097,0.107,0.022
0.004,-0.2,-0.204,0.099,0.104,-0.202,0.078,0.028,-0.06,0.095,0.105,0.02
0.006,-0.199,-0.205,0.097,0.106,-0.202,0.086,0.046,-0.06,0.095,0.105,0.025
0.009,-0.196,-0.204,0.094,0.107,-0.2,0.084,0.062,-0.055,0.095,0.109,0.025
0.014,-0.191,-0.205,0.089,0.11,-0.198,0.085,0.059,-0.05,0.095,0.11,0.026
0.016,-0.189,-0.204,0.087,0.11,-0.196,0.085,0.064,-0.045,0.095,0.11,0.03
0.016,-0.184,-0.2,0.084,0.109,-0.192,0.085,0.065,-0.042,0.094,0.11,0.03
0.016,-0.18,-0.197,0.082,0.106,-0.188,0.08,0.076,-0.036,0.09,0.11,0.028
0.011,-0.182,-0.193,0.086,0.102,-0.187,0.075,0.076,-0.038,0.086,0.109,0.023
0.005,-0.186,-0.19,0.09,0.098,-0.187,0.07,0.066,-0.048,0.083,0.102,0.02
-0.004,-0.188,-0.184,0.097,0.09,-0.185,0.067,0.061,-0.056,0.079,0.097,0.017
0.003,-0.191,-0.194,0.094,0.098,-0.192,0.06,0.052,-0.062,0.076,0.092,0.012
0.007,-0.194,-0.201,0.094,0.105,-0.197,0.064,0.046,-0.067,0.073,0.086,0.009
0.004,-0.195,-0.199,0.096,0.102,-0.197,0.07,0.039,-0.07,0.068,0.081,0.006
0.006,-0.195,-0.201,0.095,0.104,-0.197,0.07,0.032,-0.063,0.065,0.076,0.001
0.004,-0.195,-0.198,0.095,0.102,-0.196,0.069,0.026,-0.055,0.062,0.074,-0.001
0.024,-0.197,-0.22,0.087,0.122,-0.209,0.071,0.019,-0.047,0.057,0.071,-0.006
0.028,-0.205,-0.232,0.088,0.13,-0.218,0.069,0.012,-0.039,0.054,0.068,-0.009
0.019,-0.209,-0.228,0.095,0.124,-0.218,0.071,0.01,-0.033,0.051,0.065,-0.013
0.026,-0.206,-0.231,0.09,0.129,-0.218,0.081,0.01,-0.026,0.048,0.066,-0.019
0.03,-0.199,-0.228,0.084,0.129,-0.213,0.087,0.01,-0.019,0.046,0.071,-0.024
0.034,-0.197,-0.231,0.081,0.133,-0.214,0.084,0.01,-0.013,0.042,0.069,-0.03
0.033,-0.189,-0.222,0.078,0.128,-0.205,0.082,0.011,-0.006,0.04,0.071,-0.035
0.031,-0.19,-0.221,0.08,0.126,-0.206,0.08,0.01,-0.001,0.04,0.068,-0.029
0.03,-0.168,-0.198,0.07,0.114,-0.183,0.079,0.027,0.023,0.053,0.072,-0.016
0.019,-0.122,-0.141,0.052,0.08,-0.131,0.105,0.056,0.064,0.088,0.097,-0.005
0.009,-0.118,-0.128,0.055,0.069,-0.123,0.091,0.049,0.076,0.102,0.109,0.008
0.031,-0.121,-0.152,0.045,0.092,-0.136,0.052,0.027,0.071,0.096,0.114,0.017
0.056,-0.119,-0.175,0.032,0.115,-0.147,0.056,0.019,0.075,0.094,0.11,0.025
0.059,-0.121,-0.179,0.031,0.119,-0.15,0.055,0.012,0.078,0.09,0.101,0.029
0.064,-0.119,-0.182,0.028,0.123,-0.15,0.058,0.005,0.067,0.085,0.089,0.016
0.037,-0.142,-0.179,0.053,0.108,-0.16,0.062,-0.003,0.055,0.08,0.081,0.009
0.01,-0.208,-0.218,0.099,0.114,-0.213,0.058,-0.008,0.032,0.04,0.055,-0.014
0.011,-0.22,-0.231,0.105,0.121,-0.225,0.057,-0.016,0.023,0.023,0.042,-0.037
0.005,-0.233,-0.239,0.114,0.122,-0.236,0.053,-0.013,0.03,0.024,0.039,-0.045
-0.004,-0.238,-0.233,0.122,0.115,-0.236,0.056,-0.017,0.016,0.009,0.03,-0.046
0.0,-0.232,-0.232,0.117,0.116,-0.232,0.048,-0.013,0.03,0.022,0.038,-0.049
-0.013,-0.258,-0.245,0.136,0.116,-0.251,0.052,-0.015,0.007,-0.009,0.014,-0.075
-0.004,-0.219,-0.216,0.112,0.106,-0.217,0.049,-0.017,0.032,0.02,0.041,-0.052
-0.003,-0.332,-0.329,0.168,0.163,-0.33,0.138,0.144,-0.008,-0.068,-0.055,-0.116
-0.047,-0.26,-0.213,0.154,0.083,-0.236,0.341,0.406,0.031,-0.068,-0.062,-0.131
0.22,0.092,-0.127,-0.156,0.173,-0.018,0.039,0.101,0.417,0.37,0.33,0.207
0.601,0.81,0.209,-0.706,0.196,0.509,-0.709,-0.844,1.112,1.231,1.132,0.926
0.549,0.995,0.446,-0.773,0.052,0.72,-0.916,-1.239,1.23,1.442,1.355,1.161
0.208,-0.072,-0.28,-0.067,0.244,-0.176,-0.555,-0.94,0.099,0.246,0.323,0.353
-0.014,-0.509,-0.495,0.262,0.241,-0.502,-0.205,-0.545,-0.37,-0.291,-0.182,-0.131
-0.018,-0.354,-0.336,0.186,0.159,-0.345,-0.016,-0.168,-0.047,-0.061,-0.038,-0.079
0.013,-0.321,-0.334,0.155,0.174,-0.328,0.043,-0.021,-0.013,-0.063,-0.043,-0.094
0.008,-0.235,-0.243,0.114,0.126,-0.239,0.07,0.024,0.061,0.01,0.004,-0.066
0.01,-0.25,-0.26,0.12,0.135,-0.255,0.089,0.063,0.061,-0.008,-0.013,-0.072
0.017,-0.22,-0.237,0.102,0.127,-0.228,0.089,0.074,0.078,0.007,0.006,-0.059
0.022,-0.221,-0.242,0.1,0.132,-0.231,0.096,0.098,0.083,0.012,0.009,-0.053
0.028,-0.208,-0.236,0.09,0.132,-0.221,0.091,0.101,0.081,0.012,0.014,-0.051
0.027,-0.2,-0.227,0.087,0.127,-0.214,0.09,0.108,0.098,0.026,0.025,-0.048
0.041,-0.2,-0.242,0.08,0.142,-0.221,0.09,0.114,0.092,0.02,0.025,-0.052
0.065,-0.19,-0.256,0.063,0.161,-0.223,0.089,0.12,0.112,0.029,0.032,-0.048
0.066,-0.191,-0.257,0.063,0.162,-0.224,0.09,0.12,0.111,0.022,0.029,-0.051
0.062,-0.183,-0.245,0.06,0.154,-0.213,0.089,0.132,0.121,0.034,0.036,-0.05
0.063,-0.179,-0.242,0.058,0.153,-0.21,0.09,0.157,0.132,0.045,0.034,-0.046
0.065,-0.168,-0.233,0.051,0.149,-0.2,0.09,0.177,0.152,0.053,0.041,-0.035
0.068,-0.161,-0.229,0.047,0.149,-0.195,0.09,0.21,0.176,0.062,0.046,-0.028
0.074,-0.148,-0.223,0.037,0.149,-0.186,0.09,0.257,0.203,0.083,0.066,-0.018
0.091,-0.124,-0.215,0.017,0.154,-0.169,0.09,0.312,0.245,0.113,0.085,-0.009
0.117,-0.093,-0.21,-0.012,0.164,-0.151,0.093,0.397,0.295,0.15,0.105,0.016
0.145,-0.057,-0.202,-0.043,0.173,-0.129,0.086,0.497,0.371,0.203,0.15,0.051
0.185,-0.011,-0.196,-0.087,0.191,-0.103,0.076,0.592,0.457,0.27,0.199,0.086
0.242,0.045,-0.197,-0.143,0.219,-0.075,0.068,0.667,0.537,0.336,0.256,0.137
0.287,0.094,-0.193,-0.19,0.24,-0.05,0.058,0.685,0.598,0.392,0.31,0.186
0.308,0.123,-0.185,-0.215,0.246,-0.031,0.051,0.669,0.606,0.421,0.326,0.206
0.298,0.119,-0.179,-0.208,0.238,-0.03,0.05,0.608,0.592,0.416,0.311,0.197
0.259,0.087,-0.173,-0.173,0.216,-0.043,0.049,0.479,0.537,0.375,0.299,0.188
0.206,0.041,-0.165,-0.123,0.185,-0.061,0.046,0.33,0.43,0.291,0.253,0.15
0.156,-0.017,-0.173,-0.069,0.164,-0.095,0.044,0.212,0.318,0.201,0.18,0.092
0.108,-0.072,-0.18,-0.018,0.144,-0.126,0.049,0.135,0.224,0.125,0.13,0.051
0.082,-0.107,-0.189,0.013,0.136,-0.148,0.056,0.087,0.162,0.073,0.09,0.009
0.075,-0.135,-0.21,0.03,0.143,-0.172,0.055,0.061,0.125,0.048,0.055,-0.011
0.062,-0.148,-0.209,0.043,0.136,-0.178,0.054,0.046,0.115,0.037,0.04,-0.014
0.061,-0.145,-0.205,0.042,0.134,-0.175,0.051,0.045,0.11,0.031,0.039,-0.02
0.058,-0.145,-0.204,0.044,0.131,-0.174,0.049,0.045,0.102,0.024,0.035,-0.023
0.057,-0.142,-0.2,0.042,0.129,-0.171,0.052,0.04,0.096,0.017,0.032,-0.029
0.059,-0.139,-0.199,0.04,0.129,-0.169,0.054,0.04,0.09,0.011,0.03,-0.034
0.054,-0.14,-0.194,0.044,0.124,-0.167,0.058,0.041,0.101,0.013,0.027,-0.036
0.059,-0.136,-0.195,0.039,0.127,-0.165,0.06,0.046,0.106,0.016,0.025,-0.032
0.06,-0.135,-0.195,0.038,0.128,-0.165,0.064,0.049,0.112,0.015,0.025,-0.03
0.06,-0.135,-0.195,0.038,0.128,-0.165,0.065,0.057,0.118,0.015,0.021,-0.027
0.06,-0.135,-0.195,0.038,0.128,-0.165,0.065,0.063,0.113,0.015,0.02,-0.024
0.059,-0.135,-0.194,0.038,0.127,-0.165,0.07,0.057,0.11,0.014,0.02,-0.029
0.061,-0.135,-0.196,0.038,0.129,-0.165,0.07,0.054,0.106,0.009,0.015,-0.03
0.058,-0.135,-0.193,0.039,0.126,-0.164,0.07,0.05,0.102,0.003,0.015,-0.031
0.065,-0.135,-0.2,0.035,0.133,-0.167,0.07,0.046,0.099,0.0,0.014,-0.035
0.075,-0.136,-0.211,0.03,0.143,-0.173,0.07,0.044,0.094,-0.005,0.01,-0.037
0.076,-0.134,-0.21,0.029,0.144,-0.171,0.07,0.037,0.088,-0.01,0.01,-0.04
0.062,-0.146,-0.208,0.042,0.136,-0.177,0.07,0.033,0.084,-0.014,0.008,-0.044
0.049,-0.156,-0.205,0.054,0.128,-0.181,0.07,0.027,0.078,-0.019,0.003,-0.045
0.05,-0.154,-0.204,0.053,0.127,-0.179,0.067,0.021,0.072,-0.023,0.0,-0.049
0.051,-0.159,-0.21,0.054,0.131,-0.184,0.062,0.016,0.068,-0.028,-0.003,-0.05
0.056,-0.16,-0.216,0.053,0.136,-0.187,0.059,0.012,0.063,-0.032,-0.008,-0.05
0.054,-0.16,-0.214,0.053,0.134,-0.186,0.056,0.007,0.06,-0.037,-0.01,-0.054
0.056,-0.16,-0.216,0.053,0.136,-0.187,0.051,0.004,0.057,-0.04,-0.01,-0.056
0.054,-0.16,-0.214,0.054,0.134,-0.186,0.051,0.001,0.052,-0.04,-0.01,-0.053
0.055,-0.161,-0.216,0.053,0.135,-0.188,0.055,-0.005,0.05,-0.04,-0.01,-0.05
0.052,-0.168,-0.219,0.058,0.136,-0.193,0.055,-0.003,0.05,-0.04,-0.01,-0.05
0.049,-0.167,-0.216,0.059,0.133,-0.191,0.054,-0.001,0.05,-0.041,-0.011,-0.05
0.048,-0.163,-0.21,0.058,0.129,-0.186,0.056,0.004,0.05,-0.036,-0.007,-0.05
0.05,-0.158,-0.208,0.054,0.129,-0.182,0.054,0.004,0.051,-0.025,0.005,-0.051
0.081,-0.114,-0.195,0.017,0.138,-0.155,0.066,0.017,0.076,-0.015,0.019,-0.045
0.064,-0.083,-0.147,0.009,0.106,-0.115,0.088,0.041,0.097,-0.009,0.031,-0.035
0.047,-0.086,-0.133,0.019,0.091,-0.109,0.061,0.037,0.095,-0.004,0.03,-0.025
0.09,-0.084,-0.174,-0.003,0.133,-0.129,0.036,0.029,0.095,0.001,0.031,-0.015
0.101,-0.085,-0.186,-0.008,0.144,-0.136,0.042,0.022,0.091,0.004,0.034,-0.01
0.113,-0.084,-0.197,-0.014,0.156,-0.141,0.041,0.014,0.09,0.012,0.027,-0.008
0.122,-0.087,-0.209,-0.017,0.166,-0.148,0.046,0.008,0.089,-0.003,0.016,-0.004
0.066,-0.135,-0.201,0.035,0.133,-0.167,0.045,0.001,0.07,-0.02,0.012,-0.018
0.028,-0.194,-0.221,0.083,0.125,-0.207,0.05,-0.005,0.035,-0.046,-0.01,-0.059
0.031,-0.193,-0.224,0.081,0.128,-0.208,0.05,-0.01,0.037,-0.063,-0.017,-0.057
0.037,-0.207,-0.244,0.086,0.14,-0.225,0.048,-0.015,0.024,-0.081,-0.04,-0.063
0.031,-0.196,-0.227,0.083,0.129,-0.211,0.053,-0.024,0.026,-0.074,-0.03,-0.058
0.039,-0.218,-0.258,0.09,0.148,-0.238,0.046,-0.022,0.019,-0.081,-0.038,-0.06
0.028,-0.204,-0.233,0.089,0.131,-0.218,0.06,-0.03,0.01,-0.089,-0.036,-0.063
0.041,-0.218,-0.259,0.089,0.15,-0.238,0.051,-0.001,0.009,-0.072,-0.029,-0.058
0.008,-0.306,-0.315,0.149,0.162,-0.31,0.195,0.216,-0.053,-0.167,-0.143,-0.171
0.033,-0.129,-0.163,0.048,0.098,-0.146,0.307,0.396,0.137,-0.029,-0.019,-0.092
0.416,0.327,-0.09,-0.371,0.253,0.118,-0.222,-0.187,0.611,0.543,0.515,0.42
0.709,1.064,0.354,-0.887,0.177,0.709,-0.863,-1.074,1.252,1.358,1.3,1.127
0.518,0.736,0.218,-0.627,0.15,0.477,-0.832,-1.156,0.859,0.999,1.011,0.948
0.135,-0.313,-0.447,0.089,0.291,-0.38,-0.437,-0.794,-0.255,-0.18,-0.033,0.086
-0.013,-0.411,-0.398,0.212,0.192,-0.404,-0.143,-0.405,-0.26,-0.271,-0.158,-0.121
0.031,-0.307,-0.339,0.138,0.185,-0.323,-0.005,-0.093,-0.034,-0.119,-0.079,-0.086
0.032,-0.254,-0.285,0.111,0.159,-0.269,0.041,-0.001,-0.016,-0.11,-0.071,-0.097
0.027,-0.206,-0.233,0.09,0.13,-0.219,0.061,0.056,0.055,-0.049,-0.022,-0.061
0.036,-0.209,-0.245,0.087,0.141,-0.227,0.066,0.077,0.035,-0.075,-0.04,-0.07
0.05,-0.175,-0.225,0.063,0.138,-0.2,0.064,0.085,0.062,-0.041,-0.008,-0.051
0.055,-0.188,-0.243,0.067,0.15,-0.215,0.066,0.099,0.057,-0.051,-0.021,-0.058
0.059,-0.169,-0.229,0.056,0.144,-0.199,0.065,0.106,0.07,-0.034,-0.008,-0.048
0.067,-0.172,-0.239,0.053,0.153,-0.205,0.064,0.121,0.07,-0.032,-0.011,-0.047
0.067,-0.162,-0.229,0.048,0.148,-0.195,0.072,0.125,0.074,-0.027,-0.006,-0.044
0.071,-0.159,-0.23,0.044,0.151,-0.194,0.081,0.13,0.086,-0.019,-0.003,-0.039
0.076,-0.154,-0.23,0.039,0.154,-0.192,0.079,0.141,0.097,-0.017,-0.001,-0.041
0.075,-0.149,-0.224,0.037,0.15,-0.186,0.08,0.159,0.111,-0.009,0.009,-0.037
0.08,-0.146,-0.226,0.033,0.154,-0.186,0.08,0.184,0.123,0.0,0.013,-0.035
0.083,-0.14,-0.223,0.029,0.153,-0.181,0.08,0.204,0.131,0.016,0.022,-0.036
0.089,-0.13,-0.219,0.02,0.154,-0.174,0.083,0.236,0.145,0.028,0.027,-0.028
0.112,-0.101,-0.213,-0.005,0.163,-0.157,0.088,0.288,0.186,0.045,0.047,-0.014
0.121,-0.088,-0.21,-0.017,0.166,-0.149,0.09,0.348,0.225,0.073,0.066,0.001
0.144,-0.061,-0.205,-0.041,0.175,-0.133,0.082,0.436,0.283,0.118,0.094,0.024
0.186,-0.014,-0.2,-0.086,0.193,-0.107,0.077,0.536,0.361,0.174,0.135,0.058
0.229,0.035,-0.194,-0.132,0.211,-0.079,0.068,0.632,0.444,0.244,0.188,0.112
0.271,0.09,-0.181,-0.18,0.226,-0.045,0.064,0.685,0.515,0.301,0.242,0.159
0.303,0.133,-0.17,-0.218,0.236,-0.018,0.052,0.693,0.561,0.347,0.286,0.201
0.307,0.144,-0.163,-0.225,0.235,-0.009,0.035,0.675,0.567,0.374,0.301,0.22
0.287,0.128,-0.159,-0.207,0.222,-0.015,0.034,0.589,0.536,0.352,0.287,0.211
0.268,0.114,-0.154,-0.191,0.211,-0.02,0.036,0.46,0.47,0.301,0.267,0.196
0.22,0.07,-0.15,-0.145,0.185,-0.04,0.039,0.325,0.363,0.219,0.205,0.144
0.149,0.005,-0.145,-0.077,0.147,-0.07,0.04,0.212,0.252,0.133,0.133,0.082
0.108,-0.041,-0.148,-0.033,0.129,-0.094,0.044,0.143,0.17,0.075,0.09,0.044
0.084,-0.079,-0.162,-0.002,0.123,-0.12,0.049,0.095,0.131,0.031,0.053,0.012
0.063,-0.103,-0.166,0.02,0.115,-0.134,0.045,0.072,0.105,-0.004,0.028,-0.017
0.054,-0.11,-0.164,0.028,0.109,-0.137,0.045,0.068,0.075,-0.017,0.019,-0.026
0.056,-0.11,-0.165,0.027,0.11,-0.137,0.045,0.06,0.068,-0.014,0.018,-0.024
0.053,-0.111,-0.164,0.03,0.109,-0.138,0.045,0.055,0.071,-0.015,0.015,-0.025
0.051,-0.115,-0.165,0.033,0.108,-0.14,0.045,0.047,0.069,-0.015,0.012,-0.025
0.054,-0.115,-0.169,0.031,0.112,-0.142,0.045,0.047,0.07,-0.015,0.01,-0.025
0.058,-0.112,-0.17,0.027,0.114,-0.141,0.045,0.058,0.07,-0.014,0.007,-0.021
0.06,-0.11,-0.17,0.025,0.115,-0.14,0.044,0.067,0.07,-0.01,0.004,-0.02
0.06,-0.11,-0.17,0.025,0.115,-0.14,0.046,0.076,0.07,-0.011,0.005,-0.02
0.063,-0.106,-0.17,0.022,0.117,-0.138,0.044,0.082,0.07,-0.008,0.005,-0.02
0.066,-0.104,-0.17,0.019,0.118,-0.137,0.047,0.087,0.07,-0.005,0.005,-0.02
0.064,-0.105,-0.17,0.021,0.118,-0.137,0.057,0.089,0.07,-0.005,0.004,-0.021
0.061,-0.115,-0.176,0.027,0.119,-0.145,0.056,0.084,0.07,-0.008,-0.001,-0.026
0.063,-0.122,-0.185,0.03,0.124,-0.153,0.052,0.077,0.064,-0.014,0.001,-0.025
0.068,-0.117,-0.185,0.025,0.127,-0.151,0.05,0.071,0.058,-0.019,-0.003,-0.028
0.05,-0.132,-0.182,0.041,0.116,-0.157,0.046,0.064,0.054,-0.023,-0.005,-0.03
0.033,-0.146,-0.18,0.056,0.107,-0.163,0.045,0.058,0.047,-0.028,-0.005,-0.03
0.035,-0.144,-0.18,0.055,0.108,-0.162,0.045,0.052,0.043,-0.031,-0.008,-0.033
0.051,-0.145,-0.196,0.048,0.124,-0.17,0.045,0.046,0.037,-0.036,-0.011,-0.036
0.063,-0.145,-0.207,0.042,0.135,-0.176,0.045,0.041,0.029,-0.041,-0.014,-0.039
0.056,-0.145,-0.201,0.045,0.129,-0.173,0.045,0.036,0.023,-0.044,-0.017,-0.042
0.059,-0.141,-0.2,0.041,0.13,-0.17,0.045,0.03,0.015,-0.049,-0.02,-0.045
0.056,-0.14,-0.196,0.042,0.126,-0.168,0.044,0.025,0.007,-0.05,-0.019,-0.045
0.055,-0.139,-0.194,0.043,0.125,-0.166,0.039,0.02,0.001,-0.05,-0.015,-0.045
0.064,-0.136,-0.2,0.036,0.133,-0.168,0.04,0.021,-0.005,-0.05,-0.015,-0.045
0.064,-0.134,-0.198,0.035,0.132,-0.166,0.039,0.018,-0.005,-0.05,-0.015,-0.045
0.055,-0.137,-0.192,0.041,0.124,-0.164,0.04,0.015,-0.006,-0.049,-0.015,-0.045
0.048,-0.14,-0.188,0.046,0.118,-0.163,0.039,0.014,-0.01,-0.041,-0.016,-0.046
0.043,-0.137,-0.181,0.047,0.113,-0.159,0.044,0.019,-0.011,-0.033,-0.011,-0.041
0.046,-0.132,-0.178,0.043,0.112,-0.155,0.051,0.031,-0.005,-0.026,0.0,-0.03
0.061,-0.095,-0.156,0.017,0.109,-0.125,0.057,0.042,0.019,-0.017,0.011,-0.02
0.041,-0.065,-0.106,0.012,0.074,-0.085,0.081,0.058,0.04,-0.011,0.036,-0.01
0.046,-0.06,-0.105,0.007,0.076,-0.082,0.062,0.059,0.038,-0.009,0.046,0.0
0.093,-0.053,-0.146,-0.02,0.12,-0.099,0.027,0.047,0.032,-0.005,0.037,0.011
0.096,-0.05,-0.146,-0.023,0.121,-0.098,0.032,0.04,0.027,-0.005,0.031,0.011
0.114,-0.048,-0.163,-0.033,0.139,-0.105,0.029,0.03,0.022,0.002,0.024,0.011
0.115,-0.059,-0.174,-0.028,0.144,-0.116,0.03,0.022,0.015,-0.004,0.013,0.007
0.069,-0.098,-0.166,0.014,0.118,-0.132,0.03,0.016,0.006,-0.024,0.013,-0.022
0.036,-0.162,-0.198,0.063,0.117,-0.18,0.025,0.01,-0.025,-0.057,-0.004,-0.054
0.022,-0.169,-0.191,0.074,0.107,-0.179,0.026,0.001,-0.034,-0.061,-0.007,-0.052
0.037,-0.184,-0.221,0.074,0.129,-0.202,0.023,-0.002,-0.044,-0.069,-0.023,-0.057
0.031,-0.177,-0.208,0.074,0.119,-0.192,0.027,-0.012,-0.054,-0.071,-0.026,-0.055
0.037,-0.183,-0.219,0.073,0.128,-0.201,0.022,-0.002,-0.047,-0.058,-0.021,-0.052
0.023,-0.193,-0.216,0.085,0.12,-0.204,0.032,-0.008,-0.07,-0.073,-0.035,-0.062
0.041,-0.166,-0.207,0.063,0.125,-0.187,0.029,0.001,-0.04,-0.044,-0.008,-0.044
0.03,-0.269,-0.299,0.12,0.165,-0.283,0.132,0.171,-0.105,-0.153,-0.123,-0.141
-0.007,-0.153,-0.146,0.08,0.07,-0.149,0.313,0.432,0.004,-0.097,-0.078,-0.139
0.308,0.211,-0.097,-0.259,0.202,0.057,-0.04,0.094,0.424,0.381,0.362,0.258
0.649,0.956,0.307,-0.803,0.171,0.632,-0.735,-0.849,1.113,1.252,1.179,1.015
0.542,0.966,0.424,-0.754,0.059,0.695,-0.852,-1.159,1.049,1.258,1.216,1.091
0.173,-0.119,-0.292,-0.026,0.232,-0.206,-0.494,-0.852,-0.139,0.012,0.137,0.219
-0.022,-0.425,-0.403,0.224,0.191,-0.413,-0.188,-0.48,-0.405,-0.327,-0.199,-0.13
0.006,-0.301,-0.307,0.147,0.157,-0.304,-0.029,-0.138,-0.114,-0.12,-0.07,-0.076
0.023,-0.255,-0.278,0.116,0.15,-0.266,0.017,-0.025,-0.112,-0.132,-0.075,-0.097
0.033,-0.171,-0.205,0.069,0.119,-0.188,0.042,0.036,-0.028,-0.049,-0.02,-0.062
0.039,-0.181,-0.22,0.071,0.13,-0.2,0.057,0.072,-0.038,-0.072,-0.047,-0.07
0.044,-0.149,-0.192,0.053,0.118,-0.17,0.053,0.077,-0.015,-0.049,-0.023,-0.048
0.044,-0.16,-0.204,0.058,0.125,-0.182,0.056,0.093,-0.014,-0.053,-0.029,-0.048
0.041,-0.147,-0.187,0.053,0.114,-0.167,0.054,0.096,-0.008,-0.043,-0.014,-0.041
0.042,-0.145,-0.188,0.052,0.115,-0.166,0.056,0.104,0.002,-0.033,-0.004,-0.035
0.04,-0.142,-0.181,0.051,0.111,-0.161,0.054,0.105,0.001,-0.032,0.003,-0.031
0.044,-0.134,-0.178,0.045,0.112,-0.156,0.051,0.113,0.014,-0.018,0.015,-0.023
0.05,-0.131,-0.182,0.041,0.116,-0.156,0.05,0.119,0.012,-0.016,0.017,-0.022
0.058,-0.12,-0.178,0.031,0.118,-0.149,0.05,0.129,0.024,-0.003,0.028,-0.017
0.064,-0.117,-0.181,0.027,0.122,-0.149,0.05,0.145,0.032,0.001,0.031,-0.014
0.072,-0.108,-0.181,0.018,0.127,-0.144,0.05,0.165,0.043,0.013,0.04,-0.011
0.085,-0.101,-0.185,0.009,0.135,-0.143,0.048,0.191,0.062,0.026,0.042,-0.006
0.088,-0.094,-0.182,0.003,0.135,-0.138,0.042,0.234,0.091,0.043,0.058,0.01
0.099,-0.078,-0.177,-0.01,0.138,-0.127,0.038,0.289,0.124,0.072,0.08,0.028
0.122,-0.052,-0.175,-0.034,0.149,-0.113,0.034,0.357,0.171,0.112,0.105,0.048
0.164,-0.006,-0.17,-0.079,0.168,-0.088,0.029,0.445,0.243,0.171,0.15,0.083
0.215,0.049,-0.166,-0.131,0.19,-0.059,0.025,0.528,0.325,0.237,0.207,0.13
0.268,0.105,-0.164,-0.186,0.216,-0.029,0.013,0.588,0.401,0.3,0.258,0.179
0.309,0.154,-0.155,-0.231,0.232,-0.001,-0.007,0.614,0.453,0.364,0.314,0.233
0.325,0.181,-0.144,-0.253,0.234,0.018,-0.014,0.6,0.468,0.4,0.348,0.257
0.316,0.185,-0.131,-0.25,0.224,0.026,-0.019,0.545,0.454,0.391,0.344,0.262
0.265,0.146,-0.12,-0.205,0.192,0.013,-0.025,0.435,0.382,0.351,0.319,0.248
0.221,0.107,-0.114,-0.164,0.168,-0.003,-0.009,0.302,0.24,0.274,0.257,0.183
0.165,0.049,-0.115,-0.106,0.14,-0.032,0.013,0.193,0.093,0.178,0.188,0.114
0.101,-0.014,-0.115,-0.043,0.108,-0.064,0.017,0.118,-0.003,0.107,0.13,0.062
0.073,-0.042,-0.115,-0.015,0.094,-0.078,0.015,0.066,-0.073,0.053,0.081,0.034
0.059,-0.072,-0.131,0.007,0.095,-0.101,0.015,0.035,-0.114,0.02,0.062,0.025
0.054,-0.081,-0.135,0.014,0.095,-0.108,0.015,0.029,-0.127,0.015,0.052,0.012
0.05,-0.079,-0.129,0.015,0.089,-0.104,0.015,0.023,-0.141,0.01,0.039,0.003
0.047,-0.081,-0.127,0.017,0.087,-0.104,0.014,0.016,-0.142,0.004,0.038,0.0
0.042,-0.079,-0.121,0.019,0.082,-0.1,0.028,0.009,-0.139,-0.002,0.041,0.0
0.04,-0.08,-0.12,0.02,0.08,-0.1,0.038,0.005,-0.14,-0.004,0.04,-0.003
0.048,-0.076,-0.124,0.015,0.086,-0.1,0.034,0.014,-0.14,0.001,0.04,-0.006
0.057,-0.072,-0.129,0.008,0.093,-0.101,0.032,0.022,-0.14,0.004,0.04,-0.005
0.059,-0.069,-0.128,0.005,0.093,-0.098,0.029,0.03,-0.141,0.007,0.04,-0.005
0.056,-0.066,-0.122,0.005,0.09,-0.094,0.026,0.038,-0.145,0.011,0.04,-0.005
0.057,-0.061,-0.118,0.003,0.087,-0.089,0.024,0.036,-0.147,0.015,0.04,-0.005
0.053,-0.061,-0.113,0.005,0.083,-0.087,0.02,0.034,-0.15,0.01,0.04,-0.005
0.043,-0.065,-0.109,0.011,0.076,-0.087,0.02,0.035,-0.154,0.002,0.04,-0.005
0.04,-0.065,-0.105,0.013,0.073,-0.085,0.019,0.03,-0.155,-0.004,0.04,-0.008
0.046,-0.065,-0.11,0.01,0.079,-0.087,0.015,0.03,-0.159,-0.012,0.036,-0.011
0.049,-0.069,-0.118,0.01,0.084,-0.093,0.015,0.029,-0.166,-0.02,0.035,-0.01
0.048,-0.07,-0.118,0.011,0.083,-0.094,0.015,0.022,-0.173,-0.025,0.035,-0.014
0.044,-0.071,-0.114,0.014,0.079,-0.092,0.015,0.016,-0.179,-0.025,0.03,-0.015
0.043,-0.069,-0.112,0.013,0.077,-0.09,0.015,0.009,-0.184,-0.025,0.03,-0.015
0.034,-0.075,-0.109,0.02,0.072,-0.092,0.015,0.002,-0.185,-0.025,0.029,-0.02
0.02,-0.086,-0.106,0.034,0.063,-0.096,0.015,-0.004,-0.186,-0.025,0.024,-0.02
0.023,-0.081,-0.104,0.03,0.064,-0.092,0.016,-0.009,-0.194,-0.025,0.021,-0.02
0.022,-0.078,-0.101,0.028,0.062,-0.089,0.019,-0.016,-0.195,-0.029,0.018,-0.02
0.025,-0.075,-0.099,0.025,0.062,-0.087,0.02,-0.022,-0.195,-0.034,0.013,-0.02
0.031,-0.069,-0.101,0.019,0.066,-0.085,0.02,-0.03,-0.195,-0.028,0.01,-0.017
0.026,-0.073,-0.099,0.024,0.062,-0.086,0.02,-0.034,-0.195,-0.022,0.014,-0.011
0.024,-0.077,-0.102,0.027,0.063,-0.089,0.02,-0.025,-0.196,-0.018,0.023,-0.006
0.02,-0.076,-0.095,0.028,0.058,-0.085,0.022,-0.018,-0.191,-0.011,0.029,0.0
0.04,-0.04,-0.08,0.001,0.06,-0.06,0.033,-0.007,-0.184,-0.008,0.036,0.004
0.063,0.014,-0.049,-0.038,0.056,-0.018,0.051,0.011,-0.175,0.007,0.061,0.013
0.059,0.036,-0.024,-0.047,0.041,0.006,0.05,0.016,-0.165,0.026,0.072,0.021
0.073,0.032,-0.041,-0.052,0.057,-0.004,0.014,0.01,-0.154,0.025,0.069,0.031
0.077,0.025,-0.052,-0.051,0.065,-0.014,-0.003,0.0,-0.154,0.019,0.075,0.032
0.068,0.021,-0.047,-0.045,0.057,-0.013,-0.007,-0.011,-0.154,0.016,0.075,0.023
0.066,0.013,-0.053,-0.04,0.059,-0.02,-0.014,-0.026,-0.156,0.01,0.075,0.011
0.04,-0.014,-0.055,-0.013,0.048,-0.034,-0.01,-0.038,-0.171,-0.003,0.058,0.004
0.01,-0.079,-0.089,0.034,0.05,-0.083,-0.009,-0.043,-0.207,-0.045,0.014,-0.008
0.003,-0.09,-0.093,0.044,0.048,-0.091,-0.005,-0.052,-0.23,-0.062,0.004,-0.018
0.008,-0.097,-0.105,0.045,0.056,-0.101,-0.003,-0.053,-0.228,-0.063,0.005,-0.026
-0.009,-0.108,-0.099,0.058,0.045,-0.103,0.001,-0.056,-0.237,-0.081,-0.006,-0.034
-0.003,-0.094,-0.09,0.049,0.044,-0.091,-0.003,-0.048,-0.219,-0.061,0.004,-0.023
-0.004,-0.112,-0.108,0.059,0.052,-0.11,-0.006,-0.044,-0.244,-0.083,-0.016,-0.04
0.0,-0.071,-0.07,0.036,0.035,-0.071,-0.014,-0.049,-0.213,-0.045,-0.007,-0.016
0.008,-0.178,-0.186,0.086,0.097,-0.182,0.053,0.061,-0.27,-0.126,-0.094,-0.086
-0.06,-0.134,-0.073,0.097,0.007,-0.103,0.27,0.342,-0.249,-0.165,-0.105,-0.146
0.158,0.165,0.007,-0.161,0.075,0.086,0.091,0.217,0.112,0.209,0.223,0.144
0.522,0.864,0.342,-0.693,0.09,0.602,-0.618,-0.695,0.805,1.076,1.013,0.843
0.502,1.209,0.707,-0.856,-0.103,0.958,-0.912,-1.233,1.08,1.452,1.371,1.167
0.182,0.203,0.02,-0.193,0.081,0.112,-0.596,-0.996,-0.046,0.286,0.378,0.42
-0.043,-0.354,-0.312,0.199,0.135,-0.333,-0.274,-0.628,-0.66,-0.389,-0.222,-0.116
-0.032,-0.223,-0.191,0.128,0.08,-0.206,-0.086,-0.266,-0.338,-0.157,-0.082,-0.075
-0.011,-0.189,-0.178,0.1,0.083,-0.183,-0.012,-0.103,-0.304,-0.15,-0.091,-0.089
-0.01,-0.088,-0.078,0.049,0.034,-0.083,0.008,-0.047,-0.227,-0.081,-0.035,-0.051
-0.009,-0.091,-0.082,0.05,0.037,-0.086,0.035,-0.001,-0.217,-0.084,-0.039,-0.051
-0.006,-0.063,-0.056,0.035,0.025,-0.059,0.035,0.01,-0.204,-0.073,-0.027,-0.044
0.01,-0.059,-0.069,0.025,0.04,-0.064,0.035,0.023,-0.185,-0.062,-0.019,-0.037
0.011,-0.054,-0.065,0.022,0.038,-0.059,0.032,0.029,-0.191,-0.064,-0.018,-0.039
0.019,-0.045,-0.063,0.014,0.041,-0.054,0.029,0.036,-0.171,-0.047,-0.003,-0.026
0.021,-0.047,-0.067,0.014,0.044,-0.057,0.031,0.036,-0.176,-0.052,-0.006,-0.041
0.022,-0.036,-0.057,0.007,0.04,-0.046,0.034,0.047,-0.161,-0.039,0.004,-0.049
0.022,-0.037,-0.059,0.008,0.041,-0.048,0.034,0.052,-0.16,-0.04,-0.002,-0.044
0.025,-0.027,-0.052,0.001,0.039,-0.039,0.043,0.072,-0.145,-0.032,0.001,-0.039
0.031,-0.019,-0.05,-0.006,0.041,-0.035,0.051,0.089,-0.131,-0.029,-0.001,-0.033
0.035,-0.011,-0.045,-0.011,0.04,-0.028,0.043,0.107,-0.118,-0.025,0.0,-0.028
0.044,0.001,-0.043,-0.022,0.043,-0.02,0.04,0.13,-0.098,-0.014,0.011,-0.021
0.059,0.023,-0.036,-0.041,0.048,-0.006,0.035,0.158,-0.073,0.007,0.025,-0.006
0.071,0.04,-0.031,-0.055,0.051,0.004,0.031,0.211,-0.042,0.029,0.038,0.006
0.088,0.061,-0.026,-0.074,0.057,0.017,0.026,0.282,0.014,0.064,0.056,0.029
0.114,0.094,-0.02,-0.104,0.066,0.037,0.017,0.371,0.092,0.116,0.095,0.053
0.166,0.151,-0.015,-0.158,0.09,0.067,0.012,0.463,0.179,0.18,0.15,0.091
0.216,0.211,-0.006,-0.213,0.111,0.102,0.003,0.536,0.264,0.25,0.203,0.142
0.251,0.26,0.009,-0.256,0.12,0.134,-0.004,0.564,0.335,0.318,0.254,0.188
0.272,0.291,0.019,-0.282,0.126,0.155,-0.019,0.55,0.375,0.341,0.287,0.217
0.245,0.28,0.034,-0.263,0.105,0.157,-0.032,0.508,0.365,0.327,0.291,0.21
0.222,0.267,0.045,-0.245,0.089,0.156,-0.021,0.408,0.325,0.306,0.271,0.198
0.19,0.238,0.047,-0.214,0.071,0.142,-0.006,0.272,0.235,0.228,0.208,0.153
0.122,0.181,0.059,-0.152,0.031,0.12,0.003,0.159,0.134,0.137,0.133,0.085
0.066,0.128,0.061,-0.097,0.003,0.094,0.008,0.071,0.044,0.057,0.067,0.034
0.024,0.083,0.059,-0.054,-0.017,0.071,0.01,0.017,-0.017,-0.003,0.017,-0.009
0.007,0.064,0.056,-0.036,-0.025,0.06,0.015,-0.013,-0.039,-0.034,-0.005,-0.041
0.004,0.058,0.054,-0.031,-0.025,0.056,0.018,-0.036,-0.052,-0.057,-0.015,-0.056
-0.006,0.051,0.057,-0.023,-0.032,0.054,0.022,-0.043,-0.049,-0.069,-0.025,-0.054
-0.015,0.045,0.06,-0.015,-0.038,0.052,0.025,-0.039,-0.05,-0.076,-0.035,-0.056
-0.023,0.037,0.06,-0.007,-0.042,0.048,0.025,-0.036,-0.05,-0.074,-0.04,-0.06
-0.023,0.037,0.06,-0.007,-0.041,0.048,0.025,-0.033,-0.05,-0.079,-0.043,-0.06
-0.02,0.04,0.06,-0.01,-0.04,0.05,0.025,-0.029,-0.049,-0.08,-0.047,-0.058
-0.02,0.04,0.06,-0.01,-0.04,0.05,0.025,-0.025,-0.044,-0.08,-0.05,-0.054
-0.015,0.045,0.06,-0.015,-0.038,0.052,0.025,-0.022,-0.039,-0.084,-0.054,-0.055
-0.01,0.049,0.06,-0.019,-0.035,0.055,0.025,-0.019,-0.035,-0.086,-0.055,-0.055
-0.006,0.054,0.06,-0.024,-0.034,0.057,0.025,-0.016,-0.03,-0.09,-0.055,-0.055
-0.007,0.053,0.06,-0.023,-0.034,0.056,0.025,-0.013,-0.025,-0.092,-0.055,-0.055
-0.011,0.049,0.06,-0.019,-0.036,0.055,0.025,-0.01,-0.029,-0.095,-0.055,-0.06
-0.008,0.05,0.059,-0.021,-0.034,0.054,0.023,-0.011,-0.03,-0.097,-0.056,-0.068
-0.005,0.05,0.055,-0.023,-0.03,0.052,0.02,-0.016,-0.032,-0.102,-0.065,-0.073
-0.005,0.05,0.055,-0.023,-0.03,0.052,0.02,-0.019,-0.035,-0.104,-0.072,-0.076
-0.005,0.05,0.054,-0.023,-0.03,0.052,0.02,-0.024,-0.036,-0.101,-0.075,-0.078
-0.011,0.045,0.056,-0.018,-0.034,0.05,0.02,-0.031,-0.041,-0.099,-0.079,-0.081
-0.014,0.04,0.053,-0.014,-0.034,0.046,0.02,-0.037,-0.045,-0.105,-0.084,-0.084
-0.021,0.035,0.057,-0.007,-0.039,0.046,0.024,-0.043,-0.044,-0.115,-0.089,-0.086
-0.039,0.031,0.071,0.004,-0.055,0.051,0.025,-0.047,-0.048,-0.117,-0.092,-0.089
-0.044,0.026,0.07,0.009,-0.057,0.048,0.025,-0.052,-0.055,-0.124,-0.096,-0.092
-0.046,0.022,0.068,0.012,-0.058,0.045,0.025,-0.059,-0.055,-0.13,-0.1,-0.094
-0.045,0.02,0.065,0.012,-0.055,0.042,0.025,-0.06,-0.055,-0.134,-0.105,-0.097
-0.044,0.02,0.064,0.012,-0.054,0.041,0.024,-0.061,-0.055,-0.138,-0.108,-0.101
-0.048,0.021,0.068,0.013,-0.058,0.044,0.02,-0.065,-0.055,-0.14,-0.112,-0.097
-0.05,0.019,0.069,0.015,-0.06,0.044,0.02,-0.065,-0.055,-0.145,-0.115,-0.094
-0.051,0.021,0.072,0.015,-0.062,0.047,0.02,-0.069,-0.055,-0.142,-0.119,-0.095
-0.05,0.023,0.073,0.013,-0.062,0.048,0.02,-0.074,-0.056,-0.134,-0.119,-0.095
-0.053,0.025,0.078,0.013,-0.065,0.051,0.02,-0.066,-0.055,-0.127,-0.114,-0.095
-0.04,0.036,0.075,0.002,-0.058,0.055,0.023,-0.057,-0.057,-0.118,-0.111,-0.095
-0.025,0.082,0.106,-0.029,-0.066,0.094,0.029,-0.058,-0.03,-0.111,-0.105,-0.088
-0.018,0.135,0.153,-0.059,-0.085,0.143,0.043,-0.06,0.001,-0.11,-0.095,-0.078
-0.003,0.14,0.143,-0.069,-0.073,0.141,0.031,-0.06,0.0,-0.11,-0.084,-0.067
0.003,0.132,0.129,-0.067,-0.063,0.13,-0.018,-0.06,-0.003,-0.11,-0.078,-0.06
0.005,0.127,0.122,-0.066,-0.059,0.124,-0.03,-0.06,-0.006,-0.11,-0.08,-0.06
0.015,0.119,0.105,-0.067,-0.045,0.112,-0.018,-0.06,-0.009,-0.109,-0.085,-0.06
0.001,0.106,0.104,-0.054,-0.052,0.105,-0.011,-0.071,-0.012,-0.114,-0.09,-0.06
-0.024,0.062,0.086,-0.019,-0.055,0.074,-0.002,-0.078,-0.023,-0.131,-0.106,-0.082
-0.047,0.022,0.069,0.012,-0.058,0.045,0.001,-0.09,-0.052,-0.162,-0.134,-0.119
-0.073,0.009,0.082,0.032,-0.078,0.045,-0.001,-0.097,-0.058,-0.167,-0.133,-0.116
-0.079,-0.008,0.07,0.043,-0.074,0.031,0.004,-0.093,-0.07,-0.182,-0.15,-0.125
-0.084,0.009,0.093,0.037,-0.088,0.051,0.006,-0.098,-0.061,-0.168,-0.14,-0.12
-0.089,-0.016,0.072,0.052,-0.08,0.028,0.004,-0.09,-0.067,-0.18,-0.154,-0.128
-0.089,0.006,0.095,0.041,-0.092,0.05,0.011,-0.104,-0.067,-0.175,-0.149,-0.128
-0.081,-0.048,0.033,0.064,-0.057,-0.007,0.019,-0.056,-0.067,-0.187,-0.166,-0.141
-0.124,-0.1,0.023,0.112,-0.073,-0.038,0.199,0.2,-0.116,-0.292,-0.272,-0.247
-0.013,0.129,0.142,-0.058,-0.078,0.135,0.224,0.28,0.106,-0.087,-0.089,-0.105
0.391,0.66,0.269,-0.526,0.061,0.464,-0.4,-0.444,0.662,0.586,0.54,0.482
0.586,1.321,0.735,-0.954,-0.075,1.028,-0.965,-1.243,1.23,1.325,1.239,1.129
0.335,0.742,0.407,-0.539,-0.036,0.575,-0.822,-1.205,0.602,0.7,0.718,0.745
-0.008,-0.211,-0.203,0.11,0.097,-0.207,-0.413,-0.826,-0.41,-0.391,-0.255,-0.085
-0.11,-0.189,-0.079,0.15,-0.016,-0.134,-0.145,-0.423,-0.278,-0.339,-0.276,-0.175
-0.083,-0.111,-0.027,0.097,-0.028,-0.068,-0.031,-0.158,-0.105,-0.236,-0.214,-0.148
-0.078,-0.045,0.033,0.061,-0.055,-0.006,0.008,-0.093,-0.084,-0.219,-0.19,-0.15
-0.066,-0.004,0.062,0.035,-0.064,0.029,0.026,-0.032,-0.028,-0.176,-0.146,-0.131
-0.08,-0.008,0.072,0.044,-0.076,0.032,0.032,-0.022,-0.045,-0.197,-0.165,-0.148
-0.075,0.014,0.089,0.031,-0.083,0.051,0.04,-0.013,-0.016,-0.164,-0.146,-0.129
-0.066,0.005,0.071,0.03,-0.069,0.038,0.041,-0.004,-0.026,-0.178,-0.162,-0.14
-0.062,0.025,0.087,0.019,-0.075,0.056,0.036,0.001,-0.008,-0.159,-0.151,-0.131
-0.053,0.021,0.075,0.016,-0.064,0.048,0.035,0.013,-0.007,-0.162,-0.157,-0.132
-0.053,0.032,0.085,0.01,-0.069,0.059,0.03,0.026,0.003,-0.153,-0.149,-0.126
-0.051,0.034,0.085,0.008,-0.068,0.059,0.03,0.041,0.012,-0.148,-0.142,-0.123
-0.053,0.038,0.091,0.007,-0.072,0.065,0.035,0.046,0.018,-0.142,-0.137,-0.12
-0.051,0.043,0.094,0.004,-0.073,0.068,0.035,0.062,0.027,-0.132,-0.128,-0.115
-0.051,0.045,0.096,0.003,-0.074,0.071,0.037,0.079,0.04,-0.129,-0.124,-0.113
-0.048,0.052,0.1,-0.002,-0.074,0.076,0.042,0.102,0.052,-0.116,-0.115,-0.102
-0.038,0.064,0.102,-0.013,-0.07,0.083,0.045,0.139,0.075,-0.1,-0.105,-0.093
-0.022,0.083,0.105,-0.031,-0.064,0.094,0.045,0.192,0.111,-0.084,-0.093,-0.082
-0.005,0.101,0.107,-0.048,-0.056,0.104,0.045,0.259,0.15,-0.05,-0.069,-0.065
0.028,0.141,0.113,-0.084,-0.043,0.127,0.046,0.354,0.217,-0.001,-0.033,-0.038
0.073,0.187,0.114,-0.131,-0.021,0.15,0.045,0.455,0.296,0.058,0.004,-0.002
0.103,0.233,0.131,-0.168,-0.014,0.182,0.046,0.534,0.376,0.125,0.055,0.041
0.14,0.287,0.147,-0.214,-0.004,0.217,0.039,0.59,0.454,0.185,0.108,0.089
0.175,0.322,0.147,-0.249,0.014,0.234,0.017,0.595,0.488,0.238,0.153,0.129
0.187,0.338,0.15,-0.263,0.018,0.244,0.004,0.564,0.477,0.246,0.176,0.156
0.17,0.324,0.154,-0.248,0.008,0.239,0.001,0.486,0.463,0.231,0.164,0.15
0.12,0.274,0.154,-0.197,-0.017,0.213,-0.004,0.342,0.391,0.179,0.128,0.124
0.058,0.22,0.161,-0.139,-0.052,0.19,-0.003,0.198,0.268,0.08,0.065,0.068
0.003,0.168,0.164,-0.086,-0.081,0.166,0.001,0.091,0.167,0.003,-0.002,0.0
-0.032,0.117,0.15,-0.043,-0.091,0.133,0.003,0.023,0.095,-0.054,-0.057,-0.04
-0.055,0.086,0.141,-0.016,-0.098,0.113,0.006,-0.012,0.051,-0.102,-0.093,-0.071
-0.071,0.069,0.14,0.001,-0.106,0.104,0.009,-0.03,0.029,-0.132,-0.112,-0.088
-0.079,0.061,0.14,0.009,-0.11,0.1,0.011,-0.044,0.017,-0.141,-0.128,-0.094
-0.083,0.056,0.14,0.013,-0.112,0.098,0.014,-0.053,0.006,-0.139,-0.13,-0.095
-0.089,0.051,0.14,0.019,-0.115,0.095,0.015,-0.052,0.005,-0.14,-0.13,-0.095
-0.094,0.045,0.139,0.025,-0.117,0.091,0.018,-0.047,0.005,-0.14,-0.134,-0.095
-0.093,0.041,0.134,0.026,-0.114,0.087,0.02,-0.044,0.0,-0.14,-0.135,-0.095
-0.084,0.044,0.128,0.02,-0.107,0.086,0.022,-0.04,0.0,-0.14,-0.135,-0.095
-0.079,0.045,0.125,0.017,-0.103,0.085,0.026,-0.037,0.0,-0.14,-0.135,-0.095
-0.075,0.045,0.12,0.015,-0.098,0.082,0.025,-0.033,0.0,-0.14,-0.135,-0.095
-0.07,0.045,0.115,0.012,-0.093,0.08,0.025,-0.03,0.0,-0.14,-0.135,-0.095
-0.078,0.045,0.123,0.016,-0.101,0.084,0.025,-0.031,0.0,-0.14,-0.135,-0.095
-0.083,0.043,0.126,0.02,-0.105,0.084,0.025,-0.028,0.0,-0.141,-0.135,-0.095
-0.085,0.039,0.124,0.022,-0.105,0.081,0.025,-0.025,0.0,-0.144,-0.137,-0.097
-0.088,0.037,0.125,0.025,-0.107,0.081,0.025,-0.025,-0.004,-0.147,-0.141,-0.101
-0.091,0.034,0.125,0.028,-0.109,0.079,0.025,-0.029,-0.01,-0.15,-0.14,-0.1
-0.094,0.031,0.124,0.031,-0.109,0.077,0.025,-0.032,-0.015,-0.153,-0.144,-0.104
-0.091,0.029,0.121,0.031,-0.106,0.075,0.025,-0.037,-0.021,-0.155,-0.145,-0.105
-0.093,0.025,0.118,0.034,-0.106,0.071,0.025,-0.048,-0.026,-0.155,-0.145,-0.105
-0.09,0.025,0.115,0.032,-0.104,0.07,0.025,-0.056,-0.031,-0.162,-0.15,-0.11
-0.088,0.024,0.112,0.032,-0.1,0.068,0.025,-0.061,-0.037,-0.173,-0.15,-0.11
-0.091,0.02,0.11,0.036,-0.1,0.065,0.025,-0.068,-0.044,-0.175,-0.15,-0.111
-0.087,0.021,0.107,0.033,-0.097,0.064,0.025,-0.074,-0.045,-0.175,-0.15,-0.115
-0.087,0.018,0.105,0.034,-0.096,0.061,0.024,-0.078,-0.046,-0.175,-0.152,-0.115
-0.094,0.011,0.105,0.041,-0.099,0.058,0.021,-0.083,-0.05,-0.175,-0.155,-0.115
-0.096,0.006,0.102,0.045,-0.099,0.053,0.02,-0.084,-0.049,-0.185,-0.158,-0.115
-0.097,0.001,0.099,0.048,-0.098,0.05,0.02,-0.08,-0.056,-0.186,-0.161,-0.115
-0.107,-0.006,0.101,0.056,-0.104,0.047,0.02,-0.08,-0.061,-0.179,-0.164,-0.115
-0.112,-0.009,0.103,0.06,-0.107,0.047,0.02,-0.078,-0.06,-0.176,-0.165,-0.115
-0.112,-0.005,0.107,0.058,-0.11,0.051,0.023,-0.073,-0.06,-0.171,-0.158,-0.115
-0.095,0.012,0.108,0.042,-0.102,0.06,0.029,-0.076,-0.062,-0.167,-0.148,-0.11
-0.073,0.048,0.121,0.012,-0.098,0.085,0.043,-0.067,-0.048,-0.162,-0.137,-0.102
-0.083,0.088,0.171,-0.003,-0.127,0.129,0.059,-0.049,-0.025,-0.156,-0.128,-0.096
-0.074,0.111,0.185,-0.018,-0.13,0.147,0.05,-0.054,-0.024,-0.149,-0.124,-0.089
-0.055,0.101,0.156,-0.024,-0.106,0.128,0.003,-0.065,-0.025,-0.142,-0.125,-0.082
-0.052,0.097,0.149,-0.023,-0.101,0.123,-0.021,-0.072,-0.025,-0.136,-0.121,-0.077
-0.049,0.088,0.137,-0.02,-0.093,0.112,-0.012,-0.079,-0.024,-0.129,-0.119,-0.07
-0.061,0.063,0.124,-0.001,-0.093,0.093,-0.006,-0.084,-0.027,-0.138,-0.122,-0.066
-0.09,0.028,0.117,0.031,-0.104,0.072,0.001,-0.091,-0.049,-0.167,-0.139,-0.09
-0.125,-0.028,0.098,0.076,-0.111,0.035,0.005,-0.096,-0.087,-0.203,-0.176,-0.127
-0.131,-0.031,0.099,0.081,-0.115,0.034,0.007,-0.101,-0.093,-0.201,-0.176,-0.127
-0.124,-0.049,0.075,0.087,-0.1,0.013,0.01,-0.104,-0.104,-0.212,-0.184,-0.133
-0.129,-0.041,0.087,0.085,-0.108,0.022,0.014,-0.103,-0.097,-0.2,-0.176,-0.127
-0.122,-0.061,0.061,0.091,-0.091,0.0,0.013,-0.092,-0.103,-0.206,-0.193,-0.131
-0.119,-0.051,0.068,0.085,-0.093,0.008,0.022,-0.094,-0.111,-0.209,-0.209,-0.132
-0.115,-0.06,0.055,0.087,-0.085,-0.002,0.016,-0.071,-0.094,-0.196,-0.199,-0.129
-0.189,-0.153,0.037,0.171,-0.113,-0.058,0.159,0.132,-0.148,-0.311,-0.298,-0.241
-0.148,0.022,0.17,0.063,-0.159,0.096,0.273,0.327,0.023,-0.169,-0.182,-0.16
0.242,0.484,0.243,-0.363,-0.001,0.364,-0.234,-0.239,0.489,0.401,0.359,0.356
0.534,1.214,0.681,-0.874,-0.074,0.947,-0.883,-1.139,1.125,1.213,1.124,1.068
0.346,0.896,0.551,-0.621,-0.103,0.723,-0.858,-1.229,0.742,0.862,0.839,0.889
-0.041,-0.158,-0.118,0.1,0.038,-0.138,-0.462,-0.873,-0.367,-0.322,-0.186,0.011
-0.18,-0.265,-0.085,0.223,-0.047,-0.174,-0.17,-0.498,-0.379,-0.415,-0.324,-0.201
-0.135,-0.149,-0.014,0.142,-0.06,-0.081,-0.027,-0.188,-0.155,-0.262,-0.238,-0.156
-0.128,-0.099,0.029,0.113,-0.078,-0.035,0.009,-0.088,-0.144,-0.258,-0.23,-0.156
-0.135,-0.051,0.085,0.093,-0.11,0.017,0.02,-0.037,-0.077,-0.196,-0.178,-0.116
-0.145,-0.064,0.082,0.104,-0.113,0.009,0.03,-0.027,-0.095,-0.22,-0.201,-0.132
-0.148,-0.036,0.112,0.092,-0.129,0.037,0.04,-0.016,-0.061,-0.19,-0.175,-0.115
-0.143,-0.047,0.096,0.095,-0.119,0.024,0.046,-0.003,-0.068,-0.202,-0.184,-0.122
-0.132,-0.027,0.105,0.08,-0.119,0.039,0.044,0.003,-0.055,-0.187,-0.169,-0.114
-0.126,-0.029,0.097,0.078,-0.111,0.033,0.048,0.017,-0.053,-0.185,-0.169,-0.114
-0.124,-0.023,0.101,0.073,-0.112,0.039,0.05,0.022,-0.047,-0.179,-0.163,-0.111
-0.121,-0.021,0.1,0.071,-0.11,0.04,0.05,0.033,-0.04,-0.171,-0.156,-0.106
-0.118,-0.019,0.099,0.068,-0.108,0.04,0.053,0.035,-0.037,-0.169,-0.155,-0.106
-0.119,-0.014,0.105,0.066,-0.111,0.045,0.057,0.053,-0.024,-0.159,-0.147,-0.1
-0.121,-0.014,0.108,0.067,-0.114,0.047,0.06,0.076,-0.015,-0.148,-0.146,-0.101
-0.105,0.008,0.113,0.048,-0.109,0.06,0.063,0.096,0.001,-0.133,-0.137,-0.095
-0.091,0.025,0.116,0.033,-0.104,0.07,0.067,0.132,0.025,-0.118,-0.127,-0.087
-0.086,0.035,0.121,0.026,-0.104,0.078,0.07,0.177,0.056,-0.098,-0.118,-0.078
-0.073,0.053,0.126,0.009,-0.1,0.089,0.071,0.241,0.094,-0.071,-0.104,-0.059
-0.038,0.09,0.128,-0.026,-0.084,0.109,0.066,0.329,0.155,-0.024,-0.065,-0.033
0.0,0.137,0.137,-0.069,-0.069,0.137,0.059,0.427,0.225,0.027,-0.021,-0.002
0.036,0.182,0.146,-0.109,-0.056,0.164,0.052,0.515,0.302,0.089,0.023,0.045
0.083,0.232,0.149,-0.157,-0.033,0.19,0.046,0.575,0.375,0.158,0.084,0.101
0.112,0.271,0.159,-0.192,-0.024,0.215,0.039,0.587,0.422,0.204,0.131,0.147
0.128,0.298,0.17,-0.213,-0.022,0.234,0.035,0.566,0.433,0.222,0.149,0.163
0.129,0.302,0.174,-0.216,-0.022,0.237,0.035,0.493,0.412,0.217,0.145,0.151
0.08,0.258,0.179,-0.17,-0.05,0.219,0.032,0.357,0.34,0.167,0.114,0.134
0.022,0.203,0.181,-0.112,-0.08,0.192,0.03,0.221,0.235,0.085,0.055,0.09
-0.028,0.148,0.176,-0.06,-0.103,0.162,0.03,0.112,0.129,0.005,-0.017,0.028
-0.087,0.087,0.173,0.0,-0.13,0.13,0.034,0.04,0.044,-0.067,-0.074,-0.018
-0.126,0.043,0.169,0.041,-0.148,0.106,0.046,-0.007,0.003,-0.109,-0.105,-0.051
-0.141,0.024,0.166,0.058,-0.154,0.095,0.05,-0.035,-0.033,-0.135,-0.127,-0.072
-0.141,0.022,0.162,0.059,-0.151,0.092,0.049,-0.045,-0.055,-0.149,-0.139,-0.08
-0.141,0.019,0.16,0.061,-0.151,0.089,0.053,-0.048,-0.055,-0.15,-0.14,-0.084
-0.145,0.015,0.16,0.065,-0.153,0.087,0.055,-0.045,-0.065,-0.154,-0.14,-0.083
-0.15,0.01,0.16,0.07,-0.155,0.085,0.055,-0.042,-0.067,-0.156,-0.14,-0.078
-0.147,0.012,0.16,0.068,-0.154,0.086,0.051,-0.04,-0.062,-0.16,-0.14,-0.075
-0.145,0.016,0.16,0.065,-0.153,0.088,0.05,-0.036,-0.059,-0.159,-0.14,-0.071
-0.15,0.015,0.164,0.067,-0.158,0.089,0.05,-0.035,-0.056,-0.155,-0.135,-0.067
-0.147,0.019,0.165,0.063,-0.156,0.092,0.045,-0.032,-0.051,-0.155,-0.13,-0.064
-0.144,0.02,0.165,0.061,-0.154,0.092,0.045,-0.03,-0.051,-0.155,-0.125,-0.061
-0.145,0.019,0.165,0.063,-0.155,0.092,0.044,-0.03,-0.057,-0.155,-0.122,-0.06
-0.15,0.015,0.165,0.067,-0.158,0.09,0.039,-0.03,-0.061,-0.155,-0.115,-0.06
-0.147,0.015,0.162,0.066,-0.155,0.088,0.041,-0.03,-0.064,-0.159,-0.119,-0.06
-0.146,0.014,0.16,0.066,-0.153,0.086,0.037,-0.031,-0.069,-0.16,-0.133,-0.059
-0.15,0.01,0.16,0.07,-0.155,0.085,0.035,-0.029,-0.071,-0.16,-0.136,-0.066
-0.15,0.01,0.16,0.07,-0.155,0.085,0.035,-0.037,-0.082,-0.165,-0.139,-0.071
-0.152,0.008,0.159,0.072,-0.156,0.083,0.035,-0.048,-0.095,-0.165,-0.14,-0.07
-0.158,0.002,0.161,0.078,-0.16,0.081,0.035,-0.054,-0.1,-0.166,-0.139,-0.07
-0.167,-0.002,0.164,0.084,-0.165,0.081,0.035,-0.061,-0.108,-0.17,-0.14,-0.07
-0.172,-0.006,0.165,0.089,-0.168,0.079,0.035,-0.07,-0.113,-0.173,-0.139,-0.069
-0.176,-0.011,0.165,0.093,-0.17,0.076,0.034,-0.079,-0.116,-0.177,-0.143,-0.073
-0.18,-0.015,0.165,0.097,-0.172,0.075,0.037,-0.08,-0.113,-0.18,-0.145,-0.078
-0.185,-0.02,0.165,0.102,-0.175,0.072,0.04,-0.082,-0.122,-0.18,-0.145,-0.074
-0.181,-0.019,0.162,0.1,-0.172,0.071,0.04,-0.085,-0.141,-0.18,-0.145,-0.075
-0.182,-0.022,0.16,0.102,-0.171,0.069,0.042,-0.085,-0.14,-0.18,-0.145,-0.075
-0.184,-0.025,0.159,0.104,-0.171,0.067,0.045,-0.085,-0.14,-0.179,-0.145,-0.075
-0.184,-0.026,0.158,0.104,-0.17,0.066,0.045,-0.085,-0.14,-0.18,-0.139,-0.076
-0.174,-0.022,0.152,0.097,-0.162,0.065,0.042,-0.09,-0.14,-0.179,-0.133,-0.074
-0.168,-0.009,0.159,0.088,-0.163,0.075,0.04,-0.087,-0.141,-0.166,-0.126,-0.084
-0.172,0.001,0.174,0.085,-0.173,0.087,0.04,-0.077,-0.14,-0.151,-0.119,-0.072
-0.156,0.047,0.204,0.054,-0.18,0.125,0.065,-0.078,-0.129,-0.14,-0.112,-0.049
-0.146,0.094,0.241,0.026,-0.193,0.167,0.07,-0.08,-0.114,-0.135,-0.106,-0.045
-0.115,0.101,0.217,0.006,-0.166,0.159,0.03,-0.08,-0.107,-0.129,-0.101,-0.038
-0.102,0.098,0.2,0.002,-0.151,0.149,0.018,-0.085,-0.111,-0.125,-0.096,-0.033
-0.116,0.094,0.21,0.011,-0.163,0.152,0.021,-0.085,-0.113,-0.117,-0.089,-0.027
-0.124,0.07,0.194,0.027,-0.159,0.131,0.017,-0.085,-0.114,-0.117,-0.086,-0.021
-0.145,0.039,0.184,0.053,-0.165,0.111,0.016,-0.101,-0.125,-0.134,-0.096,-0.031
-0.172,-0.008,0.163,0.09,-0.168,0.077,0.014,-0.103,-0.152,-0.163,-0.13,-0.068
-0.202,-0.036,0.166,0.119,-0.184,0.064,0.02,-0.111,-0.177,-0.176,-0.148,-0.083
-0.212,-0.045,0.167,0.128,-0.189,0.061,0.019,-0.117,-0.178,-0.172,-0.145,-0.075
-0.22,-0.06,0.16,0.14,-0.189,0.049,0.021,-0.122,-0.194,-0.196,-0.161,-0.087
-0.224,-0.049,0.175,0.136,-0.199,0.062,0.019,-0.12,-0.18,-0.18,-0.143,-0.071
-0.227,-0.077,0.15,0.151,-0.189,0.036,0.022,-0.117,-0.196,-0.208,-0.162,-0.091
-0.217,-0.035,0.182,0.126,-0.199,0.073,0.015,-0.13,-0.165,-0.179,-0.135,-0.065
-0.249,-0.117,0.133,0.183,-0.191,0.008,0.054,-0.035,-0.196,-0.224,-0.191,-0.106
-0.307,-0.104,0.203,0.205,-0.255,0.049,0.266,0.243,-0.206,-0.276,-0.257,-0.193
-0.076,0.164,0.24,-0.045,-0.158,0.202,0.167,0.231,0.097,0.032,0.015,0.038
0.305,0.79,0.485,-0.548,-0.091,0.637,-0.509,-0.603,0.729,0.823,0.756,0.71
0.359,1.269,0.91,-0.814,-0.276,1.089,-0.877,-1.263,1.119,1.358,1.254,1.178
0.042,0.389,0.347,-0.216,-0.153,0.368,-0.618,-1.12,0.138,0.344,0.392,0.512
-0.239,-0.313,-0.074,0.276,-0.082,-0.193,-0.295,-0.758,-0.631,-0.491,-0.351,-0.134
-0.244,-0.195,0.049,0.219,-0.146,-0.072,-0.09,-0.364,-0.344,-0.284,-0.236,-0.112
-0.22,-0.155,0.065,0.187,-0.142,-0.045,-0.01,-0.165,-0.264,-0.247,-0.204,-0.117
-0.226,-0.062,0.164,0.144,-0.195,0.051,0.009,-0.098,-0.209,-0.194,-0.158,-0.075
-0.198,-0.042,0.156,0.12,-0.177,0.056,0.034,-0.052,-0.193,-0.176,-0.157,-0.068
-0.2,-0.022,0.179,0.111,-0.189,0.078,0.029,-0.05,-0.201,-0.169,-0.151,-0.069
-0.205,-0.017,0.188,0.111,-0.197,0.086,0.031,-0.029,-0.187,-0.153,-0.138,-0.058
-0.199,-0.018,0.18,0.108,-0.189,0.081,0.029,-0.028,-0.203,-0.163,-0.141,-0.063
-0.19,-0.006,0.184,0.098,-0.187,0.089,0.024,-0.02,-0.188,-0.145,-0.124,-0.051
-0.179,-0.009,0.169,0.094,-0.174,0.08,0.026,-0.016,-0.201,-0.151,-0.127,-0.055
-0.191,0.002,0.193,0.094,-0.192,0.097,0.022,-0.01,-0.194,-0.139,-0.115,-0.047
-0.196,0.004,0.2,0.096,-0.199,0.101,0.02,-0.004,-0.21,-0.138,-0.114,-0.048
-0.19,0.01,0.2,0.09,-0.195,0.105,0.02,0.003,-0.218,-0.13,-0.107,-0.042
-0.183,0.016,0.2,0.083,-0.192,0.108,0.02,0.018,-0.21,-0.125,-0.101,-0.041
-0.18,0.02,0.2,0.08,-0.19,0.11,0.02,0.027,-0.202,-0.121,-0.097,-0.038
-0.171,0.029,0.2,0.071,-0.186,0.114,0.02,0.049,-0.195,-0.103,-0.089,-0.025
-0.16,0.043,0.203,0.058,-0.182,0.123,0.013,0.086,-0.183,-0.08,-0.08,-0.011
-0.155,0.057,0.211,0.049,-0.183,0.134,0.006,0.131,-0.156,-0.057,-0.069,0.001
-0.124,0.091,0.215,0.016,-0.17,0.153,0.0,0.194,-0.109,-0.023,-0.043,0.016
-0.104,0.119,0.223,-0.008,-0.164,0.171,-0.009,0.273,-0.044,0.026,-0.011,0.048
-0.058,0.169,0.227,-0.056,-0.143,0.198,-0.015,0.363,0.035,0.092,0.041,0.1
-0.006,0.227,0.233,-0.111,-0.12,0.23,-0.024,0.433,0.121,0.164,0.11,0.155
0.019,0.275,0.256,-0.148,-0.119,0.265,-0.039,0.473,0.195,0.229,0.168,0.203
0.056,0.314,0.258,-0.185,-0.102,0.286,-0.052,0.472,0.235,0.268,0.202,0.245
0.056,0.309,0.253,-0.183,-0.099,0.281,-0.059,0.437,0.227,0.272,0.208,0.26
0.029,0.301,0.272,-0.165,-0.122,0.287,-0.053,0.359,0.184,0.259,0.201,0.236
-0.018,0.268,0.286,-0.125,-0.152,0.277,-0.04,0.225,0.096,0.19,0.155,0.204
-0.075,0.209,0.285,-0.068,-0.18,0.247,-0.03,0.11,-0.02,0.086,0.074,0.126
-0.129,0.156,0.285,-0.013,-0.208,0.22,-0.02,0.02,-0.127,-0.007,-0.004,0.071
-0.181,0.104,0.285,0.038,-0.233,0.194,-0.01,-0.044,-0.205,-0.063,-0.049,0.022
-0.205,0.08,0.285,0.062,-0.245,0.182,-0.004,-0.075,-0.243,-0.095,-0.072,-0.01
-0.214,0.068,0.282,0.073,-0.249,0.175,-0.011,-0.091,-0.265,-0.126,-0.099,-0.003
-0.22,0.06,0.279,0.08,-0.249,0.169,-0.023,-0.099,-0.281,-0.128,-0.103,-0.045
-0.22,0.06,0.28,0.08,-0.25,0.17,-0.035,-0.11,-0.29,-0.15,-0.107,0.007
-0.22,0.06,0.279,0.08,-0.249,0.17,-0.045,-0.104,-0.289,-0.128,-0.109,-0.086
-0.22,0.06,0.28,0.08,-0.25,0.17,-0.055,-0.097,-0.283,-0.177,-0.111,0.085
-0.219,0.06,0.279,0.079,-0.249,0.169,-0.064,-0.091,-0.284,-0.143,-0.109,0.202
-0.223,0.06,0.283,0.081,-0.253,0.172,-0.072,-0.083,-0.277,0.004,-0.111,-0.028
-0.226,0.06,0.285,0.083,-0.256,0.172,-0.082,-0.084,-0.288,-0.001,-0.108,0.013
