0.182,0.196,0.013,-0.189,0.084,0.104,-0.2,-0.179,0.429,0.413,0.279,0.284
0.23,0.309,0.079,-0.27,0.076,0.193,-0.552,-0.602,0.458,0.524,0.4,0.402
0.125,-0.092,-0.217,-0.016,0.171,-0.154,-0.912,-1.065,-0.087,-0.002,0.022,0.181
-0.073,-0.577,-0.504,0.325,0.216,-0.54,-0.95,-1.363,-1.22,-0.759,-0.463,-0.125
-0.058,-0.466,-0.408,0.262,0.176,-0.437,-0.925,-1.104,-1.078,-0.657,-0.443,-0.121
0.007,-0.337,-0.344,0.165,0.176,-0.34,-0.561,-0.524,-0.624,-0.452,-0.353,-0.1
0.006,-0.252,-0.257,0.124,0.132,-0.254,-0.267,-0.212,-0.416,-0.34,-0.308,-0.089
0.028,-0.178,-0.206,0.075,0.118,-0.192,-0.158,-0.05,-0.27,-0.246,-0.2,-0.071
0.053,-0.139,-0.192,0.043,0.123,-0.165,-0.089,0.008,-0.233,-0.215,-0.176,-0.047
0.05,-0.114,-0.164,0.033,0.107,-0.139,-0.075,0.059,-0.18,-0.176,-0.214,-0.027
0.049,-0.113,-0.163,0.032,0.106,-0.138,-0.053,0.095,-0.198,-0.17,-0.173,-0.027
0.057,-0.091,-0.148,0.017,0.103,-0.119,-0.054,0.076,-0.152,-0.138,-0.137,-0.011
0.057,-0.089,-0.146,0.016,0.102,-0.117,-0.044,0.097,-0.152,-0.13,-0.134,-0.011
0.058,-0.079,-0.136,0.011,0.097,-0.107,-0.037,0.096,-0.151,-0.119,-0.127,0.004
0.057,-0.075,-0.132,0.009,0.095,-0.103,-0.036,0.103,-0.133,-0.13,-0.133,-0.002
0.054,-0.069,-0.122,0.008,0.088,-0.095,-0.027,0.131,-0.12,-0.109,-0.128,-0.009
0.057,-0.064,-0.121,0.004,0.09,-0.093,0.011,0.151,-0.09,-0.108,-0.132,0.012
0.035,-0.066,-0.101,0.016,0.069,-0.084,0.029,0.172,-0.086,-0.131,-0.128,0.02
0.055,-0.058,-0.112,0.002,0.084,-0.085,0.042,0.195,-0.066,-0.093,-0.124,0.02
0.098,-0.037,-0.135,-0.031,0.117,-0.086,0.071,0.229,-0.057,-0.074,-0.109,0.02
0.096,-0.019,-0.115,-0.038,0.105,-0.067,0.1,0.282,-0.012,-0.065,-0.082,0.022
0.113,0.009,-0.104,-0.061,0.108,-0.047,0.143,0.339,0.056,-0.037,-0.072,0.033
0.12,0.031,-0.089,-0.076,0.104,-0.029,0.175,0.394,0.091,-0.007,-0.05,0.052
0.124,0.057,-0.067,-0.091,0.096,-0.005,0.221,0.449,0.155,0.047,-0.012,0.077
0.131,0.088,-0.043,-0.109,0.087,0.022,0.263,0.492,0.207,0.079,0.032,0.112
0.132,0.114,-0.018,-0.123,0.075,0.048,0.257,0.506,0.248,0.102,0.062,0.137
0.134,0.154,0.02,-0.144,0.057,0.087,0.248,0.484,0.259,0.146,0.086,0.144
0.148,0.186,0.038,-0.167,0.054,0.112,0.232,0.435,0.237,0.149,0.11,0.152
0.144,0.199,0.055,-0.172,0.044,0.127,0.185,0.357,0.194,0.107,0.079,0.145
0.106,0.159,0.053,-0.133,0.027,0.105,0.129,0.271,0.101,0.068,0.061,0.119
0.103,0.11,0.006,-0.106,0.048,0.058,0.085,0.192,0.014,0.008,0.023,0.078
0.059,0.062,0.003,-0.06,0.028,0.032,0.046,0.118,-0.048,-0.049,-0.056,0.035
0.02,0.014,-0.005,-0.017,0.012,0.005,0.004,0.071,-0.116,-0.084,-0.065,0.01
0.067,0.017,-0.051,-0.042,0.059,-0.017,-0.02,0.035,-0.17,-0.135,-0.086,0.002
0.051,-0.019,-0.071,-0.016,0.061,-0.045,-0.028,0.019,-0.179,-0.148,-0.107,0.001
0.008,-0.049,-0.057,0.021,0.033,-0.053,-0.034,0.021,-0.18,-0.143,-0.081,-0.004
0.041,-0.042,-0.083,0.0,0.062,-0.062,-0.03,0.018,-0.18,-0.146,-0.098,-0.008
0.052,-0.051,-0.103,-0.001,0.078,-0.077,-0.03,0.015,-0.18,-0.139,-0.13,-0.01
0.033,-0.049,-0.082,0.008,0.057,-0.065,-0.028,0.015,-0.181,-0.133,-0.125,-0.029
0.029,-0.049,-0.078,0.01,0.054,-0.063,-0.024,0.013,-0.178,-0.129,-0.119,-0.031
0.018,-0.042,-0.061,0.012,0.04,-0.051,-0.026,0.008,-0.189,-0.119,-0.115,-0.021
0.025,-0.042,-0.067,0.009,0.046,-0.054,-0.021,0.005,-0.192,-0.126,-0.115,-0.026
0.025,-0.055,-0.08,0.015,0.053,-0.067,-0.02,0.01,-0.179,-0.145,-0.115,-0.028
0.019,-0.054,-0.072,0.018,0.046,-0.063,-0.02,0.016,-0.17,-0.14,-0.115,-0.03
0.032,-0.05,-0.082,0.01,0.057,-0.066,-0.02,0.023,-0.168,-0.133,-0.123,-0.026
0.033,-0.047,-0.08,0.008,0.057,-0.064,-0.02,0.023,-0.17,-0.129,-0.126,-0.024
0.027,-0.045,-0.072,0.009,0.05,-0.058,-0.021,0.019,-0.171,-0.12,-0.121,-0.02
0.024,-0.041,-0.065,0.009,0.045,-0.053,-0.025,0.017,-0.173,-0.114,-0.114,-0.018
0.021,-0.04,-0.061,0.01,0.041,-0.05,-0.025,0.014,-0.177,-0.109,-0.109,-0.014
0.009,-0.04,-0.049,0.016,0.029,-0.044,-0.025,0.011,-0.171,-0.097,-0.098,-0.019
0.027,-0.039,-0.065,0.006,0.046,-0.052,-0.025,0.009,-0.17,-0.124,-0.103,-0.036
0.03,-0.044,-0.074,0.007,0.052,-0.058,-0.026,0.006,-0.191,-0.156,-0.107,-0.036
0.014,-0.052,-0.066,0.019,0.04,-0.059,-0.021,0.001,-0.19,-0.141,-0.099,-0.035
0.037,-0.05,-0.086,0.007,0.062,-0.068,-0.017,-0.001,-0.188,-0.14,-0.106,-0.034
0.026,-0.049,-0.075,0.011,0.05,-0.061,-0.011,-0.006,-0.186,-0.138,-0.105,-0.03
-0.008,-0.06,-0.052,0.035,0.022,-0.056,-0.013,-0.008,-0.181,-0.132,-0.101,-0.029
0.038,-0.02,-0.058,-0.009,0.048,-0.039,-0.04,-0.021,-0.202,-0.143,-0.1,-0.039
0.069,-0.019,-0.088,-0.025,0.079,-0.053,-0.046,-0.032,-0.196,-0.149,-0.099,-0.046
0.029,-0.056,-0.085,0.014,0.057,-0.07,-0.037,-0.024,-0.179,-0.142,-0.096,-0.04
0.029,-0.047,-0.076,0.009,0.052,-0.062,-0.036,-0.023,-0.179,-0.136,-0.094,-0.038
0.032,-0.051,-0.083,0.009,0.057,-0.067,-0.029,-0.018,-0.184,-0.132,-0.095,-0.034
0.033,-0.045,-0.078,0.006,0.056,-0.061,-0.026,-0.015,-0.196,-0.129,-0.086,-0.03
0.036,-0.045,-0.081,0.004,0.059,-0.062,-0.02,-0.027,-0.197,-0.132,-0.082,-0.027
0.035,-0.045,-0.08,0.005,0.058,-0.062,-0.012,-0.028,-0.177,-0.134,-0.075,-0.024
0.039,-0.035,-0.074,-0.002,0.057,-0.054,-0.004,-0.02,-0.173,-0.142,-0.079,-0.021
0.03,-0.027,-0.057,-0.001,0.044,-0.042,0.005,-0.015,-0.186,-0.125,-0.086,-0.018
0.028,-0.018,-0.046,-0.005,0.037,-0.031,0.009,-0.008,-0.156,-0.086,-0.081,-0.015
0.026,-0.002,-0.028,-0.012,0.027,-0.015,0.0,-0.004,-0.147,-0.073,-0.077,-0.014
0.058,0.044,-0.014,-0.051,0.036,0.015,-0.01,0.003,-0.152,-0.076,-0.066,-0.009
0.078,0.066,-0.012,-0.072,0.045,0.027,-0.02,0.003,-0.149,-0.078,-0.059,-0.007
0.058,0.057,-0.001,-0.057,0.029,0.028,-0.023,-0.003,-0.151,-0.081,-0.034,0.001
0.054,0.05,-0.004,-0.052,0.029,0.023,-0.018,-0.003,-0.149,-0.084,-0.037,0.009
0.029,0.045,0.016,-0.038,0.007,0.03,-0.022,-0.011,-0.155,-0.086,-0.046,0.022
0.039,0.031,-0.008,-0.035,0.024,0.011,-0.018,-0.008,-0.158,-0.091,-0.027,0.036
0.035,-0.017,-0.052,-0.009,0.043,-0.034,-0.022,-0.022,-0.17,-0.087,-0.036,0.014
0.006,-0.061,-0.067,0.027,0.037,-0.063,-0.02,-0.014,-0.16,-0.106,-0.069,-0.011
0.023,-0.063,-0.085,0.021,0.054,-0.074,-0.026,-0.038,-0.171,-0.117,-0.089,-0.013
0.005,-0.078,-0.083,0.037,0.044,-0.081,-0.021,-0.028,-0.151,-0.1,-0.096,-0.027
-0.005,-0.084,-0.079,0.044,0.037,-0.082,-0.007,-0.028,-0.165,-0.107,-0.099,-0.028
0.006,-0.068,-0.074,0.032,0.04,-0.071,-0.016,-0.024,-0.15,-0.086,-0.095,-0.032
-0.01,-0.084,-0.074,0.047,0.033,-0.079,0.016,0.016,-0.144,-0.102,-0.106,-0.054
0.01,-0.028,-0.038,0.009,0.025,-0.033,-0.016,0.041,-0.078,-0.055,-0.024,-0.02
0.074,0.023,-0.051,-0.049,0.063,-0.014,0.077,0.228,0.23,0.139,0.072,0.041
0.187,0.302,0.115,-0.245,0.036,0.208,-0.199,-0.205,0.485,0.543,0.416,0.33
0.23,0.37,0.14,-0.3,0.045,0.254,-0.834,-0.867,0.526,0.581,0.538,0.466
0.018,-0.268,-0.285,0.125,0.152,-0.276,-0.946,-1.222,-0.462,-0.222,-0.074,0.078
-0.108,-0.535,-0.428,0.322,0.161,-0.481,-0.93,-1.378,-1.228,-0.646,-0.328,-0.114
-0.006,-0.356,-0.35,0.182,0.172,-0.353,-0.713,-0.83,-0.755,-0.44,-0.227,-0.083
0.009,-0.245,-0.254,0.119,0.132,-0.249,-0.295,-0.329,-0.441,-0.271,-0.195,-0.076
0.004,-0.151,-0.154,0.074,0.079,-0.152,-0.112,-0.109,-0.253,-0.191,-0.127,-0.036
0.04,-0.107,-0.146,0.034,0.093,-0.126,-0.027,0.018,-0.163,-0.139,-0.119,-0.038
0.041,-0.071,-0.111,0.015,0.076,-0.091,0.014,0.052,-0.141,-0.084,-0.089,-0.03
0.026,-0.059,-0.086,0.017,0.056,-0.072,0.048,0.089,-0.077,-0.093,-0.076,-0.029
0.027,-0.045,-0.073,0.009,0.05,-0.059,0.052,0.091,-0.084,-0.041,-0.063,-0.026
0.041,-0.039,-0.079,0.0,0.06,-0.059,0.062,0.124,-0.055,-0.037,-0.042,-0.02
0.035,-0.039,-0.074,0.002,0.055,-0.056,0.069,0.128,-0.059,-0.053,-0.021,-0.016
0.033,-0.033,-0.066,0.0,0.05,-0.049,0.073,0.158,-0.05,0.0,-0.018,-0.005
0.052,-0.033,-0.085,-0.009,0.068,-0.058,0.098,0.17,-0.046,-0.034,-0.021,-0.003
0.057,-0.029,-0.086,-0.014,0.071,-0.057,0.109,0.167,-0.032,-0.031,-0.013,0.011
0.047,-0.026,-0.073,-0.01,0.061,-0.05,0.123,0.194,-0.017,0.008,0.003,0.037
0.054,-0.017,-0.071,-0.018,0.063,-0.044,0.143,0.221,0.001,0.008,0.01,0.041
0.056,-0.011,-0.066,-0.022,0.061,-0.038,0.17,0.258,0.032,0.026,-0.006,0.044
0.056,-0.004,-0.061,-0.026,0.059,-0.032,0.193,0.307,0.062,0.039,0.023,0.045
0.082,0.024,-0.059,-0.053,0.07,-0.017,0.233,0.362,0.111,0.054,0.057,0.044
0.092,0.043,-0.049,-0.068,0.07,-0.003,0.283,0.426,0.152,0.077,0.058,0.057
0.091,0.055,-0.036,-0.073,0.063,0.01,0.321,0.486,0.206,0.105,0.079,0.079
0.091,0.085,-0.006,-0.088,0.048,0.039,0.369,0.546,0.268,0.164,0.139,0.114
0.112,0.138,0.026,-0.125,0.043,0.082,0.391,0.579,0.301,0.2,0.176,0.137
0.144,0.191,0.047,-0.168,0.048,0.119,0.394,0.58,0.346,0.223,0.188,0.157
0.132,0.206,0.073,-0.169,0.029,0.139,0.375,0.552,0.355,0.247,0.195,0.162
0.123,0.216,0.094,-0.17,0.014,0.155,0.322,0.475,0.319,0.231,0.175,0.15
0.098,0.198,0.1,-0.148,-0.001,0.149,0.268,0.385,0.26,0.214,0.172,0.143
0.076,0.154,0.079,-0.115,-0.002,0.116,0.217,0.291,0.168,0.17,0.156,0.136
0.073,0.116,0.043,-0.095,0.015,0.079,0.167,0.201,0.088,0.107,0.101,0.105
0.057,0.074,0.017,-0.066,0.02,0.045,0.113,0.137,0.028,0.056,0.056,0.063
0.03,0.036,0.006,-0.033,0.012,0.021,0.086,0.095,-0.017,0.024,0.037,0.05
0.021,0.0,-0.021,-0.011,0.022,-0.011,0.082,0.081,-0.05,0.017,0.026,0.039
0.055,0.007,-0.048,-0.031,0.052,-0.021,0.073,0.073,-0.066,0.005,0.015,0.027
0.035,-0.004,-0.039,-0.015,0.037,-0.022,0.066,0.062,-0.067,0.0,0.01,0.025
0.0,-0.022,-0.022,0.011,0.012,-0.022,0.059,0.053,-0.071,-0.016,0.002,0.025
0.017,-0.012,-0.029,-0.003,0.023,-0.02,0.052,0.045,-0.066,-0.005,-0.004,0.025
0.037,-0.005,-0.043,-0.016,0.04,-0.024,0.05,0.045,-0.062,0.002,-0.011,0.024
0.04,-0.002,-0.042,-0.018,0.041,-0.022,0.05,0.045,-0.056,-0.036,-0.015,0.026
-0.003,-0.034,-0.031,0.018,0.014,-0.032,0.05,0.045,-0.053,-0.041,-0.006,0.022
-0.01,-0.053,-0.043,0.032,0.017,-0.048,0.05,0.045,-0.046,-0.039,-0.024,0.014
0.032,-0.04,-0.073,0.004,0.053,-0.056,0.05,0.045,-0.049,-0.041,-0.03,0.008
0.024,-0.034,-0.058,0.005,0.042,-0.046,0.054,0.05,-0.063,-0.039,-0.006,0.0
0.014,-0.032,-0.046,0.009,0.03,-0.039,0.055,0.053,-0.048,-0.04,-0.022,-0.008
0.021,-0.015,-0.036,-0.002,0.028,-0.025,0.055,0.056,-0.06,-0.035,-0.041,-0.014
0.0,-0.022,-0.022,0.011,0.011,-0.022,0.055,0.054,-0.061,-0.033,-0.032,-0.009
0.018,-0.03,-0.048,0.006,0.033,-0.039,0.055,0.055,-0.033,-0.029,-0.023,0.0
0.049,-0.016,-0.065,-0.016,0.057,-0.04,0.053,0.071,-0.035,-0.027,-0.016,0.008
0.035,-0.023,-0.058,-0.006,0.046,-0.04,0.047,0.073,-0.037,-0.02,-0.004,0.016
0.032,-0.018,-0.05,-0.007,0.041,-0.034,0.043,0.063,-0.04,-0.005,0.006,0.022
0.019,-0.027,-0.046,0.004,0.032,-0.036,0.039,0.058,-0.041,0.022,0.018,0.026
0.005,-0.03,-0.035,0.013,0.02,-0.033,0.034,0.05,-0.045,0.0,0.009,0.029
0.021,-0.017,-0.038,-0.001,0.03,-0.028,0.03,0.045,-0.049,-0.037,-0.036,0.03
0.038,-0.016,-0.055,-0.011,0.047,-0.035,0.025,0.04,-0.044,-0.029,-0.025,0.03
0.051,0.004,-0.047,-0.027,0.05,-0.022,0.025,0.035,-0.046,-0.021,0.001,0.03
0.015,-0.029,-0.044,0.008,0.03,-0.036,0.024,0.031,-0.044,-0.015,-0.001,0.03
-0.004,-0.05,-0.046,0.028,0.021,-0.048,0.02,0.026,-0.045,-0.014,0.005,0.028
0.015,-0.026,-0.041,0.006,0.028,-0.033,0.02,0.022,-0.045,-0.009,0.006,0.024
0.004,-0.035,-0.04,0.016,0.023,-0.037,0.018,0.017,-0.045,-0.017,0.011,0.025
0.002,-0.038,-0.04,0.018,0.021,-0.039,0.012,0.015,-0.046,-0.037,0.008,0.025
0.001,-0.04,-0.04,0.019,0.021,-0.04,0.008,0.014,-0.043,-0.031,-0.001,0.025
0.002,-0.037,-0.039,0.017,0.021,-0.038,0.004,0.01,-0.055,-0.024,-0.017,0.026
0.02,-0.024,-0.043,0.002,0.032,-0.033,-0.001,0.01,-0.057,-0.018,-0.002,0.029
0.026,-0.014,-0.041,-0.006,0.034,-0.027,0.02,0.021,-0.045,-0.01,0.038,0.03
0.022,0.011,-0.012,-0.016,0.017,0.0,0.042,0.037,-0.045,-0.003,0.04,0.021
0.022,0.045,0.023,-0.034,-0.001,0.034,0.034,0.042,-0.044,0.009,0.04,0.038
0.016,0.041,0.025,-0.029,-0.004,0.033,0.028,0.039,-0.032,0.016,0.041,0.04
0.017,0.061,0.045,-0.039,-0.014,0.053,0.021,0.034,-0.021,0.031,0.039,0.035
0.047,0.09,0.042,-0.069,0.002,0.066,0.019,0.033,-0.017,0.04,0.053,0.056
0.051,0.073,0.022,-0.062,0.014,0.047,0.022,0.027,-0.022,0.032,0.056,0.05
0.043,0.076,0.034,-0.06,0.004,0.055,0.017,0.023,-0.024,0.026,0.055,0.044
0.056,0.04,-0.017,-0.048,0.037,0.011,0.024,0.023,-0.025,0.019,0.055,0.037
0.02,-0.038,-0.058,0.009,0.039,-0.048,0.015,0.014,-0.042,0.012,0.028,0.016
-0.04,-0.081,-0.041,0.061,0.001,-0.061,0.028,0.028,-0.059,-0.006,-0.013,0.0
-0.028,-0.07,-0.042,0.049,0.008,-0.056,0.021,0.009,-0.066,-0.02,-0.009,0.009
0.019,-0.077,-0.096,0.029,0.058,-0.086,0.028,0.033,-0.056,-0.021,0.002,0.001
0.035,-0.066,-0.101,0.016,0.068,-0.084,0.025,0.005,-0.057,-0.013,0.02,0.008
0.022,-0.071,-0.093,0.025,0.057,-0.081,0.02,0.018,-0.015,-0.008,0.01,0.001
0.008,-0.071,-0.079,0.032,0.044,-0.075,0.055,0.034,-0.033,0.003,-0.013,-0.016
0.018,-0.009,-0.027,-0.004,0.023,-0.018,0.053,0.131,0.117,0.07,0.05,0.032
0.078,0.086,0.009,-0.082,0.034,0.047,0.113,0.222,0.409,0.285,0.21,0.129
0.221,0.406,0.185,-0.314,0.018,0.295,-0.352,-0.352,0.703,0.706,0.594,0.431
0.188,0.227,0.039,-0.208,0.075,0.133,-0.89,-0.876,0.524,0.502,0.499,0.414
-0.029,-0.388,-0.359,0.208,0.166,-0.373,-0.921,-1.278,-0.661,-0.318,-0.117,0.018
-0.078,-0.46,-0.382,0.269,0.153,-0.421,-0.89,-1.275,-1.033,-0.516,-0.259,-0.096
-0.041,-0.31,-0.268,0.176,0.114,-0.289,-0.524,-0.6,-0.503,-0.306,-0.165,-0.082
-0.02,-0.198,-0.178,0.109,0.079,-0.188,-0.154,-0.224,-0.275,-0.183,-0.118,-0.06
-0.008,-0.14,-0.132,0.074,0.062,-0.136,-0.017,-0.019,-0.101,-0.086,-0.06,-0.036
-0.011,-0.109,-0.098,0.06,0.043,-0.103,0.068,0.071,-0.053,-0.05,-0.033,-0.034
0.003,-0.059,-0.062,0.029,0.033,-0.06,0.076,0.102,-0.014,-0.017,-0.003,-0.022
0.01,-0.056,-0.066,0.024,0.038,-0.061,0.088,0.137,-0.007,0.021,0.018,-0.02
0.016,-0.041,-0.057,0.013,0.037,-0.049,0.096,0.128,0.006,0.049,0.041,-0.01
0.016,-0.04,-0.056,0.013,0.036,-0.048,0.112,0.158,0.055,0.051,0.038,-0.005
0.019,-0.033,-0.052,0.007,0.036,-0.043,0.12,0.153,0.052,0.053,0.043,-0.001
0.016,-0.027,-0.043,0.006,0.03,-0.035,0.13,0.168,0.061,0.056,0.045,0.001
0.033,-0.024,-0.057,-0.004,0.045,-0.04,0.138,0.182,0.06,0.054,0.046,0.0
0.048,-0.011,-0.059,-0.019,0.054,-0.034,0.148,0.193,0.063,0.055,0.06,0.0
0.013,-0.024,-0.037,0.006,0.025,-0.03,0.169,0.217,0.084,0.067,0.069,0.001
0.015,-0.029,-0.044,0.007,0.03,-0.037,0.188,0.239,0.101,0.07,0.07,-0.009
0.015,-0.013,-0.028,-0.001,0.022,-0.02,0.209,0.273,0.12,0.083,0.078,-0.011
0.01,-0.003,-0.013,-0.003,0.012,-0.008,0.243,0.32,0.157,0.107,0.087,-0.001
0.057,0.021,-0.036,-0.039,0.046,-0.007,0.29,0.37,0.186,0.118,0.094,0.017
0.066,0.041,-0.024,-0.053,0.045,0.008,0.333,0.431,0.237,0.162,0.121,0.036
0.072,0.052,-0.019,-0.062,0.046,0.016,0.375,0.498,0.291,0.195,0.149,0.065
0.097,0.099,0.002,-0.098,0.048,0.05,0.413,0.548,0.338,0.212,0.167,0.091
0.092,0.151,0.059,-0.122,0.017,0.104,0.419,0.557,0.387,0.259,0.206,0.113
0.106,0.176,0.07,-0.141,0.018,0.122,0.412,0.546,0.407,0.297,0.243,0.152
0.105,0.206,0.101,-0.155,0.002,0.153,0.388,0.515,0.401,0.304,0.242,0.155
0.086,0.21,0.124,-0.149,-0.019,0.167,0.325,0.427,0.36,0.276,0.234,0.145
0.076,0.178,0.103,-0.127,-0.014,0.14,0.263,0.329,0.29,0.235,0.218,0.135
0.038,0.129,0.091,-0.084,-0.027,0.11,0.216,0.238,0.213,0.194,0.179,0.106
0.018,0.081,0.063,-0.05,-0.022,0.072,0.174,0.161,0.136,0.141,0.13,0.071
0.013,0.051,0.038,-0.032,-0.013,0.044,0.14,0.107,0.083,0.098,0.091,0.041
0.0,0.007,0.007,-0.004,-0.004,0.007,0.113,0.064,0.049,0.072,0.08,0.023
-0.002,-0.024,-0.023,0.013,0.011,-0.023,0.099,0.054,0.023,0.065,0.074,0.01
-0.007,-0.057,-0.049,0.032,0.021,-0.053,0.095,0.046,0.012,0.06,0.073,0.004
-0.005,-0.067,-0.062,0.036,0.029,-0.064,0.09,0.037,0.008,0.051,0.083,-0.003
-0.001,-0.046,-0.045,0.024,0.023,-0.045,0.087,0.031,0.002,0.042,0.065,-0.011
-0.012,-0.051,-0.039,0.031,0.013,-0.044,0.081,0.029,-0.004,0.034,0.027,-0.018
-0.009,-0.05,-0.04,0.03,0.016,-0.045,0.082,0.03,-0.008,0.027,0.019,-0.017
-0.007,-0.05,-0.043,0.029,0.018,-0.046,0.087,0.029,-0.021,0.021,0.02,-0.014
-0.011,-0.05,-0.039,0.031,0.014,-0.044,0.09,0.031,-0.026,0.037,0.027,-0.015
-0.021,-0.052,-0.031,0.037,0.005,-0.041,0.095,0.028,-0.024,0.048,0.03,-0.015
-0.033,-0.07,-0.036,0.051,0.002,-0.053,0.095,0.036,-0.025,0.043,0.033,-0.015
-0.016,-0.065,-0.049,0.041,0.017,-0.056,0.099,0.042,-0.025,0.046,0.036,-0.015
0.001,-0.057,-0.057,0.028,0.029,-0.057,0.1,0.053,-0.025,0.043,0.034,-0.015
0.002,-0.053,-0.054,0.026,0.028,-0.053,0.102,0.066,-0.022,0.048,0.044,-0.015
0.012,-0.041,-0.053,0.015,0.033,-0.047,0.105,0.057,-0.019,0.062,0.045,-0.015
0.001,-0.046,-0.047,0.022,0.024,-0.046,0.105,0.055,-0.016,0.052,0.045,-0.015
0.018,-0.039,-0.056,0.011,0.038,-0.047,0.105,0.05,-0.013,0.04,0.041,-0.015
0.025,-0.05,-0.075,0.012,0.05,-0.062,0.105,0.045,-0.011,0.041,0.04,-0.011
-0.004,-0.071,-0.067,0.037,0.031,-0.069,0.104,0.042,-0.009,0.037,0.039,-0.01
0.008,-0.065,-0.073,0.028,0.041,-0.069,0.1,0.036,-0.001,0.055,0.033,-0.004
0.01,-0.057,-0.067,0.023,0.038,-0.062,0.094,0.032,0.008,0.057,0.015,-0.008
0.015,-0.059,-0.074,0.022,0.045,-0.066,0.091,0.027,0.006,0.035,0.02,-0.024
0.008,-0.044,-0.052,0.018,0.03,-0.048,0.086,0.023,-0.007,0.046,0.066,-0.018
-0.026,-0.034,-0.009,0.03,-0.009,-0.021,0.082,0.018,-0.017,0.05,0.057,0.001
-0.021,-0.07,-0.049,0.045,0.014,-0.059,0.077,0.015,-0.014,0.044,0.034,-0.007
-0.006,-0.064,-0.058,0.035,0.026,-0.061,0.074,0.015,-0.016,0.043,0.035,-0.03
-0.002,-0.049,-0.047,0.026,0.023,-0.048,0.075,0.013,-0.014,0.037,0.031,-0.026
-0.011,-0.061,-0.051,0.036,0.02,-0.056,0.074,0.009,-0.017,0.035,0.027,-0.015
-0.021,-0.062,-0.041,0.042,0.01,-0.051,0.076,0.012,-0.03,0.04,0.027,-0.011
0.01,-0.056,-0.067,0.023,0.039,-0.061,0.074,0.004,-0.029,0.04,0.02,-0.005
0.027,-0.056,-0.083,0.015,0.056,-0.069,0.071,0.012,-0.022,0.041,0.025,0.0
0.025,-0.048,-0.073,0.012,0.049,-0.06,0.065,0.037,-0.017,0.045,0.047,0.006
0.008,-0.05,-0.058,0.021,0.033,-0.054,0.068,0.034,-0.011,0.044,0.053,0.01
-0.016,-0.037,-0.022,0.027,0.004,-0.029,0.095,0.04,-0.006,0.056,0.047,-0.002
0.004,0.005,0.001,-0.004,0.001,0.003,0.099,0.048,-0.001,0.068,0.055,0.006
0.014,-0.004,-0.019,-0.005,0.017,-0.011,0.089,0.041,0.004,0.063,0.089,0.033
0.026,-0.001,-0.027,-0.012,0.026,-0.014,0.087,0.037,0.007,0.074,0.096,0.035
0.04,0.035,-0.004,-0.037,0.021,0.015,0.078,0.029,0.013,0.105,0.096,0.035
0.053,0.05,-0.003,-0.052,0.028,0.023,0.078,0.027,0.017,0.104,0.092,0.031
0.047,0.05,0.003,-0.048,0.021,0.026,0.072,0.017,0.031,0.101,0.101,0.03
0.042,0.031,-0.011,-0.036,0.026,0.01,0.071,0.028,0.034,0.098,0.082,0.03
0.057,-0.004,-0.062,-0.027,0.06,-0.033,0.065,0.021,0.001,0.054,0.029,0.023
0.017,-0.064,-0.081,0.023,0.05,-0.072,0.063,0.031,-0.002,0.024,0.029,0.013
-0.012,-0.098,-0.086,0.055,0.037,-0.092,0.069,0.029,-0.034,0.024,0.043,0.004
-0.009,-0.099,-0.089,0.054,0.04,-0.094,0.058,0.027,-0.037,0.026,0.044,-0.002
-0.015,-0.104,-0.089,0.06,0.037,-0.096,0.075,0.051,-0.031,0.029,0.029,-0.021
-0.017,-0.092,-0.075,0.055,0.029,-0.083,0.052,0.035,-0.023,0.048,0.039,-0.027
-0.041,-0.127,-0.086,0.084,0.022,-0.106,0.081,0.059,0.002,0.025,0.01,-0.045
-0.022,-0.078,-0.057,0.05,0.018,-0.067,0.082,0.056,0.037,0.063,0.044,0.008
0.036,-0.009,-0.044,-0.013,0.04,-0.026,0.161,0.254,0.31,0.194,0.133,0.046
0.129,0.2,0.072,-0.165,0.028,0.136,0.009,0.019,0.609,0.554,0.405,0.24
0.239,0.387,0.147,-0.314,0.046,0.267,-0.64,-0.626,0.807,0.781,0.637,0.476
0.067,-0.134,-0.201,0.034,0.135,-0.168,-0.889,-1.072,-0.003,0.086,0.16,0.183
-0.128,-0.543,-0.414,0.336,0.143,-0.478,-0.904,-1.404,-1.028,-0.501,-0.225,-0.093
-0.073,-0.42,-0.347,0.247,0.137,-0.383,-0.717,-0.95,-0.728,-0.364,-0.154,-0.082
-0.034,-0.297,-0.263,0.166,0.115,-0.28,-0.257,-0.352,-0.333,-0.193,-0.108,-0.062
-0.021,-0.201,-0.18,0.112,0.079,-0.19,-0.042,-0.111,-0.167,-0.089,-0.042,-0.044
-0.018,-0.162,-0.144,0.09,0.064,-0.153,0.076,0.047,-0.045,-0.019,-0.016,-0.054
-0.026,-0.121,-0.095,0.074,0.034,-0.108,0.119,0.074,-0.029,0.036,-0.001,-0.039
-0.018,-0.104,-0.087,0.061,0.035,-0.095,0.129,0.122,0.022,0.036,0.011,-0.03
-0.004,-0.107,-0.103,0.055,0.05,-0.105,0.148,0.128,0.036,0.034,0.022,-0.014
0.004,-0.092,-0.096,0.045,0.05,-0.094,0.156,0.146,0.076,0.07,0.045,0.009
-0.005,-0.097,-0.092,0.051,0.043,-0.094,0.174,0.154,0.069,0.074,0.055,0.01
0.001,-0.079,-0.08,0.04,0.04,-0.079,0.167,0.155,0.069,0.077,0.072,0.011
0.004,-0.074,-0.079,0.035,0.042,-0.076,0.179,0.168,0.081,0.073,0.066,0.008
-0.004,-0.079,-0.075,0.042,0.035,-0.077,0.201,0.181,0.089,0.077,0.068,0.005
0.005,-0.062,-0.067,0.029,0.037,-0.065,0.216,0.2,0.103,0.097,0.08,0.005
0.012,-0.067,-0.079,0.027,0.046,-0.073,0.227,0.219,0.125,0.1,0.08,0.007
0.012,-0.058,-0.071,0.023,0.042,-0.064,0.259,0.255,0.151,0.101,0.08,0.018
0.015,-0.049,-0.064,0.017,0.04,-0.056,0.295,0.291,0.168,0.096,0.082,0.026
0.014,-0.043,-0.057,0.015,0.036,-0.05,0.321,0.343,0.197,0.14,0.113,0.044
0.035,-0.029,-0.064,-0.003,0.05,-0.046,0.36,0.404,0.239,0.163,0.135,0.057
0.039,-0.006,-0.045,-0.016,0.042,-0.025,0.398,0.468,0.286,0.166,0.137,0.064
0.053,0.038,-0.015,-0.045,0.034,0.012,0.434,0.533,0.345,0.229,0.17,0.081
0.076,0.077,0.001,-0.077,0.037,0.039,0.45,0.561,0.383,0.253,0.22,0.114
0.072,0.137,0.065,-0.105,0.004,0.101,0.469,0.581,0.42,0.297,0.271,0.168
0.07,0.152,0.082,-0.111,-0.007,0.117,0.46,0.554,0.442,0.325,0.291,0.182
0.073,0.14,0.067,-0.107,0.003,0.103,0.391,0.473,0.411,0.295,0.274,0.163
0.076,0.143,0.067,-0.11,0.004,0.105,0.332,0.39,0.349,0.287,0.278,0.158
0.045,0.104,0.059,-0.074,-0.008,0.081,0.283,0.301,0.278,0.23,0.245,0.128
0.02,0.061,0.041,-0.04,-0.011,0.051,0.237,0.211,0.209,0.161,0.17,0.077
0.005,0.017,0.012,-0.011,-0.003,0.014,0.194,0.141,0.137,0.125,0.145,0.052
0.007,-0.027,-0.034,0.01,0.021,-0.03,0.162,0.092,0.088,0.076,0.121,0.038
0.003,-0.067,-0.07,0.032,0.037,-0.068,0.143,0.06,0.052,0.051,0.098,0.019
-0.036,-0.097,-0.062,0.067,0.013,-0.079,0.132,0.046,0.035,0.052,0.094,0.015
-0.033,-0.094,-0.061,0.063,0.014,-0.077,0.126,0.039,0.032,0.053,0.082,0.015
-0.04,-0.098,-0.058,0.069,0.009,-0.077,0.119,0.032,0.023,0.02,0.082,0.013
-0.047,-0.101,-0.053,0.075,0.003,-0.076,0.112,0.026,0.018,0.025,0.076,0.009
-0.039,-0.099,-0.061,0.07,0.011,-0.08,0.106,0.019,0.011,0.05,0.076,0.01
-0.052,-0.1,-0.049,0.076,-0.001,-0.074,0.101,0.014,0.013,0.019,0.086,0.021
-0.036,-0.1,-0.064,0.068,0.014,-0.081,0.1,0.016,0.019,0.014,0.058,0.011
-0.011,-0.1,-0.089,0.056,0.039,-0.094,0.1,0.014,0.021,0.015,0.047,-0.007
-0.012,-0.095,-0.083,0.054,0.036,-0.089,0.1,0.022,0.029,0.017,0.056,-0.021
-0.006,-0.092,-0.085,0.049,0.04,-0.088,0.1,0.032,0.028,0.027,0.058,-0.031
-0.003,-0.088,-0.086,0.046,0.042,-0.086,0.099,0.031,0.025,0.032,0.059,-0.03
-0.002,-0.085,-0.083,0.044,0.041,-0.084,0.094,0.027,0.025,0.039,0.054,-0.03
0.004,-0.078,-0.083,0.037,0.044,-0.08,0.095,0.025,0.023,0.034,0.055,-0.03
-0.034,-0.091,-0.057,0.063,0.011,-0.074,0.092,0.021,0.019,0.031,0.055,-0.03
-0.035,-0.107,-0.072,0.072,0.019,-0.089,0.089,0.019,0.02,0.025,0.055,-0.028
0.004,-0.104,-0.108,0.05,0.057,-0.106,0.09,0.036,0.036,0.029,0.055,-0.024
-0.007,-0.106,-0.098,0.056,0.046,-0.101,0.086,0.039,0.04,0.031,0.05,-0.026
-0.009,-0.105,-0.095,0.058,0.043,-0.1,0.081,0.031,0.034,0.03,0.05,-0.021
-0.006,-0.105,-0.099,0.056,0.047,-0.102,0.076,0.029,0.032,0.03,0.05,-0.02
-0.009,-0.108,-0.099,0.059,0.045,-0.104,0.073,0.023,0.027,0.03,0.05,-0.02
-0.008,-0.111,-0.103,0.06,0.047,-0.107,0.067,0.02,0.025,0.031,0.05,-0.015
-0.009,-0.114,-0.105,0.062,0.048,-0.109,0.066,0.015,0.031,0.024,0.049,-0.014
-0.01,-0.115,-0.104,0.063,0.047,-0.109,0.067,0.012,0.041,0.059,0.056,-0.01
-0.009,-0.109,-0.099,0.059,0.045,-0.104,0.064,0.009,0.038,0.073,0.057,-0.009
-0.006,-0.106,-0.1,0.056,0.048,-0.103,0.061,0.004,0.036,0.052,0.046,-0.003
-0.003,-0.103,-0.1,0.053,0.049,-0.101,0.059,0.001,0.03,0.047,0.039,-0.01
0.003,-0.097,-0.1,0.047,0.051,-0.098,0.054,-0.003,0.034,0.033,0.033,-0.02
0.003,-0.097,-0.101,0.047,0.052,-0.098,0.057,0.001,0.06,0.027,0.04,-0.005
0.008,-0.087,-0.095,0.04,0.051,-0.091,0.06,0.006,0.067,0.013,0.051,-0.003
-0.017,-0.103,-0.086,0.06,0.034,-0.094,0.063,0.012,0.069,0.003,0.05,-0.007
-0.032,-0.106,-0.074,0.069,0.021,-0.089,0.067,0.017,0.075,0.005,0.05,-0.01
-0.002,-0.069,-0.067,0.036,0.033,-0.068,0.07,0.024,0.086,0.008,0.05,-0.008
0.017,-0.045,-0.062,0.015,0.04,-0.053,0.083,0.024,0.086,0.014,0.049,0.003
0.029,-0.039,-0.068,0.006,0.049,-0.054,0.085,0.019,0.066,0.011,0.053,0.012
0.036,-0.012,-0.048,-0.011,0.042,-0.03,0.079,0.022,0.053,0.038,0.063,0.023
0.019,0.009,-0.011,-0.014,0.015,-0.001,0.064,-0.004,0.039,0.049,0.072,0.024
0.017,-0.019,-0.036,0.001,0.027,-0.027,0.042,-0.017,0.029,0.048,0.071,0.032
0.038,0.011,-0.027,-0.024,0.033,-0.008,0.037,-0.006,0.018,0.073,0.078,0.035
0.016,0.044,0.029,-0.03,-0.007,0.036,0.027,-0.007,0.008,0.084,0.086,0.036
0.022,0.002,-0.021,-0.012,0.022,-0.009,0.025,0.009,0.015,0.054,0.079,0.048
0.041,-0.066,-0.107,0.013,0.074,-0.086,0.013,-0.005,-0.006,0.026,0.053,0.031
-0.006,-0.122,-0.116,0.064,0.055,-0.119,0.013,-0.006,-0.035,0.018,0.005,-0.019
-0.016,-0.107,-0.091,0.062,0.038,-0.099,0.002,-0.034,-0.047,-0.015,-0.026,-0.043
-0.02,-0.128,-0.109,0.074,0.045,-0.118,0.007,-0.026,-0.028,-0.037,-0.032,-0.046
-0.013,-0.132,-0.119,0.073,0.053,-0.125,0.028,-0.026,-0.043,-0.036,0.02,-0.044
-0.011,-0.107,-0.096,0.06,0.043,-0.101,0.007,-0.026,-0.022,-0.032,0.046,-0.037
-0.029,-0.133,-0.104,0.081,0.038,-0.118,0.044,0.012,-0.035,-0.035,0.021,-0.045
0.011,-0.068,-0.079,0.029,0.046,-0.074,0.045,0.051,0.048,0.041,0.073,-0.004
0.043,-0.016,-0.06,-0.013,0.051,-0.038,0.131,0.239,0.353,0.193,0.129,0.056
0.158,0.249,0.091,-0.204,0.033,0.17,-0.15,-0.15,0.65,0.603,0.49,0.316
0.2,0.265,0.065,-0.233,0.068,0.164,-0.753,-0.754,0.678,0.627,0.594,0.429
-0.015,-0.333,-0.318,0.174,0.152,-0.325,-0.911,-1.202,-0.381,-0.221,-0.058,0.041
-0.13,-0.548,-0.417,0.339,0.144,-0.482,-0.922,-1.401,-1.098,-0.579,-0.319,-0.173
-0.072,-0.403,-0.33,0.238,0.129,-0.366,-0.666,-0.808,-0.632,-0.35,-0.178,-0.13
-0.04,-0.295,-0.255,0.168,0.108,-0.275,-0.262,-0.324,-0.353,-0.221,-0.118,-0.097
-0.026,-0.205,-0.179,0.116,0.077,-0.192,-0.086,-0.113,-0.17,-0.119,-0.071,-0.064
-0.008,-0.155,-0.147,0.082,0.07,-0.151,-0.001,0.013,-0.091,-0.084,-0.058,-0.041
0.006,-0.107,-0.113,0.051,0.06,-0.11,0.037,0.039,-0.077,-0.055,-0.014,-0.027
0.021,-0.095,-0.116,0.037,0.069,-0.106,0.066,0.078,-0.027,-0.044,-0.014,-0.035
0.022,-0.083,-0.104,0.03,0.063,-0.093,0.067,0.076,-0.025,-0.052,-0.018,-0.029
0.011,-0.085,-0.095,0.037,0.053,-0.09,0.08,0.097,-0.006,-0.007,0.002,-0.03
0.026,-0.056,-0.082,0.015,0.054,-0.069,0.082,0.114,-0.012,0.018,0.046,-0.028
0.016,-0.059,-0.075,0.022,0.046,-0.066,0.098,0.126,0.017,-0.034,0.046,-0.024
-0.013,-0.088,-0.075,0.051,0.031,-0.081,0.118,0.131,0.013,-0.016,0.0,-0.026
0.0,-0.069,-0.069,0.034,0.034,-0.068,0.123,0.163,0.026,0.015,0.005,-0.021
0.01,-0.06,-0.07,0.025,0.04,-0.064,0.139,0.176,0.054,0.015,0.011,-0.019
0.002,-0.053,-0.055,0.026,0.029,-0.054,0.15,0.202,0.055,0.03,0.024,-0.016
0.009,-0.045,-0.053,0.018,0.031,-0.049,0.17,0.237,0.071,0.006,0.031,-0.013
-0.006,-0.041,-0.036,0.024,0.015,-0.038,0.195,0.269,0.092,0.007,0.02,-0.011
-0.013,-0.047,-0.035,0.03,0.012,-0.041,0.235,0.33,0.134,0.047,0.047,-0.007
0.03,-0.021,-0.051,-0.004,0.04,-0.035,0.286,0.393,0.182,0.077,0.071,0.011
0.056,0.022,-0.035,-0.038,0.045,-0.006,0.326,0.459,0.23,0.123,0.096,0.036
0.088,0.065,-0.023,-0.076,0.055,0.021,0.356,0.513,0.29,0.161,0.14,0.064
0.079,0.106,0.027,-0.092,0.026,0.066,0.374,0.544,0.321,0.194,0.155,0.094
0.066,0.128,0.062,-0.097,0.002,0.095,0.374,0.542,0.352,0.212,0.159,0.104
0.092,0.177,0.085,-0.135,0.003,0.131,0.339,0.499,0.347,0.227,0.184,0.107
0.094,0.194,0.1,-0.145,-0.003,0.147,0.286,0.436,0.301,0.244,0.215,0.137
0.085,0.171,0.086,-0.128,-0.001,0.128,0.241,0.357,0.252,0.195,0.211,0.138
0.049,0.13,0.081,-0.09,-0.016,0.105,0.2,0.269,0.17,0.148,0.16,0.092
0.028,0.09,0.062,-0.059,-0.018,0.076,0.154,0.194,0.095,0.088,0.079,0.04
-0.014,0.04,0.054,-0.013,-0.035,0.047,0.111,0.121,0.039,0.028,0.035,-0.003
-0.019,-0.014,0.005,0.016,-0.012,-0.004,0.083,0.076,-0.018,-0.011,0.012,-0.029
-0.033,-0.027,0.006,0.03,-0.019,-0.01,0.067,0.061,-0.056,-0.037,-0.034,-0.048
-0.096,-0.058,0.039,0.077,-0.067,-0.009,0.059,0.045,-0.066,-0.043,-0.051,-0.059
-0.072,-0.064,0.007,0.068,-0.039,-0.028,0.05,0.035,-0.081,-0.072,-0.048,-0.062
-0.056,-0.052,0.004,0.053,-0.03,-0.023,0.042,0.026,-0.091,-0.081,-0.073,-0.058
-0.034,-0.052,-0.018,0.044,-0.008,-0.035,0.039,0.017,-0.096,-0.085,-0.04,-0.033
-0.005,-0.041,-0.035,0.023,0.015,-0.038,0.035,0.008,-0.108,-0.085,-0.026,-0.037
-0.015,-0.043,-0.028,0.029,0.007,-0.036,0.032,0.0,-0.11,-0.078,-0.087,-0.077
-0.023,-0.048,-0.025,0.036,0.001,-0.036,0.027,0.0,-0.115,-0.08,-0.085,-0.08
-0.037,-0.054,-0.017,0.046,-0.01,-0.035,0.024,-0.003,-0.111,-0.072,-0.077,-0.071
-0.02,-0.034,-0.014,0.027,-0.003,-0.024,0.021,-0.006,-0.11,-0.087,-0.08,-0.07
-0.03,-0.03,-0.001,0.03,-0.014,-0.015,0.016,-0.004,-0.11,-0.091,-0.071,-0.063
-0.042,-0.066,-0.024,0.054,-0.008,-0.045,0.014,0.0,-0.105,-0.07,-0.07,-0.061
-0.006,-0.053,-0.047,0.029,0.021,-0.05,0.009,0.005,-0.105,-0.101,-0.085,-0.075
-0.009,-0.045,-0.036,0.027,0.014,-0.04,0.006,0.006,-0.106,-0.104,-0.107,-0.088
-0.028,-0.056,-0.029,0.042,0.001,-0.042,0.002,0.013,-0.115,-0.098,-0.102,-0.085
-0.025,-0.047,-0.023,0.036,-0.001,-0.035,-0.004,0.013,-0.124,-0.126,-0.09,-0.082
-0.033,-0.044,-0.011,0.039,-0.011,-0.028,-0.009,0.024,-0.126,-0.117,-0.058,-0.079
-0.017,-0.036,-0.019,0.027,0.001,-0.027,-0.014,0.024,-0.129,-0.11,-0.026,-0.075
0.015,-0.034,-0.049,0.01,0.032,-0.041,-0.021,-0.003,-0.132,-0.107,-0.085,-0.07
-0.012,-0.026,-0.014,0.019,0.001,-0.019,-0.024,-0.012,-0.134,-0.094,-0.116,-0.072
-0.032,-0.031,0.002,0.032,-0.017,-0.014,-0.03,-0.018,-0.138,-0.107,-0.086,-0.075
-0.022,-0.051,-0.029,0.037,0.003,-0.039,-0.033,-0.022,-0.137,-0.113,-0.084,-0.075
-0.025,-0.037,-0.012,0.031,-0.007,-0.024,-0.038,-0.034,-0.147,-0.1,-0.056,-0.074
-0.029,-0.032,-0.003,0.031,-0.013,-0.017,-0.04,-0.047,-0.161,-0.139,-0.1,-0.081
-0.027,-0.021,0.007,0.023,-0.017,-0.007,-0.039,-0.044,-0.16,-0.159,-0.131,-0.086
-0.032,-0.018,0.013,0.025,-0.022,-0.003,-0.062,-0.045,-0.16,-0.152,-0.053,-0.084
-0.059,-0.052,0.007,0.056,-0.033,-0.022,-0.072,-0.045,-0.16,-0.157,-0.089,-0.085
-0.062,-0.045,0.017,0.053,-0.039,-0.014,-0.071,-0.045,-0.16,-0.153,-0.145,-0.085
-0.014,-0.028,-0.014,0.021,0.0,-0.021,-0.075,-0.041,-0.157,-0.164,-0.136,-0.085
-0.025,-0.031,-0.006,0.028,-0.01,-0.018,-0.075,-0.031,-0.149,-0.16,-0.142,-0.083
-0.078,-0.031,0.048,0.054,-0.063,0.008,-0.063,-0.024,-0.143,-0.144,-0.086,-0.077
-0.054,-0.009,0.045,0.031,-0.049,0.018,-0.046,-0.015,-0.135,-0.135,-0.091,-0.072
-0.049,-0.002,0.046,0.025,-0.047,0.021,-0.045,-0.009,-0.129,-0.126,-0.124,-0.069
-0.044,0.0,0.044,0.022,-0.044,0.022,-0.043,-0.004,-0.123,-0.111,-0.094,-0.063
-0.023,0.038,0.062,-0.008,-0.043,0.05,-0.066,-0.009,-0.126,-0.13,-0.115,-0.06
-0.019,0.072,0.091,-0.027,-0.055,0.081,-0.089,-0.016,-0.122,-0.142,-0.098,-0.065
0.009,0.08,0.071,-0.045,-0.031,0.075,-0.082,-0.018,-0.12,-0.121,-0.06,-0.065
0.006,0.08,0.074,-0.043,-0.034,0.077,-0.088,-0.028,-0.121,-0.128,-0.051,-0.065
0.012,0.068,0.057,-0.04,-0.023,0.062,-0.082,-0.028,-0.126,-0.12,-0.053,-0.063
-0.006,0.013,0.019,-0.004,-0.012,0.016,-0.087,-0.04,-0.164,-0.142,-0.105,-0.076
-0.052,-0.037,0.016,0.045,-0.034,-0.01,-0.088,-0.018,-0.162,-0.196,-0.158,-0.112
-0.049,-0.052,-0.003,0.05,-0.023,-0.027,-0.089,-0.043,-0.181,-0.193,-0.164,-0.116
-0.045,-0.068,-0.023,0.056,-0.01,-0.045,-0.096,-0.057,-0.191,-0.182,-0.15,-0.116
-0.053,-0.065,-0.012,0.059,-0.02,-0.038,-0.089,-0.05,-0.201,-0.189,-0.148,-0.125
-0.048,-0.034,0.014,0.041,-0.031,-0.01,-0.104,-0.067,-0.191,-0.169,-0.133,-0.118
-0.035,-0.035,0.0,0.035,-0.017,-0.017,-0.052,-0.02,-0.186,-0.188,-0.132,-0.133
-0.005,-0.001,0.005,0.003,-0.005,0.002,-0.066,0.028,-0.094,-0.131,-0.102,-0.096
0.03,0.049,0.019,-0.04,0.005,0.034,-0.006,0.195,0.189,0.071,0.035,-0.017
0.131,0.295,0.163,-0.213,-0.016,0.229,-0.181,-0.149,0.452,0.399,0.319,0.214
0.148,0.309,0.161,-0.228,-0.007,0.234,-0.701,-0.788,0.472,0.391,0.292,0.263
-0.064,-0.282,-0.218,0.173,0.077,-0.25,-0.879,-1.181,-0.537,-0.362,-0.237,-0.112
-0.17,-0.517,-0.346,0.344,0.088,-0.431,-0.949,-1.359,-1.281,-0.79,-0.481,-0.258
-0.104,-0.351,-0.247,0.228,0.072,-0.299,-0.796,-0.871,-0.836,-0.589,-0.394,-0.218
-0.064,-0.229,-0.164,0.147,0.05,-0.196,-0.417,-0.387,-0.514,-0.41,-0.303,-0.203
-0.052,-0.146,-0.093,0.099,0.021,-0.119,-0.212,-0.153,-0.322,-0.296,-0.221,-0.154
-0.049,-0.086,-0.037,0.068,-0.006,-0.061,-0.123,-0.016,-0.227,-0.24,-0.198,-0.138
-0.038,-0.014,0.023,0.026,-0.03,0.004,-0.099,0.007,-0.201,-0.222,-0.177,-0.121
-0.055,-0.024,0.031,0.039,-0.043,0.003,-0.066,0.066,-0.157,-0.213,-0.168,-0.127
-0.059,-0.019,0.04,0.039,-0.049,0.01,-0.059,0.054,-0.156,-0.198,-0.155,-0.125
-0.054,-0.012,0.042,0.032,-0.048,0.015,-0.052,0.079,-0.121,-0.19,-0.131,-0.124
-0.031,0.013,0.044,0.009,-0.038,0.028,-0.042,0.086,-0.122,-0.187,-0.141,-0.126
0.045,0.054,0.009,-0.05,0.018,0.031,-0.037,0.087,-0.113,-0.179,-0.166,-0.122
0.032,0.033,0.0,-0.032,0.016,0.016,-0.024,0.114,-0.109,-0.172,-0.147,-0.117
-0.015,0.032,0.047,-0.008,-0.031,0.039,-0.013,0.121,-0.108,-0.162,-0.134,-0.108
-0.022,0.033,0.055,-0.006,-0.039,0.043,-0.003,0.145,-0.088,-0.13,-0.134,-0.103
-0.017,0.04,0.057,-0.011,-0.037,0.048,0.003,0.166,-0.067,-0.147,-0.13,-0.096
-0.012,0.05,0.062,-0.019,-0.037,0.056,0.028,0.202,-0.05,-0.154,-0.128,-0.088
0.016,0.069,0.054,-0.043,-0.019,0.061,0.057,0.243,-0.012,-0.105,-0.124,-0.079
0.04,0.095,0.055,-0.067,-0.008,0.075,0.095,0.295,0.031,-0.113,-0.126,-0.071
0.03,0.097,0.066,-0.064,-0.018,0.081,0.138,0.362,0.071,-0.093,-0.101,-0.061
0.047,0.135,0.088,-0.091,-0.02,0.111,0.171,0.414,0.132,-0.046,-0.064,-0.043
0.057,0.153,0.096,-0.106,-0.019,0.124,0.206,0.47,0.193,0.006,-0.035,-0.012
0.072,0.191,0.119,-0.132,-0.024,0.155,0.228,0.494,0.236,0.066,0.003,0.019
0.087,0.247,0.161,-0.167,-0.037,0.204,0.217,0.486,0.261,0.077,0.046,0.047
0.074,0.259,0.185,-0.166,-0.056,0.222,0.207,0.473,0.262,0.092,0.06,0.069
0.054,0.261,0.208,-0.158,-0.077,0.234,0.191,0.42,0.221,0.097,0.075,0.061
0.035,0.246,0.211,-0.14,-0.088,0.228,0.132,0.326,0.159,0.069,0.066,0.044
0.008,0.217,0.209,-0.112,-0.101,0.213,0.084,0.232,0.084,-0.003,-0.036,0.009
-0.018,0.166,0.184,-0.075,-0.101,0.175,0.045,0.166,-0.002,-0.092,-0.093,-0.031
-0.026,0.112,0.137,-0.043,-0.082,0.124,0.007,0.099,-0.072,-0.113,-0.096,-0.057
-0.041,0.101,0.142,-0.031,-0.091,0.121,-0.023,0.07,-0.13,-0.151,-0.152,-0.107
-0.048,0.092,0.14,-0.023,-0.095,0.116,-0.051,0.051,-0.158,-0.199,-0.188,-0.132
-0.058,0.054,0.112,0.002,-0.085,0.083,-0.053,0.012,-0.173,-0.194,-0.184,-0.126
-0.061,0.045,0.106,0.008,-0.084,0.075,-0.058,0.004,-0.183,-0.193,-0.184,-0.124
-0.049,0.07,0.118,-0.011,-0.084,0.093,-0.06,0.001,-0.174,-0.205,-0.18,-0.12
-0.04,0.08,0.119,-0.02,-0.08,0.099,-0.063,-0.003,-0.176,-0.216,-0.18,-0.114
-0.031,0.07,0.101,-0.02,-0.066,0.086,-0.066,-0.006,-0.169,-0.216,-0.178,-0.121
-0.027,0.069,0.097,-0.021,-0.062,0.083,-0.06,-0.011,-0.172,-0.214,-0.167,-0.127
-0.029,0.066,0.096,-0.019,-0.063,0.081,-0.061,-0.006,-0.19,-0.216,-0.157,-0.123
-0.026,0.063,0.089,-0.018,-0.058,0.076,-0.058,-0.001,-0.188,-0.221,-0.183,-0.12
-0.029,0.059,0.088,-0.015,-0.059,0.073,-0.055,0.003,-0.184,-0.211,-0.196,-0.118
-0.031,0.051,0.082,-0.01,-0.057,0.066,-0.054,0.008,-0.181,-0.196,-0.172,-0.114
-0.03,0.049,0.08,-0.009,-0.055,0.064,-0.058,0.012,-0.175,-0.188,-0.166,-0.114
-0.035,0.039,0.074,-0.002,-0.055,0.056,-0.06,0.017,-0.177,-0.187,-0.145,-0.105
-0.031,0.038,0.069,-0.004,-0.05,0.053,-0.061,0.029,-0.18,-0.197,-0.141,-0.1
-0.059,0.039,0.098,0.01,-0.079,0.068,-0.066,0.029,-0.183,-0.188,-0.199,-0.124
-0.065,0.047,0.113,0.009,-0.089,0.08,-0.064,0.02,-0.185,-0.185,-0.217,-0.132
-0.038,0.076,0.114,-0.02,-0.076,0.095,-0.062,0.014,-0.188,-0.183,-0.204,-0.129
-0.041,0.074,0.116,-0.017,-0.079,0.095,-0.054,0.008,-0.19,-0.162,-0.193,-0.13
-0.061,0.064,0.125,-0.001,-0.094,0.095,-0.066,-0.003,-0.19,-0.193,-0.175,-0.132
-0.069,0.059,0.128,0.004,-0.098,0.093,-0.082,-0.019,-0.19,-0.204,-0.173,-0.143
-0.045,0.05,0.094,-0.003,-0.07,0.072,-0.076,-0.035,-0.19,-0.183,-0.166,-0.131
-0.051,0.045,0.096,0.003,-0.074,0.07,-0.073,-0.05,-0.19,-0.174,-0.161,-0.122
-0.056,0.045,0.101,0.005,-0.079,0.073,-0.071,-0.056,-0.19,-0.186,-0.164,-0.125
-0.046,0.044,0.091,0.0,-0.069,0.067,-0.063,-0.066,-0.19,-0.212,-0.165,-0.127
-0.048,0.046,0.094,0.001,-0.071,0.069,-0.07,-0.072,-0.19,-0.195,-0.173,-0.131
-0.039,0.044,0.084,-0.003,-0.062,0.064,-0.087,-0.069,-0.19,-0.185,-0.183,-0.133
-0.041,0.045,0.087,-0.002,-0.065,0.066,-0.092,-0.071,-0.195,-0.196,-0.178,-0.136
-0.052,0.04,0.092,0.006,-0.072,0.066,-0.088,-0.069,-0.188,-0.194,-0.168,-0.13
-0.068,0.021,0.089,0.023,-0.079,0.055,-0.091,-0.07,-0.177,-0.172,-0.162,-0.122
-0.045,0.079,0.124,-0.018,-0.085,0.102,-0.087,-0.074,-0.181,-0.171,-0.153,-0.114
0.003,0.123,0.12,-0.063,-0.059,0.121,-0.055,-0.074,-0.179,-0.166,-0.146,-0.105
-0.006,0.109,0.116,-0.052,-0.061,0.112,-0.048,-0.075,-0.176,-0.142,-0.134,-0.095
-0.029,0.111,0.14,-0.041,-0.084,0.125,-0.058,-0.074,-0.172,-0.139,-0.124,-0.085
-0.03,0.113,0.143,-0.042,-0.087,0.128,-0.072,-0.076,-0.169,-0.149,-0.131,-0.076
-0.004,0.151,0.155,-0.074,-0.08,0.153,-0.095,-0.073,-0.166,-0.131,-0.13,-0.071
0.001,0.14,0.139,-0.071,-0.069,0.139,-0.096,-0.064,-0.161,-0.128,-0.122,-0.066
0.003,0.138,0.136,-0.071,-0.067,0.137,-0.104,-0.062,-0.163,-0.119,-0.116,-0.063
0.023,0.146,0.123,-0.085,-0.05,0.134,-0.097,-0.048,-0.149,-0.12,-0.108,-0.056
-0.032,0.089,0.121,-0.029,-0.077,0.104,-0.103,-0.052,-0.171,-0.151,-0.108,-0.063
-0.066,0.046,0.112,0.01,-0.089,0.079,-0.099,-0.033,-0.19,-0.151,-0.134,-0.103
-0.044,0.027,0.071,0.009,-0.058,0.049,-0.099,-0.061,-0.208,-0.178,-0.154,-0.112
-0.057,0.02,0.078,0.018,-0.067,0.049,-0.115,-0.057,-0.202,-0.162,-0.15,-0.109
-0.065,0.026,0.091,0.02,-0.079,0.058,-0.108,-0.053,-0.203,-0.171,-0.149,-0.113
-0.047,0.025,0.072,0.011,-0.06,0.048,-0.128,-0.06,-0.182,-0.176,-0.137,-0.1
-0.054,-0.009,0.045,0.031,-0.049,0.018,-0.067,-0.006,-0.175,-0.153,-0.146,-0.114
-0.059,0.056,0.115,0.002,-0.087,0.085,-0.085,0.017,-0.096,-0.104,-0.118,-0.086
0.001,0.111,0.111,-0.056,-0.055,0.111,-0.015,0.2,0.195,0.077,-0.003,-0.026
0.121,0.359,0.238,-0.24,-0.059,0.298,-0.236,-0.208,0.43,0.494,0.358,0.231
0.147,0.406,0.259,-0.277,-0.056,0.332,-0.828,-0.877,0.476,0.522,0.418,0.344
-0.039,-0.225,-0.186,0.132,0.074,-0.206,-0.947,-1.207,-0.5,-0.293,-0.159,-0.023
-0.167,-0.478,-0.311,0.323,0.072,-0.394,-0.958,-1.37,-1.276,-0.701,-0.44,-0.204
-0.104,-0.297,-0.193,0.201,0.045,-0.245,-0.782,-0.873,-0.802,-0.521,-0.364,-0.164
-0.049,-0.176,-0.128,0.113,0.04,-0.152,-0.384,-0.389,-0.473,-0.358,-0.277,-0.155
-0.045,-0.081,-0.036,0.064,-0.004,-0.059,-0.191,-0.171,-0.285,-0.209,-0.199,-0.134
-0.044,-0.036,0.008,0.04,-0.026,-0.014,-0.095,-0.039,-0.194,-0.168,-0.173,-0.112
-0.055,0.02,0.074,0.017,-0.065,0.047,-0.06,-0.015,-0.159,-0.152,-0.145,-0.085
-0.05,0.02,0.07,0.015,-0.06,0.045,-0.027,0.034,-0.115,-0.129,-0.139,-0.082
-0.031,0.017,0.048,0.007,-0.04,0.033,-0.019,0.038,-0.122,-0.106,-0.128,-0.075
-0.028,0.047,0.075,-0.01,-0.052,0.061,-0.009,0.058,-0.082,-0.1,-0.127,-0.072
-0.015,0.07,0.086,-0.028,-0.051,0.078,0.005,0.061,-0.093,-0.094,-0.114,-0.067
-0.008,0.071,0.079,-0.032,-0.044,0.075,0.01,0.077,-0.07,-0.081,-0.099,-0.062
-0.011,0.066,0.077,-0.028,-0.044,0.071,0.034,0.089,-0.068,-0.089,-0.094,-0.058
-0.006,0.067,0.073,-0.03,-0.04,0.069,0.049,0.103,-0.066,-0.069,-0.085,-0.053
-0.004,0.064,0.068,-0.03,-0.036,0.065,0.048,0.115,-0.04,-0.045,-0.08,-0.05
-0.003,0.091,0.094,-0.044,-0.049,0.092,0.074,0.138,0.002,-0.036,-0.072,-0.044
-0.001,0.113,0.114,-0.056,-0.058,0.114,0.107,0.184,0.029,-0.035,-0.067,-0.038
0.002,0.107,0.105,-0.055,-0.051,0.106,0.129,0.217,0.033,-0.041,-0.058,-0.031
0.001,0.108,0.106,-0.055,-0.053,0.107,0.169,0.268,0.077,-0.01,-0.036,-0.012
0.001,0.101,0.1,-0.051,-0.05,0.1,0.215,0.333,0.132,0.031,-0.02,0.002
0.037,0.137,0.1,-0.087,-0.031,0.118,0.251,0.387,0.18,0.079,0.011,0.016
0.068,0.184,0.116,-0.126,-0.025,0.15,0.278,0.436,0.248,0.125,0.065,0.054
0.058,0.201,0.142,-0.13,-0.042,0.171,0.308,0.471,0.305,0.152,0.102,0.092
0.07,0.242,0.171,-0.156,-0.051,0.206,0.309,0.464,0.32,0.192,0.114,0.109
0.07,0.274,0.203,-0.172,-0.067,0.238,0.279,0.437,0.322,0.206,0.102,0.114
0.06,0.286,0.226,-0.174,-0.083,0.256,0.231,0.368,0.306,0.188,0.094,0.109
0.054,0.268,0.214,-0.161,-0.08,0.241,0.176,0.281,0.232,0.151,0.085,0.093
0.018,0.221,0.203,-0.12,-0.093,0.212,0.126,0.2,0.134,0.11,0.076,0.067
0.002,0.175,0.173,-0.089,-0.085,0.174,0.08,0.115,0.057,0.058,0.042,0.024
-0.022,0.135,0.157,-0.057,-0.089,0.146,0.047,0.063,-0.008,-0.013,-0.016,-0.006
-0.036,0.098,0.134,-0.031,-0.085,0.116,0.022,0.012,-0.057,-0.043,-0.032,-0.001
-0.041,0.079,0.12,-0.019,-0.081,0.099,0.006,-0.019,-0.095,-0.074,-0.068,-0.01
-0.049,0.087,0.136,-0.019,-0.093,0.111,-0.011,-0.027,-0.11,-0.087,-0.095,-0.029
-0.02,0.083,0.103,-0.032,-0.062,0.093,-0.03,-0.045,-0.111,-0.057,-0.083,-0.042
-0.022,0.069,0.091,-0.023,-0.057,0.08,-0.031,-0.054,-0.116,-0.079,-0.09,-0.053
-0.015,0.074,0.089,-0.03,-0.052,0.081,-0.027,-0.061,-0.115,-0.097,-0.084,-0.055
-0.01,0.071,0.081,-0.031,-0.046,0.076,-0.025,-0.059,-0.115,-0.084,-0.078,-0.055
-0.024,0.053,0.077,-0.015,-0.051,0.065,-0.021,-0.05,-0.114,-0.079,-0.077,-0.058
-0.016,0.054,0.07,-0.019,-0.044,0.062,-0.021,-0.045,-0.116,-0.074,-0.067,-0.061
-0.022,0.059,0.082,-0.019,-0.052,0.07,-0.015,-0.037,-0.113,-0.063,-0.082,-0.059
-0.028,0.059,0.087,-0.016,-0.057,0.072,-0.021,-0.031,-0.123,-0.08,-0.105,-0.055
-0.027,0.056,0.083,-0.015,-0.056,0.07,-0.036,-0.033,-0.131,-0.099,-0.105,-0.055
-0.034,0.053,0.086,-0.01,-0.06,0.069,-0.03,-0.036,-0.117,-0.087,-0.106,-0.055
-0.033,0.051,0.084,-0.01,-0.058,0.067,-0.026,-0.035,-0.113,-0.078,-0.11,-0.055
-0.038,0.047,0.085,-0.005,-0.062,0.066,-0.022,-0.035,-0.11,-0.071,-0.11,-0.055
-0.054,0.045,0.099,0.004,-0.077,0.072,-0.016,-0.035,-0.106,-0.086,-0.108,-0.053
-0.044,0.046,0.09,-0.001,-0.067,0.068,-0.017,-0.035,-0.103,-0.093,-0.097,-0.049
-0.038,0.052,0.09,-0.007,-0.064,0.071,-0.028,-0.035,-0.099,-0.08,-0.091,-0.047
-0.038,0.059,0.097,-0.011,-0.067,0.078,-0.037,-0.036,-0.106,-0.073,-0.08,-0.044
-0.036,0.058,0.094,-0.011,-0.065,0.075,-0.035,-0.034,-0.112,-0.066,-0.07,-0.041
-0.048,0.047,0.095,0.0,-0.072,0.071,-0.035,-0.036,-0.114,-0.052,-0.046,-0.04
-0.051,0.044,0.095,0.003,-0.073,0.069,-0.033,-0.044,-0.109,-0.057,-0.054,-0.034
-0.06,0.034,0.094,0.012,-0.077,0.064,-0.031,-0.049,-0.111,-0.08,-0.092,-0.029
-0.058,0.031,0.089,0.013,-0.073,0.06,-0.028,-0.056,-0.11,-0.077,-0.087,-0.023
-0.034,0.055,0.088,-0.011,-0.061,0.071,-0.037,-0.061,-0.109,-0.068,-0.084,-0.019
-0.019,0.061,0.081,-0.022,-0.05,0.071,-0.05,-0.064,-0.125,-0.078,-0.081,-0.01
-0.024,0.06,0.084,-0.018,-0.054,0.072,-0.051,-0.069,-0.116,-0.086,-0.076,-0.018
-0.03,0.058,0.088,-0.014,-0.059,0.073,-0.055,-0.069,-0.114,-0.088,-0.075,-0.045
-0.032,0.067,0.099,-0.018,-0.066,0.083,-0.053,-0.071,-0.121,-0.065,-0.074,-0.043
-0.042,0.09,0.132,-0.025,-0.087,0.111,-0.047,-0.074,-0.111,-0.069,-0.077,-0.037
-0.043,0.09,0.133,-0.024,-0.088,0.112,-0.044,-0.075,-0.11,-0.098,-0.072,-0.035
-0.028,0.08,0.109,-0.026,-0.069,0.094,-0.038,-0.073,-0.103,-0.081,-0.089,-0.028
-0.027,0.103,0.131,-0.038,-0.079,0.117,-0.034,-0.06,-0.099,-0.069,-0.083,-0.025
-0.023,0.131,0.154,-0.054,-0.088,0.142,-0.031,-0.046,-0.094,-0.058,-0.052,-0.017
-0.008,0.14,0.148,-0.066,-0.078,0.144,-0.028,-0.035,-0.087,-0.047,-0.038,-0.008
-0.012,0.179,0.191,-0.083,-0.101,0.184,-0.042,-0.046,-0.081,-0.041,-0.043,0.003
-0.013,0.195,0.208,-0.091,-0.111,0.201,-0.057,-0.074,-0.075,-0.031,-0.054,0.008
0.001,0.181,0.18,-0.091,-0.09,0.18,-0.063,-0.073,-0.065,-0.03,-0.043,0.001
0.001,0.181,0.179,-0.091,-0.089,0.18,-0.072,-0.077,-0.069,-0.03,-0.038,-0.004
-0.007,0.161,0.168,-0.077,-0.088,0.164,-0.069,-0.073,-0.068,-0.03,-0.037,-0.01
-0.009,0.133,0.142,-0.062,-0.076,0.137,-0.069,-0.076,-0.079,-0.031,-0.044,-0.015
-0.048,0.095,0.144,-0.024,-0.096,0.119,-0.073,-0.077,-0.094,-0.061,-0.077,-0.036
-0.073,0.068,0.141,0.002,-0.107,0.104,-0.065,-0.081,-0.102,-0.081,-0.096,-0.06
-0.058,0.073,0.131,-0.008,-0.095,0.102,-0.078,-0.094,-0.103,-0.065,-0.084,-0.05
-0.058,0.059,0.117,-0.001,-0.088,0.088,-0.06,-0.07,-0.118,-0.073,-0.094,-0.06
-0.049,0.068,0.117,-0.01,-0.083,0.093,-0.082,-0.099,-0.119,-0.059,-0.079,-0.05
-0.048,0.051,0.099,-0.002,-0.073,0.075,-0.056,-0.053,-0.085,-0.063,-0.089,-0.059
-0.038,0.104,0.142,-0.033,-0.091,0.123,-0.056,-0.07,-0.093,-0.038,-0.089,-0.06
-0.007,0.142,0.149,-0.068,-0.078,0.145,0.004,0.1,0.152,0.065,-0.014,-0.003
0.076,0.284,0.208,-0.18,-0.066,0.246,-0.037,-0.006,0.429,0.365,0.236,0.167
0.199,0.566,0.367,-0.383,-0.084,0.466,-0.67,-0.715,0.689,0.741,0.573,0.432
0.084,0.128,0.045,-0.106,0.019,0.086,-0.985,-1.121,0.168,0.221,0.193,0.233
-0.11,-0.396,-0.285,0.253,0.088,-0.34,-0.97,-1.436,-1.038,-0.54,-0.312,-0.098
-0.088,-0.303,-0.215,0.195,0.064,-0.259,-0.895,-1.165,-0.967,-0.5,-0.275,-0.095
-0.058,-0.166,-0.107,0.112,0.025,-0.136,-0.468,-0.519,-0.455,-0.307,-0.217,-0.089
-0.05,-0.075,-0.025,0.062,-0.012,-0.049,-0.193,-0.243,-0.281,-0.185,-0.14,-0.075
-0.02,0.008,0.028,0.006,-0.024,0.018,-0.086,-0.062,-0.128,-0.117,-0.109,-0.063
-0.019,0.069,0.088,-0.026,-0.053,0.078,-0.023,-0.021,-0.103,-0.084,-0.102,-0.06
-0.012,0.071,0.083,-0.03,-0.048,0.076,0.01,0.032,-0.039,-0.039,-0.078,-0.05
-0.015,0.077,0.091,-0.031,-0.053,0.084,0.033,0.047,-0.043,-0.034,-0.074,-0.049
-0.004,0.095,0.099,-0.046,-0.051,0.097,0.026,0.051,-0.028,-0.017,-0.042,-0.039
-0.003,0.086,0.089,-0.042,-0.046,0.087,0.034,0.068,-0.02,-0.013,-0.03,-0.037
-0.013,0.093,0.106,-0.04,-0.06,0.099,0.049,0.07,-0.011,0.001,-0.033,-0.028
-0.017,0.087,0.105,-0.036,-0.061,0.096,0.069,0.094,0.013,0.004,-0.038,-0.024
-0.013,0.091,0.104,-0.04,-0.059,0.098,0.076,0.107,0.021,0.034,-0.028,-0.019
0.013,0.117,0.104,-0.066,-0.046,0.111,0.091,0.138,0.037,0.042,-0.017,-0.01
-0.002,0.141,0.143,-0.07,-0.073,0.142,0.107,0.153,0.046,0.038,-0.012,0.0
-0.005,0.147,0.152,-0.071,-0.079,0.149,0.126,0.174,0.066,0.074,-0.005,0.01
0.001,0.142,0.141,-0.072,-0.07,0.141,0.159,0.214,0.097,0.062,-0.001,0.02
-0.004,0.139,0.143,-0.068,-0.074,0.141,0.188,0.259,0.12,0.073,0.02,0.03
0.008,0.142,0.134,-0.076,-0.063,0.138,0.237,0.323,0.166,0.109,0.053,0.038
0.016,0.152,0.136,-0.085,-0.06,0.144,0.294,0.396,0.238,0.137,0.043,0.045
0.052,0.194,0.141,-0.123,-0.045,0.167,0.328,0.455,0.291,0.163,0.084,0.069
0.075,0.246,0.172,-0.16,-0.049,0.209,0.351,0.484,0.326,0.217,0.144,0.111
0.068,0.276,0.208,-0.172,-0.07,0.242,0.353,0.5,0.361,0.257,0.155,0.138
0.078,0.312,0.234,-0.195,-0.078,0.273,0.345,0.479,0.383,0.257,0.195,0.16
0.091,0.349,0.257,-0.22,-0.083,0.303,0.312,0.411,0.363,0.289,0.21,0.174
0.065,0.329,0.264,-0.197,-0.099,0.296,0.248,0.332,0.306,0.271,0.194,0.158
0.025,0.276,0.251,-0.151,-0.113,0.263,0.186,0.248,0.226,0.227,0.156,0.131
0.028,0.231,0.203,-0.13,-0.088,0.216,0.139,0.165,0.147,0.153,0.104,0.098
0.035,0.196,0.161,-0.116,-0.063,0.178,0.091,0.082,0.071,0.09,0.074,0.063
0.006,0.159,0.153,-0.083,-0.074,0.156,0.059,0.032,0.017,0.066,0.039,0.038
-0.025,0.125,0.15,-0.05,-0.088,0.137,0.053,0.009,-0.015,0.047,0.004,0.02
-0.025,0.117,0.142,-0.047,-0.083,0.129,0.044,-0.011,-0.032,0.031,-0.015,0.008
-0.02,0.116,0.135,-0.048,-0.078,0.126,0.036,-0.026,-0.042,0.008,-0.017,0.009
-0.016,0.111,0.127,-0.047,-0.071,0.118,0.029,-0.036,-0.061,0.011,-0.011,0.011
-0.013,0.108,0.121,-0.048,-0.067,0.115,0.022,-0.037,-0.066,0.009,-0.007,0.01
-0.01,0.103,0.113,-0.047,-0.062,0.108,0.018,-0.045,-0.064,0.011,-0.002,0.01
-0.004,0.108,0.111,-0.052,-0.058,0.109,0.012,-0.049,-0.061,0.006,0.003,0.01
-0.011,0.119,0.13,-0.054,-0.07,0.124,0.006,-0.046,-0.058,0.021,0.005,0.007
-0.004,0.115,0.119,-0.056,-0.062,0.117,0.001,-0.043,-0.069,0.041,-0.008,-0.001
0.005,0.108,0.103,-0.057,-0.05,0.105,0.003,-0.039,-0.074,0.03,-0.019,-0.007
-0.003,0.103,0.106,-0.05,-0.055,0.104,0.009,-0.036,-0.067,0.018,-0.026,-0.015
-0.007,0.097,0.104,-0.046,-0.056,0.1,0.013,-0.033,-0.062,-0.002,-0.045,-0.019
-0.014,0.092,0.106,-0.04,-0.06,0.099,0.017,-0.03,-0.056,0.008,-0.042,-0.015
-0.017,0.086,0.104,-0.035,-0.061,0.095,0.023,-0.027,-0.051,0.01,-0.036,-0.011
-0.028,0.08,0.108,-0.026,-0.069,0.094,0.024,-0.024,-0.048,0.0,-0.035,-0.008
-0.024,0.085,0.109,-0.031,-0.066,0.097,0.02,-0.021,-0.044,-0.002,-0.024,-0.003
-0.014,0.099,0.112,-0.043,-0.063,0.105,0.018,-0.019,-0.042,-0.011,-0.021,0.0
-0.034,0.08,0.113,-0.024,-0.074,0.096,0.015,-0.015,-0.035,-0.001,0.002,-0.004
-0.033,0.086,0.119,-0.027,-0.076,0.102,0.012,-0.018,-0.039,0.012,0.01,-0.004
-0.01,0.119,0.129,-0.054,-0.07,0.124,0.009,-0.027,-0.055,0.031,-0.016,0.0
0.011,0.11,0.099,-0.06,-0.044,0.104,0.007,-0.023,-0.054,0.035,-0.01,0.0
0.012,0.1,0.088,-0.056,-0.039,0.094,0.002,-0.03,-0.048,0.023,-0.002,0.0
-0.002,0.089,0.091,-0.044,-0.046,0.09,0.0,-0.043,-0.047,0.021,0.006,0.0
-0.004,0.085,0.089,-0.04,-0.047,0.086,-0.005,-0.047,-0.04,0.015,0.021,-0.003
-0.008,0.083,0.091,-0.038,-0.05,0.087,-0.009,-0.048,-0.041,0.012,0.008,-0.009
-0.01,0.078,0.088,-0.034,-0.049,0.083,-0.01,-0.054,-0.061,0.005,-0.003,-0.014
-0.014,0.079,0.093,-0.032,-0.054,0.085,-0.011,-0.062,-0.067,0.009,0.008,-0.017
-0.014,0.07,0.083,-0.028,-0.049,0.076,-0.008,-0.057,-0.064,0.023,0.007,-0.023
-0.006,0.105,0.111,-0.05,-0.058,0.108,-0.033,-0.074,-0.071,0.037,-0.013,-0.024
-0.023,0.099,0.122,-0.038,-0.073,0.11,-0.046,-0.084,-0.069,0.045,-0.014,-0.018
-0.035,0.067,0.102,-0.016,-0.069,0.084,-0.035,-0.072,-0.066,0.045,-0.006,-0.014
-0.014,0.072,0.086,-0.03,-0.05,0.079,-0.033,-0.068,-0.063,0.042,-0.002,-0.009
-0.005,0.068,0.074,-0.032,-0.04,0.071,-0.018,-0.06,-0.06,0.036,0.005,-0.005
-0.01,0.1,0.11,-0.045,-0.06,0.105,0.002,-0.059,-0.049,0.031,-0.005,0.0
-0.024,0.103,0.127,-0.04,-0.075,0.115,0.021,-0.06,-0.034,0.024,0.009,0.005
-0.015,0.134,0.15,-0.06,-0.083,0.142,0.018,-0.055,-0.023,0.047,0.042,0.014
0.011,0.162,0.151,-0.086,-0.07,0.156,0.002,-0.055,-0.017,0.057,0.041,0.023
0.016,0.159,0.142,-0.088,-0.063,0.15,-0.017,-0.055,-0.014,0.053,0.049,0.03
0.025,0.19,0.165,-0.108,-0.07,0.177,-0.03,-0.048,-0.007,0.052,0.058,0.059
0.015,0.16,0.144,-0.088,-0.065,0.152,-0.03,-0.053,-0.007,0.047,0.049,0.068
0.029,0.153,0.124,-0.092,-0.048,0.139,-0.031,-0.047,0.004,0.068,0.04,0.055
0.033,0.135,0.102,-0.084,-0.034,0.118,-0.028,-0.064,-0.018,0.052,0.032,0.035
-0.008,0.072,0.08,-0.032,-0.044,0.076,-0.034,-0.074,-0.039,0.032,0.029,-0.001
-0.012,0.058,0.071,-0.023,-0.042,0.064,-0.023,-0.07,-0.046,0.024,0.023,-0.014
-0.002,0.061,0.062,-0.03,-0.032,0.061,-0.031,-0.079,-0.04,0.026,0.02,-0.012
-0.011,0.045,0.056,-0.017,-0.034,0.05,-0.018,-0.052,-0.024,0.014,0.006,-0.024
-0.012,0.052,0.064,-0.02,-0.039,0.058,-0.032,-0.081,-0.033,0.019,0.004,-0.021
-0.013,0.031,0.044,-0.01,-0.029,0.038,-0.02,-0.03,0.002,0.039,-0.005,-0.023
-0.023,0.054,0.077,-0.016,-0.05,0.065,-0.014,-0.051,-0.021,0.035,0.036,0.007
0.016,0.103,0.087,-0.06,-0.036,0.095,0.029,0.108,0.183,0.144,0.096,0.04
0.101,0.252,0.151,-0.176,-0.026,0.201,0.013,0.048,0.494,0.445,0.325,0.193
0.207,0.526,0.319,-0.367,-0.056,0.422,-0.611,-0.631,0.779,0.784,0.638,0.479
0.117,0.154,0.037,-0.136,0.04,0.095,-1.015,-1.069,0.298,0.324,0.287,0.286
-0.085,-0.39,-0.304,0.238,0.11,-0.347,-0.996,-1.432,-0.915,-0.432,-0.207,-0.062
-0.087,-0.339,-0.252,0.213,0.083,-0.295,-0.893,-1.17,-0.905,-0.429,-0.218,-0.074
-0.036,-0.182,-0.146,0.109,0.055,-0.164,-0.451,-0.491,-0.389,-0.219,-0.132,-0.06
-0.019,-0.09,-0.07,0.055,0.026,-0.08,-0.166,-0.21,-0.218,-0.09,-0.054,-0.037
-0.004,-0.028,-0.024,0.016,0.01,-0.026,-0.052,-0.027,-0.06,-0.027,-0.015,-0.021
0.003,0.021,0.018,-0.012,-0.008,0.02,0.016,0.02,-0.044,-0.002,0.002,-0.017
-0.016,0.037,0.053,-0.011,-0.035,0.045,0.047,0.073,0.001,0.045,0.013,-0.005
-0.026,0.034,0.061,-0.004,-0.044,0.047,0.072,0.086,0.015,0.068,0.016,-0.001
-0.009,0.052,0.06,-0.022,-0.035,0.056,0.068,0.078,0.042,0.078,0.036,0.01
-0.016,0.043,0.059,-0.014,-0.038,0.051,0.086,0.102,0.049,0.076,0.054,0.016
-0.02,0.041,0.061,-0.01,-0.041,0.05,0.087,0.104,0.067,0.08,0.061,0.021
-0.027,0.033,0.06,-0.003,-0.044,0.046,0.104,0.11,0.067,0.084,0.06,0.019
-0.024,0.032,0.056,-0.004,-0.04,0.044,0.109,0.135,0.07,0.109,0.065,0.02
0.019,0.068,0.049,-0.044,-0.016,0.058,0.124,0.167,0.103,0.111,0.066,0.022
0.039,0.08,0.041,-0.06,-0.002,0.06,0.146,0.164,0.096,0.107,0.059,0.03
0.034,0.072,0.038,-0.053,-0.002,0.055,0.167,0.194,0.133,0.104,0.063,0.035
0.041,0.065,0.025,-0.053,0.008,0.045,0.206,0.237,0.154,0.112,0.086,0.042
0.041,0.077,0.036,-0.059,0.002,0.057,0.235,0.282,0.171,0.149,0.112,0.057
0.044,0.108,0.064,-0.076,-0.01,0.086,0.281,0.344,0.232,0.159,0.118,0.063
0.041,0.115,0.074,-0.078,-0.017,0.094,0.324,0.4,0.271,0.196,0.148,0.084
0.043,0.132,0.089,-0.088,-0.024,0.111,0.366,0.466,0.323,0.242,0.177,0.105
0.075,0.184,0.11,-0.13,-0.018,0.147,0.393,0.509,0.385,0.268,0.186,0.12
0.095,0.233,0.138,-0.164,-0.022,0.185,0.387,0.52,0.414,0.321,0.226,0.152
0.087,0.249,0.163,-0.168,-0.038,0.206,0.381,0.505,0.417,0.34,0.262,0.178
0.084,0.275,0.191,-0.18,-0.054,0.233,0.348,0.44,0.404,0.343,0.28,0.182
0.085,0.281,0.196,-0.184,-0.056,0.239,0.289,0.36,0.367,0.333,0.26,0.169
0.061,0.236,0.175,-0.149,-0.057,0.205,0.223,0.268,0.299,0.273,0.23,0.158
0.023,0.192,0.17,-0.108,-0.074,0.181,0.171,0.177,0.223,0.211,0.19,0.131
0.001,0.136,0.135,-0.069,-0.068,0.136,0.129,0.109,0.155,0.173,0.144,0.09
0.003,0.092,0.089,-0.048,-0.043,0.09,0.098,0.049,0.103,0.136,0.11,0.055
-0.011,0.073,0.084,-0.031,-0.048,0.078,0.086,0.017,0.072,0.093,0.079,0.039
-0.02,0.059,0.08,-0.02,-0.05,0.069,0.075,0.003,0.057,0.089,0.08,0.037
-0.016,0.05,0.066,-0.017,-0.041,0.058,0.067,-0.005,0.048,0.087,0.081,0.033
-0.034,0.04,0.074,-0.003,-0.055,0.057,0.058,-0.01,0.036,0.08,0.079,0.029
-0.042,0.032,0.074,0.004,-0.058,0.053,0.051,-0.019,0.018,0.083,0.082,0.026
-0.035,0.022,0.057,0.006,-0.046,0.04,0.05,-0.026,0.013,0.056,0.083,0.023
-0.045,0.014,0.059,0.015,-0.053,0.036,0.05,-0.028,0.016,0.071,0.087,0.018
-0.046,0.009,0.055,0.018,-0.05,0.032,0.05,-0.025,0.014,0.081,0.078,0.012
-0.035,0.009,0.044,0.013,-0.04,0.026,0.049,-0.025,0.015,0.058,0.058,0.009
-0.043,0.002,0.045,0.02,-0.045,0.024,0.051,-0.025,0.015,0.063,0.053,0.003
-0.038,0.008,0.045,0.015,-0.042,0.026,0.055,-0.025,0.013,0.059,0.056,0.0
-0.014,0.029,0.044,-0.008,-0.029,0.036,0.055,-0.025,0.008,0.06,0.054,0.0
-0.023,0.024,0.047,-0.001,-0.036,0.036,0.054,-0.015,0.005,0.06,0.056,0.0
-0.019,0.018,0.036,0.0,-0.028,0.027,0.06,-0.003,0.011,0.06,0.054,0.0
0.005,0.014,0.009,-0.01,-0.002,0.011,0.069,0.004,0.015,0.06,0.056,0.0
-0.006,0.004,0.011,0.001,-0.009,0.007,0.07,0.009,0.015,0.073,0.054,0.0
-0.025,0.017,0.042,0.004,-0.034,0.029,0.07,0.014,0.015,0.097,0.057,0.002
-0.038,0.024,0.062,0.007,-0.05,0.043,0.07,0.021,0.015,0.093,0.07,0.007
-0.039,0.017,0.056,0.01,-0.048,0.036,0.07,0.024,0.015,0.09,0.068,0.009
-0.036,0.012,0.049,0.012,-0.043,0.03,0.071,0.021,0.015,0.091,0.063,0.005
-0.037,0.006,0.043,0.015,-0.04,0.024,0.065,0.018,0.01,0.086,0.06,0.005
-0.034,0.001,0.035,0.016,-0.035,0.018,0.057,0.016,0.006,0.079,0.053,0.005
-0.03,-0.001,0.029,0.015,-0.03,0.014,0.051,0.012,0.004,0.072,0.05,0.005
-0.005,0.019,0.024,-0.007,-0.015,0.021,0.043,0.01,-0.001,0.066,0.045,0.004
0.003,0.024,0.021,-0.014,-0.009,0.023,0.036,0.008,-0.004,0.061,0.04,0.008
-0.004,0.013,0.017,-0.005,-0.011,0.015,0.029,-0.003,-0.008,0.056,0.04,0.017
-0.001,0.013,0.014,-0.006,-0.008,0.013,0.025,-0.011,-0.017,0.052,0.039,0.025
-0.012,-0.004,0.008,0.008,-0.01,0.002,0.023,-0.02,-0.028,0.048,0.069,0.034
-0.025,-0.012,0.014,0.019,-0.019,0.001,0.019,-0.029,-0.023,0.043,0.074,0.03
-0.023,-0.007,0.016,0.015,-0.019,0.004,0.017,-0.03,-0.013,0.064,0.054,0.023
0.0,0.0,0.0,0.0,0.0,0.0,0.014,-0.03,-0.008,0.083,0.066,0.019
0.011,0.004,-0.007,-0.007,0.009,-0.002,0.016,-0.03,-0.005,0.079,0.071,0.013
0.003,-0.005,-0.009,0.001,0.006,-0.007,0.014,-0.03,-0.001,0.078,0.07,0.007
-0.02,-0.014,0.006,0.017,-0.013,-0.004,0.018,-0.031,0.002,0.075,0.069,0.007
-0.039,-0.029,0.01,0.033,-0.024,-0.009,0.038,-0.027,0.006,0.074,0.071,0.017
-0.026,-0.023,0.003,0.025,-0.014,-0.01,0.043,-0.025,0.011,0.08,0.068,0.028
-0.045,-0.004,0.041,0.025,-0.043,0.018,0.047,-0.024,0.022,0.08,0.08,0.035
-0.035,0.039,0.074,-0.003,-0.055,0.056,0.057,-0.025,0.029,0.092,0.081,0.034
0.005,0.058,0.053,-0.031,-0.025,0.055,0.056,-0.024,0.035,0.088,0.081,0.046
-0.004,0.056,0.06,-0.026,-0.032,0.058,0.048,-0.026,0.055,0.077,0.105,0.049
-0.003,0.112,0.115,-0.054,-0.06,0.113,0.029,-0.045,0.062,0.106,0.091,0.052
0.007,0.116,0.109,-0.062,-0.052,0.112,0.025,-0.043,0.059,0.13,0.118,0.071
0.026,0.114,0.087,-0.07,-0.031,0.1,0.021,-0.047,0.053,0.135,0.138,0.083
0.048,0.114,0.067,-0.081,-0.01,0.09,0.017,-0.042,0.058,0.119,0.125,0.083
0.0,0.041,0.04,-0.021,-0.02,0.04,0.016,-0.047,0.04,0.089,0.106,0.06
-0.03,-0.001,0.028,0.015,-0.029,0.013,0.006,-0.043,0.03,0.079,0.058,0.04
-0.036,-0.03,0.006,0.033,-0.021,-0.011,0.013,-0.037,0.023,0.068,0.046,0.031
-0.053,-0.063,-0.01,0.058,-0.021,-0.036,-0.005,-0.042,0.021,0.07,0.055,0.028
-0.02,-0.069,-0.049,0.044,0.015,-0.059,0.01,-0.021,0.023,0.059,0.055,0.014
-0.016,-0.042,-0.026,0.03,0.005,-0.034,-0.015,-0.046,0.007,0.061,0.063,0.014
-0.023,-0.057,-0.034,0.04,0.006,-0.045,0.008,0.0,0.03,0.054,0.034,0.003
-0.013,-0.003,0.01,0.008,-0.011,0.003,0.037,-0.044,0.022,0.087,0.066,0.03
-0.001,0.044,0.045,-0.022,-0.023,0.044,0.086,0.141,0.25,0.189,0.15,0.065
0.091,0.174,0.084,-0.133,0.003,0.129,0.04,0.073,0.562,0.485,0.364,0.216
0.23,0.471,0.241,-0.35,-0.006,0.355,-0.594,-0.591,0.845,0.844,0.675,0.512
0.127,0.076,-0.052,-0.101,0.09,0.012,-0.957,-1.031,0.318,0.35,0.357,0.323
-0.1,-0.47,-0.37,0.285,0.136,-0.42,-0.952,-1.431,-0.868,-0.381,-0.153,-0.025
-0.089,-0.391,-0.302,0.24,0.107,-0.347,-0.846,-1.147,-0.818,-0.363,-0.171,-0.057
-0.035,-0.25,-0.215,0.143,0.09,-0.232,-0.38,-0.482,-0.332,-0.163,-0.078,-0.049
-0.025,-0.163,-0.138,0.094,0.057,-0.15,-0.097,-0.209,-0.171,-0.067,-0.015,-0.021
-0.011,-0.103,-0.092,0.057,0.04,-0.097,0.02,-0.03,-0.019,0.0,0.022,0.0
-0.039,-0.082,-0.043,0.06,0.003,-0.062,0.09,0.014,0.017,0.055,0.056,0.022
-0.027,-0.067,-0.041,0.047,0.007,-0.054,0.106,0.063,0.051,0.078,0.087,0.034
-0.001,-0.058,-0.057,0.03,0.028,-0.057,0.12,0.07,0.049,0.079,0.108,0.025
-0.005,-0.043,-0.037,0.024,0.016,-0.04,0.143,0.099,0.09,0.093,0.115,0.026
-0.008,-0.039,-0.031,0.023,0.012,-0.035,0.15,0.116,0.094,0.105,0.114,0.047
-0.001,-0.03,-0.029,0.015,0.014,-0.029,0.141,0.106,0.091,0.106,0.116,0.064
0.006,-0.024,-0.03,0.009,0.018,-0.027,0.177,0.139,0.102,0.103,0.114,0.057
0.012,-0.018,-0.03,0.003,0.021,-0.024,0.183,0.14,0.104,0.108,0.116,0.065
0.019,-0.01,-0.029,-0.005,0.025,-0.019,0.185,0.152,0.113,0.1,0.114,0.065
0.024,-0.007,-0.031,-0.008,0.027,-0.019,0.2,0.173,0.122,0.117,0.116,0.065
0.029,0.005,-0.024,-0.017,0.026,-0.009,0.228,0.208,0.147,0.131,0.107,0.072
0.028,0.006,-0.022,-0.017,0.025,-0.008,0.259,0.251,0.167,0.165,0.14,0.082
0.037,0.022,-0.015,-0.029,0.026,0.003,0.287,0.295,0.207,0.204,0.175,0.086
0.055,0.041,-0.013,-0.048,0.033,0.014,0.333,0.364,0.249,0.197,0.176,0.083
0.039,0.048,0.01,-0.044,0.014,0.029,0.376,0.426,0.292,0.193,0.168,0.099
0.045,0.127,0.082,-0.086,-0.019,0.104,0.418,0.485,0.356,0.211,0.172,0.118
0.057,0.166,0.109,-0.112,-0.026,0.137,0.448,0.539,0.402,0.273,0.211,0.136
0.044,0.146,0.102,-0.095,-0.03,0.124,0.451,0.548,0.429,0.304,0.254,0.177
0.072,0.187,0.115,-0.129,-0.022,0.151,0.434,0.536,0.448,0.333,0.298,0.215
0.098,0.229,0.131,-0.164,-0.017,0.18,0.392,0.497,0.431,0.349,0.301,0.227
0.076,0.213,0.137,-0.145,-0.031,0.175,0.332,0.426,0.39,0.303,0.285,0.216
0.032,0.164,0.132,-0.098,-0.05,0.148,0.276,0.326,0.318,0.283,0.258,0.181
0.015,0.117,0.101,-0.066,-0.043,0.109,0.223,0.231,0.243,0.23,0.205,0.14
0.004,0.07,0.066,-0.037,-0.031,0.067,0.174,0.184,0.175,0.164,0.167,0.108
-0.022,0.03,0.052,-0.004,-0.038,0.041,0.138,0.136,0.11,0.13,0.116,0.079
-0.011,0.023,0.034,-0.007,-0.023,0.028,0.119,0.098,0.071,0.093,0.078,0.061
-0.013,0.011,0.023,0.001,-0.018,0.017,0.104,0.075,0.055,0.074,0.086,0.055
-0.044,-0.032,0.011,0.038,-0.027,-0.01,0.093,0.065,0.05,0.075,0.099,0.05
-0.052,-0.052,0.0,0.052,-0.026,-0.026,0.089,0.063,0.042,0.078,0.095,0.044
-0.049,-0.049,0.0,0.049,-0.024,-0.024,0.084,0.054,0.034,0.071,0.089,0.038
-0.065,-0.051,0.015,0.058,-0.04,-0.018,0.078,0.051,0.028,0.087,0.084,0.034
-0.072,-0.049,0.023,0.061,-0.048,-0.013,0.072,0.043,0.021,0.083,0.078,0.029
-0.059,-0.051,0.008,0.054,-0.034,-0.021,0.067,0.055,0.018,0.061,0.071,0.031
-0.042,-0.046,-0.005,0.044,-0.018,-0.025,0.065,0.072,0.014,0.054,0.064,0.027
-0.018,-0.044,-0.026,0.031,0.004,-0.035,0.065,0.07,0.011,0.045,0.057,0.025
-0.042,-0.046,-0.003,0.044,-0.019,-0.025,0.061,0.069,0.006,0.04,0.051,0.025
-0.045,-0.048,-0.003,0.046,-0.02,-0.026,0.06,0.065,0.006,0.031,0.053,0.021
-0.036,-0.07,-0.034,0.054,-0.001,-0.051,0.06,0.065,0.02,0.024,0.055,0.034
-0.048,-0.055,-0.006,0.052,-0.021,-0.03,0.055,0.063,0.02,0.021,0.055,0.029
-0.037,-0.036,0.001,0.037,-0.019,-0.017,0.051,0.058,0.015,0.027,0.055,0.012
-0.039,-0.046,-0.007,0.042,-0.016,-0.026,0.048,0.055,0.013,0.029,0.055,0.018
-0.028,-0.045,-0.017,0.037,-0.005,-0.031,0.044,0.051,0.008,0.026,0.053,0.027
-0.019,-0.045,-0.026,0.032,0.004,-0.035,0.041,0.047,0.006,0.019,0.05,0.038
-0.033,-0.045,-0.013,0.039,-0.01,-0.029,0.038,0.044,0.0,0.017,0.047,0.043
-0.046,-0.068,-0.022,0.058,-0.012,-0.045,0.031,0.041,-0.005,0.012,0.045,0.036
-0.073,-0.077,-0.004,0.075,-0.034,-0.041,0.024,0.038,-0.01,0.004,0.041,0.029
-0.096,-0.067,0.029,0.081,-0.062,-0.019,0.017,0.036,-0.015,0.031,0.035,0.023
-0.07,-0.069,0.001,0.07,-0.035,-0.034,0.011,0.032,-0.022,0.023,0.03,0.015
-0.033,-0.06,-0.027,0.047,-0.003,-0.043,0.005,0.03,-0.024,0.0,0.025,0.011
-0.05,-0.063,-0.013,0.057,-0.019,-0.038,0.0,0.027,-0.016,0.013,0.018,0.016
-0.078,-0.083,-0.005,0.081,-0.036,-0.044,0.0,0.023,-0.031,0.014,0.016,0.029
-0.055,-0.086,-0.031,0.071,-0.011,-0.058,-0.004,0.016,-0.043,0.005,0.02,0.032
-0.042,-0.084,-0.042,0.063,0.001,-0.063,-0.004,0.015,-0.039,-0.001,0.019,0.028
-0.051,-0.081,-0.029,0.066,-0.011,-0.055,-0.012,0.008,-0.041,-0.011,0.027,0.022
-0.052,-0.08,-0.027,0.066,-0.012,-0.053,-0.021,0.006,-0.039,-0.006,0.033,0.019
-0.027,-0.079,-0.052,0.054,0.013,-0.065,-0.012,0.036,-0.041,0.016,0.027,0.013
-0.021,-0.074,-0.053,0.048,0.016,-0.063,-0.007,0.048,-0.036,0.018,0.026,0.01
-0.048,-0.076,-0.028,0.063,-0.009,-0.052,0.002,0.047,-0.03,0.01,0.02,0.016
-0.037,-0.061,-0.025,0.049,-0.006,-0.043,0.006,0.052,-0.025,0.006,0.024,0.019
-0.028,-0.028,0.0,0.028,-0.014,-0.013,0.018,0.055,-0.019,0.028,0.031,0.029
-0.026,-0.009,0.017,0.017,-0.021,0.004,0.03,0.055,-0.013,0.044,0.029,0.037
-0.012,0.002,0.014,0.005,-0.013,0.008,0.015,0.049,-0.012,0.035,0.024,0.035
-0.016,0.022,0.038,-0.003,-0.027,0.03,-0.001,0.039,-0.027,0.035,0.029,0.034
-0.01,0.037,0.047,-0.014,-0.029,0.042,-0.012,0.033,-0.022,0.029,0.045,0.041
0.006,0.034,0.029,-0.02,-0.012,0.032,-0.017,0.027,-0.021,0.026,0.051,0.057
0.003,0.035,0.032,-0.019,-0.015,0.033,-0.026,0.021,-0.016,0.022,0.041,0.054
0.032,0.028,-0.005,-0.03,0.018,0.011,-0.029,0.022,-0.015,0.019,0.044,0.041
0.025,-0.043,-0.068,0.01,0.046,-0.055,-0.036,0.008,-0.038,0.02,0.04,0.034
-0.035,-0.112,-0.078,0.074,0.022,-0.095,-0.027,0.017,-0.054,-0.023,-0.007,0.014
-0.033,-0.098,-0.065,0.066,0.016,-0.081,-0.033,-0.026,-0.077,-0.043,-0.003,0.006
-0.033,-0.101,-0.069,0.068,0.018,-0.085,-0.026,-0.025,-0.052,-0.052,-0.028,-0.009
-0.035,-0.096,-0.061,0.066,0.013,-0.078,-0.022,-0.035,-0.068,-0.06,-0.042,-0.01
-0.033,-0.088,-0.055,0.06,0.011,-0.072,-0.031,-0.022,-0.036,-0.043,-0.022,-0.016
-0.054,-0.094,-0.04,0.074,-0.007,-0.067,-0.006,-0.014,-0.05,-0.057,-0.056,-0.03
-0.052,-0.039,0.013,0.046,-0.032,-0.013,-0.025,0.033,0.068,0.031,0.018,0.013
0.013,0.021,0.008,-0.017,0.002,0.015,0.058,0.192,0.383,0.214,0.145,0.092
0.145,0.294,0.149,-0.22,-0.002,0.221,-0.253,-0.304,0.621,0.623,0.487,0.361
0.12,0.177,0.057,-0.148,0.031,0.117,-0.781,-0.891,0.509,0.495,0.436,0.35
-0.095,-0.433,-0.338,0.264,0.121,-0.385,-0.878,-1.27,-0.6,-0.372,-0.178,-0.032
-0.167,-0.547,-0.38,0.357,0.107,-0.463,-0.902,-1.352,-1.118,-0.585,-0.314,-0.137
-0.097,-0.382,-0.285,0.24,0.094,-0.333,-0.656,-0.749,-0.598,-0.4,-0.224,-0.099
-0.075,-0.277,-0.202,0.176,0.063,-0.239,-0.286,-0.34,-0.346,-0.264,-0.181,-0.073
-0.068,-0.197,-0.129,0.133,0.03,-0.162,-0.13,-0.128,-0.168,-0.134,-0.114,-0.056
-0.052,-0.146,-0.094,0.099,0.021,-0.12,-0.051,-0.02,-0.108,-0.127,-0.101,-0.054
-0.052,-0.113,-0.061,0.083,0.005,-0.087,-0.029,0.001,-0.073,-0.095,-0.067,-0.036
-0.05,-0.118,-0.068,0.084,0.009,-0.093,-0.005,0.045,-0.036,-0.083,-0.056,-0.037
-0.046,-0.105,-0.059,0.076,0.007,-0.082,-0.002,0.042,-0.038,-0.046,-0.039,-0.029
-0.044,-0.104,-0.059,0.074,0.008,-0.081,0.005,0.076,-0.016,-0.045,-0.04,-0.028
-0.042,-0.096,-0.054,0.069,0.006,-0.075,0.015,0.075,-0.02,-0.042,-0.035,-0.023
-0.041,-0.088,-0.048,0.065,0.004,-0.068,0.026,0.078,-0.002,-0.035,-0.03,-0.019
-0.038,-0.084,-0.046,0.061,0.004,-0.065,0.044,0.084,0.0,-0.038,-0.031,-0.021
-0.035,-0.074,-0.039,0.055,0.002,-0.056,0.048,0.09,0.013,-0.013,-0.012,-0.018
-0.031,-0.067,-0.036,0.049,0.003,-0.051,0.06,0.121,0.051,-0.046,-0.034,-0.026
-0.012,-0.046,-0.034,0.03,0.011,-0.04,0.074,0.145,0.08,-0.042,-0.056,-0.033
-0.007,-0.042,-0.035,0.025,0.014,-0.038,0.097,0.171,0.091,-0.009,-0.033,-0.022
-0.005,-0.04,-0.035,0.023,0.015,-0.037,0.124,0.22,0.115,-0.002,-0.024,-0.014
0.012,-0.022,-0.035,0.005,0.024,-0.028,0.16,0.27,0.152,0.011,-0.024,-0.008
0.013,-0.021,-0.035,0.005,0.024,-0.028,0.205,0.333,0.196,0.047,0.015,-0.001
0.004,0.008,0.003,-0.006,0.0,0.006,0.228,0.384,0.253,0.087,0.051,0.02
0.004,0.051,0.047,-0.028,-0.022,0.049,0.265,0.438,0.315,0.131,0.087,0.057
0.048,0.092,0.044,-0.07,0.002,0.068,0.286,0.462,0.351,0.193,0.124,0.075
0.064,0.135,0.071,-0.1,-0.004,0.103,0.277,0.441,0.381,0.195,0.146,0.096
0.028,0.15,0.123,-0.089,-0.048,0.137,0.261,0.43,0.385,0.213,0.171,0.125
0.04,0.159,0.119,-0.1,-0.039,0.139,0.221,0.358,0.341,0.217,0.153,0.117
0.047,0.157,0.11,-0.102,-0.032,0.133,0.176,0.271,0.271,0.156,0.128,0.1
0.014,0.118,0.104,-0.066,-0.045,0.11,0.121,0.194,0.183,0.09,0.073,0.067
0.0,0.064,0.065,-0.032,-0.033,0.064,0.077,0.111,0.099,0.041,0.014,0.012
-0.018,0.023,0.041,-0.002,-0.03,0.032,0.048,0.056,0.035,0.009,-0.015,-0.022
-0.055,-0.024,0.031,0.039,-0.043,0.003,0.021,0.011,-0.006,-0.068,-0.053,-0.032
-0.064,-0.045,0.019,0.054,-0.041,-0.013,0.006,-0.014,-0.037,-0.106,-0.056,-0.038
-0.084,-0.073,0.011,0.078,-0.047,-0.031,-0.001,-0.03,-0.056,-0.099,-0.072,-0.061
-0.085,-0.087,-0.001,0.086,-0.042,-0.044,-0.004,-0.051,-0.069,-0.11,-0.079,-0.073
-0.069,-0.082,-0.013,0.075,-0.028,-0.047,-0.011,-0.061,-0.072,-0.107,-0.071,-0.075
-0.053,-0.082,-0.029,0.068,-0.012,-0.055,-0.016,-0.06,-0.067,-0.109,-0.107,-0.078
-0.052,-0.055,-0.003,0.054,-0.024,-0.029,-0.022,-0.06,-0.08,-0.124,-0.115,-0.083
-0.117,-0.088,0.03,0.102,-0.073,-0.029,-0.025,-0.06,-0.091,-0.126,-0.113,-0.099
-0.091,-0.089,0.002,0.09,-0.046,-0.043,-0.025,-0.06,-0.09,-0.124,-0.14,-0.097
-0.046,-0.064,-0.018,0.055,-0.014,-0.04,-0.03,-0.056,-0.09,-0.126,-0.138,-0.091
-0.064,-0.076,-0.012,0.07,-0.025,-0.043,-0.03,-0.055,-0.09,-0.125,-0.133,-0.088
-0.082,-0.078,0.004,0.08,-0.043,-0.037,-0.027,-0.055,-0.091,-0.123,-0.133,-0.082
-0.099,-0.078,0.021,0.089,-0.06,-0.028,-0.025,-0.05,-0.085,-0.119,-0.124,-0.079
-0.086,-0.084,0.002,0.085,-0.044,-0.041,-0.024,-0.051,-0.089,-0.12,-0.128,-0.081
-0.051,-0.075,-0.024,0.063,-0.014,-0.049,-0.017,-0.049,-0.095,-0.12,-0.128,-0.078
-0.043,-0.061,-0.018,0.052,-0.012,-0.039,-0.028,-0.064,-0.089,-0.119,-0.133,-0.084
-0.071,-0.091,-0.02,0.082,-0.026,-0.056,-0.047,-0.086,-0.083,-0.134,-0.132,-0.101
-0.055,-0.076,-0.021,0.066,-0.017,-0.048,-0.043,-0.085,-0.079,-0.142,-0.137,-0.099
-0.06,-0.061,-0.001,0.061,-0.029,-0.031,-0.04,-0.085,-0.071,-0.139,-0.155,-0.094
-0.062,-0.069,-0.008,0.066,-0.027,-0.039,-0.038,-0.086,-0.074,-0.14,-0.132,-0.094
-0.044,-0.054,-0.01,0.049,-0.017,-0.032,-0.034,-0.083,-0.085,-0.14,-0.14,-0.088
-0.07,-0.057,0.013,0.064,-0.041,-0.022,-0.037,-0.092,-0.085,-0.139,-0.158,-0.095
-0.054,-0.049,0.006,0.051,-0.03,-0.021,-0.042,-0.101,-0.082,-0.141,-0.142,-0.104
-0.018,-0.044,-0.026,0.032,0.005,-0.035,-0.044,-0.1,-0.079,-0.138,-0.139,-0.099
-0.055,-0.079,-0.024,0.067,-0.015,-0.051,-0.041,-0.1,-0.094,-0.143,-0.128,-0.092
-0.09,-0.093,-0.003,0.091,-0.044,-0.048,-0.039,-0.099,-0.107,-0.152,-0.123,-0.092
-0.091,-0.089,0.002,0.09,-0.046,-0.043,-0.044,-0.103,-0.104,-0.142,-0.114,-0.095
-0.107,-0.09,0.016,0.098,-0.062,-0.037,-0.057,-0.112,-0.106,-0.13,-0.106,-0.095
-0.106,-0.09,0.017,0.098,-0.061,-0.036,-0.055,-0.11,-0.104,-0.13,-0.132,-0.095
-0.077,-0.091,-0.013,0.084,-0.032,-0.052,-0.046,-0.102,-0.108,-0.146,-0.146,-0.09
-0.064,-0.078,-0.014,0.071,-0.025,-0.046,-0.041,-0.096,-0.086,-0.152,-0.137,-0.086
-0.069,-0.059,0.01,0.064,-0.039,-0.024,-0.033,-0.089,-0.036,-0.142,-0.129,-0.081
-0.058,-0.023,0.036,0.041,-0.047,0.006,-0.03,-0.081,-0.013,-0.135,-0.121,-0.077
-0.064,-0.019,0.045,0.041,-0.054,0.013,-0.029,-0.082,-0.003,-0.126,-0.113,-0.071
-0.045,0.004,0.049,0.02,-0.047,0.026,-0.031,-0.085,0.012,-0.114,-0.11,-0.058
-0.036,0.047,0.083,-0.006,-0.06,0.065,-0.05,-0.101,0.018,-0.103,-0.113,-0.039
-0.049,0.043,0.091,0.003,-0.07,0.067,-0.067,-0.116,0.032,-0.099,-0.116,-0.015
-0.04,0.033,0.074,0.003,-0.057,0.053,-0.073,-0.118,0.047,-0.101,-0.119,-0.027
-0.069,0.025,0.094,0.022,-0.082,0.059,-0.083,-0.123,0.042,-0.1,-0.121,-0.04
-0.048,0.022,0.069,0.013,-0.059,0.045,-0.077,-0.116,0.033,-0.099,-0.126,-0.042
-0.028,-0.011,0.017,0.019,-0.023,0.003,-0.083,-0.126,0.021,-0.111,-0.125,-0.07
-0.061,-0.072,-0.011,0.067,-0.025,-0.041,-0.078,-0.113,0.023,-0.138,-0.131,-0.092
-0.056,-0.085,-0.029,0.071,-0.013,-0.057,-0.081,-0.143,0.008,-0.134,-0.129,-0.089
-0.066,-0.096,-0.03,0.081,-0.017,-0.063,-0.078,-0.134,0.018,-0.14,-0.137,-0.09
-0.078,-0.098,-0.02,0.088,-0.028,-0.059,-0.069,-0.135,-0.003,-0.155,-0.134,-0.091
-0.067,-0.082,-0.016,0.075,-0.025,-0.049,-0.083,-0.133,0.016,-0.11,-0.099,-0.088
-0.051,-0.112,-0.06,0.082,0.005,-0.086,-0.033,-0.091,0.029,-0.097,-0.113,-0.089
-0.018,-0.048,-0.031,0.033,0.007,-0.039,-0.04,-0.065,0.118,-0.037,-0.063,-0.047
0.003,0.008,0.005,-0.005,-0.002,0.006,0.047,0.118,0.409,0.114,0.041,0.013
0.097,0.27,0.173,-0.184,-0.038,0.221,-0.214,-0.313,0.657,0.517,0.355,0.26
0.121,0.275,0.154,-0.198,-0.016,0.214,-0.789,-0.951,0.653,0.541,0.423,0.337
-0.087,-0.361,-0.274,0.225,0.094,-0.318,-0.898,-1.29,-0.368,-0.291,-0.158,-0.027
-0.179,-0.551,-0.372,0.365,0.097,-0.462,-0.922,-1.435,-1.07,-0.664,-0.405,-0.188
-0.103,-0.38,-0.277,0.241,0.087,-0.328,-0.727,-0.901,-0.588,-0.473,-0.307,-0.161
-0.081,-0.275,-0.194,0.179,0.056,-0.234,-0.337,-0.439,-0.277,-0.309,-0.255,-0.15
-0.059,-0.161,-0.102,0.11,0.022,-0.131,-0.154,-0.214,-0.091,-0.191,-0.185,-0.112
-0.054,-0.123,-0.068,0.089,0.007,-0.095,-0.059,-0.09,-0.002,-0.173,-0.161,-0.106
-0.063,-0.083,-0.02,0.074,-0.021,-0.052,-0.028,-0.075,0.035,-0.112,-0.112,-0.088
-0.057,-0.081,-0.024,0.069,-0.016,-0.053,-0.012,-0.031,0.084,-0.066,-0.101,-0.08
-0.089,-0.104,-0.015,0.097,-0.037,-0.059,0.003,-0.043,0.074,-0.052,-0.093,-0.066
-0.074,-0.088,-0.013,0.081,-0.03,-0.05,0.04,0.005,0.105,-0.055,-0.077,-0.055
-0.058,-0.065,-0.007,0.062,-0.026,-0.036,0.049,0.011,0.104,-0.056,-0.041,-0.048
-0.047,-0.057,-0.01,0.052,-0.018,-0.033,0.048,0.016,0.109,-0.055,-0.042,-0.04
-0.018,-0.045,-0.027,0.032,0.005,-0.036,0.063,0.036,0.118,-0.05,-0.074,-0.035
-0.02,-0.04,-0.02,0.03,0.0,-0.03,0.065,0.05,0.148,-0.027,-0.052,-0.027
-0.016,-0.032,-0.016,0.024,0.001,-0.024,0.079,0.069,0.159,-0.01,-0.04,-0.022
-0.014,-0.026,-0.012,0.02,-0.001,-0.019,0.106,0.082,0.184,0.0,-0.032,-0.015
-0.013,-0.019,-0.006,0.016,-0.003,-0.012,0.124,0.124,0.202,0.017,-0.024,-0.012
-0.011,-0.011,0.0,0.011,-0.005,-0.006,0.153,0.166,0.216,0.041,-0.012,-0.006
-0.003,0.005,0.008,-0.001,-0.005,0.006,0.193,0.22,0.271,0.053,-0.001,-0.004
0.008,0.023,0.015,-0.016,-0.004,0.019,0.228,0.275,0.31,0.09,0.027,0.004
0.009,0.041,0.032,-0.025,-0.012,0.036,0.268,0.332,0.368,0.125,0.054,0.031
0.011,0.094,0.083,-0.053,-0.036,0.088,0.299,0.388,0.439,0.173,0.092,0.064
0.025,0.133,0.108,-0.079,-0.041,0.12,0.325,0.399,0.463,0.206,0.144,0.096
0.051,0.164,0.114,-0.108,-0.032,0.139,0.33,0.386,0.491,0.207,0.149,0.113
0.053,0.177,0.124,-0.115,-0.036,0.15,0.305,0.37,0.507,0.24,0.168,0.127
0.019,0.164,0.145,-0.091,-0.063,0.154,0.262,0.31,0.458,0.235,0.173,0.124
0.01,0.161,0.151,-0.086,-0.071,0.156,0.212,0.212,0.385,0.194,0.159,0.112
0.017,0.133,0.116,-0.075,-0.05,0.125,0.165,0.138,0.309,0.152,0.129,0.087
-0.016,0.081,0.097,-0.033,-0.057,0.089,0.126,0.062,0.233,0.115,0.071,0.048
-0.048,0.025,0.072,0.011,-0.06,0.048,0.092,-0.004,0.16,0.086,0.03,0.016
-0.065,-0.01,0.055,0.037,-0.06,0.022,0.063,-0.039,0.114,0.04,0.007,-0.004
-0.071,-0.019,0.051,0.045,-0.061,0.016,0.054,-0.068,0.103,0.013,0.0,-0.009
-0.07,-0.021,0.049,0.045,-0.059,0.014,0.046,-0.075,0.092,0.004,-0.003,-0.018
-0.092,-0.041,0.051,0.066,-0.071,0.005,0.04,-0.09,0.085,-0.015,-0.023,-0.027
-0.112,-0.063,0.049,0.088,-0.081,-0.007,0.041,-0.107,0.082,-0.021,-0.05,-0.028
-0.109,-0.059,0.051,0.084,-0.08,-0.004,0.039,-0.101,0.078,-0.02,-0.047,-0.025
-0.108,-0.063,0.045,0.085,-0.076,-0.008,0.035,-0.099,0.074,-0.015,-0.04,-0.022
-0.103,-0.066,0.037,0.084,-0.069,-0.014,0.036,-0.094,0.071,-0.017,-0.039,-0.019
-0.095,-0.064,0.031,0.08,-0.063,-0.016,0.032,-0.091,0.067,-0.036,-0.031,-0.016
-0.087,-0.062,0.025,0.074,-0.056,-0.018,0.03,-0.088,0.065,-0.03,-0.031,-0.015
-0.081,-0.055,0.025,0.068,-0.053,-0.015,0.03,-0.081,0.064,-0.023,-0.04,-0.015
-0.078,-0.052,0.027,0.065,-0.052,-0.012,0.027,-0.074,0.067,-0.011,-0.042,-0.015
-0.071,-0.047,0.024,0.059,-0.048,-0.011,0.023,-0.068,0.084,-0.011,-0.034,-0.015
-0.065,-0.042,0.023,0.054,-0.044,-0.01,0.028,-0.06,0.085,-0.034,-0.028,-0.015
-0.057,-0.04,0.017,0.048,-0.037,-0.011,0.044,-0.057,0.08,-0.031,-0.021,-0.015
-0.057,-0.04,0.017,0.048,-0.037,-0.011,0.043,-0.073,0.078,-0.021,-0.014,-0.015
-0.044,-0.045,-0.001,0.044,-0.021,-0.023,0.038,-0.076,0.075,-0.017,-0.011,-0.015
-0.062,-0.046,0.017,0.054,-0.039,-0.014,0.036,-0.074,0.073,-0.006,-0.025,-0.015
-0.099,-0.045,0.054,0.072,-0.076,0.004,0.031,-0.098,0.083,0.018,-0.043,-0.015
-0.072,-0.043,0.029,0.057,-0.05,-0.007,0.029,-0.106,0.09,0.017,-0.047,-0.016
-0.065,-0.038,0.027,0.052,-0.046,-0.005,0.024,-0.106,0.075,0.005,-0.044,-0.014
-0.075,-0.043,0.032,0.059,-0.053,-0.006,0.021,-0.11,0.065,0.0,-0.041,-0.019
-0.061,-0.037,0.024,0.048,-0.042,-0.006,0.018,-0.11,0.061,-0.027,-0.038,-0.03
-0.075,-0.05,0.025,0.062,-0.05,-0.013,0.013,-0.109,0.057,-0.037,-0.035,-0.03
-0.091,-0.072,0.019,0.081,-0.054,-0.026,0.01,-0.113,0.051,-0.03,-0.034,-0.03
-0.081,-0.06,0.021,0.071,-0.051,-0.02,0.006,-0.123,0.047,-0.028,-0.03,-0.03
-0.078,-0.059,0.019,0.068,-0.048,-0.02,0.005,-0.129,0.039,-0.023,-0.024,-0.03
-0.083,-0.051,0.032,0.066,-0.057,-0.009,0.004,-0.144,0.038,-0.019,-0.042,-0.028
-0.082,-0.046,0.036,0.064,-0.059,-0.005,0.001,-0.156,0.06,-0.025,-0.053,-0.023
-0.084,-0.053,0.031,0.069,-0.057,-0.011,-0.001,-0.149,0.079,-0.028,-0.046,-0.02
-0.085,-0.055,0.03,0.07,-0.057,-0.012,0.002,-0.146,0.078,-0.025,-0.046,-0.017
-0.089,-0.065,0.024,0.077,-0.057,-0.02,0.004,-0.141,0.077,-0.023,-0.041,-0.012
-0.084,-0.058,0.026,0.07,-0.055,-0.015,0.009,-0.135,0.071,-0.02,-0.04,-0.01
-0.067,-0.034,0.033,0.05,-0.05,0.0,0.009,-0.137,0.07,-0.017,-0.036,-0.005
-0.083,-0.026,0.057,0.054,-0.07,0.015,0.022,-0.14,0.092,-0.014,-0.033,-0.001
-0.094,-0.021,0.074,0.057,-0.084,0.026,0.045,-0.14,0.103,-0.009,-0.027,0.004
-0.066,0.012,0.078,0.027,-0.072,0.045,0.026,-0.143,0.095,0.015,-0.008,0.008
-0.054,0.023,0.077,0.015,-0.065,0.05,0.004,-0.146,0.096,0.03,0.017,0.014
-0.039,0.062,0.101,-0.012,-0.07,0.081,0.0,-0.145,0.115,0.046,0.036,0.027
-0.022,0.082,0.104,-0.03,-0.063,0.092,-0.004,-0.149,0.11,0.032,0.03,0.024
-0.024,0.047,0.071,-0.012,-0.048,0.059,-0.012,-0.152,0.112,0.01,0.021,0.019
-0.03,0.029,0.058,0.0,-0.044,0.043,-0.014,-0.147,0.12,0.035,0.009,0.012
-0.05,-0.046,0.004,0.048,-0.026,-0.021,-0.022,-0.161,0.098,0.021,0.002,0.008
-0.068,-0.096,-0.027,0.082,-0.02,-0.061,-0.011,-0.147,0.103,-0.009,-0.006,0.001
-0.067,-0.079,-0.011,0.074,-0.028,-0.045,-0.018,-0.167,0.093,-0.025,-0.01,-0.002
-0.075,-0.088,-0.013,0.081,-0.03,-0.05,-0.012,-0.149,0.109,-0.045,-0.015,-0.006
-0.078,-0.086,-0.008,0.083,-0.035,-0.047,-0.007,-0.154,0.094,-0.037,-0.025,-0.013
-0.084,-0.078,0.006,0.082,-0.045,-0.036,-0.018,-0.143,0.115,-0.025,-0.019,-0.011
-0.105,-0.094,0.011,0.099,-0.058,-0.041,0.009,-0.129,0.098,-0.024,-0.016,-0.012
-0.055,-0.037,0.018,0.046,-0.036,-0.01,-0.002,-0.084,0.195,0.06,0.039,0.024
-0.014,0.031,0.045,-0.009,-0.029,0.037,0.102,0.086,0.496,0.232,0.153,0.086
0.11,0.326,0.216,-0.218,-0.053,0.27,-0.274,-0.411,0.773,0.659,0.508,0.355
0.166,0.332,0.166,-0.249,0.0,0.249,-0.901,-1.007,0.774,0.66,0.545,0.437
-0.077,-0.321,-0.244,0.2,0.084,-0.283,-0.964,-1.359,-0.304,-0.195,-0.058,0.062
-0.17,-0.533,-0.363,0.352,0.097,-0.448,-0.942,-1.474,-0.962,-0.566,-0.296,-0.093
-0.101,-0.348,-0.246,0.225,0.073,-0.296,-0.66,-0.866,-0.461,-0.349,-0.193,-0.065
-0.088,-0.245,-0.157,0.167,0.034,-0.2,-0.245,-0.407,-0.154,-0.174,-0.122,-0.074
-0.072,-0.164,-0.092,0.118,0.01,-0.128,-0.086,-0.201,0.013,-0.074,-0.07,-0.039
-0.084,-0.13,-0.047,0.107,-0.018,-0.088,0.009,-0.092,0.108,-0.045,-0.055,-0.007
-0.076,-0.085,-0.009,0.081,-0.034,-0.047,0.023,-0.075,0.119,-0.02,-0.01,0.032
-0.048,-0.067,-0.019,0.058,-0.014,-0.043,0.076,-0.024,0.168,0.007,0.002,0.008
-0.04,-0.053,-0.013,0.047,-0.013,-0.033,0.057,-0.031,0.142,0.032,0.022,0.015
