-0.106,-0.039,0.067,0.072,-0.086,0.014,0.063,0.004,-0.001,0.065,-0.024,0.016
-0.113,-0.029,0.084,0.07,-0.098,0.027,0.041,-0.004,0.0,0.065,-0.014,0.03
-0.128,-0.03,0.098,0.079,-0.113,0.034,0.032,-0.011,0.0,0.065,-0.007,0.038
-0.114,-0.027,0.088,0.071,-0.101,0.03,0.038,-0.021,0.0,0.065,-0.012,0.033
-0.082,-0.043,0.039,0.062,-0.06,-0.002,0.027,-0.029,0.002,0.068,-0.012,0.031
-0.1,-0.115,-0.016,0.107,-0.041,-0.065,0.028,-0.025,-0.026,0.048,-0.028,0.024
-0.092,-0.16,-0.069,0.126,-0.012,-0.114,0.018,-0.027,-0.05,0.017,-0.068,-0.004
-0.09,-0.162,-0.072,0.126,-0.009,-0.117,0.02,-0.027,-0.053,0.014,-0.08,-0.025
-0.102,-0.165,-0.063,0.134,-0.019,-0.114,0.012,-0.059,-0.046,0.035,-0.069,-0.029
-0.109,-0.179,-0.069,0.145,-0.02,-0.124,0.028,-0.049,-0.055,0.007,-0.083,-0.04
-0.12,-0.174,-0.053,0.147,-0.034,-0.113,0.023,-0.06,-0.045,0.029,-0.065,-0.03
-0.124,-0.193,-0.069,0.158,-0.027,-0.131,0.033,-0.045,-0.054,0.002,-0.085,-0.041
-0.111,-0.174,-0.063,0.143,-0.024,-0.118,0.04,-0.05,-0.039,0.014,-0.058,-0.03
-0.114,-0.204,-0.09,0.16,-0.012,-0.147,0.028,-0.032,-0.026,-0.012,-0.069,-0.039
-0.154,-0.179,-0.026,0.166,-0.063,-0.102,0.185,0.207,0.011,-0.07,-0.133,-0.091
-0.061,0.007,0.067,0.027,-0.064,0.037,0.202,0.429,0.375,0.245,0.062,0.006
0.314,0.634,0.32,-0.474,-0.004,0.476,0.03,0.126,0.973,1.163,0.878,0.573
0.497,1.12,0.623,-0.809,-0.063,0.871,-0.546,-1.5,1.32,2.582,1.854,1.208
0.08,0.239,0.159,-0.16,-0.039,0.199,-1.079,-2.503,0.087,1.314,0.964,0.703
-0.249,-0.509,-0.261,0.379,0.006,-0.385,-0.943,-1.702,-1.314,-1.072,-0.442,-0.073
-0.23,-0.402,-0.173,0.316,-0.028,-0.288,-0.68,-0.898,-0.85,-0.779,-0.392,-0.108
-0.17,-0.281,-0.111,0.226,-0.03,-0.196,-0.295,-0.239,-0.243,-0.29,-0.194,-0.068
-0.09,-0.154,-0.064,0.122,-0.013,-0.108,-0.007,0.15,-0.052,-0.164,-0.118,-0.037
-0.072,-0.141,-0.069,0.107,-0.001,-0.105,0.047,0.182,0.038,-0.028,-0.084,-0.018
-0.069,-0.124,-0.056,0.097,-0.006,-0.09,0.085,0.216,0.025,-0.043,-0.084,-0.022
-0.069,-0.119,-0.051,0.094,-0.009,-0.085,0.078,0.213,0.084,0.041,-0.044,-0.01
-0.071,-0.12,-0.048,0.096,-0.011,-0.084,0.093,0.237,0.075,0.016,-0.057,-0.015
-0.067,-0.105,-0.038,0.086,-0.014,-0.072,0.109,0.243,0.105,0.075,-0.031,-0.003
-0.072,-0.11,-0.037,0.091,-0.017,-0.073,0.12,0.262,0.113,0.073,-0.03,-0.006
-0.063,-0.091,-0.028,0.077,-0.017,-0.059,0.131,0.284,0.14,0.104,-0.009,0.006
-0.055,-0.082,-0.027,0.069,-0.014,-0.054,0.139,0.314,0.177,0.135,-0.001,0.013
-0.043,-0.065,-0.022,0.054,-0.01,-0.043,0.157,0.357,0.205,0.154,0.011,0.021
-0.03,-0.049,-0.019,0.039,-0.005,-0.034,0.185,0.417,0.259,0.198,0.038,0.034
-0.01,-0.026,-0.016,0.018,0.003,-0.021,0.208,0.495,0.315,0.242,0.065,0.042
0.018,0.007,-0.011,-0.012,0.015,-0.002,0.231,0.583,0.384,0.304,0.101,0.059
0.042,0.043,0.001,-0.043,0.021,0.022,0.26,0.689,0.465,0.379,0.14,0.09
0.082,0.095,0.014,-0.089,0.034,0.054,0.289,0.777,0.553,0.473,0.21,0.125
0.124,0.145,0.02,-0.135,0.052,0.082,0.295,0.826,0.619,0.56,0.275,0.163
0.144,0.183,0.038,-0.164,0.053,0.11,0.285,0.822,0.621,0.618,0.325,0.207
0.146,0.208,0.062,-0.177,0.042,0.134,0.277,0.764,0.604,0.627,0.362,0.224
0.135,0.203,0.068,-0.169,0.034,0.135,0.268,0.649,0.564,0.608,0.357,0.212
0.112,0.182,0.07,-0.147,0.02,0.126,0.257,0.48,0.445,0.515,0.316,0.197
0.047,0.117,0.07,-0.082,-0.012,0.093,0.238,0.327,0.298,0.369,0.225,0.152
-0.022,0.036,0.058,-0.008,-0.04,0.047,0.212,0.212,0.186,0.248,0.132,0.092
-0.048,-0.01,0.039,0.029,-0.043,0.014,0.183,0.12,0.104,0.16,0.074,0.044
-0.063,-0.046,0.017,0.054,-0.039,-0.014,0.163,0.068,0.039,0.101,0.03,0.013
-0.074,-0.07,0.004,0.071,-0.038,-0.033,0.147,0.043,0.003,0.06,-0.005,0.003
-0.083,-0.084,-0.001,0.084,-0.041,-0.042,0.129,0.033,-0.006,0.05,-0.022,-0.009
-0.082,-0.089,-0.006,0.086,-0.038,-0.047,0.115,0.029,-0.004,0.047,-0.027,-0.021
-0.08,-0.092,-0.012,0.087,-0.034,-0.052,0.101,0.024,-0.007,0.04,-0.038,-0.025
-0.086,-0.104,-0.018,0.095,-0.033,-0.061,0.091,0.02,-0.01,0.035,-0.04,-0.025
-0.083,-0.101,-0.018,0.092,-0.032,-0.059,0.09,0.015,-0.01,0.031,-0.04,-0.024
-0.084,-0.094,-0.011,0.089,-0.036,-0.052,0.09,0.021,-0.006,0.034,-0.04,-0.026
-0.086,-0.09,-0.004,0.088,-0.04,-0.046,0.09,0.035,0.005,0.036,-0.04,-0.023
-0.086,-0.083,0.002,0.084,-0.044,-0.04,0.09,0.04,0.015,0.04,-0.04,-0.03
-0.088,-0.079,0.01,0.083,-0.049,-0.034,0.089,0.042,0.025,0.04,-0.04,-0.041
-0.089,-0.075,0.014,0.082,-0.051,-0.03,0.084,0.045,0.035,0.04,-0.04,-0.04
-0.083,-0.073,0.011,0.078,-0.047,-0.031,0.078,0.041,0.036,0.046,-0.04,-0.038
-0.079,-0.07,0.009,0.075,-0.045,-0.03,0.075,0.034,0.029,0.045,-0.04,-0.035
-0.077,-0.066,0.011,0.072,-0.043,-0.028,0.07,0.03,0.025,0.045,-0.04,-0.034
-0.074,-0.065,0.009,0.069,-0.041,-0.027,0.065,0.024,0.019,0.045,-0.04,-0.038
-0.08,-0.068,0.012,0.074,-0.046,-0.028,0.066,0.019,0.013,0.045,-0.045,-0.04
-0.072,-0.071,0.001,0.072,-0.037,-0.035,0.061,0.014,0.009,0.045,-0.049,-0.04
-0.067,-0.074,-0.007,0.071,-0.03,-0.04,0.056,0.006,-0.001,0.039,-0.053,-0.044
-0.076,-0.077,-0.001,0.077,-0.037,-0.039,0.051,-0.001,-0.009,0.032,-0.057,-0.045
-0.08,-0.08,0.001,0.08,-0.041,-0.039,0.045,-0.008,-0.024,0.026,-0.06,-0.045
-0.087,-0.081,0.006,0.083,-0.047,-0.037,0.04,-0.016,-0.039,0.019,-0.065,-0.05
-0.082,-0.084,-0.002,0.083,-0.039,-0.043,0.035,-0.023,-0.041,0.013,-0.065,-0.05
-0.074,-0.085,-0.011,0.08,-0.031,-0.048,0.031,-0.03,-0.044,0.007,-0.066,-0.05
-0.092,-0.085,0.008,0.088,-0.05,-0.038,0.029,-0.046,-0.047,0.005,-0.07,-0.05
-0.095,-0.085,0.01,0.09,-0.052,-0.037,0.024,-0.06,-0.05,0.002,-0.07,-0.049
-0.082,-0.085,-0.002,0.083,-0.04,-0.043,0.021,-0.06,-0.051,-0.001,-0.07,-0.053
-0.095,-0.085,0.01,0.09,-0.052,-0.037,0.017,-0.06,-0.054,-0.005,-0.07,-0.055
-0.105,-0.085,0.021,0.095,-0.063,-0.032,0.015,-0.06,-0.056,-0.005,-0.07,-0.055
-0.104,-0.086,0.018,0.095,-0.061,-0.034,0.015,-0.06,-0.051,0.0,-0.07,-0.059
-0.094,-0.09,0.004,0.092,-0.049,-0.043,0.012,-0.058,-0.05,0.0,-0.07,-0.06
-0.091,-0.09,0.001,0.09,-0.046,-0.044,0.009,-0.053,-0.05,0.0,-0.07,-0.06
-0.085,-0.09,-0.005,0.088,-0.04,-0.048,0.011,-0.05,-0.05,0.0,-0.074,-0.065
-0.077,-0.089,-0.012,0.083,-0.033,-0.05,0.015,-0.047,-0.05,0.0,-0.075,-0.065
-0.106,-0.091,0.015,0.098,-0.06,-0.038,0.014,-0.042,-0.049,-0.002,-0.075,-0.065
-0.104,-0.086,0.018,0.094,-0.061,-0.034,0.016,-0.041,-0.043,-0.011,-0.075,-0.065
-0.088,-0.079,0.009,0.083,-0.048,-0.035,0.013,-0.041,-0.036,-0.019,-0.076,-0.065
-0.078,-0.074,0.005,0.076,-0.041,-0.034,0.024,-0.03,-0.03,-0.003,-0.072,-0.063
-0.085,-0.04,0.045,0.062,-0.065,0.003,0.05,-0.015,-0.023,0.022,-0.06,-0.053
-0.097,-0.018,0.08,0.058,-0.088,0.03,0.068,-0.017,-0.015,0.029,-0.048,-0.042
-0.081,-0.01,0.071,0.046,-0.076,0.03,0.062,-0.01,-0.015,0.035,-0.044,-0.033
-0.085,0.018,0.104,0.033,-0.095,0.061,0.021,-0.037,-0.014,0.046,-0.045,-0.033
-0.067,0.035,0.102,0.015,-0.084,0.068,0.006,-0.064,-0.011,0.045,-0.044,-0.037
-0.071,0.024,0.096,0.023,-0.084,0.06,0.005,-0.058,-0.01,0.034,-0.046,-0.039
-0.057,-0.002,0.055,0.03,-0.056,0.026,-0.005,-0.067,-0.012,0.032,-0.044,-0.043
-0.043,-0.051,-0.008,0.047,-0.017,-0.029,-0.005,-0.062,-0.032,0.018,-0.047,-0.044
-0.1,-0.09,0.01,0.095,-0.055,-0.04,-0.018,-0.073,-0.059,0.013,-0.065,-0.055
-0.107,-0.098,0.008,0.102,-0.057,-0.045,-0.008,-0.069,-0.082,-0.006,-0.093,-0.077
-0.111,-0.101,0.01,0.106,-0.06,-0.045,-0.013,-0.09,-0.079,-0.015,-0.086,-0.077
-0.114,-0.122,-0.008,0.118,-0.053,-0.065,-0.008,-0.097,-0.078,-0.03,-0.086,-0.096
-0.11,-0.116,-0.006,0.113,-0.051,-0.061,-0.004,-0.099,-0.074,-0.037,-0.091,-0.095
-0.092,-0.133,-0.041,0.113,-0.025,-0.087,-0.009,-0.122,-0.064,-0.034,-0.103,-0.092
-0.076,-0.128,-0.052,0.102,-0.012,-0.09,0.002,-0.094,-0.072,-0.054,-0.114,-0.101
-0.112,-0.134,-0.022,0.123,-0.044,-0.078,-0.042,-0.124,-0.047,0.0,-0.087,-0.082
-0.114,-0.15,-0.036,0.133,-0.039,-0.093,0.095,0.051,-0.057,-0.081,-0.153,-0.133
-0.096,-0.037,0.059,0.067,-0.077,0.011,0.178,0.312,0.176,0.073,-0.059,-0.104
0.195,0.359,0.164,-0.277,0.015,0.261,0.103,0.383,0.693,0.665,0.462,0.258
0.631,1.102,0.471,-0.867,0.079,0.787,-0.34,-0.795,1.21,1.925,1.506,1.009
0.412,0.763,0.351,-0.588,0.03,0.557,-1.077,-2.415,0.656,1.865,1.396,0.995
-0.123,-0.297,-0.174,0.21,0.026,-0.235,-1.114,-2.077,-0.902,-0.402,-0.103,0.075
-0.238,-0.413,-0.175,0.326,-0.032,-0.293,-0.816,-1.129,-1.092,-0.979,-0.484,-0.196
-0.154,-0.238,-0.084,0.197,-0.035,-0.161,-0.456,-0.461,-0.401,-0.355,-0.225,-0.106
-0.096,-0.135,-0.04,0.116,-0.027,-0.087,-0.075,0.091,-0.145,-0.226,-0.155,-0.111
-0.077,-0.099,-0.022,0.088,-0.027,-0.06,0.016,0.169,-0.032,-0.071,-0.084,-0.079
-0.059,-0.117,-0.058,0.089,0.0,-0.087,0.063,0.217,-0.038,-0.087,-0.11,-0.095
-0.083,-0.09,-0.007,0.087,-0.038,-0.048,0.072,0.221,0.005,-0.019,-0.071,-0.077
-0.107,-0.102,0.005,0.105,-0.056,-0.048,0.089,0.247,0.024,-0.013,-0.082,-0.081
-0.077,-0.078,-0.001,0.077,-0.037,-0.04,0.11,0.272,0.041,0.002,-0.064,-0.072
-0.06,-0.054,0.007,0.057,-0.033,-0.023,0.103,0.258,0.062,0.015,-0.054,-0.068
-0.033,-0.031,0.002,0.032,-0.017,-0.014,0.114,0.271,0.077,0.034,-0.045,-0.063
-0.064,-0.029,0.035,0.046,-0.049,0.003,0.115,0.268,0.111,0.069,-0.026,-0.055
-0.071,-0.021,0.05,0.046,-0.06,0.014,0.13,0.307,0.139,0.081,-0.03,-0.051
-0.051,-0.003,0.049,0.027,-0.05,0.023,0.157,0.366,0.19,0.126,-0.007,-0.04
-0.05,0.023,0.073,0.013,-0.062,0.048,0.179,0.434,0.238,0.155,0.03,-0.029
-0.001,0.048,0.049,-0.024,-0.025,0.049,0.206,0.522,0.304,0.214,0.061,-0.007
0.031,0.08,0.049,-0.056,-0.01,0.064,0.238,0.621,0.375,0.28,0.098,0.027
0.038,0.138,0.1,-0.088,-0.031,0.118,0.267,0.722,0.454,0.361,0.155,0.061
0.078,0.185,0.108,-0.132,-0.015,0.146,0.282,0.783,0.52,0.436,0.216,0.1
0.128,0.242,0.114,-0.186,0.007,0.178,0.287,0.797,0.562,0.511,0.282,0.152
0.148,0.283,0.134,-0.215,0.007,0.208,0.279,0.777,0.568,0.543,0.322,0.177
0.159,0.285,0.126,-0.222,0.017,0.205,0.267,0.683,0.524,0.538,0.323,0.186
0.139,0.265,0.126,-0.203,0.006,0.195,0.255,0.532,0.44,0.488,0.301,0.17
0.084,0.205,0.121,-0.145,-0.019,0.162,0.228,0.383,0.314,0.364,0.233,0.118
0.015,0.129,0.114,-0.072,-0.05,0.121,0.202,0.258,0.184,0.235,0.144,0.069
-0.043,0.065,0.108,-0.011,-0.075,0.086,0.175,0.169,0.095,0.139,0.07,0.025
-0.063,0.02,0.083,0.021,-0.073,0.051,0.145,0.107,0.038,0.079,0.014,-0.014
-0.075,-0.008,0.067,0.042,-0.071,0.029,0.125,0.07,-0.002,0.034,-0.024,-0.046
-0.092,-0.03,0.062,0.06,-0.076,0.016,0.114,0.064,-0.022,0.011,-0.047,-0.055
-0.084,-0.036,0.048,0.06,-0.065,0.005,0.101,0.065,-0.042,-0.001,-0.053,-0.062
-0.072,-0.035,0.037,0.054,-0.054,0.001,0.084,0.065,-0.055,-0.007,-0.051,-0.072
-0.092,-0.035,0.057,0.063,-0.074,0.01,0.074,0.065,-0.055,-0.011,-0.048,-0.069
-0.089,-0.035,0.054,0.061,-0.071,0.01,0.068,0.064,-0.053,-0.018,-0.045,-0.07
-0.085,-0.035,0.05,0.06,-0.067,0.007,0.061,0.068,-0.046,-0.023,-0.043,-0.07
-0.095,-0.035,0.06,0.065,-0.077,0.013,0.054,0.084,-0.041,-0.023,-0.039,-0.07
-0.087,-0.035,0.052,0.06,-0.069,0.008,0.047,0.101,-0.036,-0.017,-0.045,-0.067
-0.081,-0.036,0.045,0.058,-0.062,0.004,0.047,0.117,-0.03,-0.013,-0.051,-0.064
-0.091,-0.035,0.056,0.062,-0.073,0.011,0.05,0.136,-0.026,-0.009,-0.05,-0.066
-0.101,-0.035,0.066,0.068,-0.083,0.015,0.05,0.139,-0.03,-0.003,-0.05,-0.064
-0.09,-0.032,0.058,0.061,-0.074,0.012,0.05,0.13,-0.03,0.0,-0.05,-0.066
-0.085,-0.03,0.055,0.057,-0.07,0.012,0.05,0.125,-0.031,-0.005,-0.05,-0.064
-0.08,-0.03,0.05,0.055,-0.065,0.01,0.049,0.116,-0.036,-0.011,-0.054,-0.068
-0.079,-0.033,0.046,0.056,-0.062,0.006,0.046,0.099,-0.034,-0.014,-0.055,-0.076
-0.08,-0.04,0.04,0.06,-0.06,0.0,0.043,0.083,-0.039,-0.019,-0.055,-0.073
-0.073,-0.038,0.035,0.056,-0.054,-0.001,0.041,0.063,-0.046,-0.023,-0.06,-0.07
-0.07,-0.044,0.026,0.057,-0.048,-0.008,0.037,0.031,-0.057,-0.028,-0.06,-0.068
-0.076,-0.054,0.022,0.065,-0.049,-0.016,0.035,0.013,-0.075,-0.037,-0.061,-0.063
-0.067,-0.055,0.013,0.061,-0.039,-0.021,0.033,0.009,-0.078,-0.046,-0.065,-0.072
-0.068,-0.055,0.013,0.062,-0.04,-0.02,0.026,0.003,-0.087,-0.052,-0.065,-0.081
-0.112,-0.055,0.057,0.083,-0.084,0.001,0.019,-0.002,-0.098,-0.058,-0.067,-0.08
-0.102,-0.055,0.047,0.078,-0.074,-0.004,0.013,-0.008,-0.1,-0.06,-0.07,-0.08
-0.094,-0.056,0.038,0.075,-0.066,-0.008,0.005,-0.008,-0.1,-0.06,-0.07,-0.08
-0.114,-0.059,0.055,0.087,-0.084,-0.002,0.0,-0.004,-0.095,-0.06,-0.066,-0.079
-0.103,-0.06,0.043,0.081,-0.073,-0.008,-0.005,-0.005,-0.095,-0.06,-0.065,-0.083
-0.098,-0.06,0.038,0.079,-0.068,-0.011,-0.005,-0.001,-0.095,-0.06,-0.064,-0.085
-0.089,-0.058,0.031,0.073,-0.06,-0.013,-0.005,0.0,-0.095,-0.06,-0.061,-0.085
-0.082,-0.055,0.027,0.068,-0.054,-0.013,-0.006,0.0,-0.095,-0.06,-0.058,-0.088
-0.076,-0.052,0.024,0.063,-0.05,-0.014,-0.003,0.005,-0.097,-0.057,-0.065,-0.091
-0.071,-0.049,0.022,0.06,-0.046,-0.013,-0.014,0.005,-0.101,-0.055,-0.076,-0.089
-0.059,-0.046,0.013,0.052,-0.036,-0.016,-0.02,0.005,-0.1,-0.055,-0.075,-0.086
-0.069,-0.044,0.025,0.056,-0.046,-0.009,-0.013,0.005,-0.1,-0.055,-0.074,-0.081
-0.101,-0.056,0.045,0.078,-0.073,-0.005,-0.01,0.005,-0.1,-0.055,-0.07,-0.079
-0.103,-0.056,0.048,0.079,-0.075,-0.004,-0.005,0.003,-0.1,-0.055,-0.071,-0.074
-0.079,-0.039,0.04,0.059,-0.059,0.0,-0.001,-0.009,-0.101,-0.05,-0.068,-0.072
-0.082,-0.027,0.055,0.054,-0.068,0.014,0.02,0.013,-0.082,-0.043,-0.062,-0.067
-0.092,-0.011,0.081,0.051,-0.086,0.035,0.043,0.038,-0.058,-0.036,-0.055,-0.058
-0.092,0.002,0.094,0.045,-0.093,0.048,0.043,0.028,-0.054,-0.028,-0.051,-0.05
-0.087,0.028,0.114,0.029,-0.101,0.071,0.02,0.021,-0.055,-0.028,-0.038,-0.041
-0.047,0.071,0.118,-0.012,-0.083,0.094,-0.002,0.01,-0.054,-0.03,-0.018,-0.044
-0.066,0.073,0.139,-0.004,-0.102,0.106,-0.008,0.005,-0.056,-0.036,-0.016,-0.047
-0.065,0.043,0.108,0.011,-0.087,0.075,-0.025,-0.004,-0.054,-0.035,-0.013,-0.051
-0.048,-0.006,0.042,0.027,-0.045,0.017,-0.026,-0.008,-0.069,-0.043,-0.041,-0.054
-0.082,-0.056,0.027,0.069,-0.054,-0.014,-0.026,-0.026,-0.099,-0.063,-0.071,-0.058
-0.083,-0.074,0.009,0.078,-0.046,-0.032,-0.025,-0.042,-0.113,-0.082,-0.084,-0.083
-0.076,-0.083,-0.007,0.08,-0.035,-0.045,-0.023,-0.047,-0.114,-0.09,-0.091,-0.088
-0.076,-0.106,-0.03,0.092,-0.023,-0.068,-0.029,-0.07,-0.119,-0.097,-0.102,-0.089
-0.09,-0.096,-0.006,0.093,-0.042,-0.051,-0.019,-0.082,-0.133,-0.116,-0.108,-0.086
-0.113,-0.1,0.013,0.106,-0.063,-0.043,-0.041,-0.106,-0.126,-0.1,-0.099,-0.088
-0.123,-0.105,0.018,0.114,-0.07,-0.043,-0.027,-0.079,-0.132,-0.131,-0.116,-0.102
-0.087,-0.087,0.0,0.087,-0.043,-0.044,-0.062,-0.13,-0.117,-0.101,-0.088,-0.085
-0.099,-0.134,-0.035,0.116,-0.032,-0.084,0.032,-0.01,-0.104,-0.135,-0.141,-0.129
-0.139,-0.068,0.071,0.103,-0.105,0.002,0.175,0.231,0.055,-0.034,-0.105,-0.138
0.082,0.233,0.152,-0.158,-0.035,0.192,0.111,0.421,0.522,0.401,0.271,0.108
0.558,0.964,0.406,-0.761,0.076,0.685,-0.174,-0.221,1.101,1.558,1.262,0.824
0.52,0.928,0.408,-0.724,0.055,0.667,-0.816,-2.009,0.83,2.071,1.554,1.072
-0.058,-0.126,-0.069,0.092,0.006,-0.097,-1.039,-2.325,-0.687,-0.007,0.152,0.228
-0.252,-0.431,-0.18,0.342,-0.036,-0.306,-0.848,-1.381,-1.267,-1.166,-0.539,-0.229
-0.186,-0.272,-0.086,0.229,-0.05,-0.178,-0.595,-0.728,-0.613,-0.552,-0.288,-0.15
-0.115,-0.16,-0.045,0.138,-0.035,-0.102,-0.193,-0.121,-0.251,-0.343,-0.205,-0.144
-0.066,-0.089,-0.023,0.077,-0.021,-0.056,-0.02,0.08,-0.099,-0.159,-0.117,-0.09
-0.083,-0.103,-0.02,0.093,-0.031,-0.061,0.019,0.112,-0.065,-0.154,-0.13,-0.092
-0.053,-0.065,-0.012,0.059,-0.02,-0.038,0.033,0.133,-0.035,-0.117,-0.101,-0.079
-0.055,-0.069,-0.014,0.063,-0.02,-0.041,0.043,0.13,-0.004,-0.073,-0.095,-0.074
-0.074,-0.052,0.022,0.063,-0.048,-0.015,0.065,0.149,-0.007,-0.065,-0.083,-0.069
-0.068,-0.05,0.018,0.059,-0.042,-0.016,0.069,0.153,0.018,-0.02,-0.062,-0.059
-0.041,-0.043,-0.002,0.042,-0.019,-0.022,0.078,0.182,0.042,-0.023,-0.06,-0.058
-0.037,-0.035,0.002,0.036,-0.019,-0.016,0.09,0.201,0.076,0.015,-0.045,-0.048
-0.023,-0.019,0.004,0.02,-0.013,-0.008,0.109,0.231,0.094,0.022,-0.036,-0.046
-0.018,0.01,0.028,0.004,-0.023,0.018,0.118,0.291,0.143,0.063,-0.006,-0.037
-0.04,0.02,0.06,0.01,-0.05,0.04,0.133,0.375,0.181,0.094,0.012,-0.024
-0.017,0.044,0.06,-0.013,-0.039,0.052,0.152,0.453,0.234,0.145,0.047,0.003
0.017,0.081,0.063,-0.049,-0.023,0.072,0.177,0.552,0.319,0.216,0.078,0.026
0.058,0.123,0.065,-0.091,-0.004,0.094,0.206,0.654,0.394,0.281,0.124,0.054
0.1,0.173,0.073,-0.137,0.013,0.123,0.221,0.733,0.467,0.374,0.198,0.101
0.135,0.223,0.088,-0.18,0.023,0.156,0.22,0.754,0.506,0.443,0.258,0.142
0.178,0.26,0.082,-0.219,0.048,0.17,0.22,0.742,0.515,0.484,0.302,0.172
0.185,0.273,0.088,-0.229,0.048,0.18,0.22,0.697,0.503,0.489,0.319,0.196
0.157,0.254,0.098,-0.206,0.029,0.176,0.221,0.569,0.435,0.447,0.302,0.19
0.127,0.216,0.089,-0.171,0.019,0.152,0.215,0.421,0.32,0.342,0.237,0.139
0.074,0.154,0.08,-0.114,-0.004,0.117,0.192,0.291,0.192,0.204,0.141,0.08
0.007,0.08,0.072,-0.044,-0.033,0.076,0.168,0.179,0.091,0.104,0.063,0.035
-0.036,0.027,0.063,0.004,-0.05,0.045,0.145,0.105,0.027,0.029,0.009,-0.003
-0.055,-0.002,0.052,0.028,-0.053,0.025,0.122,0.058,-0.027,-0.028,-0.036,-0.033
-0.072,-0.027,0.045,0.049,-0.058,0.008,0.105,0.038,-0.058,-0.054,-0.066,-0.058
-0.088,-0.042,0.046,0.065,-0.067,0.001,0.093,0.033,-0.07,-0.066,-0.071,-0.07
-0.093,-0.049,0.043,0.071,-0.068,-0.003,0.083,0.025,-0.072,-0.071,-0.069,-0.07
-0.099,-0.059,0.04,0.079,-0.069,-0.009,0.076,0.019,-0.068,-0.073,-0.078,-0.071
-0.107,-0.066,0.04,0.087,-0.073,-0.013,0.071,0.012,-0.066,-0.075,-0.085,-0.074
-0.107,-0.069,0.038,0.087,-0.072,-0.015,0.066,0.012,-0.062,-0.07,-0.085,-0.076
-0.099,-0.064,0.034,0.081,-0.066,-0.015,0.06,0.023,-0.06,-0.067,-0.085,-0.073
-0.092,-0.06,0.032,0.076,-0.062,-0.014,0.055,0.032,-0.058,-0.063,-0.085,-0.07
-0.087,-0.058,0.029,0.072,-0.058,-0.014,0.05,0.042,-0.055,-0.06,-0.085,-0.07
-0.079,-0.053,0.026,0.066,-0.052,-0.013,0.05,0.053,-0.052,-0.055,-0.085,-0.068
-0.074,-0.05,0.024,0.062,-0.049,-0.012,0.049,0.06,-0.05,-0.057,-0.081,-0.065
-0.074,-0.054,0.021,0.064,-0.047,-0.016,0.045,0.068,-0.045,-0.061,-0.08,-0.065
-0.075,-0.056,0.02,0.066,-0.047,-0.017,0.045,0.071,-0.046,-0.06,-0.08,-0.069
-0.074,-0.055,0.019,0.064,-0.046,-0.018,0.043,0.066,-0.049,-0.061,-0.08,-0.071
-0.07,-0.055,0.014,0.062,-0.042,-0.021,0.039,0.064,-0.054,-0.059,-0.08,-0.07
-0.07,-0.055,0.015,0.062,-0.042,-0.02,0.037,0.059,-0.062,-0.061,-0.082,-0.07
-0.069,-0.057,0.013,0.063,-0.041,-0.022,0.034,0.056,-0.067,-0.063,-0.086,-0.07
-0.068,-0.06,0.008,0.064,-0.038,-0.026,0.031,0.049,-0.086,-0.072,-0.088,-0.071
-0.069,-0.064,0.005,0.066,-0.037,-0.029,0.029,0.024,-0.091,-0.087,-0.091,-0.075
-0.067,-0.065,0.001,0.066,-0.033,-0.032,0.025,0.002,-0.09,-0.092,-0.094,-0.077
-0.068,-0.07,-0.002,0.069,-0.033,-0.036,0.018,-0.017,-0.101,-0.098,-0.096,-0.08
-0.062,-0.069,-0.007,0.066,-0.027,-0.037,0.014,-0.032,-0.108,-0.1,-0.099,-0.085
-0.074,-0.065,0.009,0.069,-0.041,-0.028,0.007,-0.029,-0.111,-0.1,-0.1,-0.087
-0.079,-0.065,0.014,0.072,-0.046,-0.025,0.003,-0.024,-0.109,-0.1,-0.103,-0.084
-0.058,-0.065,-0.006,0.062,-0.026,-0.035,-0.003,-0.019,-0.11,-0.101,-0.105,-0.081
-0.086,-0.081,0.006,0.083,-0.046,-0.037,-0.005,-0.013,-0.108,-0.11,-0.107,-0.078
-0.102,-0.085,0.018,0.093,-0.06,-0.033,-0.005,-0.008,-0.105,-0.11,-0.112,-0.074
-0.09,-0.076,0.014,0.083,-0.052,-0.031,-0.009,-0.002,-0.105,-0.106,-0.113,-0.077
-0.087,-0.075,0.013,0.081,-0.05,-0.031,-0.01,0.002,-0.105,-0.104,-0.118,-0.079
-0.07,-0.068,0.002,0.068,-0.036,-0.033,-0.01,0.008,-0.104,-0.1,-0.12,-0.075
-0.087,-0.065,0.022,0.076,-0.054,-0.022,0.0,0.011,-0.107,-0.101,-0.113,-0.073
-0.099,-0.056,0.042,0.077,-0.07,-0.007,0.014,0.018,-0.098,-0.094,-0.103,-0.07
-0.096,-0.04,0.056,0.067,-0.075,0.008,0.033,0.021,-0.078,-0.086,-0.093,-0.066
-0.096,-0.026,0.07,0.061,-0.083,0.022,0.052,0.009,-0.074,-0.078,-0.086,-0.066
-0.08,0.018,0.098,0.031,-0.089,0.058,0.045,-0.015,-0.075,-0.073,-0.065,-0.054
-0.085,0.052,0.137,0.016,-0.111,0.094,0.03,-0.05,-0.074,-0.065,-0.043,-0.027
-0.086,0.049,0.136,0.018,-0.111,0.092,0.019,-0.067,-0.075,-0.062,-0.046,-0.019
-0.078,0.047,0.125,0.015,-0.102,0.086,0.007,-0.085,-0.076,-0.055,-0.045,-0.019
-0.059,0.007,0.066,0.025,-0.062,0.036,0.004,-0.088,-0.072,-0.048,-0.043,-0.013
-0.054,-0.06,-0.006,0.057,-0.023,-0.033,0.003,-0.097,-0.091,-0.079,-0.07,-0.03
-0.064,-0.098,-0.034,0.081,-0.015,-0.066,-0.004,-0.124,-0.105,-0.094,-0.108,-0.068
-0.077,-0.105,-0.028,0.091,-0.024,-0.066,0.0,-0.12,-0.109,-0.104,-0.119,-0.085
-0.09,-0.117,-0.027,0.104,-0.031,-0.072,-0.012,-0.127,-0.118,-0.111,-0.113,-0.086
-0.09,-0.116,-0.025,0.104,-0.032,-0.071,-0.014,-0.115,-0.13,-0.139,-0.123,-0.094
-0.089,-0.11,-0.021,0.1,-0.034,-0.065,-0.025,-0.124,-0.11,-0.109,-0.105,-0.085
-0.07,-0.115,-0.044,0.093,-0.013,-0.079,-0.009,-0.111,-0.119,-0.14,-0.127,-0.096
-0.086,-0.107,-0.021,0.097,-0.033,-0.064,-0.016,-0.117,-0.106,-0.114,-0.102,-0.083
-0.113,-0.162,-0.049,0.138,-0.032,-0.105,0.001,-0.084,-0.102,-0.127,-0.127,-0.099
-0.119,-0.113,0.006,0.116,-0.062,-0.053,0.164,0.153,-0.032,-0.148,-0.164,-0.151
-0.041,0.069,0.11,-0.014,-0.076,0.089,0.172,0.369,0.375,0.19,0.069,-0.023
0.36,0.712,0.353,-0.536,0.003,0.532,-0.034,0.022,0.966,1.148,0.916,0.567
0.536,1.031,0.494,-0.784,0.021,0.762,-0.566,-1.472,1.236,2.404,1.717,1.071
0.065,0.113,0.048,-0.089,0.009,0.08,-0.995,-2.408,-0.147,0.864,0.657,0.484
-0.246,-0.439,-0.193,0.343,-0.026,-0.316,-0.928,-1.728,-1.457,-1.268,-0.527,-0.174
-0.218,-0.35,-0.133,0.284,-0.042,-0.241,-0.724,-0.958,-0.879,-0.838,-0.409,-0.193
-0.154,-0.244,-0.09,0.199,-0.032,-0.167,-0.357,-0.359,-0.348,-0.454,-0.275,-0.172
-0.091,-0.116,-0.025,0.104,-0.033,-0.07,-0.068,0.034,-0.133,-0.272,-0.157,-0.108
-0.081,-0.121,-0.04,0.101,-0.02,-0.08,0.011,0.093,-0.022,-0.153,-0.128,-0.087
-0.063,-0.095,-0.032,0.079,-0.015,-0.063,0.033,0.127,-0.037,-0.17,-0.124,-0.087
-0.084,-0.098,-0.014,0.091,-0.035,-0.055,0.039,0.125,0.015,-0.081,-0.099,-0.074
-0.065,-0.091,-0.026,0.078,-0.019,-0.058,0.061,0.144,0.004,-0.099,-0.104,-0.076
-0.06,-0.08,-0.02,0.07,-0.02,-0.05,0.065,0.148,0.053,-0.053,-0.076,-0.064
-0.088,-0.077,0.011,0.082,-0.049,-0.033,0.082,0.141,0.059,-0.053,-0.078,-0.062
-0.051,-0.062,-0.011,0.057,-0.02,-0.037,0.098,0.177,0.086,-0.004,-0.053,-0.049
-0.06,-0.056,0.004,0.058,-0.032,-0.026,0.108,0.212,0.12,0.029,-0.042,-0.044
-0.023,-0.023,0.0,0.023,-0.011,-0.011,0.118,0.253,0.157,0.062,-0.012,-0.035
0.012,-0.008,-0.02,-0.002,0.016,-0.014,0.132,0.312,0.21,0.095,0.009,-0.024
0.007,0.006,0.0,-0.007,0.004,0.003,0.149,0.376,0.27,0.145,0.036,-0.002
0.06,0.046,-0.014,-0.053,0.037,0.016,0.174,0.468,0.347,0.212,0.08,0.024
0.065,0.084,0.019,-0.075,0.023,0.052,0.198,0.573,0.428,0.289,0.122,0.049
0.082,0.134,0.052,-0.108,0.015,0.093,0.226,0.662,0.526,0.391,0.186,0.092
0.147,0.189,0.042,-0.168,0.052,0.116,0.24,0.721,0.605,0.49,0.257,0.134
0.157,0.23,0.073,-0.194,0.041,0.151,0.234,0.72,0.64,0.543,0.32,0.174
0.141,0.243,0.102,-0.193,0.02,0.172,0.241,0.67,0.626,0.543,0.345,0.191
0.157,0.234,0.078,-0.196,0.039,0.156,0.24,0.563,0.555,0.524,0.33,0.177
0.124,0.212,0.088,-0.168,0.018,0.15,0.237,0.4,0.426,0.416,0.276,0.141
0.035,0.145,0.11,-0.09,-0.038,0.127,0.234,0.253,0.27,0.26,0.191,0.085
-0.011,0.07,0.08,-0.029,-0.046,0.075,0.215,0.132,0.14,0.125,0.1,0.041
-0.041,0.022,0.063,0.009,-0.052,0.042,0.177,0.048,0.063,0.043,0.034,0.007
-0.084,-0.023,0.061,0.053,-0.072,0.019,0.143,0.001,0.014,0.002,0.002,-0.027
-0.098,-0.052,0.045,0.075,-0.071,-0.003,0.129,-0.041,-0.024,-0.042,-0.035,-0.05
-0.101,-0.061,0.04,0.081,-0.071,-0.01,0.105,-0.061,-0.056,-0.066,-0.067,-0.064
-0.091,-0.072,0.019,0.081,-0.055,-0.027,0.091,-0.055,-0.067,-0.074,-0.076,-0.062
-0.084,-0.069,0.015,0.076,-0.049,-0.027,0.087,-0.046,-0.066,-0.079,-0.083,-0.07
-0.119,-0.078,0.04,0.098,-0.079,-0.018,0.078,-0.038,-0.064,-0.081,-0.086,-0.082
-0.126,-0.092,0.034,0.109,-0.08,-0.029,0.074,-0.031,-0.056,-0.077,-0.084,-0.079
-0.105,-0.089,0.016,0.097,-0.061,-0.036,0.064,-0.018,-0.052,-0.075,-0.085,-0.083
-0.089,-0.09,-0.001,0.09,-0.044,-0.046,0.074,-0.001,-0.044,-0.072,-0.085,-0.085
-0.103,-0.09,0.013,0.096,-0.058,-0.038,0.087,0.006,-0.032,-0.07,-0.085,-0.085
-0.131,-0.09,0.041,0.11,-0.086,-0.024,0.081,0.019,-0.02,-0.066,-0.082,-0.081
-0.114,-0.088,0.026,0.101,-0.07,-0.031,0.078,0.03,-0.006,-0.054,-0.078,-0.074
-0.115,-0.084,0.03,0.099,-0.072,-0.027,0.072,0.027,0.009,-0.047,-0.076,-0.069
-0.099,-0.082,0.017,0.09,-0.058,-0.032,0.068,0.022,0.009,-0.045,-0.071,-0.065
-0.073,-0.079,-0.006,0.076,-0.033,-0.042,0.063,0.018,-0.004,-0.046,-0.071,-0.065
-0.089,-0.076,0.013,0.082,-0.051,-0.031,0.057,0.013,-0.014,-0.045,-0.075,-0.065
-0.072,-0.075,-0.003,0.074,-0.034,-0.039,0.052,0.005,-0.026,-0.044,-0.075,-0.065
-0.084,-0.079,0.005,0.082,-0.045,-0.037,0.046,-0.005,-0.04,-0.056,-0.078,-0.065
-0.106,-0.082,0.024,0.093,-0.065,-0.028,0.041,-0.012,-0.046,-0.068,-0.08,-0.061
-0.073,-0.085,-0.011,0.079,-0.031,-0.048,0.036,-0.022,-0.049,-0.074,-0.081,-0.059
-0.066,-0.087,-0.021,0.077,-0.022,-0.054,0.031,-0.037,-0.054,-0.071,-0.075,-0.055
-0.091,-0.094,-0.002,0.093,-0.044,-0.048,0.026,-0.037,-0.059,-0.068,-0.073,-0.054
-0.08,-0.103,-0.023,0.092,-0.028,-0.063,0.023,-0.03,-0.065,-0.06,-0.064,-0.048
-0.057,-0.107,-0.05,0.083,-0.003,-0.078,0.017,-0.026,-0.076,-0.067,-0.072,-0.055
-0.062,-0.105,-0.043,0.084,-0.009,-0.074,0.016,-0.019,-0.077,-0.095,-0.104,-0.076
-0.059,-0.105,-0.045,0.082,-0.007,-0.075,0.022,-0.016,-0.075,-0.096,-0.103,-0.072
-0.064,-0.102,-0.038,0.083,-0.013,-0.07,0.03,-0.009,-0.075,-0.094,-0.096,-0.066
-0.056,-0.098,-0.042,0.077,-0.007,-0.07,0.035,-0.006,-0.075,-0.096,-0.094,-0.061
-0.072,-0.103,-0.031,0.088,-0.021,-0.067,0.044,-0.001,-0.075,-0.093,-0.087,-0.055
-0.078,-0.068,0.01,0.073,-0.044,-0.028,0.047,0.004,-0.057,-0.072,-0.068,-0.051
-0.052,-0.037,0.016,0.044,-0.034,-0.01,0.058,0.011,-0.048,-0.05,-0.057,-0.042
-0.061,-0.038,0.022,0.049,-0.041,-0.008,0.071,0.037,-0.05,-0.05,-0.061,-0.034
-0.063,0.0,0.063,0.031,-0.063,0.031,0.052,0.029,-0.05,-0.049,-0.058,-0.025
-0.062,0.029,0.091,0.016,-0.077,0.06,0.026,0.002,-0.054,-0.045,-0.054,-0.017
-0.067,0.021,0.088,0.023,-0.078,0.054,0.019,-0.003,-0.056,-0.046,-0.05,-0.015
-0.06,0.023,0.084,0.019,-0.072,0.053,0.002,-0.01,-0.054,-0.045,-0.045,-0.015
-0.057,-0.016,0.041,0.036,-0.049,0.012,-0.014,-0.014,-0.046,-0.052,-0.039,-0.015
-0.073,-0.088,-0.015,0.081,-0.029,-0.051,-0.015,-0.02,-0.067,-0.068,-0.058,-0.038
-0.075,-0.115,-0.041,0.095,-0.017,-0.078,-0.016,-0.026,-0.097,-0.096,-0.086,-0.083
-0.088,-0.122,-0.033,0.105,-0.027,-0.077,-0.01,-0.033,-0.104,-0.115,-0.087,-0.092
-0.086,-0.147,-0.061,0.116,-0.012,-0.104,-0.014,-0.06,-0.096,-0.094,-0.092,-0.088
-0.06,-0.156,-0.096,0.108,0.018,-0.126,-0.005,-0.055,-0.114,-0.118,-0.107,-0.091
-0.075,-0.155,-0.08,0.116,0.002,-0.117,-0.012,-0.074,-0.094,-0.081,-0.091,-0.079
-0.081,-0.169,-0.089,0.125,0.004,-0.129,0.012,-0.08,-0.106,-0.116,-0.111,-0.092
-0.086,-0.14,-0.055,0.113,-0.015,-0.097,0.004,-0.11,-0.081,-0.077,-0.089,-0.073
-0.096,-0.179,-0.083,0.137,-0.006,-0.131,0.037,-0.065,-0.078,-0.112,-0.12,-0.093
-0.124,-0.151,-0.026,0.138,-0.049,-0.088,0.18,0.169,-0.001,-0.141,-0.144,-0.134
-0.015,0.103,0.119,-0.045,-0.067,0.111,0.185,0.314,0.423,0.233,0.122,0.011
0.378,0.795,0.417,-0.587,-0.02,0.606,-0.091,-0.314,1.078,1.362,1.07,0.642
0.473,1.016,0.543,-0.745,-0.035,0.779,-0.769,-1.927,1.397,2.653,1.837,1.109
0.04,0.028,-0.011,-0.034,0.025,0.008,-1.121,-2.523,-0.216,0.75,0.622,0.451
-0.234,-0.503,-0.269,0.369,0.018,-0.386,-0.956,-1.688,-1.542,-1.369,-0.552,-0.169
-0.196,-0.367,-0.172,0.282,-0.012,-0.269,-0.711,-0.935,-0.811,-0.769,-0.373,-0.167
-0.133,-0.264,-0.131,0.198,-0.001,-0.197,-0.289,-0.305,-0.309,-0.426,-0.227,-0.137
-0.082,-0.161,-0.079,0.121,-0.001,-0.12,-0.027,0.037,-0.093,-0.225,-0.114,-0.078
-0.068,-0.161,-0.093,0.115,0.013,-0.127,0.03,0.08,-0.015,-0.138,-0.099,-0.075
-0.069,-0.135,-0.066,0.102,-0.001,-0.1,0.062,0.111,-0.019,-0.148,-0.1,-0.069
-0.066,-0.135,-0.069,0.1,0.002,-0.102,0.066,0.116,0.055,-0.063,-0.076,-0.064
-0.052,-0.125,-0.072,0.089,0.01,-0.098,0.083,0.137,0.035,-0.083,-0.074,-0.066
-0.04,-0.113,-0.073,0.077,0.016,-0.092,0.085,0.137,0.081,-0.015,-0.042,-0.057
-0.04,-0.109,-0.069,0.074,0.015,-0.088,0.094,0.152,0.083,-0.019,-0.039,-0.06
-0.019,-0.085,-0.066,0.052,0.024,-0.075,0.122,0.179,0.124,0.027,-0.016,-0.036
-0.006,-0.061,-0.055,0.034,0.025,-0.058,0.135,0.207,0.152,0.041,-0.006,-0.021
0.011,-0.042,-0.053,0.016,0.032,-0.047,0.149,0.257,0.194,0.081,0.019,-0.011
0.005,-0.042,-0.047,0.019,0.026,-0.044,0.165,0.327,0.26,0.132,0.039,-0.002
0.024,-0.018,-0.042,-0.003,0.033,-0.03,0.184,0.411,0.323,0.176,0.071,0.006
0.063,0.015,-0.049,-0.038,0.056,-0.017,0.219,0.516,0.412,0.249,0.107,0.033
0.071,0.053,-0.019,-0.062,0.045,0.017,0.255,0.638,0.519,0.337,0.157,0.064
0.12,0.112,-0.008,-0.116,0.064,0.052,0.289,0.737,0.628,0.447,0.228,0.101
0.139,0.164,0.024,-0.152,0.057,0.094,0.297,0.78,0.705,0.539,0.289,0.139
0.145,0.207,0.062,-0.176,0.041,0.134,0.294,0.774,0.74,0.611,0.353,0.177
0.161,0.212,0.051,-0.187,0.055,0.131,0.286,0.709,0.726,0.631,0.384,0.205
0.134,0.201,0.066,-0.168,0.034,0.134,0.28,0.571,0.632,0.576,0.371,0.195
0.095,0.175,0.08,-0.135,0.007,0.127,0.268,0.391,0.462,0.44,0.302,0.159
0.043,0.104,0.062,-0.074,-0.01,0.083,0.231,0.232,0.275,0.267,0.192,0.097
-0.016,0.039,0.055,-0.012,-0.036,0.047,0.201,0.133,0.13,0.132,0.111,0.041
-0.037,-0.008,0.029,0.022,-0.033,0.01,0.175,0.059,0.047,0.044,0.046,0.004
-0.049,-0.041,0.008,0.045,-0.028,-0.016,0.144,0.007,-0.01,-0.006,0.004,-0.021
-0.052,-0.072,-0.02,0.062,-0.016,-0.046,0.123,-0.014,-0.053,-0.037,-0.013,-0.036
-0.033,-0.085,-0.052,0.06,0.009,-0.068,0.107,-0.024,-0.066,-0.053,-0.028,-0.051
-0.056,-0.096,-0.04,0.076,-0.008,-0.068,0.092,-0.028,-0.059,-0.054,-0.029,-0.058
-0.063,-0.105,-0.042,0.084,-0.01,-0.073,0.089,-0.024,-0.056,-0.055,-0.035,-0.064
-0.071,-0.107,-0.036,0.089,-0.017,-0.071,0.09,-0.016,-0.051,-0.055,-0.051,-0.062
-0.082,-0.117,-0.035,0.1,-0.023,-0.076,0.09,-0.013,-0.046,-0.055,-0.049,-0.057
-0.073,-0.105,-0.033,0.089,-0.02,-0.069,0.09,-0.002,-0.043,-0.055,-0.045,-0.054
-0.089,-0.099,-0.01,0.094,-0.04,-0.054,0.089,0.011,-0.036,-0.055,-0.042,-0.051
-0.058,-0.099,-0.041,0.078,-0.008,-0.069,0.085,0.027,-0.03,-0.054,-0.037,-0.046
-0.052,-0.094,-0.042,0.073,-0.004,-0.068,0.079,0.045,-0.025,-0.049,-0.035,-0.046
-0.069,-0.092,-0.023,0.081,-0.023,-0.058,0.076,0.044,-0.02,-0.044,-0.03,-0.059
-0.051,-0.089,-0.038,0.071,-0.006,-0.063,0.071,0.04,-0.016,-0.04,-0.03,-0.058
-0.056,-0.087,-0.031,0.072,-0.013,-0.058,0.066,0.038,-0.012,-0.035,-0.029,-0.053
-0.056,-0.084,-0.028,0.07,-0.013,-0.056,0.062,0.035,-0.006,-0.03,-0.025,-0.052
-0.059,-0.085,-0.026,0.073,-0.016,-0.056,0.056,0.034,-0.007,-0.034,-0.025,-0.046
-0.068,-0.085,-0.018,0.076,-0.024,-0.051,0.051,0.026,-0.018,-0.041,-0.028,-0.045
-0.054,-0.085,-0.031,0.069,-0.011,-0.057,0.046,0.019,-0.027,-0.047,-0.03,-0.045
-0.04,-0.086,-0.046,0.064,0.003,-0.066,0.04,0.013,-0.038,-0.05,-0.031,-0.045
-0.05,-0.09,-0.04,0.07,-0.005,-0.065,0.035,0.005,-0.051,-0.054,-0.035,-0.045
-0.059,-0.094,-0.035,0.077,-0.012,-0.064,0.031,0.0,-0.056,-0.066,-0.035,-0.045
-0.062,-0.095,-0.032,0.079,-0.014,-0.063,0.028,-0.005,-0.07,-0.07,-0.042,-0.053
-0.073,-0.097,-0.024,0.085,-0.024,-0.06,0.025,-0.011,-0.076,-0.07,-0.053,-0.056
-0.067,-0.1,-0.033,0.084,-0.017,-0.067,0.023,-0.017,-0.074,-0.07,-0.055,-0.055
-0.057,-0.099,-0.042,0.078,-0.007,-0.07,0.019,-0.019,-0.079,-0.07,-0.055,-0.052
-0.058,-0.094,-0.036,0.076,-0.01,-0.065,0.023,-0.013,-0.08,-0.071,-0.055,-0.049
-0.057,-0.092,-0.036,0.075,-0.01,-0.064,0.025,-0.006,-0.08,-0.068,-0.055,-0.05
-0.057,-0.087,-0.03,0.072,-0.013,-0.059,0.026,0.0,-0.074,-0.075,-0.055,-0.045
-0.056,-0.087,-0.031,0.071,-0.012,-0.059,0.03,0.008,-0.069,-0.081,-0.046,-0.04
-0.055,-0.074,-0.019,0.065,-0.018,-0.046,0.031,0.013,-0.064,-0.065,-0.034,-0.036
-0.06,-0.047,0.013,0.053,-0.036,-0.017,0.054,0.024,-0.058,-0.053,-0.023,-0.031
-0.067,-0.038,0.029,0.052,-0.048,-0.004,0.063,0.026,-0.051,-0.049,-0.016,-0.026
-0.068,-0.02,0.048,0.044,-0.058,0.014,0.042,0.015,-0.052,-0.05,-0.009,-0.022
-0.04,0.014,0.054,0.013,-0.048,0.034,0.025,0.005,-0.056,-0.05,-0.003,-0.016
-0.025,0.042,0.067,-0.009,-0.047,0.054,0.015,-0.005,-0.057,-0.049,0.004,-0.011
-0.029,0.048,0.077,-0.01,-0.053,0.062,0.005,-0.022,-0.062,-0.052,0.01,-0.005
-0.022,-0.002,0.02,0.012,-0.022,0.009,-0.002,-0.04,-0.063,-0.045,0.002,0.001
-0.051,-0.076,-0.024,0.064,-0.013,-0.05,-0.002,-0.038,-0.083,-0.064,-0.018,-0.025
-0.072,-0.112,-0.04,0.092,-0.016,-0.076,-0.01,-0.043,-0.102,-0.081,-0.053,-0.057
-0.068,-0.123,-0.055,0.096,-0.006,-0.089,-0.009,-0.041,-0.113,-0.093,-0.08,-0.061
-0.084,-0.139,-0.055,0.111,-0.014,-0.097,-0.018,-0.049,-0.109,-0.094,-0.069,-0.068
-0.077,-0.148,-0.072,0.113,-0.002,-0.11,-0.016,-0.04,-0.118,-0.127,-0.081,-0.079
-0.07,-0.131,-0.061,0.101,-0.005,-0.096,-0.022,-0.04,-0.104,-0.106,-0.07,-0.07
-0.084,-0.15,-0.066,0.117,-0.009,-0.108,-0.026,-0.032,-0.102,-0.118,-0.078,-0.079
-0.085,-0.129,-0.044,0.107,-0.021,-0.086,-0.018,-0.023,-0.102,-0.122,-0.077,-0.071
-0.102,-0.151,-0.049,0.127,-0.027,-0.1,-0.005,-0.013,-0.079,-0.093,-0.074,-0.079
-0.119,-0.152,-0.033,0.136,-0.043,-0.093,0.132,0.189,-0.085,-0.178,-0.126,-0.119
-0.054,0.01,0.064,0.022,-0.059,0.037,0.183,0.421,0.247,0.086,0.024,-0.053
0.276,0.583,0.307,-0.43,-0.015,0.445,0.018,0.115,0.834,0.911,0.755,0.434
0.549,1.16,0.611,-0.855,-0.031,0.885,-0.606,-1.422,1.407,2.465,1.816,1.118
0.203,0.389,0.186,-0.296,0.008,0.287,-1.19,-2.527,0.394,1.605,1.149,0.743
-0.203,-0.484,-0.281,0.344,0.039,-0.383,-1.087,-1.849,-1.387,-1.052,-0.37,-0.072
-0.206,-0.401,-0.195,0.304,-0.006,-0.298,-0.808,-0.976,-1.096,-1.015,-0.44,-0.164
-0.127,-0.263,-0.136,0.196,0.005,-0.199,-0.41,-0.305,-0.38,-0.427,-0.215,-0.118
-0.072,-0.16,-0.088,0.116,0.008,-0.124,-0.077,0.154,-0.18,-0.301,-0.136,-0.097
-0.059,-0.139,-0.079,0.099,0.01,-0.109,-0.001,0.222,-0.033,-0.126,-0.072,-0.074
-0.06,-0.127,-0.067,0.094,0.004,-0.097,0.034,0.246,-0.063,-0.174,-0.09,-0.074
-0.053,-0.108,-0.055,0.081,0.001,-0.081,0.046,0.254,0.007,-0.067,-0.056,-0.058
-0.053,-0.108,-0.055,0.08,0.002,-0.081,0.066,0.273,0.007,-0.091,-0.069,-0.064
-0.045,-0.088,-0.042,0.067,-0.001,-0.065,0.072,0.277,0.027,-0.037,-0.047,-0.053
-0.042,-0.087,-0.045,0.064,0.002,-0.065,0.087,0.296,0.045,-0.015,-0.042,-0.054
-0.034,-0.069,-0.035,0.051,0.001,-0.052,0.098,0.319,0.07,0.001,-0.011,-0.048
-0.02,-0.054,-0.034,0.038,0.007,-0.044,0.109,0.35,0.105,0.029,0.004,-0.041
-0.004,-0.032,-0.028,0.018,0.012,-0.03,0.131,0.404,0.136,0.058,0.012,-0.026
0.003,-0.021,-0.025,0.009,0.014,-0.023,0.142,0.46,0.196,0.11,0.042,-0.009
0.02,-0.001,-0.021,-0.01,0.02,-0.011,0.17,0.549,0.252,0.145,0.067,0.013
0.053,0.041,-0.013,-0.047,0.033,0.014,0.198,0.661,0.331,0.216,0.105,0.032
0.068,0.077,0.009,-0.073,0.029,0.043,0.23,0.772,0.435,0.306,0.16,0.054
0.072,0.123,0.051,-0.098,0.01,0.087,0.271,0.876,0.529,0.403,0.224,0.091
0.105,0.184,0.079,-0.145,0.013,0.132,0.286,0.943,0.615,0.503,0.288,0.134
0.155,0.235,0.08,-0.195,0.037,0.157,0.278,0.933,0.66,0.574,0.351,0.183
0.185,0.266,0.081,-0.226,0.052,0.173,0.268,0.868,0.652,0.603,0.39,0.192
0.184,0.271,0.087,-0.228,0.048,0.179,0.258,0.744,0.593,0.578,0.387,0.187
0.148,0.237,0.089,-0.192,0.029,0.163,0.245,0.556,0.443,0.465,0.327,0.175
0.073,0.165,0.092,-0.119,-0.01,0.128,0.215,0.386,0.274,0.316,0.241,0.123
0.01,0.086,0.076,-0.048,-0.033,0.08,0.193,0.25,0.133,0.17,0.154,0.072
-0.007,0.029,0.035,-0.011,-0.021,0.032,0.169,0.146,0.037,0.072,0.082,0.026
-0.03,-0.007,0.024,0.018,-0.027,0.008,0.131,0.096,-0.02,0.021,0.028,-0.015
-0.046,-0.025,0.021,0.036,-0.033,-0.002,0.111,0.056,-0.067,-0.03,-0.005,-0.031
-0.066,-0.05,0.016,0.058,-0.041,-0.017,0.103,0.039,-0.082,-0.054,-0.011,-0.033
-0.079,-0.067,0.012,0.073,-0.045,-0.027,0.092,0.036,-0.084,-0.055,-0.017,-0.038
-0.07,-0.064,0.006,0.067,-0.037,-0.029,0.084,0.025,-0.09,-0.055,-0.024,-0.04
-0.069,-0.065,0.004,0.067,-0.036,-0.03,0.078,0.021,-0.09,-0.056,-0.031,-0.04
-0.059,-0.065,-0.005,0.063,-0.027,-0.035,0.07,0.009,-0.087,-0.057,-0.034,-0.044
-0.065,-0.065,0.0,0.066,-0.032,-0.032,0.062,0.023,-0.083,-0.051,-0.029,-0.046
-0.043,-0.061,-0.018,0.052,-0.012,-0.04,0.056,0.044,-0.081,-0.046,-0.026,-0.044
-0.024,-0.055,-0.031,0.039,0.004,-0.042,0.05,0.046,-0.074,-0.043,-0.023,-0.041
-0.03,-0.05,-0.021,0.04,-0.004,-0.035,0.05,0.048,-0.061,-0.037,-0.018,-0.038
-0.025,-0.044,-0.02,0.035,-0.002,-0.032,0.049,0.054,-0.05,-0.035,-0.015,-0.036
-0.03,-0.038,-0.008,0.034,-0.011,-0.023,0.045,0.068,-0.045,-0.035,-0.02,-0.032
-0.012,-0.036,-0.025,0.024,0.007,-0.03,0.045,0.061,-0.045,-0.035,-0.021,-0.03
-0.021,-0.04,-0.019,0.031,-0.001,-0.029,0.043,0.049,-0.045,-0.035,-0.02,-0.027
-0.057,-0.04,0.017,0.048,-0.037,-0.011,0.037,0.04,-0.045,-0.035,-0.018,-0.025
-0.039,-0.04,-0.001,0.039,-0.019,-0.021,0.033,0.027,-0.051,-0.035,-0.015,-0.025
-0.018,-0.04,-0.022,0.029,0.002,-0.031,0.028,0.016,-0.068,-0.039,-0.015,-0.026
-0.029,-0.04,-0.011,0.035,-0.009,-0.025,0.024,0.002,-0.08,-0.046,-0.019,-0.024
-0.057,-0.044,0.014,0.05,-0.035,-0.015,0.019,-0.015,-0.087,-0.052,-0.025,-0.027
-0.083,-0.045,0.038,0.064,-0.06,-0.003,0.016,-0.029,-0.102,-0.055,-0.031,-0.039
-0.06,-0.047,0.013,0.053,-0.036,-0.017,0.013,-0.038,-0.112,-0.06,-0.036,-0.041
-0.032,-0.051,-0.02,0.042,-0.006,-0.035,0.01,-0.045,-0.114,-0.06,-0.042,-0.039
-0.019,-0.048,-0.029,0.034,0.005,-0.038,0.007,-0.051,-0.115,-0.06,-0.045,-0.04
-0.03,-0.045,-0.015,0.038,-0.007,-0.03,0.005,-0.061,-0.115,-0.065,-0.045,-0.04
-0.056,-0.045,0.011,0.05,-0.033,-0.017,0.003,-0.068,-0.115,-0.062,-0.045,-0.04
-0.042,-0.043,-0.001,0.042,-0.02,-0.021,-0.003,-0.073,-0.127,-0.072,-0.045,-0.04
-0.009,-0.039,-0.031,0.024,0.011,-0.035,-0.008,-0.076,-0.131,-0.076,-0.045,-0.04
-0.01,-0.04,-0.03,0.025,0.01,-0.035,-0.011,-0.086,-0.126,-0.071,-0.042,-0.04
-0.065,-0.055,0.009,0.06,-0.037,-0.023,-0.017,-0.088,-0.124,-0.07,-0.036,-0.04
-0.052,-0.055,-0.003,0.053,-0.024,-0.029,-0.019,-0.078,-0.121,-0.065,-0.032,-0.04
-0.003,-0.043,-0.04,0.024,0.018,-0.041,-0.026,-0.074,-0.12,-0.065,-0.028,-0.036
-0.021,-0.038,-0.017,0.029,-0.001,-0.027,-0.018,-0.065,-0.11,-0.057,-0.023,-0.029
-0.056,-0.014,0.041,0.035,-0.048,0.013,0.011,-0.053,-0.094,-0.044,-0.019,-0.023
-0.071,0.008,0.079,0.031,-0.075,0.043,0.042,-0.036,-0.085,-0.032,-0.011,-0.016
-0.045,0.039,0.084,0.003,-0.065,0.061,0.047,-0.028,-0.084,-0.027,-0.004,-0.009
-0.036,0.068,0.104,-0.016,-0.071,0.086,0.0,-0.053,-0.085,-0.022,0.002,-0.003
-0.035,0.06,0.096,-0.013,-0.066,0.078,-0.026,-0.061,-0.084,-0.018,0.014,0.0
-0.028,0.048,0.076,-0.01,-0.052,0.062,-0.028,-0.05,-0.086,-0.015,0.014,0.001
-0.013,0.038,0.051,-0.013,-0.032,0.044,-0.043,-0.052,-0.083,-0.007,0.002,0.008
0.016,0.004,-0.012,-0.01,0.014,-0.004,-0.045,-0.04,-0.103,-0.035,-0.012,-0.01
0.007,-0.049,-0.056,0.021,0.032,-0.052,-0.053,-0.043,-0.124,-0.059,-0.025,-0.04
-0.025,-0.073,-0.048,0.05,0.011,-0.06,-0.048,-0.031,-0.134,-0.08,-0.051,-0.053
-0.044,-0.071,-0.027,0.058,-0.009,-0.049,-0.051,-0.03,-0.134,-0.071,-0.057,-0.047
-0.043,-0.1,-0.058,0.072,0.008,-0.079,-0.051,-0.021,-0.14,-0.084,-0.065,-0.059
-0.031,-0.09,-0.059,0.061,0.015,-0.074,-0.047,-0.011,-0.149,-0.097,-0.066,-0.065
-0.047,-0.099,-0.052,0.073,0.003,-0.075,-0.061,-0.015,-0.137,-0.077,-0.063,-0.063
-0.058,-0.1,-0.042,0.08,-0.008,-0.071,-0.049,0.02,-0.157,-0.111,-0.08,-0.075
-0.056,-0.094,-0.037,0.075,-0.01,-0.065,-0.068,-0.008,-0.129,-0.059,-0.054,-0.06
-0.078,-0.122,-0.044,0.1,-0.016,-0.082,0.055,0.162,-0.135,-0.145,-0.115,-0.105
-0.064,-0.023,0.042,0.043,-0.053,0.01,0.15,0.419,0.086,-0.009,-0.05,-0.099
0.204,0.379,0.175,-0.291,0.014,0.277,0.08,0.46,0.617,0.568,0.455,0.245
0.624,1.115,0.491,-0.869,0.066,0.803,-0.333,-0.676,1.207,1.961,1.537,0.995
0.445,0.795,0.349,-0.62,0.048,0.572,-1.061,-2.335,0.768,2.116,1.539,1.02
-0.07,-0.274,-0.204,0.172,0.067,-0.239,-1.148,-2.12,-0.931,-0.371,-0.006,0.14
-0.192,-0.414,-0.222,0.303,0.016,-0.317,-0.859,-1.165,-1.261,-1.154,-0.495,-0.176
-0.126,-0.238,-0.111,0.182,-0.007,-0.174,-0.528,-0.503,-0.502,-0.46,-0.221,-0.119
-0.088,-0.141,-0.053,0.115,-0.017,-0.097,-0.134,0.064,-0.22,-0.321,-0.144,-0.102
-0.052,-0.088,-0.036,0.07,-0.008,-0.062,-0.02,0.173,-0.076,-0.132,-0.058,-0.053
-0.01,-0.094,-0.084,0.052,0.037,-0.089,0.013,0.205,-0.072,-0.16,-0.088,-0.071
-0.006,-0.068,-0.062,0.037,0.028,-0.065,0.024,0.214,-0.034,-0.094,-0.046,-0.052
0.0,-0.069,-0.069,0.034,0.035,-0.069,0.037,0.224,-0.016,-0.076,-0.051,-0.055
-0.011,-0.058,-0.047,0.035,0.018,-0.052,0.061,0.242,-0.006,-0.052,-0.042,-0.045
-0.011,-0.056,-0.045,0.034,0.017,-0.05,0.054,0.257,0.022,-0.02,-0.03,-0.041
0.02,-0.022,-0.042,0.001,0.031,-0.032,0.065,0.283,0.036,-0.016,-0.018,-0.036
0.022,-0.012,-0.034,-0.004,0.028,-0.023,0.077,0.304,0.08,0.019,-0.001,-0.026
0.031,-0.006,-0.037,-0.012,0.034,-0.021,0.093,0.355,0.108,0.03,0.0,-0.02
0.028,0.006,-0.022,-0.017,0.025,-0.008,0.121,0.405,0.157,0.081,0.031,-0.01
0.044,0.021,-0.023,-0.032,0.033,-0.001,0.134,0.477,0.204,0.11,0.043,-0.004
0.04,0.054,0.014,-0.047,0.013,0.034,0.167,0.569,0.271,0.166,0.081,0.02
0.038,0.091,0.054,-0.065,-0.008,0.072,0.208,0.676,0.354,0.23,0.13,0.043
0.086,0.142,0.056,-0.114,0.014,0.099,0.227,0.78,0.436,0.316,0.177,0.08
0.136,0.194,0.058,-0.165,0.039,0.126,0.256,0.851,0.515,0.402,0.245,0.12
0.188,0.252,0.064,-0.22,0.062,0.158,0.255,0.851,0.551,0.468,0.301,0.159
0.193,0.281,0.089,-0.237,0.052,0.185,0.255,0.817,0.547,0.509,0.342,0.189
0.184,0.269,0.085,-0.227,0.049,0.177,0.254,0.738,0.515,0.489,0.365,0.182
0.178,0.255,0.077,-0.216,0.05,0.166,0.224,0.58,0.416,0.433,0.336,0.172
0.143,0.214,0.071,-0.179,0.035,0.142,0.193,0.413,0.277,0.317,0.256,0.145
0.079,0.144,0.065,-0.112,0.007,0.105,0.167,0.281,0.154,0.181,0.162,0.078
0.001,0.074,0.072,-0.038,-0.035,0.073,0.148,0.187,0.058,0.083,0.086,0.02
-0.031,0.026,0.057,0.003,-0.045,0.041,0.124,0.124,0.005,0.026,0.03,-0.013
-0.029,0.006,0.034,0.011,-0.032,0.02,0.097,0.086,-0.042,-0.019,-0.005,-0.035
0.001,-0.005,-0.007,0.002,0.004,-0.006,0.079,0.058,-0.077,-0.06,-0.011,-0.045
-0.017,-0.012,0.005,0.015,-0.011,-0.004,0.063,0.043,-0.08,-0.066,-0.017,-0.05
-0.055,-0.023,0.032,0.039,-0.043,0.005,0.049,0.046,-0.092,-0.065,-0.024,-0.053
-0.052,-0.03,0.022,0.041,-0.037,-0.004,0.043,0.043,-0.093,-0.064,-0.031,-0.056
-0.066,-0.03,0.036,0.048,-0.051,0.003,0.036,0.04,-0.083,-0.059,-0.034,-0.059
-0.05,-0.03,0.02,0.04,-0.035,-0.005,0.028,0.04,-0.078,-0.061,-0.028,-0.061
-0.023,-0.03,-0.007,0.026,-0.008,-0.018,0.021,0.039,-0.07,-0.057,-0.024,-0.066
-0.041,-0.03,0.011,0.035,-0.026,-0.009,0.014,0.056,-0.065,-0.051,-0.02,-0.064
-0.061,-0.03,0.03,0.045,-0.045,0.0,0.01,0.065,-0.06,-0.046,-0.015,-0.06
-0.056,-0.033,0.023,0.044,-0.039,-0.005,0.007,0.079,-0.057,-0.041,-0.01,-0.06
-0.055,-0.042,0.013,0.048,-0.033,-0.014,0.005,0.101,-0.053,-0.035,-0.014,-0.06
-0.052,-0.044,0.008,0.047,-0.03,-0.018,0.001,0.095,-0.05,-0.031,-0.02,-0.06
-0.034,-0.04,-0.006,0.037,-0.014,-0.023,-0.001,0.091,-0.045,-0.034,-0.026,-0.06
-0.016,-0.041,-0.025,0.029,0.005,-0.032,0.004,0.087,-0.048,-0.039,-0.032,-0.064
-0.017,-0.038,-0.02,0.028,0.002,-0.029,0.005,0.082,-0.057,-0.043,-0.036,-0.065
-0.024,-0.035,-0.011,0.03,-0.006,-0.022,0.004,0.078,-0.068,-0.045,-0.04,-0.065
-0.026,-0.035,-0.009,0.031,-0.008,-0.022,-0.002,0.075,-0.077,-0.055,-0.042,-0.065
-0.044,-0.039,0.005,0.041,-0.025,-0.016,-0.009,0.072,-0.081,-0.068,-0.045,-0.065
-0.035,-0.04,-0.005,0.037,-0.015,-0.022,-0.016,0.07,-0.099,-0.077,-0.048,-0.064
-0.017,-0.041,-0.023,0.029,0.003,-0.032,-0.023,0.066,-0.115,-0.085,-0.05,-0.06
-0.031,-0.05,-0.02,0.041,-0.005,-0.035,-0.029,0.064,-0.117,-0.09,-0.053,-0.06
-0.067,-0.052,0.015,0.06,-0.041,-0.018,-0.034,0.077,-0.123,-0.095,-0.058,-0.06
-0.066,-0.049,0.017,0.058,-0.042,-0.016,-0.035,0.078,-0.125,-0.097,-0.06,-0.06
-0.026,-0.051,-0.025,0.038,-0.001,-0.037,-0.035,0.068,-0.124,-0.1,-0.06,-0.06
-0.039,-0.049,-0.011,0.044,-0.014,-0.03,-0.034,0.063,-0.13,-0.103,-0.06,-0.063
-0.06,-0.051,0.009,0.055,-0.035,-0.02,-0.03,0.055,-0.135,-0.105,-0.06,-0.068
-0.064,-0.049,0.015,0.056,-0.039,-0.016,-0.03,0.05,-0.131,-0.115,-0.06,-0.069
-0.056,-0.043,0.013,0.049,-0.034,-0.015,-0.03,0.057,-0.129,-0.115,-0.06,-0.065
-0.042,-0.037,0.005,0.039,-0.024,-0.016,-0.042,0.065,-0.131,-0.108,-0.056,-0.065
-0.038,-0.033,0.006,0.035,-0.022,-0.014,-0.043,0.065,-0.129,-0.104,-0.054,-0.065
-0.017,-0.026,-0.008,0.022,-0.004,-0.017,-0.034,0.065,-0.131,-0.098,-0.056,-0.065
-0.018,-0.023,-0.005,0.021,-0.006,-0.014,-0.032,0.067,-0.129,-0.093,-0.055,-0.066
-0.036,-0.007,0.029,0.022,-0.033,0.011,-0.008,0.074,-0.117,-0.088,-0.056,-0.06
-0.051,0.028,0.079,0.011,-0.065,0.053,0.013,0.085,-0.109,-0.083,-0.054,-0.05
-0.06,0.038,0.098,0.01,-0.079,0.068,0.017,0.077,-0.11,-0.077,-0.049,-0.039
-0.035,0.061,0.096,-0.014,-0.065,0.078,-0.016,0.058,-0.11,-0.075,-0.046,-0.032
-0.035,0.085,0.119,-0.025,-0.078,0.101,-0.053,0.048,-0.109,-0.067,-0.041,-0.029
-0.032,0.075,0.107,-0.021,-0.07,0.091,-0.043,0.045,-0.112,-0.068,-0.04,-0.031
0.004,0.055,0.051,-0.03,-0.024,0.052,-0.066,0.036,-0.107,-0.065,-0.032,-0.028
-0.02,-0.007,0.013,0.014,-0.017,0.003,-0.077,0.034,-0.115,-0.08,-0.043,-0.033
-0.045,-0.059,-0.014,0.052,-0.015,-0.036,-0.074,0.02,-0.14,-0.105,-0.069,-0.062
-0.038,-0.073,-0.035,0.056,-0.002,-0.054,-0.076,0.014,-0.147,-0.112,-0.078,-0.078
-0.052,-0.073,-0.022,0.063,-0.015,-0.047,-0.073,0.0,-0.154,-0.121,-0.087,-0.083
-0.072,-0.094,-0.023,0.083,-0.024,-0.058,-0.078,-0.013,-0.161,-0.143,-0.108,-0.099
-0.083,-0.096,-0.013,0.09,-0.035,-0.054,-0.067,-0.017,-0.162,-0.151,-0.105,-0.093
-0.094,-0.101,-0.007,0.097,-0.043,-0.054,-0.078,-0.043,-0.155,-0.133,-0.101,-0.096
-0.09,-0.103,-0.013,0.097,-0.039,-0.058,-0.057,-0.021,-0.162,-0.163,-0.12,-0.104
-0.07,-0.091,-0.021,0.081,-0.024,-0.056,-0.089,-0.064,-0.146,-0.12,-0.093,-0.092
-0.099,-0.119,-0.02,0.109,-0.039,-0.069,0.008,0.061,-0.157,-0.18,-0.145,-0.129
-0.101,-0.021,0.08,0.061,-0.09,0.03,0.112,0.298,0.022,-0.071,-0.087,-0.108
0.14,0.298,0.158,-0.219,-0.009,0.227,0.055,0.441,0.48,0.404,0.311,0.14
0.616,1.021,0.405,-0.819,0.105,0.713,-0.276,-0.44,1.067,1.601,1.307,0.864
0.542,0.92,0.377,-0.731,0.082,0.648,-1.013,-2.202,0.78,1.963,1.504,1.049
-0.056,-0.172,-0.116,0.114,0.03,-0.144,-1.198,-2.271,-0.8,-0.188,0.056,0.162
-0.216,-0.417,-0.2,0.317,-0.008,-0.308,-0.922,-1.288,-1.289,-1.162,-0.551,-0.218
-0.152,-0.221,-0.069,0.187,-0.041,-0.145,-0.591,-0.6,-0.59,-0.523,-0.275,-0.134
-0.124,-0.142,-0.018,0.134,-0.053,-0.08,-0.181,-0.018,-0.261,-0.341,-0.195,-0.142
-0.076,-0.07,0.006,0.073,-0.041,-0.031,-0.055,0.111,-0.128,-0.18,-0.101,-0.082
-0.076,-0.079,-0.003,0.077,-0.036,-0.041,-0.018,0.136,-0.105,-0.187,-0.124,-0.096
-0.063,-0.049,0.014,0.056,-0.039,-0.017,0.004,0.148,-0.082,-0.149,-0.099,-0.087
-0.064,-0.053,0.011,0.058,-0.038,-0.02,0.008,0.148,-0.068,-0.123,-0.097,-0.087
-0.056,-0.034,0.023,0.045,-0.039,-0.006,0.022,0.17,-0.058,-0.109,-0.091,-0.086
-0.046,-0.022,0.024,0.034,-0.034,0.001,0.028,0.172,-0.027,-0.075,-0.072,-0.083
-0.043,-0.009,0.034,0.026,-0.039,0.012,0.048,0.199,-0.001,-0.07,-0.065,-0.08
-0.024,0.007,0.032,0.008,-0.028,0.02,0.048,0.221,0.026,-0.028,-0.047,-0.066
-0.011,0.019,0.031,-0.004,-0.021,0.025,0.063,0.266,0.047,-0.017,-0.046,-0.062
-0.008,0.033,0.041,-0.012,-0.025,0.036,0.084,0.31,0.098,0.022,-0.027,-0.05
0.005,0.041,0.037,-0.023,-0.016,0.039,0.105,0.373,0.143,0.055,0.0,-0.039
0.021,0.081,0.06,-0.051,-0.02,0.07,0.131,0.459,0.205,0.108,0.037,-0.023
0.065,0.129,0.064,-0.097,0.001,0.096,0.155,0.555,0.277,0.168,0.069,0.003
0.087,0.167,0.08,-0.127,0.003,0.123,0.192,0.655,0.358,0.244,0.126,0.049
0.12,0.227,0.107,-0.174,0.006,0.167,0.216,0.721,0.43,0.321,0.191,0.092
0.177,0.28,0.103,-0.229,0.037,0.191,0.218,0.741,0.456,0.386,0.245,0.125
0.197,0.312,0.115,-0.255,0.041,0.213,0.211,0.714,0.445,0.427,0.291,0.161
0.197,0.33,0.133,-0.264,0.032,0.231,0.2,0.63,0.427,0.418,0.314,0.179
0.157,0.303,0.146,-0.23,0.005,0.224,0.19,0.478,0.363,0.376,0.291,0.166
0.106,0.248,0.142,-0.178,-0.018,0.195,0.179,0.304,0.239,0.27,0.215,0.121
0.046,0.17,0.124,-0.108,-0.039,0.147,0.163,0.172,0.123,0.139,0.129,0.063
-0.007,0.103,0.11,-0.049,-0.059,0.106,0.136,0.073,0.029,0.041,0.054,0.01
-0.034,0.06,0.094,-0.013,-0.064,0.077,0.099,-0.001,-0.035,-0.034,-0.006,-0.033
-0.057,0.027,0.083,0.015,-0.07,0.055,0.064,-0.047,-0.081,-0.083,-0.045,-0.06
-0.064,0.011,0.075,0.026,-0.07,0.043,0.049,-0.065,-0.12,-0.114,-0.07,-0.077
-0.074,-0.005,0.069,0.039,-0.072,0.032,0.041,-0.079,-0.132,-0.128,-0.09,-0.088
-0.074,-0.011,0.063,0.042,-0.068,0.026,0.029,-0.087,-0.13,-0.13,-0.096,-0.091
-0.067,-0.012,0.055,0.04,-0.061,0.021,0.021,-0.091,-0.125,-0.13,-0.094,-0.09
-0.069,-0.017,0.052,0.043,-0.06,0.017,0.02,-0.1,-0.12,-0.125,-0.095,-0.09
-0.054,-0.019,0.035,0.037,-0.045,0.008,0.02,-0.094,-0.116,-0.122,-0.095,-0.09
-0.057,-0.017,0.04,0.037,-0.048,0.011,0.015,-0.089,-0.111,-0.118,-0.095,-0.09
-0.071,-0.014,0.057,0.042,-0.064,0.022,0.015,-0.082,-0.108,-0.115,-0.098,-0.09
-0.058,-0.011,0.047,0.034,-0.052,0.018,0.014,-0.08,-0.103,-0.11,-0.1,-0.09
-0.054,-0.008,0.045,0.03,-0.049,0.018,0.009,-0.08,-0.097,-0.112,-0.1,-0.09
-0.045,-0.005,0.04,0.025,-0.042,0.017,0.011,-0.08,-0.094,-0.116,-0.1,-0.09
-0.04,-0.006,0.034,0.023,-0.037,0.014,0.007,-0.08,-0.089,-0.114,-0.1,-0.09
-0.051,-0.011,0.041,0.031,-0.046,0.015,0.004,-0.08,-0.085,-0.119,-0.1,-0.091
-0.041,-0.01,0.032,0.025,-0.037,0.011,0.005,-0.081,-0.093,-0.12,-0.1,-0.095
-0.051,-0.012,0.039,0.032,-0.045,0.013,0.001,-0.078,-0.1,-0.121,-0.1,-0.095
-0.07,-0.016,0.054,0.043,-0.061,0.019,-0.006,-0.093,-0.104,-0.125,-0.1,-0.097
-0.058,-0.014,0.043,0.035,-0.05,0.014,-0.013,-0.106,-0.118,-0.124,-0.1,-0.101
-0.057,-0.02,0.037,0.039,-0.047,0.008,-0.019,-0.115,-0.128,-0.13,-0.1,-0.1
-0.059,-0.029,0.031,0.044,-0.045,0.001,-0.026,-0.128,-0.137,-0.135,-0.103,-0.1
-0.057,-0.038,0.019,0.047,-0.038,-0.01,-0.031,-0.139,-0.149,-0.146,-0.106,-0.1
-0.072,-0.044,0.028,0.058,-0.05,-0.008,-0.035,-0.145,-0.153,-0.155,-0.109,-0.1
-0.085,-0.04,0.045,0.062,-0.065,0.002,-0.035,-0.159,-0.165,-0.162,-0.112,-0.1
-0.075,-0.04,0.035,0.057,-0.055,-0.002,-0.037,-0.173,-0.176,-0.172,-0.114,-0.1
-0.068,-0.04,0.028,0.054,-0.048,-0.006,-0.041,-0.169,-0.175,-0.17,-0.117,-0.1
-0.065,-0.04,0.025,0.052,-0.045,-0.007,-0.038,-0.171,-0.175,-0.167,-0.12,-0.1
-0.051,-0.04,0.011,0.045,-0.031,-0.014,-0.046,-0.169,-0.175,-0.165,-0.12,-0.1
-0.074,-0.044,0.03,0.059,-0.052,-0.007,-0.057,-0.17,-0.175,-0.163,-0.122,-0.1
-0.093,-0.045,0.048,0.069,-0.07,0.002,-0.054,-0.166,-0.171,-0.174,-0.125,-0.1
-0.084,-0.045,0.038,0.064,-0.061,-0.003,-0.055,-0.16,-0.166,-0.181,-0.125,-0.1
-0.078,-0.049,0.028,0.063,-0.053,-0.01,-0.056,-0.179,-0.161,-0.175,-0.121,-0.097
-0.075,-0.05,0.025,0.062,-0.05,-0.013,-0.053,-0.185,-0.159,-0.173,-0.12,-0.091
-0.076,-0.049,0.027,0.062,-0.051,-0.011,-0.06,-0.179,-0.151,-0.168,-0.12,-0.087
-0.063,-0.037,0.026,0.05,-0.045,-0.005,-0.062,-0.176,-0.154,-0.166,-0.12,-0.083
-0.057,-0.02,0.036,0.038,-0.046,0.008,-0.046,-0.17,-0.161,-0.161,-0.119,-0.078
-0.047,0.011,0.058,0.018,-0.053,0.034,-0.032,-0.162,-0.154,-0.152,-0.11,-0.074
-0.073,0.027,0.1,0.023,-0.087,0.063,-0.022,-0.144,-0.148,-0.143,-0.1,-0.066
-0.084,0.033,0.117,0.025,-0.1,0.075,-0.008,-0.139,-0.14,-0.136,-0.087,-0.059
-0.039,0.066,0.105,-0.013,-0.072,0.085,-0.033,-0.141,-0.131,-0.128,-0.069,-0.053
-0.036,0.085,0.122,-0.025,-0.079,0.103,-0.064,-0.137,-0.114,-0.124,-0.064,-0.052
-0.029,0.085,0.114,-0.028,-0.071,0.099,-0.057,-0.155,-0.126,-0.125,-0.064,-0.057
-0.002,0.056,0.058,-0.027,-0.03,0.057,-0.065,-0.162,-0.141,-0.114,-0.055,-0.052
-0.018,-0.01,0.008,0.014,-0.013,-0.001,-0.077,-0.162,-0.154,-0.15,-0.085,-0.063
-0.065,-0.067,-0.002,0.066,-0.031,-0.034,-0.076,-0.186,-0.167,-0.179,-0.115,-0.085
-0.071,-0.054,0.017,0.063,-0.044,-0.018,-0.064,-0.175,-0.164,-0.192,-0.12,-0.094
-0.073,-0.055,0.018,0.064,-0.045,-0.018,-0.075,-0.195,-0.182,-0.187,-0.13,-0.095
-0.077,-0.09,-0.013,0.084,-0.032,-0.051,-0.074,-0.205,-0.202,-0.201,-0.146,-0.103
-0.021,-0.071,-0.049,0.046,0.014,-0.06,-0.078,-0.212,-0.189,-0.196,-0.137,-0.1
-0.018,-0.089,-0.071,0.054,0.027,-0.08,-0.084,-0.206,-0.181,-0.201,-0.141,-0.109
-0.026,-0.071,-0.045,0.048,0.009,-0.058,-0.056,-0.182,-0.179,-0.215,-0.134,-0.107
-0.026,-0.103,-0.077,0.064,0.026,-0.089,-0.07,-0.2,-0.159,-0.19,-0.135,-0.112
-0.084,-0.11,-0.025,0.097,-0.029,-0.067,0.056,-0.019,-0.144,-0.241,-0.17,-0.134
-0.074,0.024,0.098,0.025,-0.086,0.061,0.117,0.213,0.139,-0.019,-0.059,-0.096
0.265,0.489,0.223,-0.377,0.021,0.356,0.006,0.291,0.709,0.664,0.535,0.314
0.65,1.098,0.448,-0.874,0.101,0.773,-0.386,-0.843,1.163,1.98,1.529,1.021
0.314,0.494,0.18,-0.404,0.067,0.337,-0.974,-2.372,0.287,1.427,1.034,0.737
-0.186,-0.369,-0.183,0.278,-0.001,-0.276,-1.024,-2.073,-1.235,-0.879,-0.376,-0.092
-0.205,-0.356,-0.151,0.281,-0.027,-0.253,-0.811,-1.206,-1.15,-1.074,-0.524,-0.214
-0.123,-0.231,-0.108,0.177,-0.007,-0.169,-0.507,-0.584,-0.503,-0.53,-0.313,-0.168
-0.053,-0.114,-0.061,0.084,0.004,-0.087,-0.154,-0.072,-0.248,-0.372,-0.209,-0.133
-0.024,-0.089,-0.065,0.057,0.021,-0.076,-0.056,0.023,-0.118,-0.207,-0.144,-0.101
-0.024,-0.081,-0.057,0.052,0.017,-0.069,-0.026,0.07,-0.133,-0.25,-0.166,-0.11
-0.024,-0.066,-0.041,0.045,0.009,-0.053,-0.013,0.081,-0.073,-0.17,-0.125,-0.09
-0.023,-0.07,-0.047,0.047,0.012,-0.058,0.001,0.093,-0.064,-0.167,-0.142,-0.095
-0.012,-0.053,-0.041,0.033,0.015,-0.046,0.017,0.104,-0.035,-0.113,-0.125,-0.079
-0.019,-0.054,-0.035,0.036,0.009,-0.044,0.022,0.116,-0.021,-0.104,-0.114,-0.078
-0.019,-0.037,-0.018,0.028,0.0,-0.028,0.034,0.151,-0.01,-0.096,-0.094,-0.068
0.002,-0.028,-0.031,0.013,0.017,-0.029,0.04,0.165,0.026,-0.064,-0.082,-0.06
0.022,-0.016,-0.037,-0.002,0.03,-0.026,0.056,0.204,0.059,-0.039,-0.057,-0.054
0.014,0.005,-0.009,-0.009,0.012,-0.002,0.075,0.256,0.104,0.01,-0.043,-0.038
0.024,0.045,0.021,-0.035,0.002,0.032,0.092,0.328,0.147,0.043,-0.029,-0.018
0.052,0.065,0.013,-0.059,0.019,0.039,0.108,0.415,0.222,0.104,0.012,0.003
0.092,0.094,0.001,-0.093,0.045,0.048,0.119,0.501,0.28,0.162,0.041,0.028
0.13,0.149,0.02,-0.14,0.055,0.084,0.156,0.594,0.362,0.247,0.109,0.072
0.152,0.197,0.046,-0.175,0.053,0.121,0.179,0.66,0.447,0.344,0.174,0.108
0.188,0.241,0.052,-0.214,0.068,0.146,0.17,0.669,0.463,0.398,0.226,0.145
0.238,0.275,0.038,-0.257,0.1,0.156,0.167,0.633,0.462,0.425,0.268,0.165
0.229,0.29,0.062,-0.26,0.083,0.176,0.161,0.552,0.435,0.416,0.268,0.152
0.18,0.265,0.086,-0.223,0.047,0.175,0.158,0.407,0.335,0.342,0.236,0.139
0.127,0.199,0.072,-0.163,0.027,0.135,0.153,0.267,0.215,0.218,0.156,0.104
0.06,0.129,0.069,-0.095,-0.004,0.099,0.148,0.154,0.094,0.09,0.063,0.051
0.024,0.081,0.057,-0.053,-0.017,0.069,0.124,0.057,-0.001,-0.008,-0.004,0.006
-0.012,0.028,0.041,-0.008,-0.027,0.034,0.096,0.002,-0.046,-0.074,-0.057,-0.029
-0.027,-0.002,0.025,0.014,-0.026,0.011,0.08,-0.036,-0.096,-0.114,-0.103,-0.06
-0.028,-0.009,0.019,0.019,-0.024,0.005,0.056,-0.061,-0.117,-0.125,-0.112,-0.08
-0.044,-0.023,0.021,0.033,-0.032,-0.001,0.042,-0.065,-0.127,-0.139,-0.121,-0.08
-0.051,-0.033,0.018,0.042,-0.034,-0.008,0.037,-0.062,-0.131,-0.148,-0.141,-0.08
-0.062,-0.048,0.014,0.054,-0.038,-0.017,0.034,-0.053,-0.122,-0.142,-0.14,-0.08
-0.067,-0.05,0.016,0.058,-0.041,-0.017,0.031,-0.042,-0.121,-0.137,-0.14,-0.08
-0.058,-0.049,0.008,0.053,-0.033,-0.02,0.026,-0.031,-0.114,-0.132,-0.14,-0.078
-0.049,-0.051,-0.002,0.05,-0.023,-0.026,0.024,-0.018,-0.111,-0.126,-0.14,-0.074
-0.069,-0.049,0.019,0.059,-0.044,-0.015,0.02,-0.008,-0.106,-0.121,-0.138,-0.072
-0.067,-0.051,0.016,0.059,-0.042,-0.017,0.02,-0.005,-0.102,-0.127,-0.133,-0.069
-0.055,-0.047,0.008,0.051,-0.031,-0.02,0.017,-0.002,-0.099,-0.131,-0.13,-0.066
-0.074,-0.042,0.033,0.058,-0.053,-0.005,0.015,0.0,-0.096,-0.129,-0.127,-0.065
-0.064,-0.036,0.028,0.05,-0.046,-0.004,0.015,-0.007,-0.091,-0.13,-0.121,-0.065
-0.02,-0.031,-0.011,0.026,-0.004,-0.021,0.011,-0.018,-0.09,-0.13,-0.122,-0.065
-0.023,-0.024,-0.001,0.024,-0.011,-0.013,0.009,-0.027,-0.1,-0.13,-0.138,-0.065
-0.046,-0.021,0.025,0.033,-0.035,0.001,0.006,-0.04,-0.109,-0.126,-0.141,-0.065
-0.054,-0.035,0.019,0.044,-0.036,-0.008,0.003,-0.052,-0.112,-0.124,-0.139,-0.065
-0.057,-0.042,0.015,0.05,-0.036,-0.013,0.0,-0.057,-0.116,-0.132,-0.141,-0.068
-0.04,-0.043,-0.003,0.042,-0.018,-0.023,-0.001,-0.072,-0.124,-0.144,-0.139,-0.07
-0.058,-0.047,0.011,0.052,-0.034,-0.018,-0.01,-0.087,-0.136,-0.152,-0.141,-0.07
-0.057,-0.049,0.008,0.053,-0.033,-0.021,-0.028,-0.089,-0.139,-0.154,-0.138,-0.07
-0.026,-0.052,-0.026,0.04,0.0,-0.039,-0.031,-0.095,-0.147,-0.166,-0.15,-0.071
-0.021,-0.056,-0.035,0.038,0.008,-0.045,-0.03,-0.104,-0.156,-0.176,-0.162,-0.074
-0.023,-0.055,-0.032,0.039,0.005,-0.043,-0.027,-0.105,-0.154,-0.174,-0.159,-0.075
-0.032,-0.056,-0.024,0.044,-0.004,-0.04,-0.024,-0.119,-0.155,-0.178,-0.16,-0.075
-0.048,-0.066,-0.018,0.057,-0.015,-0.042,-0.025,-0.127,-0.155,-0.18,-0.16,-0.075
-0.053,-0.064,-0.011,0.059,-0.021,-0.037,-0.019,-0.124,-0.155,-0.18,-0.16,-0.075
-0.038,-0.06,-0.022,0.049,-0.008,-0.041,-0.025,-0.126,-0.157,-0.176,-0.163,-0.073
-0.023,-0.057,-0.034,0.04,0.006,-0.045,-0.041,-0.124,-0.161,-0.169,-0.166,-0.069
-0.023,-0.052,-0.03,0.037,0.004,-0.041,-0.04,-0.131,-0.162,-0.163,-0.164,-0.067
-0.025,-0.05,-0.026,0.038,0.0,-0.038,-0.04,-0.132,-0.155,-0.156,-0.156,-0.064
-0.004,-0.032,-0.028,0.018,0.012,-0.029,-0.039,-0.119,-0.146,-0.15,-0.148,-0.061
-0.009,-0.002,0.007,0.005,-0.008,0.002,-0.004,-0.11,-0.138,-0.144,-0.14,-0.059
-0.042,0.014,0.056,0.014,-0.049,0.035,0.021,-0.1,-0.126,-0.139,-0.131,-0.052
-0.04,0.024,0.064,0.008,-0.052,0.044,0.015,-0.096,-0.12,-0.14,-0.122,-0.037
-0.001,0.063,0.064,-0.031,-0.033,0.063,-0.012,-0.127,-0.12,-0.14,-0.114,-0.033
-0.004,0.079,0.083,-0.038,-0.044,0.081,-0.027,-0.148,-0.119,-0.139,-0.109,-0.035
-0.021,0.068,0.088,-0.024,-0.055,0.078,-0.026,-0.146,-0.123,-0.142,-0.112,-0.036
0.002,0.045,0.043,-0.024,-0.021,0.044,-0.046,-0.155,-0.115,-0.14,-0.107,-0.04
0.006,-0.014,-0.021,0.004,0.014,-0.017,-0.044,-0.154,-0.138,-0.163,-0.123,-0.04
-0.021,-0.071,-0.05,0.046,0.015,-0.06,-0.047,-0.166,-0.165,-0.186,-0.15,-0.06
-0.046,-0.096,-0.05,0.071,0.002,-0.073,-0.041,-0.164,-0.174,-0.209,-0.165,-0.083
-0.024,-0.089,-0.065,0.057,0.021,-0.077,-0.04,-0.172,-0.176,-0.193,-0.169,-0.083
-0.02,-0.097,-0.077,0.059,0.028,-0.087,-0.041,-0.173,-0.181,-0.205,-0.182,-0.086
-0.019,-0.102,-0.084,0.06,0.033,-0.093,-0.037,-0.174,-0.185,-0.211,-0.184,-0.087
-0.037,-0.131,-0.094,0.085,0.028,-0.112,-0.055,-0.182,-0.169,-0.198,-0.188,-0.097
-0.064,-0.116,-0.052,0.09,-0.006,-0.084,-0.039,-0.17,-0.182,-0.219,-0.2,-0.094
-0.064,-0.131,-0.068,0.098,0.002,-0.099,-0.062,-0.197,-0.148,-0.164,-0.187,-0.083
-0.077,-0.134,-0.057,0.106,-0.01,-0.095,0.062,-0.019,-0.145,-0.267,-0.229,-0.127
-0.03,0.002,0.033,0.014,-0.031,0.018,0.16,0.233,0.106,-0.092,-0.145,-0.116
0.231,0.434,0.203,-0.333,0.014,0.319,0.047,0.195,0.65,0.554,0.425,0.267
0.597,1.098,0.501,-0.848,0.048,0.799,-0.371,-0.914,1.282,2.04,1.515,0.975
0.349,0.599,0.25,-0.474,0.049,0.424,-0.975,-2.365,0.641,1.88,1.262,0.835
-0.128,-0.321,-0.193,0.225,0.033,-0.257,-1.046,-2.176,-1.228,-0.774,-0.28,0.006
-0.159,-0.364,-0.204,0.262,0.023,-0.284,-0.85,-1.286,-1.329,-1.264,-0.598,-0.206
-0.099,-0.267,-0.168,0.183,0.034,-0.217,-0.551,-0.655,-0.545,-0.582,-0.348,-0.151
-0.025,-0.141,-0.116,0.083,0.046,-0.128,-0.166,-0.117,-0.294,-0.45,-0.27,-0.111
-0.001,-0.091,-0.089,0.046,0.044,-0.09,-0.044,0.05,-0.102,-0.23,-0.177,-0.058
-0.008,-0.09,-0.082,0.049,0.037,-0.085,-0.001,0.063,-0.12,-0.274,-0.197,-0.078
-0.003,-0.069,-0.066,0.037,0.031,-0.067,0.022,0.078,-0.054,-0.181,-0.157,-0.063
-0.013,-0.079,-0.066,0.046,0.027,-0.072,0.035,0.104,-0.031,-0.185,-0.166,-0.068
-0.01,-0.06,-0.05,0.036,0.02,-0.055,0.054,0.114,-0.012,-0.155,-0.158,-0.064
-0.024,-0.066,-0.042,0.046,0.009,-0.054,0.051,0.12,0.008,-0.115,-0.141,-0.061
-0.001,-0.056,-0.056,0.029,0.028,-0.056,0.065,0.153,0.017,-0.107,-0.114,-0.047
0.018,-0.044,-0.062,0.013,0.04,-0.052,0.078,0.178,0.058,-0.076,-0.097,-0.032
0.023,-0.023,-0.045,0.0,0.034,-0.034,0.091,0.225,0.081,-0.057,-0.089,-0.023
0.043,-0.001,-0.044,-0.021,0.043,-0.022,0.1,0.28,0.126,-0.007,-0.067,-0.011
0.06,0.024,-0.036,-0.042,0.048,-0.005,0.114,0.347,0.185,0.033,-0.043,-0.003
0.073,0.044,-0.028,-0.058,0.05,0.008,0.145,0.445,0.267,0.106,0.001,0.011
0.098,0.074,-0.024,-0.086,0.061,0.025,0.177,0.547,0.352,0.179,0.047,0.037
0.143,0.131,-0.012,-0.136,0.077,0.059,0.198,0.651,0.447,0.268,0.098,0.073
0.189,0.186,-0.003,-0.188,0.096,0.091,0.215,0.731,0.538,0.364,0.153,0.107
0.208,0.221,0.014,-0.215,0.097,0.117,0.228,0.742,0.598,0.447,0.225,0.16
0.219,0.265,0.046,-0.242,0.087,0.155,0.226,0.717,0.605,0.484,0.275,0.188
0.229,0.279,0.05,-0.254,0.089,0.164,0.217,0.639,0.558,0.47,0.272,0.18
0.202,0.242,0.04,-0.222,0.081,0.14,0.212,0.477,0.435,0.382,0.236,0.165
0.155,0.19,0.035,-0.173,0.06,0.112,0.203,0.315,0.271,0.229,0.158,0.111
0.095,0.122,0.027,-0.109,0.034,0.075,0.178,0.178,0.12,0.084,0.06,0.053
0.039,0.058,0.019,-0.049,0.01,0.038,0.148,0.067,0.014,-0.018,-0.007,0.016
0.0,0.007,0.007,-0.004,-0.004,0.007,0.127,0.014,-0.059,-0.089,-0.066,-0.025
-0.013,-0.017,-0.004,0.015,-0.004,-0.01,0.099,-0.024,-0.106,-0.134,-0.101,-0.051
-0.017,-0.032,-0.015,0.025,-0.001,-0.023,0.078,-0.056,-0.119,-0.15,-0.116,-0.059
-0.021,-0.045,-0.024,0.033,0.002,-0.034,0.067,-0.059,-0.136,-0.164,-0.132,-0.06
-0.013,-0.045,-0.032,0.029,0.01,-0.039,0.054,-0.053,-0.137,-0.16,-0.13,-0.06
-0.009,-0.044,-0.035,0.027,0.013,-0.04,0.05,-0.045,-0.13,-0.152,-0.128,-0.06
-0.011,-0.047,-0.035,0.029,0.012,-0.041,0.05,-0.04,-0.128,-0.15,-0.125,-0.06
-0.024,-0.058,-0.034,0.042,0.005,-0.046,0.05,-0.029,-0.123,-0.14,-0.124,-0.06
-0.021,-0.061,-0.04,0.041,0.01,-0.05,0.05,-0.007,-0.111,-0.146,-0.129,-0.06
-0.009,-0.06,-0.05,0.035,0.02,-0.055,0.05,0.008,-0.096,-0.155,-0.131,-0.06
-0.018,-0.06,-0.042,0.039,0.012,-0.051,0.046,0.014,-0.086,-0.15,-0.127,-0.06
-0.024,-0.06,-0.036,0.042,0.005,-0.047,0.04,0.023,-0.085,-0.142,-0.123,-0.06
-0.029,-0.059,-0.03,0.044,0.001,-0.044,0.035,0.03,-0.085,-0.137,-0.12,-0.06
-0.032,-0.053,-0.021,0.042,-0.005,-0.037,0.029,0.038,-0.081,-0.128,-0.115,-0.06
-0.024,-0.048,-0.024,0.036,0.0,-0.036,0.023,0.043,-0.08,-0.126,-0.117,-0.056
-0.016,-0.042,-0.026,0.029,0.006,-0.034,0.019,0.041,-0.081,-0.131,-0.121,-0.052
-0.01,-0.037,-0.026,0.024,0.008,-0.031,0.014,0.036,-0.09,-0.134,-0.123,-0.048
-0.008,-0.03,-0.023,0.019,0.008,-0.026,0.011,0.033,-0.098,-0.14,-0.126,-0.045
-0.002,-0.037,-0.035,0.02,0.016,-0.035,0.008,0.03,-0.108,-0.143,-0.129,-0.039
0.005,-0.05,-0.055,0.023,0.03,-0.052,0.003,0.025,-0.124,-0.152,-0.13,-0.044
0.006,-0.05,-0.056,0.022,0.031,-0.052,0.0,0.027,-0.131,-0.154,-0.13,-0.055
0.003,-0.05,-0.053,0.024,0.028,-0.051,-0.005,0.03,-0.136,-0.163,-0.13,-0.059
-0.005,-0.055,-0.05,0.03,0.023,-0.052,-0.015,0.03,-0.152,-0.177,-0.13,-0.058
-0.004,-0.055,-0.051,0.03,0.024,-0.052,-0.025,0.03,-0.161,-0.174,-0.13,-0.054
-0.007,-0.055,-0.048,0.031,0.021,-0.051,-0.031,0.03,-0.16,-0.175,-0.129,-0.055
0.009,-0.055,-0.063,0.023,0.037,-0.059,-0.029,0.029,-0.16,-0.174,-0.133,-0.055
0.011,-0.055,-0.066,0.022,0.039,-0.06,-0.033,0.026,-0.16,-0.176,-0.135,-0.055
-0.013,-0.055,-0.042,0.034,0.015,-0.048,-0.035,0.025,-0.159,-0.173,-0.135,-0.055
-0.014,-0.055,-0.04,0.035,0.014,-0.047,-0.035,0.025,-0.16,-0.18,-0.139,-0.049
-0.029,-0.056,-0.027,0.043,-0.001,-0.041,-0.032,0.025,-0.159,-0.19,-0.14,-0.042
-0.012,-0.048,-0.036,0.03,0.013,-0.042,-0.028,0.024,-0.161,-0.183,-0.14,-0.036
0.003,-0.034,-0.037,0.015,0.02,-0.035,-0.022,0.031,-0.158,-0.177,-0.124,-0.029
-0.02,-0.019,0.001,0.019,-0.01,-0.008,0.008,0.05,-0.129,-0.158,-0.103,-0.023
-0.028,0.001,0.03,0.013,-0.029,0.015,0.042,0.061,-0.104,-0.143,-0.096,-0.017
-0.019,0.031,0.05,-0.006,-0.035,0.04,0.026,0.054,-0.105,-0.142,-0.091,-0.011
0.014,0.063,0.05,-0.039,-0.018,0.056,-0.018,0.042,-0.1,-0.137,-0.086,-0.004
0.009,0.08,0.071,-0.045,-0.031,0.075,-0.033,0.033,-0.101,-0.134,-0.079,0.002
0.005,0.085,0.08,-0.045,-0.038,0.083,-0.031,0.026,-0.124,-0.131,-0.077,0.009
0.036,0.061,0.024,-0.049,0.006,0.042,-0.046,0.018,-0.126,-0.129,-0.077,0.015
0.028,-0.016,-0.044,-0.006,0.036,-0.03,-0.042,0.014,-0.138,-0.16,-0.108,-0.006
0.001,-0.075,-0.076,0.037,0.039,-0.075,-0.027,0.0,-0.154,-0.175,-0.137,-0.044
0.0,-0.087,-0.087,0.044,0.044,-0.087,-0.024,-0.004,-0.164,-0.198,-0.148,-0.064
0.003,-0.091,-0.094,0.045,0.048,-0.092,-0.037,-0.016,-0.164,-0.198,-0.146,-0.061
-0.013,-0.106,-0.093,0.06,0.04,-0.1,-0.035,-0.025,-0.164,-0.212,-0.159,-0.068
-0.011,-0.095,-0.084,0.053,0.037,-0.09,-0.033,-0.042,-0.173,-0.213,-0.153,-0.063
0.01,-0.112,-0.122,0.052,0.067,-0.117,-0.04,-0.051,-0.172,-0.2,-0.154,-0.066
0.001,-0.103,-0.104,0.051,0.053,-0.104,-0.025,-0.034,-0.179,-0.23,-0.161,-0.067
-0.002,-0.112,-0.11,0.057,0.054,-0.11,-0.051,-0.063,-0.145,-0.177,-0.142,-0.058
-0.012,-0.114,-0.102,0.063,0.045,-0.107,0.069,0.095,-0.161,-0.268,-0.208,-0.104
-0.022,0.009,0.031,0.006,-0.026,0.019,0.165,0.319,0.092,-0.095,-0.125,-0.078
0.248,0.448,0.2,-0.348,0.023,0.324,0.049,0.187,0.632,0.546,0.436,0.287
0.607,1.155,0.548,-0.882,0.029,0.851,-0.452,-1.068,1.338,2.098,1.561,1.012
0.378,0.664,0.286,-0.522,0.046,0.475,-1.11,-2.469,0.792,2.031,1.379,0.912
-0.075,-0.334,-0.258,0.205,0.092,-0.296,-1.141,-2.144,-1.176,-0.71,-0.208,0.056
-0.135,-0.386,-0.252,0.261,0.059,-0.319,-0.886,-1.239,-1.353,-1.283,-0.575,-0.168
-0.054,-0.249,-0.195,0.152,0.071,-0.222,-0.54,-0.578,-0.525,-0.568,-0.319,-0.119
0.002,-0.123,-0.125,0.061,0.064,-0.124,-0.154,-0.042,-0.28,-0.454,-0.247,-0.103
0.039,-0.082,-0.12,0.022,0.08,-0.101,-0.023,0.105,-0.085,-0.221,-0.145,-0.054
0.026,-0.086,-0.112,0.03,0.07,-0.099,0.014,0.141,-0.096,-0.255,-0.157,-0.061
0.035,-0.062,-0.097,0.014,0.066,-0.079,0.032,0.157,-0.051,-0.173,-0.125,-0.046
0.048,-0.072,-0.12,0.012,0.085,-0.096,0.048,0.168,-0.035,-0.166,-0.132,-0.051
0.045,-0.052,-0.097,0.004,0.071,-0.074,0.059,0.189,-0.004,-0.132,-0.116,-0.041
0.052,-0.052,-0.103,0.0,0.078,-0.077,0.084,0.201,0.026,-0.101,-0.107,-0.041
0.066,-0.026,-0.092,-0.02,0.079,-0.059,0.092,0.226,0.028,-0.097,-0.097,-0.036
0.095,-0.014,-0.11,-0.04,0.103,-0.062,0.09,0.254,0.069,-0.056,-0.082,-0.024
0.084,-0.007,-0.091,-0.038,0.088,-0.049,0.102,0.291,0.103,-0.032,-0.07,-0.016
0.085,0.017,-0.068,-0.05,0.076,-0.025,0.111,0.346,0.153,0.019,-0.044,-0.005
0.104,0.04,-0.064,-0.072,0.084,-0.012,0.149,0.42,0.206,0.053,-0.008,0.013
0.13,0.07,-0.059,-0.1,0.094,0.005,0.183,0.524,0.298,0.117,0.023,0.03
0.148,0.106,-0.041,-0.127,0.094,0.032,0.202,0.626,0.388,0.188,0.063,0.051
0.155,0.146,-0.01,-0.151,0.082,0.068,0.232,0.731,0.488,0.282,0.122,0.085
0.211,0.198,-0.013,-0.204,0.112,0.092,0.259,0.804,0.587,0.388,0.189,0.128
0.241,0.25,0.01,-0.246,0.115,0.13,0.284,0.825,0.648,0.476,0.261,0.179
0.274,0.286,0.012,-0.28,0.131,0.149,0.291,0.798,0.66,0.511,0.287,0.203
0.243,0.294,0.051,-0.268,0.096,0.172,0.27,0.674,0.603,0.496,0.294,0.204
0.198,0.269,0.071,-0.234,0.063,0.17,0.239,0.504,0.479,0.418,0.267,0.177
0.172,0.204,0.032,-0.188,0.069,0.118,0.217,0.331,0.301,0.265,0.187,0.127
0.092,0.132,0.04,-0.112,0.026,0.086,0.194,0.187,0.138,0.111,0.092,0.085
0.054,0.076,0.022,-0.065,0.016,0.048,0.166,0.086,0.031,0.002,0.009,0.048
0.065,0.03,-0.034,-0.047,0.049,-0.002,0.14,0.012,-0.048,-0.071,-0.041,0.011
0.05,-0.007,-0.057,-0.021,0.053,-0.032,0.117,-0.034,-0.094,-0.114,-0.076,-0.009
0.029,-0.03,-0.058,0.001,0.044,-0.044,0.101,-0.057,-0.115,-0.14,-0.092,-0.016
0.043,-0.03,-0.072,-0.006,0.057,-0.051,0.085,-0.066,-0.123,-0.149,-0.097,-0.029
0.039,-0.031,-0.07,-0.004,0.054,-0.05,0.075,-0.071,-0.119,-0.151,-0.1,-0.035
0.038,-0.029,-0.067,-0.005,0.053,-0.048,0.066,-0.065,-0.114,-0.155,-0.103,-0.035
0.031,-0.035,-0.066,0.003,0.048,-0.05,0.058,-0.061,-0.11,-0.149,-0.105,-0.035
0.016,-0.046,-0.062,0.016,0.04,-0.054,0.048,-0.057,-0.105,-0.142,-0.1,-0.035
0.035,-0.041,-0.076,0.004,0.055,-0.058,0.041,-0.052,-0.101,-0.136,-0.1,-0.035
0.035,-0.039,-0.074,0.002,0.055,-0.056,0.052,-0.05,-0.095,-0.129,-0.1,-0.032
0.032,-0.035,-0.067,0.002,0.05,-0.05,0.054,-0.05,-0.088,-0.122,-0.1,-0.03
0.044,-0.031,-0.074,-0.006,0.059,-0.052,0.046,-0.047,-0.08,-0.122,-0.101,-0.03
0.015,-0.028,-0.043,0.007,0.029,-0.035,0.044,-0.044,-0.077,-0.126,-0.097,-0.03
0.004,-0.022,-0.026,0.01,0.015,-0.024,0.038,-0.046,-0.08,-0.125,-0.095,-0.03
0.05,-0.018,-0.068,-0.016,0.059,-0.043,0.034,-0.05,-0.08,-0.126,-0.095,-0.031
0.06,-0.014,-0.074,-0.023,0.067,-0.044,0.03,-0.056,-0.085,-0.125,-0.095,-0.035
0.036,-0.009,-0.044,-0.013,0.04,-0.026,0.025,-0.058,-0.084,-0.126,-0.095,-0.035
0.025,-0.005,-0.03,-0.01,0.028,-0.017,0.021,-0.064,-0.091,-0.13,-0.096,-0.035
0.052,-0.01,-0.062,-0.02,0.057,-0.036,0.016,-0.081,-0.098,-0.133,-0.1,-0.035
0.075,-0.014,-0.089,-0.03,0.083,-0.052,0.011,-0.093,-0.106,-0.138,-0.1,-0.034
0.063,-0.019,-0.083,-0.022,0.073,-0.05,0.008,-0.102,-0.125,-0.144,-0.1,-0.038
0.066,-0.023,-0.089,-0.021,0.077,-0.055,0.002,-0.109,-0.125,-0.156,-0.1,-0.04
0.06,-0.03,-0.09,-0.015,0.076,-0.059,-0.003,-0.117,-0.125,-0.161,-0.099,-0.04
0.05,-0.04,-0.09,-0.005,0.07,-0.065,-0.006,-0.126,-0.125,-0.159,-0.103,-0.04
0.054,-0.04,-0.094,-0.006,0.074,-0.066,-0.011,-0.132,-0.125,-0.16,-0.105,-0.04
0.056,-0.04,-0.095,-0.007,0.075,-0.067,-0.016,-0.139,-0.134,-0.16,-0.105,-0.04
0.054,-0.04,-0.094,-0.006,0.074,-0.066,-0.02,-0.14,-0.135,-0.16,-0.105,-0.035
0.05,-0.04,-0.09,-0.005,0.07,-0.065,-0.02,-0.14,-0.135,-0.16,-0.105,-0.035
0.052,-0.038,-0.09,-0.007,0.071,-0.064,-0.021,-0.14,-0.135,-0.16,-0.105,-0.034
0.056,-0.034,-0.09,-0.011,0.074,-0.062,-0.025,-0.14,-0.135,-0.16,-0.105,-0.03
0.054,-0.036,-0.09,-0.009,0.072,-0.062,-0.025,-0.14,-0.135,-0.16,-0.105,-0.03
0.056,-0.034,-0.09,-0.011,0.074,-0.062,-0.023,-0.138,-0.129,-0.16,-0.105,-0.028
0.057,-0.036,-0.093,-0.01,0.075,-0.064,-0.018,-0.131,-0.122,-0.158,-0.105,-0.023
0.062,-0.035,-0.096,-0.013,0.08,-0.065,-0.013,-0.126,-0.116,-0.153,-0.106,-0.02
0.067,-0.025,-0.091,-0.021,0.079,-0.058,-0.01,-0.12,-0.11,-0.148,-0.103,-0.017
0.053,-0.003,-0.056,-0.025,0.055,-0.029,0.006,-0.107,-0.102,-0.144,-0.094,-0.013
0.039,0.018,-0.021,-0.028,0.03,-0.002,0.031,-0.088,-0.099,-0.138,-0.087,-0.01
0.05,0.037,-0.014,-0.043,0.032,0.011,0.03,-0.082,-0.099,-0.135,-0.081,-0.004
0.08,0.085,0.005,-0.083,0.038,0.045,0.007,-0.101,-0.097,-0.14,-0.079,0.002
0.068,0.105,0.037,-0.087,0.015,0.071,-0.008,-0.117,-0.093,-0.139,-0.08,0.01
0.061,0.091,0.031,-0.076,0.015,0.061,-0.022,-0.119,-0.098,-0.141,-0.08,0.014
0.089,0.068,-0.021,-0.078,0.055,0.024,-0.037,-0.128,-0.096,-0.138,-0.08,0.025
0.101,0.02,-0.081,-0.06,0.091,-0.03,-0.034,-0.122,-0.109,-0.141,-0.08,0.017
0.083,-0.031,-0.114,-0.026,0.099,-0.072,-0.036,-0.131,-0.127,-0.145,-0.088,-0.017
0.025,-0.077,-0.102,0.026,0.064,-0.089,-0.035,-0.128,-0.13,-0.173,-0.121,-0.04
0.02,-0.072,-0.092,0.026,0.056,-0.082,-0.033,-0.134,-0.141,-0.179,-0.122,-0.036
0.04,-0.078,-0.118,0.019,0.08,-0.098,-0.039,-0.15,-0.144,-0.172,-0.116,-0.035
0.021,-0.082,-0.103,0.031,0.062,-0.092,-0.033,-0.133,-0.144,-0.184,-0.117,-0.037
0.041,-0.087,-0.128,0.023,0.085,-0.108,-0.053,-0.148,-0.128,-0.149,-0.1,-0.028
0.06,-0.096,-0.156,0.019,0.108,-0.125,-0.031,-0.116,-0.142,-0.19,-0.117,-0.036
0.042,-0.078,-0.12,0.019,0.081,-0.099,-0.057,-0.145,-0.114,-0.125,-0.08,-0.019
0.017,-0.114,-0.131,0.049,0.074,-0.122,0.035,-0.025,-0.132,-0.209,-0.146,-0.063
0.013,-0.039,-0.052,0.014,0.033,-0.046,0.153,0.234,0.029,-0.152,-0.133,-0.085
0.219,0.299,0.081,-0.259,0.069,0.19,0.1,0.326,0.52,0.343,0.276,0.179
0.621,1.055,0.434,-0.838,0.093,0.744,-0.225,-0.556,1.165,1.683,1.363,0.913
0.557,0.985,0.428,-0.771,0.064,0.706,-0.944,-2.275,1.01,2.38,1.721,1.147
0.075,-0.115,-0.19,0.02,0.133,-0.153,-1.154,-2.378,-0.732,-0.02,0.211,0.301
-0.099,-0.432,-0.333,0.266,0.117,-0.382,-0.9,-1.383,-1.404,-1.365,-0.574,-0.145
-0.047,-0.254,-0.207,0.15,0.081,-0.23,-0.6,-0.697,-0.612,-0.626,-0.299,-0.077
0.014,-0.147,-0.162,0.067,0.088,-0.154,-0.19,-0.083,-0.266,-0.434,-0.207,-0.082
0.055,-0.073,-0.128,0.009,0.091,-0.1,-0.025,0.107,-0.09,-0.231,-0.11,-0.033
0.07,-0.081,-0.151,0.006,0.11,-0.116,0.009,0.134,-0.063,-0.22,-0.127,-0.037
0.081,-0.046,-0.127,-0.017,0.104,-0.086,0.033,0.152,-0.048,-0.176,-0.101,-0.026
0.08,-0.048,-0.128,-0.016,0.104,-0.088,0.039,0.153,-0.014,-0.136,-0.095,-0.022
0.083,-0.034,-0.116,-0.024,0.1,-0.075,0.052,0.189,-0.006,-0.143,-0.088,-0.018
0.078,-0.031,-0.109,-0.023,0.094,-0.07,0.065,0.191,0.03,-0.092,-0.066,-0.009
0.094,-0.026,-0.12,-0.034,0.107,-0.073,0.079,0.214,0.035,-0.09,-0.061,-0.007
0.113,-0.014,-0.127,-0.049,0.121,-0.07,0.082,0.244,0.072,-0.043,-0.041,0.006
0.108,-0.006,-0.114,-0.051,0.111,-0.06,0.095,0.283,0.097,-0.028,-0.036,0.011
0.127,0.014,-0.113,-0.07,0.12,-0.05,0.117,0.333,0.146,0.01,-0.012,0.022
0.152,0.033,-0.119,-0.092,0.135,-0.043,0.132,0.402,0.194,0.04,0.014,0.034
0.145,0.062,-0.084,-0.103,0.114,-0.011,0.161,0.49,0.262,0.098,0.046,0.049
0.172,0.103,-0.069,-0.137,0.12,0.016,0.195,0.594,0.345,0.167,0.075,0.07
0.215,0.149,-0.066,-0.182,0.14,0.041,0.226,0.697,0.425,0.247,0.122,0.105
0.25,0.2,-0.05,-0.224,0.15,0.074,0.249,0.775,0.517,0.342,0.194,0.151
0.309,0.249,-0.06,-0.279,0.184,0.094,0.252,0.799,0.577,0.43,0.265,0.193
0.338,0.281,-0.057,-0.309,0.197,0.112,0.246,0.78,0.576,0.477,0.312,0.223
0.311,0.293,-0.018,-0.302,0.165,0.137,0.236,0.697,0.545,0.462,0.33,0.239
0.292,0.278,-0.014,-0.285,0.153,0.132,0.23,0.544,0.46,0.417,0.308,0.23
0.255,0.231,-0.024,-0.242,0.139,0.103,0.219,0.375,0.317,0.298,0.238,0.19
0.188,0.165,-0.023,-0.177,0.105,0.071,0.194,0.236,0.181,0.152,0.15,0.137
0.137,0.103,-0.034,-0.12,0.085,0.035,0.162,0.133,0.078,0.05,0.074,0.088
0.105,0.05,-0.055,-0.077,0.079,-0.002,0.133,0.058,0.009,-0.018,0.017,0.044
0.098,0.018,-0.079,-0.058,0.088,-0.03,0.112,0.01,-0.037,-0.064,-0.015,0.023
0.08,0.007,-0.073,-0.043,0.076,-0.033,0.097,-0.012,-0.067,-0.105,-0.038,0.018
0.071,-0.004,-0.075,-0.033,0.073,-0.039,0.088,-0.014,-0.078,-0.111,-0.053,0.01
0.092,-0.016,-0.108,-0.038,0.1,-0.061,0.078,-0.019,-0.074,-0.109,-0.059,0.005
0.094,-0.022,-0.116,-0.036,0.106,-0.069,0.068,-0.018,-0.072,-0.111,-0.065,-0.003
0.084,-0.028,-0.112,-0.028,0.098,-0.07,0.061,-0.01,-0.069,-0.109,-0.065,-0.003
0.076,-0.034,-0.11,-0.021,0.093,-0.072,0.056,-0.005,-0.066,-0.111,-0.065,0.001
0.074,-0.032,-0.106,-0.021,0.091,-0.069,0.051,0.003,-0.065,-0.106,-0.062,-0.001
0.079,-0.026,-0.105,-0.026,0.092,-0.065,0.045,0.009,-0.059,-0.104,-0.06,0.0
0.08,-0.021,-0.102,-0.029,0.091,-0.062,0.04,0.015,-0.054,-0.101,-0.06,0.0
0.081,-0.018,-0.099,-0.032,0.09,-0.058,0.036,0.021,-0.049,-0.098,-0.06,0.001
0.084,-0.012,-0.096,-0.036,0.09,-0.054,0.033,0.031,-0.044,-0.095,-0.06,0.004
0.082,-0.011,-0.093,-0.035,0.088,-0.052,0.03,0.032,-0.036,-0.096,-0.06,0.005
0.074,-0.016,-0.09,-0.029,0.082,-0.052,0.027,0.024,-0.038,-0.101,-0.065,0.005
0.076,-0.015,-0.091,-0.031,0.084,-0.053,0.025,0.016,-0.04,-0.099,-0.065,0.005
0.078,-0.018,-0.096,-0.03,0.087,-0.056,0.023,0.008,-0.04,-0.103,-0.065,0.005
0.074,-0.021,-0.094,-0.026,0.084,-0.057,0.018,0.001,-0.051,-0.106,-0.065,0.003
0.078,-0.02,-0.098,-0.029,0.088,-0.058,0.015,-0.007,-0.059,-0.104,-0.065,-0.002
0.08,-0.02,-0.1,-0.03,0.09,-0.06,0.012,-0.016,-0.076,-0.111,-0.067,-0.005
0.08,-0.02,-0.1,-0.03,0.09,-0.06,0.007,-0.024,-0.086,-0.116,-0.071,-0.008
0.084,-0.02,-0.104,-0.031,0.094,-0.062,0.004,-0.034,-0.09,-0.125,-0.075,-0.013
0.085,-0.02,-0.105,-0.032,0.095,-0.062,0.001,-0.045,-0.095,-0.135,-0.08,-0.015
0.085,-0.02,-0.105,-0.032,0.095,-0.062,-0.002,-0.053,-0.102,-0.14,-0.083,-0.01
0.085,-0.021,-0.105,-0.031,0.095,-0.063,-0.004,-0.058,-0.111,-0.145,-0.088,-0.01
0.077,-0.028,-0.104,-0.024,0.091,-0.066,-0.008,-0.061,-0.11,-0.144,-0.09,-0.01
0.073,-0.034,-0.106,-0.019,0.09,-0.07,-0.01,-0.064,-0.11,-0.146,-0.09,-0.01
0.074,-0.036,-0.11,-0.019,0.093,-0.072,-0.013,-0.067,-0.11,-0.15,-0.093,-0.01
0.071,-0.039,-0.11,-0.016,0.09,-0.075,-0.015,-0.07,-0.11,-0.15,-0.096,-0.012
0.068,-0.041,-0.11,-0.013,0.089,-0.075,-0.015,-0.069,-0.107,-0.148,-0.094,-0.015
0.065,-0.045,-0.11,-0.01,0.088,-0.077,-0.019,-0.065,-0.104,-0.144,-0.091,-0.015
0.066,-0.044,-0.11,-0.011,0.088,-0.076,-0.02,-0.065,-0.105,-0.145,-0.088,-0.015
0.067,-0.04,-0.107,-0.013,0.087,-0.073,-0.02,-0.065,-0.105,-0.145,-0.086,-0.015
0.064,-0.04,-0.104,-0.011,0.084,-0.071,-0.014,-0.065,-0.105,-0.145,-0.082,-0.015
0.068,-0.038,-0.106,-0.015,0.087,-0.072,-0.008,-0.066,-0.104,-0.145,-0.08,-0.009
0.07,-0.034,-0.104,-0.018,0.088,-0.069,-0.001,-0.06,-0.098,-0.138,-0.077,-0.002
0.069,-0.037,-0.106,-0.016,0.088,-0.071,0.006,-0.052,-0.095,-0.13,-0.071,0.004
0.081,-0.022,-0.103,-0.029,0.092,-0.062,0.013,-0.044,-0.091,-0.123,-0.067,0.011
0.083,0.012,-0.071,-0.047,0.077,-0.029,0.019,-0.034,-0.087,-0.115,-0.061,0.017
0.065,0.022,-0.043,-0.043,0.054,-0.01,0.036,-0.031,-0.084,-0.107,-0.054,0.023
0.073,0.036,-0.037,-0.054,0.055,-0.001,0.045,-0.034,-0.08,-0.105,-0.051,0.025
0.098,0.069,-0.029,-0.083,0.064,0.019,0.003,-0.046,-0.079,-0.102,-0.055,0.026
0.096,0.085,-0.011,-0.09,0.053,0.037,-0.011,-0.059,-0.074,-0.098,-0.054,0.027
0.093,0.076,-0.017,-0.084,0.055,0.029,-0.01,-0.068,-0.078,-0.097,-0.056,0.022
0.118,0.044,-0.074,-0.081,0.096,-0.015,-0.042,-0.079,-0.078,-0.092,-0.053,0.016
0.132,0.007,-0.125,-0.069,0.128,-0.059,-0.037,-0.071,-0.092,-0.119,-0.061,0.009
0.103,-0.04,-0.143,-0.031,0.123,-0.091,-0.042,-0.079,-0.12,-0.146,-0.087,0.004
0.075,-0.074,-0.149,0.0,0.112,-0.111,-0.038,-0.072,-0.132,-0.169,-0.107,-0.01
0.073,-0.066,-0.14,-0.003,0.106,-0.103,-0.041,-0.077,-0.131,-0.162,-0.105,-0.012
0.064,-0.088,-0.152,0.012,0.108,-0.119,-0.041,-0.08,-0.136,-0.165,-0.113,-0.029
0.053,-0.086,-0.138,0.017,0.096,-0.112,-0.03,-0.083,-0.14,-0.17,-0.109,-0.026
0.058,-0.092,-0.15,0.018,0.104,-0.121,-0.044,-0.1,-0.136,-0.153,-0.107,-0.025
0.063,-0.09,-0.153,0.014,0.108,-0.121,-0.016,-0.063,-0.142,-0.181,-0.116,-0.027
0.069,-0.084,-0.153,0.008,0.111,-0.118,-0.053,-0.103,-0.113,-0.131,-0.097,-0.019
0.038,-0.111,-0.149,0.037,0.094,-0.129,0.068,0.064,-0.11,-0.217,-0.163,-0.078
0.045,-0.011,-0.056,-0.017,0.05,-0.033,0.165,0.32,0.097,-0.093,-0.091,-0.064
0.344,0.364,0.02,-0.354,0.161,0.192,0.082,0.409,0.602,0.467,0.386,0.263
0.764,1.106,0.341,-0.936,0.211,0.724,-0.316,-0.637,1.16,1.75,1.436,1.021
0.622,0.852,0.23,-0.737,0.195,0.541,-1.056,-2.318,0.728,1.887,1.445,1.051
0.041,-0.219,-0.26,0.089,0.151,-0.239,-1.119,-2.117,-0.857,-0.416,-0.056,0.18
-0.038,-0.386,-0.348,0.212,0.156,-0.367,-0.826,-1.172,-1.185,-1.149,-0.527,-0.184
-0.04,-0.212,-0.172,0.126,0.066,-0.192,-0.499,-0.522,-0.474,-0.514,-0.258,-0.108
-0.215,-0.128,0.087,0.172,-0.151,-0.02,-0.106,0.035,-0.225,-0.382,-0.196,-0.012
-0.117,-0.071,0.047,0.094,-0.082,-0.012,-0.016,0.134,-0.174,-0.199,-0.108,0.018
-0.06,-0.101,-0.04,0.081,-0.01,-0.07,0.024,0.182,-0.215,-0.246,-0.155,-0.017
