-0.066,0.269,0.335,-0.102,-0.201,0.301,0.064,-0.205,-0.08,-0.13,-0.219,-0.155
-0.063,0.263,0.326,-0.1,-0.195,0.294,0.047,-0.22,-0.084,-0.13,-0.22,-0.155
-0.06,0.255,0.315,-0.097,-0.188,0.285,0.032,-0.261,-0.101,-0.129,-0.219,-0.154
-0.059,0.244,0.304,-0.093,-0.182,0.274,0.036,-0.267,-0.108,-0.134,-0.216,-0.155
-0.033,0.237,0.27,-0.103,-0.152,0.254,0.034,-0.26,-0.109,-0.134,-0.214,-0.154
-0.053,0.212,0.265,-0.08,-0.159,0.238,0.036,-0.262,-0.116,-0.135,-0.214,-0.156
-0.075,0.181,0.256,-0.053,-0.166,0.218,0.051,-0.252,-0.119,-0.147,-0.236,-0.17
-0.084,0.143,0.227,-0.029,-0.156,0.185,0.046,-0.259,-0.141,-0.171,-0.253,-0.179
-0.103,0.13,0.233,-0.014,-0.168,0.181,0.045,-0.251,-0.142,-0.178,-0.25,-0.188
-0.096,0.122,0.218,-0.013,-0.158,0.17,0.04,-0.279,-0.16,-0.173,-0.243,-0.188
-0.1,0.119,0.219,-0.01,-0.16,0.169,0.036,-0.256,-0.152,-0.179,-0.249,-0.193
-0.101,0.114,0.215,-0.007,-0.158,0.165,0.038,-0.252,-0.138,-0.169,-0.232,-0.185
-0.099,0.103,0.202,-0.002,-0.151,0.152,0.046,-0.234,-0.144,-0.183,-0.252,-0.2
-0.13,0.109,0.239,0.01,-0.185,0.174,0.135,-0.054,-0.032,-0.15,-0.284,-0.229
-0.122,0.09,0.212,0.016,-0.167,0.151,0.182,0.109,0.079,-0.089,-0.291,-0.227
0.06,0.34,0.28,-0.2,-0.11,0.31,0.047,0.018,0.223,0.162,-0.048,-0.071
0.323,0.66,0.338,-0.492,-0.008,0.499,-0.348,-1.217,-0.227,0.527,0.535,0.403
0.596,0.994,0.398,-0.795,0.098,0.696,-0.911,-2.851,-1.219,0.949,1.526,1.202
0.803,1.125,0.322,-0.964,0.24,0.724,-1.31,-3.4,-1.702,1.334,2.168,1.703
0.396,0.467,0.072,-0.432,0.162,0.269,-1.068,-2.86,-1.744,0.4,0.846,0.881
-0.22,-0.166,0.054,0.193,-0.137,-0.056,-0.458,-1.857,-1.504,-0.826,-0.575,-0.19
-0.315,-0.334,-0.019,0.324,-0.147,-0.176,-0.275,-1.341,-1.132,-0.841,-0.625,-0.387
-0.24,-0.251,-0.011,0.245,-0.114,-0.13,-0.181,-0.934,-0.694,-0.56,-0.518,-0.355
-0.165,-0.064,0.101,0.114,-0.133,0.018,0.013,-0.406,-0.272,-0.305,-0.352,-0.272
-0.094,0.044,0.137,0.025,-0.116,0.09,0.072,-0.175,-0.077,-0.169,-0.268,-0.204
-0.086,0.097,0.183,-0.005,-0.135,0.139,0.108,-0.06,0.006,-0.133,-0.237,-0.179
-0.066,0.109,0.175,-0.022,-0.12,0.142,0.11,-0.016,0.043,-0.087,-0.193,-0.159
-0.044,0.13,0.174,-0.043,-0.109,0.151,0.11,0.015,0.075,-0.076,-0.197,-0.167
-0.028,0.141,0.168,-0.057,-0.098,0.154,0.111,0.039,0.1,-0.036,-0.168,-0.157
-0.018,0.145,0.163,-0.064,-0.091,0.154,0.121,0.06,0.123,-0.022,-0.163,-0.152
-0.011,0.149,0.16,-0.069,-0.085,0.154,0.128,0.094,0.148,0.0,-0.138,-0.126
0.005,0.182,0.177,-0.094,-0.086,0.18,0.12,0.109,0.171,0.008,-0.126,-0.115
0.014,0.199,0.185,-0.107,-0.086,0.191,0.12,0.137,0.199,0.026,-0.109,-0.105
0.018,0.192,0.174,-0.105,-0.078,0.183,0.115,0.168,0.234,0.057,-0.096,-0.094
0.025,0.198,0.172,-0.112,-0.074,0.185,0.115,0.21,0.274,0.082,-0.083,-0.084
0.039,0.202,0.164,-0.121,-0.063,0.183,0.108,0.259,0.318,0.115,-0.061,-0.071
0.064,0.225,0.161,-0.145,-0.048,0.193,0.098,0.327,0.375,0.149,-0.036,-0.059
0.075,0.227,0.152,-0.151,-0.039,0.189,0.09,0.401,0.433,0.188,-0.007,-0.038
0.115,0.257,0.142,-0.186,-0.014,0.199,0.08,0.47,0.497,0.227,0.02,-0.014
0.155,0.287,0.133,-0.221,0.011,0.21,0.072,0.558,0.56,0.279,0.06,0.013
0.165,0.287,0.122,-0.226,0.021,0.204,0.059,0.635,0.613,0.326,0.1,0.04
0.2,0.32,0.12,-0.26,0.04,0.22,0.043,0.694,0.662,0.37,0.138,0.073
0.224,0.341,0.117,-0.283,0.053,0.229,0.026,0.716,0.666,0.394,0.173,0.102
0.258,0.371,0.114,-0.315,0.072,0.242,0.01,0.705,0.65,0.382,0.196,0.123
0.273,0.384,0.111,-0.328,0.08,0.247,-0.006,0.692,0.618,0.38,0.207,0.14
0.253,0.362,0.109,-0.307,0.072,0.235,-0.005,0.635,0.545,0.364,0.206,0.138
0.223,0.35,0.127,-0.286,0.048,0.238,0.006,0.536,0.456,0.309,0.19,0.132
0.167,0.321,0.153,-0.244,0.007,0.237,0.009,0.43,0.359,0.248,0.147,0.112
0.117,0.277,0.16,-0.197,-0.022,0.218,0.024,0.32,0.262,0.185,0.094,0.069
0.068,0.227,0.16,-0.147,-0.046,0.193,0.042,0.207,0.18,0.117,0.04,0.02
0.019,0.18,0.16,-0.1,-0.071,0.17,0.057,0.113,0.106,0.063,-0.011,-0.023
-0.019,0.141,0.159,-0.061,-0.089,0.15,0.07,0.031,0.035,0.014,-0.048,-0.053
-0.039,0.121,0.16,-0.041,-0.1,0.14,0.071,-0.035,-0.015,-0.031,-0.079,-0.083
-0.046,0.113,0.159,-0.034,-0.103,0.136,0.075,-0.076,-0.054,-0.06,-0.103,-0.095
-0.051,0.102,0.153,-0.026,-0.103,0.128,0.075,-0.107,-0.089,-0.08,-0.116,-0.098
-0.053,0.093,0.146,-0.02,-0.099,0.119,0.075,-0.112,-0.103,-0.089,-0.123,-0.103
-0.05,0.089,0.139,-0.02,-0.094,0.114,0.075,-0.104,-0.1,-0.096,-0.123,-0.105
-0.046,0.086,0.132,-0.02,-0.089,0.108,0.075,-0.1,-0.096,-0.099,-0.119,-0.105
-0.039,0.082,0.122,-0.022,-0.081,0.102,0.075,-0.094,-0.093,-0.093,-0.12,-0.105
-0.052,0.079,0.131,-0.014,-0.092,0.105,0.075,-0.089,-0.088,-0.087,-0.12,-0.105
-0.065,0.075,0.141,-0.005,-0.104,0.108,0.08,-0.078,-0.085,-0.081,-0.12,-0.105
-0.058,0.075,0.133,-0.009,-0.096,0.104,0.08,-0.065,-0.079,-0.076,-0.12,-0.11
-0.055,0.075,0.13,-0.01,-0.093,0.102,0.08,-0.056,-0.062,-0.071,-0.116,-0.11
-0.05,0.075,0.125,-0.013,-0.088,0.1,0.08,-0.055,-0.053,-0.07,-0.115,-0.11
-0.046,0.074,0.12,-0.014,-0.084,0.097,0.08,-0.055,-0.055,-0.07,-0.115,-0.11
-0.039,0.077,0.116,-0.02,-0.078,0.096,0.078,-0.055,-0.055,-0.07,-0.115,-0.11
-0.035,0.08,0.115,-0.023,-0.075,0.097,0.073,-0.055,-0.056,-0.069,-0.115,-0.108
-0.034,0.08,0.114,-0.023,-0.074,0.096,0.07,-0.057,-0.054,-0.072,-0.117,-0.104
-0.038,0.08,0.118,-0.022,-0.078,0.098,0.067,-0.059,-0.064,-0.083,-0.121,-0.106
-0.045,0.08,0.125,-0.018,-0.085,0.102,0.062,-0.067,-0.074,-0.087,-0.123,-0.101
-0.045,0.08,0.125,-0.018,-0.085,0.102,0.06,-0.078,-0.092,-0.095,-0.126,-0.1
-0.051,0.074,0.125,-0.012,-0.088,0.099,0.065,-0.084,-0.106,-0.105,-0.129,-0.1
-0.056,0.068,0.124,-0.006,-0.09,0.095,0.065,-0.091,-0.104,-0.111,-0.131,-0.095
-0.073,0.06,0.133,0.006,-0.103,0.097,0.065,-0.097,-0.109,-0.115,-0.134,-0.095
-0.083,0.054,0.138,0.014,-0.111,0.096,0.065,-0.1,-0.11,-0.115,-0.135,-0.095
-0.081,0.047,0.128,0.017,-0.105,0.088,0.065,-0.1,-0.121,-0.115,-0.136,-0.095
-0.079,0.043,0.122,0.018,-0.101,0.083,0.063,-0.1,-0.126,-0.115,-0.14,-0.094
-0.058,0.057,0.115,0.0,-0.086,0.086,0.059,-0.1,-0.124,-0.115,-0.14,-0.098
-0.044,0.061,0.105,-0.009,-0.075,0.083,0.061,-0.096,-0.122,-0.115,-0.138,-0.103
-0.057,0.06,0.117,-0.002,-0.087,0.088,0.056,-0.095,-0.119,-0.119,-0.133,-0.099
-0.068,0.065,0.133,0.002,-0.101,0.098,0.055,-0.094,-0.12,-0.12,-0.13,-0.1
-0.061,0.065,0.126,-0.002,-0.094,0.095,0.055,-0.091,-0.115,-0.12,-0.127,-0.1
-0.061,0.064,0.125,-0.002,-0.093,0.095,0.05,-0.089,-0.115,-0.12,-0.122,-0.1
-0.064,0.057,0.122,0.003,-0.093,0.089,0.05,-0.091,-0.114,-0.121,-0.119,-0.1
-0.067,0.053,0.119,0.007,-0.093,0.086,0.05,-0.097,-0.124,-0.127,-0.133,-0.095
-0.077,0.047,0.124,0.014,-0.101,0.086,0.051,-0.097,-0.131,-0.124,-0.139,-0.095
-0.084,0.041,0.125,0.021,-0.105,0.083,0.048,-0.09,-0.125,-0.121,-0.13,-0.094
-0.089,0.036,0.125,0.026,-0.107,0.08,0.062,-0.087,-0.123,-0.118,-0.125,-0.089
-0.087,0.038,0.125,0.024,-0.106,0.081,0.076,-0.083,-0.118,-0.115,-0.117,-0.09
-0.077,0.047,0.125,0.015,-0.101,0.086,0.077,-0.077,-0.115,-0.114,-0.112,-0.087
-0.071,0.058,0.129,0.006,-0.1,0.093,0.081,-0.074,-0.11,-0.105,-0.106,-0.079
-0.061,0.091,0.152,-0.015,-0.107,0.121,0.084,-0.055,-0.099,-0.095,-0.096,-0.073
-0.078,0.111,0.188,-0.017,-0.133,0.149,0.1,-0.048,-0.092,-0.085,-0.085,-0.066
-0.056,0.13,0.186,-0.037,-0.121,0.157,0.097,-0.048,-0.094,-0.083,-0.079,-0.061
-0.009,0.153,0.162,-0.073,-0.085,0.157,0.064,-0.054,-0.097,-0.085,-0.076,-0.059
-0.029,0.147,0.177,-0.059,-0.103,0.162,0.031,-0.084,-0.1,-0.084,-0.072,-0.055
-0.031,0.134,0.165,-0.052,-0.098,0.15,0.015,-0.087,-0.104,-0.09,-0.069,-0.053
-0.015,0.131,0.146,-0.058,-0.081,0.139,0.035,-0.07,-0.105,-0.09,-0.064,-0.048
-0.021,0.112,0.133,-0.046,-0.077,0.122,0.047,-0.071,-0.105,-0.091,-0.071,-0.056
-0.021,0.077,0.098,-0.028,-0.06,0.087,0.044,-0.055,-0.108,-0.101,-0.089,-0.074
-0.044,0.049,0.093,-0.003,-0.069,0.071,0.046,-0.061,-0.136,-0.113,-0.101,-0.08
-0.066,0.019,0.086,0.023,-0.076,0.052,0.044,-0.051,-0.145,-0.126,-0.115,-0.089
-0.082,-0.004,0.078,0.043,-0.08,0.037,0.047,-0.049,-0.147,-0.124,-0.109,-0.091
-0.081,-0.011,0.07,0.046,-0.075,0.029,0.038,-0.051,-0.16,-0.133,-0.115,-0.097
-0.073,-0.007,0.066,0.04,-0.069,0.029,0.046,-0.031,-0.147,-0.117,-0.103,-0.093
-0.1,-0.026,0.075,0.062,-0.087,0.024,0.047,-0.054,-0.16,-0.117,-0.106,-0.095
-0.094,-0.013,0.081,0.053,-0.087,0.034,0.114,0.1,-0.058,-0.108,-0.133,-0.123
-0.113,-0.026,0.087,0.07,-0.1,0.03,0.2,0.255,0.036,-0.064,-0.155,-0.163
-0.006,0.129,0.134,-0.062,-0.071,0.131,0.124,0.337,0.209,0.105,-0.031,-0.082
0.277,0.439,0.163,-0.358,0.057,0.301,-0.196,-0.486,0.039,0.456,0.447,0.312
0.514,0.754,0.241,-0.635,0.136,0.497,-0.736,-2.278,-0.926,0.762,1.253,0.998
0.818,1.025,0.207,-0.922,0.305,0.616,-1.217,-3.209,-1.613,1.169,2.136,1.713
0.632,0.567,-0.064,-0.6,0.348,0.251,-1.185,-2.924,-1.741,0.738,1.44,1.304
-0.075,-0.167,-0.092,0.121,0.009,-0.13,-0.575,-1.93,-1.576,-0.518,-0.182,0.109
-0.328,-0.452,-0.123,0.39,-0.102,-0.287,-0.241,-1.216,-1.231,-0.862,-0.542,-0.309
-0.262,-0.42,-0.158,0.341,-0.052,-0.289,-0.209,-0.861,-0.824,-0.58,-0.416,-0.281
-0.188,-0.222,-0.034,0.205,-0.077,-0.127,-0.019,-0.304,-0.366,-0.336,-0.288,-0.22
-0.109,-0.103,0.006,0.106,-0.057,-0.048,0.075,0.017,-0.121,-0.148,-0.16,-0.14
-0.117,-0.046,0.071,0.081,-0.094,0.012,0.107,0.153,-0.027,-0.081,-0.136,-0.119
-0.089,-0.012,0.078,0.05,-0.083,0.033,0.113,0.224,0.029,-0.047,-0.088,-0.086
-0.044,0.014,0.058,0.015,-0.051,0.035,0.107,0.249,0.054,-0.04,-0.094,-0.085
-0.03,0.036,0.066,-0.003,-0.049,0.051,0.113,0.278,0.08,-0.022,-0.07,-0.068
-0.041,0.031,0.072,0.005,-0.057,0.051,0.107,0.297,0.102,0.002,-0.067,-0.063
-0.042,0.028,0.069,0.007,-0.056,0.048,0.112,0.324,0.123,0.032,-0.053,-0.054
-0.018,0.042,0.06,-0.013,-0.039,0.051,0.104,0.343,0.15,0.044,-0.031,-0.045
-0.008,0.05,0.058,-0.021,-0.033,0.054,0.103,0.375,0.177,0.058,-0.017,-0.04
0.009,0.058,0.05,-0.034,-0.021,0.054,0.099,0.401,0.203,0.082,0.0,-0.029
0.02,0.075,0.055,-0.048,-0.018,0.065,0.096,0.432,0.236,0.104,0.011,-0.025
0.036,0.09,0.054,-0.063,-0.01,0.072,0.093,0.484,0.28,0.132,0.032,-0.008
0.084,0.132,0.048,-0.108,0.018,0.09,0.082,0.539,0.332,0.159,0.056,0.013
0.098,0.143,0.045,-0.121,0.026,0.093,0.073,0.607,0.387,0.197,0.077,0.028
0.105,0.145,0.04,-0.125,0.032,0.092,0.059,0.68,0.436,0.235,0.106,0.045
0.133,0.169,0.036,-0.151,0.049,0.102,0.042,0.753,0.491,0.272,0.139,0.066
0.16,0.191,0.031,-0.176,0.064,0.111,0.026,0.826,0.55,0.317,0.171,0.095
0.202,0.227,0.024,-0.215,0.089,0.125,0.01,0.889,0.59,0.356,0.206,0.123
0.232,0.249,0.018,-0.241,0.107,0.133,-0.006,0.934,0.62,0.383,0.237,0.153
0.263,0.273,0.011,-0.268,0.126,0.142,-0.028,0.931,0.629,0.394,0.263,0.175
0.283,0.286,0.004,-0.285,0.139,0.145,-0.041,0.913,0.59,0.381,0.277,0.193
0.273,0.275,0.002,-0.274,0.135,0.138,-0.034,0.879,0.526,0.364,0.287,0.216
0.242,0.264,0.022,-0.253,0.109,0.143,-0.026,0.791,0.458,0.33,0.277,0.213
0.18,0.235,0.055,-0.208,0.062,0.145,-0.018,0.687,0.363,0.276,0.251,0.186
0.138,0.2,0.062,-0.169,0.038,0.13,-0.01,0.57,0.274,0.216,0.204,0.14
0.104,0.159,0.056,-0.132,0.024,0.107,0.0,0.445,0.192,0.152,0.143,0.09
0.055,0.11,0.055,-0.083,0.0,0.082,0.025,0.344,0.105,0.098,0.092,0.05
0.014,0.064,0.05,-0.039,-0.018,0.057,0.046,0.25,0.043,0.049,0.049,0.014
-0.022,0.028,0.05,-0.003,-0.036,0.039,0.045,0.184,-0.006,0.011,0.018,-0.011
-0.047,0.018,0.064,0.014,-0.056,0.041,0.045,0.142,-0.053,-0.024,-0.003,-0.023
-0.05,0.023,0.073,0.013,-0.062,0.048,0.045,0.097,-0.098,-0.055,-0.018,-0.031
-0.058,0.005,0.063,0.026,-0.06,0.034,0.045,0.079,-0.122,-0.066,-0.03,-0.04
-0.075,-0.024,0.052,0.049,-0.063,0.014,0.045,0.08,-0.131,-0.077,-0.039,-0.05
-0.066,-0.026,0.04,0.046,-0.052,0.007,0.056,0.08,-0.13,-0.08,-0.041,-0.055
-0.055,-0.024,0.031,0.04,-0.043,0.003,0.066,0.08,-0.119,-0.074,-0.044,-0.055
-0.053,-0.026,0.028,0.039,-0.04,0.001,0.064,0.089,-0.111,-0.072,-0.046,-0.055
-0.049,-0.024,0.024,0.036,-0.036,0.0,0.067,0.107,-0.101,-0.067,-0.05,-0.055
-0.046,-0.026,0.021,0.036,-0.033,-0.002,0.07,0.121,-0.088,-0.064,-0.049,-0.055
-0.037,-0.021,0.016,0.029,-0.026,-0.002,0.07,0.135,-0.078,-0.061,-0.045,-0.053
-0.034,-0.019,0.014,0.026,-0.024,-0.002,0.068,0.136,-0.075,-0.058,-0.046,-0.05
-0.025,-0.021,0.004,0.023,-0.015,-0.008,0.063,0.129,-0.076,-0.056,-0.043,-0.05
-0.025,-0.019,0.007,0.022,-0.016,-0.006,0.06,0.126,-0.071,-0.052,-0.04,-0.05
-0.049,-0.022,0.027,0.035,-0.038,0.003,0.057,0.121,-0.069,-0.05,-0.04,-0.05
-0.047,-0.016,0.03,0.032,-0.038,0.007,0.052,0.116,-0.071,-0.053,-0.044,-0.05
-0.051,-0.021,0.03,0.036,-0.04,0.004,0.049,0.112,-0.068,-0.061,-0.045,-0.05
-0.071,-0.04,0.03,0.055,-0.05,-0.005,0.046,0.106,-0.077,-0.067,-0.045,-0.05
-0.07,-0.04,0.03,0.055,-0.05,-0.005,0.041,0.101,-0.085,-0.073,-0.044,-0.05
-0.07,-0.039,0.03,0.055,-0.05,-0.004,0.038,0.096,-0.088,-0.083,-0.047,-0.05
-0.062,-0.035,0.026,0.048,-0.043,-0.005,0.035,0.09,-0.106,-0.09,-0.054,-0.049
-0.06,-0.035,0.025,0.047,-0.042,-0.005,0.03,0.085,-0.114,-0.09,-0.058,-0.053
-0.059,-0.034,0.025,0.046,-0.042,-0.005,0.033,0.08,-0.115,-0.09,-0.06,-0.055
-0.058,-0.038,0.02,0.048,-0.039,-0.009,0.036,0.076,-0.115,-0.09,-0.06,-0.055
-0.07,-0.05,0.02,0.06,-0.045,-0.015,0.034,0.073,-0.115,-0.089,-0.06,-0.059
-0.07,-0.051,0.019,0.06,-0.044,-0.016,0.035,0.069,-0.115,-0.092,-0.06,-0.061
-0.071,-0.056,0.015,0.063,-0.042,-0.021,0.034,0.065,-0.114,-0.095,-0.06,-0.059
-0.067,-0.052,0.015,0.059,-0.041,-0.018,0.036,0.065,-0.117,-0.095,-0.065,-0.055
-0.063,-0.05,0.013,0.056,-0.038,-0.018,0.032,0.065,-0.12,-0.095,-0.065,-0.055
-0.055,-0.046,0.009,0.051,-0.032,-0.018,0.029,0.065,-0.12,-0.095,-0.065,-0.054
-0.056,-0.046,0.01,0.051,-0.033,-0.017,0.03,0.065,-0.12,-0.095,-0.065,-0.05
-0.074,-0.063,0.01,0.069,-0.041,-0.026,0.029,0.065,-0.12,-0.09,-0.064,-0.05
-0.076,-0.066,0.01,0.071,-0.043,-0.027,0.031,0.064,-0.12,-0.089,-0.068,-0.05
-0.089,-0.065,0.025,0.077,-0.056,-0.02,0.027,0.061,-0.124,-0.091,-0.068,-0.05
-0.09,-0.065,0.025,0.078,-0.057,-0.02,0.038,0.059,-0.125,-0.088,-0.064,-0.05
-0.081,-0.065,0.016,0.073,-0.048,-0.024,0.052,0.055,-0.124,-0.101,-0.065,-0.05
-0.071,-0.064,0.007,0.067,-0.039,-0.028,0.049,0.053,-0.126,-0.108,-0.065,-0.05
-0.059,-0.058,0.001,0.059,-0.03,-0.029,0.05,0.048,-0.122,-0.097,-0.065,-0.05
-0.067,-0.051,0.016,0.059,-0.041,-0.018,0.05,0.054,-0.113,-0.09,-0.065,-0.045
-0.062,-0.049,0.014,0.055,-0.038,-0.017,0.05,0.069,-0.104,-0.083,-0.058,-0.038
-0.054,-0.03,0.024,0.041,-0.038,-0.003,0.057,0.083,-0.096,-0.075,-0.05,-0.032
-0.037,0.006,0.043,0.015,-0.04,0.025,0.074,0.095,-0.088,-0.066,-0.04,-0.025
-0.028,0.028,0.056,0.0,-0.043,0.042,0.074,0.094,-0.086,-0.054,-0.037,-0.018
-0.022,0.046,0.068,-0.012,-0.045,0.057,0.052,0.087,-0.091,-0.047,-0.041,-0.013
-0.01,0.044,0.054,-0.018,-0.032,0.049,0.043,0.061,-0.088,-0.049,-0.039,-0.01
-0.014,0.032,0.045,-0.009,-0.03,0.038,0.037,0.042,-0.095,-0.053,-0.04,-0.006
-0.015,0.018,0.033,-0.002,-0.024,0.025,0.033,0.056,-0.095,-0.058,-0.04,-0.003
-0.018,0.0,0.018,0.009,-0.018,0.009,0.026,0.049,-0.095,-0.061,-0.039,0.001
-0.04,-0.035,0.005,0.037,-0.023,-0.015,0.021,0.047,-0.111,-0.07,-0.052,-0.012
-0.081,-0.083,-0.002,0.082,-0.039,-0.043,0.024,0.047,-0.121,-0.084,-0.062,-0.027
-0.094,-0.104,-0.01,0.1,-0.042,-0.057,0.024,0.036,-0.137,-0.099,-0.08,-0.044
-0.085,-0.1,-0.014,0.093,-0.035,-0.057,0.027,0.049,-0.134,-0.093,-0.078,-0.055
-0.081,-0.105,-0.024,0.093,-0.028,-0.064,0.021,0.03,-0.147,-0.093,-0.081,-0.056
-0.069,-0.096,-0.027,0.083,-0.021,-0.062,0.03,0.065,-0.131,-0.089,-0.081,-0.056
-0.059,-0.101,-0.042,0.08,-0.008,-0.071,0.017,0.028,-0.149,-0.082,-0.075,-0.051
-0.062,-0.112,-0.049,0.088,-0.006,-0.08,0.053,0.118,-0.088,-0.087,-0.096,-0.068
-0.101,-0.128,-0.027,0.114,-0.037,-0.077,0.147,0.301,0.034,-0.056,-0.115,-0.108
-0.058,-0.051,0.007,0.054,-0.033,-0.022,0.134,0.425,0.169,0.055,-0.078,-0.098
0.194,0.237,0.043,-0.216,0.075,0.14,-0.078,0.11,0.248,0.4,0.303,0.2
0.438,0.536,0.098,-0.487,0.169,0.317,-0.55,-1.501,-0.524,0.689,0.99,0.805
0.704,0.878,0.173,-0.791,0.265,0.525,-1.07,-2.87,-1.436,1.079,1.999,1.62
0.726,0.718,-0.008,-0.722,0.367,0.354,-1.237,-2.924,-1.702,1.042,1.929,1.657
0.105,-0.018,-0.124,-0.043,0.115,-0.071,-0.785,-2.165,-1.653,-0.137,0.263,0.502
-0.316,-0.45,-0.134,0.383,-0.091,-0.292,-0.301,-1.285,-1.327,-0.83,-0.527,-0.219
-0.279,-0.524,-0.245,0.401,-0.016,-0.384,-0.245,-0.941,-0.972,-0.675,-0.445,-0.261
-0.216,-0.386,-0.169,0.301,-0.023,-0.277,-0.132,-0.479,-0.533,-0.424,-0.351,-0.224
-0.116,-0.232,-0.116,0.175,0.0,-0.174,0.014,-0.013,-0.169,-0.166,-0.171,-0.12
-0.085,-0.15,-0.066,0.118,-0.009,-0.108,0.046,0.149,-0.038,-0.096,-0.14,-0.089
-0.068,-0.103,-0.035,0.086,-0.017,-0.069,0.069,0.246,0.037,-0.043,-0.088,-0.057
-0.03,-0.096,-0.066,0.063,0.018,-0.081,0.061,0.27,0.066,-0.013,-0.079,-0.051
-0.022,-0.077,-0.055,0.05,0.017,-0.066,0.069,0.302,0.097,0.004,-0.07,-0.044
-0.008,-0.072,-0.063,0.04,0.028,-0.067,0.075,0.325,0.123,0.032,-0.058,-0.032
-0.002,-0.06,-0.058,0.031,0.028,-0.059,0.068,0.338,0.136,0.032,-0.054,-0.029
0.008,-0.053,-0.061,0.022,0.035,-0.057,0.065,0.368,0.163,0.06,-0.036,-0.017
0.014,-0.044,-0.058,0.016,0.036,-0.051,0.059,0.398,0.193,0.079,-0.03,-0.015
0.019,-0.034,-0.054,0.008,0.037,-0.044,0.056,0.414,0.217,0.104,-0.006,-0.004
0.03,-0.026,-0.057,-0.002,0.044,-0.041,0.05,0.443,0.255,0.123,0.011,0.004
0.042,-0.008,-0.05,-0.017,0.046,-0.029,0.042,0.481,0.29,0.138,0.03,0.016
0.067,0.016,-0.051,-0.042,0.059,-0.017,0.036,0.524,0.33,0.178,0.04,0.038
0.087,0.038,-0.05,-0.062,0.068,-0.006,0.028,0.576,0.384,0.212,0.06,0.053
0.111,0.054,-0.058,-0.082,0.084,-0.001,0.021,0.642,0.438,0.253,0.088,0.069
0.144,0.059,-0.085,-0.101,0.114,-0.013,0.014,0.715,0.498,0.295,0.116,0.09
0.172,0.076,-0.096,-0.124,0.134,-0.01,-0.008,0.775,0.552,0.335,0.151,0.115
0.207,0.111,-0.097,-0.159,0.152,0.007,-0.024,0.84,0.602,0.373,0.177,0.147
0.24,0.139,-0.101,-0.19,0.17,0.019,-0.031,0.892,0.63,0.401,0.21,0.179
0.28,0.172,-0.108,-0.226,0.194,0.032,-0.044,0.912,0.619,0.417,0.242,0.204
0.293,0.185,-0.108,-0.238,0.2,0.038,-0.059,0.909,0.609,0.41,0.261,0.227
0.272,0.174,-0.098,-0.223,0.185,0.038,-0.066,0.881,0.576,0.405,0.272,0.244
0.26,0.166,-0.094,-0.213,0.177,0.036,-0.058,0.819,0.509,0.381,0.27,0.241
0.227,0.148,-0.078,-0.187,0.152,0.035,-0.057,0.73,0.431,0.329,0.246,0.231
0.174,0.116,-0.058,-0.144,0.116,0.028,-0.043,0.627,0.336,0.281,0.193,0.192
0.13,0.076,-0.054,-0.103,0.092,0.011,-0.013,0.527,0.258,0.222,0.138,0.143
0.089,0.034,-0.056,-0.061,0.072,-0.01,0.0,0.428,0.181,0.157,0.086,0.108
0.049,-0.002,-0.051,-0.024,0.05,-0.026,0.01,0.334,0.1,0.105,0.031,0.061
0.009,-0.04,-0.05,0.015,0.03,-0.045,0.02,0.262,0.039,0.061,-0.013,0.027
-0.029,-0.079,-0.05,0.054,0.011,-0.064,0.033,0.202,-0.014,0.019,-0.041,0.013
-0.044,-0.089,-0.045,0.067,0.001,-0.067,0.041,0.164,-0.047,-0.007,-0.056,0.0
-0.053,-0.098,-0.045,0.076,-0.004,-0.071,0.039,0.159,-0.073,-0.018,-0.069,-0.008
-0.059,-0.105,-0.045,0.082,-0.006,-0.075,0.04,0.16,-0.086,-0.031,-0.081,-0.012
-0.056,-0.108,-0.051,0.082,-0.002,-0.079,0.04,0.159,-0.077,-0.037,-0.085,-0.018
-0.068,-0.116,-0.048,0.092,-0.01,-0.082,0.04,0.16,-0.071,-0.031,-0.087,-0.024
-0.068,-0.117,-0.048,0.093,-0.009,-0.082,0.039,0.158,-0.064,-0.027,-0.091,-0.029
-0.048,-0.113,-0.065,0.081,0.009,-0.089,0.035,0.164,-0.058,-0.023,-0.089,-0.027
-0.053,-0.118,-0.065,0.086,0.007,-0.092,0.035,0.174,-0.052,-0.017,-0.086,-0.021
-0.069,-0.133,-0.064,0.102,-0.002,-0.099,0.035,0.176,-0.046,-0.015,-0.084,-0.016
-0.065,-0.131,-0.065,0.098,0.0,-0.098,0.035,0.18,-0.041,-0.015,-0.08,-0.013
-0.056,-0.121,-0.065,0.089,0.005,-0.093,0.035,0.178,-0.036,-0.015,-0.081,-0.007
-0.054,-0.117,-0.063,0.086,0.005,-0.089,0.031,0.172,-0.03,-0.015,-0.085,-0.006
-0.049,-0.108,-0.059,0.079,0.005,-0.084,0.03,0.168,-0.026,-0.015,-0.085,-0.011
-0.045,-0.105,-0.06,0.075,0.008,-0.082,0.03,0.163,-0.041,-0.015,-0.085,-0.01
-0.046,-0.105,-0.06,0.076,0.008,-0.082,0.025,0.159,-0.054,-0.019,-0.085,-0.013
-0.044,-0.104,-0.06,0.074,0.009,-0.082,0.025,0.154,-0.058,-0.026,-0.085,-0.016
-0.047,-0.106,-0.059,0.076,0.007,-0.082,0.025,0.148,-0.067,-0.031,-0.089,-0.015
-0.047,-0.104,-0.056,0.076,0.005,-0.08,0.025,0.14,-0.071,-0.034,-0.09,-0.019
-0.057,-0.109,-0.051,0.083,-0.003,-0.08,0.025,0.134,-0.076,-0.039,-0.09,-0.02
-0.065,-0.116,-0.051,0.09,-0.006,-0.083,0.025,0.126,-0.078,-0.043,-0.095,-0.02
-0.063,-0.105,-0.042,0.084,-0.01,-0.073,0.025,0.119,-0.087,-0.045,-0.095,-0.02
-0.06,-0.116,-0.056,0.088,-0.001,-0.086,0.025,0.117,-0.104,-0.045,-0.096,-0.019
-0.038,-0.126,-0.088,0.083,0.025,-0.107,0.021,0.116,-0.103,-0.045,-0.1,-0.021
-0.052,-0.135,-0.083,0.094,0.016,-0.108,0.02,0.115,-0.098,-0.045,-0.104,-0.025
-0.067,-0.147,-0.08,0.107,0.007,-0.113,0.02,0.115,-0.096,-0.045,-0.105,-0.025
-0.062,-0.139,-0.077,0.101,0.008,-0.108,0.02,0.115,-0.09,-0.045,-0.105,-0.027
-0.064,-0.138,-0.075,0.101,0.006,-0.106,0.02,0.114,-0.091,-0.044,-0.11,-0.03
-0.06,-0.133,-0.073,0.097,0.007,-0.103,0.02,0.118,-0.095,-0.046,-0.11,-0.03
-0.067,-0.129,-0.061,0.098,-0.003,-0.095,0.02,0.12,-0.095,-0.044,-0.111,-0.026
-0.09,-0.144,-0.054,0.117,-0.018,-0.099,0.02,0.123,-0.095,-0.05,-0.115,-0.025
-0.111,-0.151,-0.041,0.131,-0.035,-0.096,0.02,0.126,-0.095,-0.061,-0.115,-0.025
-0.085,-0.149,-0.064,0.118,-0.011,-0.106,0.019,0.129,-0.095,-0.056,-0.115,-0.02
-0.058,-0.15,-0.092,0.104,0.017,-0.121,0.022,0.13,-0.091,-0.053,-0.115,-0.02
-0.065,-0.15,-0.085,0.108,0.01,-0.117,0.013,0.124,-0.084,-0.05,-0.115,-0.019
-0.069,-0.15,-0.081,0.109,0.006,-0.116,0.025,0.126,-0.078,-0.045,-0.111,-0.012
-0.068,-0.145,-0.077,0.107,0.005,-0.111,0.055,0.123,-0.071,-0.047,-0.104,-0.006
-0.072,-0.143,-0.071,0.108,-0.001,-0.106,0.057,0.131,-0.064,-0.042,-0.098,0.001
-0.079,-0.134,-0.055,0.107,-0.012,-0.094,0.052,0.144,-0.058,-0.037,-0.091,0.007
-0.069,-0.109,-0.04,0.089,-0.014,-0.074,0.063,0.152,-0.045,-0.024,-0.085,0.014
-0.052,-0.087,-0.035,0.07,-0.008,-0.061,0.072,0.17,-0.031,0.002,-0.078,0.014
-0.051,-0.068,-0.017,0.06,-0.017,-0.042,0.065,0.176,-0.024,0.02,-0.072,0.018
-0.045,-0.065,-0.02,0.055,-0.012,-0.042,0.047,0.166,-0.026,0.021,-0.068,0.026
-0.024,-0.063,-0.039,0.044,0.007,-0.051,0.013,0.118,-0.039,0.015,-0.06,0.019
-0.018,-0.061,-0.043,0.039,0.012,-0.052,0.003,0.097,-0.052,0.007,-0.056,0.013
-0.023,-0.058,-0.035,0.04,0.006,-0.046,0.014,0.122,-0.049,0.001,-0.059,0.006
-0.027,-0.08,-0.053,0.054,0.013,-0.066,0.015,0.116,-0.05,-0.006,-0.07,-0.001
-0.053,-0.132,-0.079,0.093,0.014,-0.106,0.024,0.125,-0.062,-0.022,-0.091,-0.007
-0.078,-0.164,-0.086,0.122,0.004,-0.125,0.027,0.122,-0.087,-0.041,-0.104,-0.014
-0.067,-0.171,-0.104,0.12,0.019,-0.137,0.031,0.127,-0.099,-0.051,-0.117,-0.027
-0.071,-0.182,-0.111,0.126,0.02,-0.146,0.03,0.124,-0.104,-0.039,-0.116,-0.033
-0.081,-0.192,-0.111,0.136,0.015,-0.151,0.028,0.122,-0.108,-0.052,-0.132,-0.038
-0.067,-0.171,-0.105,0.119,0.019,-0.138,0.034,0.132,-0.089,-0.038,-0.118,-0.025
-0.073,-0.182,-0.109,0.128,0.018,-0.145,0.022,0.106,-0.107,-0.052,-0.13,-0.02
-0.077,-0.176,-0.099,0.127,0.011,-0.137,0.081,0.258,0.0,-0.037,-0.153,-0.065
-0.094,-0.195,-0.101,0.145,0.004,-0.148,0.163,0.417,0.11,0.008,-0.184,-0.117
0.015,-0.038,-0.053,0.011,0.034,-0.045,0.088,0.491,0.302,0.211,-0.02,-0.006
0.272,0.289,0.017,-0.281,0.127,0.153,-0.233,-0.243,0.121,0.621,0.53,0.433
0.507,0.631,0.124,-0.569,0.191,0.377,-0.76,-1.871,-0.919,0.94,1.432,1.196
0.741,0.879,0.138,-0.81,0.301,0.508,-1.183,-2.715,-1.602,1.412,2.353,1.868
0.462,0.386,-0.076,-0.424,0.269,0.155,-1.091,-2.456,-1.704,0.819,1.376,1.301
-0.161,-0.272,-0.11,0.217,-0.025,-0.19,-0.559,-1.611,-1.519,-0.539,-0.314,0.12
-0.337,-0.538,-0.201,0.438,-0.068,-0.369,-0.234,-0.966,-1.125,-0.754,-0.537,-0.229
-0.29,-0.588,-0.298,0.439,0.004,-0.442,-0.186,-0.688,-0.761,-0.536,-0.47,-0.219
-0.196,-0.4,-0.204,0.298,0.004,-0.301,-0.07,-0.213,-0.312,-0.3,-0.341,-0.163
-0.099,-0.271,-0.172,0.185,0.037,-0.222,0.035,0.123,-0.02,-0.088,-0.203,-0.083
-0.07,-0.215,-0.145,0.143,0.037,-0.179,0.06,0.252,0.108,-0.034,-0.177,-0.059
-0.058,-0.177,-0.118,0.118,0.03,-0.147,0.069,0.315,0.181,0.034,-0.122,-0.028
-0.069,-0.166,-0.097,0.118,0.014,-0.131,0.076,0.336,0.208,0.038,-0.137,-0.03
-0.042,-0.152,-0.11,0.097,0.034,-0.13,0.075,0.366,0.237,0.063,-0.112,-0.017
-0.028,-0.137,-0.109,0.083,0.041,-0.123,0.072,0.378,0.261,0.079,-0.107,-0.013
-0.044,-0.132,-0.088,0.088,0.022,-0.11,0.07,0.399,0.29,0.099,-0.077,-0.006
-0.029,-0.131,-0.102,0.08,0.036,-0.116,0.07,0.415,0.319,0.125,-0.057,0.008
0.007,-0.126,-0.133,0.06,0.07,-0.129,0.067,0.439,0.356,0.148,-0.048,0.026
0.007,-0.123,-0.131,0.058,0.069,-0.127,0.062,0.466,0.39,0.17,-0.041,0.035
0.025,-0.1,-0.125,0.038,0.075,-0.112,0.059,0.495,0.43,0.195,-0.033,0.046
0.051,-0.079,-0.13,0.014,0.091,-0.105,0.055,0.537,0.469,0.224,-0.012,0.073
0.064,-0.07,-0.135,0.003,0.1,-0.102,0.051,0.583,0.525,0.263,0.026,0.089
0.089,-0.059,-0.148,-0.014,0.119,-0.103,0.049,0.636,0.585,0.295,0.053,0.093
0.107,-0.033,-0.14,-0.037,0.124,-0.086,0.034,0.701,0.644,0.328,0.07,0.113
0.133,-0.007,-0.14,-0.063,0.136,-0.073,0.012,0.758,0.71,0.379,0.113,0.141
0.146,0.013,-0.133,-0.079,0.139,-0.06,-0.001,0.816,0.768,0.418,0.149,0.165
0.187,0.049,-0.138,-0.118,0.162,-0.045,-0.015,0.88,0.831,0.46,0.18,0.192
0.242,0.067,-0.175,-0.154,0.208,-0.053,-0.031,0.924,0.857,0.486,0.206,0.217
0.255,0.069,-0.186,-0.162,0.22,-0.058,-0.05,0.933,0.844,0.495,0.234,0.24
0.26,0.085,-0.175,-0.173,0.217,-0.045,-0.059,0.925,0.811,0.492,0.244,0.258
0.255,0.081,-0.174,-0.168,0.214,-0.046,-0.05,0.897,0.766,0.455,0.231,0.257
0.221,0.067,-0.154,-0.144,0.187,-0.043,-0.042,0.829,0.702,0.409,0.223,0.249
0.173,0.054,-0.118,-0.113,0.145,-0.032,-0.035,0.743,0.607,0.361,0.193,0.23
0.138,0.029,-0.109,-0.084,0.123,-0.04,-0.026,0.64,0.513,0.299,0.133,0.187
0.093,-0.015,-0.108,-0.039,0.101,-0.061,-0.008,0.533,0.419,0.234,0.08,0.138
0.03,-0.075,-0.104,0.023,0.067,-0.09,0.009,0.439,0.345,0.185,0.036,0.096
-0.007,-0.109,-0.101,0.058,0.047,-0.105,0.013,0.354,0.28,0.131,-0.017,0.071
-0.024,-0.124,-0.1,0.074,0.039,-0.112,0.026,0.28,0.228,0.09,-0.051,0.047
-0.053,-0.151,-0.098,0.102,0.022,-0.124,0.045,0.233,0.195,0.055,-0.07,0.022
-0.066,-0.176,-0.11,0.121,0.022,-0.143,0.045,0.214,0.158,0.015,-0.086,0.014
-0.055,-0.182,-0.127,0.119,0.036,-0.154,0.044,0.215,0.163,0.004,-0.097,0.007
-0.056,-0.18,-0.124,0.118,0.034,-0.151,0.045,0.214,0.178,0.006,-0.111,0.0
-0.047,-0.173,-0.126,0.111,0.04,-0.15,0.045,0.209,0.176,0.002,-0.11,-0.008
-0.059,-0.183,-0.124,0.121,0.033,-0.153,0.043,0.21,0.182,0.0,-0.11,-0.014
-0.074,-0.2,-0.127,0.137,0.027,-0.163,0.037,0.21,0.184,0.0,-0.11,-0.01
-0.08,-0.194,-0.113,0.137,0.017,-0.153,0.033,0.21,0.185,0.003,-0.11,-0.003
-0.091,-0.187,-0.097,0.139,0.003,-0.142,0.028,0.21,0.192,0.009,-0.108,0.001
-0.049,-0.183,-0.134,0.116,0.043,-0.158,0.024,0.21,0.198,0.013,-0.104,0.008
-0.031,-0.175,-0.144,0.103,0.057,-0.159,0.019,0.21,0.193,0.017,-0.105,0.012
-0.046,-0.17,-0.124,0.108,0.04,-0.147,0.015,0.209,0.19,0.023,-0.101,0.018
-0.045,-0.162,-0.117,0.104,0.036,-0.139,0.015,0.203,0.187,0.024,-0.099,0.02
-0.042,-0.156,-0.114,0.1,0.036,-0.135,0.014,0.195,0.182,0.017,-0.101,0.02
-0.039,-0.154,-0.116,0.097,0.039,-0.135,0.01,0.187,0.179,0.011,-0.104,0.024
-0.043,-0.157,-0.114,0.101,0.036,-0.136,0.009,0.179,0.174,0.004,-0.106,0.025
-0.059,-0.174,-0.115,0.117,0.028,-0.144,0.016,0.172,0.167,-0.003,-0.104,0.024
-0.078,-0.192,-0.113,0.135,0.018,-0.152,0.021,0.164,0.161,-0.01,-0.109,0.021
-0.078,-0.188,-0.11,0.133,0.016,-0.149,0.019,0.157,0.154,-0.018,-0.122,0.016
-0.066,-0.175,-0.11,0.121,0.022,-0.142,0.02,0.15,0.147,-0.026,-0.125,0.014
-0.063,-0.174,-0.111,0.118,0.024,-0.142,0.02,0.142,0.145,-0.035,-0.125,0.009
-0.075,-0.185,-0.109,0.13,0.017,-0.146,0.02,0.136,0.145,-0.039,-0.125,0.006
-0.079,-0.19,-0.111,0.135,0.016,-0.151,0.018,0.13,0.145,-0.035,-0.125,0.003
-0.088,-0.193,-0.105,0.141,0.009,-0.149,0.014,0.127,0.145,-0.035,-0.133,0.0
-0.099,-0.196,-0.097,0.148,0.0,-0.146,0.015,0.123,0.145,-0.033,-0.14,-0.003
-0.102,-0.194,-0.091,0.148,-0.005,-0.142,0.015,0.119,0.145,-0.029,-0.14,-0.006
-0.109,-0.191,-0.083,0.15,-0.013,-0.136,0.015,0.116,0.14,-0.031,-0.14,-0.009
-0.073,-0.188,-0.114,0.131,0.021,-0.151,0.015,0.112,0.14,-0.026,-0.14,-0.011
-0.054,-0.185,-0.131,0.12,0.039,-0.158,0.01,0.11,0.139,-0.025,-0.14,-0.014
-0.057,-0.182,-0.126,0.12,0.035,-0.154,0.01,0.11,0.134,-0.025,-0.14,-0.017
-0.047,-0.179,-0.132,0.113,0.042,-0.155,0.009,0.11,0.136,-0.026,-0.14,-0.02
-0.056,-0.183,-0.128,0.12,0.036,-0.156,0.005,0.11,0.134,-0.042,-0.14,-0.022
-0.062,-0.186,-0.124,0.124,0.032,-0.155,0.005,0.111,0.136,-0.046,-0.14,-0.026
-0.066,-0.185,-0.119,0.125,0.027,-0.151,0.007,0.114,0.136,-0.044,-0.14,-0.023
-0.065,-0.181,-0.116,0.124,0.025,-0.148,0.014,0.117,0.136,-0.046,-0.14,-0.016
-0.07,-0.18,-0.11,0.125,0.02,-0.144,0.018,0.119,0.134,-0.045,-0.137,-0.012
-0.072,-0.175,-0.103,0.124,0.015,-0.139,0.025,0.124,0.137,-0.046,-0.128,-0.006
-0.052,-0.144,-0.092,0.099,0.02,-0.118,0.03,0.125,0.169,-0.029,-0.118,0.0
-0.053,-0.125,-0.072,0.089,0.01,-0.099,0.037,0.131,0.188,-0.009,-0.105,0.004
-0.063,-0.109,-0.046,0.087,-0.008,-0.078,0.037,0.137,0.192,-0.003,-0.089,0.011
-0.033,-0.079,-0.046,0.056,0.007,-0.062,0.021,0.12,0.19,0.0,-0.082,0.02
-0.038,-0.065,-0.027,0.052,-0.005,-0.046,0.004,0.104,0.182,0.003,-0.085,0.027
-0.061,-0.062,-0.001,0.061,-0.03,-0.031,-0.018,0.095,0.181,0.008,-0.084,0.037
-0.025,-0.089,-0.064,0.057,0.02,-0.077,-0.027,0.087,0.173,0.01,-0.086,0.037
-0.006,-0.095,-0.088,0.051,0.041,-0.091,-0.024,0.086,0.173,0.003,-0.084,0.027
-0.042,-0.109,-0.067,0.076,0.012,-0.088,-0.025,0.075,0.164,-0.008,-0.096,0.018
-0.067,-0.152,-0.085,0.109,0.01,-0.118,-0.018,0.076,0.163,-0.018,-0.108,0.007
-0.066,-0.178,-0.112,0.122,0.023,-0.145,-0.017,0.068,0.154,-0.041,-0.116,-0.001
-0.094,-0.202,-0.108,0.148,0.007,-0.155,-0.012,0.079,0.153,-0.055,-0.131,-0.015
-0.074,-0.2,-0.126,0.137,0.026,-0.163,-0.009,0.073,0.149,-0.044,-0.126,-0.019
-0.072,-0.215,-0.142,0.144,0.035,-0.178,-0.005,0.077,0.139,-0.055,-0.143,-0.038
-0.133,-0.229,-0.096,0.181,-0.018,-0.163,0.0,0.087,0.155,-0.036,-0.118,-0.039
-0.122,-0.234,-0.112,0.178,-0.005,-0.173,0.005,0.065,0.133,-0.054,-0.131,-0.029
-0.11,-0.226,-0.116,0.168,0.003,-0.171,0.077,0.225,0.243,-0.032,-0.159,-0.066
-0.115,-0.231,-0.117,0.173,0.001,-0.174,0.133,0.38,0.355,0.014,-0.189,-0.112
0.022,-0.041,-0.062,0.01,0.042,-0.052,0.046,0.387,0.536,0.241,-0.002,0.019
0.276,0.286,0.01,-0.282,0.133,0.148,-0.292,-0.487,0.266,0.648,0.569,0.467
0.515,0.647,0.132,-0.581,0.191,0.389,-0.84,-2.096,-0.785,1.006,1.528,1.248
0.736,0.861,0.125,-0.799,0.305,0.493,-1.259,-2.854,-1.39,1.53,2.416,1.911
0.437,0.304,-0.133,-0.37,0.284,0.086,-1.129,-2.521,-1.468,0.798,1.289,1.243
-0.191,-0.366,-0.175,0.279,-0.008,-0.27,-0.568,-1.624,-1.281,-0.603,-0.369,0.066
-0.33,-0.606,-0.277,0.468,-0.026,-0.441,-0.294,-1.033,-0.897,-0.747,-0.523,-0.226
-0.272,-0.59,-0.318,0.431,0.023,-0.454,-0.249,-0.732,-0.516,-0.515,-0.446,-0.218
-0.196,-0.404,-0.208,0.3,0.007,-0.306,-0.077,-0.231,-0.063,-0.264,-0.307,-0.163
-0.124,-0.299,-0.175,0.212,0.026,-0.237,0.022,0.072,0.195,-0.072,-0.183,-0.094
-0.106,-0.23,-0.125,0.168,0.01,-0.177,0.043,0.187,0.295,-0.024,-0.154,-0.075
-0.064,-0.2,-0.136,0.132,0.036,-0.168,0.066,0.249,0.354,0.04,-0.104,-0.049
-0.07,-0.196,-0.126,0.133,0.028,-0.16,0.07,0.265,0.373,0.029,-0.118,-0.05
-0.05,-0.186,-0.137,0.118,0.044,-0.161,0.068,0.296,0.405,0.061,-0.089,-0.029
-0.046,-0.177,-0.131,0.112,0.043,-0.154,0.064,0.309,0.423,0.074,-0.082,-0.014
-0.05,-0.16,-0.11,0.105,0.03,-0.134,0.062,0.322,0.449,0.091,-0.049,-0.001
-0.027,-0.149,-0.123,0.088,0.048,-0.136,0.059,0.344,0.482,0.122,-0.029,0.004
-0.015,-0.136,-0.121,0.076,0.053,-0.128,0.057,0.36,0.505,0.134,-0.021,0.01
0.003,-0.123,-0.126,0.061,0.065,-0.124,0.054,0.39,0.533,0.156,-0.014,0.018
0.026,-0.103,-0.128,0.039,0.077,-0.115,0.051,0.416,0.57,0.182,-0.005,0.023
0.046,-0.084,-0.13,0.019,0.088,-0.106,0.048,0.455,0.612,0.209,0.019,0.036
0.055,-0.076,-0.131,0.011,0.093,-0.103,0.045,0.512,0.666,0.243,0.048,0.061
0.065,-0.063,-0.128,-0.001,0.097,-0.095,0.044,0.565,0.723,0.285,0.08,0.08
0.09,-0.042,-0.132,-0.024,0.112,-0.086,0.038,0.625,0.781,0.32,0.1,0.088
0.118,-0.01,-0.128,-0.054,0.123,-0.068,0.032,0.692,0.849,0.365,0.134,0.107
0.164,0.03,-0.134,-0.097,0.149,-0.052,0.027,0.756,0.907,0.416,0.175,0.14
0.202,0.04,-0.162,-0.12,0.182,-0.061,0.021,0.813,0.951,0.452,0.215,0.178
0.219,0.058,-0.161,-0.138,0.189,-0.051,0.017,0.846,0.975,0.475,0.244,0.202
0.23,0.078,-0.151,-0.154,0.19,-0.036,0.013,0.858,0.962,0.466,0.266,0.224
0.222,0.076,-0.146,-0.149,0.184,-0.035,0.009,0.85,0.927,0.458,0.286,0.243
0.221,0.082,-0.139,-0.151,0.18,-0.028,0.006,0.794,0.866,0.447,0.278,0.242
0.201,0.067,-0.134,-0.133,0.167,-0.033,0.0,0.715,0.774,0.403,0.261,0.24
0.159,0.031,-0.128,-0.095,0.143,-0.048,0.002,0.626,0.679,0.347,0.227,0.207
0.109,-0.011,-0.12,-0.049,0.115,-0.065,0.026,0.52,0.589,0.289,0.177,0.151
0.062,-0.053,-0.115,-0.005,0.089,-0.083,0.056,0.412,0.499,0.214,0.113,0.104
0.031,-0.076,-0.107,0.023,0.069,-0.091,0.069,0.311,0.417,0.149,0.049,0.059
-0.021,-0.121,-0.1,0.071,0.04,-0.11,0.078,0.233,0.352,0.101,0.011,0.025
-0.038,-0.167,-0.129,0.103,0.046,-0.148,0.105,0.17,0.3,0.055,-0.022,-0.002
-0.032,-0.175,-0.144,0.103,0.056,-0.159,0.112,0.13,0.248,0.022,-0.039,-0.017
-0.057,-0.195,-0.138,0.126,0.04,-0.166,0.109,0.096,0.213,-0.006,-0.047,-0.022
-0.067,-0.208,-0.142,0.137,0.038,-0.175,0.111,0.082,0.202,-0.029,-0.063,-0.03
-0.071,-0.209,-0.139,0.14,0.034,-0.174,0.109,0.086,0.19,-0.037,-0.07,-0.036
-0.08,-0.221,-0.141,0.151,0.031,-0.181,0.111,0.083,0.182,-0.032,-0.074,-0.043
-0.078,-0.221,-0.143,0.15,0.033,-0.182,0.114,0.086,0.184,-0.029,-0.076,-0.045
-0.07,-0.216,-0.146,0.143,0.039,-0.181,0.117,0.083,0.201,-0.026,-0.075,-0.045
-0.069,-0.211,-0.143,0.14,0.037,-0.177,0.12,0.09,0.219,-0.021,-0.075,-0.045
-0.057,-0.208,-0.151,0.133,0.047,-0.179,0.122,0.112,0.227,-0.02,-0.075,-0.045
-0.038,-0.202,-0.165,0.12,0.064,-0.183,0.125,0.113,0.233,-0.02,-0.076,-0.045
-0.041,-0.2,-0.159,0.121,0.059,-0.179,0.125,0.105,0.229,-0.02,-0.074,-0.045
-0.046,-0.2,-0.154,0.124,0.054,-0.177,0.125,0.099,0.227,-0.02,-0.071,-0.05
-0.052,-0.2,-0.148,0.127,0.048,-0.173,0.125,0.092,0.224,-0.021,-0.068,-0.05
-0.057,-0.2,-0.143,0.129,0.043,-0.171,0.125,0.086,0.22,-0.019,-0.065,-0.05
-0.064,-0.2,-0.136,0.132,0.036,-0.168,0.125,0.08,0.219,-0.031,-0.063,-0.05
-0.055,-0.2,-0.145,0.128,0.045,-0.172,0.124,0.074,0.213,-0.041,-0.059,-0.049
-0.039,-0.196,-0.157,0.118,0.06,-0.177,0.133,0.068,0.205,-0.044,-0.063,-0.053
-0.043,-0.195,-0.152,0.119,0.055,-0.173,0.139,0.064,0.199,-0.055,-0.065,-0.055
-0.045,-0.195,-0.15,0.12,0.053,-0.172,0.141,0.058,0.191,-0.061,-0.076,-0.055
-0.049,-0.196,-0.147,0.123,0.049,-0.171,0.139,0.052,0.184,-0.064,-0.088,-0.062
-0.049,-0.193,-0.144,0.122,0.048,-0.169,0.142,0.047,0.177,-0.066,-0.085,-0.073
-0.055,-0.2,-0.145,0.128,0.046,-0.173,0.162,0.041,0.171,-0.064,-0.085,-0.075
-0.066,-0.211,-0.145,0.139,0.039,-0.177,0.166,0.036,0.166,-0.067,-0.085,-0.075
-0.062,-0.206,-0.144,0.135,0.042,-0.175,0.164,0.031,0.161,-0.078,-0.085,-0.075
-0.057,-0.203,-0.146,0.131,0.045,-0.175,0.166,0.025,0.155,-0.08,-0.085,-0.075
-0.057,-0.2,-0.142,0.129,0.042,-0.17,0.164,0.02,0.15,-0.08,-0.087,-0.076
-0.043,-0.195,-0.152,0.119,0.055,-0.174,0.17,0.015,0.145,-0.079,-0.09,-0.079
-0.051,-0.197,-0.145,0.124,0.047,-0.171,0.171,0.015,0.145,-0.082,-0.09,-0.082
-0.072,-0.203,-0.131,0.137,0.03,-0.166,0.167,0.015,0.145,-0.094,-0.09,-0.084
-0.057,-0.202,-0.146,0.13,0.045,-0.174,0.165,0.015,0.145,-0.095,-0.09,-0.088
-0.065,-0.21,-0.145,0.138,0.041,-0.178,0.161,0.015,0.145,-0.094,-0.09,-0.09
-0.078,-0.221,-0.143,0.15,0.032,-0.182,0.16,0.012,0.143,-0.095,-0.085,-0.09
-0.074,-0.215,-0.14,0.144,0.034,-0.177,0.156,0.01,0.139,-0.095,-0.085,-0.09
-0.073,-0.213,-0.14,0.143,0.033,-0.176,0.155,0.007,0.141,-0.094,-0.084,-0.09
-0.07,-0.208,-0.138,0.139,0.034,-0.173,0.154,0.004,0.136,-0.09,-0.079,-0.09
-0.071,-0.204,-0.134,0.138,0.032,-0.169,0.151,0.001,0.134,-0.087,-0.08,-0.09
-0.074,-0.21,-0.136,0.142,0.031,-0.173,0.149,-0.001,0.136,-0.085,-0.078,-0.09
-0.065,-0.199,-0.134,0.133,0.035,-0.166,0.151,0.008,0.128,-0.081,-0.071,-0.084
-0.046,-0.181,-0.136,0.114,0.045,-0.158,0.17,0.018,0.145,-0.081,-0.065,-0.079
-0.05,-0.163,-0.113,0.107,0.032,-0.138,0.192,0.029,0.162,-0.072,-0.058,-0.073
-0.057,-0.142,-0.084,0.1,0.014,-0.113,0.202,0.034,0.172,-0.057,-0.052,-0.068
-0.043,-0.129,-0.086,0.087,0.022,-0.107,0.192,0.029,0.187,-0.06,-0.037,-0.063
-0.047,-0.131,-0.083,0.089,0.018,-0.107,0.175,0.025,0.179,-0.06,-0.023,-0.059
-0.042,-0.129,-0.086,0.086,0.022,-0.107,0.167,0.015,0.176,-0.06,-0.026,-0.061
-0.048,-0.131,-0.083,0.09,0.018,-0.107,0.162,-0.005,0.169,-0.06,-0.028,-0.059
-0.04,-0.129,-0.088,0.085,0.024,-0.108,0.16,-0.017,0.163,-0.061,-0.032,-0.062
-0.007,-0.132,-0.125,0.069,0.059,-0.128,0.155,-0.032,0.162,-0.059,-0.033,-0.058
-0.025,-0.157,-0.132,0.091,0.054,-0.144,0.151,-0.031,0.151,-0.064,-0.038,-0.064
-0.054,-0.182,-0.128,0.118,0.037,-0.155,0.151,-0.027,0.141,-0.105,-0.058,-0.094
-0.084,-0.212,-0.128,0.148,0.022,-0.17,0.157,-0.029,0.135,-0.135,-0.074,-0.104
-0.062,-0.204,-0.143,0.133,0.04,-0.173,0.166,-0.016,0.147,-0.118,-0.067,-0.103
-0.049,-0.221,-0.173,0.135,0.062,-0.197,0.159,-0.029,0.134,-0.118,-0.072,-0.106
-0.075,-0.225,-0.15,0.15,0.037,-0.187,0.164,-0.013,0.157,-0.109,-0.071,-0.11
-0.069,-0.226,-0.157,0.148,0.045,-0.191,0.153,-0.05,0.13,-0.1,-0.066,-0.107
-0.086,-0.225,-0.14,0.156,0.027,-0.182,0.182,0.038,0.163,-0.106,-0.087,-0.126
-0.087,-0.224,-0.137,0.156,0.026,-0.181,0.276,0.22,0.284,-0.064,-0.111,-0.173
-0.027,-0.156,-0.129,0.092,0.052,-0.143,0.277,0.358,0.421,0.024,-0.074,-0.162
0.184,0.149,-0.034,-0.166,0.109,0.057,0.044,-0.044,0.461,0.366,0.308,0.127
0.452,0.446,-0.006,-0.449,0.228,0.22,-0.431,-1.631,-0.31,0.711,1.01,0.725
0.732,0.82,0.089,-0.776,0.321,0.454,-0.984,-2.984,-1.23,1.191,2.086,1.575
0.759,0.667,-0.092,-0.713,0.425,0.287,-1.211,-3.111,-1.523,1.217,2.106,1.68
0.201,-0.139,-0.34,-0.031,0.271,-0.239,-0.723,-2.3,-1.448,-0.096,0.362,0.502
-0.248,-0.583,-0.335,0.416,0.044,-0.459,-0.244,-1.411,-1.133,-0.903,-0.534,-0.276
-0.279,-0.645,-0.367,0.462,0.044,-0.506,-0.174,-1.039,-0.741,-0.69,-0.413,-0.316
-0.204,-0.497,-0.294,0.351,0.045,-0.395,0.004,-0.537,-0.268,-0.436,-0.323,-0.284
-0.106,-0.334,-0.228,0.22,0.061,-0.281,0.151,-0.095,0.07,-0.204,-0.151,-0.189
-0.063,-0.251,-0.188,0.157,0.063,-0.219,0.189,0.066,0.212,-0.12,-0.112,-0.166
-0.04,-0.203,-0.163,0.121,0.062,-0.183,0.205,0.155,0.28,-0.067,-0.072,-0.139
-0.029,-0.197,-0.168,0.113,0.07,-0.182,0.199,0.176,0.306,-0.042,-0.061,-0.131
-0.028,-0.179,-0.151,0.104,0.062,-0.165,0.209,0.204,0.336,-0.029,-0.051,-0.126
-0.022,-0.175,-0.153,0.099,0.066,-0.164,0.207,0.223,0.355,-0.01,-0.032,-0.113
-0.022,-0.16,-0.139,0.091,0.059,-0.149,0.211,0.247,0.377,-0.003,-0.026,-0.112
-0.003,-0.149,-0.145,0.076,0.071,-0.147,0.202,0.266,0.399,0.016,-0.004,-0.098
0.023,-0.138,-0.162,0.058,0.093,-0.15,0.195,0.288,0.427,0.031,0.009,-0.092
0.025,-0.133,-0.158,0.054,0.092,-0.145,0.19,0.32,0.455,0.065,0.031,-0.079
0.036,-0.126,-0.162,0.045,0.099,-0.144,0.18,0.35,0.498,0.09,0.049,-0.072
0.049,-0.109,-0.158,0.03,0.104,-0.133,0.175,0.394,0.53,0.111,0.064,-0.064
0.072,-0.086,-0.158,0.007,0.115,-0.122,0.167,0.441,0.57,0.139,0.08,-0.048
0.114,-0.062,-0.176,-0.026,0.145,-0.119,0.165,0.502,0.636,0.177,0.104,-0.028
0.126,-0.043,-0.168,-0.041,0.147,-0.105,0.165,0.569,0.688,0.217,0.134,-0.014
0.15,-0.013,-0.163,-0.068,0.157,-0.088,0.154,0.636,0.748,0.25,0.156,0.0
0.187,0.021,-0.166,-0.104,0.176,-0.072,0.137,0.706,0.806,0.29,0.187,0.027
0.218,0.055,-0.164,-0.136,0.191,-0.054,0.119,0.773,0.855,0.33,0.228,0.054
0.243,0.077,-0.166,-0.159,0.204,-0.044,0.098,0.829,0.899,0.363,0.261,0.087
0.262,0.097,-0.164,-0.179,0.213,-0.033,0.071,0.848,0.895,0.384,0.298,0.115
0.281,0.119,-0.162,-0.2,0.221,-0.021,0.059,0.835,0.859,0.38,0.314,0.138
0.275,0.118,-0.157,-0.196,0.216,-0.02,0.059,0.8,0.824,0.372,0.308,0.154
0.263,0.11,-0.154,-0.186,0.208,-0.022,0.061,0.72,0.751,0.343,0.308,0.138
0.247,0.107,-0.14,-0.177,0.193,-0.017,0.065,0.615,0.651,0.284,0.286,0.125
0.202,0.075,-0.127,-0.138,0.164,-0.026,0.064,0.504,0.552,0.214,0.233,0.094
0.142,0.03,-0.112,-0.085,0.126,-0.041,0.077,0.389,0.461,0.149,0.177,0.04
0.086,-0.01,-0.096,-0.038,0.091,-0.053,0.09,0.284,0.384,0.083,0.12,-0.005
0.032,-0.063,-0.095,0.016,0.064,-0.079,0.106,0.185,0.306,0.022,0.071,-0.044
0.002,-0.093,-0.095,0.046,0.048,-0.094,0.117,0.112,0.242,-0.023,0.029,-0.074
0.002,-0.093,-0.095,0.046,0.049,-0.094,0.114,0.054,0.192,-0.069,0.003,-0.098
-0.017,-0.112,-0.095,0.065,0.039,-0.103,0.115,0.006,0.148,-0.095,-0.011,-0.111
-0.044,-0.135,-0.091,0.089,0.024,-0.113,0.115,-0.026,0.114,-0.118,-0.033,-0.123
-0.048,-0.137,-0.089,0.093,0.021,-0.113,0.115,-0.043,0.098,-0.138,-0.041,-0.126
-0.055,-0.141,-0.086,0.098,0.015,-0.113,0.116,-0.039,0.091,-0.139,-0.044,-0.124
-0.061,-0.145,-0.084,0.103,0.012,-0.114,0.119,-0.03,0.087,-0.137,-0.049,-0.126
-0.063,-0.143,-0.08,0.103,0.009,-0.111,0.12,-0.022,0.092,-0.134,-0.05,-0.124
-0.06,-0.14,-0.079,0.1,0.009,-0.109,0.119,-0.014,0.093,-0.135,-0.05,-0.131
-0.063,-0.137,-0.074,0.1,0.006,-0.105,0.12,-0.007,0.097,-0.131,-0.05,-0.136
-0.058,-0.134,-0.076,0.097,0.009,-0.105,0.12,-0.005,0.109,-0.129,-0.05,-0.135
-0.039,-0.131,-0.092,0.085,0.027,-0.111,0.118,-0.005,0.11,-0.132,-0.05,-0.135
-0.043,-0.129,-0.086,0.087,0.021,-0.107,0.114,-0.005,0.109,-0.135,-0.05,-0.135
-0.047,-0.121,-0.074,0.085,0.014,-0.097,0.112,-0.005,0.11,-0.136,-0.05,-0.135
-0.042,-0.108,-0.065,0.075,0.012,-0.086,0.109,-0.005,0.11,-0.14,-0.053,-0.139
-0.041,-0.098,-0.057,0.07,0.008,-0.078,0.106,-0.012,0.109,-0.14,-0.058,-0.14
-0.04,-0.093,-0.053,0.067,0.007,-0.073,0.104,-0.02,0.101,-0.144,-0.061,-0.142
-0.044,-0.09,-0.047,0.067,0.002,-0.068,0.1,-0.029,0.094,-0.151,-0.068,-0.153
-0.044,-0.086,-0.042,0.066,-0.001,-0.064,0.095,-0.034,0.087,-0.156,-0.074,-0.156
-0.048,-0.083,-0.035,0.066,-0.006,-0.058,0.091,-0.047,0.079,-0.17,-0.079,-0.159
-0.036,-0.079,-0.043,0.058,0.003,-0.061,0.086,-0.064,0.073,-0.178,-0.082,-0.162
-0.03,-0.076,-0.046,0.053,0.009,-0.061,0.081,-0.069,0.065,-0.184,-0.086,-0.165
-0.038,-0.073,-0.035,0.056,-0.001,-0.054,0.078,-0.082,0.057,-0.188,-0.09,-0.165
-0.042,-0.07,-0.028,0.056,-0.007,-0.049,0.073,-0.086,0.051,-0.185,-0.089,-0.165
-0.05,-0.068,-0.019,0.059,-0.015,-0.043,0.07,-0.09,0.043,-0.185,-0.098,-0.165
-0.048,-0.063,-0.015,0.056,-0.016,-0.039,0.067,-0.098,0.036,-0.185,-0.106,-0.165
-0.058,-0.073,-0.015,0.066,-0.021,-0.044,0.062,-0.1,0.029,-0.185,-0.105,-0.165
-0.067,-0.082,-0.015,0.075,-0.026,-0.048,0.059,-0.1,0.024,-0.185,-0.105,-0.165
-0.052,-0.068,-0.015,0.06,-0.018,-0.041,0.056,-0.1,0.021,-0.188,-0.105,-0.168
-0.046,-0.058,-0.012,0.052,-0.017,-0.034,0.055,-0.111,0.018,-0.191,-0.105,-0.171
-0.047,-0.051,-0.004,0.049,-0.021,-0.027,0.055,-0.121,0.013,-0.194,-0.106,-0.18
-0.042,-0.044,-0.002,0.043,-0.02,-0.022,0.055,-0.124,0.01,-0.196,-0.119,-0.186
-0.051,-0.037,0.014,0.044,-0.032,-0.012,0.056,-0.13,0.006,-0.202,-0.127,-0.188
-0.064,-0.031,0.033,0.047,-0.048,0.001,0.052,-0.127,-0.001,-0.209,-0.13,-0.192
-0.068,-0.025,0.043,0.046,-0.055,0.009,0.05,-0.125,-0.008,-0.21,-0.135,-0.195
-0.068,-0.019,0.048,0.043,-0.058,0.015,0.05,-0.125,-0.014,-0.215,-0.132,-0.199
-0.068,-0.014,0.054,0.041,-0.061,0.02,0.05,-0.125,-0.022,-0.214,-0.129,-0.206
-0.08,-0.006,0.074,0.043,-0.077,0.033,0.05,-0.133,-0.024,-0.209,-0.126,-0.209
-0.086,-0.009,0.078,0.047,-0.082,0.034,0.05,-0.136,-0.016,-0.206,-0.123,-0.202
-0.074,-0.006,0.068,0.04,-0.07,0.03,0.055,-0.129,-0.007,-0.202,-0.12,-0.197
-0.062,0.011,0.073,0.025,-0.068,0.042,0.059,-0.129,0.001,-0.199,-0.119,-0.193
-0.047,0.051,0.098,-0.003,-0.073,0.075,0.064,-0.121,0.011,-0.195,-0.115,-0.186
-0.061,0.082,0.143,-0.011,-0.102,0.113,0.064,-0.121,0.017,-0.192,-0.111,-0.182
-0.066,0.107,0.173,-0.021,-0.119,0.14,0.056,-0.111,0.026,-0.189,-0.108,-0.18
-0.03,0.147,0.177,-0.059,-0.103,0.162,0.051,-0.097,0.029,-0.185,-0.103,-0.18
-0.031,0.149,0.18,-0.059,-0.105,0.165,0.028,-0.139,0.014,-0.184,-0.1,-0.18
-0.024,0.157,0.182,-0.067,-0.103,0.169,-0.003,-0.18,-0.001,-0.178,-0.103,-0.18
-0.021,0.163,0.184,-0.072,-0.103,0.173,-0.021,-0.184,-0.01,-0.186,-0.112,-0.18
-0.041,0.146,0.187,-0.053,-0.114,0.166,-0.02,-0.183,-0.017,-0.204,-0.116,-0.18
-0.037,0.129,0.166,-0.047,-0.101,0.147,-0.021,-0.192,-0.029,-0.209,-0.13,-0.198
-0.056,0.098,0.155,-0.021,-0.106,0.126,-0.019,-0.186,-0.035,-0.213,-0.147,-0.225
-0.072,0.082,0.154,-0.006,-0.113,0.118,-0.021,-0.193,-0.066,-0.233,-0.159,-0.226
-0.058,0.097,0.155,-0.02,-0.107,0.126,-0.02,-0.179,-0.068,-0.248,-0.173,-0.226
-0.066,0.09,0.156,-0.012,-0.111,0.122,-0.018,-0.19,-0.075,-0.241,-0.171,-0.239
-0.069,0.083,0.152,-0.008,-0.111,0.118,-0.016,-0.179,-0.088,-0.249,-0.186,-0.248
-0.074,0.087,0.161,-0.007,-0.117,0.124,-0.008,-0.176,-0.071,-0.239,-0.169,-0.246
-0.087,0.066,0.153,0.01,-0.12,0.11,-0.018,-0.193,-0.079,-0.251,-0.184,-0.252
-0.096,0.092,0.188,0.002,-0.143,0.14,0.057,-0.024,0.028,-0.235,-0.204,-0.279
-0.104,0.08,0.184,0.012,-0.144,0.131,0.115,0.129,0.127,-0.174,-0.215,-0.32
0.062,0.276,0.214,-0.169,-0.076,0.245,0.006,0.138,0.3,0.048,-0.035,-0.178
0.336,0.605,0.269,-0.471,0.034,0.437,-0.348,-0.949,-0.025,0.39,0.496,0.264
0.577,0.943,0.366,-0.76,0.105,0.655,-0.907,-2.731,-1.053,0.695,1.362,0.998
0.831,1.151,0.32,-0.991,0.255,0.736,-1.352,-3.451,-1.644,1.028,2.094,1.618
0.509,0.587,0.079,-0.548,0.215,0.333,-1.188,-3.0,-1.712,0.365,1.065,0.958
-0.167,-0.095,0.072,0.131,-0.119,-0.012,-0.564,-1.969,-1.494,-0.812,-0.429,-0.196
-0.294,-0.292,0.002,0.294,-0.148,-0.145,-0.332,-1.378,-1.132,-0.97,-0.593,-0.473
-0.229,-0.223,0.006,0.226,-0.117,-0.108,-0.275,-0.99,-0.712,-0.687,-0.492,-0.44
-0.158,-0.037,0.121,0.098,-0.139,0.042,-0.088,-0.435,-0.278,-0.44,-0.351,-0.373
-0.075,0.096,0.171,-0.011,-0.123,0.133,-0.013,-0.173,-0.07,-0.286,-0.248,-0.302
-0.087,0.146,0.233,-0.029,-0.16,0.189,0.009,-0.052,0.016,-0.251,-0.232,-0.28
-0.05,0.168,0.218,-0.059,-0.134,0.192,0.004,-0.014,0.062,-0.202,-0.189,-0.256
-0.053,0.195,0.249,-0.071,-0.151,0.222,-0.001,0.019,0.093,-0.182,-0.195,-0.261
-0.044,0.207,0.251,-0.081,-0.148,0.229,-0.005,0.049,0.114,-0.157,-0.169,-0.246
-0.022,0.226,0.247,-0.102,-0.135,0.237,-0.006,0.061,0.124,-0.148,-0.169,-0.244
-0.02,0.233,0.253,-0.106,-0.137,0.243,-0.004,0.083,0.144,-0.132,-0.153,-0.235
0.0,0.247,0.247,-0.124,-0.123,0.247,-0.012,0.091,0.168,-0.118,-0.145,-0.231
0.006,0.259,0.253,-0.132,-0.124,0.256,-0.015,0.127,0.196,-0.105,-0.133,-0.227
0.02,0.267,0.247,-0.144,-0.114,0.257,-0.022,0.156,0.221,-0.081,-0.117,-0.222
0.037,0.292,0.255,-0.165,-0.109,0.273,-0.033,0.185,0.25,-0.06,-0.106,-0.219
0.048,0.308,0.26,-0.178,-0.106,0.284,-0.041,0.232,0.289,-0.035,-0.087,-0.203
0.079,0.339,0.26,-0.209,-0.091,0.299,-0.045,0.287,0.335,-0.005,-0.064,-0.179
0.105,0.364,0.259,-0.235,-0.077,0.311,-0.055,0.357,0.398,0.031,-0.037,-0.157
0.12,0.383,0.263,-0.252,-0.072,0.323,-0.07,0.426,0.454,0.067,-0.019,-0.149
0.16,0.431,0.271,-0.296,-0.056,0.351,-0.091,0.499,0.506,0.11,0.009,-0.132
0.178,0.447,0.269,-0.313,-0.046,0.358,-0.099,0.573,0.569,0.156,0.048,-0.098
0.208,0.474,0.266,-0.341,-0.029,0.369,-0.117,0.63,0.604,0.19,0.08,-0.067
0.256,0.52,0.264,-0.389,-0.004,0.392,-0.141,0.658,0.601,0.198,0.105,-0.042
0.274,0.533,0.259,-0.403,0.007,0.396,-0.164,0.662,0.589,0.188,0.127,-0.022
0.291,0.553,0.261,-0.422,0.015,0.407,-0.192,0.643,0.571,0.18,0.14,-0.013
0.272,0.555,0.283,-0.414,-0.006,0.419,-0.209,0.578,0.508,0.171,0.132,-0.01
0.238,0.551,0.312,-0.395,-0.037,0.431,-0.206,0.483,0.417,0.141,0.12,-0.003
0.216,0.536,0.32,-0.377,-0.052,0.428,-0.176,0.382,0.33,0.082,0.101,-0.023
0.164,0.495,0.331,-0.33,-0.083,0.413,-0.147,0.266,0.249,0.026,0.048,-0.065
0.095,0.453,0.359,-0.274,-0.132,0.406,-0.124,0.146,0.163,-0.036,-0.022,-0.118
0.043,0.409,0.366,-0.226,-0.162,0.387,-0.101,0.038,0.079,-0.097,-0.073,-0.167
0.009,0.373,0.364,-0.192,-0.178,0.369,-0.087,-0.049,0.013,-0.138,-0.117,-0.202
-0.011,0.354,0.365,-0.172,-0.188,0.36,-0.073,-0.118,-0.043,-0.182,-0.155,-0.233
-0.023,0.341,0.364,-0.16,-0.194,0.353,-0.058,-0.17,-0.096,-0.218,-0.173,-0.245
-0.046,0.331,0.377,-0.142,-0.212,0.354,-0.034,-0.206,-0.136,-0.252,-0.194,-0.259
-0.052,0.329,0.381,-0.139,-0.217,0.355,0.0,-0.223,-0.156,-0.266,-0.202,-0.266
-0.053,0.326,0.379,-0.136,-0.216,0.352,0.02,-0.231,-0.156,-0.264,-0.205,-0.264
-0.058,0.323,0.381,-0.133,-0.22,0.351,0.038,-0.225,-0.155,-0.266,-0.21,-0.266
-0.058,0.32,0.379,-0.131,-0.219,0.35,0.061,-0.217,-0.154,-0.264,-0.213,-0.264
-0.063,0.318,0.381,-0.127,-0.222,0.349,0.067,-0.211,-0.15,-0.265,-0.219,-0.269
-0.069,0.315,0.384,-0.123,-0.227,0.349,0.075,-0.204,-0.151,-0.264,-0.222,-0.276
-0.084,0.301,0.385,-0.109,-0.235,0.343,0.071,-0.196,-0.147,-0.26,-0.225,-0.281
-0.056,0.332,0.388,-0.139,-0.222,0.36,0.073,-0.187,-0.145,-0.26,-0.228,-0.285
-0.024,0.367,0.391,-0.171,-0.208,0.378,0.087,-0.189,-0.141,-0.26,-0.231,-0.284
-0.024,0.366,0.39,-0.171,-0.207,0.377,0.085,-0.19,-0.14,-0.261,-0.23,-0.287
-0.02,0.369,0.389,-0.174,-0.204,0.379,0.085,-0.193,-0.135,-0.259,-0.23,-0.29
-0.037,0.373,0.41,-0.168,-0.223,0.391,0.081,-0.195,-0.136,-0.263,-0.23,-0.29
-0.04,0.375,0.415,-0.168,-0.228,0.394,0.08,-0.197,-0.149,-0.268,-0.23,-0.293
-0.041,0.37,0.411,-0.164,-0.226,0.39,0.08,-0.208,-0.162,-0.278,-0.241,-0.297
-0.054,0.382,0.436,-0.164,-0.245,0.409,0.075,-0.227,-0.186,-0.304,-0.251,-0.299
-0.051,0.391,0.442,-0.17,-0.247,0.416,0.075,-0.235,-0.198,-0.312,-0.257,-0.304
-0.055,0.38,0.436,-0.163,-0.246,0.407,0.075,-0.241,-0.197,-0.308,-0.26,-0.305
-0.075,0.382,0.457,-0.154,-0.266,0.419,0.075,-0.253,-0.202,-0.311,-0.267,-0.305
-0.065,0.4,0.465,-0.168,-0.265,0.433,0.075,-0.248,-0.224,-0.32,-0.277,-0.305
-0.06,0.406,0.466,-0.173,-0.264,0.436,0.073,-0.264,-0.239,-0.327,-0.281,-0.305
-0.078,0.405,0.483,-0.164,-0.281,0.444,0.066,-0.282,-0.231,-0.327,-0.279,-0.305
-0.083,0.403,0.486,-0.161,-0.285,0.445,0.061,-0.279,-0.23,-0.331,-0.281,-0.304
-0.072,0.411,0.483,-0.17,-0.278,0.447,0.056,-0.28,-0.241,-0.328,-0.283,-0.312
-0.053,0.435,0.488,-0.191,-0.271,0.461,0.05,-0.279,-0.251,-0.335,-0.288,-0.317
-0.069,0.435,0.504,-0.183,-0.287,0.469,0.045,-0.297,-0.25,-0.353,-0.305,-0.314
-0.07,0.435,0.505,-0.183,-0.288,0.47,0.04,-0.307,-0.249,-0.355,-0.311,-0.315
-0.063,0.441,0.504,-0.19,-0.283,0.472,0.036,-0.307,-0.261,-0.355,-0.312,-0.315
-0.068,0.438,0.506,-0.185,-0.287,0.471,0.033,-0.311,-0.271,-0.355,-0.316,-0.314
-0.056,0.445,0.501,-0.195,-0.279,0.473,0.03,-0.314,-0.272,-0.355,-0.319,-0.316
-0.07,0.452,0.522,-0.191,-0.296,0.487,0.025,-0.315,-0.275,-0.355,-0.32,-0.32
-0.082,0.45,0.532,-0.184,-0.307,0.491,0.027,-0.31,-0.278,-0.35,-0.315,-0.32
-0.076,0.45,0.525,-0.187,-0.3,0.487,0.03,-0.31,-0.28,-0.35,-0.315,-0.32
-0.074,0.45,0.524,-0.188,-0.299,0.486,0.03,-0.309,-0.28,-0.349,-0.315,-0.32
-0.071,0.45,0.521,-0.189,-0.296,0.485,0.03,-0.304,-0.28,-0.35,-0.314,-0.32
-0.068,0.45,0.518,-0.191,-0.293,0.484,0.03,-0.305,-0.28,-0.349,-0.315,-0.316
-0.075,0.455,0.53,-0.191,-0.303,0.493,0.029,-0.303,-0.28,-0.354,-0.312,-0.309
-0.097,0.463,0.56,-0.184,-0.328,0.511,0.03,-0.295,-0.28,-0.363,-0.306,-0.305
-0.091,0.477,0.568,-0.193,-0.33,0.522,0.03,-0.289,-0.279,-0.352,-0.299,-0.299
-0.065,0.493,0.559,-0.214,-0.312,0.526,0.032,-0.28,-0.272,-0.343,-0.293,-0.294
-0.063,0.52,0.583,-0.228,-0.323,0.551,0.05,-0.276,-0.259,-0.332,-0.286,-0.289
-0.072,0.543,0.615,-0.236,-0.344,0.579,0.05,-0.26,-0.236,-0.325,-0.281,-0.285
-0.053,0.561,0.614,-0.255,-0.334,0.587,0.037,-0.254,-0.226,-0.324,-0.284,-0.282
-0.02,0.59,0.61,-0.285,-0.315,0.6,0.024,-0.299,-0.248,-0.319,-0.285,-0.28
-0.029,0.58,0.609,-0.276,-0.319,0.594,0.003,-0.335,-0.263,-0.318,-0.284,-0.276
-0.049,0.547,0.597,-0.249,-0.323,0.572,-0.001,-0.334,-0.262,-0.314,-0.286,-0.275
-0.061,0.525,0.586,-0.232,-0.324,0.555,-0.005,-0.334,-0.268,-0.32,-0.283,-0.278
-0.072,0.499,0.571,-0.214,-0.322,0.535,-0.009,-0.337,-0.271,-0.343,-0.29,-0.288
-0.063,0.49,0.553,-0.214,-0.308,0.521,-0.012,-0.331,-0.279,-0.361,-0.313,-0.304
-0.065,0.478,0.542,-0.207,-0.304,0.51,-0.017,-0.341,-0.311,-0.382,-0.339,-0.313
-0.07,0.477,0.547,-0.204,-0.309,0.512,-0.003,-0.322,-0.305,-0.378,-0.348,-0.323
-0.075,0.465,0.539,-0.195,-0.307,0.502,-0.012,-0.331,-0.306,-0.373,-0.341,-0.324
-0.076,0.458,0.535,-0.191,-0.306,0.496,-0.015,-0.311,-0.299,-0.376,-0.35,-0.328
-0.079,0.451,0.53,-0.186,-0.305,0.491,-0.003,-0.316,-0.315,-0.36,-0.331,-0.315
-0.083,0.436,0.52,-0.177,-0.302,0.478,0.006,-0.3,-0.307,-0.374,-0.351,-0.326
-0.084,0.441,0.525,-0.179,-0.305,0.483,0.085,-0.121,-0.177,-0.324,-0.376,-0.37
-0.111,0.441,0.552,-0.165,-0.332,0.496,0.127,0.018,-0.075,-0.28,-0.39,-0.404
0.067,0.682,0.615,-0.374,-0.274,0.648,-0.009,-0.041,0.103,-0.004,-0.118,-0.206
0.391,1.003,0.612,-0.697,-0.111,0.807,-0.413,-1.261,-0.373,0.346,0.495,0.33
0.649,1.358,0.71,-1.004,-0.031,1.034,-0.963,-2.918,-1.399,0.691,1.483,1.153
0.747,1.428,0.681,-1.088,0.033,1.054,-1.276,-3.371,-1.866,0.962,1.977,1.587
0.249,0.77,0.521,-0.509,-0.136,0.645,-1.0,-2.809,-1.9,0.002,0.542,0.643
-0.273,0.202,0.476,0.035,-0.375,0.339,-0.435,-1.848,-1.619,-1.017,-0.703,-0.367
-0.299,0.023,0.322,0.138,-0.311,0.172,-0.268,-1.364,-1.261,-0.994,-0.701,-0.519
-0.267,0.083,0.35,0.091,-0.309,0.217,-0.208,-1.008,-0.867,-0.772,-0.644,-0.509
-0.156,0.266,0.422,-0.055,-0.29,0.344,-0.038,-0.483,-0.451,-0.513,-0.474,-0.413
-0.089,0.375,0.464,-0.144,-0.277,0.419,0.012,-0.245,-0.254,-0.379,-0.406,-0.362
-0.093,0.451,0.543,-0.179,-0.318,0.497,0.046,-0.127,-0.163,-0.323,-0.361,-0.337
-0.065,0.457,0.522,-0.196,-0.294,0.489,0.049,-0.089,-0.137,-0.292,-0.332,-0.318
-0.065,0.468,0.533,-0.202,-0.299,0.501,0.041,-0.066,-0.11,-0.283,-0.338,-0.317
-0.048,0.476,0.524,-0.214,-0.286,0.5,0.039,-0.051,-0.075,-0.242,-0.312,-0.298
-0.051,0.473,0.524,-0.212,-0.288,0.498,0.031,-0.034,-0.05,-0.221,-0.316,-0.292
-0.037,0.491,0.528,-0.227,-0.283,0.509,0.027,0.004,-0.042,-0.199,-0.295,-0.272
-0.033,0.495,0.528,-0.231,-0.281,0.511,0.021,0.023,-0.022,-0.19,-0.286,-0.264
-0.037,0.496,0.532,-0.23,-0.285,0.513,0.015,0.054,0.011,-0.166,-0.261,-0.252
-0.019,0.504,0.523,-0.242,-0.272,0.513,0.007,0.083,0.038,-0.14,-0.233,-0.243
0.022,0.538,0.516,-0.281,-0.247,0.527,0.001,0.117,0.078,-0.117,-0.215,-0.232
0.054,0.557,0.504,-0.306,-0.225,0.53,-0.006,0.154,0.114,-0.092,-0.201,-0.223
0.057,0.553,0.496,-0.305,-0.22,0.524,-0.015,0.204,0.162,-0.061,-0.185,-0.209
0.076,0.57,0.494,-0.323,-0.209,0.532,-0.02,0.268,0.222,-0.02,-0.16,-0.187
0.092,0.588,0.496,-0.34,-0.203,0.542,-0.018,0.337,0.292,0.027,-0.131,-0.161
0.143,0.63,0.487,-0.387,-0.172,0.558,-0.033,0.404,0.349,0.067,-0.094,-0.13
0.18,0.649,0.47,-0.415,-0.145,0.559,-0.046,0.462,0.401,0.119,-0.058,-0.108
0.19,0.653,0.463,-0.422,-0.136,0.557,-0.058,0.524,0.457,0.17,-0.019,-0.075
0.228,0.688,0.46,-0.458,-0.116,0.574,-0.071,0.558,0.453,0.18,0.006,-0.041
0.238,0.691,0.454,-0.465,-0.108,0.572,-0.086,0.554,0.435,0.175,0.016,-0.024
0.229,0.68,0.451,-0.455,-0.111,0.566,-0.103,0.548,0.42,0.166,0.041,-0.014
0.224,0.672,0.448,-0.448,-0.112,0.559,-0.11,0.498,0.358,0.147,0.05,-0.016
0.211,0.665,0.454,-0.438,-0.122,0.559,-0.118,0.411,0.272,0.108,0.024,-0.012
0.156,0.637,0.48,-0.397,-0.162,0.558,-0.09,0.325,0.183,0.048,-0.016,-0.025
0.098,0.587,0.489,-0.343,-0.196,0.538,-0.057,0.227,0.1,-0.001,-0.061,-0.067
0.074,0.561,0.487,-0.318,-0.207,0.524,-0.044,0.118,0.018,-0.063,-0.119,-0.117
0.04,0.525,0.486,-0.283,-0.223,0.505,-0.032,0.016,-0.065,-0.12,-0.178,-0.165
-0.009,0.472,0.482,-0.232,-0.246,0.477,-0.023,-0.057,-0.136,-0.157,-0.217,-0.197
-0.04,0.44,0.48,-0.2,-0.26,0.46,-0.012,-0.112,-0.196,-0.196,-0.248,-0.221
-0.042,0.434,0.476,-0.196,-0.259,0.455,-0.003,-0.16,-0.232,-0.221,-0.265,-0.234
-0.057,0.418,0.475,-0.181,-0.266,0.446,0.0,-0.19,-0.259,-0.246,-0.27,-0.239
-0.071,0.399,0.47,-0.164,-0.271,0.435,0.003,-0.2,-0.281,-0.265,-0.287,-0.24
-0.07,0.392,0.462,-0.161,-0.266,0.427,0.006,-0.193,-0.28,-0.276,-0.296,-0.239
-0.072,0.384,0.456,-0.156,-0.264,0.42,0.009,-0.186,-0.27,-0.277,-0.289,-0.24
-0.073,0.375,0.449,-0.151,-0.261,0.411,0.01,-0.179,-0.263,-0.266,-0.287,-0.24
-0.073,0.371,0.444,-0.15,-0.259,0.407,0.01,-0.173,-0.255,-0.259,-0.283,-0.239
-0.066,0.375,0.44,-0.155,-0.254,0.407,0.01,-0.168,-0.25,-0.248,-0.28,-0.236
-0.061,0.375,0.436,-0.157,-0.249,0.405,0.01,-0.162,-0.25,-0.236,-0.275,-0.233
-0.06,0.375,0.434,-0.158,-0.248,0.405,0.008,-0.159,-0.249,-0.226,-0.277,-0.23
-0.056,0.374,0.43,-0.159,-0.243,0.402,0.004,-0.153,-0.245,-0.224,-0.281,-0.227
-0.05,0.379,0.429,-0.164,-0.24,0.404,0.006,-0.151,-0.245,-0.235,-0.28,-0.225
-0.04,0.384,0.424,-0.172,-0.232,0.403,0.001,-0.154,-0.247,-0.241,-0.28,-0.223
-0.049,0.377,0.426,-0.165,-0.238,0.401,0.0,-0.162,-0.252,-0.239,-0.28,-0.219
-0.074,0.372,0.446,-0.149,-0.26,0.409,0.0,-0.171,-0.255,-0.245,-0.279,-0.22
-0.075,0.367,0.442,-0.146,-0.259,0.404,-0.005,-0.172,-0.262,-0.25,-0.275,-0.22
-0.07,0.361,0.431,-0.145,-0.251,0.396,-0.005,-0.175,-0.273,-0.255,-0.275,-0.219
-0.068,0.356,0.425,-0.144,-0.247,0.39,-0.005,-0.182,-0.28,-0.261,-0.275,-0.232
-0.066,0.351,0.416,-0.143,-0.241,0.383,-0.005,-0.186,-0.28,-0.26,-0.275,-0.235
-0.068,0.344,0.412,-0.139,-0.24,0.378,-0.005,-0.184,-0.28,-0.26,-0.275,-0.229
-0.064,0.34,0.404,-0.138,-0.234,0.372,-0.003,-0.187,-0.28,-0.26,-0.277,-0.227
-0.064,0.333,0.398,-0.135,-0.231,0.365,0.001,-0.195,-0.28,-0.26,-0.281,-0.222
-0.061,0.329,0.39,-0.134,-0.226,0.359,0.0,-0.195,-0.279,-0.258,-0.279,-0.219
-0.061,0.323,0.384,-0.131,-0.222,0.353,0.0,-0.194,-0.275,-0.255,-0.276,-0.216
-0.056,0.318,0.374,-0.131,-0.215,0.346,0.0,-0.19,-0.275,-0.252,-0.273,-0.213
-0.06,0.312,0.372,-0.126,-0.216,0.342,0.0,-0.19,-0.275,-0.25,-0.27,-0.21
-0.08,0.307,0.387,-0.114,-0.234,0.347,0.005,-0.189,-0.274,-0.246,-0.268,-0.208
-0.081,0.302,0.383,-0.111,-0.232,0.342,0.005,-0.184,-0.275,-0.245,-0.264,-0.204
-0.079,0.293,0.373,-0.107,-0.226,0.333,0.007,-0.185,-0.272,-0.242,-0.267,-0.211
-0.052,0.315,0.367,-0.132,-0.21,0.341,0.01,-0.182,-0.269,-0.237,-0.273,-0.216
-0.051,0.307,0.358,-0.128,-0.204,0.332,0.011,-0.179,-0.27,-0.234,-0.271,-0.211
-0.077,0.279,0.355,-0.101,-0.216,0.317,0.007,-0.181,-0.27,-0.23,-0.269,-0.209
-0.075,0.277,0.352,-0.101,-0.214,0.314,0.005,-0.176,-0.27,-0.226,-0.27,-0.204
-0.078,0.271,0.349,-0.096,-0.214,0.31,0.005,-0.175,-0.269,-0.223,-0.269,-0.201
-0.08,0.267,0.347,-0.094,-0.214,0.307,0.001,-0.175,-0.265,-0.22,-0.27,-0.198
-0.079,0.262,0.342,-0.092,-0.211,0.302,0.0,-0.17,-0.26,-0.217,-0.267,-0.192
-0.082,0.259,0.342,-0.088,-0.212,0.301,0.0,-0.17,-0.257,-0.215,-0.259,-0.188
-0.074,0.259,0.333,-0.093,-0.204,0.296,0.011,-0.168,-0.25,-0.211,-0.251,-0.183
-0.062,0.282,0.344,-0.111,-0.203,0.313,0.025,-0.16,-0.239,-0.211,-0.243,-0.179
-0.075,0.302,0.377,-0.114,-0.226,0.339,0.039,-0.149,-0.215,-0.203,-0.236,-0.175
-0.072,0.31,0.382,-0.12,-0.227,0.346,0.048,-0.145,-0.193,-0.186,-0.229,-0.167
-0.033,0.35,0.383,-0.159,-0.208,0.366,0.027,-0.137,-0.187,-0.184,-0.223,-0.152
0.001,0.361,0.36,-0.181,-0.18,0.361,0.013,-0.141,-0.186,-0.185,-0.219,-0.148
-0.003,0.344,0.347,-0.171,-0.175,0.346,0.007,-0.185,-0.206,-0.184,-0.212,-0.15
-0.029,0.337,0.366,-0.154,-0.197,0.351,-0.007,-0.197,-0.227,-0.186,-0.207,-0.151
-0.041,0.311,0.351,-0.135,-0.196,0.331,-0.016,-0.182,-0.224,-0.183,-0.206,-0.156
-0.051,0.259,0.31,-0.104,-0.181,0.284,-0.017,-0.183,-0.234,-0.191,-0.219,-0.153
-0.063,0.21,0.273,-0.074,-0.168,0.241,-0.005,-0.171,-0.232,-0.209,-0.234,-0.164
-0.079,0.173,0.251,-0.047,-0.165,0.211,-0.004,-0.178,-0.237,-0.225,-0.246,-0.176
-0.072,0.169,0.241,-0.048,-0.157,0.204,0.008,-0.163,-0.239,-0.228,-0.261,-0.179
-0.07,0.161,0.231,-0.046,-0.151,0.196,0.01,-0.17,-0.246,-0.217,-0.26,-0.185
-0.073,0.15,0.223,-0.039,-0.148,0.187,0.015,-0.158,-0.245,-0.227,-0.271,-0.192
-0.058,0.151,0.209,-0.047,-0.134,0.18,0.009,-0.148,-0.233,-0.207,-0.257,-0.19
-0.085,0.13,0.215,-0.023,-0.15,0.173,0.007,-0.146,-0.238,-0.225,-0.274,-0.196
-0.098,0.14,0.238,-0.021,-0.168,0.188,0.094,0.025,-0.116,-0.194,-0.291,-0.226
-0.093,0.103,0.196,-0.005,-0.145,0.149,0.139,0.176,-0.004,-0.127,-0.309,-0.264
0.053,0.289,0.237,-0.171,-0.092,0.263,0.051,0.202,0.192,0.127,-0.091,-0.111
0.332,0.628,0.295,-0.48,0.018,0.461,-0.29,-0.724,-0.14,0.512,0.516,0.38
0.575,0.973,0.398,-0.774,0.088,0.685,-0.834,-2.326,-1.206,0.865,1.517,1.199
0.738,1.139,0.401,-0.939,0.168,0.77,-1.218,-2.98,-1.784,1.309,2.264,1.78
0.359,0.554,0.195,-0.457,0.081,0.375,-1.042,-2.604,-1.855,0.462,0.973,0.992
-0.209,-0.069,0.14,0.139,-0.174,0.035,-0.489,-1.721,-1.612,-0.806,-0.55,-0.119
-0.292,-0.288,0.005,0.29,-0.148,-0.141,-0.233,-1.161,-1.224,-0.857,-0.608,-0.347
-0.242,-0.291,-0.049,0.267,-0.096,-0.17,-0.181,-0.877,-0.867,-0.66,-0.562,-0.352
-0.17,-0.12,0.05,0.145,-0.11,-0.035,-0.048,-0.391,-0.419,-0.406,-0.415,-0.273
-0.086,0.002,0.088,0.042,-0.087,0.045,0.04,-0.105,-0.17,-0.219,-0.299,-0.205
-0.07,0.064,0.134,0.003,-0.102,0.098,0.071,0.015,-0.069,-0.164,-0.276,-0.183
-0.037,0.084,0.121,-0.024,-0.08,0.103,0.084,0.075,-0.017,-0.107,-0.221,-0.147
-0.023,0.1,0.122,-0.039,-0.073,0.111,0.079,0.093,0.013,-0.093,-0.222,-0.149
-0.019,0.101,0.12,-0.041,-0.07,0.111,0.08,0.121,0.041,-0.051,-0.189,-0.132
-0.008,0.105,0.113,-0.049,-0.061,0.109,0.08,0.143,0.06,-0.042,-0.189,-0.128
-0.009,0.11,0.119,-0.051,-0.064,0.114,0.08,0.169,0.09,-0.018,-0.165,-0.113
-0.016,0.111,0.127,-0.048,-0.072,0.119,0.08,0.18,0.104,-0.01,-0.149,-0.099
-0.007,0.117,0.124,-0.055,-0.066,0.12,0.075,0.206,0.14,0.015,-0.128,-0.077
0.002,0.117,0.115,-0.06,-0.056,0.115,0.072,0.232,0.175,0.043,-0.11,-0.063
0.026,0.136,0.109,-0.081,-0.042,0.122,0.068,0.255,0.2,0.052,-0.105,-0.063
0.062,0.159,0.097,-0.111,-0.018,0.128,0.064,0.295,0.243,0.099,-0.088,-0.053
0.074,0.159,0.085,-0.117,-0.006,0.122,0.061,0.346,0.296,0.136,-0.061,-0.029
0.089,0.164,0.075,-0.127,0.007,0.119,0.057,0.406,0.349,0.168,-0.028,-0.002
0.114,0.184,0.07,-0.149,0.022,0.126,0.045,0.471,0.419,0.223,0.006,0.018
0.133,0.173,0.04,-0.153,0.047,0.106,0.033,0.538,0.488,0.272,0.043,0.048
0.165,0.196,0.031,-0.181,0.067,0.113,0.021,0.601,0.538,0.318,0.081,0.08
0.195,0.226,0.03,-0.211,0.082,0.128,0.009,0.655,0.592,0.355,0.122,0.107
0.221,0.23,0.009,-0.226,0.105,0.119,-0.004,0.699,0.62,0.367,0.156,0.137
0.235,0.246,0.011,-0.241,0.112,0.128,-0.02,0.708,0.62,0.361,0.177,0.166
0.229,0.238,0.009,-0.233,0.11,0.124,-0.037,0.7,0.592,0.358,0.193,0.187
0.228,0.233,0.006,-0.231,0.111,0.119,-0.033,0.671,0.525,0.353,0.189,0.197
0.219,0.224,0.005,-0.222,0.107,0.114,-0.026,0.597,0.441,0.322,0.173,0.192
0.189,0.195,0.006,-0.193,0.092,0.1,-0.014,0.51,0.348,0.269,0.147,0.163
0.135,0.154,0.018,-0.145,0.058,0.086,0.011,0.412,0.261,0.207,0.089,0.117
0.076,0.103,0.027,-0.089,0.024,0.065,0.029,0.309,0.176,0.144,0.037,0.067
0.012,0.061,0.049,-0.036,-0.019,0.054,0.045,0.214,0.099,0.072,-0.004,0.031
-0.038,0.019,0.057,0.009,-0.048,0.038,0.05,0.139,0.036,0.021,-0.049,0.004
-0.059,-0.015,0.044,0.037,-0.052,0.014,0.065,0.079,-0.029,-0.012,-0.086,-0.024
-0.079,-0.045,0.034,0.062,-0.056,-0.006,0.078,0.026,-0.075,-0.049,-0.107,-0.043
-0.086,-0.066,0.02,0.076,-0.053,-0.022,0.073,0.004,-0.102,-0.062,-0.114,-0.052
-0.089,-0.08,0.009,0.084,-0.049,-0.035,0.076,0.004,-0.106,-0.081,-0.121,-0.051
-0.087,-0.086,0.001,0.086,-0.044,-0.042,0.074,-0.001,-0.101,-0.091,-0.127,-0.05
-0.081,-0.088,-0.008,0.085,-0.036,-0.048,0.076,0.002,-0.1,-0.083,-0.123,-0.05
-0.087,-0.104,-0.017,0.096,-0.034,-0.06,0.08,0.009,-0.096,-0.081,-0.12,-0.05
-0.082,-0.106,-0.024,0.094,-0.029,-0.065,0.08,0.016,-0.095,-0.075,-0.117,-0.051
-0.067,-0.108,-0.041,0.088,-0.013,-0.074,0.078,0.022,-0.09,-0.075,-0.115,-0.048
-0.07,-0.116,-0.046,0.093,-0.011,-0.081,0.073,0.029,-0.084,-0.075,-0.113,-0.043
-0.069,-0.11,-0.041,0.09,-0.014,-0.075,0.07,0.034,-0.079,-0.075,-0.11,-0.037
-0.065,-0.104,-0.04,0.085,-0.012,-0.072,0.067,0.031,-0.073,-0.075,-0.107,-0.034
-0.065,-0.1,-0.035,0.083,-0.015,-0.067,0.062,0.028,-0.066,-0.075,-0.104,-0.028
-0.056,-0.092,-0.036,0.074,-0.01,-0.064,0.061,0.025,-0.076,-0.075,-0.1,-0.025
-0.066,-0.093,-0.027,0.079,-0.019,-0.059,0.064,0.022,-0.092,-0.075,-0.1,-0.03
-0.063,-0.103,-0.04,0.083,-0.011,-0.072,0.067,0.02,-0.092,-0.075,-0.105,-0.03
-0.05,-0.114,-0.064,0.082,0.007,-0.089,0.07,0.017,-0.097,-0.075,-0.105,-0.031
-0.055,-0.118,-0.063,0.087,0.004,-0.09,0.072,0.011,-0.1,-0.075,-0.105,-0.035
-0.06,-0.126,-0.066,0.093,0.003,-0.095,0.076,0.006,-0.099,-0.075,-0.105,-0.035
-0.083,-0.147,-0.064,0.115,-0.009,-0.105,0.072,0.001,-0.106,-0.078,-0.105,-0.033
-0.078,-0.15,-0.072,0.114,-0.003,-0.111,0.07,-0.006,-0.111,-0.087,-0.103,-0.03
-0.079,-0.151,-0.073,0.115,-0.003,-0.112,0.07,-0.009,-0.11,-0.089,-0.1,-0.03
-0.102,-0.147,-0.045,0.124,-0.029,-0.096,0.066,-0.006,-0.11,-0.085,-0.097,-0.03
-0.086,-0.161,-0.075,0.124,-0.006,-0.118,0.064,-0.003,-0.11,-0.085,-0.094,-0.03
-0.091,-0.186,-0.094,0.139,0.002,-0.14,0.066,-0.001,-0.11,-0.085,-0.09,-0.03
-0.1,-0.18,-0.08,0.141,-0.01,-0.13,0.069,0.003,-0.105,-0.085,-0.09,-0.03
-0.062,-0.177,-0.115,0.12,0.027,-0.146,0.07,0.005,-0.105,-0.085,-0.095,-0.03
-0.047,-0.169,-0.121,0.108,0.037,-0.145,0.07,0.003,-0.104,-0.081,-0.095,-0.03
-0.072,-0.185,-0.112,0.129,0.02,-0.148,0.07,0.0,-0.099,-0.08,-0.095,-0.03
-0.076,-0.19,-0.114,0.133,0.019,-0.152,0.07,-0.003,-0.1,-0.08,-0.095,-0.03
-0.097,-0.202,-0.105,0.15,0.004,-0.154,0.069,-0.006,-0.097,-0.08,-0.095,-0.03
-0.124,-0.23,-0.106,0.177,-0.009,-0.168,0.065,-0.01,-0.094,-0.08,-0.093,-0.03
-0.103,-0.223,-0.12,0.163,0.009,-0.171,0.065,-0.01,-0.095,-0.079,-0.088,-0.03
-0.092,-0.226,-0.134,0.159,0.021,-0.179,0.066,-0.011,-0.095,-0.074,-0.085,-0.03
-0.097,-0.225,-0.127,0.161,0.016,-0.176,0.064,-0.015,-0.095,-0.071,-0.082,-0.03
-0.093,-0.225,-0.132,0.159,0.02,-0.178,0.067,-0.015,-0.095,-0.068,-0.077,-0.03
-0.08,-0.221,-0.141,0.151,0.031,-0.181,0.058,-0.012,-0.088,-0.063,-0.075,-0.023
-0.072,-0.211,-0.139,0.142,0.034,-0.175,0.063,0.001,-0.077,-0.061,-0.065,-0.013
-0.081,-0.204,-0.123,0.143,0.021,-0.163,0.087,0.013,-0.067,-0.054,-0.05,-0.002
-0.081,-0.174,-0.093,0.128,0.006,-0.133,0.101,0.029,-0.057,-0.038,-0.039,0.01
-0.066,-0.147,-0.082,0.107,0.008,-0.114,0.106,0.042,-0.054,-0.025,-0.032,0.022
-0.059,-0.136,-0.077,0.097,0.009,-0.106,0.095,0.026,-0.052,-0.019,-0.029,0.032
-0.035,-0.128,-0.093,0.082,0.029,-0.11,0.077,0.015,-0.049,-0.017,-0.023,0.031
-0.033,-0.131,-0.098,0.082,0.033,-0.114,0.06,-0.013,-0.045,-0.013,-0.02,0.028
-0.048,-0.128,-0.08,0.089,0.016,-0.104,0.053,-0.038,-0.044,-0.009,-0.024,0.025
-0.03,-0.137,-0.107,0.084,0.039,-0.122,0.057,-0.025,-0.051,-0.022,-0.027,0.023
-0.041,-0.175,-0.134,0.108,0.047,-0.154,0.053,-0.024,-0.071,-0.045,-0.029,0.02
-0.062,-0.216,-0.154,0.139,0.046,-0.185,0.056,-0.012,-0.071,-0.056,-0.037,0.018
-0.076,-0.261,-0.185,0.169,0.055,-0.223,0.054,-0.019,-0.09,-0.069,-0.048,0.014
-0.087,-0.264,-0.177,0.176,0.045,-0.22,0.051,-0.004,-0.103,-0.087,-0.061,0.009
-0.102,-0.273,-0.171,0.188,0.035,-0.222,0.051,-0.01,-0.113,-0.084,-0.063,0.009
-0.093,-0.283,-0.19,0.189,0.049,-0.236,0.047,-0.001,-0.103,-0.076,-0.07,0.0
-0.065,-0.282,-0.216,0.174,0.076,-0.249,0.068,0.009,-0.086,-0.052,-0.059,0.002
-0.091,-0.321,-0.23,0.207,0.07,-0.275,0.087,0.002,-0.11,-0.074,-0.071,-0.013
-0.091,-0.295,-0.204,0.194,0.056,-0.249,0.143,0.168,0.014,-0.049,-0.077,-0.041
-0.109,-0.305,-0.196,0.207,0.044,-0.25,0.21,0.316,0.119,0.004,-0.104,-0.078
0.014,-0.117,-0.131,0.052,0.072,-0.124,0.115,0.336,0.299,0.245,0.101,0.057
0.308,0.204,-0.105,-0.255,0.206,0.049,-0.247,-0.635,-0.012,0.649,0.679,0.527
0.542,0.55,0.008,-0.546,0.267,0.278,-0.794,-2.31,-1.06,1.021,1.649,1.321
0.747,0.772,0.025,-0.76,0.361,0.398,-1.234,-3.033,-1.66,1.488,2.503,1.976
0.432,0.189,-0.243,-0.31,0.338,-0.027,-1.081,-2.657,-1.752,0.714,1.342,1.274
-0.192,-0.503,-0.311,0.348,0.06,-0.407,-0.49,-1.707,-1.531,-0.647,-0.304,0.08
-0.312,-0.734,-0.422,0.523,0.055,-0.578,-0.235,-1.11,-1.141,-0.777,-0.447,-0.188
-0.25,-0.704,-0.455,0.477,0.103,-0.579,-0.179,-0.776,-0.738,-0.506,-0.348,-0.162
-0.193,-0.524,-0.331,0.359,0.069,-0.427,-0.001,-0.253,-0.282,-0.247,-0.198,-0.107
-0.116,-0.408,-0.292,0.262,0.089,-0.35,0.085,0.03,-0.053,-0.063,-0.076,-0.041
-0.106,-0.358,-0.252,0.232,0.073,-0.305,0.103,0.149,0.045,-0.022,-0.063,-0.025
-0.063,-0.355,-0.292,0.21,0.115,-0.323,0.125,0.22,0.108,0.029,-0.009,0.009
-0.049,-0.336,-0.287,0.193,0.12,-0.311,0.126,0.24,0.138,0.034,-0.002,0.015
-0.048,-0.319,-0.272,0.184,0.112,-0.295,0.125,0.266,0.163,0.06,0.022,0.037
-0.039,-0.311,-0.272,0.175,0.117,-0.291,0.124,0.284,0.178,0.08,0.021,0.042
-0.03,-0.299,-0.268,0.164,0.119,-0.283,0.121,0.3,0.211,0.107,0.041,0.047
-0.022,-0.291,-0.269,0.157,0.124,-0.28,0.12,0.322,0.229,0.135,0.051,0.06
0.005,-0.279,-0.284,0.137,0.145,-0.281,0.119,0.35,0.251,0.154,0.072,0.073
0.042,-0.273,-0.315,0.115,0.179,-0.293,0.114,0.377,0.295,0.176,0.089,0.081
0.044,-0.263,-0.307,0.109,0.176,-0.285,0.109,0.41,0.33,0.195,0.109,0.087
0.057,-0.256,-0.313,0.1,0.185,-0.284,0.105,0.464,0.372,0.221,0.141,0.115
0.067,-0.248,-0.316,0.091,0.192,-0.282,0.1,0.522,0.428,0.267,0.163,0.142
0.076,-0.238,-0.314,0.082,0.195,-0.275,0.096,0.582,0.482,0.301,0.191,0.149
0.1,-0.216,-0.316,0.058,0.209,-0.266,0.089,0.649,0.543,0.335,0.214,0.167
0.13,-0.183,-0.313,0.027,0.222,-0.248,0.077,0.721,0.61,0.391,0.249,0.194
0.172,-0.17,-0.341,-0.001,0.257,-0.255,0.066,0.794,0.668,0.442,0.292,0.226
0.204,-0.153,-0.357,-0.025,0.281,-0.255,0.054,0.853,0.719,0.488,0.332,0.261
0.226,-0.127,-0.353,-0.049,0.289,-0.239,0.039,0.893,0.736,0.521,0.365,0.291
0.259,-0.118,-0.377,-0.069,0.318,-0.247,0.013,0.897,0.722,0.519,0.402,0.319
0.266,-0.12,-0.387,-0.072,0.327,-0.253,-0.005,0.89,0.7,0.517,0.422,0.342
0.263,-0.114,-0.377,-0.074,0.32,-0.245,-0.002,0.847,0.643,0.495,0.416,0.356
0.253,-0.115,-0.368,-0.068,0.311,-0.241,0.007,0.757,0.554,0.439,0.398,0.35
0.22,-0.136,-0.356,-0.042,0.288,-0.246,0.011,0.656,0.452,0.387,0.362,0.32
0.149,-0.192,-0.341,0.021,0.245,-0.266,0.027,0.553,0.362,0.333,0.316,0.268
0.063,-0.265,-0.328,0.101,0.196,-0.296,0.057,0.442,0.277,0.273,0.258,0.219
0.024,-0.295,-0.319,0.136,0.172,-0.307,0.067,0.336,0.195,0.216,0.203,0.181
-0.01,-0.329,-0.32,0.169,0.155,-0.324,0.081,0.26,0.133,0.165,0.167,0.15
-0.047,-0.365,-0.317,0.206,0.135,-0.341,0.091,0.204,0.075,0.116,0.131,0.119
-0.068,-0.378,-0.311,0.224,0.121,-0.344,0.092,0.167,0.032,0.075,0.104,0.096
-0.054,-0.391,-0.337,0.223,0.142,-0.364,0.096,0.139,0.008,0.047,0.099,0.095
-0.053,-0.406,-0.353,0.23,0.15,-0.379,0.098,0.127,-0.024,0.038,0.097,0.095
-0.089,-0.435,-0.346,0.262,0.128,-0.39,0.102,0.132,-0.036,0.04,0.094,0.094
-0.101,-0.432,-0.331,0.267,0.116,-0.382,0.105,0.134,-0.027,0.04,0.09,0.095
-0.082,-0.443,-0.36,0.263,0.14,-0.401,0.109,0.138,-0.019,0.044,0.09,0.094
-0.058,-0.472,-0.414,0.265,0.178,-0.443,0.109,0.142,-0.011,0.045,0.095,0.091
-0.057,-0.466,-0.408,0.261,0.176,-0.437,0.105,0.143,-0.003,0.049,0.095,0.089
-0.054,-0.464,-0.41,0.259,0.178,-0.436,0.103,0.156,0.017,0.061,0.095,0.09
-0.048,-0.459,-0.411,0.253,0.181,-0.435,0.1,0.175,0.034,0.065,0.094,0.09
-0.05,-0.456,-0.406,0.253,0.179,-0.431,0.097,0.183,0.034,0.065,0.101,0.09
-0.048,-0.452,-0.404,0.25,0.178,-0.428,0.095,0.181,0.035,0.065,0.106,0.09
-0.054,-0.45,-0.396,0.252,0.171,-0.423,0.095,0.174,0.034,0.065,0.104,0.09
-0.066,-0.462,-0.397,0.264,0.166,-0.429,0.095,0.17,0.035,0.065,0.105,0.09
-0.086,-0.469,-0.383,0.278,0.148,-0.426,0.095,0.164,0.033,0.061,0.105,0.09
-0.073,-0.47,-0.398,0.272,0.162,-0.434,0.095,0.158,0.021,0.056,0.105,0.09
-0.059,-0.468,-0.409,0.264,0.175,-0.439,0.095,0.154,0.006,0.053,0.107,0.089
-0.07,-0.487,-0.417,0.279,0.174,-0.452,0.096,0.148,-0.004,0.047,0.11,0.086
-0.057,-0.495,-0.438,0.277,0.191,-0.467,0.1,0.144,-0.009,0.043,0.11,0.083
-0.065,-0.496,-0.431,0.28,0.184,-0.463,0.1,0.139,-0.014,0.04,0.11,0.08
-0.062,-0.492,-0.43,0.277,0.184,-0.46,0.1,0.135,-0.018,0.037,0.11,0.077
-0.065,-0.492,-0.427,0.279,0.181,-0.459,0.1,0.13,-0.022,0.035,0.109,0.074
-0.096,-0.52,-0.423,0.308,0.164,-0.471,0.1,0.13,-0.026,0.031,0.106,0.078
-0.091,-0.52,-0.429,0.306,0.169,-0.475,0.104,0.13,-0.032,0.03,0.1,0.081
-0.085,-0.52,-0.435,0.303,0.176,-0.477,0.105,0.128,-0.039,0.026,0.106,0.08
-0.086,-0.526,-0.44,0.306,0.178,-0.483,0.105,0.141,-0.04,0.025,0.116,0.08
-0.084,-0.523,-0.439,0.303,0.178,-0.481,0.105,0.144,-0.041,0.025,0.115,0.08
-0.088,-0.528,-0.44,0.308,0.176,-0.484,0.105,0.136,-0.044,0.027,0.113,0.079
-0.09,-0.53,-0.44,0.31,0.175,-0.485,0.104,0.134,-0.046,0.031,0.125,0.083
-0.09,-0.53,-0.44,0.31,0.175,-0.485,0.099,0.128,-0.043,0.03,0.137,0.085
-0.091,-0.53,-0.439,0.31,0.174,-0.485,0.096,0.126,-0.04,0.03,0.134,0.084
-0.082,-0.529,-0.447,0.306,0.182,-0.488,0.093,0.128,-0.04,0.03,0.135,0.096
-0.072,-0.525,-0.453,0.299,0.191,-0.489,0.088,0.139,-0.04,0.029,0.135,0.102
-0.072,-0.519,-0.447,0.295,0.188,-0.483,0.085,0.146,-0.04,0.032,0.135,0.099
-0.069,-0.516,-0.447,0.293,0.189,-0.481,0.089,0.144,-0.041,0.034,0.138,0.097
-0.068,-0.511,-0.442,0.29,0.187,-0.476,0.094,0.145,-0.036,0.04,0.142,0.094
-0.066,-0.507,-0.441,0.286,0.188,-0.473,0.097,0.144,-0.029,0.048,0.146,0.095
-0.064,-0.501,-0.437,0.283,0.187,-0.469,0.102,0.152,-0.023,0.061,0.153,0.102
-0.076,-0.486,-0.41,0.282,0.167,-0.448,0.109,0.173,-0.008,0.082,0.171,0.11
-0.093,-0.474,-0.381,0.284,0.144,-0.427,0.132,0.187,0.014,0.093,0.184,0.125
-0.084,-0.45,-0.366,0.268,0.141,-0.408,0.14,0.178,0.031,0.104,0.202,0.138
-0.045,-0.433,-0.388,0.239,0.172,-0.41,0.113,0.167,0.027,0.105,0.211,0.135
-0.021,-0.435,-0.414,0.228,0.197,-0.424,0.075,0.166,0.02,0.098,0.202,0.13
-0.027,-0.434,-0.407,0.23,0.19,-0.42,0.057,0.163,0.011,0.095,0.196,0.125
-0.032,-0.446,-0.414,0.239,0.192,-0.43,0.062,0.168,0.005,0.09,0.19,0.121
-0.038,-0.481,-0.443,0.26,0.202,-0.462,0.057,0.161,-0.004,0.086,0.182,0.116
-0.049,-0.519,-0.47,0.284,0.211,-0.494,0.074,0.17,-0.01,0.079,0.177,0.112
-0.069,-0.552,-0.483,0.311,0.207,-0.517,0.087,0.158,-0.025,0.074,0.175,0.109
-0.101,-0.571,-0.47,0.336,0.185,-0.52,0.083,0.163,-0.035,0.064,0.173,0.104
-0.09,-0.574,-0.484,0.332,0.197,-0.529,0.087,0.155,-0.039,0.061,0.178,0.103
-0.091,-0.595,-0.504,0.343,0.206,-0.549,0.083,0.151,-0.048,0.047,0.171,0.095
-0.095,-0.594,-0.499,0.345,0.202,-0.546,0.088,0.16,-0.038,0.049,0.18,0.097
-0.077,-0.597,-0.52,0.337,0.222,-0.558,0.085,0.129,-0.053,0.049,0.164,0.086
-0.1,-0.59,-0.49,0.345,0.195,-0.539,0.143,0.29,0.042,0.055,0.167,0.076
-0.117,-0.614,-0.497,0.366,0.19,-0.555,0.23,0.45,0.143,0.105,0.146,0.041
-0.005,-0.464,-0.459,0.234,0.227,-0.461,0.163,0.55,0.328,0.296,0.253,0.108
0.252,-0.156,-0.408,-0.048,0.331,-0.282,-0.152,-0.25,0.167,0.657,0.747,0.505
0.517,0.146,-0.371,-0.331,0.444,-0.113,-0.677,-2.036,-0.815,0.962,1.568,1.21
0.79,0.456,-0.334,-0.623,0.562,0.061,-1.187,-3.035,-1.562,1.357,2.479,1.965
0.599,0.024,-0.575,-0.311,0.587,-0.275,-1.171,-2.788,-1.705,0.936,1.801,1.575
-0.083,-0.739,-0.657,0.411,0.287,-0.698,-0.563,-1.778,-1.515,-0.339,0.134,0.335
-0.337,-1.025,-0.688,0.681,0.176,-0.856,-0.233,-1.069,-1.158,-0.702,-0.261,-0.105
-0.27,-1.009,-0.738,0.64,0.234,-0.873,-0.19,-0.709,-0.741,-0.408,-0.124,-0.072
-0.221,-0.825,-0.604,0.523,0.192,-0.714,0.0,-0.145,-0.277,-0.159,0.004,-0.025
-0.136,-0.71,-0.574,0.424,0.219,-0.642,0.105,0.188,-0.017,0.037,0.144,0.06
-0.099,-0.646,-0.547,0.372,0.224,-0.596,0.131,0.324,0.091,0.09,0.166,0.084
-0.064,-0.613,-0.549,0.338,0.243,-0.581,0.138,0.386,0.139,0.129,0.208,0.111
-0.052,-0.604,-0.551,0.328,0.25,-0.577,0.133,0.415,0.164,0.147,0.208,0.107
-0.048,-0.588,-0.541,0.318,0.247,-0.564,0.137,0.445,0.194,0.17,0.232,0.12
-0.038,-0.586,-0.549,0.313,0.256,-0.567,0.133,0.456,0.211,0.191,0.237,0.126
-0.035,-0.574,-0.539,0.304,0.252,-0.556,0.136,0.49,0.235,0.211,0.253,0.134
-0.028,-0.57,-0.542,0.299,0.257,-0.556,0.13,0.513,0.268,0.237,0.272,0.145
-0.023,-0.561,-0.538,0.292,0.257,-0.549,0.127,0.536,0.291,0.247,0.281,0.156
-0.015,-0.556,-0.541,0.286,0.263,-0.548,0.124,0.568,0.321,0.265,0.298,0.173
-0.009,-0.548,-0.539,0.278,0.265,-0.543,0.119,0.604,0.364,0.294,0.314,0.183
0.014,-0.526,-0.541,0.256,0.278,-0.533,0.116,0.645,0.398,0.322,0.333,0.189
0.035,-0.51,-0.545,0.238,0.29,-0.527,0.112,0.7,0.445,0.356,0.35,0.207
0.057,-0.497,-0.553,0.22,0.305,-0.525,0.103,0.773,0.5,0.398,0.379,0.231
0.089,-0.478,-0.568,0.195,0.329,-0.523,0.092,0.844,0.561,0.442,0.412,0.252
0.117,-0.452,-0.569,0.167,0.343,-0.51,0.083,0.919,0.627,0.484,0.439,0.279
0.155,-0.433,-0.588,0.139,0.372,-0.51,0.068,0.995,0.677,0.517,0.476,0.303
0.183,-0.413,-0.596,0.116,0.39,-0.505,0.051,1.053,0.721,0.559,0.512,0.328
0.209,-0.386,-0.595,0.089,0.402,-0.49,0.035,1.1,0.736,0.594,0.541,0.356
0.22,-0.38,-0.6,0.08,0.41,-0.49,0.019,1.111,0.719,0.598,0.573,0.388
0.223,-0.378,-0.601,0.078,0.412,-0.49,0.007,1.098,0.705,0.603,0.599,0.414
0.234,-0.377,-0.611,0.071,0.423,-0.494,0.001,1.059,0.659,0.59,0.608,0.436
0.221,-0.372,-0.593,0.076,0.408,-0.482,-0.007,0.967,0.58,0.543,0.595,0.438
0.191,-0.379,-0.57,0.095,0.381,-0.474,-0.007,0.869,0.487,0.493,0.565,0.406
0.149,-0.423,-0.573,0.137,0.361,-0.497,0.013,0.751,0.387,0.427,0.506,0.363
0.091,-0.481,-0.572,0.196,0.332,-0.526,0.037,0.628,0.305,0.368,0.446,0.312
0.019,-0.536,-0.555,0.259,0.287,-0.545,0.054,0.532,0.226,0.321,0.4,0.269
-0.022,-0.568,-0.546,0.296,0.262,-0.557,0.072,0.443,0.157,0.267,0.354,0.231
-0.051,-0.59,-0.539,0.321,0.244,-0.564,0.082,0.376,0.102,0.217,0.314,0.189
-0.077,-0.61,-0.533,0.344,0.228,-0.571,0.085,0.331,0.056,0.187,0.291,0.168
-0.063,-0.632,-0.569,0.347,0.254,-0.6,0.09,0.288,0.02,0.172,0.283,0.163
-0.047,-0.636,-0.588,0.342,0.271,-0.612,0.093,0.268,0.005,0.157,0.275,0.156
-0.066,-0.648,-0.583,0.357,0.259,-0.615,0.095,0.271,0.005,0.145,0.264,0.149
-0.081,-0.666,-0.586,0.374,0.253,-0.626,0.097,0.275,0.002,0.134,0.258,0.143
-0.079,-0.663,-0.584,0.372,0.253,-0.624,0.101,0.278,-0.001,0.122,0.25,0.137
-0.08,-0.665,-0.585,0.373,0.253,-0.625,0.098,0.282,-0.001,0.1,0.246,0.135
