-0.001,-0.585,-0.584,0.293,0.292,-0.584,0.169,0.408,0.047,0.031,0.023,0.052
-0.043,-0.463,-0.42,0.253,0.188,-0.441,0.246,0.47,0.146,0.06,0.039,0.053
-0.029,-0.013,0.016,0.021,-0.023,0.002,0.198,0.303,0.664,0.522,0.356,0.241
-0.026,0.545,0.571,-0.26,-0.299,0.558,-0.106,-0.285,1.385,1.277,0.907,0.577
-0.336,0.182,0.518,0.077,-0.427,0.35,-0.255,-1.34,-0.648,0.0,0.405,0.395
-0.492,-0.566,-0.074,0.529,-0.208,-0.32,-0.188,-1.609,-2.024,-1.058,-0.278,0.02
-0.378,-0.771,-0.393,0.575,0.008,-0.581,-0.211,-1.137,-1.247,-0.718,-0.304,-0.086
-0.223,-0.8,-0.577,0.512,0.177,-0.688,-0.169,-0.661,-0.886,-0.543,-0.265,-0.089
-0.11,-0.696,-0.587,0.403,0.239,-0.641,-0.036,-0.226,-0.417,-0.252,-0.126,-0.026
-0.087,-0.524,-0.437,0.306,0.175,-0.48,0.07,-0.016,-0.156,-0.082,-0.026,0.036
-0.024,-0.411,-0.387,0.218,0.182,-0.399,0.094,0.078,-0.073,-0.018,0.026,0.077
-0.014,-0.384,-0.37,0.199,0.178,-0.377,0.073,0.14,0.01,0.026,0.052,0.088
-0.006,-0.37,-0.363,0.188,0.179,-0.366,0.065,0.185,0.011,0.02,0.042,0.083
0.015,-0.33,-0.345,0.157,0.18,-0.337,0.062,0.218,0.065,0.054,0.055,0.087
-0.002,-0.335,-0.333,0.169,0.166,-0.334,0.067,0.237,0.079,0.066,0.048,0.083
0.0,-0.321,-0.321,0.161,0.16,-0.321,0.063,0.28,0.141,0.096,0.062,0.086
-0.014,-0.318,-0.304,0.166,0.145,-0.311,0.067,0.305,0.172,0.112,0.076,0.09
0.01,-0.301,-0.311,0.146,0.161,-0.306,0.063,0.356,0.259,0.166,0.102,0.109
0.017,-0.282,-0.3,0.133,0.159,-0.291,0.063,0.421,0.34,0.214,0.129,0.123
0.04,-0.239,-0.279,0.099,0.16,-0.259,0.066,0.457,0.433,0.281,0.166,0.138
0.091,-0.175,-0.266,0.042,0.179,-0.22,0.034,0.477,0.56,0.373,0.216,0.165
0.092,-0.142,-0.234,0.025,0.164,-0.188,0.006,0.517,0.654,0.439,0.251,0.184
0.122,-0.095,-0.217,-0.013,0.17,-0.156,-0.01,0.545,0.74,0.509,0.296,0.211
0.172,-0.042,-0.215,-0.065,0.193,-0.128,-0.012,0.544,0.774,0.556,0.343,0.235
0.173,-0.009,-0.182,-0.081,0.178,-0.096,-0.01,0.537,0.752,0.559,0.346,0.234
0.136,-0.005,-0.141,-0.066,0.139,-0.073,-0.007,0.515,0.669,0.507,0.33,0.229
0.109,-0.03,-0.139,-0.039,0.124,-0.085,0.022,0.494,0.497,0.395,0.284,0.21
0.062,-0.087,-0.149,0.013,0.106,-0.118,0.073,0.42,0.324,0.273,0.203,0.153
0.007,-0.134,-0.14,0.064,0.074,-0.137,0.118,0.329,0.145,0.136,0.119,0.107
-0.027,-0.178,-0.151,0.103,0.063,-0.164,0.13,0.268,0.007,0.037,0.059,0.067
-0.044,-0.23,-0.186,0.137,0.071,-0.208,0.127,0.19,-0.067,-0.008,0.022,0.03
-0.066,-0.25,-0.184,0.158,0.059,-0.217,0.126,0.163,-0.128,-0.052,-0.007,0.028
-0.077,-0.265,-0.188,0.171,0.055,-0.226,0.13,0.153,-0.153,-0.071,-0.012,0.024
-0.078,-0.293,-0.214,0.186,0.068,-0.253,0.13,0.136,-0.155,-0.067,-0.008,0.02
-0.058,-0.297,-0.239,0.178,0.091,-0.268,0.13,0.125,-0.149,-0.061,-0.006,0.016
-0.036,-0.281,-0.246,0.159,0.105,-0.263,0.13,0.109,-0.145,-0.056,-0.002,0.016
-0.067,-0.318,-0.251,0.193,0.092,-0.284,0.13,0.144,-0.14,-0.049,0.0,0.03
-0.074,-0.347,-0.272,0.21,0.099,-0.309,0.126,0.162,-0.143,-0.046,-0.002,0.044
-0.07,-0.333,-0.264,0.202,0.097,-0.298,0.119,0.148,-0.146,-0.055,-0.009,0.046
-0.075,-0.338,-0.263,0.207,0.094,-0.3,0.113,0.146,-0.145,-0.062,-0.014,0.034
-0.064,-0.32,-0.256,0.192,0.096,-0.288,0.105,0.136,-0.15,-0.059,-0.019,0.025
-0.042,-0.291,-0.249,0.167,0.104,-0.27,0.1,0.135,-0.15,-0.062,-0.026,0.014
-0.054,-0.289,-0.235,0.172,0.091,-0.262,0.093,0.135,-0.15,-0.072,-0.029,0.01
-0.078,-0.296,-0.218,0.188,0.07,-0.257,0.09,0.135,-0.143,-0.079,-0.026,0.01
-0.057,-0.311,-0.254,0.184,0.099,-0.282,0.09,0.135,-0.156,-0.078,-0.025,0.007
-0.035,-0.306,-0.271,0.171,0.118,-0.288,0.088,0.134,-0.173,-0.076,-0.025,0.005
-0.045,-0.309,-0.264,0.177,0.11,-0.286,0.084,0.134,-0.168,-0.073,-0.025,0.004
-0.071,-0.347,-0.276,0.209,0.103,-0.312,0.084,0.106,-0.166,-0.07,-0.026,0.013
-0.052,-0.344,-0.291,0.198,0.12,-0.317,0.105,0.086,-0.163,-0.067,-0.022,0.025
-0.02,-0.335,-0.315,0.178,0.147,-0.324,0.119,0.083,-0.16,-0.065,-0.01,0.039
-0.051,-0.329,-0.278,0.19,0.114,-0.303,0.121,0.08,-0.158,-0.061,0.002,0.046
-0.069,-0.285,-0.216,0.178,0.074,-0.251,0.14,0.113,-0.151,-0.054,0.013,0.045
-0.032,-0.265,-0.233,0.149,0.1,-0.249,0.127,0.127,-0.148,-0.05,0.023,0.043
-0.033,-0.247,-0.214,0.14,0.091,-0.23,0.065,0.11,-0.142,-0.043,0.033,0.067
-0.05,-0.234,-0.184,0.142,0.067,-0.209,0.041,0.104,-0.141,-0.04,0.042,0.091
-0.017,-0.226,-0.209,0.122,0.096,-0.218,0.041,0.092,-0.132,-0.033,0.053,0.09
0.003,-0.22,-0.223,0.109,0.113,-0.221,0.034,0.073,-0.139,-0.038,0.058,0.083
-0.038,-0.266,-0.229,0.152,0.096,-0.247,0.048,0.054,-0.172,-0.071,0.033,0.046
-0.071,-0.34,-0.269,0.206,0.1,-0.304,0.047,0.036,-0.204,-0.106,-0.011,0.034
-0.074,-0.352,-0.278,0.213,0.102,-0.314,0.041,0.032,-0.204,-0.111,-0.035,0.028
-0.09,-0.315,-0.225,0.203,0.068,-0.27,0.035,-0.004,-0.251,-0.145,-0.06,-0.017
-0.089,-0.312,-0.223,0.201,0.067,-0.267,0.031,-0.029,-0.247,-0.138,-0.06,-0.026
-0.088,-0.336,-0.249,0.212,0.081,-0.292,0.024,-0.059,-0.232,-0.126,-0.058,-0.025
-0.081,-0.371,-0.289,0.226,0.104,-0.329,0.035,-0.049,-0.262,-0.142,-0.065,-0.025
-0.105,-0.327,-0.221,0.216,0.058,-0.273,0.057,-0.057,-0.203,-0.101,-0.052,-0.017
-0.077,-0.343,-0.266,0.211,0.094,-0.304,0.059,-0.02,-0.253,-0.152,-0.071,-0.025
-0.002,-0.356,-0.354,0.179,0.177,-0.355,0.139,0.289,0.026,-0.035,-0.019,-0.011
-0.047,-0.178,-0.131,0.112,0.042,-0.154,0.23,0.387,0.171,0.046,0.031,0.01
0.027,0.386,0.359,-0.206,-0.166,0.372,0.079,0.151,0.968,0.78,0.498,0.291
-0.06,0.791,0.85,-0.366,-0.455,0.82,-0.25,-0.656,0.969,1.024,0.816,0.522
-0.384,0.109,0.493,0.138,-0.439,0.301,-0.306,-1.578,-1.427,-0.55,0.097,0.219
-0.441,-0.57,-0.129,0.506,-0.156,-0.35,-0.225,-1.497,-1.883,-1.04,-0.348,-0.064
-0.308,-0.658,-0.35,0.484,0.021,-0.504,-0.251,-0.988,-1.091,-0.672,-0.315,-0.14
-0.158,-0.635,-0.477,0.397,0.16,-0.556,-0.153,-0.499,-0.809,-0.533,-0.288,-0.143
-0.083,-0.45,-0.367,0.267,0.142,-0.408,-0.026,-0.112,-0.283,-0.198,-0.12,-0.071
-0.047,-0.314,-0.268,0.181,0.111,-0.291,0.052,0.022,-0.161,-0.121,-0.054,-0.031
-0.032,-0.28,-0.247,0.156,0.108,-0.263,0.081,0.078,-0.056,-0.059,-0.018,0.003
-0.037,-0.279,-0.242,0.158,0.102,-0.26,0.087,0.131,-0.012,-0.012,0.004,0.023
-0.004,-0.276,-0.271,0.14,0.134,-0.273,0.102,0.18,0.029,0.022,0.029,0.039
-0.013,-0.268,-0.255,0.14,0.121,-0.261,0.08,0.189,0.069,0.04,0.05,0.046
-0.003,-0.268,-0.264,0.136,0.131,-0.266,0.067,0.199,0.096,0.056,0.044,0.054
0.029,-0.256,-0.284,0.114,0.157,-0.269,0.064,0.224,0.163,0.097,0.07,0.066
0.021,-0.24,-0.261,0.109,0.141,-0.25,0.057,0.269,0.207,0.124,0.096,0.09
0.032,-0.215,-0.247,0.092,0.14,-0.231,0.057,0.286,0.284,0.173,0.118,0.114
0.051,-0.182,-0.233,0.066,0.142,-0.207,0.087,0.319,0.364,0.219,0.137,0.108
0.072,-0.137,-0.209,0.033,0.141,-0.173,0.09,0.398,0.477,0.292,0.171,0.118
0.103,-0.069,-0.172,-0.017,0.138,-0.12,0.05,0.46,0.593,0.377,0.223,0.146
0.131,-0.006,-0.137,-0.063,0.134,-0.072,0.03,0.503,0.696,0.455,0.266,0.172
0.164,0.038,-0.126,-0.1,0.145,-0.044,0.028,0.527,0.762,0.523,0.311,0.196
0.194,0.094,-0.1,-0.143,0.147,-0.003,0.032,0.503,0.786,0.546,0.332,0.198
0.182,0.121,-0.061,-0.151,0.121,0.03,0.035,0.442,0.749,0.531,0.318,0.189
0.133,0.105,-0.028,-0.119,0.08,0.038,0.035,0.409,0.622,0.468,0.309,0.187
0.093,0.099,0.006,-0.096,0.044,0.052,0.047,0.341,0.425,0.323,0.238,0.149
0.036,0.062,0.026,-0.049,0.005,0.044,0.063,0.243,0.221,0.176,0.124,0.094
-0.005,-0.028,-0.023,0.016,0.01,-0.025,0.092,0.166,0.08,0.083,0.069,0.056
-0.025,-0.102,-0.077,0.064,0.026,-0.09,0.105,0.079,-0.024,0.016,0.032,0.02
-0.051,-0.135,-0.085,0.094,0.017,-0.11,0.096,0.048,-0.1,-0.038,-0.01,0.004
-0.058,-0.161,-0.104,0.11,0.023,-0.132,0.093,0.051,-0.143,-0.069,-0.021,0.006
-0.046,-0.181,-0.135,0.114,0.045,-0.158,0.086,0.04,-0.158,-0.083,-0.024,0.003
-0.037,-0.178,-0.141,0.108,0.052,-0.16,0.081,0.037,-0.153,-0.085,-0.028,0.0
-0.047,-0.191,-0.144,0.119,0.049,-0.167,0.075,0.03,-0.156,-0.085,-0.031,0.0
-0.047,-0.202,-0.154,0.125,0.053,-0.178,0.088,0.039,-0.155,-0.085,-0.035,-0.002
-0.058,-0.199,-0.142,0.129,0.042,-0.17,0.095,0.057,-0.155,-0.085,-0.038,-0.009
-0.067,-0.2,-0.132,0.134,0.033,-0.166,0.084,0.037,-0.159,-0.085,-0.041,-0.013
-0.078,-0.2,-0.123,0.139,0.023,-0.161,0.083,0.053,-0.16,-0.085,-0.044,-0.019
-0.082,-0.198,-0.115,0.14,0.017,-0.156,0.073,0.103,-0.161,-0.085,-0.047,-0.025
-0.058,-0.167,-0.109,0.113,0.026,-0.138,0.073,0.096,-0.164,-0.084,-0.05,-0.03
-0.049,-0.151,-0.102,0.1,0.027,-0.127,0.088,0.086,-0.166,-0.088,-0.049,-0.034
-0.054,-0.15,-0.096,0.103,0.021,-0.123,0.083,0.078,-0.163,-0.097,-0.044,-0.037
-0.054,-0.143,-0.089,0.099,0.018,-0.116,0.076,0.07,-0.175,-0.097,-0.046,-0.04
-0.056,-0.141,-0.086,0.099,0.015,-0.113,0.069,0.076,-0.187,-0.093,-0.045,-0.043
-0.055,-0.134,-0.079,0.095,0.012,-0.106,0.063,0.074,-0.183,-0.104,-0.045,-0.046
-0.057,-0.135,-0.078,0.096,0.011,-0.107,0.056,0.076,-0.193,-0.119,-0.061,-0.043
-0.068,-0.135,-0.067,0.102,0.0,-0.101,0.049,0.071,-0.199,-0.124,-0.063,-0.038
-0.053,-0.135,-0.082,0.094,0.015,-0.108,0.043,0.065,-0.195,-0.122,-0.053,-0.036
-0.045,-0.134,-0.089,0.09,0.022,-0.111,0.033,0.061,-0.195,-0.116,-0.049,-0.031
-0.029,-0.09,-0.062,0.06,0.017,-0.076,0.061,0.055,-0.193,-0.111,-0.04,-0.028
-0.023,-0.069,-0.046,0.046,0.012,-0.057,0.088,0.049,-0.188,-0.107,-0.037,-0.024
-0.034,-0.068,-0.034,0.051,0.0,-0.05,0.054,0.043,-0.192,-0.102,-0.045,-0.021
-0.005,0.004,0.01,0.0,-0.007,0.007,0.005,0.024,-0.19,-0.098,-0.042,-0.018
-0.035,0.05,0.085,-0.008,-0.06,0.067,-0.015,-0.004,-0.202,-0.096,-0.037,-0.016
-0.04,0.012,0.052,0.013,-0.046,0.032,-0.032,-0.009,-0.203,-0.092,-0.035,-0.012
0.0,-0.026,-0.026,0.013,0.013,-0.026,-0.029,0.01,-0.188,-0.09,-0.023,0.008
-0.023,-0.052,-0.028,0.038,0.003,-0.04,-0.029,0.008,-0.209,-0.105,-0.041,-0.003
-0.05,-0.128,-0.079,0.089,0.015,-0.103,-0.011,-0.007,-0.246,-0.146,-0.08,-0.033
-0.052,-0.165,-0.114,0.109,0.031,-0.139,0.021,-0.005,-0.239,-0.152,-0.088,-0.042
-0.063,-0.14,-0.077,0.101,0.008,-0.108,-0.015,-0.056,-0.276,-0.173,-0.098,-0.059
-0.065,-0.171,-0.105,0.118,0.02,-0.138,-0.016,-0.066,-0.268,-0.169,-0.095,-0.061
-0.056,-0.182,-0.126,0.119,0.035,-0.154,0.009,-0.055,-0.251,-0.158,-0.092,-0.058
-0.06,-0.206,-0.146,0.133,0.044,-0.176,0.02,-0.047,-0.281,-0.174,-0.101,-0.063
-0.092,-0.193,-0.101,0.143,0.005,-0.147,0.022,-0.03,-0.216,-0.135,-0.086,-0.054
-0.067,-0.203,-0.137,0.135,0.035,-0.17,0.013,0.021,-0.276,-0.182,-0.115,-0.07
0.005,-0.168,-0.173,0.081,0.089,-0.17,0.09,0.293,-0.017,-0.073,-0.098,-0.057
-0.022,0.049,0.071,-0.013,-0.047,0.06,0.177,0.4,0.147,0.016,-0.032,-0.028
0.043,0.587,0.544,-0.315,-0.251,0.565,0.032,0.171,1.013,0.797,0.47,0.243
-0.034,0.963,0.997,-0.464,-0.516,0.98,-0.311,-0.722,1.069,1.074,0.803,0.49
-0.362,0.28,0.642,0.041,-0.502,0.46,-0.385,-1.717,-1.397,-0.518,0.095,0.19
-0.416,-0.34,0.076,0.378,-0.246,-0.132,-0.33,-1.609,-1.926,-1.062,-0.381,-0.121
-0.289,-0.428,-0.138,0.358,-0.075,-0.282,-0.363,-1.062,-1.136,-0.709,-0.363,-0.195
-0.143,-0.431,-0.288,0.287,0.073,-0.359,-0.236,-0.508,-0.842,-0.548,-0.32,-0.18
-0.036,-0.211,-0.175,0.124,0.07,-0.193,-0.083,-0.072,-0.31,-0.229,-0.169,-0.113
-0.038,-0.101,-0.063,0.07,0.013,-0.082,-0.02,0.059,-0.196,-0.145,-0.11,-0.081
-0.027,-0.071,-0.044,0.049,0.009,-0.057,0.005,0.141,-0.083,-0.064,-0.066,-0.051
-0.013,-0.054,-0.041,0.033,0.014,-0.047,0.016,0.167,-0.052,-0.054,-0.049,-0.041
-0.009,-0.046,-0.037,0.028,0.014,-0.042,-0.011,0.192,-0.017,-0.029,-0.039,-0.034
-0.001,-0.028,-0.027,0.015,0.014,-0.027,-0.004,0.222,0.035,-0.004,-0.022,-0.024
0.013,-0.016,-0.028,0.002,0.021,-0.022,0.023,0.23,0.052,0.009,-0.02,-0.018
0.022,0.028,0.006,-0.025,0.008,0.017,0.018,0.249,0.101,0.046,-0.005,-0.026
0.061,0.048,-0.013,-0.054,0.036,0.017,0.024,0.284,0.154,0.075,0.022,-0.011
0.099,0.042,-0.057,-0.071,0.078,-0.007,0.032,0.341,0.244,0.133,0.053,0.013
0.095,0.052,-0.043,-0.073,0.068,0.004,0.028,0.408,0.326,0.185,0.083,0.033
0.094,0.059,-0.034,-0.076,0.064,0.012,0.027,0.451,0.448,0.263,0.13,0.075
0.141,0.096,-0.044,-0.118,0.092,0.026,0.021,0.498,0.574,0.359,0.183,0.106
0.191,0.157,-0.033,-0.174,0.112,0.061,-0.015,0.547,0.691,0.449,0.239,0.136
0.199,0.172,-0.028,-0.185,0.113,0.072,0.01,0.568,0.766,0.515,0.296,0.175
0.214,0.227,0.012,-0.22,0.101,0.119,0.018,0.587,0.776,0.551,0.306,0.191
0.203,0.266,0.064,-0.235,0.069,0.165,-0.02,0.588,0.74,0.53,0.289,0.178
0.188,0.24,0.052,-0.214,0.068,0.145,0.002,0.547,0.63,0.465,0.284,0.172
0.149,0.19,0.041,-0.17,0.054,0.115,0.03,0.462,0.447,0.341,0.231,0.143
0.079,0.109,0.029,-0.094,0.025,0.069,0.053,0.386,0.26,0.204,0.143,0.084
0.046,0.06,0.014,-0.053,0.015,0.037,0.073,0.295,0.096,0.112,0.077,0.042
0.006,-0.009,-0.014,0.001,0.01,-0.011,0.078,0.229,-0.003,0.03,0.031,0.001
-0.018,-0.064,-0.046,0.041,0.014,-0.054,0.075,0.196,-0.07,-0.021,0.009,-0.008
-0.022,-0.078,-0.056,0.05,0.017,-0.067,0.068,0.151,-0.118,-0.044,-0.003,-0.01
-0.027,-0.133,-0.106,0.08,0.04,-0.119,0.063,0.129,-0.12,-0.049,-0.015,-0.031
-0.032,-0.13,-0.099,0.082,0.034,-0.114,0.058,0.104,-0.136,-0.059,-0.024,-0.03
-0.037,-0.098,-0.061,0.068,0.012,-0.079,0.053,0.097,-0.154,-0.076,-0.034,-0.028
-0.033,-0.1,-0.066,0.067,0.017,-0.082,0.082,0.101,-0.149,-0.075,-0.028,-0.026
-0.037,-0.095,-0.058,0.066,0.011,-0.076,0.111,0.099,-0.146,-0.075,-0.027,-0.023
-0.033,-0.093,-0.06,0.063,0.014,-0.076,0.096,0.101,-0.143,-0.071,-0.041,-0.037
-0.038,-0.089,-0.051,0.064,0.007,-0.07,0.088,0.099,-0.138,-0.07,-0.037,-0.045
-0.032,-0.093,-0.061,0.063,0.015,-0.076,0.085,0.101,-0.135,-0.069,-0.033,-0.038
-0.039,-0.098,-0.059,0.069,0.01,-0.078,0.081,0.1,-0.138,-0.065,-0.03,-0.035
-0.051,-0.108,-0.057,0.08,0.003,-0.082,0.08,0.1,-0.141,-0.065,-0.024,-0.03
-0.039,-0.122,-0.083,0.081,0.022,-0.102,0.075,0.099,-0.14,-0.065,-0.028,-0.026
-0.055,-0.144,-0.089,0.1,0.017,-0.116,0.075,0.1,-0.141,-0.065,-0.03,-0.021
-0.042,-0.165,-0.124,0.104,0.041,-0.145,0.081,0.1,-0.14,-0.065,-0.03,-0.02
-0.025,-0.163,-0.137,0.095,0.056,-0.15,0.076,0.079,-0.141,-0.068,-0.03,-0.02
-0.029,-0.168,-0.139,0.099,0.055,-0.153,0.072,0.047,-0.156,-0.072,-0.029,-0.015
-0.023,-0.159,-0.136,0.091,0.057,-0.147,0.065,0.038,-0.167,-0.075,-0.031,-0.016
-0.031,-0.182,-0.151,0.107,0.06,-0.166,0.06,0.047,-0.163,-0.078,-0.033,-0.013
-0.041,-0.18,-0.139,0.111,0.049,-0.159,0.055,0.05,-0.173,-0.082,-0.039,-0.021
-0.026,-0.138,-0.113,0.082,0.044,-0.125,0.061,0.047,-0.184,-0.086,-0.051,-0.036
-0.008,-0.14,-0.131,0.074,0.062,-0.135,0.071,0.042,-0.178,-0.086,-0.051,-0.032
-0.024,-0.114,-0.089,0.069,0.033,-0.101,0.045,0.045,-0.171,-0.084,-0.049,-0.028
0.003,-0.063,-0.066,0.03,0.035,-0.065,0.089,0.035,-0.163,-0.08,-0.045,-0.026
0.024,-0.04,-0.063,0.008,0.044,-0.052,0.104,0.056,-0.158,-0.079,-0.045,-0.019
-0.009,-0.048,-0.039,0.029,0.016,-0.043,0.033,0.059,-0.149,-0.08,-0.043,-0.02
0.007,0.002,-0.005,-0.005,0.006,-0.001,0.013,-0.018,-0.156,-0.08,-0.033,-0.007
0.006,0.028,0.022,-0.018,-0.008,0.025,0.009,-0.04,-0.163,-0.08,-0.028,-0.004
-0.002,-0.002,0.0,0.002,-0.001,-0.001,0.01,0.007,-0.157,-0.08,-0.01,-0.031
0.008,-0.032,-0.04,0.012,0.025,-0.036,0.011,0.032,-0.167,-0.08,-0.006,-0.029
-0.028,-0.096,-0.067,0.062,0.02,-0.081,0.009,-0.01,-0.206,-0.101,-0.044,-0.035
-0.052,-0.117,-0.066,0.085,0.007,-0.091,0.01,-0.041,-0.234,-0.13,-0.072,-0.059
-0.074,-0.101,-0.027,0.088,-0.023,-0.064,-0.001,-0.054,-0.229,-0.136,-0.079,-0.059
-0.06,-0.106,-0.046,0.083,-0.007,-0.076,-0.008,-0.057,-0.261,-0.156,-0.091,-0.062
-0.049,-0.133,-0.084,0.091,0.018,-0.108,-0.017,-0.029,-0.214,-0.132,-0.079,-0.058
-0.081,-0.169,-0.089,0.125,0.005,-0.129,-0.018,-0.041,-0.254,-0.163,-0.09,-0.062
-0.095,-0.167,-0.072,0.131,-0.011,-0.12,-0.007,-0.017,-0.203,-0.138,-0.081,-0.059
-0.107,-0.161,-0.055,0.134,-0.026,-0.108,-0.004,-0.036,-0.236,-0.155,-0.086,-0.066
-0.006,-0.204,-0.198,0.105,0.096,-0.201,0.047,0.171,-0.141,-0.104,-0.084,-0.069
0.016,-0.128,-0.144,0.056,0.081,-0.136,0.158,0.445,0.128,0.0,-0.052,-0.058
0.011,0.224,0.213,-0.118,-0.101,0.218,0.171,0.395,0.468,0.314,0.168,0.079
0.079,0.841,0.762,-0.46,-0.342,0.801,-0.12,-0.102,1.482,1.234,0.779,0.444
-0.2,0.708,0.909,-0.254,-0.555,0.808,-0.356,-1.31,0.041,0.439,0.572,0.418
-0.438,-0.13,0.308,0.284,-0.373,0.089,-0.302,-1.827,-1.995,-0.989,-0.217,0.015
-0.346,-0.434,-0.088,0.391,-0.129,-0.261,-0.367,-1.338,-1.442,-0.833,-0.361,-0.162
-0.23,-0.482,-0.252,0.356,0.012,-0.366,-0.336,-0.802,-0.988,-0.621,-0.338,-0.186
-0.089,-0.372,-0.283,0.231,0.097,-0.328,-0.135,-0.263,-0.545,-0.358,-0.221,-0.139
-0.026,-0.165,-0.139,0.096,0.057,-0.152,-0.026,0.032,-0.191,-0.127,-0.092,-0.082
0.004,-0.095,-0.099,0.046,0.052,-0.097,0.021,0.101,-0.137,-0.076,-0.069,-0.051
0.033,-0.023,-0.057,-0.005,0.045,-0.04,0.014,0.149,-0.032,-0.015,-0.026,-0.035
-0.003,-0.02,-0.017,0.012,0.007,-0.018,0.047,0.204,-0.046,-0.023,-0.03,-0.037
0.011,-0.014,-0.025,0.002,0.018,-0.019,0.063,0.205,0.031,0.029,-0.007,-0.029
0.028,-0.011,-0.039,-0.008,0.034,-0.025,0.049,0.241,0.035,0.02,0.0,-0.024
0.055,0.012,-0.043,-0.033,0.049,-0.015,0.049,0.285,0.093,0.046,0.008,-0.004
0.09,0.03,-0.06,-0.06,0.075,-0.014,0.036,0.309,0.146,0.087,0.056,0.009
0.079,0.024,-0.056,-0.052,0.067,-0.016,0.037,0.356,0.2,0.111,0.06,0.016
0.111,0.073,-0.039,-0.092,0.075,0.017,0.031,0.376,0.282,0.161,0.077,0.053
0.128,0.098,-0.03,-0.113,0.079,0.034,0.031,0.421,0.379,0.228,0.129,0.08
0.121,0.105,-0.016,-0.113,0.068,0.045,0.039,0.488,0.503,0.317,0.164,0.097
0.169,0.157,-0.013,-0.163,0.091,0.072,0.019,0.553,0.613,0.404,0.212,0.13
0.202,0.216,0.015,-0.209,0.093,0.115,0.0,0.592,0.7,0.476,0.263,0.144
0.193,0.241,0.048,-0.218,0.072,0.144,-0.012,0.619,0.725,0.537,0.321,0.189
0.205,0.26,0.054,-0.233,0.075,0.157,-0.016,0.61,0.71,0.55,0.353,0.233
0.206,0.273,0.068,-0.24,0.069,0.17,-0.005,0.562,0.628,0.526,0.33,0.214
0.174,0.236,0.062,-0.205,0.056,0.149,0.032,0.521,0.471,0.439,0.287,0.186
0.12,0.163,0.043,-0.142,0.038,0.103,0.066,0.419,0.287,0.309,0.228,0.151
0.058,0.09,0.032,-0.075,0.013,0.061,0.088,0.325,0.114,0.196,0.151,0.104
0.006,0.026,0.02,-0.016,-0.007,0.023,0.124,0.245,-0.02,0.093,0.091,0.057
-0.003,-0.028,-0.025,0.016,0.011,-0.026,0.116,0.158,-0.126,0.023,0.064,0.032
0.019,-0.06,-0.079,0.021,0.049,-0.069,0.097,0.118,-0.176,-0.014,0.031,0.039
0.012,-0.065,-0.077,0.027,0.045,-0.071,0.086,0.067,-0.214,-0.036,-0.003,0.025
-0.002,-0.073,-0.07,0.038,0.034,-0.071,0.072,0.053,-0.246,-0.058,-0.022,0.012
-0.013,-0.082,-0.069,0.048,0.028,-0.075,0.07,0.029,-0.239,-0.072,-0.021,0.008
-0.017,-0.079,-0.062,0.049,0.022,-0.07,0.067,0.005,-0.232,-0.069,-0.011,0.003
-0.022,-0.08,-0.059,0.051,0.019,-0.07,0.064,0.014,-0.227,-0.07,-0.008,-0.002
-0.025,-0.08,-0.055,0.053,0.015,-0.067,0.061,0.006,-0.217,-0.07,0.003,-0.005
-0.026,-0.08,-0.054,0.053,0.014,-0.067,0.059,0.022,-0.219,-0.07,0.002,-0.013
-0.027,-0.08,-0.054,0.054,0.013,-0.067,0.055,0.037,-0.234,-0.067,-0.025,-0.02
-0.036,-0.079,-0.044,0.058,0.004,-0.061,0.056,0.031,-0.231,-0.065,-0.032,-0.007
-0.026,-0.081,-0.055,0.054,0.015,-0.068,0.053,0.028,-0.224,-0.065,-0.029,-0.004
0.006,-0.067,-0.073,0.031,0.04,-0.07,0.051,0.026,-0.22,-0.065,-0.029,-0.006
0.011,-0.053,-0.063,0.021,0.037,-0.058,0.049,0.017,-0.213,-0.065,-0.024,-0.004
0.002,-0.049,-0.052,0.024,0.027,-0.05,0.048,0.023,-0.211,-0.066,-0.025,-0.004
0.001,-0.05,-0.051,0.025,0.026,-0.05,0.029,-0.029,-0.22,-0.08,-0.033,-0.023
0.003,-0.043,-0.046,0.021,0.025,-0.045,0.022,-0.107,-0.226,-0.085,-0.036,-0.025
-0.004,-0.048,-0.044,0.027,0.02,-0.046,0.057,-0.108,-0.224,-0.085,-0.034,-0.003
0.006,-0.069,-0.075,0.032,0.041,-0.072,0.044,-0.1,-0.225,-0.09,-0.035,-0.007
0.015,-0.067,-0.082,0.026,0.049,-0.074,0.03,-0.095,-0.224,-0.09,-0.035,-0.01
0.008,-0.063,-0.071,0.027,0.04,-0.067,0.038,-0.091,-0.226,-0.098,-0.035,-0.015
0.01,-0.056,-0.066,0.023,0.038,-0.061,0.033,-0.065,-0.225,-0.098,-0.031,-0.011
-0.002,-0.058,-0.056,0.03,0.028,-0.057,0.037,-0.038,-0.238,-0.087,-0.025,-0.011
-0.016,-0.094,-0.078,0.055,0.031,-0.086,0.033,-0.022,-0.248,-0.081,-0.02,-0.025
-0.024,-0.114,-0.09,0.069,0.034,-0.102,0.04,-0.015,-0.228,-0.072,-0.014,0.005
0.005,-0.069,-0.074,0.032,0.04,-0.071,0.047,-0.057,-0.214,-0.07,-0.009,0.028
0.022,0.014,-0.007,-0.018,0.014,0.003,0.08,-0.088,-0.205,-0.07,-0.003,0.024
0.012,0.028,0.016,-0.021,-0.002,0.022,0.086,-0.091,-0.202,-0.07,0.004,0.026
0.021,0.036,0.014,-0.029,0.003,0.025,0.021,-0.127,-0.207,-0.069,0.011,0.025
0.023,0.102,0.079,-0.063,-0.028,0.09,-0.023,-0.186,-0.211,-0.071,0.017,0.024
0.031,0.122,0.091,-0.077,-0.03,0.107,-0.054,-0.196,-0.202,-0.068,0.025,0.029
0.038,0.106,0.068,-0.072,-0.015,0.087,-0.061,-0.19,-0.203,-0.06,0.02,0.036
0.029,0.085,0.056,-0.057,-0.014,0.07,-0.053,-0.206,-0.216,-0.075,0.01,0.033
0.001,0.032,0.032,-0.017,-0.015,0.032,-0.057,-0.22,-0.258,-0.121,-0.022,0.012
-0.012,-0.001,0.011,0.006,-0.011,0.005,-0.053,-0.211,-0.257,-0.124,-0.041,-0.008
-0.019,-0.022,-0.003,0.021,-0.007,-0.012,-0.064,-0.217,-0.275,-0.141,-0.044,-0.023
-0.023,-0.056,-0.033,0.039,0.006,-0.044,-0.063,-0.207,-0.298,-0.156,-0.063,-0.046
-0.02,-0.042,-0.021,0.031,0.001,-0.032,-0.049,-0.211,-0.273,-0.142,-0.063,-0.056
-0.018,-0.059,-0.04,0.038,0.011,-0.049,-0.042,-0.21,-0.307,-0.16,-0.07,-0.056
-0.013,-0.032,-0.019,0.022,0.003,-0.025,-0.034,-0.181,-0.232,-0.114,-0.054,-0.052
-0.002,-0.066,-0.064,0.034,0.031,-0.064,-0.01,-0.132,-0.299,-0.162,-0.069,-0.06
0.046,-0.117,-0.163,0.036,0.104,-0.14,0.054,0.161,-0.05,-0.048,-0.049,-0.048
0.022,0.066,0.043,-0.044,-0.011,0.054,0.192,0.317,0.141,0.055,0.015,-0.017
0.111,0.598,0.486,-0.355,-0.188,0.542,0.057,0.112,0.999,0.775,0.473,0.263
0.074,1.034,0.961,-0.554,-0.444,0.997,-0.329,-0.819,1.417,1.271,0.897,0.57
-0.308,0.398,0.705,-0.045,-0.507,0.551,-0.397,-1.969,-1.04,-0.249,0.257,0.298
-0.404,-0.302,0.102,0.353,-0.253,-0.1,-0.38,-1.915,-1.961,-1.018,-0.299,-0.061
-0.269,-0.408,-0.14,0.339,-0.064,-0.274,-0.396,-1.325,-1.145,-0.661,-0.292,-0.14
-0.129,-0.405,-0.276,0.267,0.074,-0.34,-0.272,-0.775,-0.859,-0.518,-0.265,-0.13
-0.023,-0.197,-0.174,0.11,0.075,-0.185,-0.119,-0.26,-0.329,-0.197,-0.114,-0.059
0.006,-0.056,-0.062,0.025,0.034,-0.059,-0.023,-0.033,-0.187,-0.095,-0.038,-0.017
0.038,0.012,-0.025,-0.025,0.031,-0.007,-0.012,0.047,-0.105,-0.038,-0.008,-0.009
0.027,0.056,0.029,-0.042,-0.001,0.042,-0.004,0.045,-0.071,-0.019,-0.004,-0.003
0.026,0.084,0.057,-0.055,-0.016,0.07,0.009,0.043,-0.04,-0.013,-0.008,0.004
0.034,0.098,0.064,-0.066,-0.016,0.081,-0.002,0.099,0.03,0.02,0.015,0.011
0.055,0.1,0.044,-0.078,0.005,0.072,-0.024,0.155,0.039,0.035,0.034,0.018
0.073,0.118,0.046,-0.096,0.013,0.082,-0.003,0.202,0.093,0.064,0.045,0.024
0.091,0.106,0.015,-0.099,0.038,0.06,0.028,0.248,0.146,0.092,0.085,0.049
0.1,0.097,-0.003,-0.098,0.051,0.047,0.025,0.277,0.223,0.144,0.123,0.074
0.11,0.135,0.025,-0.123,0.042,0.08,0.021,0.346,0.292,0.184,0.114,0.071
0.137,0.172,0.036,-0.155,0.05,0.104,0.011,0.42,0.412,0.26,0.155,0.095
0.156,0.193,0.037,-0.175,0.059,0.115,0.007,0.516,0.536,0.352,0.209,0.132
0.197,0.26,0.063,-0.229,0.067,0.162,-0.008,0.565,0.639,0.435,0.254,0.154
0.224,0.325,0.101,-0.275,0.061,0.212,-0.049,0.558,0.72,0.498,0.293,0.179
0.238,0.373,0.135,-0.306,0.051,0.254,-0.066,0.551,0.752,0.535,0.324,0.199
0.225,0.383,0.158,-0.304,0.034,0.27,-0.056,0.538,0.75,0.552,0.344,0.216
0.203,0.369,0.166,-0.287,0.018,0.267,-0.038,0.511,0.672,0.51,0.33,0.216
0.16,0.339,0.18,-0.25,-0.01,0.259,-0.028,0.419,0.483,0.381,0.271,0.172
0.123,0.277,0.153,-0.2,-0.015,0.215,-0.013,0.36,0.281,0.238,0.17,0.12
0.104,0.213,0.109,-0.158,-0.003,0.16,0.023,0.3,0.127,0.129,0.106,0.078
0.047,0.145,0.097,-0.096,-0.025,0.121,0.033,0.188,0.006,0.041,0.066,0.027
0.015,0.091,0.076,-0.054,-0.03,0.083,0.027,0.107,-0.082,-0.012,0.031,0.002
0.0,0.067,0.067,-0.034,-0.034,0.067,0.026,0.077,-0.13,-0.046,0.02,-0.001
0.001,0.064,0.063,-0.033,-0.032,0.063,0.022,0.064,-0.154,-0.071,0.007,-0.01
0.003,0.066,0.062,-0.035,-0.03,0.064,0.02,0.043,-0.172,-0.079,-0.002,-0.015
0.002,0.059,0.057,-0.031,-0.027,0.058,0.023,0.022,-0.182,-0.081,-0.013,-0.023
0.004,0.061,0.056,-0.033,-0.026,0.058,0.032,0.006,-0.179,-0.079,-0.023,-0.023
0.005,0.059,0.053,-0.032,-0.024,0.056,0.031,-0.007,-0.181,-0.08,-0.025,-0.02
0.017,0.054,0.037,-0.036,-0.01,0.045,0.029,0.0,-0.18,-0.08,-0.025,-0.02
0.002,0.075,0.073,-0.039,-0.036,0.074,0.031,0.016,-0.18,-0.08,-0.025,-0.02
0.0,0.087,0.087,-0.044,-0.044,0.087,0.029,0.027,-0.185,-0.091,-0.031,-0.02
-0.01,0.087,0.097,-0.039,-0.054,0.092,0.031,0.03,-0.184,-0.096,-0.035,-0.019
-0.02,0.092,0.112,-0.036,-0.066,0.101,0.031,0.03,-0.186,-0.096,-0.036,-0.016
-0.002,0.094,0.096,-0.046,-0.049,0.094,0.038,0.029,-0.184,-0.101,-0.034,-0.01
0.001,0.095,0.095,-0.048,-0.047,0.095,0.042,0.026,-0.19,-0.1,-0.037,-0.018
0.005,0.09,0.085,-0.048,-0.04,0.087,0.023,0.023,-0.212,-0.107,-0.049,-0.027
0.005,0.085,0.081,-0.045,-0.038,0.082,0.011,0.02,-0.216,-0.118,-0.051,-0.022
0.002,0.081,0.08,-0.042,-0.039,0.08,0.018,0.017,-0.214,-0.121,-0.049,-0.02
-0.004,0.076,0.08,-0.036,-0.043,0.078,0.026,0.015,-0.221,-0.12,-0.051,-0.017
-0.003,0.075,0.078,-0.036,-0.041,0.076,0.015,0.012,-0.219,-0.12,-0.05,-0.013
0.001,0.076,0.075,-0.039,-0.037,0.075,0.008,0.009,-0.223,-0.12,-0.051,-0.023
-0.002,0.074,0.075,-0.037,-0.039,0.075,-0.002,0.004,-0.233,-0.124,-0.058,-0.032
0.004,0.076,0.073,-0.041,-0.035,0.074,-0.012,0.003,-0.226,-0.137,-0.056,-0.026
-0.007,0.088,0.094,-0.041,-0.051,0.091,0.011,-0.004,-0.214,-0.129,-0.045,-0.022
-0.011,0.107,0.119,-0.048,-0.065,0.113,0.03,-0.002,-0.204,-0.111,-0.035,-0.017
0.0,0.106,0.106,-0.054,-0.053,0.106,0.05,0.007,-0.199,-0.106,-0.026,-0.013
0.02,0.131,0.11,-0.076,-0.045,0.12,0.002,-0.001,-0.197,-0.099,-0.018,-0.008
0.036,0.186,0.15,-0.112,-0.058,0.168,-0.07,-0.019,-0.192,-0.092,-0.008,0.002
0.034,0.17,0.136,-0.102,-0.051,0.152,-0.056,-0.047,-0.192,-0.087,0.004,0.015
0.04,0.134,0.094,-0.087,-0.027,0.113,-0.044,-0.059,-0.179,-0.072,0.024,0.031
0.054,0.108,0.054,-0.081,0.0,0.081,-0.038,-0.049,-0.173,-0.073,0.016,0.026
0.028,0.047,0.019,-0.038,0.004,0.033,-0.031,-0.05,-0.198,-0.108,-0.023,0.012
0.003,-0.011,-0.015,0.004,0.009,-0.013,-0.028,-0.046,-0.234,-0.143,-0.05,0.004
-0.012,-0.032,-0.02,0.022,0.004,-0.026,-0.02,-0.043,-0.215,-0.132,-0.048,-0.002
-0.032,-0.076,-0.044,0.054,0.006,-0.059,-0.021,-0.044,-0.24,-0.149,-0.052,-0.01
-0.01,-0.074,-0.064,0.042,0.028,-0.069,-0.018,-0.034,-0.203,-0.131,-0.049,-0.015
-0.02,-0.06,-0.04,0.04,0.011,-0.05,-0.017,-0.048,-0.221,-0.147,-0.058,-0.023
-0.001,-0.057,-0.056,0.03,0.028,-0.057,-0.014,-0.031,-0.202,-0.138,-0.061,-0.028
-0.018,-0.038,-0.02,0.029,0.001,-0.029,-0.013,-0.049,-0.188,-0.136,-0.062,-0.033
-0.003,-0.123,-0.12,0.064,0.059,-0.121,0.033,0.094,-0.196,-0.144,-0.068,-0.042
0.04,-0.083,-0.123,0.022,0.082,-0.103,0.133,0.362,0.084,-0.026,-0.034,-0.037
0.018,0.186,0.168,-0.103,-0.075,0.177,0.171,0.391,0.356,0.188,0.127,0.061
0.098,0.808,0.71,-0.454,-0.306,0.759,-0.045,0.04,1.436,1.125,0.721,0.417
-0.122,0.914,1.036,-0.396,-0.579,0.974,-0.313,-1.076,0.603,0.746,0.715,0.485
-0.417,0.11,0.526,0.153,-0.472,0.318,-0.294,-1.834,-1.777,-0.859,-0.101,0.087
-0.357,-0.276,0.081,0.316,-0.219,-0.097,-0.307,-1.459,-1.568,-0.918,-0.359,-0.131
-0.216,-0.344,-0.128,0.28,-0.044,-0.236,-0.335,-0.903,-0.992,-0.654,-0.325,-0.183
-0.087,-0.305,-0.219,0.196,0.066,-0.262,-0.18,-0.375,-0.664,-0.459,-0.25,-0.143
-0.006,-0.091,-0.085,0.049,0.04,-0.088,-0.054,-0.024,-0.215,-0.179,-0.098,-0.064
0.015,-0.013,-0.028,-0.001,0.022,-0.02,0.003,0.076,-0.149,-0.131,-0.054,-0.038
0.026,0.045,0.02,-0.036,0.003,0.032,0.011,0.141,-0.031,-0.054,-0.014,-0.006
0.037,0.062,0.025,-0.05,0.006,0.043,0.021,0.136,-0.035,-0.059,-0.009,-0.004
0.025,0.067,0.041,-0.046,-0.008,0.053,0.017,0.147,0.037,-0.019,0.006,0.007
0.027,0.064,0.036,-0.046,-0.005,0.05,0.027,0.184,0.066,-0.008,0.02,0.022
0.059,0.083,0.025,-0.071,0.017,0.054,0.026,0.193,0.113,0.027,0.033,0.04
0.082,0.106,0.024,-0.094,0.028,0.064,-0.007,0.189,0.159,0.064,0.046,0.051
0.106,0.117,0.012,-0.112,0.047,0.064,0.036,0.189,0.215,0.092,0.067,0.059
0.129,0.14,0.011,-0.135,0.059,0.076,0.05,0.231,0.303,0.134,0.092,0.074
0.134,0.142,0.009,-0.138,0.062,0.075,0.031,0.273,0.376,0.183,0.121,0.082
0.136,0.167,0.031,-0.151,0.052,0.099,0.025,0.341,0.502,0.271,0.166,0.107
0.154,0.197,0.044,-0.176,0.055,0.121,0.01,0.438,0.622,0.351,0.215,0.144
0.201,0.238,0.037,-0.219,0.082,0.137,-0.006,0.473,0.723,0.438,0.272,0.184
0.234,0.282,0.047,-0.258,0.093,0.164,-0.01,0.449,0.779,0.497,0.308,0.208
0.243,0.325,0.082,-0.284,0.08,0.203,0.003,0.427,0.799,0.517,0.34,0.221
0.236,0.338,0.102,-0.287,0.067,0.22,0.008,0.425,0.754,0.492,0.342,0.231
0.206,0.326,0.12,-0.266,0.043,0.222,0.022,0.375,0.609,0.406,0.296,0.2
0.163,0.284,0.121,-0.224,0.021,0.202,0.041,0.313,0.426,0.281,0.231,0.149
0.083,0.191,0.108,-0.137,-0.012,0.149,0.063,0.272,0.245,0.151,0.149,0.098
0.027,0.13,0.103,-0.079,-0.038,0.116,0.077,0.209,0.089,0.045,0.074,0.056
0.006,0.087,0.081,-0.047,-0.038,0.084,0.075,0.135,-0.025,-0.039,0.017,0.028
-0.014,0.043,0.057,-0.014,-0.036,0.05,0.075,0.069,-0.093,-0.087,-0.008,0.014
-0.007,0.031,0.038,-0.012,-0.023,0.034,0.076,0.038,-0.114,-0.107,-0.012,0.01
-0.002,0.019,0.021,-0.009,-0.012,0.02,0.073,-0.002,-0.133,-0.118,-0.02,0.006
-0.007,0.008,0.015,-0.001,-0.011,0.011,0.079,-0.047,-0.148,-0.124,-0.026,0.001
0.027,0.026,-0.001,-0.026,0.014,0.012,0.099,-0.04,-0.141,-0.126,-0.032,-0.003
0.018,0.025,0.007,-0.021,0.005,0.016,0.1,-0.034,-0.14,-0.123,-0.038,-0.006
-0.023,0.011,0.034,0.006,-0.029,0.022,0.095,-0.028,-0.136,-0.132,-0.041,-0.003
-0.021,0.009,0.03,0.006,-0.026,0.019,0.095,-0.02,-0.135,-0.145,-0.044,-0.008
-0.028,-0.008,0.02,0.017,-0.024,0.006,0.095,-0.014,-0.134,-0.146,-0.048,-0.028
-0.03,0.015,0.046,0.007,-0.038,0.03,0.089,-0.001,-0.139,-0.15,-0.05,-0.031
-0.016,0.063,0.079,-0.024,-0.048,0.071,0.076,0.006,-0.156,-0.149,-0.06,-0.029
-0.007,0.064,0.071,-0.029,-0.039,0.067,0.065,0.021,-0.16,-0.142,-0.066,-0.031
-0.007,0.067,0.074,-0.03,-0.041,0.07,0.055,0.026,-0.163,-0.157,-0.064,-0.029
-0.018,0.073,0.091,-0.028,-0.055,0.082,0.046,-0.002,-0.168,-0.171,-0.066,-0.031
-0.037,0.052,0.089,-0.007,-0.063,0.07,0.038,-0.053,-0.174,-0.172,-0.064,-0.037
-0.05,0.041,0.091,0.005,-0.071,0.066,0.027,-0.083,-0.181,-0.175,-0.067,-0.044
-0.055,0.034,0.089,0.01,-0.072,0.062,0.021,-0.081,-0.194,-0.179,-0.075,-0.042
-0.064,0.027,0.091,0.019,-0.078,0.058,0.02,-0.097,-0.205,-0.183,-0.076,-0.039
-0.065,0.02,0.085,0.022,-0.075,0.052,0.02,-0.114,-0.205,-0.188,-0.074,-0.036
-0.043,0.01,0.054,0.016,-0.049,0.032,0.02,-0.118,-0.203,-0.189,-0.076,-0.033
-0.018,0.022,0.04,-0.002,-0.029,0.031,0.02,-0.118,-0.2,-0.184,-0.074,-0.03
0.001,0.039,0.038,-0.021,-0.019,0.038,0.021,-0.112,-0.197,-0.18,-0.077,-0.031
0.014,0.049,0.035,-0.032,-0.011,0.042,0.029,-0.11,-0.195,-0.179,-0.087,-0.034
-0.006,0.038,0.044,-0.017,-0.025,0.041,0.041,-0.105,-0.191,-0.173,-0.084,-0.028
-0.017,0.077,0.094,-0.03,-0.055,0.085,0.052,-0.101,-0.184,-0.17,-0.076,-0.021
-0.011,0.114,0.125,-0.051,-0.068,0.119,0.081,-0.099,-0.18,-0.165,-0.073,-0.014
-0.028,0.083,0.111,-0.027,-0.07,0.096,0.057,-0.1,-0.172,-0.154,-0.061,-0.007
-0.014,0.12,0.135,-0.054,-0.075,0.127,-0.001,-0.1,-0.172,-0.145,-0.047,-0.001
0.036,0.142,0.106,-0.089,-0.035,0.124,-0.015,-0.099,-0.174,-0.136,-0.044,0.004
0.035,0.122,0.086,-0.079,-0.026,0.104,-0.012,-0.101,-0.175,-0.141,-0.047,0.008
0.001,0.102,0.101,-0.052,-0.05,0.102,-0.013,-0.099,-0.176,-0.144,-0.042,0.009
-0.025,0.033,0.058,-0.004,-0.042,0.045,-0.027,-0.123,-0.183,-0.161,-0.064,-0.002
-0.054,-0.041,0.013,0.047,-0.033,-0.014,-0.002,-0.13,-0.198,-0.187,-0.082,-0.014
-0.07,-0.063,0.007,0.067,-0.039,-0.028,0.017,-0.117,-0.195,-0.182,-0.09,-0.023
-0.045,-0.063,-0.018,0.054,-0.013,-0.041,-0.002,-0.12,-0.237,-0.207,-0.12,-0.043
-0.026,-0.064,-0.038,0.046,0.007,-0.051,-0.008,-0.101,-0.197,-0.178,-0.11,-0.05
-0.071,-0.085,-0.014,0.078,-0.028,-0.05,0.004,-0.107,-0.229,-0.201,-0.121,-0.056
-0.096,-0.078,0.018,0.086,-0.057,-0.03,0.025,-0.082,-0.193,-0.174,-0.116,-0.053
-0.076,-0.051,0.025,0.064,-0.051,-0.013,0.019,-0.084,-0.204,-0.187,-0.123,-0.057
0.012,-0.111,-0.124,0.05,0.068,-0.117,0.066,0.06,-0.135,-0.171,-0.113,-0.054
0.016,-0.049,-0.065,0.016,0.041,-0.057,0.159,0.296,0.118,-0.073,-0.08,-0.055
0.005,0.329,0.323,-0.167,-0.159,0.326,0.144,0.218,0.383,0.165,0.093,0.042
0.053,0.992,0.938,-0.523,-0.443,0.965,-0.13,-0.248,1.294,1.026,0.651,0.368
-0.212,0.926,1.137,-0.357,-0.675,1.031,-0.344,-1.288,0.019,0.31,0.461,0.349
-0.445,0.08,0.526,0.182,-0.486,0.303,-0.276,-1.811,-1.992,-1.123,-0.308,-0.04
-0.366,-0.269,0.098,0.317,-0.232,-0.085,-0.283,-1.346,-1.469,-0.949,-0.44,-0.192
-0.23,-0.352,-0.122,0.291,-0.054,-0.237,-0.262,-0.812,-0.968,-0.711,-0.399,-0.192
-0.11,-0.302,-0.192,0.206,0.041,-0.246,-0.144,-0.325,-0.574,-0.47,-0.292,-0.157
-0.055,-0.106,-0.051,0.081,-0.002,-0.078,-0.051,-0.047,-0.179,-0.224,-0.15,-0.1
-0.038,-0.043,-0.005,0.04,-0.016,-0.024,0.015,0.047,-0.098,-0.174,-0.115,-0.06
-0.035,0.011,0.046,0.012,-0.04,0.028,0.032,0.101,0.015,-0.105,-0.073,-0.036
-0.032,0.011,0.043,0.01,-0.038,0.027,0.029,0.139,0.007,-0.103,-0.07,-0.035
-0.016,0.029,0.045,-0.007,-0.031,0.037,0.023,0.159,0.074,-0.047,-0.052,-0.027
0.003,0.045,0.043,-0.024,-0.02,0.044,0.049,0.166,0.089,-0.035,-0.043,-0.023
0.008,0.045,0.037,-0.026,-0.014,0.041,0.046,0.202,0.125,-0.004,-0.031,-0.017
0.012,0.057,0.045,-0.035,-0.017,0.051,0.036,0.23,0.181,0.015,-0.016,-0.007
0.035,0.055,0.02,-0.045,0.007,0.037,0.035,0.258,0.249,0.039,0.0,0.001
0.059,0.101,0.042,-0.081,0.009,0.071,0.025,0.262,0.314,0.089,0.029,0.019
0.081,0.122,0.041,-0.101,0.019,0.081,0.024,0.342,0.404,0.148,0.055,0.034
0.096,0.148,0.052,-0.122,0.022,0.1,0.019,0.424,0.532,0.244,0.108,0.066
0.118,0.204,0.086,-0.161,0.015,0.145,0.02,0.474,0.642,0.323,0.158,0.096
0.142,0.253,0.111,-0.198,0.015,0.182,0.021,0.507,0.735,0.393,0.197,0.113
0.172,0.322,0.15,-0.247,0.011,0.235,-0.016,0.506,0.788,0.453,0.236,0.142
0.177,0.341,0.164,-0.259,0.006,0.252,-0.052,0.495,0.788,0.457,0.25,0.145
0.151,0.338,0.187,-0.245,-0.018,0.262,-0.033,0.445,0.738,0.43,0.245,0.146
0.122,0.302,0.18,-0.212,-0.029,0.241,0.006,0.429,0.598,0.355,0.21,0.136
0.07,0.229,0.16,-0.15,-0.045,0.194,0.039,0.36,0.406,0.218,0.132,0.083
0.012,0.164,0.152,-0.088,-0.07,0.158,0.078,0.275,0.244,0.097,0.057,0.044
-0.009,0.106,0.114,-0.048,-0.062,0.11,0.103,0.237,0.099,0.001,-0.001,0.015
-0.025,0.059,0.085,-0.017,-0.055,0.072,0.096,0.17,0.011,-0.071,-0.052,-0.026
-0.066,0.009,0.075,0.028,-0.071,0.042,0.094,0.134,-0.036,-0.115,-0.084,-0.046
-0.076,-0.011,0.065,0.043,-0.071,0.027,0.091,0.116,-0.081,-0.131,-0.087,-0.044
-0.07,-0.012,0.057,0.041,-0.063,0.022,0.088,0.102,-0.1,-0.142,-0.098,-0.049
-0.07,-0.019,0.051,0.044,-0.06,0.016,0.086,0.096,-0.115,-0.164,-0.118,-0.06
-0.063,-0.019,0.044,0.041,-0.054,0.012,0.084,0.084,-0.117,-0.162,-0.117,-0.06
-0.074,-0.037,0.037,0.055,-0.055,0.0,0.104,0.102,-0.108,-0.156,-0.115,-0.06
-0.094,-0.047,0.046,0.07,-0.07,-0.001,0.117,0.117,-0.103,-0.151,-0.115,-0.061
-0.093,-0.043,0.05,0.068,-0.071,0.003,0.114,0.114,-0.096,-0.145,-0.115,-0.059
-0.092,-0.05,0.042,0.07,-0.067,-0.004,0.115,0.112,-0.089,-0.141,-0.115,-0.069
-0.09,-0.049,0.041,0.07,-0.066,-0.004,0.115,0.108,-0.087,-0.134,-0.115,-0.076
-0.083,-0.052,0.031,0.067,-0.057,-0.01,0.115,0.105,-0.09,-0.146,-0.115,-0.068
-0.081,-0.053,0.028,0.067,-0.054,-0.012,0.112,0.101,-0.091,-0.157,-0.115,-0.065
-0.067,-0.06,0.007,0.064,-0.037,-0.026,0.109,0.099,-0.088,-0.155,-0.115,-0.06
-0.034,-0.067,-0.033,0.051,0.0,-0.05,0.111,0.092,-0.094,-0.153,-0.115,-0.055
-0.035,-0.064,-0.029,0.05,-0.003,-0.047,0.11,0.095,-0.117,-0.15,-0.114,-0.059
-0.048,-0.066,-0.018,0.057,-0.015,-0.041,0.109,0.06,-0.129,-0.149,-0.118,-0.06
-0.039,-0.063,-0.023,0.051,-0.008,-0.043,0.103,0.025,-0.127,-0.162,-0.123,-0.06
-0.071,-0.086,-0.015,0.079,-0.028,-0.05,0.095,0.042,-0.126,-0.171,-0.119,-0.06
-0.067,-0.107,-0.041,0.087,-0.013,-0.074,0.091,0.035,-0.124,-0.163,-0.12,-0.06
-0.049,-0.111,-0.062,0.08,0.007,-0.086,0.079,0.03,-0.122,-0.16,-0.12,-0.059
-0.066,-0.126,-0.06,0.096,-0.003,-0.093,0.109,0.024,-0.12,-0.155,-0.12,-0.053
-0.049,-0.128,-0.078,0.089,0.015,-0.103,0.112,0.035,-0.12,-0.15,-0.121,-0.048
-0.048,-0.103,-0.055,0.076,0.003,-0.079,0.107,0.073,-0.113,-0.146,-0.112,-0.042
-0.049,-0.078,-0.028,0.064,-0.01,-0.053,0.16,0.084,-0.1,-0.142,-0.103,-0.036
-0.037,-0.064,-0.026,0.051,-0.005,-0.045,0.122,0.097,-0.096,-0.14,-0.091,-0.031
-0.021,-0.024,-0.003,0.023,-0.009,-0.014,0.078,0.077,-0.073,-0.146,-0.088,-0.026
-0.029,0.012,0.04,0.008,-0.035,0.026,0.069,0.027,-0.085,-0.15,-0.097,-0.025
-0.044,0.045,0.09,-0.001,-0.067,0.067,0.02,0.019,-0.102,-0.144,-0.105,-0.024
-0.028,0.046,0.073,-0.009,-0.051,0.059,-0.016,0.003,-0.099,-0.139,-0.109,-0.028
-0.064,-0.028,0.036,0.046,-0.05,0.004,-0.002,-0.026,-0.129,-0.157,-0.112,-0.049
-0.084,-0.086,-0.002,0.085,-0.041,-0.044,0.034,-0.039,-0.16,-0.198,-0.146,-0.08
-0.071,-0.111,-0.04,0.091,-0.015,-0.075,0.037,-0.033,-0.148,-0.193,-0.161,-0.084
-0.093,-0.136,-0.043,0.115,-0.025,-0.089,0.035,-0.032,-0.179,-0.22,-0.164,-0.087
-0.08,-0.145,-0.065,0.113,-0.007,-0.105,0.032,-0.018,-0.161,-0.219,-0.164,-0.089
-0.093,-0.148,-0.055,0.12,-0.018,-0.101,0.029,-0.022,-0.173,-0.229,-0.165,-0.091
-0.093,-0.158,-0.065,0.126,-0.014,-0.111,0.026,-0.006,-0.17,-0.23,-0.166,-0.096
-0.098,-0.139,-0.041,0.119,-0.028,-0.09,0.023,-0.01,-0.151,-0.224,-0.166,-0.108
-0.077,-0.157,-0.08,0.117,0.002,-0.119,0.053,0.086,-0.149,-0.226,-0.167,-0.118
-0.029,-0.126,-0.097,0.078,0.034,-0.111,0.15,0.361,0.134,-0.091,-0.14,-0.104
-0.064,0.112,0.176,-0.024,-0.12,0.144,0.208,0.339,0.274,0.019,-0.059,-0.052
-0.004,0.731,0.735,-0.364,-0.37,0.733,-0.022,-0.012,1.073,0.82,0.478,0.249
-0.147,0.945,1.092,-0.399,-0.62,1.018,-0.276,-0.88,0.443,0.597,0.551,0.362
-0.441,0.154,0.595,0.144,-0.519,0.375,-0.296,-1.566,-1.78,-0.972,-0.246,-0.008
-0.446,-0.372,0.074,0.409,-0.26,-0.149,-0.284,-1.272,-1.662,-1.094,-0.521,-0.226
-0.307,-0.436,-0.129,0.372,-0.088,-0.283,-0.223,-0.8,-0.974,-0.751,-0.455,-0.244
-0.173,-0.413,-0.24,0.293,0.034,-0.326,-0.122,-0.356,-0.647,-0.547,-0.382,-0.22
-0.094,-0.209,-0.115,0.152,0.011,-0.162,-0.006,-0.037,-0.178,-0.248,-0.218,-0.146
-0.074,-0.102,-0.027,0.088,-0.023,-0.064,0.046,0.072,-0.077,-0.179,-0.169,-0.106
-0.052,-0.064,-0.011,0.058,-0.02,-0.037,0.043,0.134,0.044,-0.098,-0.129,-0.078
-0.05,-0.056,-0.006,0.053,-0.022,-0.031,0.055,0.14,0.052,-0.1,-0.114,-0.071
-0.066,-0.039,0.027,0.052,-0.046,-0.006,0.029,0.168,0.105,-0.062,-0.096,-0.06
-0.057,-0.031,0.026,0.044,-0.042,-0.002,0.058,0.191,0.13,-0.037,-0.076,-0.049
-0.037,-0.041,-0.004,0.039,-0.017,-0.022,0.076,0.219,0.159,-0.011,-0.064,-0.041
0.01,-0.029,-0.039,0.01,0.024,-0.034,0.058,0.244,0.207,0.016,-0.05,-0.029
0.019,-0.021,-0.039,0.001,0.029,-0.03,0.056,0.274,0.254,0.049,-0.035,-0.022
0.029,-0.001,-0.031,-0.014,0.03,-0.016,0.043,0.298,0.339,0.108,-0.003,-0.003
0.054,0.017,-0.037,-0.035,0.045,-0.01,0.038,0.347,0.424,0.16,0.025,0.017
0.054,0.066,0.012,-0.06,0.021,0.039,0.031,0.412,0.548,0.242,0.071,0.038
0.091,0.118,0.027,-0.105,0.032,0.072,0.021,0.458,0.671,0.331,0.129,0.07
0.122,0.167,0.045,-0.145,0.038,0.106,0.006,0.487,0.769,0.411,0.172,0.095
0.13,0.221,0.092,-0.176,0.019,0.156,-0.023,0.485,0.824,0.467,0.216,0.117
0.136,0.238,0.102,-0.187,0.017,0.17,-0.02,0.483,0.848,0.495,0.247,0.143
0.132,0.256,0.123,-0.194,0.004,0.189,-0.025,0.467,0.804,0.477,0.24,0.155
0.105,0.237,0.133,-0.171,-0.014,0.185,-0.006,0.403,0.65,0.39,0.205,0.132
0.047,0.165,0.117,-0.106,-0.036,0.14,0.058,0.341,0.475,0.264,0.145,0.09
0.005,0.107,0.102,-0.056,-0.049,0.104,0.07,0.288,0.302,0.132,0.065,0.048
-0.026,0.06,0.086,-0.018,-0.056,0.073,0.082,0.244,0.141,0.018,-0.013,-0.004
-0.059,0.016,0.075,0.021,-0.067,0.045,0.09,0.162,0.028,-0.066,-0.066,-0.045
-0.077,-0.015,0.062,0.046,-0.069,0.023,0.076,0.06,-0.044,-0.118,-0.099,-0.072
-0.086,-0.032,0.054,0.059,-0.07,0.011,0.075,0.046,-0.066,-0.132,-0.111,-0.086
-0.09,-0.047,0.043,0.069,-0.067,-0.002,0.063,0.035,-0.076,-0.143,-0.116,-0.085
-0.089,-0.049,0.04,0.069,-0.065,-0.004,0.058,0.006,-0.101,-0.16,-0.127,-0.09
-0.057,-0.034,0.023,0.046,-0.04,-0.005,0.051,-0.021,-0.103,-0.158,-0.122,-0.09
-0.072,-0.028,0.044,0.049,-0.058,0.008,0.054,-0.041,-0.092,-0.166,-0.119,-0.086
-0.096,-0.037,0.059,0.066,-0.077,0.011,0.086,-0.01,-0.089,-0.168,-0.116,-0.085
-0.099,-0.075,0.023,0.087,-0.061,-0.026,0.089,0.021,-0.08,-0.151,-0.11,-0.085
-0.108,-0.092,0.016,0.1,-0.062,-0.038,0.099,0.037,-0.076,-0.15,-0.111,-0.085
-0.088,-0.09,-0.002,0.089,-0.043,-0.046,0.123,0.064,-0.074,-0.15,-0.115,-0.085
-0.088,-0.077,0.011,0.082,-0.049,-0.033,0.116,0.087,-0.076,-0.15,-0.12,-0.085
-0.075,-0.045,0.03,0.06,-0.052,-0.007,0.103,0.079,-0.075,-0.15,-0.123,-0.085
-0.087,-0.047,0.04,0.066,-0.063,-0.003,0.095,0.053,-0.076,-0.15,-0.127,-0.085
-0.094,-0.055,0.039,0.075,-0.067,-0.008,0.091,0.019,-0.077,-0.145,-0.13,-0.085
-0.058,-0.058,0.0,0.058,-0.029,-0.029,0.088,-0.019,-0.081,-0.145,-0.13,-0.085
-0.038,-0.044,-0.006,0.042,-0.016,-0.025,0.078,-0.027,-0.092,-0.144,-0.13,-0.085
-0.024,-0.029,-0.005,0.026,-0.009,-0.017,0.067,-0.023,-0.093,-0.151,-0.13,-0.081
-0.051,-0.03,0.021,0.04,-0.036,-0.005,0.061,-0.02,-0.102,-0.172,-0.126,-0.08
-0.059,-0.023,0.036,0.04,-0.047,0.007,0.054,-0.027,-0.101,-0.169,-0.121,-0.08
-0.06,-0.066,-0.007,0.063,-0.027,-0.036,0.062,-0.019,-0.092,-0.161,-0.118,-0.08
-0.045,-0.087,-0.042,0.066,-0.002,-0.064,0.078,0.019,-0.086,-0.155,-0.113,-0.08
-0.042,-0.042,0.0,0.042,-0.021,-0.021,0.118,0.025,-0.079,-0.147,-0.108,-0.079
-0.105,-0.041,0.064,0.073,-0.084,0.011,0.124,0.027,-0.075,-0.143,-0.103,-0.073
-0.063,-0.016,0.047,0.039,-0.055,0.015,0.06,0.005,-0.07,-0.137,-0.097,-0.065
-0.035,0.057,0.092,-0.011,-0.064,0.074,0.039,-0.047,-0.066,-0.134,-0.091,-0.06
-0.045,0.076,0.12,-0.016,-0.083,0.098,0.038,-0.048,-0.061,-0.129,-0.087,-0.051
-0.025,0.048,0.073,-0.012,-0.05,0.06,0.032,-0.038,-0.06,-0.135,-0.08,-0.054
-0.032,0.012,0.044,0.009,-0.038,0.028,0.031,-0.023,-0.073,-0.135,-0.079,-0.061
-0.023,-0.033,-0.01,0.028,-0.006,-0.021,0.023,-0.008,-0.099,-0.137,-0.1,-0.066
-0.029,-0.075,-0.046,0.053,0.009,-0.06,0.036,0.01,-0.123,-0.164,-0.131,-0.08
-0.061,-0.105,-0.044,0.083,-0.008,-0.074,0.047,0.021,-0.115,-0.164,-0.138,-0.089
-0.069,-0.143,-0.074,0.106,0.003,-0.108,0.039,-0.025,-0.158,-0.192,-0.151,-0.1
-0.059,-0.141,-0.082,0.1,0.012,-0.111,0.033,-0.013,-0.122,-0.167,-0.149,-0.099
-0.09,-0.143,-0.052,0.117,-0.018,-0.097,0.023,-0.01,-0.146,-0.175,-0.158,-0.102
-0.089,-0.152,-0.064,0.121,-0.012,-0.108,0.016,0.033,-0.128,-0.161,-0.154,-0.098
-0.139,-0.145,-0.006,0.142,-0.066,-0.075,0.011,0.011,-0.123,-0.149,-0.154,-0.11
-0.087,-0.176,-0.089,0.132,0.001,-0.132,0.053,0.123,-0.11,-0.167,-0.169,-0.123
0.005,-0.096,-0.101,0.046,0.053,-0.098,0.157,0.415,0.197,-0.059,-0.128,-0.117
-0.029,0.174,0.203,-0.072,-0.116,0.188,0.19,0.317,0.362,0.107,-0.001,-0.044
0.067,0.84,0.773,-0.454,-0.354,0.807,-0.07,-0.121,1.216,0.95,0.562,0.29
-0.118,0.987,1.105,-0.435,-0.612,1.046,-0.384,-1.094,0.34,0.571,0.574,0.369
-0.405,0.124,0.529,0.14,-0.467,0.326,-0.329,-1.706,-1.853,-0.97,-0.236,-0.005
-0.384,-0.361,0.023,0.372,-0.203,-0.169,-0.249,-1.367,-1.567,-1.009,-0.479,-0.221
-0.27,-0.419,-0.149,0.345,-0.061,-0.284,-0.251,-0.916,-0.96,-0.712,-0.428,-0.252
-0.119,-0.351,-0.232,0.235,0.057,-0.291,-0.113,-0.402,-0.572,-0.481,-0.338,-0.209
-0.071,-0.152,-0.082,0.112,0.006,-0.117,-0.01,-0.047,-0.132,-0.191,-0.179,-0.139
-0.056,-0.085,-0.028,0.071,-0.014,-0.056,0.033,0.045,-0.064,-0.148,-0.139,-0.102
-0.024,-0.04,-0.016,0.033,-0.004,-0.027,0.043,0.103,0.066,-0.069,-0.1,-0.074
-0.006,-0.026,-0.02,0.016,0.007,-0.023,0.034,0.158,0.066,-0.064,-0.091,-0.071
0.002,-0.021,-0.023,0.01,0.013,-0.022,0.036,0.197,0.136,-0.025,-0.07,-0.059
-0.001,0.001,0.002,0.0,-0.002,0.001,0.027,0.188,0.158,-0.009,-0.063,-0.052
-0.003,0.013,0.016,-0.005,-0.01,0.014,0.029,0.185,0.199,0.011,-0.053,-0.048
0.009,0.045,0.036,-0.027,-0.014,0.04,0.014,0.185,0.238,0.036,-0.041,-0.043
0.021,0.074,0.053,-0.048,-0.016,0.063,0.008,0.194,0.289,0.065,-0.025,-0.041
0.029,0.089,0.06,-0.059,-0.015,0.074,0.027,0.226,0.379,0.12,0.002,-0.022
0.066,0.129,0.062,-0.098,0.002,0.095,0.028,0.271,0.464,0.178,0.029,0.005
0.082,0.15,0.068,-0.117,0.007,0.109,0.018,0.318,0.593,0.268,0.084,0.031
0.118,0.197,0.079,-0.157,0.019,0.138,0.009,0.348,0.707,0.354,0.138,0.058
0.155,0.264,0.109,-0.21,0.023,0.187,0.002,0.403,0.809,0.433,0.193,0.093
0.17,0.303,0.133,-0.237,0.018,0.218,-0.016,0.442,0.868,0.493,0.236,0.117
0.17,0.329,0.159,-0.25,0.005,0.244,-0.018,0.415,0.872,0.501,0.247,0.127
0.142,0.33,0.188,-0.236,-0.023,0.259,-0.007,0.382,0.829,0.485,0.241,0.139
0.11,0.309,0.199,-0.209,-0.045,0.254,0.0,0.333,0.669,0.399,0.199,0.114
0.074,0.258,0.184,-0.166,-0.055,0.22,0.031,0.271,0.475,0.259,0.127,0.06
0.046,0.193,0.147,-0.12,-0.051,0.17,0.055,0.23,0.302,0.142,0.05,0.012
0.006,0.135,0.129,-0.071,-0.062,0.132,0.06,0.192,0.143,0.024,-0.018,-0.037
-0.022,0.115,0.137,-0.047,-0.079,0.126,0.059,0.124,0.041,-0.059,-0.072,-0.072
-0.03,0.104,0.134,-0.038,-0.082,0.119,0.054,0.048,-0.029,-0.105,-0.111,-0.096
-0.036,0.089,0.125,-0.027,-0.08,0.107,0.052,0.031,-0.068,-0.127,-0.121,-0.108
-0.041,0.079,0.12,-0.02,-0.08,0.099,0.047,0.023,-0.084,-0.132,-0.119,-0.11
-0.045,0.067,0.112,-0.011,-0.079,0.089,0.045,-0.047,-0.081,-0.136,-0.12,-0.11
-0.046,0.064,0.11,-0.009,-0.078,0.086,0.045,-0.076,-0.08,-0.134,-0.12,-0.109
-0.051,0.06,0.11,-0.004,-0.08,0.085,0.045,-0.031,-0.08,-0.139,-0.12,-0.11
-0.049,0.057,0.106,-0.004,-0.078,0.082,0.045,-0.022,-0.075,-0.14,-0.12,-0.109
-0.053,0.052,0.105,0.0,-0.079,0.078,0.045,-0.031,-0.076,-0.14,-0.12,-0.105
-0.056,0.049,0.105,0.003,-0.08,0.077,0.045,-0.022,-0.073,-0.145,-0.12,-0.105
-0.059,0.046,0.105,0.006,-0.083,0.075,0.043,-0.016,-0.071,-0.145,-0.12,-0.103
-0.066,0.039,0.105,0.013,-0.085,0.072,0.036,-0.01,-0.063,-0.145,-0.12,-0.1
-0.067,0.038,0.105,0.014,-0.086,0.071,0.032,-0.003,-0.08,-0.145,-0.12,-0.099
-0.077,0.028,0.105,0.024,-0.091,0.066,0.026,-0.002,-0.109,-0.144,-0.125,-0.106
-0.058,0.047,0.105,0.005,-0.081,0.076,0.02,0.008,-0.117,-0.148,-0.125,-0.116
-0.035,0.069,0.103,-0.017,-0.07,0.086,0.015,0.025,-0.128,-0.15,-0.125,-0.115
-0.034,0.062,0.096,-0.014,-0.066,0.079,0.011,0.021,-0.137,-0.15,-0.125,-0.115
-0.026,0.067,0.093,-0.021,-0.06,0.08,0.009,0.011,-0.142,-0.154,-0.123,-0.115
-0.025,0.062,0.088,-0.019,-0.057,0.075,0.011,-0.01,-0.149,-0.155,-0.119,-0.115
-0.016,0.068,0.084,-0.027,-0.051,0.076,0.009,-0.038,-0.153,-0.155,-0.117,-0.112
-0.024,0.055,0.079,-0.016,-0.052,0.067,0.011,-0.066,-0.152,-0.148,-0.114,-0.104
-0.022,0.051,0.072,-0.015,-0.047,0.061,0.012,-0.054,-0.148,-0.139,-0.111,-0.096
-0.019,0.079,0.099,-0.03,-0.059,0.089,0.016,-0.03,-0.146,-0.13,-0.11,-0.088
-0.045,0.068,0.113,-0.011,-0.079,0.09,0.047,-0.029,-0.14,-0.122,-0.1,-0.08
-0.063,0.051,0.114,0.006,-0.089,0.082,0.063,-0.03,-0.129,-0.117,-0.084,-0.071
-0.067,0.048,0.115,0.009,-0.091,0.081,0.034,-0.03,-0.127,-0.104,-0.073,-0.057
-0.034,0.082,0.116,-0.025,-0.075,0.099,-0.013,-0.03,-0.132,-0.098,-0.062,-0.05
-0.013,0.097,0.11,-0.042,-0.062,0.104,-0.019,-0.059,-0.128,-0.099,-0.053,-0.05
-0.009,0.087,0.096,-0.039,-0.053,0.092,-0.025,-0.077,-0.131,-0.104,-0.055,-0.05
-0.007,0.07,0.076,-0.032,-0.042,0.073,-0.041,-0.093,-0.135,-0.105,-0.063,-0.05
-0.034,-0.01,0.023,0.022,-0.028,0.006,-0.021,-0.097,-0.142,-0.114,-0.072,-0.05
-0.048,-0.057,-0.009,0.052,-0.019,-0.032,-0.009,-0.074,-0.155,-0.13,-0.092,-0.067
-0.038,-0.051,-0.013,0.044,-0.012,-0.032,0.005,-0.069,-0.153,-0.139,-0.104,-0.08
-0.039,-0.069,-0.03,0.054,-0.004,-0.05,0.012,-0.067,-0.188,-0.168,-0.117,-0.081
-0.048,-0.043,0.005,0.046,-0.027,-0.018,-0.028,-0.11,-0.157,-0.157,-0.121,-0.093
-0.069,-0.038,0.031,0.053,-0.05,-0.003,-0.052,-0.12,-0.198,-0.188,-0.137,-0.104
-0.061,-0.031,0.03,0.045,-0.046,0.0,-0.039,-0.076,-0.138,-0.148,-0.123,-0.102
-0.041,-0.031,0.01,0.036,-0.026,-0.01,-0.02,-0.082,-0.172,-0.172,-0.135,-0.117
0.017,-0.099,-0.116,0.041,0.067,-0.107,0.051,0.14,-0.067,-0.119,-0.127,-0.108
0.014,-0.015,-0.029,0.001,0.021,-0.022,0.153,0.371,0.184,-0.017,-0.087,-0.097
0.023,0.372,0.349,-0.198,-0.163,0.36,0.127,0.27,0.553,0.331,0.156,0.05
0.088,1.012,0.924,-0.55,-0.419,0.968,-0.183,-0.277,1.396,1.157,0.728,0.397
-0.184,0.815,0.999,-0.316,-0.592,0.906,-0.418,-1.387,-0.198,0.237,0.438,0.33
-0.435,-0.081,0.354,0.258,-0.395,0.137,-0.334,-1.765,-1.973,-1.067,-0.309,-0.053
-0.339,-0.374,-0.035,0.356,-0.151,-0.204,-0.312,-1.264,-1.315,-0.838,-0.4,-0.193
-0.172,-0.374,-0.201,0.273,0.015,-0.287,-0.302,-0.818,-0.89,-0.627,-0.372,-0.205
-0.076,-0.265,-0.189,0.171,0.057,-0.227,-0.145,-0.332,-0.436,-0.35,-0.261,-0.169
-0.032,-0.069,-0.036,0.051,0.002,-0.052,-0.039,-0.053,-0.107,-0.141,-0.138,-0.109
-0.027,-0.008,0.018,0.017,-0.022,0.005,-0.032,0.012,-0.043,-0.087,-0.099,-0.068
-0.023,0.023,0.045,0.0,-0.034,0.034,-0.024,0.055,0.056,-0.025,-0.059,-0.05
0.029,0.041,0.012,-0.035,0.008,0.027,-0.015,0.1,0.067,-0.026,-0.059,-0.049
0.053,0.046,-0.007,-0.049,0.03,0.019,-0.004,0.135,0.137,0.018,-0.042,-0.041
0.032,0.045,0.013,-0.038,0.009,0.029,-0.007,0.137,0.13,0.013,-0.037,-0.037
0.025,0.057,0.033,-0.041,-0.005,0.045,-0.018,0.172,0.192,0.05,-0.018,-0.031
0.036,0.078,0.042,-0.057,-0.004,0.059,-0.011,0.181,0.252,0.073,-0.001,-0.023
0.041,0.111,0.07,-0.076,-0.015,0.09,-0.005,0.206,0.316,0.107,0.015,-0.008
0.062,0.126,0.064,-0.094,-0.002,0.095,0.005,0.256,0.397,0.165,0.043,0.005
0.068,0.14,0.072,-0.104,-0.002,0.105,-0.01,0.319,0.484,0.219,0.069,0.018
0.12,0.202,0.082,-0.162,0.019,0.142,-0.011,0.381,0.604,0.304,0.114,0.049
0.169,0.259,0.09,-0.214,0.039,0.174,-0.023,0.406,0.723,0.394,0.173,0.081
0.17,0.303,0.132,-0.237,0.019,0.217,-0.042,0.471,0.817,0.473,0.222,0.112
0.207,0.336,0.129,-0.272,0.039,0.232,-0.031,0.516,0.866,0.532,0.263,0.14
0.18,0.337,0.158,-0.259,0.011,0.247,-0.026,0.489,0.863,0.538,0.284,0.154
0.159,0.358,0.199,-0.259,-0.021,0.278,-0.023,0.437,0.788,0.498,0.267,0.144
0.143,0.36,0.217,-0.252,-0.037,0.288,-0.007,0.393,0.627,0.396,0.213,0.111
0.088,0.304,0.216,-0.196,-0.064,0.26,0.024,0.328,0.438,0.256,0.135,0.063
0.057,0.248,0.191,-0.152,-0.068,0.219,0.043,0.211,0.257,0.132,0.057,0.011
0.026,0.198,0.172,-0.112,-0.073,0.185,0.071,0.145,0.109,0.028,-0.011,-0.024
0.01,0.118,0.108,-0.064,-0.05,0.113,0.071,0.1,0.024,-0.03,-0.044,-0.045
-0.02,0.051,0.071,-0.016,-0.045,0.061,0.05,0.045,-0.028,-0.061,-0.061,-0.055
-0.025,0.047,0.072,-0.011,-0.049,0.06,0.047,0.007,-0.058,-0.071,-0.073,-0.055
-0.022,0.044,0.066,-0.012,-0.044,0.055,0.044,-0.032,-0.072,-0.079,-0.075,-0.055
-0.026,0.033,0.059,-0.004,-0.043,0.046,0.046,-0.045,-0.092,-0.095,-0.08,-0.055
-0.015,0.036,0.051,-0.01,-0.034,0.043,0.045,-0.042,-0.095,-0.091,-0.076,-0.055
-0.009,0.035,0.044,-0.013,-0.027,0.039,0.045,-0.034,-0.086,-0.09,-0.074,-0.055
-0.005,0.035,0.04,-0.015,-0.023,0.037,0.048,-0.03,-0.083,-0.09,-0.076,-0.055
-0.031,0.035,0.066,-0.002,-0.049,0.05,0.05,-0.031,-0.075,-0.09,-0.074,-0.055
-0.047,0.036,0.083,0.005,-0.065,0.059,0.05,-0.028,-0.075,-0.09,-0.076,-0.055
-0.033,0.04,0.073,-0.004,-0.053,0.056,0.043,-0.033,-0.075,-0.09,-0.073,-0.055
-0.034,0.04,0.074,-0.004,-0.054,0.057,0.036,-0.024,-0.07,-0.091,-0.07,-0.055
-0.029,0.038,0.068,-0.005,-0.048,0.053,0.029,-0.055,-0.071,-0.09,-0.07,-0.055
-0.023,0.041,0.064,-0.01,-0.044,0.053,0.021,-0.082,-0.069,-0.09,-0.07,-0.055
-0.03,0.041,0.072,-0.006,-0.051,0.056,0.014,-0.057,-0.075,-0.09,-0.07,-0.055
-0.018,0.053,0.072,-0.018,-0.045,0.062,0.012,-0.049,-0.092,-0.09,-0.07,-0.055
-0.011,0.041,0.052,-0.015,-0.032,0.046,0.022,-0.042,-0.103,-0.094,-0.074,-0.055
-0.017,0.02,0.037,-0.002,-0.028,0.028,0.016,-0.078,-0.105,-0.096,-0.075,-0.055
-0.025,0.034,0.059,-0.005,-0.042,0.046,-0.014,-0.096,-0.107,-0.095,-0.075,-0.051
-0.025,0.015,0.041,0.005,-0.033,0.028,-0.031,-0.091,-0.11,-0.095,-0.075,-0.05
-0.028,-0.011,0.017,0.019,-0.022,0.002,-0.027,-0.134,-0.111,-0.103,-0.075,-0.05
-0.034,-0.009,0.026,0.021,-0.03,0.008,-0.022,-0.117,-0.114,-0.106,-0.074,-0.05
-0.021,-0.011,0.01,0.016,-0.016,-0.001,-0.022,-0.093,-0.116,-0.1,-0.069,-0.05
-0.021,-0.015,0.006,0.017,-0.013,-0.004,-0.012,-0.109,-0.121,-0.098,-0.063,-0.049
-0.012,-0.015,-0.003,0.014,-0.004,-0.009,-0.023,-0.1,-0.117,-0.094,-0.06,-0.045
-0.013,-0.013,0.0,0.013,-0.006,-0.007,-0.021,-0.085,-0.101,-0.09,-0.055,-0.042
-0.029,0.026,0.055,0.001,-0.042,0.04,0.025,-0.082,-0.087,-0.087,-0.051,-0.04
-0.02,0.059,0.079,-0.02,-0.05,0.069,0.031,-0.072,-0.08,-0.083,-0.046,-0.036
0.003,0.088,0.084,-0.046,-0.041,0.086,-0.02,-0.089,-0.076,-0.082,-0.04,-0.036
0.024,0.139,0.115,-0.081,-0.045,0.126,-0.068,-0.143,-0.073,-0.077,-0.035,-0.024
0.008,0.117,0.109,-0.063,-0.051,0.113,-0.072,-0.156,-0.07,-0.073,-0.028,-0.004
0.015,0.088,0.073,-0.052,-0.029,0.08,-0.068,-0.154,-0.063,-0.054,-0.025,-0.009
0.038,0.078,0.04,-0.059,-0.001,0.059,-0.072,-0.158,-0.074,-0.047,-0.024,-0.02
0.01,0.03,0.02,-0.021,-0.005,0.025,-0.067,-0.16,-0.097,-0.081,-0.045,-0.024
-0.011,-0.024,-0.013,0.018,0.001,-0.018,-0.067,-0.16,-0.127,-0.105,-0.073,-0.043
-0.027,-0.042,-0.015,0.035,-0.006,-0.028,-0.062,-0.167,-0.127,-0.108,-0.078,-0.055
-0.048,-0.053,-0.005,0.051,-0.021,-0.028,-0.06,-0.185,-0.164,-0.142,-0.093,-0.059
-0.022,-0.045,-0.023,0.034,0.001,-0.033,-0.083,-0.175,-0.128,-0.123,-0.08,-0.061
-0.011,-0.037,-0.026,0.024,0.007,-0.031,-0.076,-0.173,-0.148,-0.144,-0.095,-0.068
-0.02,-0.04,-0.019,0.03,0.0,-0.029,-0.056,-0.122,-0.129,-0.129,-0.105,-0.071
-0.036,-0.019,0.017,0.028,-0.027,-0.001,-0.049,-0.138,-0.118,-0.123,-0.095,-0.079
0.002,-0.083,-0.085,0.041,0.044,-0.084,0.001,-0.01,-0.113,-0.115,-0.1,-0.081
0.028,-0.045,-0.073,0.009,0.051,-0.059,0.08,0.259,0.177,0.004,-0.07,-0.076
0.009,0.219,0.21,-0.114,-0.101,0.214,0.126,0.276,0.414,0.192,0.075,0.012
0.109,0.859,0.75,-0.484,-0.321,0.804,-0.107,-0.06,1.396,1.086,0.662,0.364
-0.099,0.974,1.072,-0.438,-0.586,1.023,-0.424,-1.153,0.551,0.693,0.652,0.435
-0.395,0.138,0.533,0.128,-0.464,0.335,-0.411,-1.883,-1.732,-0.848,-0.142,0.057
-0.343,-0.267,0.076,0.305,-0.21,-0.095,-0.38,-1.525,-1.506,-0.897,-0.389,-0.153
-0.231,-0.344,-0.113,0.288,-0.059,-0.228,-0.368,-1.014,-0.922,-0.639,-0.367,-0.207
-0.093,-0.304,-0.211,0.199,0.059,-0.257,-0.217,-0.49,-0.565,-0.417,-0.275,-0.169
-0.031,-0.071,-0.041,0.051,0.005,-0.056,-0.097,-0.127,-0.124,-0.138,-0.124,-0.089
0.003,0.0,-0.004,-0.001,0.003,-0.002,-0.05,-0.022,-0.072,-0.093,-0.085,-0.065
0.031,0.036,0.006,-0.034,0.012,0.02,-0.046,0.017,0.05,-0.014,-0.044,-0.043
0.015,0.045,0.03,-0.031,-0.008,0.038,-0.043,0.053,0.061,-0.008,-0.044,-0.038
0.021,0.069,0.048,-0.045,-0.014,0.058,-0.039,0.079,0.12,0.027,-0.028,-0.028
0.027,0.095,0.068,-0.061,-0.02,0.081,-0.038,0.081,0.135,0.032,-0.019,-0.021
0.039,0.099,0.061,-0.07,-0.011,0.08,-0.033,0.108,0.172,0.063,0.001,-0.015
0.049,0.118,0.069,-0.084,-0.011,0.093,-0.041,0.139,0.22,0.093,0.025,-0.004
0.078,0.138,0.06,-0.109,0.009,0.099,-0.06,0.176,0.275,0.117,0.036,0.003
0.09,0.142,0.052,-0.116,0.019,0.097,-0.056,0.224,0.36,0.176,0.068,0.025
0.111,0.14,0.03,-0.126,0.04,0.085,-0.043,0.285,0.445,0.236,0.107,0.055
0.132,0.168,0.036,-0.15,0.048,0.101,-0.03,0.35,0.566,0.318,0.154,0.08
0.17,0.222,0.052,-0.196,0.058,0.137,-0.037,0.4,0.677,0.402,0.197,0.105
0.21,0.276,0.066,-0.244,0.072,0.171,-0.061,0.429,0.779,0.481,0.25,0.14
0.204,0.308,0.105,-0.256,0.049,0.206,-0.053,0.455,0.854,0.545,0.303,0.176
0.21,0.315,0.106,-0.263,0.052,0.211,-0.047,0.446,0.868,0.577,0.331,0.196
0.206,0.308,0.102,-0.257,0.051,0.205,-0.04,0.404,0.831,0.573,0.345,0.21
0.185,0.286,0.101,-0.235,0.042,0.193,-0.011,0.358,0.705,0.497,0.302,0.184
0.139,0.238,0.1,-0.189,0.019,0.169,0.008,0.298,0.523,0.365,0.227,0.138
0.092,0.186,0.095,-0.139,-0.002,0.14,0.01,0.222,0.345,0.23,0.156,0.094
0.068,0.128,0.06,-0.098,0.004,0.093,0.023,0.135,0.188,0.126,0.088,0.049
0.033,0.071,0.038,-0.052,-0.003,0.054,0.037,0.06,0.083,0.057,0.041,0.022
0.009,0.03,0.021,-0.02,-0.007,0.025,0.033,-0.012,0.014,0.007,0.006,0.004
-0.023,-0.01,0.012,0.016,-0.017,0.001,0.025,-0.04,-0.023,-0.021,-0.01,-0.004
-0.038,-0.016,0.022,0.027,-0.029,0.002,0.016,-0.074,-0.05,-0.039,-0.028,-0.011
-0.027,0.002,0.029,0.012,-0.028,0.015,0.0,-0.106,-0.066,-0.05,-0.041,-0.017
-0.013,0.006,0.019,0.003,-0.016,0.013,-0.016,-0.097,-0.065,-0.05,-0.04,-0.024
0.001,-0.006,-0.006,0.003,0.004,-0.006,-0.016,-0.101,-0.063,-0.05,-0.04,-0.03
0.0,-0.017,-0.016,0.009,0.008,-0.017,-0.011,-0.1,-0.06,-0.05,-0.04,-0.03
-0.016,-0.005,0.01,0.01,-0.013,0.002,-0.008,-0.099,-0.059,-0.05,-0.04,-0.03
-0.028,0.022,0.05,0.003,-0.04,0.036,-0.005,-0.104,-0.063,-0.052,-0.044,-0.029
-0.018,0.058,0.076,-0.021,-0.047,0.067,0.0,-0.103,-0.065,-0.058,-0.046,-0.04
-0.012,0.065,0.077,-0.027,-0.045,0.071,-0.003,-0.108,-0.067,-0.061,-0.045,-0.047
-0.015,0.054,0.069,-0.02,-0.042,0.061,-0.02,-0.106,-0.07,-0.06,-0.045,-0.044
-0.015,0.047,0.063,-0.016,-0.039,0.055,-0.028,-0.104,-0.07,-0.064,-0.045,-0.042
-0.016,0.039,0.055,-0.012,-0.036,0.047,-0.046,-0.098,-0.075,-0.065,-0.045,-0.04
-0.018,0.032,0.051,-0.007,-0.035,0.041,-0.053,-0.094,-0.078,-0.065,-0.049,-0.04
-0.022,0.026,0.048,-0.002,-0.035,0.037,-0.035,-0.12,-0.084,-0.07,-0.05,-0.035
-0.025,0.021,0.046,0.001,-0.035,0.033,-0.03,-0.111,-0.099,-0.07,-0.05,-0.035
-0.026,0.016,0.042,0.005,-0.034,0.029,-0.029,-0.126,-0.113,-0.073,-0.05,-0.035
-0.031,0.01,0.041,0.011,-0.036,0.025,-0.033,-0.172,-0.122,-0.076,-0.051,-0.035
-0.031,0.005,0.036,0.013,-0.034,0.02,-0.036,-0.173,-0.128,-0.072,-0.055,-0.036
-0.018,0.027,0.045,-0.005,-0.032,0.036,-0.049,-0.171,-0.137,-0.07,-0.057,-0.032
-0.009,0.038,0.047,-0.014,-0.029,0.042,-0.038,-0.187,-0.134,-0.07,-0.06,-0.03
0.017,0.032,0.015,-0.024,0.001,0.023,-0.048,-0.194,-0.126,-0.067,-0.063,-0.031
0.031,0.029,-0.002,-0.03,0.016,0.014,-0.071,-0.182,-0.12,-0.065,-0.066,-0.026
0.023,0.031,0.007,-0.027,0.008,0.019,-0.046,-0.155,-0.112,-0.065,-0.06,-0.025
-0.001,0.06,0.06,-0.03,-0.031,0.06,-0.035,-0.115,-0.109,-0.058,-0.051,-0.025
-0.018,0.074,0.093,-0.028,-0.056,0.084,-0.021,-0.119,-0.107,-0.047,-0.044,-0.018
0.003,0.091,0.087,-0.047,-0.042,0.089,-0.045,-0.119,-0.103,-0.037,-0.019,-0.007
0.009,0.117,0.108,-0.063,-0.049,0.112,-0.077,-0.109,-0.102,-0.028,0.001,0.002
0.032,0.106,0.074,-0.069,-0.021,0.089,-0.065,-0.142,-0.099,-0.023,0.015,0.013
0.052,0.079,0.027,-0.066,0.013,0.053,-0.071,-0.164,-0.088,-0.027,0.021,0.033
0.031,0.043,0.012,-0.037,0.009,0.027,-0.077,-0.156,-0.08,-0.023,0.004,0.022
0.009,-0.007,-0.017,-0.001,0.013,-0.012,-0.068,-0.164,-0.119,-0.052,-0.022,-0.008
0.007,-0.053,-0.06,0.023,0.034,-0.056,-0.058,-0.156,-0.142,-0.076,-0.043,-0.013
-0.018,-0.088,-0.07,0.054,0.026,-0.079,-0.054,-0.173,-0.136,-0.071,-0.049,-0.019
-0.026,-0.113,-0.087,0.07,0.031,-0.1,-0.057,-0.21,-0.162,-0.091,-0.053,-0.027
-0.026,-0.095,-0.07,0.061,0.022,-0.082,-0.05,-0.2,-0.123,-0.066,-0.046,-0.027
-0.043,-0.106,-0.063,0.075,0.01,-0.084,-0.052,-0.199,-0.172,-0.096,-0.055,-0.042
-0.032,-0.093,-0.061,0.062,0.015,-0.077,-0.048,-0.172,-0.117,-0.065,-0.045,-0.036
-0.042,-0.094,-0.052,0.068,0.005,-0.073,-0.035,-0.151,-0.154,-0.098,-0.071,-0.044
0.043,-0.121,-0.164,0.039,0.104,-0.142,0.016,0.063,-0.002,-0.033,-0.053,-0.035
0.044,-0.014,-0.058,-0.015,0.051,-0.036,0.154,0.276,0.223,0.056,-0.013,-0.023
0.051,0.358,0.308,-0.205,-0.129,0.333,0.096,0.216,0.728,0.503,0.285,0.155
0.109,0.959,0.85,-0.534,-0.371,0.905,-0.222,-0.404,1.569,1.303,0.862,0.513
-0.21,0.659,0.869,-0.224,-0.54,0.764,-0.395,-1.566,-0.278,0.201,0.464,0.376
-0.418,-0.149,0.269,0.283,-0.344,0.06,-0.411,-1.905,-1.92,-0.993,-0.266,-0.021
-0.302,-0.361,-0.058,0.331,-0.122,-0.209,-0.409,-1.405,-1.197,-0.708,-0.325,-0.151
-0.165,-0.426,-0.26,0.296,0.047,-0.343,-0.328,-0.845,-0.827,-0.535,-0.296,-0.16
-0.055,-0.278,-0.224,0.167,0.084,-0.251,-0.177,-0.33,-0.368,-0.253,-0.171,-0.103
0.003,-0.089,-0.092,0.043,0.048,-0.091,-0.058,-0.087,-0.087,-0.075,-0.063,-0.055
0.032,-0.051,-0.083,0.01,0.057,-0.067,-0.024,-0.018,-0.02,-0.022,-0.024,-0.013
0.029,-0.013,-0.042,-0.008,0.036,-0.028,0.0,0.023,0.076,0.044,0.016,0.008
0.04,-0.015,-0.056,-0.013,0.048,-0.035,-0.006,0.054,0.089,0.053,0.014,0.008
0.051,0.004,-0.047,-0.028,0.049,-0.021,-0.013,0.081,0.153,0.089,0.039,0.026
0.073,0.021,-0.051,-0.047,0.062,-0.015,-0.016,0.092,0.153,0.091,0.055,0.033
0.09,0.042,-0.048,-0.066,0.069,-0.003,-0.033,0.13,0.22,0.127,0.069,0.037
0.092,0.065,-0.027,-0.078,0.059,0.019,-0.023,0.179,0.253,0.143,0.069,0.032
0.097,0.082,-0.015,-0.089,0.056,0.033,-0.019,0.214,0.311,0.181,0.084,0.041
0.098,0.083,-0.015,-0.09,0.057,0.033,-0.018,0.256,0.399,0.24,0.12,0.065
0.132,0.119,-0.013,-0.125,0.072,0.053,-0.006,0.32,0.491,0.301,0.152,0.087
0.173,0.18,0.007,-0.177,0.083,0.093,-0.008,0.383,0.622,0.387,0.202,0.115
0.193,0.216,0.023,-0.205,0.084,0.119,-0.017,0.429,0.728,0.468,0.256,0.145
0.207,0.265,0.058,-0.236,0.074,0.162,-0.032,0.489,0.818,0.542,0.304,0.181
0.216,0.294,0.078,-0.256,0.069,0.186,-0.058,0.513,0.88,0.604,0.348,0.214
0.214,0.286,0.072,-0.251,0.071,0.179,-0.06,0.492,0.866,0.615,0.368,0.226
0.197,0.274,0.077,-0.236,0.06,0.175,-0.045,0.443,0.807,0.585,0.353,0.212
0.172,0.258,0.086,-0.215,0.043,0.172,-0.014,0.367,0.647,0.479,0.3,0.177
0.134,0.217,0.083,-0.175,0.025,0.149,0.023,0.288,0.441,0.331,0.213,0.128
0.084,0.165,0.081,-0.125,0.001,0.123,0.045,0.201,0.264,0.199,0.126,0.076
0.051,0.125,0.073,-0.088,-0.011,0.099,0.052,0.101,0.113,0.087,0.066,0.023
0.02,0.067,0.047,-0.044,-0.013,0.056,0.052,0.034,0.031,0.026,0.025,-0.01
-0.01,-0.001,0.009,0.005,-0.009,0.004,0.056,0.011,-0.011,-0.005,0.013,-0.01
-0.016,-0.037,-0.021,0.027,0.003,-0.029,0.059,-0.005,-0.041,-0.028,0.008,-0.01
-0.009,-0.043,-0.034,0.026,0.013,-0.038,0.06,-0.018,-0.057,-0.035,-0.001,-0.015
-0.012,-0.057,-0.045,0.035,0.017,-0.051,0.055,-0.039,-0.061,-0.035,-0.007,-0.015
-0.029,-0.071,-0.042,0.05,0.007,-0.056,0.05,-0.059,-0.059,-0.035,-0.015,-0.016
-0.032,-0.065,-0.033,0.049,0.001,-0.049,0.046,-0.059,-0.06,-0.035,-0.014,-0.022
-0.033,-0.061,-0.028,0.047,-0.002,-0.044,0.041,-0.052,-0.06,-0.035,-0.016,-0.029
-0.037,-0.057,-0.02,0.047,-0.008,-0.038,0.037,-0.054,-0.059,-0.037,-0.013,-0.036
-0.021,-0.037,-0.015,0.029,-0.003,-0.026,0.035,-0.043,-0.057,-0.044,-0.023,-0.043
-0.015,-0.024,-0.008,0.02,-0.003,-0.015,0.034,-0.051,-0.049,-0.051,-0.042,-0.049
-0.012,-0.006,0.006,0.009,-0.009,0.0,0.036,-0.067,-0.059,-0.052,-0.038,-0.054
0.005,0.035,0.03,-0.02,-0.013,0.032,0.01,-0.057,-0.107,-0.063,-0.047,-0.058
-0.003,0.045,0.048,-0.021,-0.026,0.046,-0.024,-0.092,-0.13,-0.069,-0.06,-0.063
-0.012,0.033,0.045,-0.011,-0.029,0.039,-0.025,-0.124,-0.129,-0.077,-0.063,-0.065
-0.007,0.028,0.036,-0.011,-0.022,0.032,-0.025,-0.125,-0.146,-0.09,-0.07,-0.065
-0.006,0.018,0.024,-0.006,-0.015,0.02,-0.022,-0.143,-0.161,-0.092,-0.07,-0.065
-0.004,0.013,0.018,-0.005,-0.011,0.015,-0.02,-0.157,-0.161,-0.095,-0.07,-0.065
-0.002,0.009,0.011,-0.004,-0.006,0.009,-0.018,-0.16,-0.158,-0.098,-0.07,-0.065
-0.008,0.007,0.015,0.0,-0.012,0.011,-0.029,-0.178,-0.169,-0.101,-0.072,-0.065
-0.029,0.004,0.034,0.012,-0.032,0.019,-0.048,-0.181,-0.181,-0.098,-0.079,-0.062
-0.02,-0.006,0.014,0.013,-0.017,0.004,-0.039,-0.175,-0.176,-0.091,-0.076,-0.059
-0.017,-0.01,0.007,0.013,-0.012,-0.001,-0.037,-0.155,-0.173,-0.087,-0.071,-0.056
-0.027,-0.02,0.007,0.023,-0.017,-0.006,-0.032,-0.115,-0.17,-0.081,-0.069,-0.053
0.0,0.0,0.0,0.0,0.0,0.0,-0.022,-0.116,-0.165,-0.075,-0.064,-0.051
0.007,0.043,0.036,-0.025,-0.015,0.039,0.001,-0.127,-0.161,-0.07,-0.061,-0.049
0.004,0.056,0.052,-0.03,-0.024,0.054,0.017,-0.099,-0.158,-0.078,-0.057,-0.043
0.019,0.088,0.068,-0.053,-0.025,0.078,-0.047,-0.105,-0.154,-0.084,-0.055,-0.037
0.02,0.128,0.108,-0.074,-0.044,0.118,-0.081,-0.122,-0.155,-0.087,-0.055,-0.032
0.024,0.123,0.099,-0.074,-0.038,0.111,-0.092,-0.104,-0.151,-0.089,-0.055,-0.027
0.047,0.113,0.066,-0.08,-0.01,0.089,-0.102,-0.106,-0.147,-0.093,-0.055,-0.02
0.03,0.081,0.051,-0.056,-0.011,0.066,-0.077,-0.125,-0.166,-0.096,-0.056,-0.032
-0.001,0.015,0.016,-0.007,-0.009,0.016,-0.078,-0.132,-0.18,-0.095,-0.07,-0.058
-0.004,-0.031,-0.027,0.018,0.012,-0.029,-0.066,-0.132,-0.195,-0.112,-0.091,-0.073
-0.051,-0.055,-0.005,0.053,-0.023,-0.03,-0.064,-0.175,-0.198,-0.125,-0.102,-0.087
-0.067,-0.085,-0.018,0.076,-0.024,-0.051,-0.066,-0.206,-0.229,-0.151,-0.122,-0.098
-0.035,-0.077,-0.042,0.056,0.003,-0.06,-0.059,-0.18,-0.186,-0.124,-0.111,-0.092
-0.045,-0.081,-0.036,0.063,-0.005,-0.058,-0.061,-0.194,-0.214,-0.144,-0.118,-0.1
-0.034,-0.082,-0.048,0.058,0.007,-0.065,-0.058,-0.161,-0.179,-0.12,-0.113,-0.098
-0.045,-0.074,-0.028,0.06,-0.009,-0.051,-0.045,-0.143,-0.188,-0.128,-0.114,-0.101
0.008,-0.131,-0.139,0.061,0.074,-0.135,0.005,0.0,-0.137,-0.107,-0.121,-0.099
0.038,-0.066,-0.104,0.014,0.071,-0.084,0.117,0.275,0.139,0.004,-0.095,-0.098
0.012,0.242,0.23,-0.127,-0.109,0.236,0.138,0.225,0.391,0.228,0.081,0.003
0.074,0.883,0.809,-0.479,-0.367,0.846,-0.153,-0.214,1.315,1.1,0.664,0.348
-0.159,0.872,1.03,-0.357,-0.595,0.951,-0.386,-1.256,0.167,0.48,0.53,0.351
-0.424,0.019,0.443,0.202,-0.434,0.231,-0.334,-1.824,-1.915,-0.987,-0.266,-0.036
-0.347,-0.337,0.01,0.342,-0.178,-0.163,-0.326,-1.4,-1.459,-0.872,-0.428,-0.205
-0.227,-0.406,-0.179,0.317,-0.024,-0.292,-0.328,-0.959,-0.942,-0.627,-0.387,-0.238
-0.111,-0.352,-0.241,0.232,0.065,-0.296,-0.204,-0.468,-0.562,-0.399,-0.291,-0.19
-0.025,-0.143,-0.118,0.084,0.046,-0.13,-0.072,-0.137,-0.156,-0.135,-0.145,-0.104
-0.014,-0.086,-0.072,0.05,0.03,-0.079,-0.043,-0.035,-0.098,-0.087,-0.101,-0.079
0.012,-0.044,-0.056,0.016,0.034,-0.05,-0.04,0.009,0.029,-0.016,-0.056,-0.059
0.045,-0.024,-0.069,-0.01,0.058,-0.046,-0.027,0.06,0.039,-0.001,-0.048,-0.053
0.071,0.0,-0.071,-0.035,0.07,-0.035,-0.02,0.108,0.109,0.045,-0.027,-0.044
0.078,0.029,-0.05,-0.053,0.064,-0.01,-0.013,0.101,0.124,0.053,-0.019,-0.036
0.085,0.05,-0.036,-0.067,0.06,0.007,-0.003,0.145,0.166,0.078,-0.007,-0.029
0.11,0.061,-0.049,-0.085,0.079,0.005,0.003,0.156,0.214,0.106,0.003,-0.017
0.108,0.058,-0.049,-0.083,0.079,0.004,-0.031,0.201,0.265,0.137,0.011,-0.006
0.108,0.066,-0.042,-0.086,0.075,0.011,-0.01,0.241,0.352,0.19,0.047,0.011
0.12,0.078,-0.042,-0.099,0.081,0.018,0.005,0.288,0.455,0.265,0.095,0.038
0.164,0.124,-0.04,-0.144,0.102,0.042,-0.019,0.348,0.572,0.34,0.132,0.059
0.224,0.176,-0.047,-0.2,0.135,0.064,-0.025,0.4,0.695,0.431,0.189,0.093
0.22,0.193,-0.026,-0.206,0.123,0.083,-0.033,0.459,0.81,0.529,0.257,0.138
0.24,0.229,-0.011,-0.234,0.126,0.108,-0.038,0.461,0.861,0.58,0.292,0.163
0.267,0.258,-0.009,-0.263,0.137,0.125,-0.044,0.455,0.859,0.594,0.311,0.172
0.206,0.248,0.042,-0.227,0.082,0.144,-0.034,0.419,0.805,0.569,0.307,0.164
0.174,0.244,0.07,-0.209,0.052,0.157,-0.043,0.388,0.667,0.479,0.261,0.139
0.135,0.205,0.07,-0.17,0.032,0.137,-0.001,0.317,0.477,0.35,0.185,0.102
0.096,0.138,0.042,-0.117,0.027,0.089,0.062,0.235,0.297,0.214,0.108,0.055
0.098,0.084,-0.014,-0.091,0.056,0.035,0.063,0.183,0.151,0.107,0.049,0.012
0.03,0.02,-0.01,-0.024,0.019,0.005,0.077,0.112,0.051,0.04,0.004,-0.016
0.017,-0.038,-0.055,0.011,0.036,-0.046,0.077,0.067,0.001,-0.008,-0.03,-0.037
0.042,-0.062,-0.103,0.01,0.073,-0.082,0.065,0.035,-0.025,-0.029,-0.047,-0.046
0.03,-0.058,-0.087,0.014,0.059,-0.072,0.064,0.001,-0.06,-0.039,-0.052,-0.044
0.025,-0.053,-0.079,0.014,0.052,-0.066,0.051,-0.048,-0.078,-0.051,-0.058,-0.048
0.027,-0.052,-0.079,0.013,0.053,-0.065,0.054,-0.056,-0.075,-0.057,-0.06,-0.05
0.036,-0.044,-0.081,0.004,0.059,-0.062,0.073,-0.056,-0.071,-0.056,-0.06,-0.05
0.024,-0.051,-0.074,0.013,0.05,-0.062,0.076,-0.031,-0.064,-0.054,-0.064,-0.053
0.029,-0.059,-0.088,0.015,0.059,-0.073,0.074,0.029,-0.061,-0.056,-0.066,-0.056
0.03,-0.047,-0.078,0.009,0.054,-0.062,0.071,0.008,-0.052,-0.054,-0.065,-0.054
0.032,-0.038,-0.069,0.003,0.051,-0.053,0.07,0.023,-0.054,-0.056,-0.07,-0.056
0.043,-0.028,-0.07,-0.007,0.057,-0.049,0.069,0.06,-0.065,-0.053,-0.069,-0.054
0.04,-0.024,-0.065,-0.008,0.053,-0.045,0.065,0.061,-0.065,-0.059,-0.069,-0.059
0.04,-0.026,-0.065,-0.006,0.053,-0.045,0.065,0.066,-0.066,-0.073,-0.081,-0.073
0.04,-0.024,-0.064,-0.008,0.053,-0.044,0.06,0.051,-0.064,-0.077,-0.088,-0.077
0.039,-0.027,-0.066,-0.006,0.053,-0.046,0.061,0.052,-0.075,-0.074,-0.087,-0.078
0.03,0.006,-0.024,-0.018,0.027,-0.009,0.054,-0.014,-0.094,-0.078,-0.096,-0.084
0.033,0.044,0.01,-0.039,0.011,0.026,0.041,-0.063,-0.122,-0.101,-0.115,-0.09
0.02,0.046,0.025,-0.033,-0.003,0.035,0.031,-0.051,-0.137,-0.105,-0.112,-0.085
0.018,0.044,0.026,-0.031,-0.005,0.035,0.029,-0.04,-0.127,-0.096,-0.103,-0.08
0.041,0.047,0.006,-0.044,0.017,0.026,0.042,-0.04,-0.121,-0.093,-0.098,-0.074
0.029,0.014,-0.015,-0.021,0.022,-0.001,0.038,-0.057,-0.114,-0.086,-0.09,-0.068
0.029,-0.032,-0.061,0.002,0.045,-0.046,0.043,-0.022,-0.108,-0.082,-0.086,-0.064
0.034,-0.031,-0.065,-0.001,0.05,-0.048,0.065,-0.029,-0.102,-0.074,-0.077,-0.058
0.041,0.01,-0.031,-0.025,0.036,-0.01,0.092,-0.012,-0.095,-0.061,-0.068,-0.052
0.063,0.016,-0.047,-0.04,0.055,-0.015,0.106,0.031,-0.089,-0.05,-0.056,-0.046
0.06,0.02,-0.039,-0.04,0.049,-0.009,0.057,0.005,-0.082,-0.042,-0.053,-0.048
0.059,0.09,0.031,-0.075,0.014,0.06,0.018,-0.048,-0.076,-0.037,-0.055,-0.051
0.043,0.09,0.047,-0.067,-0.002,0.068,0.01,-0.063,-0.07,-0.031,-0.055,-0.05
0.029,0.052,0.023,-0.041,0.003,0.037,-0.02,-0.068,-0.069,-0.025,-0.055,-0.055
0.03,0.03,0.0,-0.03,0.015,0.015,-0.022,-0.106,-0.079,-0.04,-0.056,-0.054
0.023,-0.017,-0.04,-0.003,0.032,-0.028,-0.01,-0.107,-0.114,-0.085,-0.083,-0.056
0.039,-0.039,-0.077,0.0,0.058,-0.058,-0.01,-0.096,-0.132,-0.102,-0.101,-0.063
0.011,-0.051,-0.063,0.02,0.037,-0.057,-0.012,-0.095,-0.125,-0.107,-0.108,-0.078
-0.009,-0.088,-0.079,0.049,0.035,-0.083,-0.004,-0.126,-0.156,-0.131,-0.121,-0.088
0.005,-0.09,-0.095,0.043,0.05,-0.092,-0.002,-0.127,-0.112,-0.097,-0.108,-0.082
0.003,-0.098,-0.101,0.047,0.053,-0.099,-0.003,-0.133,-0.153,-0.124,-0.122,-0.088
0.009,-0.095,-0.105,0.043,0.058,-0.099,0.015,-0.115,-0.102,-0.085,-0.109,-0.082
-0.006,-0.09,-0.084,0.048,0.039,-0.086,0.025,-0.089,-0.123,-0.111,-0.119,-0.088
0.064,-0.14,-0.204,0.038,0.134,-0.171,0.073,0.098,-0.004,-0.062,-0.105,-0.083
0.066,-0.065,-0.131,0.0,0.098,-0.098,0.181,0.357,0.232,0.033,-0.076,-0.081
0.055,0.289,0.233,-0.172,-0.089,0.261,0.165,0.235,0.549,0.347,0.148,0.055
0.114,0.915,0.801,-0.515,-0.344,0.858,-0.127,-0.274,1.346,1.157,0.716,0.394
-0.167,0.734,0.901,-0.284,-0.534,0.817,-0.307,-1.261,-0.206,0.239,0.415,0.319
-0.387,-0.107,0.28,0.247,-0.333,0.086,-0.279,-1.695,-1.944,-1.051,-0.335,-0.066
-0.281,-0.398,-0.117,0.34,-0.082,-0.257,-0.286,-1.21,-1.269,-0.79,-0.409,-0.186
-0.159,-0.5,-0.341,0.33,0.091,-0.42,-0.207,-0.729,-0.817,-0.565,-0.356,-0.184
-0.036,-0.451,-0.415,0.244,0.189,-0.432,-0.071,-0.262,-0.362,-0.28,-0.225,-0.128
0.027,-0.274,-0.301,0.123,0.164,-0.287,0.04,0.019,-0.019,-0.051,-0.085,-0.054
0.047,-0.204,-0.251,0.079,0.149,-0.228,0.07,0.094,0.059,0.009,-0.041,-0.027
0.057,-0.158,-0.215,0.05,0.136,-0.186,0.067,0.136,0.153,0.066,-0.011,-0.011
0.051,-0.16,-0.212,0.055,0.132,-0.186,0.075,0.138,0.147,0.065,-0.013,-0.009
0.068,-0.124,-0.192,0.028,0.13,-0.158,0.057,0.143,0.209,0.105,0.001,-0.006
0.098,-0.057,-0.155,-0.021,0.126,-0.105,0.053,0.147,0.196,0.094,0.002,-0.003
0.108,-0.022,-0.13,-0.043,0.119,-0.076,0.047,0.159,0.251,0.119,0.012,-0.001
0.113,-0.003,-0.116,-0.055,0.115,-0.059,0.044,0.158,0.299,0.146,0.027,0.002
0.135,0.022,-0.113,-0.078,0.124,-0.045,0.036,0.222,0.353,0.179,0.042,0.014
0.155,0.052,-0.102,-0.103,0.128,-0.025,0.028,0.268,0.428,0.226,0.065,0.029
0.166,0.064,-0.101,-0.115,0.133,-0.018,0.02,0.307,0.527,0.294,0.106,0.041
0.159,0.081,-0.078,-0.12,0.119,0.001,0.012,0.386,0.659,0.384,0.155,0.069
0.188,0.154,-0.035,-0.171,0.111,0.059,0.006,0.424,0.772,0.47,0.205,0.103
0.234,0.214,-0.02,-0.224,0.127,0.097,0.003,0.452,0.872,0.554,0.258,0.135
0.232,0.254,0.022,-0.243,0.105,0.138,-0.009,0.449,0.915,0.604,0.3,0.166
0.233,0.288,0.055,-0.261,0.089,0.172,-0.047,0.43,0.901,0.6,0.314,0.168
0.222,0.291,0.069,-0.257,0.076,0.179,-0.031,0.396,0.836,0.567,0.3,0.158
0.183,0.271,0.089,-0.228,0.047,0.18,0.006,0.35,0.685,0.467,0.25,0.14
0.132,0.205,0.074,-0.169,0.029,0.139,0.032,0.288,0.49,0.327,0.172,0.093
0.079,0.114,0.035,-0.097,0.022,0.074,0.064,0.209,0.309,0.202,0.092,0.043
0.049,0.047,-0.002,-0.048,0.025,0.022,0.075,0.147,0.183,0.103,0.031,0.004
0.047,-0.002,-0.049,-0.022,0.048,-0.026,0.081,0.109,0.096,0.047,0.002,-0.011
0.044,-0.047,-0.091,0.001,0.068,-0.069,0.08,0.076,0.039,0.014,-0.014,-0.021
0.016,-0.074,-0.09,0.029,0.053,-0.082,0.082,0.031,0.015,-0.002,-0.03,-0.033
0.004,-0.082,-0.086,0.039,0.045,-0.084,0.08,-0.005,0.005,-0.006,-0.047,-0.035
0.001,-0.084,-0.084,0.042,0.043,-0.084,0.08,-0.015,0.0,-0.012,-0.055,-0.035
-0.001,-0.094,-0.093,0.048,0.046,-0.093,0.078,-0.007,-0.008,-0.017,-0.055,-0.035
0.001,-0.101,-0.102,0.05,0.051,-0.101,0.074,0.002,-0.014,-0.023,-0.055,-0.035
-0.001,-0.095,-0.094,0.049,0.047,-0.095,0.075,0.045,-0.02,-0.026,-0.055,-0.035
0.001,-0.093,-0.094,0.046,0.047,-0.093,0.072,0.073,-0.015,-0.026,-0.055,-0.035
-0.001,-0.088,-0.087,0.045,0.043,-0.088,0.067,0.066,-0.01,-0.023,-0.058,-0.035
0.001,-0.085,-0.085,0.043,0.044,-0.085,0.065,0.061,-0.007,-0.02,-0.06,-0.035
-0.001,-0.089,-0.088,0.045,0.044,-0.088,0.06,0.065,-0.001,-0.017,-0.06,-0.035
-0.01,-0.096,-0.086,0.053,0.039,-0.091,0.057,0.071,0.002,-0.014,-0.06,-0.035
-0.009,-0.102,-0.092,0.056,0.041,-0.097,0.054,0.059,0.005,-0.021,-0.06,-0.036
0.006,-0.105,-0.111,0.05,0.059,-0.107,0.044,0.045,0.004,-0.029,-0.06,-0.039
0.021,-0.108,-0.129,0.044,0.075,-0.119,0.062,0.033,-0.004,-0.038,-0.055,-0.044
0.02,-0.112,-0.132,0.046,0.076,-0.121,0.075,0.018,-0.017,-0.044,-0.055,-0.043
0.012,-0.115,-0.128,0.051,0.071,-0.121,0.059,0.007,-0.025,-0.04,-0.054,-0.039
0.024,-0.111,-0.136,0.044,0.08,-0.123,0.055,-0.001,-0.025,-0.04,-0.049,-0.04
0.035,-0.11,-0.145,0.038,0.09,-0.127,0.044,-0.017,-0.025,-0.04,-0.051,-0.04
0.028,-0.11,-0.138,0.041,0.083,-0.124,0.042,-0.011,-0.025,-0.04,-0.049,-0.04
0.029,-0.105,-0.135,0.038,0.083,-0.12,0.07,-0.039,-0.024,-0.041,-0.051,-0.039
0.021,-0.105,-0.127,0.042,0.075,-0.116,0.076,-0.053,-0.038,-0.035,-0.06,-0.036
0.019,-0.104,-0.124,0.043,0.072,-0.114,0.076,-0.07,-0.038,-0.025,-0.055,-0.033
0.025,-0.096,-0.121,0.036,0.073,-0.108,0.081,-0.056,-0.02,-0.015,-0.046,-0.031
0.038,-0.088,-0.127,0.025,0.083,-0.107,0.082,0.011,-0.01,-0.004,-0.038,-0.027
0.039,-0.085,-0.124,0.023,0.082,-0.104,0.087,-0.016,-0.01,0.001,-0.03,-0.025
0.037,-0.051,-0.088,0.007,0.063,-0.069,0.054,-0.004,-0.008,0.007,-0.025,-0.022
0.059,0.013,-0.046,-0.036,0.053,-0.017,0.002,-0.037,-0.007,0.011,-0.025,-0.013
0.027,0.036,0.009,-0.032,0.009,0.023,-0.013,-0.098,-0.004,0.014,-0.025,-0.002
0.055,0.025,-0.03,-0.04,0.042,-0.003,-0.017,-0.079,-0.006,0.022,-0.025,0.007
0.082,-0.001,-0.084,-0.04,0.083,-0.042,-0.018,-0.086,-0.013,0.003,-0.025,0.0
0.028,-0.058,-0.086,0.016,0.057,-0.072,0.0,-0.101,-0.026,-0.031,-0.033,-0.016
0.016,-0.113,-0.129,0.049,0.072,-0.12,0.02,-0.092,-0.067,-0.056,-0.061,-0.028
0.0,-0.127,-0.127,0.064,0.064,-0.127,0.016,-0.108,-0.054,-0.059,-0.07,-0.045
0.003,-0.136,-0.139,0.067,0.071,-0.137,0.005,-0.153,-0.088,-0.084,-0.08,-0.066
0.004,-0.131,-0.134,0.064,0.069,-0.132,0.003,-0.14,-0.063,-0.067,-0.078,-0.064
-0.016,-0.122,-0.106,0.069,0.046,-0.114,-0.011,-0.145,-0.074,-0.08,-0.086,-0.066
-0.006,-0.131,-0.125,0.069,0.06,-0.128,-0.01,-0.121,-0.07,-0.075,-0.083,-0.064
-0.027,-0.104,-0.077,0.065,0.025,-0.09,-0.008,-0.103,-0.044,-0.069,-0.075,-0.065
0.021,-0.171,-0.192,0.075,0.107,-0.181,0.026,0.019,-0.033,-0.071,-0.09,-0.066
0.054,-0.163,-0.217,0.055,0.136,-0.19,0.13,0.263,0.265,0.061,-0.06,-0.062
0.043,0.123,0.08,-0.083,-0.019,0.101,0.179,0.308,0.443,0.208,0.059,0.003
0.12,0.751,0.631,-0.436,-0.255,0.69,-0.053,-0.027,1.349,1.059,0.627,0.339
-0.07,0.922,0.992,-0.427,-0.531,0.957,-0.391,-1.078,0.654,0.794,0.684,0.446
-0.356,0.097,0.453,0.129,-0.404,0.275,-0.375,-1.798,-1.619,-0.775,-0.109,0.082
-0.342,-0.402,-0.06,0.372,-0.141,-0.231,-0.291,-1.467,-1.473,-0.885,-0.399,-0.15
-0.208,-0.447,-0.24,0.327,0.016,-0.343,-0.319,-0.988,-0.844,-0.573,-0.363,-0.184
-0.076,-0.412,-0.337,0.244,0.131,-0.375,-0.199,-0.479,-0.492,-0.373,-0.265,-0.148
0.004,-0.195,-0.199,0.096,0.102,-0.197,-0.054,-0.119,-0.037,-0.087,-0.115,-0.083
0.03,-0.115,-0.144,0.042,0.087,-0.129,-0.003,-0.006,0.047,-0.02,-0.071,-0.047
0.03,-0.087,-0.117,0.029,0.074,-0.101,0.004,0.059,0.171,0.061,-0.024,-0.028
0.051,-0.058,-0.109,0.004,0.08,-0.083,0.013,0.04,0.162,0.062,-0.025,-0.021
0.067,-0.043,-0.11,-0.012,0.088,-0.076,0.019,0.105,0.228,0.101,-0.011,-0.014
0.063,-0.036,-0.099,-0.013,0.081,-0.067,0.025,0.163,0.24,0.107,-0.004,-0.008
0.084,-0.017,-0.101,-0.034,0.093,-0.058,0.033,0.205,0.278,0.126,0.011,-0.001
0.097,0.007,-0.091,-0.052,0.094,-0.042,0.033,0.223,0.338,0.159,0.034,0.005
0.098,0.015,-0.082,-0.057,0.09,-0.033,0.029,0.207,0.383,0.19,0.055,0.016
0.101,0.037,-0.065,-0.069,0.083,-0.014,0.031,0.301,0.453,0.233,0.071,0.03
0.127,0.067,-0.06,-0.097,0.093,0.003,0.025,0.34,0.532,0.285,0.093,0.044
0.169,0.109,-0.06,-0.139,0.114,0.024,0.026,0.392,0.662,0.373,0.148,0.067
0.198,0.14,-0.058,-0.169,0.128,0.04,0.024,0.481,0.793,0.469,0.207,0.108
0.2,0.174,-0.026,-0.187,0.113,0.074,0.015,0.506,0.909,0.561,0.268,0.146
0.214,0.221,0.007,-0.218,0.103,0.114,-0.004,0.508,0.97,0.616,0.314,0.177
0.24,0.268,0.027,-0.254,0.106,0.147,-0.023,0.492,0.999,0.646,0.338,0.184
0.223,0.286,0.064,-0.255,0.079,0.175,0.013,0.484,0.952,0.636,0.331,0.172
0.198,0.265,0.066,-0.232,0.066,0.165,0.008,0.391,0.809,0.546,0.298,0.158
0.152,0.206,0.054,-0.179,0.049,0.13,0.015,0.28,0.625,0.413,0.23,0.119
0.086,0.131,0.045,-0.109,0.02,0.088,0.059,0.195,0.442,0.283,0.146,0.07
0.057,0.068,0.01,-0.063,0.023,0.039,0.063,0.093,0.284,0.168,0.081,0.031
0.039,0.012,-0.027,-0.025,0.033,-0.008,0.07,0.02,0.178,0.097,0.033,0.008
0.018,-0.033,-0.051,0.008,0.035,-0.042,0.07,-0.022,0.124,0.055,0.005,-0.007
0.013,-0.044,-0.057,0.016,0.035,-0.051,0.069,-0.047,0.082,0.029,-0.004,-0.02
-0.003,-0.064,-0.061,0.034,0.029,-0.063,0.072,-0.082,0.056,0.023,-0.012,-0.025
0.007,-0.051,-0.058,0.022,0.033,-0.054,0.066,-0.119,0.044,0.014,-0.021,-0.031
-0.001,-0.056,-0.055,0.029,0.028,-0.055,0.06,-0.136,0.034,0.006,-0.027,-0.037
0.012,-0.04,-0.052,0.015,0.032,-0.045,0.049,-0.127,0.03,-0.001,-0.034,-0.04
