0.379,0.483,0.104,-0.431,0.137,0.293,-0.607,-0.414,0.837,1.099,0.921,0.706
0.03,0.084,0.053,-0.057,-0.011,0.069,-0.587,-0.824,-0.457,-0.068,0.177,0.29
-0.299,-0.367,-0.068,0.333,-0.115,-0.217,-0.468,-0.764,-1.088,-0.767,-0.387,-0.158
-0.252,-0.401,-0.149,0.327,-0.051,-0.275,-0.325,-0.334,-0.549,-0.409,-0.255,-0.202
-0.194,-0.344,-0.15,0.269,-0.022,-0.247,-0.111,-0.001,-0.313,-0.276,-0.203,-0.204
-0.175,-0.291,-0.117,0.233,-0.029,-0.204,-0.078,0.001,-0.192,-0.191,-0.155,-0.162
-0.165,-0.275,-0.11,0.22,-0.027,-0.192,-0.074,-0.017,-0.156,-0.163,-0.135,-0.141
-0.167,-0.268,-0.1,0.218,-0.033,-0.183,-0.061,0.0,-0.136,-0.146,-0.127,-0.139
-0.155,-0.25,-0.094,0.203,-0.03,-0.172,-0.068,0.013,-0.103,-0.118,-0.103,-0.131
-0.161,-0.244,-0.084,0.203,-0.038,-0.164,-0.054,0.041,-0.103,-0.126,-0.108,-0.14
-0.138,-0.222,-0.084,0.18,-0.026,-0.153,-0.059,0.054,-0.05,-0.083,-0.085,-0.132
-0.108,-0.204,-0.096,0.156,-0.005,-0.15,-0.049,0.076,-0.042,-0.081,-0.085,-0.134
-0.094,-0.19,-0.095,0.142,0.001,-0.142,-0.048,0.106,0.004,-0.05,-0.069,-0.118
-0.062,-0.182,-0.121,0.122,0.03,-0.151,-0.039,0.143,0.031,-0.034,-0.056,-0.111
-0.047,-0.175,-0.128,0.111,0.041,-0.151,-0.037,0.174,0.061,-0.004,-0.033,-0.1
-0.033,-0.155,-0.123,0.095,0.045,-0.138,-0.061,0.231,0.111,0.034,0.003,-0.09
0.01,-0.117,-0.127,0.054,0.069,-0.122,-0.066,0.297,0.152,0.076,0.02,-0.082
0.03,-0.093,-0.123,0.032,0.077,-0.108,-0.057,0.37,0.208,0.125,0.048,-0.06
0.063,-0.066,-0.129,0.002,0.096,-0.097,-0.043,0.445,0.271,0.188,0.105,-0.024
0.124,-0.025,-0.149,-0.049,0.137,-0.087,-0.03,0.505,0.324,0.242,0.143,0.007
0.154,0.009,-0.145,-0.081,0.15,-0.068,-0.021,0.556,0.369,0.273,0.171,0.023
0.169,0.029,-0.139,-0.099,0.154,-0.055,-0.008,0.563,0.375,0.298,0.193,0.059
0.179,0.047,-0.133,-0.112,0.156,-0.043,-0.018,0.543,0.361,0.299,0.215,0.081
0.162,0.059,-0.104,-0.11,0.133,-0.022,-0.051,0.482,0.34,0.295,0.225,0.066
0.142,0.047,-0.095,-0.094,0.119,-0.024,-0.082,0.378,0.286,0.261,0.196,0.06
0.108,0.026,-0.082,-0.067,0.095,-0.027,-0.091,0.267,0.208,0.184,0.146,0.04
0.031,-0.018,-0.048,-0.007,0.04,-0.033,-0.09,0.165,0.134,0.107,0.088,0.002
-0.055,-0.073,-0.018,0.064,-0.018,-0.045,-0.096,0.087,0.054,0.029,0.029,-0.05
-0.074,-0.107,-0.033,0.091,-0.02,-0.07,-0.094,0.029,-0.011,-0.021,-0.017,-0.083
-0.067,-0.131,-0.063,0.099,-0.002,-0.097,-0.09,-0.005,-0.048,-0.044,-0.035,-0.099
-0.086,-0.145,-0.059,0.116,-0.013,-0.102,-0.087,-0.028,-0.063,-0.064,-0.046,-0.117
-0.09,-0.15,-0.06,0.12,-0.015,-0.105,-0.083,-0.031,-0.069,-0.071,-0.056,-0.114
-0.095,-0.15,-0.056,0.123,-0.02,-0.103,-0.081,-0.029,-0.072,-0.071,-0.055,-0.115
-0.094,-0.149,-0.055,0.122,-0.02,-0.101,-0.074,-0.031,-0.069,-0.07,-0.055,-0.116
-0.092,-0.146,-0.054,0.119,-0.018,-0.1,-0.079,-0.029,-0.07,-0.068,-0.055,-0.114
-0.095,-0.144,-0.049,0.119,-0.022,-0.096,-0.091,-0.031,-0.065,-0.065,-0.055,-0.116
-0.098,-0.147,-0.048,0.123,-0.025,-0.097,-0.09,-0.034,-0.065,-0.064,-0.055,-0.114
-0.106,-0.15,-0.044,0.129,-0.031,-0.097,-0.09,-0.037,-0.065,-0.069,-0.057,-0.117
-0.108,-0.15,-0.042,0.129,-0.033,-0.096,-0.09,-0.039,-0.065,-0.082,-0.063,-0.129
-0.113,-0.152,-0.039,0.133,-0.037,-0.096,-0.09,-0.044,-0.064,-0.086,-0.065,-0.136
-0.115,-0.156,-0.041,0.135,-0.037,-0.098,-0.087,-0.061,-0.073,-0.089,-0.068,-0.135
-0.116,-0.155,-0.039,0.135,-0.038,-0.096,-0.074,-0.073,-0.089,-0.093,-0.071,-0.135
-0.116,-0.159,-0.043,0.137,-0.036,-0.101,-0.063,-0.076,-0.096,-0.095,-0.075,-0.135
-0.106,-0.16,-0.055,0.133,-0.025,-0.107,-0.06,-0.084,-0.101,-0.1,-0.075,-0.135
-0.104,-0.16,-0.055,0.133,-0.024,-0.107,-0.06,-0.091,-0.11,-0.104,-0.079,-0.131
-0.113,-0.165,-0.052,0.139,-0.03,-0.108,-0.06,-0.098,-0.115,-0.109,-0.08,-0.129
-0.115,-0.164,-0.05,0.139,-0.032,-0.106,-0.059,-0.109,-0.114,-0.112,-0.081,-0.126
-0.12,-0.167,-0.047,0.143,-0.036,-0.106,-0.066,-0.106,-0.129,-0.12,-0.089,-0.123
-0.126,-0.17,-0.044,0.149,-0.041,-0.106,-0.092,-0.125,-0.137,-0.124,-0.09,-0.12
-0.129,-0.17,-0.041,0.149,-0.044,-0.105,-0.089,-0.138,-0.134,-0.12,-0.09,-0.118
-0.133,-0.173,-0.039,0.153,-0.047,-0.106,-0.091,-0.131,-0.136,-0.113,-0.09,-0.127
-0.128,-0.175,-0.047,0.152,-0.04,-0.11,-0.101,-0.131,-0.135,-0.109,-0.091,-0.127
-0.129,-0.177,-0.048,0.153,-0.04,-0.112,-0.072,-0.126,-0.136,-0.103,-0.089,-0.121
-0.12,-0.157,-0.037,0.139,-0.041,-0.097,-0.064,-0.125,-0.129,-0.098,-0.082,-0.116
-0.087,-0.118,-0.031,0.102,-0.028,-0.074,-0.054,-0.121,-0.12,-0.092,-0.071,-0.11
-0.067,-0.091,-0.023,0.079,-0.022,-0.057,-0.056,-0.113,-0.109,-0.081,-0.065,-0.105
-0.064,-0.065,-0.001,0.065,-0.032,-0.033,-0.027,-0.11,-0.087,-0.074,-0.044,-0.094
-0.05,-0.007,0.043,0.028,-0.047,0.018,-0.005,-0.105,-0.083,-0.048,-0.008,-0.069
-0.014,0.041,0.055,-0.013,-0.035,0.048,-0.085,-0.103,-0.089,-0.026,-0.009,-0.045
0.006,0.047,0.041,-0.027,-0.018,0.044,-0.109,-0.098,-0.088,-0.015,-0.017,-0.037
-0.012,0.008,0.02,0.001,-0.016,0.014,-0.09,-0.095,-0.098,-0.041,-0.028,-0.054
-0.063,-0.074,-0.011,0.069,-0.026,-0.042,-0.096,-0.09,-0.088,-0.073,-0.048,-0.081
-0.1,-0.138,-0.038,0.119,-0.031,-0.088,-0.08,-0.108,-0.129,-0.113,-0.083,-0.112
-0.104,-0.154,-0.049,0.129,-0.027,-0.101,-0.084,-0.146,-0.171,-0.153,-0.111,-0.131
-0.123,-0.182,-0.059,0.152,-0.032,-0.12,-0.113,-0.137,-0.159,-0.152,-0.122,-0.144
-0.119,-0.186,-0.067,0.153,-0.026,-0.126,-0.118,-0.15,-0.184,-0.163,-0.13,-0.134
-0.117,-0.199,-0.083,0.158,-0.017,-0.14,-0.08,-0.134,-0.152,-0.142,-0.115,-0.123
-0.138,-0.207,-0.068,0.173,-0.035,-0.137,-0.076,-0.144,-0.193,-0.174,-0.129,-0.16
-0.138,-0.202,-0.064,0.17,-0.037,-0.132,-0.065,-0.124,-0.155,-0.141,-0.117,-0.166
-0.19,-0.29,-0.1,0.24,-0.045,-0.195,0.065,0.005,-0.206,-0.261,-0.218,-0.238
-0.202,-0.206,-0.003,0.204,-0.099,-0.104,0.116,0.06,-0.09,-0.181,-0.171,-0.204
0.067,0.001,-0.066,-0.034,0.067,-0.033,0.091,0.411,0.437,0.345,0.194,0.028
0.559,0.578,0.018,-0.569,0.27,0.298,-0.127,0.618,1.302,1.274,0.936,0.547
0.613,0.929,0.316,-0.771,0.148,0.622,-0.457,-0.039,1.55,1.694,1.331,0.915
0.075,0.255,0.18,-0.166,-0.052,0.218,-0.457,-0.726,-0.197,0.148,0.313,0.374
-0.267,-0.255,0.012,0.261,-0.14,-0.121,-0.397,-0.714,-1.107,-0.775,-0.395,-0.148
-0.209,-0.303,-0.094,0.257,-0.057,-0.198,-0.291,-0.322,-0.559,-0.424,-0.28,-0.214
-0.115,-0.277,-0.162,0.197,0.024,-0.22,-0.049,-0.005,-0.338,-0.311,-0.249,-0.213
-0.112,-0.222,-0.109,0.167,-0.001,-0.165,0.034,0.024,-0.175,-0.164,-0.155,-0.181
-0.113,-0.216,-0.103,0.165,-0.005,-0.159,0.027,-0.035,-0.181,-0.176,-0.156,-0.194
-0.111,-0.191,-0.081,0.151,-0.015,-0.136,0.032,-0.012,-0.121,-0.141,-0.146,-0.189
-0.102,-0.187,-0.085,0.145,-0.008,-0.136,0.025,-0.006,-0.091,-0.125,-0.136,-0.183
-0.075,-0.169,-0.094,0.122,0.01,-0.131,0.025,0.013,-0.079,-0.114,-0.121,-0.146
-0.065,-0.156,-0.091,0.111,0.013,-0.123,0.026,0.029,-0.045,-0.079,-0.097,-0.137
-0.055,-0.145,-0.09,0.1,0.018,-0.118,0.029,0.05,-0.035,-0.07,-0.097,-0.139
-0.052,-0.135,-0.083,0.094,0.016,-0.109,0.035,0.073,0.017,-0.037,-0.078,-0.119
-0.045,-0.129,-0.083,0.087,0.019,-0.106,0.033,0.108,0.038,-0.035,-0.065,-0.115
-0.041,-0.117,-0.076,0.079,0.018,-0.096,0.03,0.16,0.088,0.01,-0.036,-0.102
-0.023,-0.096,-0.074,0.06,0.026,-0.085,0.031,0.206,0.123,0.032,-0.01,-0.097
0.025,-0.067,-0.092,0.021,0.059,-0.08,0.028,0.268,0.175,0.074,0.014,-0.081
0.053,-0.047,-0.101,-0.003,0.077,-0.074,0.044,0.333,0.237,0.131,0.037,-0.047
0.1,-0.009,-0.109,-0.045,0.105,-0.059,0.051,0.411,0.305,0.189,0.091,-0.003
0.137,0.026,-0.111,-0.081,0.124,-0.043,0.052,0.472,0.371,0.254,0.133,0.029
0.152,0.05,-0.101,-0.101,0.126,-0.025,0.064,0.506,0.4,0.287,0.165,0.041
0.181,0.084,-0.097,-0.133,0.139,-0.006,0.056,0.53,0.421,0.319,0.196,0.053
0.195,0.108,-0.086,-0.151,0.14,0.011,0.047,0.514,0.424,0.329,0.207,0.082
0.193,0.114,-0.079,-0.153,0.136,0.017,0.038,0.463,0.403,0.33,0.208,0.103
0.172,0.11,-0.062,-0.141,0.117,0.024,0.028,0.379,0.35,0.304,0.199,0.088
0.128,0.09,-0.038,-0.109,0.083,0.026,-0.004,0.268,0.269,0.236,0.176,0.047
0.043,0.046,0.004,-0.045,0.019,0.025,-0.042,0.165,0.181,0.147,0.102,-0.003
-0.014,0.009,0.023,0.002,-0.019,0.016,-0.046,0.094,0.101,0.064,0.031,-0.042
-0.039,-0.02,0.019,0.03,-0.029,0.0,-0.036,0.048,0.051,0.017,-0.009,-0.085
-0.062,-0.058,0.003,0.06,-0.032,-0.027,-0.052,0.028,0.013,-0.018,-0.032,-0.103
-0.039,-0.088,-0.05,0.064,0.006,-0.069,-0.065,0.021,-0.01,-0.043,-0.042,-0.098
-0.045,-0.096,-0.051,0.071,0.004,-0.073,-0.057,0.01,-0.014,-0.058,-0.054,-0.102
-0.049,-0.095,-0.046,0.072,-0.001,-0.07,-0.052,-0.002,-0.022,-0.064,-0.054,-0.098
-0.038,-0.093,-0.054,0.066,0.008,-0.073,-0.047,-0.021,-0.024,-0.063,-0.059,-0.117
-0.046,-0.089,-0.043,0.068,-0.002,-0.066,-0.041,-0.031,-0.02,-0.061,-0.066,-0.13
-0.044,-0.09,-0.047,0.067,0.001,-0.068,-0.036,-0.048,-0.02,-0.057,-0.058,-0.116
-0.082,-0.086,-0.004,0.084,-0.039,-0.045,-0.053,-0.067,-0.018,-0.056,-0.055,-0.108
-0.085,-0.081,0.004,0.083,-0.045,-0.038,-0.063,-0.069,-0.015,-0.051,-0.051,-0.097
-0.033,-0.076,-0.044,0.055,0.006,-0.06,-0.055,-0.07,-0.015,-0.05,-0.043,-0.087
-0.034,-0.073,-0.039,0.054,0.002,-0.056,-0.055,-0.071,-0.022,-0.058,-0.062,-0.107
-0.061,-0.067,-0.005,0.064,-0.028,-0.036,-0.05,-0.069,-0.031,-0.061,-0.083,-0.116
-0.06,-0.066,-0.006,0.063,-0.027,-0.036,-0.046,-0.074,-0.03,-0.058,-0.078,-0.104
-0.037,-0.079,-0.042,0.058,0.002,-0.06,-0.043,-0.097,-0.029,-0.052,-0.075,-0.111
-0.033,-0.08,-0.047,0.057,0.007,-0.063,-0.039,-0.113,-0.042,-0.077,-0.073,-0.118
-0.039,-0.082,-0.043,0.061,0.002,-0.062,-0.04,-0.108,-0.052,-0.098,-0.069,-0.115
-0.043,-0.086,-0.043,0.064,0.001,-0.064,-0.036,-0.097,-0.05,-0.094,-0.073,-0.115
-0.046,-0.084,-0.038,0.065,-0.003,-0.061,-0.034,-0.084,-0.049,-0.096,-0.082,-0.114
-0.045,-0.085,-0.04,0.065,-0.002,-0.062,-0.037,-0.059,-0.058,-0.095,-0.086,-0.116
-0.036,-0.085,-0.049,0.061,0.007,-0.066,-0.024,-0.048,-0.066,-0.095,-0.084,-0.114
-0.034,-0.085,-0.051,0.06,0.009,-0.068,-0.04,-0.05,-0.06,-0.091,-0.086,-0.11
-0.044,-0.085,-0.041,0.065,-0.001,-0.063,-0.063,-0.051,-0.058,-0.087,-0.084,-0.094
-0.035,-0.085,-0.05,0.061,0.008,-0.068,-0.058,-0.054,-0.054,-0.083,-0.087,-0.091
-0.049,-0.074,-0.025,0.061,-0.012,-0.049,-0.061,-0.055,-0.05,-0.079,-0.088,-0.119
-0.073,-0.036,0.037,0.054,-0.055,0.001,-0.059,-0.054,-0.044,-0.072,-0.067,-0.114
-0.062,-0.021,0.041,0.041,-0.051,0.01,-0.061,-0.041,-0.03,-0.064,-0.058,-0.092
-0.025,0.013,0.038,0.006,-0.032,0.025,-0.053,-0.039,-0.02,-0.034,-0.038,-0.072
0.005,0.089,0.084,-0.047,-0.04,0.086,-0.056,-0.039,0.01,0.012,0.006,-0.054
0.01,0.108,0.098,-0.059,-0.044,0.103,-0.087,-0.042,0.035,0.012,0.015,-0.056
0.023,0.101,0.078,-0.063,-0.027,0.089,-0.101,-0.037,0.029,0.008,0.013,-0.061
0.019,0.072,0.054,-0.045,-0.018,0.063,-0.106,-0.068,0.005,-0.008,0.001,-0.064
-0.026,-0.005,0.021,0.015,-0.023,0.008,-0.101,-0.133,-0.01,-0.026,-0.026,-0.074
-0.07,-0.076,-0.006,0.073,-0.031,-0.041,-0.09,-0.174,-0.058,-0.079,-0.068,-0.103
-0.073,-0.083,-0.01,0.079,-0.031,-0.046,-0.089,-0.218,-0.091,-0.119,-0.101,-0.122
-0.077,-0.111,-0.034,0.095,-0.022,-0.073,-0.075,-0.21,-0.085,-0.122,-0.115,-0.127
-0.06,-0.128,-0.068,0.094,0.004,-0.098,-0.077,-0.216,-0.099,-0.143,-0.112,-0.123
-0.054,-0.139,-0.085,0.096,0.016,-0.112,-0.063,-0.201,-0.069,-0.123,-0.105,-0.127
-0.098,-0.133,-0.036,0.116,-0.031,-0.084,-0.066,-0.21,-0.107,-0.137,-0.111,-0.123
-0.083,-0.136,-0.053,0.11,-0.014,-0.095,-0.031,-0.177,-0.078,-0.12,-0.111,-0.138
-0.12,-0.23,-0.111,0.175,-0.004,-0.17,0.103,-0.056,-0.142,-0.243,-0.22,-0.191
-0.13,-0.121,0.009,0.126,-0.069,-0.056,0.143,0.015,0.012,-0.105,-0.125,-0.147
0.142,0.13,-0.012,-0.136,0.077,0.059,0.15,0.403,0.628,0.486,0.285,0.073
0.598,0.755,0.157,-0.677,0.22,0.456,-0.102,0.525,1.581,1.514,1.09,0.678
0.569,0.999,0.43,-0.784,0.069,0.714,-0.488,-0.215,1.537,1.694,1.343,0.921
0.014,0.249,0.235,-0.132,-0.111,0.241,-0.451,-0.79,-0.376,-0.03,0.185,0.279
-0.223,-0.199,0.024,0.211,-0.124,-0.087,-0.281,-0.619,-1.018,-0.751,-0.414,-0.161
-0.143,-0.231,-0.089,0.187,-0.027,-0.16,-0.159,-0.215,-0.436,-0.372,-0.262,-0.183
-0.089,-0.212,-0.123,0.151,0.017,-0.167,0.004,0.016,-0.262,-0.286,-0.244,-0.171
-0.071,-0.158,-0.087,0.115,0.008,-0.122,0.065,0.006,-0.091,-0.142,-0.156,-0.156
-0.064,-0.15,-0.086,0.107,0.011,-0.118,0.037,-0.041,-0.104,-0.16,-0.16,-0.157
-0.058,-0.125,-0.067,0.092,0.005,-0.096,0.029,-0.023,-0.053,-0.121,-0.134,-0.14
-0.042,-0.12,-0.078,0.081,0.018,-0.098,0.038,-0.026,-0.032,-0.101,-0.126,-0.137
-0.035,-0.1,-0.065,0.067,0.016,-0.082,0.046,-0.015,0.002,-0.073,-0.111,-0.125
-0.046,-0.089,-0.043,0.068,-0.002,-0.066,0.039,-0.004,0.034,-0.045,-0.073,-0.118
-0.02,-0.075,-0.056,0.048,0.018,-0.065,0.034,0.015,0.046,-0.029,-0.06,-0.108
0.003,-0.063,-0.066,0.031,0.034,-0.064,0.053,0.069,0.089,-0.006,-0.051,-0.096
0.011,-0.052,-0.063,0.021,0.038,-0.057,0.054,0.118,0.115,0.001,-0.042,-0.082
0.023,-0.036,-0.059,0.006,0.041,-0.047,0.063,0.145,0.174,0.06,-0.026,-0.068
0.033,-0.024,-0.057,-0.004,0.045,-0.04,0.079,0.188,0.209,0.08,-0.007,-0.053
0.057,0.003,-0.055,-0.029,0.056,-0.026,0.089,0.256,0.271,0.121,0.037,-0.032
0.083,0.033,-0.05,-0.058,0.066,-0.008,0.089,0.324,0.331,0.181,0.067,-0.019
0.135,0.068,-0.067,-0.102,0.101,0.001,0.098,0.378,0.397,0.237,0.112,0.017
0.185,0.11,-0.074,-0.147,0.129,0.018,0.116,0.432,0.462,0.305,0.166,0.052
0.194,0.133,-0.062,-0.163,0.128,0.035,0.105,0.474,0.497,0.335,0.192,0.083
0.217,0.157,-0.06,-0.186,0.138,0.048,0.098,0.481,0.515,0.362,0.221,0.117
0.246,0.198,-0.048,-0.221,0.147,0.075,0.095,0.448,0.519,0.386,0.242,0.121
0.235,0.215,-0.021,-0.225,0.128,0.097,0.074,0.394,0.498,0.372,0.236,0.123
0.204,0.202,-0.002,-0.203,0.103,0.1,0.037,0.322,0.43,0.337,0.224,0.119
0.163,0.163,0.0,-0.163,0.081,0.081,0.022,0.212,0.333,0.261,0.175,0.098
0.095,0.108,0.013,-0.102,0.04,0.06,0.02,0.12,0.232,0.164,0.1,0.077
0.034,0.064,0.031,-0.049,0.002,0.047,0.014,0.059,0.165,0.092,0.046,0.0
0.004,0.029,0.025,-0.017,-0.011,0.026,0.011,0.006,0.116,0.04,-0.002,-0.052
-0.006,0.011,0.017,-0.002,-0.012,0.013,0.005,-0.017,0.074,0.001,-0.029,-0.044
-0.013,-0.001,0.012,0.006,-0.012,0.006,0.009,-0.032,0.042,-0.023,-0.045,-0.073
-0.02,-0.023,-0.003,0.022,-0.008,-0.013,0.011,-0.045,0.033,-0.027,-0.051,-0.084
-0.023,-0.036,-0.013,0.03,-0.005,-0.024,0.009,-0.044,0.036,-0.022,-0.049,-0.078
-0.026,-0.033,-0.007,0.029,-0.009,-0.019,0.012,-0.046,0.035,-0.019,-0.05,-0.078
-0.024,-0.027,-0.004,0.026,-0.01,-0.015,0.015,-0.049,0.041,-0.016,-0.05,-0.073
-0.025,-0.024,0.001,0.024,-0.013,-0.011,0.015,-0.051,0.04,-0.011,-0.05,-0.071
-0.025,-0.019,0.006,0.021,-0.015,-0.006,0.017,-0.048,0.038,-0.011,-0.05,-0.07
-0.009,-0.014,-0.006,0.012,-0.001,-0.01,0.02,-0.045,0.03,-0.02,-0.05,-0.075
-0.013,-0.026,-0.013,0.019,0.0,-0.019,0.02,-0.045,0.025,-0.029,-0.05,-0.075
-0.027,-0.033,-0.006,0.03,-0.01,-0.019,0.016,-0.046,0.016,-0.036,-0.05,-0.075
-0.031,-0.03,0.001,0.03,-0.016,-0.014,0.01,-0.044,0.013,-0.04,-0.049,-0.075
-0.037,-0.03,0.007,0.033,-0.022,-0.011,0.005,-0.053,0.021,-0.04,-0.052,-0.075
-0.044,-0.03,0.014,0.037,-0.029,-0.008,-0.001,-0.076,0.006,-0.04,-0.063,-0.075
-0.038,-0.03,0.009,0.034,-0.024,-0.01,-0.006,-0.085,-0.01,-0.045,-0.07,-0.075
-0.022,-0.03,-0.009,0.026,-0.007,-0.019,-0.011,-0.089,-0.02,-0.054,-0.075,-0.075
-0.022,-0.035,-0.013,0.029,-0.004,-0.024,-0.009,-0.102,-0.029,-0.062,-0.082,-0.075
-0.033,-0.034,-0.001,0.034,-0.015,-0.018,-0.022,-0.112,-0.038,-0.064,-0.085,-0.076
-0.045,-0.037,0.008,0.041,-0.026,-0.014,-0.032,-0.108,-0.047,-0.066,-0.085,-0.077
-0.032,-0.039,-0.007,0.036,-0.013,-0.023,-0.028,-0.103,-0.055,-0.063,-0.085,-0.074
-0.025,-0.041,-0.017,0.033,-0.004,-0.029,-0.032,-0.102,-0.059,-0.072,-0.085,-0.072
-0.038,-0.037,0.002,0.038,-0.02,-0.017,-0.028,-0.094,-0.053,-0.086,-0.085,-0.069
-0.024,-0.029,-0.005,0.026,-0.009,-0.017,-0.032,-0.101,-0.048,-0.083,-0.081,-0.066
-0.024,-0.003,0.022,0.013,-0.023,0.009,-0.024,-0.099,-0.04,-0.074,-0.07,-0.065
-0.02,0.031,0.051,-0.006,-0.036,0.04,-0.025,-0.075,-0.038,-0.052,-0.063,-0.055
0.002,0.051,0.05,-0.027,-0.024,0.05,-0.014,-0.048,-0.015,-0.024,-0.053,-0.042
0.009,0.131,0.123,-0.07,-0.057,0.127,0.014,-0.035,0.032,0.01,-0.021,-0.021
0.04,0.181,0.141,-0.111,-0.051,0.161,-0.046,-0.085,0.031,0.023,0.009,-0.007
0.081,0.18,0.099,-0.13,-0.009,0.139,-0.071,-0.111,0.021,0.03,0.026,0.009
0.081,0.161,0.081,-0.121,0.0,0.121,-0.044,-0.1,0.015,0.013,0.014,0.006
0.026,0.079,0.053,-0.053,-0.014,0.066,-0.049,-0.111,-0.013,-0.023,-0.016,-0.04
-0.028,-0.004,0.024,0.016,-0.026,0.01,-0.042,-0.099,-0.058,-0.057,-0.068,-0.059
-0.057,-0.04,0.016,0.048,-0.036,-0.012,-0.048,-0.119,-0.103,-0.101,-0.098,-0.079
-0.059,-0.065,-0.005,0.062,-0.026,-0.035,-0.044,-0.124,-0.112,-0.113,-0.089,-0.102
-0.057,-0.068,-0.01,0.063,-0.023,-0.039,-0.045,-0.123,-0.142,-0.132,-0.11,-0.102
-0.054,-0.082,-0.028,0.068,-0.013,-0.054,-0.046,-0.118,-0.111,-0.103,-0.107,-0.094
-0.054,-0.103,-0.049,0.079,-0.003,-0.076,-0.027,-0.108,-0.143,-0.141,-0.142,-0.101
-0.076,-0.08,-0.004,0.078,-0.035,-0.042,-0.021,-0.118,-0.101,-0.094,-0.109,-0.113
-0.1,-0.174,-0.075,0.137,-0.012,-0.124,0.084,0.001,-0.153,-0.194,-0.2,-0.191
-0.106,-0.113,-0.008,0.109,-0.049,-0.06,0.152,0.036,-0.11,-0.191,-0.202,-0.189
0.072,0.094,0.022,-0.083,0.025,0.058,0.174,0.305,0.428,0.324,0.16,0.019
0.494,0.6,0.106,-0.547,0.194,0.353,0.003,0.587,1.291,1.225,0.855,0.536
0.624,1.093,0.469,-0.859,0.078,0.781,-0.411,-0.034,1.751,1.907,1.466,1.001
0.173,0.532,0.359,-0.353,-0.093,0.446,-0.463,-0.733,0.125,0.51,0.582,0.534
-0.193,-0.108,0.085,0.15,-0.139,-0.012,-0.332,-0.716,-1.126,-0.778,-0.372,-0.077
-0.182,-0.215,-0.033,0.199,-0.074,-0.123,-0.218,-0.333,-0.61,-0.46,-0.29,-0.149
-0.081,-0.203,-0.122,0.143,0.021,-0.162,-0.031,-0.001,-0.325,-0.294,-0.234,-0.153
-0.068,-0.144,-0.076,0.106,0.004,-0.109,0.044,0.029,-0.162,-0.161,-0.155,-0.132
-0.079,-0.134,-0.055,0.107,-0.012,-0.094,0.062,-0.035,-0.133,-0.135,-0.138,-0.119
-0.056,-0.099,-0.043,0.078,-0.006,-0.071,0.058,-0.038,-0.094,-0.123,-0.125,-0.106
-0.062,-0.091,-0.028,0.077,-0.017,-0.059,0.054,-0.03,-0.052,-0.093,-0.102,-0.1
-0.039,-0.078,-0.039,0.059,0.0,-0.058,0.054,-0.015,-0.058,-0.094,-0.104,-0.1
-0.047,-0.062,-0.015,0.055,-0.016,-0.038,0.048,-0.006,-0.023,-0.052,-0.081,-0.09
-0.005,-0.051,-0.047,0.028,0.021,-0.049,0.054,0.025,-0.019,-0.051,-0.082,-0.09
0.023,-0.036,-0.058,0.007,0.041,-0.047,0.059,0.042,0.025,-0.018,-0.06,-0.075
0.006,-0.036,-0.042,0.015,0.024,-0.038,0.058,0.072,0.051,-0.001,-0.04,-0.064
0.043,-0.024,-0.066,-0.01,0.055,-0.045,0.053,0.109,0.109,0.038,-0.006,-0.047
0.052,-0.002,-0.054,-0.025,0.053,-0.028,0.074,0.153,0.15,0.077,0.009,-0.035
0.072,0.016,-0.056,-0.043,0.064,-0.02,0.101,0.223,0.203,0.115,0.02,-0.018
0.094,0.042,-0.052,-0.068,0.073,-0.004,0.114,0.285,0.274,0.169,0.066,0.008
0.128,0.08,-0.048,-0.104,0.088,0.016,0.105,0.353,0.33,0.228,0.111,0.035
0.18,0.115,-0.065,-0.147,0.122,0.024,0.113,0.408,0.385,0.285,0.156,0.081
0.22,0.154,-0.066,-0.187,0.143,0.044,0.13,0.462,0.439,0.332,0.197,0.104
0.23,0.183,-0.047,-0.207,0.139,0.068,0.12,0.475,0.466,0.373,0.228,0.127
0.254,0.211,-0.043,-0.232,0.148,0.084,0.11,0.458,0.469,0.39,0.261,0.163
0.26,0.238,-0.022,-0.249,0.141,0.108,0.079,0.423,0.446,0.387,0.257,0.17
0.183,0.222,0.039,-0.203,0.072,0.13,0.074,0.329,0.382,0.351,0.226,0.161
0.13,0.179,0.049,-0.155,0.04,0.114,0.089,0.228,0.29,0.271,0.183,0.125
0.105,0.142,0.037,-0.124,0.034,0.089,0.08,0.128,0.192,0.189,0.123,0.077
0.061,0.095,0.034,-0.078,0.013,0.064,0.081,0.047,0.11,0.107,0.062,0.035
0.023,0.046,0.023,-0.035,0.0,0.034,0.076,0.009,0.044,0.041,0.014,-0.001
-0.004,0.014,0.018,-0.005,-0.011,0.016,0.075,-0.02,-0.005,0.001,-0.017,-0.019
-0.024,0.0,0.024,0.012,-0.024,0.012,0.082,-0.048,-0.034,-0.021,-0.037,-0.037
-0.035,-0.001,0.033,0.018,-0.034,0.016,0.075,-0.062,-0.045,-0.032,-0.041,-0.052
-0.03,-0.005,0.025,0.017,-0.027,0.01,0.073,-0.06,-0.048,-0.042,-0.043,-0.048
-0.035,-0.008,0.027,0.021,-0.031,0.01,0.077,-0.059,-0.053,-0.041,-0.046,-0.045
-0.023,-0.01,0.012,0.016,-0.018,0.001,0.079,-0.055,-0.055,-0.04,-0.044,-0.043
-0.005,-0.008,-0.003,0.006,-0.001,-0.005,0.083,-0.055,-0.055,-0.039,-0.045,-0.038
-0.033,-0.004,0.029,0.019,-0.03,0.012,0.085,-0.058,-0.056,-0.035,-0.045,-0.046
-0.028,-0.002,0.026,0.015,-0.027,0.011,0.083,-0.061,-0.054,-0.035,-0.045,-0.051
-0.024,0.001,0.025,0.011,-0.024,0.013,0.078,-0.066,-0.056,-0.038,-0.044,-0.05
-0.035,0.004,0.039,0.015,-0.038,0.021,0.075,-0.069,-0.053,-0.04,-0.037,-0.05
-0.016,0.005,0.021,0.005,-0.019,0.013,0.071,-0.081,-0.061,-0.051,-0.049,-0.05
-0.029,-0.001,0.028,0.015,-0.028,0.013,0.068,-0.095,-0.081,-0.061,-0.071,-0.05
-0.007,-0.006,0.001,0.007,-0.004,-0.003,0.064,-0.096,-0.078,-0.059,-0.07,-0.048
0.005,-0.011,-0.016,0.003,0.011,-0.013,0.055,-0.093,-0.091,-0.065,-0.071,-0.045
-0.033,-0.018,0.015,0.025,-0.024,-0.001,0.039,-0.102,-0.108,-0.063,-0.076,-0.045
-0.003,-0.023,-0.02,0.013,0.009,-0.021,0.028,-0.116,-0.108,-0.076,-0.074,-0.045
0.002,-0.026,-0.028,0.012,0.015,-0.027,0.025,-0.124,-0.115,-0.092,-0.078,-0.045
-0.032,-0.024,0.008,0.028,-0.02,-0.008,0.024,-0.138,-0.116,-0.089,-0.08,-0.046
-0.043,-0.026,0.017,0.034,-0.029,-0.004,0.028,-0.141,-0.124,-0.093,-0.081,-0.049
-0.044,-0.024,0.02,0.034,-0.031,-0.002,0.012,-0.139,-0.131,-0.095,-0.085,-0.054
-0.055,-0.026,0.029,0.04,-0.041,0.001,0.022,-0.141,-0.124,-0.095,-0.085,-0.055
-0.058,-0.024,0.034,0.041,-0.046,0.005,0.054,-0.139,-0.121,-0.092,-0.078,-0.05
-0.02,-0.01,0.009,0.015,-0.014,-0.001,0.051,-0.141,-0.114,-0.088,-0.071,-0.049
0.006,0.018,0.012,-0.012,-0.004,0.015,0.064,-0.129,-0.109,-0.083,-0.061,-0.042
-0.006,0.062,0.068,-0.028,-0.038,0.065,0.073,-0.115,-0.102,-0.07,-0.055,-0.042
-0.02,0.074,0.094,-0.027,-0.058,0.084,0.087,-0.102,-0.08,-0.04,-0.042,-0.025
0.018,0.125,0.107,-0.072,-0.045,0.116,0.101,-0.082,-0.066,0.002,-0.007,0.014
0.059,0.185,0.126,-0.122,-0.034,0.155,0.057,-0.112,-0.072,0.004,0.019,0.039
0.099,0.185,0.085,-0.142,0.007,0.135,0.013,-0.137,-0.073,-0.001,0.028,0.056
0.095,0.156,0.061,-0.126,0.017,0.109,-0.006,-0.127,-0.073,-0.003,0.012,0.033
0.031,0.079,0.047,-0.055,-0.009,0.063,0.005,-0.133,-0.086,-0.024,-0.017,-0.001
0.003,0.001,-0.002,-0.002,0.003,-0.001,0.024,-0.131,-0.131,-0.068,-0.065,-0.029
-0.021,-0.012,0.008,0.016,-0.014,-0.002,0.018,-0.164,-0.173,-0.11,-0.093,-0.045
-0.006,-0.033,-0.026,0.019,0.01,-0.029,0.021,-0.174,-0.165,-0.123,-0.1,-0.057
-0.002,-0.048,-0.046,0.025,0.022,-0.047,0.017,-0.189,-0.197,-0.141,-0.117,-0.066
-0.032,-0.058,-0.026,0.045,-0.003,-0.042,0.013,-0.197,-0.183,-0.114,-0.099,-0.058
-0.028,-0.07,-0.042,0.049,0.007,-0.055,0.02,-0.18,-0.221,-0.15,-0.124,-0.065
-0.049,-0.057,-0.008,0.054,-0.02,-0.032,0.035,-0.172,-0.185,-0.108,-0.098,-0.053
-0.098,-0.165,-0.067,0.132,-0.016,-0.115,0.147,-0.045,-0.226,-0.218,-0.207,-0.128
-0.105,-0.111,-0.006,0.108,-0.05,-0.058,0.217,0.0,-0.168,-0.202,-0.199,-0.127
0.091,0.097,0.005,-0.094,0.043,0.051,0.222,0.287,0.361,0.305,0.166,0.078
0.572,0.632,0.059,-0.602,0.256,0.345,0.017,0.57,1.246,1.232,0.878,0.595
0.741,1.106,0.365,-0.924,0.188,0.736,-0.393,-0.075,1.68,1.888,1.466,1.064
0.226,0.502,0.277,-0.364,-0.026,0.389,-0.461,-0.819,0.003,0.447,0.545,0.59
-0.173,-0.118,0.055,0.145,-0.113,-0.032,-0.332,-0.804,-1.187,-0.778,-0.363,-0.018
-0.134,-0.184,-0.051,0.159,-0.041,-0.117,-0.191,-0.394,-0.634,-0.441,-0.268,-0.1
-0.073,-0.173,-0.1,0.123,0.014,-0.136,-0.008,-0.057,-0.361,-0.294,-0.225,-0.1
-0.049,-0.118,-0.069,0.084,0.01,-0.093,0.05,-0.016,-0.199,-0.169,-0.144,-0.073
-0.035,-0.105,-0.069,0.07,0.017,-0.087,0.057,-0.043,-0.173,-0.141,-0.132,-0.072
-0.028,-0.074,-0.046,0.051,0.009,-0.06,0.071,-0.025,-0.142,-0.124,-0.122,-0.062
-0.022,-0.068,-0.046,0.045,0.013,-0.057,0.094,-0.027,-0.11,-0.102,-0.102,-0.052
-0.019,-0.062,-0.043,0.041,0.012,-0.052,0.096,-0.017,-0.115,-0.109,-0.104,-0.05
-0.013,-0.052,-0.039,0.033,0.013,-0.045,0.094,-0.013,-0.067,-0.066,-0.081,-0.039
-0.012,-0.05,-0.038,0.032,0.013,-0.044,0.102,0.008,-0.056,-0.055,-0.08,-0.036
-0.002,-0.035,-0.034,0.019,0.016,-0.034,0.098,0.025,-0.014,-0.023,-0.058,-0.027
0.011,-0.021,-0.032,0.005,0.022,-0.026,0.104,0.05,0.01,-0.006,-0.045,-0.02
0.025,-0.004,-0.029,-0.011,0.028,-0.017,0.112,0.091,0.062,0.032,-0.028,-0.017
0.037,0.008,-0.029,-0.022,0.033,-0.01,0.119,0.143,0.107,0.061,-0.003,0.01
0.054,0.028,-0.026,-0.041,0.04,0.001,0.125,0.205,0.159,0.102,0.033,0.043
0.089,0.066,-0.023,-0.077,0.056,0.021,0.124,0.275,0.224,0.157,0.062,0.047
0.136,0.108,-0.028,-0.121,0.081,0.04,0.133,0.35,0.289,0.216,0.106,0.059
0.179,0.138,-0.042,-0.158,0.11,0.048,0.142,0.422,0.342,0.267,0.148,0.098
0.216,0.168,-0.048,-0.191,0.132,0.06,0.137,0.484,0.387,0.315,0.188,0.141
0.256,0.203,-0.053,-0.229,0.155,0.075,0.136,0.499,0.415,0.357,0.233,0.17
0.269,0.23,-0.04,-0.249,0.154,0.095,0.128,0.501,0.418,0.378,0.261,0.192
0.254,0.249,-0.005,-0.251,0.129,0.122,0.107,0.46,0.403,0.379,0.262,0.186
0.229,0.245,0.016,-0.237,0.106,0.13,0.089,0.355,0.337,0.332,0.226,0.167
0.179,0.206,0.027,-0.193,0.076,0.116,0.072,0.23,0.244,0.26,0.179,0.149
0.122,0.162,0.04,-0.142,0.041,0.101,0.061,0.112,0.15,0.178,0.124,0.116
0.072,0.112,0.04,-0.092,0.016,0.076,0.058,0.032,0.06,0.089,0.061,0.081
0.036,0.066,0.03,-0.051,0.003,0.048,0.054,-0.013,-0.005,0.031,0.013,0.041
0.018,0.042,0.023,-0.03,-0.002,0.032,0.051,-0.041,-0.046,0.0,-0.014,0.016
0.012,0.029,0.017,-0.021,-0.003,0.023,0.046,-0.059,-0.065,-0.028,-0.033,0.014
0.02,0.023,0.002,-0.021,0.009,0.012,0.046,-0.066,-0.077,-0.042,-0.041,0.015
-0.004,0.016,0.019,-0.006,-0.012,0.018,0.051,-0.065,-0.081,-0.039,-0.04,0.027
-0.035,0.009,0.044,0.013,-0.04,0.027,0.048,-0.064,-0.084,-0.036,-0.039,0.028
-0.036,0.002,0.038,0.017,-0.038,0.02,0.062,-0.073,-0.083,-0.034,-0.036,0.018
-0.037,0.002,0.039,0.017,-0.039,0.021,0.072,-0.09,-0.079,-0.029,-0.034,0.013
-0.03,0.005,0.035,0.012,-0.033,0.02,0.066,-0.091,-0.081,-0.033,-0.039,0.005
-0.028,0.006,0.033,0.01,-0.031,0.019,0.065,-0.089,-0.079,-0.048,-0.046,0.0
-0.032,0.011,0.043,0.011,-0.038,0.026,0.06,-0.092,-0.081,-0.051,-0.045,0.0
-0.042,0.009,0.052,0.016,-0.047,0.03,0.052,-0.087,-0.089,-0.054,-0.044,0.0
-0.028,0.006,0.034,0.011,-0.031,0.019,0.046,-0.097,-0.101,-0.056,-0.046,0.0
0.01,0.003,-0.007,-0.007,0.008,-0.002,0.037,-0.113,-0.112,-0.045,-0.043,0.0
0.003,0.0,-0.002,-0.001,0.003,-0.001,0.031,-0.12,-0.119,-0.055,-0.05,-0.002
-0.006,-0.003,0.004,0.004,-0.005,0.001,0.024,-0.123,-0.128,-0.082,-0.055,-0.007
-0.017,-0.005,0.012,0.011,-0.014,0.003,0.017,-0.129,-0.133,-0.088,-0.058,-0.01
-0.042,-0.007,0.034,0.024,-0.038,0.013,0.013,-0.143,-0.146,-0.088,-0.074,-0.014
-0.024,-0.011,0.013,0.018,-0.018,0.001,0.007,-0.147,-0.154,-0.096,-0.076,-0.018
-0.03,-0.015,0.014,0.022,-0.021,0.0,0.003,-0.143,-0.153,-0.092,-0.073,-0.021
-0.014,-0.018,-0.003,0.016,-0.005,-0.01,-0.007,-0.148,-0.159,-0.092,-0.072,-0.024
-0.014,-0.024,-0.009,0.019,-0.002,-0.016,0.011,-0.164,-0.174,-0.112,-0.068,-0.025
-0.044,-0.024,0.019,0.034,-0.031,-0.002,0.032,-0.165,-0.171,-0.116,-0.074,-0.025
-0.017,-0.021,-0.004,0.019,-0.007,-0.012,0.023,-0.16,-0.164,-0.114,-0.081,-0.023
-0.02,-0.018,0.001,0.019,-0.01,-0.008,0.018,-0.159,-0.161,-0.116,-0.077,-0.016
-0.004,-0.016,-0.012,0.01,0.005,-0.014,0.011,-0.154,-0.153,-0.113,-0.072,-0.012
-0.036,-0.009,0.026,0.022,-0.031,0.008,0.004,-0.155,-0.15,-0.093,-0.069,-0.007
-0.05,0.031,0.081,0.009,-0.066,0.056,0.001,-0.144,-0.135,-0.071,-0.061,0.001
0.027,0.061,0.035,-0.044,-0.004,0.048,0.035,-0.136,-0.128,-0.054,-0.06,0.003
0.031,0.098,0.067,-0.065,-0.018,0.082,0.061,-0.123,-0.105,-0.013,-0.019,0.031
0.04,0.149,0.109,-0.095,-0.034,0.128,0.014,-0.121,-0.083,0.004,0.014,0.064
0.044,0.161,0.117,-0.103,-0.037,0.139,-0.034,-0.149,-0.104,-0.008,0.003,0.074
0.068,0.14,0.073,-0.104,-0.003,0.106,-0.045,-0.15,-0.118,-0.019,-0.011,0.063
0.07,0.075,0.005,-0.073,0.033,0.039,-0.043,-0.15,-0.123,-0.031,-0.019,0.028
-0.008,-0.003,0.005,0.005,-0.007,0.001,-0.037,-0.151,-0.146,-0.06,-0.043,-0.003
-0.027,-0.047,-0.02,0.037,-0.004,-0.033,-0.03,-0.188,-0.206,-0.119,-0.094,-0.028
-0.063,-0.072,-0.009,0.067,-0.027,-0.04,-0.029,-0.209,-0.208,-0.117,-0.097,-0.036
-0.076,-0.086,-0.01,0.081,-0.033,-0.048,-0.015,-0.188,-0.233,-0.141,-0.107,-0.042
-0.026,-0.077,-0.052,0.052,0.013,-0.064,-0.021,-0.196,-0.224,-0.129,-0.1,-0.043
-0.065,-0.104,-0.039,0.084,-0.013,-0.071,-0.025,-0.167,-0.235,-0.137,-0.113,-0.044
-0.092,-0.076,0.016,0.084,-0.053,-0.03,-0.028,-0.188,-0.238,-0.139,-0.108,-0.036
-0.091,-0.146,-0.055,0.119,-0.018,-0.101,0.052,-0.1,-0.231,-0.167,-0.152,-0.077
-0.176,-0.172,0.004,0.174,-0.09,-0.084,0.164,-0.025,-0.276,-0.245,-0.223,-0.109
-0.063,-0.007,0.057,0.035,-0.06,0.025,0.174,0.14,0.098,0.091,0.015,0.005
0.436,0.385,-0.051,-0.41,0.243,0.167,0.093,0.565,0.804,0.799,0.558,0.389
0.82,1.005,0.185,-0.913,0.317,0.595,-0.321,0.242,1.617,1.748,1.322,0.982
0.492,0.708,0.216,-0.6,0.137,0.462,-0.583,-0.654,0.646,1.029,0.923,0.821
-0.069,-0.031,0.038,0.05,-0.053,0.003,-0.458,-0.967,-1.095,-0.604,-0.206,0.132
-0.195,-0.212,-0.017,0.204,-0.089,-0.115,-0.329,-0.619,-0.894,-0.581,-0.327,-0.09
-0.115,-0.219,-0.104,0.167,-0.005,-0.161,-0.1,-0.186,-0.451,-0.314,-0.23,-0.108
-0.079,-0.15,-0.072,0.115,-0.003,-0.111,0.034,-0.064,-0.304,-0.221,-0.189,-0.078
-0.07,-0.124,-0.053,0.097,-0.008,-0.088,0.045,-0.08,-0.212,-0.147,-0.135,-0.058
-0.057,-0.11,-0.053,0.084,-0.002,-0.081,0.052,-0.059,-0.22,-0.169,-0.146,-0.064
-0.06,-0.092,-0.032,0.077,-0.014,-0.062,0.044,-0.047,-0.146,-0.097,-0.113,-0.05
-0.049,-0.089,-0.039,0.07,-0.005,-0.064,0.041,-0.034,-0.153,-0.117,-0.115,-0.054
-0.043,-0.075,-0.032,0.06,-0.005,-0.053,0.04,-0.03,-0.103,-0.077,-0.087,-0.043
-0.068,-0.072,-0.004,0.07,-0.032,-0.038,0.028,-0.012,-0.098,-0.087,-0.088,-0.042
-0.036,-0.061,-0.025,0.049,-0.005,-0.043,-0.031,0.015,-0.072,-0.062,-0.079,-0.03
0.012,-0.054,-0.065,0.021,0.039,-0.059,-0.006,0.051,-0.046,-0.023,-0.068,-0.024
0.006,-0.032,-0.038,0.013,0.022,-0.035,0.055,0.1,-0.003,-0.011,-0.048,-0.013
-0.02,-0.013,0.007,0.017,-0.013,-0.003,0.093,0.141,0.045,0.028,-0.01,-0.01
0.034,0.007,-0.027,-0.02,0.031,-0.01,0.113,0.208,0.083,0.059,0.017,0.011
0.097,0.027,-0.07,-0.062,0.083,-0.021,0.075,0.269,0.144,0.104,0.04,0.046
0.121,0.058,-0.063,-0.089,0.092,-0.003,0.057,0.333,0.2,0.152,0.078,0.064
0.171,0.099,-0.072,-0.135,0.121,0.013,0.048,0.402,0.265,0.214,0.13,0.096
0.209,0.14,-0.069,-0.174,0.139,0.035,0.042,0.448,0.318,0.268,0.171,0.125
0.259,0.171,-0.088,-0.214,0.173,0.041,0.088,0.489,0.345,0.296,0.201,0.153
0.271,0.191,-0.081,-0.231,0.176,0.055,0.099,0.503,0.339,0.325,0.223,0.173
0.271,0.202,-0.069,-0.237,0.17,0.066,0.084,0.466,0.326,0.324,0.237,0.173
0.253,0.193,-0.06,-0.223,0.156,0.066,0.062,0.369,0.3,0.3,0.225,0.171
0.17,0.177,0.007,-0.174,0.081,0.092,0.01,0.251,0.225,0.249,0.192,0.16
0.14,0.148,0.008,-0.144,0.066,0.078,-0.003,0.136,0.134,0.165,0.136,0.125
0.068,0.101,0.034,-0.085,0.017,0.068,0.008,0.039,0.05,0.086,0.067,0.072
-0.001,0.057,0.057,-0.028,-0.029,0.057,0.019,-0.021,-0.023,0.013,0.017,0.023
-0.014,0.026,0.04,-0.006,-0.027,0.033,0.023,-0.068,-0.066,-0.03,-0.016,0.004
-0.036,0.013,0.049,0.011,-0.043,0.031,0.015,-0.099,-0.094,-0.052,-0.041,0.0
-0.024,0.009,0.034,0.007,-0.029,0.021,0.012,-0.119,-0.115,-0.071,-0.054,-0.008
-0.038,0.007,0.044,0.015,-0.041,0.025,0.008,-0.134,-0.118,-0.073,-0.051,-0.015
-0.036,0.004,0.04,0.015,-0.038,0.022,0.002,-0.132,-0.115,-0.07,-0.05,-0.023
-0.03,0.001,0.031,0.015,-0.03,0.015,0.001,-0.126,-0.115,-0.07,-0.049,-0.022
-0.03,0.0,0.031,0.015,-0.031,0.015,0.009,-0.123,-0.113,-0.07,-0.046,-0.019
-0.01,0.005,0.015,0.002,-0.013,0.01,0.022,-0.116,-0.109,-0.071,-0.044,-0.02
-0.031,0.005,0.036,0.012,-0.034,0.02,0.028,-0.117,-0.11,-0.069,-0.048,-0.02
-0.048,0.005,0.053,0.022,-0.051,0.029,0.048,-0.134,-0.113,-0.081,-0.064,-0.02
-0.042,0.005,0.047,0.019,-0.045,0.026,0.054,-0.136,-0.118,-0.091,-0.065,-0.021
-0.04,0.005,0.046,0.017,-0.044,0.025,0.008,-0.146,-0.12,-0.09,-0.066,-0.026
-0.041,0.002,0.043,0.019,-0.042,0.023,-0.007,-0.166,-0.131,-0.09,-0.072,-0.031
-0.044,-0.006,0.038,0.025,-0.041,0.016,-0.013,-0.165,-0.138,-0.094,-0.075,-0.034
-0.06,-0.012,0.048,0.036,-0.054,0.018,-0.028,-0.166,-0.142,-0.099,-0.08,-0.039
-0.075,-0.02,0.055,0.047,-0.064,0.017,-0.02,-0.171,-0.161,-0.094,-0.076,-0.04
-0.059,-0.028,0.032,0.043,-0.045,0.002,-0.019,-0.17,-0.167,-0.106,-0.075,-0.041
-0.053,-0.034,0.02,0.043,-0.036,-0.007,-0.016,-0.172,-0.168,-0.117,-0.075,-0.044
-0.045,-0.036,0.009,0.04,-0.027,-0.013,-0.007,-0.183,-0.172,-0.119,-0.075,-0.046
-0.03,-0.034,-0.004,0.032,-0.012,-0.019,-0.025,-0.189,-0.18,-0.124,-0.074,-0.044
-0.072,-0.036,0.036,0.054,-0.053,0.0,-0.045,-0.193,-0.186,-0.131,-0.078,-0.038
-0.09,-0.033,0.057,0.061,-0.073,0.012,-0.032,-0.2,-0.187,-0.134,-0.086,-0.032
-0.084,-0.041,0.043,0.062,-0.063,0.001,-0.022,-0.204,-0.191,-0.129,-0.085,-0.026
-0.091,-0.05,0.041,0.07,-0.066,-0.004,-0.015,-0.206,-0.185,-0.13,-0.085,-0.021
-0.08,-0.046,0.034,0.063,-0.057,-0.005,-0.005,-0.203,-0.18,-0.128,-0.085,-0.017
-0.086,-0.042,0.044,0.064,-0.065,0.001,-0.029,-0.197,-0.175,-0.124,-0.085,-0.011
-0.069,-0.034,0.035,0.051,-0.052,0.001,-0.039,-0.191,-0.169,-0.127,-0.085,-0.007
-0.046,0.004,0.051,0.021,-0.049,0.027,-0.021,-0.186,-0.163,-0.117,-0.07,-0.002
-0.03,0.045,0.075,-0.008,-0.053,0.06,-0.013,-0.177,-0.148,-0.1,-0.057,0.002
-0.008,0.059,0.067,-0.026,-0.037,0.063,0.01,-0.157,-0.123,-0.082,-0.039,0.007
0.017,0.114,0.097,-0.066,-0.041,0.105,0.035,-0.14,-0.099,-0.072,-0.016,0.021
0.055,0.163,0.107,-0.11,-0.026,0.135,0.037,-0.156,-0.101,-0.077,-0.007,0.039
0.043,0.148,0.105,-0.096,-0.031,0.126,-0.026,-0.187,-0.098,-0.073,0.009,0.046
0.029,0.1,0.071,-0.065,-0.021,0.085,-0.101,-0.188,-0.107,-0.076,-0.006,0.034
0.019,0.044,0.025,-0.032,-0.003,0.034,-0.105,-0.187,-0.134,-0.076,-0.041,0.025
-0.028,-0.011,0.018,0.019,-0.023,0.004,-0.061,-0.194,-0.174,-0.114,-0.074,-0.022
-0.056,-0.037,0.02,0.046,-0.038,-0.008,-0.024,-0.224,-0.214,-0.149,-0.105,-0.054
-0.069,-0.057,0.011,0.062,-0.04,-0.023,-0.052,-0.218,-0.207,-0.146,-0.114,-0.055
-0.069,-0.056,0.013,0.062,-0.041,-0.021,-0.091,-0.222,-0.227,-0.164,-0.119,-0.061
-0.074,-0.065,0.01,0.069,-0.042,-0.027,-0.082,-0.216,-0.203,-0.15,-0.107,-0.058
-0.086,-0.079,0.007,0.082,-0.046,-0.035,-0.069,-0.208,-0.245,-0.194,-0.126,-0.071
-0.085,-0.066,0.019,0.076,-0.052,-0.023,-0.06,-0.222,-0.211,-0.155,-0.104,-0.057
-0.144,-0.162,-0.018,0.153,-0.063,-0.09,0.065,-0.117,-0.257,-0.257,-0.213,-0.131
-0.178,-0.105,0.073,0.141,-0.125,-0.016,0.152,-0.074,-0.201,-0.238,-0.193,-0.133
0.055,0.085,0.03,-0.07,0.012,0.057,0.179,0.256,0.281,0.233,0.144,0.069
0.606,0.619,0.012,-0.613,0.297,0.315,-0.034,0.559,1.082,1.075,0.795,0.579
0.821,1.033,0.212,-0.928,0.304,0.622,-0.475,-0.066,1.514,1.663,1.314,1.024
0.291,0.426,0.134,-0.359,0.078,0.28,-0.528,-0.845,-0.052,0.336,0.463,0.542
-0.17,-0.134,0.036,0.152,-0.103,-0.049,-0.411,-0.924,-1.19,-0.789,-0.356,-0.034
-0.174,-0.198,-0.024,0.187,-0.075,-0.111,-0.284,-0.516,-0.668,-0.479,-0.28,-0.105
-0.097,-0.177,-0.08,0.137,-0.008,-0.128,-0.051,-0.132,-0.405,-0.342,-0.242,-0.111
-0.084,-0.123,-0.039,0.103,-0.022,-0.081,0.055,-0.073,-0.241,-0.235,-0.164,-0.083
-0.071,-0.114,-0.043,0.093,-0.014,-0.078,0.065,-0.108,-0.212,-0.208,-0.143,-0.082
-0.05,-0.089,-0.039,0.069,-0.005,-0.064,0.065,-0.083,-0.186,-0.161,-0.121,-0.072
-0.049,-0.082,-0.033,0.066,-0.008,-0.058,0.065,-0.084,-0.15,-0.131,-0.104,-0.063
-0.051,-0.07,-0.019,0.061,-0.016,-0.044,0.065,-0.069,-0.142,-0.144,-0.107,-0.059
-0.059,-0.063,-0.003,0.061,-0.028,-0.033,0.065,-0.054,-0.092,-0.11,-0.088,-0.049
-0.057,-0.056,0.001,0.056,-0.029,-0.027,0.068,-0.02,-0.082,-0.104,-0.09,-0.047
-0.047,-0.046,0.001,0.047,-0.024,-0.023,0.072,0.016,-0.045,-0.073,-0.077,-0.039
-0.013,-0.039,-0.026,0.026,0.007,-0.033,0.073,0.049,-0.02,-0.054,-0.069,-0.031
0.012,-0.016,-0.028,0.002,0.02,-0.021,0.078,0.085,0.023,-0.016,-0.036,-0.02
0.02,-0.006,-0.026,-0.006,0.023,-0.016,0.086,0.133,0.056,0.007,-0.006,-0.003
0.061,0.014,-0.047,-0.038,0.054,-0.016,0.09,0.21,0.116,0.051,0.01,0.02
0.096,0.046,-0.05,-0.07,0.072,-0.002,0.108,0.279,0.18,0.104,0.036,0.04
0.141,0.069,-0.072,-0.105,0.106,-0.002,0.111,0.352,0.231,0.15,0.075,0.066
0.187,0.109,-0.077,-0.148,0.131,0.016,0.109,0.415,0.283,0.203,0.116,0.1
0.209,0.142,-0.067,-0.175,0.138,0.037,0.106,0.466,0.325,0.251,0.162,0.139
0.237,0.16,-0.076,-0.198,0.156,0.041,0.105,0.487,0.359,0.289,0.19,0.145
0.272,0.187,-0.085,-0.229,0.178,0.051,0.104,0.474,0.369,0.308,0.208,0.172
0.268,0.203,-0.065,-0.235,0.167,0.069,0.07,0.427,0.347,0.303,0.203,0.188
0.204,0.197,-0.008,-0.2,0.106,0.094,0.039,0.334,0.289,0.269,0.186,0.169
0.171,0.168,-0.003,-0.17,0.087,0.082,0.033,0.225,0.212,0.21,0.163,0.152
0.115,0.124,0.009,-0.119,0.053,0.066,0.024,0.112,0.128,0.13,0.101,0.106
0.026,0.077,0.051,-0.052,-0.013,0.064,0.016,0.025,0.041,0.039,0.04,0.058
-0.008,0.034,0.042,-0.013,-0.025,0.038,0.01,-0.037,-0.025,-0.014,-0.004,0.019
-0.033,0.002,0.035,0.015,-0.034,0.018,0.001,-0.08,-0.061,-0.045,-0.046,0.004
-0.048,-0.015,0.033,0.031,-0.04,0.009,0.013,-0.096,-0.08,-0.078,-0.069,-0.006
-0.074,-0.032,0.042,0.053,-0.058,0.005,0.028,-0.117,-0.1,-0.09,-0.07,-0.018
-0.081,-0.041,0.04,0.061,-0.06,0.0,0.022,-0.124,-0.104,-0.091,-0.07,-0.015
-0.083,-0.039,0.043,0.061,-0.063,0.002,0.019,-0.127,-0.094,-0.09,-0.074,-0.015
-0.091,-0.04,0.051,0.065,-0.071,0.005,0.016,-0.139,-0.092,-0.089,-0.075,-0.015
-0.048,-0.04,0.008,0.044,-0.028,-0.015,0.011,-0.133,-0.084,-0.085,-0.075,-0.015
-0.042,-0.04,0.002,0.042,-0.022,-0.019,0.009,-0.126,-0.08,-0.085,-0.076,-0.015
-0.086,-0.036,0.049,0.061,-0.067,0.007,0.004,-0.119,-0.093,-0.087,-0.074,-0.017
-0.079,-0.035,0.044,0.057,-0.061,0.005,-0.002,-0.115,-0.102,-0.094,-0.076,-0.021
-0.027,-0.035,-0.008,0.031,-0.009,-0.021,-0.005,-0.11,-0.099,-0.1,-0.085,-0.024
-0.048,-0.035,0.013,0.042,-0.03,-0.011,-0.01,-0.108,-0.1,-0.1,-0.086,-0.025
-0.051,-0.035,0.016,0.043,-0.033,-0.009,-0.014,-0.103,-0.117,-0.104,-0.084,-0.026
-0.036,-0.036,0.0,0.036,-0.018,-0.018,-0.012,-0.1,-0.131,-0.105,-0.086,-0.031
-0.089,-0.05,0.039,0.069,-0.064,-0.005,-0.003,-0.111,-0.134,-0.108,-0.084,-0.029
-0.078,-0.056,0.022,0.066,-0.049,-0.016,-0.001,-0.116,-0.143,-0.124,-0.085,-0.035
-0.037,-0.055,-0.018,0.046,-0.009,-0.036,-0.028,-0.134,-0.152,-0.127,-0.095,-0.043
-0.056,-0.055,0.001,0.055,-0.028,-0.027,-0.042,-0.148,-0.156,-0.125,-0.102,-0.039
-0.081,-0.055,0.025,0.068,-0.053,-0.015,-0.036,-0.158,-0.154,-0.125,-0.104,-0.04
-0.07,-0.055,0.016,0.062,-0.043,-0.019,-0.032,-0.168,-0.156,-0.125,-0.105,-0.04
-0.078,-0.059,0.02,0.068,-0.049,-0.019,-0.029,-0.169,-0.154,-0.124,-0.108,-0.04
-0.066,-0.06,0.007,0.063,-0.036,-0.026,-0.023,-0.165,-0.156,-0.126,-0.11,-0.04
-0.026,-0.051,-0.025,0.039,0.0,-0.038,-0.019,-0.158,-0.165,-0.135,-0.112,-0.035
-0.016,-0.049,-0.034,0.033,0.009,-0.041,-0.014,-0.155,-0.164,-0.134,-0.117,-0.031
-0.028,-0.039,-0.011,0.034,-0.008,-0.025,-0.01,-0.146,-0.159,-0.128,-0.12,-0.026
-0.031,-0.041,-0.009,0.036,-0.01,-0.025,-0.006,-0.144,-0.154,-0.125,-0.105,-0.023
-0.03,-0.017,0.013,0.023,-0.021,-0.002,0.001,-0.132,-0.149,-0.118,-0.08,-0.013
-0.043,0.014,0.057,0.014,-0.05,0.035,-0.001,-0.115,-0.132,-0.11,-0.065,-0.009
-0.033,0.037,0.07,-0.002,-0.052,0.053,0.041,-0.079,-0.099,-0.086,-0.04,0.0
0.014,0.108,0.094,-0.061,-0.04,0.101,0.029,-0.069,-0.07,-0.051,-0.019,0.02
0.043,0.142,0.099,-0.093,-0.028,0.121,-0.051,-0.135,-0.053,-0.026,-0.013,0.055
0.033,0.117,0.084,-0.075,-0.026,0.1,-0.05,-0.148,-0.058,-0.028,-0.016,0.074
0.018,0.061,0.043,-0.04,-0.013,0.052,-0.048,-0.143,-0.102,-0.066,-0.038,0.04
-0.023,-0.001,0.022,0.012,-0.023,0.01,-0.053,-0.153,-0.119,-0.085,-0.057,0.006
-0.046,-0.06,-0.013,0.053,-0.016,-0.036,-0.047,-0.146,-0.16,-0.128,-0.102,-0.03
-0.07,-0.085,-0.015,0.078,-0.028,-0.05,-0.05,-0.16,-0.191,-0.142,-0.11,-0.03
-0.077,-0.096,-0.018,0.087,-0.029,-0.057,-0.036,-0.161,-0.187,-0.156,-0.121,-0.041
-0.032,-0.084,-0.052,0.059,0.01,-0.068,-0.065,-0.179,-0.197,-0.173,-0.128,-0.061
-0.052,-0.106,-0.054,0.079,0.001,-0.079,-0.049,-0.157,-0.177,-0.153,-0.12,-0.059
-0.043,-0.094,-0.051,0.069,0.004,-0.072,-0.03,-0.174,-0.209,-0.181,-0.133,-0.061
-0.057,-0.117,-0.06,0.087,0.002,-0.088,-0.02,-0.132,-0.169,-0.161,-0.137,-0.063
-0.154,-0.207,-0.053,0.18,-0.05,-0.129,0.105,-0.035,-0.236,-0.284,-0.255,-0.149
-0.111,-0.079,0.031,0.095,-0.071,-0.024,0.168,0.035,-0.038,-0.113,-0.131,-0.088
0.203,0.171,-0.032,-0.186,0.117,0.069,0.153,0.438,0.54,0.452,0.278,0.193
0.681,0.807,0.125,-0.744,0.278,0.465,-0.143,0.508,1.447,1.444,1.07,0.766
0.618,0.976,0.357,-0.797,0.13,0.666,-0.508,-0.248,1.352,1.562,1.267,0.993
0.042,0.222,0.18,-0.132,-0.069,0.201,-0.439,-0.831,-0.53,-0.151,0.108,0.349
-0.215,-0.188,0.027,0.202,-0.121,-0.08,-0.303,-0.692,-1.066,-0.772,-0.407,-0.081
-0.15,-0.235,-0.085,0.192,-0.032,-0.16,-0.172,-0.275,-0.506,-0.399,-0.275,-0.11
-0.076,-0.191,-0.115,0.134,0.019,-0.152,0.023,-0.023,-0.342,-0.319,-0.265,-0.108
-0.064,-0.141,-0.077,0.103,0.007,-0.109,0.07,-0.04,-0.178,-0.191,-0.171,-0.072
-0.055,-0.135,-0.079,0.095,0.012,-0.107,0.067,-0.084,-0.183,-0.211,-0.182,-0.072
-0.054,-0.104,-0.05,0.079,-0.002,-0.076,0.075,-0.056,-0.13,-0.149,-0.15,-0.052
-0.037,-0.107,-0.069,0.072,0.016,-0.088,0.076,-0.054,-0.129,-0.137,-0.145,-0.053
-0.026,-0.093,-0.068,0.06,0.021,-0.08,0.085,-0.048,-0.1,-0.116,-0.129,-0.046
-0.029,-0.09,-0.061,0.06,0.016,-0.075,0.085,-0.018,-0.066,-0.1,-0.112,-0.042
-0.015,-0.077,-0.061,0.046,0.023,-0.069,0.085,0.027,-0.045,-0.094,-0.114,-0.039
0.009,-0.062,-0.071,0.027,0.04,-0.066,0.085,0.052,-0.004,-0.062,-0.097,-0.032
0.018,-0.049,-0.067,0.016,0.043,-0.058,0.086,0.087,0.014,-0.042,-0.078,-0.029
0.004,-0.033,-0.038,0.015,0.022,-0.036,0.084,0.132,0.06,-0.001,-0.051,-0.013
0.058,-0.011,-0.069,-0.023,0.064,-0.04,0.09,0.186,0.101,0.019,-0.029,0.012
0.096,0.014,-0.082,-0.055,0.089,-0.034,0.099,0.251,0.159,0.075,0.004,0.033
0.111,0.03,-0.081,-0.071,0.096,-0.026,0.104,0.32,0.215,0.124,0.029,0.046
0.166,0.065,-0.101,-0.116,0.134,-0.018,0.104,0.384,0.272,0.165,0.069,0.077
0.197,0.112,-0.085,-0.155,0.141,0.014,0.112,0.439,0.325,0.227,0.119,0.108
0.227,0.143,-0.084,-0.185,0.156,0.029,0.105,0.475,0.36,0.266,0.158,0.132
0.254,0.162,-0.091,-0.208,0.172,0.035,0.091,0.467,0.36,0.293,0.194,0.163
0.27,0.188,-0.082,-0.229,0.176,0.053,0.097,0.448,0.346,0.312,0.212,0.188
0.26,0.198,-0.063,-0.228,0.161,0.067,0.056,0.408,0.341,0.295,0.214,0.18
0.191,0.177,-0.014,-0.184,0.102,0.081,0.026,0.316,0.287,0.257,0.186,0.164
0.153,0.152,-0.002,-0.152,0.077,0.075,0.031,0.217,0.207,0.192,0.124,0.134
0.133,0.116,-0.017,-0.124,0.075,0.049,0.023,0.13,0.128,0.103,0.068,0.081
0.063,0.069,0.005,-0.066,0.029,0.037,0.024,0.063,0.039,0.027,0.002,0.04
0.008,0.023,0.016,-0.016,-0.004,0.019,0.019,0.018,-0.017,-0.027,-0.049,0.012
-0.025,-0.01,0.015,0.017,-0.02,0.002,0.018,-0.026,-0.05,-0.058,-0.069,-0.008
-0.036,-0.022,0.014,0.029,-0.025,-0.003,0.015,-0.052,-0.069,-0.081,-0.084,-0.025
-0.037,-0.028,0.009,0.032,-0.023,-0.009,0.015,-0.063,-0.073,-0.087,-0.089,-0.039
-0.039,-0.026,0.012,0.032,-0.025,-0.007,0.016,-0.071,-0.071,-0.085,-0.09,-0.042
-0.019,-0.021,-0.002,0.02,-0.009,-0.011,0.013,-0.069,-0.07,-0.085,-0.09,-0.039
-0.008,-0.019,-0.011,0.014,0.001,-0.015,0.027,-0.07,-0.069,-0.085,-0.09,-0.036
-0.008,-0.014,-0.006,0.012,0.0,-0.01,0.025,-0.07,-0.065,-0.085,-0.09,-0.034
-0.018,-0.011,0.008,0.015,-0.013,-0.001,0.005,-0.07,-0.063,-0.084,-0.09,-0.03
-0.032,-0.01,0.023,0.021,-0.027,0.006,0.003,-0.072,-0.076,-0.095,-0.093,-0.031
-0.029,-0.01,0.019,0.02,-0.024,0.005,-0.002,-0.079,-0.093,-0.101,-0.096,-0.035
-0.03,-0.01,0.02,0.02,-0.025,0.005,-0.025,-0.085,-0.095,-0.099,-0.092,-0.035
-0.03,-0.01,0.02,0.02,-0.025,0.005,-0.037,-0.079,-0.099,-0.1,-0.09,-0.035
-0.03,-0.01,0.02,0.02,-0.025,0.005,-0.031,-0.087,-0.105,-0.1,-0.087,-0.038
-0.03,-0.01,0.019,0.02,-0.025,0.005,-0.026,-0.1,-0.115,-0.1,-0.084,-0.042
-0.028,-0.015,0.014,0.021,-0.021,-0.001,-0.023,-0.104,-0.123,-0.104,-0.095,-0.047
-0.033,-0.022,0.011,0.028,-0.022,-0.005,-0.017,-0.115,-0.128,-0.116,-0.102,-0.05
-0.036,-0.029,0.007,0.032,-0.022,-0.01,-0.014,-0.117,-0.135,-0.121,-0.105,-0.05
-0.04,-0.037,0.003,0.038,-0.022,-0.017,-0.01,-0.125,-0.145,-0.124,-0.11,-0.05
-0.038,-0.038,0.0,0.038,-0.019,-0.018,-0.01,-0.129,-0.15,-0.133,-0.109,-0.05
-0.019,-0.035,-0.015,0.027,-0.002,-0.025,-0.026,-0.126,-0.15,-0.136,-0.114,-0.05
-0.019,-0.035,-0.016,0.027,-0.001,-0.025,-0.031,-0.125,-0.154,-0.134,-0.114,-0.046
-0.031,-0.036,-0.004,0.034,-0.013,-0.02,-0.025,-0.124,-0.156,-0.135,-0.118,-0.039
-0.035,-0.034,0.0,0.034,-0.017,-0.017,-0.023,-0.134,-0.15,-0.14,-0.123,-0.033
-0.048,-0.036,0.011,0.042,-0.029,-0.012,-0.019,-0.139,-0.143,-0.139,-0.113,-0.026
-0.039,-0.012,0.028,0.025,-0.033,0.008,-0.016,-0.13,-0.133,-0.131,-0.103,-0.02
-0.031,0.026,0.057,0.002,-0.045,0.042,-0.012,-0.123,-0.126,-0.119,-0.09,-0.013
-0.036,0.036,0.072,0.0,-0.054,0.054,0.001,-0.12,-0.117,-0.096,-0.08,-0.001
0.004,0.095,0.091,-0.05,-0.044,0.093,0.012,-0.099,-0.079,-0.063,-0.062,0.014
0.036,0.164,0.129,-0.1,-0.047,0.146,-0.012,-0.121,-0.059,-0.048,-0.033,0.028
0.05,0.178,0.128,-0.114,-0.039,0.153,-0.063,-0.155,-0.072,-0.053,-0.008,0.025
0.055,0.146,0.091,-0.101,-0.018,0.118,-0.08,-0.147,-0.091,-0.056,-0.024,0.01
0.008,0.082,0.074,-0.045,-0.033,0.078,-0.064,-0.151,-0.1,-0.066,-0.049,0.001
-0.034,0.015,0.049,0.009,-0.041,0.031,-0.055,-0.152,-0.131,-0.105,-0.08,-0.017
-0.052,-0.031,0.021,0.042,-0.036,-0.005,-0.054,-0.185,-0.2,-0.163,-0.133,-0.043
-0.064,-0.047,0.017,0.055,-0.041,-0.014,-0.058,-0.189,-0.192,-0.155,-0.127,-0.054
-0.076,-0.061,0.014,0.068,-0.045,-0.023,-0.051,-0.174,-0.222,-0.174,-0.142,-0.067
-0.049,-0.059,-0.01,0.054,-0.019,-0.034,-0.059,-0.18,-0.215,-0.167,-0.14,-0.062
-0.045,-0.075,-0.03,0.06,-0.007,-0.053,-0.067,-0.155,-0.221,-0.194,-0.158,-0.074
-0.084,-0.052,0.032,0.068,-0.058,-0.01,-0.085,-0.171,-0.226,-0.176,-0.143,-0.066
-0.098,-0.142,-0.043,0.12,-0.027,-0.092,0.013,-0.082,-0.214,-0.2,-0.187,-0.099
-0.145,-0.161,-0.016,0.153,-0.064,-0.088,0.129,-0.025,-0.249,-0.298,-0.264,-0.134
-0.027,0.008,0.035,0.009,-0.03,0.021,0.129,0.171,0.136,0.075,0.0,0.004
0.427,0.422,-0.005,-0.425,0.216,0.209,0.049,0.589,0.881,0.838,0.577,0.409
0.775,1.058,0.283,-0.916,0.245,0.67,-0.358,0.247,1.674,1.781,1.349,1.002
0.412,0.741,0.329,-0.577,0.042,0.535,-0.582,-0.624,0.613,0.967,0.881,0.8
-0.122,0.0,0.122,0.061,-0.122,0.06,-0.439,-0.878,-1.089,-0.657,-0.255,0.091
-0.169,-0.18,-0.012,0.175,-0.078,-0.096,-0.324,-0.54,-0.846,-0.592,-0.347,-0.093
-0.084,-0.196,-0.112,0.14,0.014,-0.154,-0.117,-0.163,-0.44,-0.352,-0.26,-0.093
-0.069,-0.139,-0.071,0.104,0.001,-0.105,0.014,-0.038,-0.288,-0.254,-0.207,-0.078
-0.057,-0.11,-0.053,0.084,-0.002,-0.081,0.033,-0.076,-0.201,-0.168,-0.161,-0.066
-0.048,-0.095,-0.047,0.071,0.0,-0.071,0.045,-0.064,-0.215,-0.175,-0.168,-0.069
-0.048,-0.081,-0.033,0.065,-0.007,-0.056,0.037,-0.055,-0.134,-0.117,-0.133,-0.054
-0.038,-0.076,-0.039,0.057,0.001,-0.057,0.042,-0.046,-0.134,-0.138,-0.136,-0.055
-0.07,-0.066,0.004,0.068,-0.037,-0.031,0.038,-0.031,-0.09,-0.103,-0.102,-0.041
-0.065,-0.063,0.002,0.064,-0.033,-0.03,0.042,-0.013,-0.095,-0.114,-0.101,-0.036
-0.024,-0.042,-0.017,0.033,-0.003,-0.03,0.045,0.02,-0.058,-0.096,-0.086,-0.027
-0.054,-0.027,0.027,0.04,-0.04,0.0,0.045,0.035,-0.024,-0.077,-0.077,-0.018
-0.039,-0.022,0.017,0.03,-0.028,-0.002,0.045,0.087,0.008,-0.047,-0.057,-0.004
0.019,-0.006,-0.025,-0.006,0.022,-0.016,0.061,0.145,0.048,-0.005,-0.023,0.011
0.073,0.027,-0.046,-0.049,0.059,-0.009,0.073,0.201,0.103,0.039,-0.003,0.033
0.096,0.052,-0.044,-0.074,0.069,0.004,0.072,0.27,0.165,0.074,0.025,0.047
0.097,0.081,-0.016,-0.089,0.057,0.032,0.077,0.344,0.218,0.119,0.06,0.072
0.137,0.115,-0.022,-0.126,0.079,0.047,0.08,0.419,0.286,0.198,0.108,0.114
0.21,0.154,-0.055,-0.182,0.132,0.049,0.082,0.465,0.327,0.244,0.151,0.138
0.241,0.188,-0.053,-0.214,0.146,0.067,0.079,0.495,0.362,0.275,0.183,0.154
0.244,0.21,-0.033,-0.227,0.138,0.088,0.082,0.504,0.381,0.305,0.216,0.185
0.251,0.211,-0.04,-0.231,0.146,0.085,0.071,0.451,0.363,0.313,0.231,0.202
0.198,0.194,-0.004,-0.196,0.101,0.095,0.026,0.361,0.32,0.292,0.228,0.187
0.143,0.188,0.045,-0.166,0.049,0.116,0.003,0.252,0.242,0.229,0.188,0.167
0.106,0.158,0.052,-0.132,0.027,0.105,0.002,0.149,0.155,0.148,0.12,0.132
0.039,0.098,0.059,-0.069,-0.01,0.078,-0.005,0.076,0.074,0.069,0.06,0.089
-0.022,0.046,0.068,-0.013,-0.045,0.057,-0.002,0.012,-0.007,-0.006,-0.001,0.052
-0.021,0.016,0.037,0.002,-0.029,0.026,0.0,-0.026,-0.064,-0.052,-0.039,0.033
-0.016,0.001,0.018,0.007,-0.017,0.009,0.0,-0.03,-0.087,-0.078,-0.05,0.026
-0.055,0.0,0.054,0.027,-0.055,0.027,0.007,-0.034,-0.099,-0.09,-0.058,0.016
-0.045,0.0,0.045,0.022,-0.045,0.022,0.016,-0.056,-0.106,-0.096,-0.066,0.013
-0.049,-0.005,0.045,0.027,-0.047,0.02,0.018,-0.073,-0.102,-0.095,-0.065,0.009
-0.064,-0.005,0.06,0.034,-0.061,0.027,0.012,-0.075,-0.1,-0.095,-0.065,0.006
-0.058,-0.006,0.052,0.032,-0.055,0.023,0.008,-0.075,-0.097,-0.099,-0.065,0.001
-0.068,-0.01,0.057,0.038,-0.062,0.023,0.004,-0.075,-0.094,-0.1,-0.064,0.0
-0.063,-0.01,0.053,0.036,-0.058,0.021,-0.001,-0.075,-0.099,-0.1,-0.069,0.0
-0.069,-0.013,0.056,0.04,-0.062,0.022,-0.005,-0.075,-0.1,-0.1,-0.07,0.0
-0.075,-0.016,0.059,0.045,-0.067,0.022,-0.012,-0.071,-0.101,-0.1,-0.07,0.0
-0.084,-0.015,0.07,0.049,-0.077,0.027,-0.022,-0.06,-0.106,-0.1,-0.075,0.0
-0.082,-0.019,0.063,0.05,-0.072,0.022,-0.033,-0.075,-0.12,-0.105,-0.075,0.0
-0.063,-0.026,0.037,0.044,-0.05,0.005,-0.038,-0.09,-0.129,-0.106,-0.076,-0.004
-0.04,-0.031,0.008,0.035,-0.024,-0.011,-0.035,-0.104,-0.145,-0.122,-0.084,-0.01
-0.045,-0.035,0.009,0.04,-0.027,-0.013,-0.032,-0.116,-0.162,-0.137,-0.085,-0.015
-0.083,-0.035,0.048,0.058,-0.065,0.006,-0.029,-0.125,-0.164,-0.134,-0.085,-0.021
-0.085,-0.037,0.048,0.061,-0.066,0.005,-0.026,-0.142,-0.169,-0.135,-0.09,-0.027
-0.077,-0.041,0.037,0.059,-0.057,-0.002,-0.024,-0.139,-0.176,-0.135,-0.09,-0.029
-0.075,-0.039,0.035,0.057,-0.055,-0.002,-0.025,-0.144,-0.18,-0.135,-0.09,-0.025
-0.06,-0.037,0.023,0.048,-0.041,-0.007,-0.024,-0.159,-0.18,-0.139,-0.09,-0.026
-0.051,-0.028,0.023,0.039,-0.037,-0.002,-0.029,-0.161,-0.18,-0.137,-0.09,-0.022
-0.06,-0.024,0.036,0.042,-0.048,0.006,-0.031,-0.156,-0.18,-0.131,-0.09,-0.02
-0.059,-0.015,0.044,0.037,-0.051,0.014,-0.027,-0.15,-0.18,-0.127,-0.09,-0.02
-0.03,-0.01,0.02,0.02,-0.025,0.005,-0.026,-0.145,-0.181,-0.123,-0.091,-0.016
-0.031,0.006,0.037,0.012,-0.034,0.021,-0.018,-0.138,-0.173,-0.118,-0.085,-0.005
-0.05,0.035,0.085,0.007,-0.068,0.06,-0.009,-0.134,-0.153,-0.112,-0.075,0.002
-0.042,0.045,0.087,-0.001,-0.065,0.065,0.013,-0.119,-0.133,-0.1,-0.065,0.012
-0.015,0.111,0.126,-0.049,-0.07,0.118,0.02,-0.095,-0.115,-0.076,-0.029,0.047
0.029,0.166,0.137,-0.097,-0.055,0.151,-0.029,-0.122,-0.115,-0.055,0.001,0.073
0.046,0.166,0.12,-0.106,-0.037,0.143,-0.069,-0.153,-0.11,-0.039,0.008,0.082
0.037,0.138,0.1,-0.088,-0.031,0.119,-0.061,-0.144,-0.109,-0.053,-0.005,0.062
0.001,0.064,0.063,-0.033,-0.031,0.063,-0.052,-0.146,-0.136,-0.089,-0.036,0.029
-0.043,-0.001,0.042,0.022,-0.042,0.02,-0.048,-0.149,-0.162,-0.116,-0.073,0.003
-0.041,-0.039,0.002,0.04,-0.021,-0.019,-0.047,-0.18,-0.209,-0.155,-0.102,-0.017
-0.061,-0.063,-0.002,0.062,-0.029,-0.032,-0.043,-0.186,-0.216,-0.152,-0.1,-0.029
-0.091,-0.069,0.023,0.08,-0.057,-0.023,-0.039,-0.179,-0.236,-0.178,-0.121,-0.039
-0.101,-0.074,0.027,0.087,-0.064,-0.024,-0.041,-0.183,-0.217,-0.168,-0.113,-0.029
-0.092,-0.104,-0.012,0.098,-0.04,-0.057,-0.031,-0.164,-0.241,-0.195,-0.128,-0.046
-0.084,-0.083,0.001,0.084,-0.042,-0.041,-0.031,-0.181,-0.223,-0.177,-0.118,-0.043
-0.143,-0.157,-0.015,0.15,-0.064,-0.086,0.062,-0.079,-0.237,-0.222,-0.184,-0.102
-0.187,-0.135,0.051,0.161,-0.119,-0.042,0.152,-0.012,-0.245,-0.262,-0.219,-0.128
-0.014,0.039,0.053,-0.012,-0.034,0.046,0.176,0.219,0.175,0.135,0.06,0.045
0.487,0.486,-0.001,-0.487,0.244,0.242,0.024,0.603,0.938,0.926,0.67,0.487
0.799,1.045,0.246,-0.922,0.276,0.645,-0.395,0.14,1.628,1.781,1.375,1.037
0.385,0.608,0.223,-0.496,0.08,0.415,-0.536,-0.722,0.357,0.749,0.751,0.741
-0.134,-0.081,0.054,0.107,-0.094,-0.013,-0.453,-0.894,-1.167,-0.722,-0.289,0.057
-0.183,-0.202,-0.019,0.193,-0.082,-0.11,-0.321,-0.518,-0.794,-0.544,-0.306,-0.083
-0.111,-0.199,-0.088,0.155,-0.012,-0.143,-0.062,-0.102,-0.424,-0.332,-0.238,-0.08
-0.101,-0.142,-0.042,0.122,-0.029,-0.092,0.038,0.0,-0.274,-0.22,-0.175,-0.07
-0.079,-0.117,-0.038,0.099,-0.02,-0.077,0.046,-0.051,-0.207,-0.176,-0.138,-0.06
-0.074,-0.098,-0.024,0.086,-0.025,-0.061,0.053,-0.034,-0.196,-0.175,-0.144,-0.059
-0.072,-0.087,-0.015,0.08,-0.028,-0.051,0.047,-0.037,-0.149,-0.122,-0.116,-0.046
-0.063,-0.079,-0.017,0.071,-0.023,-0.048,0.052,-0.013,-0.156,-0.14,-0.12,-0.046
-0.052,-0.065,-0.013,0.059,-0.019,-0.039,0.05,0.019,-0.106,-0.103,-0.092,-0.035
-0.043,-0.06,-0.017,0.052,-0.013,-0.038,0.059,0.047,-0.097,-0.097,-0.087,-0.03
-0.032,-0.045,-0.013,0.039,-0.009,-0.029,0.061,0.079,-0.059,-0.064,-0.069,-0.019
-0.015,-0.033,-0.017,0.024,0.001,-0.025,0.066,0.1,-0.027,-0.055,-0.053,-0.011
0.005,-0.018,-0.023,0.006,0.015,-0.02,0.07,0.143,0.022,-0.025,-0.03,0.001
0.029,-0.003,-0.032,-0.012,0.03,-0.018,0.079,0.194,0.059,0.01,-0.005,0.023
0.056,0.02,-0.035,-0.038,0.045,-0.007,0.094,0.262,0.095,0.036,0.016,0.044
0.097,0.043,-0.054,-0.07,0.075,-0.005,0.099,0.33,0.155,0.092,0.039,0.06
0.133,0.066,-0.067,-0.099,0.1,-0.001,0.104,0.401,0.221,0.154,0.087,0.086
0.162,0.102,-0.059,-0.132,0.11,0.021,0.102,0.473,0.278,0.21,0.136,0.121
0.195,0.136,-0.058,-0.165,0.126,0.039,0.094,0.521,0.32,0.255,0.17,0.153
0.223,0.169,-0.053,-0.196,0.138,0.058,0.086,0.552,0.358,0.295,0.21,0.174
0.25,0.2,-0.05,-0.225,0.15,0.075,0.078,0.541,0.373,0.325,0.244,0.199
0.249,0.199,-0.051,-0.224,0.15,0.074,0.071,0.498,0.353,0.324,0.255,0.21
0.22,0.187,-0.033,-0.204,0.127,0.077,0.051,0.417,0.306,0.299,0.237,0.2
0.192,0.172,-0.02,-0.182,0.106,0.075,0.023,0.299,0.224,0.244,0.194,0.188
0.124,0.12,-0.004,-0.122,0.064,0.057,0.017,0.196,0.123,0.148,0.133,0.145
0.053,0.078,0.025,-0.065,0.014,0.051,0.037,0.102,0.039,0.066,0.075,0.088
0.012,0.042,0.03,-0.027,-0.01,0.036,0.039,0.036,-0.027,0.003,0.027,0.056
-0.023,0.0,0.022,0.011,-0.022,0.011,0.032,0.0,-0.071,-0.041,-0.006,0.045
-0.03,-0.014,0.015,0.022,-0.022,0.0,0.029,-0.024,-0.1,-0.06,-0.027,0.04
-0.031,-0.021,0.01,0.025,-0.02,-0.005,0.023,-0.042,-0.118,-0.07,-0.041,0.032
-0.028,-0.028,0.0,0.028,-0.014,-0.014,0.02,-0.047,-0.117,-0.07,-0.047,0.026
-0.037,-0.027,0.011,0.032,-0.023,-0.008,0.014,-0.044,-0.115,-0.069,-0.045,0.021
-0.051,-0.024,0.026,0.037,-0.038,0.001,0.023,-0.042,-0.115,-0.072,-0.044,0.018
-0.034,-0.025,0.008,0.029,-0.02,-0.008,0.032,-0.039,-0.115,-0.076,-0.045,0.016
-0.046,-0.025,0.022,0.035,-0.034,-0.001,0.029,-0.041,-0.115,-0.081,-0.045,0.012
-0.063,-0.025,0.037,0.044,-0.049,0.006,0.028,-0.044,-0.115,-0.084,-0.045,0.01
-0.053,-0.024,0.029,0.039,-0.041,0.002,0.024,-0.047,-0.12,-0.085,-0.049,0.007
-0.048,-0.019,0.029,0.033,-0.038,0.004,0.026,-0.051,-0.119,-0.085,-0.05,0.005
-0.05,-0.027,0.023,0.038,-0.036,-0.002,0.021,-0.054,-0.127,-0.086,-0.052,0.005
-0.057,-0.037,0.02,0.047,-0.038,-0.008,0.02,-0.058,-0.135,-0.084,-0.055,0.005
-0.067,-0.04,0.027,0.054,-0.047,-0.007,0.02,-0.058,-0.142,-0.089,-0.056,0.005
-0.08,-0.045,0.035,0.062,-0.057,-0.004,0.02,-0.054,-0.144,-0.1,-0.06,0.005
-0.041,-0.049,-0.008,0.045,-0.017,-0.028,0.019,-0.072,-0.156,-0.106,-0.065,0.0
-0.029,-0.05,-0.021,0.04,-0.004,-0.035,0.009,-0.086,-0.181,-0.104,-0.07,-0.004
-0.055,-0.05,0.005,0.053,-0.03,-0.023,0.012,-0.085,-0.18,-0.107,-0.07,-0.006
-0.034,-0.054,-0.021,0.044,-0.006,-0.037,0.018,-0.083,-0.179,-0.12,-0.07,-0.011
-0.037,-0.056,-0.019,0.047,-0.009,-0.037,0.01,-0.093,-0.181,-0.12,-0.071,-0.015
-0.065,-0.053,0.012,0.059,-0.038,-0.02,0.009,-0.116,-0.179,-0.12,-0.069,-0.013
-0.077,-0.051,0.026,0.064,-0.052,-0.012,0.002,-0.114,-0.179,-0.128,-0.074,-0.003
-0.072,-0.047,0.025,0.059,-0.048,-0.01,-0.019,-0.122,-0.172,-0.123,-0.081,0.003
-0.07,-0.046,0.024,0.058,-0.047,-0.01,-0.017,-0.134,-0.168,-0.117,-0.079,0.001
-0.077,-0.041,0.036,0.058,-0.056,-0.002,-0.008,-0.126,-0.164,-0.113,-0.074,0.0
-0.068,-0.042,0.027,0.055,-0.048,-0.007,0.0,-0.139,-0.159,-0.106,-0.073,0.0
-0.056,-0.023,0.033,0.04,-0.044,0.005,0.007,-0.153,-0.155,-0.102,-0.068,0.002
-0.054,0.027,0.081,0.013,-0.067,0.054,0.021,-0.161,-0.143,-0.094,-0.056,0.013
-0.05,0.036,0.086,0.007,-0.069,0.061,0.054,-0.146,-0.12,-0.085,-0.041,0.022
-0.016,0.079,0.096,-0.032,-0.056,0.087,0.061,-0.118,-0.093,-0.049,-0.025,0.036
0.019,0.148,0.129,-0.083,-0.055,0.138,0.022,-0.178,-0.084,-0.031,0.001,0.067
0.047,0.161,0.114,-0.104,-0.033,0.137,-0.036,-0.271,-0.085,-0.041,0.039,0.085
0.053,0.136,0.083,-0.095,-0.015,0.109,-0.05,-0.314,-0.093,-0.038,0.027,0.061
0.011,0.075,0.064,-0.043,-0.027,0.069,-0.027,-0.337,-0.121,-0.058,-0.014,0.026
-0.039,0.007,0.046,0.015,-0.043,0.027,-0.02,-0.335,-0.141,-0.087,-0.044,-0.007
-0.069,-0.039,0.03,0.054,-0.049,-0.005,-0.012,-0.349,-0.194,-0.139,-0.089,-0.038
-0.063,-0.061,0.001,0.062,-0.032,-0.03,-0.007,-0.353,-0.203,-0.149,-0.1,-0.052
-0.09,-0.082,0.008,0.086,-0.048,-0.037,-0.031,-0.347,-0.216,-0.162,-0.114,-0.069
-0.117,-0.077,0.04,0.096,-0.078,-0.018,-0.044,-0.356,-0.209,-0.149,-0.103,-0.065
-0.086,-0.101,-0.016,0.093,-0.035,-0.058,-0.017,-0.341,-0.216,-0.158,-0.123,-0.081
-0.091,-0.084,0.008,0.088,-0.049,-0.038,-0.033,-0.36,-0.218,-0.166,-0.104,-0.075
-0.135,-0.137,-0.002,0.136,-0.066,-0.069,0.028,-0.258,-0.19,-0.184,-0.13,-0.11
-0.19,-0.148,0.041,0.169,-0.116,-0.053,0.126,-0.191,-0.24,-0.279,-0.218,-0.156
-0.093,0.002,0.094,0.045,-0.093,0.048,0.171,-0.024,0.084,0.031,0.006,-0.036
0.376,0.346,-0.03,-0.361,0.203,0.158,0.109,0.405,0.734,0.703,0.517,0.32
0.828,0.97,0.142,-0.899,0.343,0.556,-0.314,0.133,1.546,1.651,1.282,0.915
0.552,0.753,0.201,-0.652,0.175,0.477,-0.556,-0.739,0.763,1.095,0.979,0.826
-0.061,0.015,0.076,0.023,-0.068,0.046,-0.451,-1.107,-0.983,-0.55,-0.154,0.136
-0.219,-0.21,0.009,0.215,-0.114,-0.1,-0.344,-0.818,-0.912,-0.632,-0.337,-0.115
-0.144,-0.221,-0.078,0.183,-0.033,-0.149,-0.109,-0.339,-0.43,-0.333,-0.219,-0.122
-0.114,-0.144,-0.03,0.129,-0.042,-0.087,0.041,-0.148,-0.274,-0.252,-0.176,-0.112
-0.087,-0.118,-0.031,0.103,-0.028,-0.075,0.049,-0.195,-0.182,-0.168,-0.128,-0.098
-0.08,-0.107,-0.028,0.094,-0.026,-0.068,0.031,-0.183,-0.187,-0.17,-0.121,-0.096
-0.083,-0.091,-0.008,0.087,-0.037,-0.049,0.018,-0.176,-0.118,-0.106,-0.082,-0.081
-0.081,-0.089,-0.009,0.086,-0.036,-0.049,0.044,-0.155,-0.133,-0.122,-0.094,-0.08
-0.079,-0.071,0.008,0.074,-0.043,-0.031,0.058,-0.119,-0.095,-0.089,-0.074,-0.069
-0.058,-0.068,-0.011,0.063,-0.023,-0.039,0.061,-0.107,-0.085,-0.081,-0.075,-0.065
-0.033,-0.052,-0.019,0.043,-0.006,-0.036,0.06,-0.076,-0.047,-0.057,-0.061,-0.058
-0.038,-0.048,-0.009,0.043,-0.014,-0.028,0.066,-0.051,-0.017,-0.038,-0.053,-0.05
-0.019,-0.025,-0.006,0.022,-0.006,-0.015,0.063,0.054,0.017,-0.015,-0.032,-0.041
0.008,0.013,0.005,-0.011,0.001,0.009,0.072,0.206,0.063,0.017,0.0,-0.028
0.03,0.021,-0.01,-0.025,0.02,0.005,0.08,0.296,0.108,0.048,0.01,-0.006
0.078,0.032,-0.046,-0.055,0.062,-0.006,0.082,0.368,0.164,0.101,0.046,0.019
0.107,0.069,-0.038,-0.088,0.072,0.015,0.101,0.45,0.219,0.146,0.089,0.037
0.151,0.098,-0.053,-0.125,0.102,0.022,0.098,0.522,0.286,0.212,0.13,0.057
0.207,0.134,-0.073,-0.17,0.14,0.03,0.095,0.579,0.328,0.256,0.161,0.084
0.22,0.161,-0.059,-0.19,0.139,0.051,0.093,0.634,0.362,0.291,0.187,0.12
0.241,0.182,-0.059,-0.211,0.15,0.061,0.09,0.652,0.369,0.324,0.23,0.156
0.252,0.204,-0.048,-0.228,0.149,0.078,0.087,0.62,0.363,0.329,0.254,0.163
0.24,0.195,-0.045,-0.217,0.142,0.075,0.071,0.537,0.336,0.315,0.24,0.148
0.205,0.178,-0.027,-0.192,0.116,0.075,0.058,0.425,0.271,0.255,0.199,0.142
0.118,0.152,0.034,-0.135,0.042,0.093,0.05,0.306,0.183,0.19,0.15,0.115
0.054,0.103,0.049,-0.079,0.003,0.076,0.045,0.204,0.086,0.109,0.093,0.065
0.017,0.057,0.041,-0.037,-0.012,0.049,0.041,0.146,0.022,0.037,0.028,0.018
-0.027,0.013,0.041,0.007,-0.034,0.027,0.036,0.104,-0.018,0.003,-0.01,-0.01
-0.045,-0.009,0.036,0.027,-0.041,0.013,0.033,0.083,-0.046,-0.029,-0.027,-0.02
-0.046,-0.012,0.033,0.029,-0.039,0.01,0.023,0.071,-0.065,-0.044,-0.045,-0.027
-0.057,-0.016,0.041,0.036,-0.048,0.013,-0.002,0.067,-0.065,-0.048,-0.054,-0.038
-0.072,-0.019,0.052,0.046,-0.062,0.016,-0.031,0.073,-0.065,-0.053,-0.052,-0.043
-0.07,-0.023,0.047,0.046,-0.058,0.012,-0.029,0.074,-0.068,-0.055,-0.05,-0.038
-0.072,-0.027,0.045,0.049,-0.058,0.009,-0.01,0.078,-0.064,-0.059,-0.05,-0.03
-0.071,-0.03,0.041,0.05,-0.056,0.006,-0.008,0.08,-0.065,-0.06,-0.047,-0.025
-0.07,-0.031,0.04,0.05,-0.055,0.004,-0.004,0.078,-0.065,-0.065,-0.044,-0.018
-0.078,-0.035,0.043,0.056,-0.06,0.004,-0.001,0.071,-0.065,-0.065,-0.046,-0.01
-0.083,-0.035,0.048,0.059,-0.065,0.006,0.004,0.064,-0.065,-0.06,-0.037,-0.026
-0.088,-0.039,0.049,0.063,-0.068,0.005,0.004,0.058,-0.076,-0.061,-0.042,-0.038
-0.077,-0.051,0.026,0.064,-0.052,-0.012,-0.004,0.05,-0.076,-0.059,-0.06,-0.033
-0.08,-0.055,0.025,0.067,-0.052,-0.015,-0.011,0.045,-0.078,-0.067,-0.063,-0.036
-0.089,-0.056,0.033,0.072,-0.06,-0.011,-0.018,0.037,-0.104,-0.075,-0.067,-0.034
-0.079,-0.054,0.025,0.066,-0.052,-0.014,-0.026,0.027,-0.112,-0.079,-0.071,-0.036
-0.087,-0.06,0.027,0.073,-0.056,-0.017,-0.033,0.017,-0.109,-0.085,-0.074,-0.035
-0.091,-0.071,0.019,0.081,-0.055,-0.026,-0.038,0.008,-0.122,-0.089,-0.076,-0.036
-0.092,-0.07,0.022,0.081,-0.057,-0.024,-0.043,0.003,-0.13,-0.1,-0.075,-0.049
-0.08,-0.069,0.011,0.074,-0.045,-0.029,-0.044,-0.003,-0.13,-0.105,-0.075,-0.05
-0.062,-0.065,-0.002,0.064,-0.03,-0.033,-0.04,-0.006,-0.13,-0.109,-0.075,-0.051
-0.093,-0.065,0.028,0.079,-0.06,-0.018,-0.037,-0.012,-0.129,-0.108,-0.073,-0.054
-0.102,-0.064,0.038,0.082,-0.069,-0.013,-0.035,-0.014,-0.131,-0.101,-0.066,-0.056
-0.082,-0.05,0.032,0.066,-0.057,-0.009,-0.031,-0.011,-0.126,-0.094,-0.061,-0.054
-0.075,-0.046,0.029,0.061,-0.051,-0.009,-0.03,-0.004,-0.116,-0.09,-0.057,-0.042
-0.049,-0.007,0.042,0.028,-0.045,0.017,-0.032,-0.003,-0.101,-0.078,-0.049,-0.037
-0.037,0.017,0.054,0.01,-0.046,0.035,-0.023,0.007,-0.093,-0.078,-0.046,-0.042
-0.032,0.035,0.066,-0.002,-0.049,0.05,-0.002,0.046,-0.076,-0.062,-0.027,-0.035
0.006,0.106,0.1,-0.056,-0.047,0.103,0.013,0.041,-0.033,-0.018,-0.002,0.006
0.044,0.142,0.098,-0.093,-0.027,0.12,-0.037,0.021,-0.028,-0.016,0.006,0.044
0.058,0.139,0.081,-0.099,-0.011,0.109,-0.089,0.028,-0.034,-0.013,0.02,0.048
0.022,0.086,0.064,-0.054,-0.021,0.075,-0.083,0.014,-0.053,-0.037,-0.001,0.027
-0.029,0.006,0.035,0.011,-0.032,0.02,-0.079,0.001,-0.071,-0.059,-0.03,-0.008
-0.069,-0.062,0.007,0.066,-0.038,-0.027,-0.072,-0.008,-0.111,-0.101,-0.077,-0.051
-0.078,-0.073,0.005,0.075,-0.041,-0.034,-0.074,-0.049,-0.149,-0.141,-0.109,-0.066
-0.08,-0.086,-0.007,0.083,-0.036,-0.046,-0.066,-0.046,-0.139,-0.141,-0.115,-0.071
-0.092,-0.102,-0.01,0.097,-0.04,-0.056,-0.066,-0.05,-0.155,-0.158,-0.123,-0.07
-0.086,-0.106,-0.02,0.096,-0.033,-0.062,-0.065,-0.038,-0.13,-0.126,-0.105,-0.069
-0.077,-0.108,-0.031,0.093,-0.023,-0.069,-0.049,-0.038,-0.165,-0.149,-0.117,-0.072
-0.067,-0.115,-0.048,0.091,-0.009,-0.081,-0.036,-0.027,-0.122,-0.105,-0.096,-0.067
-0.145,-0.215,-0.07,0.18,-0.037,-0.142,0.08,0.098,-0.202,-0.251,-0.219,-0.157
-0.162,-0.131,0.03,0.147,-0.096,-0.05,0.133,0.158,-0.076,-0.173,-0.167,-0.127
0.112,0.094,-0.018,-0.103,0.065,0.038,0.139,0.495,0.471,0.372,0.218,0.117
0.595,0.676,0.08,-0.635,0.257,0.378,-0.074,0.683,1.331,1.298,0.964,0.653
0.639,1.031,0.392,-0.835,0.123,0.711,-0.446,0.005,1.579,1.746,1.389,1.014
0.086,0.361,0.275,-0.224,-0.095,0.318,-0.44,-0.637,-0.163,0.178,0.351,0.448
-0.227,-0.176,0.051,0.202,-0.139,-0.062,-0.35,-0.603,-1.084,-0.792,-0.391,-0.085
-0.172,-0.24,-0.068,0.206,-0.051,-0.154,-0.224,-0.218,-0.535,-0.426,-0.268,-0.123
-0.099,-0.221,-0.122,0.16,0.012,-0.171,-0.027,0.092,-0.299,-0.307,-0.236,-0.134
-0.082,-0.16,-0.079,0.121,-0.001,-0.119,0.021,0.12,-0.129,-0.173,-0.151,-0.11
-0.08,-0.147,-0.067,0.114,-0.006,-0.106,0.028,0.085,-0.12,-0.167,-0.142,-0.108
-0.074,-0.131,-0.057,0.103,-0.009,-0.093,0.036,0.093,-0.07,-0.113,-0.107,-0.094
-0.079,-0.132,-0.053,0.105,-0.013,-0.092,0.054,0.09,-0.055,-0.107,-0.095,-0.084
-0.083,-0.123,-0.04,0.103,-0.021,-0.081,0.056,0.098,-0.053,-0.107,-0.092,-0.077
-0.066,-0.118,-0.052,0.092,-0.007,-0.085,0.057,0.102,-0.003,-0.075,-0.072,-0.067
-0.043,-0.094,-0.051,0.068,0.004,-0.072,0.062,0.108,0.006,-0.085,-0.07,-0.065
-0.036,-0.068,-0.032,0.052,-0.002,-0.049,0.057,0.138,0.052,-0.048,-0.049,-0.054
-0.024,-0.064,-0.04,0.044,0.008,-0.052,0.051,0.164,0.079,-0.028,-0.045,-0.051
0.001,-0.051,-0.052,0.025,0.027,-0.051,0.046,0.187,0.11,0.018,-0.034,-0.042
0.03,-0.034,-0.064,0.002,0.047,-0.049,0.076,0.25,0.158,0.053,-0.018,-0.03
0.064,-0.007,-0.072,-0.028,0.068,-0.039,0.104,0.315,0.207,0.084,0.02,-0.006
0.104,0.022,-0.082,-0.063,0.093,-0.03,0.094,0.365,0.273,0.144,0.066,0.02
0.119,0.05,-0.069,-0.084,0.094,-0.009,0.087,0.392,0.337,0.201,0.109,0.037
0.177,0.097,-0.08,-0.137,0.128,0.008,0.11,0.433,0.391,0.254,0.138,0.071
0.192,0.119,-0.074,-0.155,0.133,0.022,0.119,0.484,0.437,0.295,0.179,0.103
0.19,0.122,-0.067,-0.156,0.128,0.027,0.112,0.501,0.458,0.334,0.221,0.134
0.229,0.161,-0.068,-0.195,0.148,0.046,0.118,0.495,0.464,0.361,0.235,0.159
0.219,0.181,-0.038,-0.2,0.129,0.071,0.096,0.449,0.44,0.357,0.251,0.164
0.198,0.164,-0.035,-0.181,0.116,0.064,0.055,0.369,0.389,0.326,0.241,0.149
0.122,0.132,0.01,-0.127,0.055,0.071,0.042,0.265,0.303,0.245,0.187,0.108
0.046,0.087,0.041,-0.067,0.002,0.064,0.037,0.16,0.212,0.163,0.115,0.081
0.011,0.041,0.029,-0.026,-0.009,0.035,0.033,0.094,0.138,0.091,0.061,0.05
-0.036,0.006,0.042,0.015,-0.039,0.024,0.025,0.047,0.075,0.027,0.02,-0.005
-0.053,-0.02,0.033,0.036,-0.042,0.006,0.023,0.014,0.032,-0.011,-0.013,-0.04
-0.032,-0.042,-0.01,0.037,-0.011,-0.026,0.034,0.006,0.005,-0.032,-0.026,-0.055
-0.055,-0.051,0.004,0.052,-0.029,-0.023,0.047,-0.002,-0.001,-0.047,-0.041,-0.056
-0.047,-0.054,-0.007,0.051,-0.02,-0.03,0.075,-0.011,0.0,-0.064,-0.055,-0.054
-0.019,-0.059,-0.04,0.04,0.011,-0.049,0.075,-0.015,0.008,-0.064,-0.055,-0.056
-0.038,-0.058,-0.02,0.048,-0.009,-0.039,0.075,-0.011,0.012,-0.058,-0.05,-0.054
-0.02,-0.053,-0.033,0.037,0.007,-0.043,0.074,-0.01,0.007,-0.057,-0.049,-0.057
-0.048,-0.05,-0.002,0.049,-0.023,-0.026,0.077,-0.005,0.005,-0.05,-0.044,-0.06
-0.08,-0.047,0.034,0.064,-0.057,-0.006,0.067,-0.008,0.001,-0.053,-0.046,-0.065
-0.078,-0.042,0.036,0.06,-0.057,-0.003,0.034,-0.028,0.0,-0.072,-0.064,-0.068
-0.07,-0.04,0.03,0.054,-0.05,-0.005,0.042,-0.03,-0.005,-0.081,-0.071,-0.071
-0.036,-0.046,-0.01,0.041,-0.013,-0.028,0.041,-0.018,-0.015,-0.082,-0.069,-0.074
-0.054,-0.052,0.002,0.053,-0.028,-0.025,0.031,-0.033,-0.022,-0.086,-0.07,-0.077
-0.056,-0.058,-0.002,0.057,-0.027,-0.03,0.027,-0.066,-0.031,-0.088,-0.07,-0.08
-0.01,-0.062,-0.053,0.037,0.022,-0.057,0.018,-0.072,-0.041,-0.091,-0.07,-0.081
-0.048,-0.067,-0.018,0.058,-0.015,-0.042,0.014,-0.068,-0.042,-0.09,-0.074,-0.084
-0.083,-0.071,0.012,0.077,-0.048,-0.029,0.01,-0.073,-0.04,-0.09,-0.075,-0.085
-0.061,-0.075,-0.014,0.068,-0.023,-0.044,0.01,-0.075,-0.039,-0.09,-0.075,-0.088
-0.073,-0.084,-0.01,0.079,-0.031,-0.047,0.008,-0.083,-0.044,-0.09,-0.075,-0.09
-0.069,-0.082,-0.013,0.076,-0.028,-0.047,0.004,-0.094,-0.056,-0.09,-0.066,-0.09
-0.078,-0.077,0.001,0.077,-0.039,-0.038,0.005,-0.093,-0.055,-0.089,-0.075,-0.09
-0.068,-0.07,-0.002,0.069,-0.033,-0.036,0.008,-0.086,-0.05,-0.081,-0.079,-0.091
-0.067,-0.067,0.0,0.067,-0.033,-0.033,0.012,-0.084,-0.049,-0.074,-0.067,-0.089
-0.074,-0.042,0.033,0.058,-0.053,-0.004,0.017,-0.077,-0.044,-0.064,-0.058,-0.081
-0.043,0.001,0.044,0.021,-0.043,0.022,0.001,-0.066,-0.037,-0.058,-0.047,-0.071
-0.033,0.022,0.055,0.005,-0.045,0.038,0.021,-0.051,-0.016,-0.041,-0.045,-0.065
-0.009,0.087,0.097,-0.039,-0.053,0.092,0.056,-0.039,0.03,-0.008,-0.022,-0.047
-0.002,0.132,0.134,-0.066,-0.068,0.133,0.028,-0.064,0.04,-0.006,0.017,-0.025
0.038,0.142,0.104,-0.091,-0.033,0.123,-0.014,-0.094,0.031,-0.003,0.03,-0.025
0.044,0.119,0.075,-0.082,-0.016,0.097,-0.025,-0.107,0.029,-0.011,0.002,-0.024
-0.022,0.045,0.067,-0.012,-0.045,0.056,-0.012,-0.109,0.004,-0.034,-0.022,-0.043
-0.03,-0.029,0.001,0.029,-0.015,-0.014,-0.003,-0.109,-0.044,-0.076,-0.065,-0.089
-0.047,-0.076,-0.029,0.061,-0.008,-0.052,-0.005,-0.133,-0.095,-0.133,-0.106,-0.105
-0.079,-0.086,-0.007,0.083,-0.036,-0.046,0.001,-0.122,-0.085,-0.111,-0.094,-0.105
-0.08,-0.097,-0.017,0.089,-0.031,-0.057,0.004,-0.117,-0.106,-0.134,-0.107,-0.117
-0.07,-0.106,-0.036,0.088,-0.017,-0.071,0.003,-0.117,-0.09,-0.128,-0.097,-0.118
-0.061,-0.124,-0.063,0.092,0.002,-0.093,0.016,-0.097,-0.121,-0.16,-0.129,-0.142
-0.073,-0.102,-0.029,0.088,-0.021,-0.065,0.013,-0.106,-0.089,-0.134,-0.099,-0.122
-0.12,-0.198,-0.078,0.159,-0.021,-0.137,0.095,0.012,-0.108,-0.185,-0.165,-0.176
-0.159,-0.172,-0.013,0.165,-0.073,-0.092,0.181,0.073,-0.126,-0.246,-0.223,-0.219
-0.031,0.022,0.053,0.004,-0.042,0.038,0.194,0.298,0.323,0.185,0.085,-0.039
0.405,0.473,0.067,-0.439,0.168,0.27,0.069,0.657,1.11,1.005,0.715,0.405
0.67,1.061,0.392,-0.866,0.139,0.726,-0.309,0.222,1.788,1.85,1.425,0.938
0.241,0.634,0.393,-0.438,-0.077,0.514,-0.452,-0.55,0.473,0.765,0.762,0.62
-0.216,-0.071,0.144,0.143,-0.18,0.036,-0.313,-0.677,-1.042,-0.73,-0.302,-0.049
-0.221,-0.212,0.009,0.217,-0.114,-0.101,-0.204,-0.337,-0.682,-0.545,-0.307,-0.189
-0.119,-0.22,-0.102,0.17,-0.008,-0.161,-0.046,0.004,-0.337,-0.336,-0.235,-0.194
-0.072,-0.161,-0.09,0.117,0.01,-0.125,0.06,0.091,-0.175,-0.205,-0.157,-0.162
-0.091,-0.141,-0.05,0.117,-0.02,-0.095,0.079,0.036,-0.125,-0.154,-0.119,-0.15
-0.078,-0.123,-0.045,0.101,-0.016,-0.084,0.085,0.051,-0.099,-0.147,-0.124,-0.143
-0.061,-0.112,-0.051,0.086,-0.004,-0.081,0.069,0.07,-0.035,-0.094,-0.096,-0.127
-0.07,-0.105,-0.035,0.087,-0.017,-0.069,0.064,0.077,-0.043,-0.114,-0.106,-0.127
-0.056,-0.093,-0.037,0.075,-0.009,-0.065,0.063,0.076,-0.006,-0.079,-0.082,-0.112
-0.048,-0.088,-0.04,0.068,-0.004,-0.064,0.065,0.1,-0.011,-0.087,-0.08,-0.107
-0.027,-0.07,-0.043,0.049,0.008,-0.056,0.066,0.132,0.029,-0.06,-0.063,-0.094
-0.019,-0.059,-0.04,0.039,0.011,-0.049,0.063,0.146,0.056,-0.037,-0.048,-0.085
-0.026,-0.045,-0.02,0.036,-0.003,-0.032,0.076,0.178,0.102,-0.003,-0.025,-0.072
0.001,-0.029,-0.03,0.015,0.016,-0.029,0.091,0.218,0.147,0.031,0.005,-0.053
0.048,-0.004,-0.052,-0.022,0.05,-0.028,0.09,0.276,0.19,0.067,0.028,-0.032
0.075,0.028,-0.046,-0.051,0.06,-0.009,0.082,0.337,0.243,0.11,0.057,-0.006
0.102,0.059,-0.043,-0.08,0.072,0.008,0.096,0.413,0.313,0.175,0.102,0.015
0.128,0.087,-0.041,-0.107,0.084,0.023,0.114,0.483,0.37,0.232,0.143,0.04
0.15,0.117,-0.033,-0.133,0.092,0.041,0.103,0.534,0.413,0.272,0.182,0.072
0.187,0.147,-0.04,-0.167,0.113,0.053,0.095,0.567,0.445,0.316,0.214,0.107
0.213,0.169,-0.044,-0.191,0.128,0.062,0.085,0.558,0.45,0.343,0.243,0.131
0.189,0.167,-0.021,-0.178,0.105,0.073,0.077,0.522,0.441,0.361,0.248,0.13
0.129,0.155,0.026,-0.142,0.051,0.09,0.075,0.443,0.387,0.326,0.235,0.131
0.106,0.151,0.044,-0.129,0.031,0.097,0.071,0.332,0.303,0.25,0.21,0.112
0.073,0.125,0.052,-0.099,0.01,0.088,0.068,0.234,0.215,0.171,0.148,0.064
0.01,0.075,0.066,-0.043,-0.028,0.07,0.065,0.151,0.135,0.091,0.087,0.025
-0.03,0.028,0.058,0.001,-0.045,0.043,0.062,0.088,0.059,0.025,0.034,-0.009
-0.054,0.0,0.054,0.026,-0.054,0.027,0.06,0.038,0.0,-0.024,-0.002,-0.043
-0.058,-0.01,0.048,0.034,-0.053,0.019,0.058,0.011,-0.023,-0.056,-0.015,-0.064
-0.061,-0.02,0.042,0.04,-0.051,0.011,0.052,0.01,-0.026,-0.066,-0.023,-0.062
-0.071,-0.03,0.04,0.051,-0.055,0.005,0.047,0.01,-0.025,-0.065,-0.032,-0.058
-0.075,-0.035,0.04,0.055,-0.057,0.002,0.044,0.005,-0.022,-0.065,-0.036,-0.057
-0.075,-0.034,0.04,0.055,-0.057,0.002,0.039,0.005,-0.02,-0.065,-0.035,-0.052
-0.077,-0.038,0.04,0.057,-0.058,0.001,0.034,0.004,-0.02,-0.065,-0.035,-0.051
-0.08,-0.041,0.04,0.061,-0.06,0.0,0.031,-0.005,-0.025,-0.069,-0.035,-0.048
-0.08,-0.04,0.04,0.06,-0.06,0.0,0.028,-0.011,-0.036,-0.07,-0.035,-0.056
-0.088,-0.044,0.044,0.066,-0.066,0.0,0.025,-0.022,-0.04,-0.07,-0.036,-0.075
-0.091,-0.045,0.045,0.067,-0.067,0.0,0.023,-0.025,-0.05,-0.075,-0.041,-0.075
-0.09,-0.045,0.045,0.067,-0.067,0.0,0.019,-0.056,-0.056,-0.075,-0.046,-0.074
-0.09,-0.045,0.045,0.067,-0.067,0.0,0.023,-0.112,-0.062,-0.077,-0.049,-0.076
-0.09,-0.045,0.045,0.067,-0.067,0.0,0.025,-0.122,-0.076,-0.089,-0.055,-0.074
-0.089,-0.044,0.045,0.066,-0.067,0.001,0.025,-0.12,-0.087,-0.101,-0.061,-0.078
-0.084,-0.039,0.045,0.062,-0.065,0.002,0.029,-0.118,-0.099,-0.105,-0.06,-0.08
-0.085,-0.04,0.045,0.062,-0.065,0.002,0.03,-0.114,-0.103,-0.105,-0.06,-0.08
-0.085,-0.039,0.045,0.062,-0.065,0.003,0.03,-0.116,-0.109,-0.108,-0.06,-0.08
-0.085,-0.041,0.044,0.062,-0.065,0.001,0.034,-0.118,-0.11,-0.111,-0.06,-0.08
-0.085,-0.039,0.046,0.061,-0.065,0.003,0.036,-0.122,-0.111,-0.109,-0.059,-0.08
-0.086,-0.052,0.035,0.068,-0.06,-0.008,0.033,-0.125,-0.118,-0.11,-0.051,-0.073
-0.106,-0.083,0.023,0.094,-0.064,-0.029,0.037,-0.129,-0.115,-0.11,-0.043,-0.066
-0.102,-0.089,0.013,0.095,-0.057,-0.038,0.031,-0.129,-0.112,-0.111,-0.035,-0.06
-0.083,-0.075,0.009,0.079,-0.046,-0.033,0.051,-0.12,-0.1,-0.104,-0.028,-0.052
-0.082,-0.046,0.037,0.064,-0.059,-0.004,0.066,-0.109,-0.071,-0.08,-0.02,-0.039
-0.063,-0.021,0.042,0.042,-0.052,0.01,0.075,-0.108,-0.054,-0.065,-0.01,-0.029
-0.025,0.029,0.054,-0.002,-0.04,0.041,0.107,-0.111,-0.032,-0.038,0.018,0.0
-0.011,0.08,0.091,-0.035,-0.051,0.085,0.058,-0.109,-0.015,-0.006,0.041,0.036
0.009,0.1,0.091,-0.055,-0.041,0.096,0.017,-0.116,-0.019,-0.009,0.04,0.043
0.026,0.086,0.06,-0.056,-0.017,0.072,0.029,-0.113,-0.024,-0.02,0.042,0.032
-0.027,0.004,0.031,0.012,-0.029,0.017,0.03,-0.118,-0.048,-0.035,0.025,0.013
-0.097,-0.084,0.013,0.09,-0.055,-0.035,0.039,-0.119,-0.069,-0.057,-0.005,-0.016
-0.107,-0.129,-0.022,0.119,-0.042,-0.075,0.034,-0.131,-0.126,-0.109,-0.045,-0.054
-0.097,-0.143,-0.046,0.12,-0.025,-0.094,0.034,-0.139,-0.139,-0.118,-0.06,-0.06
-0.105,-0.16,-0.056,0.133,-0.024,-0.108,0.038,-0.126,-0.154,-0.136,-0.076,-0.061
-0.091,-0.156,-0.066,0.124,-0.012,-0.111,0.029,-0.138,-0.15,-0.125,-0.071,-0.058
-0.098,-0.178,-0.08,0.138,-0.009,-0.128,0.044,-0.113,-0.157,-0.131,-0.085,-0.061
-0.095,-0.147,-0.052,0.121,-0.021,-0.099,0.031,-0.143,-0.166,-0.134,-0.081,-0.064
-0.132,-0.215,-0.083,0.174,-0.025,-0.149,0.112,-0.067,-0.151,-0.161,-0.113,-0.112
-0.178,-0.287,-0.11,0.233,-0.034,-0.198,0.254,0.022,-0.202,-0.27,-0.193,-0.158
-0.049,-0.13,-0.081,0.09,0.016,-0.105,0.288,0.169,0.159,0.071,0.041,-0.022
0.321,0.245,-0.077,-0.283,0.199,0.084,0.172,0.593,0.852,0.78,0.581,0.352
0.698,0.893,0.195,-0.796,0.251,0.543,-0.248,0.346,1.697,1.754,1.379,0.951
0.413,0.699,0.285,-0.556,0.064,0.492,-0.486,-0.522,0.875,1.189,1.083,0.871
-0.142,-0.094,0.047,0.118,-0.094,-0.024,-0.37,-0.848,-0.932,-0.515,-0.095,0.158
-0.243,-0.317,-0.075,0.28,-0.084,-0.196,-0.262,-0.537,-0.85,-0.602,-0.284,-0.099
-0.156,-0.317,-0.16,0.237,0.002,-0.238,-0.029,-0.121,-0.384,-0.313,-0.179,-0.103
-0.129,-0.275,-0.146,0.202,0.009,-0.21,0.13,0.046,-0.239,-0.228,-0.145,-0.089
-0.128,-0.241,-0.112,0.185,-0.008,-0.176,0.101,0.032,-0.135,-0.128,-0.078,-0.073
-0.102,-0.22,-0.118,0.161,0.008,-0.169,0.087,0.031,-0.145,-0.153,-0.09,-0.086
-0.094,-0.196,-0.103,0.145,0.005,-0.149,0.085,0.028,-0.069,-0.084,-0.053,-0.075
-0.105,-0.193,-0.089,0.149,-0.008,-0.141,0.109,0.042,-0.084,-0.103,-0.056,-0.077
-0.085,-0.177,-0.093,0.131,0.004,-0.135,0.101,0.066,-0.049,-0.076,-0.03,-0.06
-0.063,-0.171,-0.108,0.118,0.023,-0.139,0.078,0.087,-0.041,-0.071,-0.024,-0.054
-0.06,-0.154,-0.094,0.108,0.017,-0.124,0.081,0.116,-0.001,-0.042,-0.009,-0.042
-0.046,-0.141,-0.096,0.094,0.025,-0.118,0.063,0.14,0.032,-0.013,0.002,-0.034
-0.043,-0.13,-0.088,0.087,0.023,-0.109,0.086,0.17,0.06,0.009,0.017,-0.027
-0.035,-0.118,-0.083,0.077,0.024,-0.101,0.13,0.214,0.118,0.048,0.038,-0.013
0.007,-0.096,-0.103,0.045,0.055,-0.099,0.148,0.281,0.158,0.074,0.058,0.006
0.049,-0.068,-0.117,0.009,0.083,-0.092,0.166,0.363,0.212,0.121,0.093,0.028
0.065,-0.042,-0.106,-0.012,0.086,-0.074,0.171,0.445,0.273,0.165,0.127,0.048
0.087,-0.016,-0.102,-0.035,0.095,-0.059,0.189,0.511,0.336,0.221,0.169,0.083
0.141,0.019,-0.122,-0.079,0.131,-0.051,0.191,0.57,0.39,0.283,0.21,0.114
0.165,0.059,-0.106,-0.112,0.135,-0.024,0.171,0.604,0.419,0.327,0.25,0.129
0.189,0.092,-0.097,-0.14,0.143,-0.002,0.166,0.599,0.427,0.351,0.27,0.154
0.188,0.102,-0.085,-0.145,0.136,0.008,0.153,0.583,0.424,0.357,0.287,0.176
0.169,0.089,-0.08,-0.129,0.124,0.004,0.126,0.537,0.389,0.342,0.281,0.168
0.139,0.073,-0.066,-0.106,0.102,0.004,0.083,0.432,0.308,0.285,0.252,0.153
0.084,0.043,-0.041,-0.063,0.062,0.001,0.052,0.295,0.214,0.198,0.195,0.121
0.027,-0.007,-0.034,-0.01,0.03,-0.02,0.067,0.178,0.122,0.116,0.125,0.072
-0.017,-0.051,-0.034,0.034,0.009,-0.042,0.093,0.112,0.048,0.048,0.085,0.03
-0.032,-0.087,-0.055,0.06,0.011,-0.071,0.095,0.079,0.001,0.004,0.046,0.007
-0.055,-0.11,-0.055,0.083,0.0,-0.083,0.096,0.058,-0.035,-0.03,0.026,0.003
-0.052,-0.109,-0.057,0.081,0.002,-0.083,0.094,0.041,-0.046,-0.042,0.016,-0.005
-0.063,-0.111,-0.048,0.087,-0.007,-0.079,0.097,0.033,-0.055,-0.039,0.005,-0.01
-0.055,-0.109,-0.054,0.082,-0.001,-0.081,0.104,0.035,-0.062,-0.04,0.005,-0.019
-0.054,-0.119,-0.064,0.087,0.005,-0.091,0.088,0.039,-0.059,-0.04,0.0,-0.036
-0.089,-0.145,-0.056,0.117,-0.016,-0.1,0.08,0.04,-0.061,-0.039,-0.001,-0.041
-0.081,-0.145,-0.063,0.113,-0.009,-0.103,0.082,0.035,-0.06,-0.046,-0.006,-0.04
-0.088,-0.145,-0.057,0.117,-0.015,-0.101,0.078,0.035,-0.06,-0.056,-0.004,-0.044
-0.083,-0.145,-0.062,0.114,-0.01,-0.103,0.079,0.034,-0.064,-0.055,0.0,-0.046
-0.078,-0.147,-0.068,0.113,-0.005,-0.107,0.072,0.029,-0.07,-0.054,0.0,-0.044
-0.098,-0.164,-0.066,0.131,-0.015,-0.114,0.077,0.03,-0.071,-0.066,-0.007,-0.041
-0.084,-0.166,-0.081,0.125,-0.001,-0.123,0.082,0.027,-0.069,-0.077,-0.02,-0.04
-0.087,-0.165,-0.078,0.126,-0.004,-0.121,0.051,0.018,-0.081,-0.074,-0.02,-0.04
-0.092,-0.165,-0.073,0.129,-0.009,-0.119,0.055,0.012,-0.101,-0.078,-0.021,-0.04
-0.089,-0.165,-0.076,0.127,-0.006,-0.121,0.075,0.001,-0.106,-0.081,-0.026,-0.04
-0.095,-0.165,-0.07,0.13,-0.012,-0.117,0.067,-0.003,-0.111,-0.08,-0.024,-0.042
-0.094,-0.165,-0.071,0.13,-0.011,-0.117,0.071,-0.016,-0.114,-0.084,-0.028,-0.047
-0.096,-0.165,-0.069,0.131,-0.013,-0.117,0.086,-0.044,-0.12,-0.091,-0.03,-0.051
-0.098,-0.164,-0.066,0.132,-0.015,-0.115,0.095,-0.046,-0.128,-0.096,-0.03,-0.054
-0.108,-0.171,-0.063,0.14,-0.022,-0.117,0.095,-0.045,-0.123,-0.094,-0.025,-0.059
-0.114,-0.182,-0.068,0.148,-0.023,-0.124,0.083,-0.045,-0.12,-0.092,-0.017,-0.057
-0.116,-0.172,-0.056,0.144,-0.03,-0.113,0.085,-0.045,-0.115,-0.077,-0.009,-0.048
-0.086,-0.124,-0.039,0.105,-0.023,-0.081,0.07,-0.042,-0.111,-0.073,-0.001,-0.037
-0.065,-0.099,-0.034,0.082,-0.016,-0.066,0.07,-0.016,-0.099,-0.052,0.007,-0.029
-0.051,-0.065,-0.013,0.058,-0.019,-0.039,0.051,0.023,-0.071,0.001,0.039,0.006
-0.021,-0.003,0.018,0.011,-0.02,0.008,0.027,0.024,-0.047,0.055,0.066,0.042
