-0.052,-0.02,0.032,0.036,-0.042,0.006,0.006,0.034,-0.055,-0.085,-0.085,-0.07
-0.064,-0.023,0.041,0.044,-0.052,0.009,0.008,0.053,-0.054,-0.081,-0.081,-0.068
-0.068,-0.03,0.039,0.049,-0.053,0.004,0.006,0.056,-0.05,-0.074,-0.074,-0.062
-0.069,-0.034,0.035,0.051,-0.051,0.0,0.005,0.055,-0.047,-0.068,-0.068,-0.059
-0.059,-0.027,0.032,0.043,-0.045,0.002,0.005,0.055,-0.042,-0.061,-0.061,-0.053
-0.038,-0.012,0.027,0.025,-0.032,0.007,0.005,0.055,-0.04,-0.055,-0.055,-0.05
-0.034,-0.009,0.025,0.021,-0.029,0.008,0.006,0.053,-0.033,-0.049,-0.05,-0.044
-0.051,-0.021,0.03,0.036,-0.04,0.004,0.001,0.07,-0.023,-0.043,-0.046,-0.037
-0.049,-0.019,0.03,0.034,-0.039,0.005,-0.013,0.082,-0.011,-0.038,-0.041,-0.031
-0.036,-0.006,0.03,0.021,-0.033,0.012,-0.021,0.083,0.004,-0.033,-0.037,-0.024
-0.029,0.001,0.03,0.014,-0.029,0.015,-0.027,0.085,0.017,-0.026,-0.03,-0.018
-0.014,0.016,0.03,-0.001,-0.022,0.023,-0.036,0.093,0.037,-0.014,-0.015,-0.01
0.008,0.037,0.029,-0.023,-0.01,0.033,-0.041,0.1,0.055,0.011,0.003,-0.005
0.019,0.04,0.021,-0.029,-0.001,0.03,-0.051,0.119,0.075,0.035,0.012,0.011
0.034,0.047,0.013,-0.04,0.01,0.03,-0.037,0.154,0.113,0.057,0.041,0.037
0.06,0.065,0.005,-0.063,0.027,0.035,-0.043,0.18,0.156,0.087,0.079,0.058
0.108,0.105,-0.003,-0.106,0.055,0.051,-0.084,0.222,0.205,0.125,0.102,0.085
0.15,0.14,-0.01,-0.145,0.08,0.065,-0.093,0.254,0.26,0.176,0.144,0.12
0.161,0.143,-0.018,-0.152,0.089,0.062,-0.086,0.284,0.32,0.222,0.187,0.155
0.183,0.159,-0.024,-0.17,0.103,0.067,-0.1,0.33,0.376,0.268,0.223,0.183
0.199,0.187,-0.012,-0.193,0.105,0.088,-0.122,0.345,0.422,0.317,0.266,0.211
0.202,0.201,-0.002,-0.202,0.102,0.1,-0.119,0.337,0.447,0.339,0.288,0.233
0.176,0.189,0.013,-0.183,0.081,0.101,-0.104,0.331,0.438,0.343,0.291,0.243
0.14,0.178,0.039,-0.159,0.05,0.108,-0.081,0.322,0.388,0.312,0.257,0.218
0.108,0.161,0.052,-0.135,0.028,0.106,-0.053,0.277,0.296,0.233,0.192,0.165
0.046,0.12,0.074,-0.084,-0.014,0.097,-0.031,0.224,0.201,0.158,0.122,0.107
-0.009,0.068,0.077,-0.029,-0.043,0.072,-0.005,0.176,0.12,0.086,0.053,0.049
-0.04,0.026,0.066,0.007,-0.053,0.046,0.009,0.13,0.056,0.029,0.009,0.013
-0.053,0.008,0.062,0.022,-0.058,0.035,0.0,0.109,0.019,-0.009,-0.017,-0.003
-0.067,-0.013,0.054,0.04,-0.06,0.02,0.004,0.092,-0.001,-0.03,-0.033,-0.015
-0.087,-0.031,0.056,0.059,-0.071,0.012,0.028,0.081,-0.016,-0.038,-0.051,-0.025
-0.084,-0.03,0.054,0.056,-0.068,0.011,0.032,0.079,-0.025,-0.05,-0.061,-0.036
-0.072,-0.022,0.049,0.047,-0.06,0.013,0.029,0.076,-0.029,-0.05,-0.059,-0.045
-0.067,-0.016,0.051,0.041,-0.059,0.017,0.031,0.073,-0.028,-0.05,-0.06,-0.045
-0.056,-0.01,0.047,0.033,-0.051,0.018,0.029,0.07,-0.025,-0.05,-0.06,-0.045
-0.047,-0.002,0.045,0.024,-0.046,0.022,0.031,0.07,-0.025,-0.049,-0.06,-0.042
-0.046,-0.002,0.044,0.024,-0.045,0.021,0.026,0.07,-0.022,-0.053,-0.063,-0.04
-0.056,-0.009,0.047,0.032,-0.051,0.019,0.023,0.07,-0.019,-0.055,-0.065,-0.04
-0.076,-0.016,0.059,0.046,-0.067,0.021,0.019,0.07,-0.021,-0.058,-0.068,-0.035
-0.079,-0.018,0.061,0.049,-0.07,0.021,0.016,0.07,-0.03,-0.061,-0.071,-0.032
-0.073,-0.014,0.059,0.043,-0.065,0.022,0.01,0.07,-0.037,-0.064,-0.075,-0.029
-0.072,-0.017,0.056,0.044,-0.064,0.019,0.012,0.067,-0.038,-0.066,-0.075,-0.024
-0.067,-0.012,0.055,0.039,-0.06,0.021,0.031,0.062,-0.043,-0.07,-0.07,-0.021
-0.072,-0.018,0.054,0.045,-0.063,0.017,0.036,0.059,-0.052,-0.075,-0.07,-0.021
-0.081,-0.032,0.049,0.056,-0.065,0.009,0.035,0.055,-0.061,-0.078,-0.07,-0.031
-0.075,-0.03,0.046,0.052,-0.06,0.008,0.035,0.051,-0.067,-0.083,-0.07,-0.04
-0.073,-0.03,0.043,0.052,-0.058,0.006,0.035,0.049,-0.073,-0.085,-0.07,-0.041
-0.067,-0.029,0.038,0.048,-0.053,0.004,0.035,0.044,-0.076,-0.085,-0.072,-0.039
-0.067,-0.032,0.035,0.049,-0.051,0.001,0.032,0.041,-0.081,-0.085,-0.079,-0.036
-0.071,-0.024,0.047,0.047,-0.059,0.011,0.029,0.038,-0.084,-0.085,-0.08,-0.034
-0.088,-0.036,0.051,0.062,-0.069,0.008,0.025,0.033,-0.085,-0.085,-0.08,-0.037
-0.107,-0.058,0.049,0.082,-0.077,-0.004,0.024,0.03,-0.085,-0.089,-0.08,-0.04
-0.102,-0.054,0.048,0.077,-0.074,-0.003,0.018,0.027,-0.085,-0.09,-0.08,-0.04
-0.098,-0.055,0.043,0.076,-0.07,-0.006,0.026,0.024,-0.085,-0.09,-0.08,-0.042
-0.102,-0.055,0.047,0.078,-0.074,-0.004,0.031,0.021,-0.083,-0.09,-0.077,-0.046
-0.085,-0.054,0.031,0.07,-0.058,-0.011,0.022,0.018,-0.08,-0.089,-0.075,-0.045
-0.079,-0.052,0.027,0.066,-0.053,-0.012,0.029,0.015,-0.08,-0.093,-0.075,-0.042
-0.105,-0.048,0.056,0.076,-0.081,0.004,0.03,0.016,-0.08,-0.095,-0.075,-0.039
-0.1,-0.047,0.054,0.073,-0.076,0.003,0.03,0.022,-0.079,-0.095,-0.075,-0.036
-0.086,-0.043,0.043,0.064,-0.064,0.0,0.03,0.029,-0.081,-0.096,-0.076,-0.033
-0.077,-0.04,0.036,0.058,-0.056,-0.002,0.03,0.036,-0.079,-0.094,-0.075,-0.031
-0.063,-0.038,0.025,0.05,-0.044,-0.006,0.031,0.043,-0.073,-0.096,-0.068,-0.029
-0.063,-0.006,0.058,0.034,-0.061,0.026,0.03,0.05,-0.064,-0.074,-0.06,-0.018
-0.061,0.032,0.093,0.014,-0.077,0.062,0.049,0.046,-0.062,-0.053,-0.057,-0.005
-0.064,0.041,0.104,0.011,-0.084,0.072,0.042,0.037,-0.064,-0.055,-0.059,0.005
-0.062,0.04,0.102,0.011,-0.082,0.071,0.007,0.031,-0.066,-0.055,-0.062,0.016
-0.047,0.05,0.097,-0.002,-0.072,0.074,-0.002,0.023,-0.069,-0.055,-0.065,0.023
-0.044,0.047,0.092,-0.002,-0.068,0.069,-0.01,0.015,-0.07,-0.055,-0.068,0.016
-0.063,-0.007,0.056,0.035,-0.06,0.025,-0.02,0.013,-0.085,-0.064,-0.071,0.004
-0.078,-0.035,0.043,0.056,-0.06,0.004,-0.002,0.034,-0.099,-0.07,-0.073,-0.003
-0.094,-0.048,0.046,0.07,-0.07,-0.001,0.018,0.05,-0.092,-0.082,-0.083,-0.022
-0.115,-0.071,0.044,0.093,-0.079,-0.013,0.014,0.041,-0.102,-0.106,-0.098,-0.041
-0.121,-0.075,0.046,0.098,-0.083,-0.014,0.016,0.049,-0.099,-0.104,-0.1,-0.046
-0.124,-0.081,0.043,0.102,-0.084,-0.018,0.01,0.042,-0.103,-0.105,-0.101,-0.045
-0.129,-0.078,0.051,0.104,-0.09,-0.014,0.011,0.047,-0.108,-0.105,-0.107,-0.044
-0.13,-0.083,0.047,0.106,-0.088,-0.018,0.009,0.046,-0.098,-0.106,-0.115,-0.047
-0.146,-0.091,0.056,0.118,-0.101,-0.017,0.029,0.05,-0.121,-0.107,-0.11,-0.042
-0.14,-0.089,0.05,0.114,-0.095,-0.019,0.055,0.064,-0.1,-0.09,-0.1,-0.053
-0.137,-0.07,0.067,0.103,-0.102,-0.001,0.068,0.085,-0.063,-0.083,-0.088,-0.038
-0.085,-0.067,0.018,0.076,-0.052,-0.024,0.124,0.342,0.227,0.141,0.068,0.056
0.252,0.157,-0.095,-0.204,0.173,0.031,-0.143,0.13,0.439,0.623,0.619,0.491
0.346,0.372,0.026,-0.359,0.16,0.199,-0.429,-0.62,-0.083,0.612,0.794,0.734
-0.066,0.047,0.113,0.009,-0.09,0.08,-0.238,-0.856,-0.762,-0.225,-0.023,0.143
-0.265,-0.227,0.037,0.246,-0.151,-0.095,-0.119,-0.64,-0.886,-0.723,-0.527,-0.266
-0.199,-0.206,-0.007,0.202,-0.096,-0.106,-0.088,-0.301,-0.558,-0.501,-0.389,-0.22
-0.134,-0.18,-0.045,0.157,-0.044,-0.112,0.019,-0.048,-0.258,-0.288,-0.259,-0.151
-0.097,-0.121,-0.024,0.109,-0.036,-0.073,0.04,0.018,-0.117,-0.158,-0.148,-0.061
-0.113,-0.103,0.01,0.108,-0.061,-0.047,0.048,0.021,-0.073,-0.113,-0.128,-0.059
-0.125,-0.093,0.033,0.109,-0.079,-0.03,0.044,0.009,-0.066,-0.108,-0.112,-0.044
-0.119,-0.082,0.037,0.1,-0.078,-0.022,0.045,0.011,-0.056,-0.095,-0.102,-0.039
-0.11,-0.079,0.031,0.094,-0.07,-0.023,0.046,0.002,-0.057,-0.101,-0.101,-0.035
-0.102,-0.071,0.031,0.087,-0.066,-0.02,0.043,0.0,-0.049,-0.081,-0.088,-0.023
-0.096,-0.07,0.026,0.082,-0.06,-0.022,0.042,0.006,-0.046,-0.072,-0.087,-0.022
-0.089,-0.063,0.026,0.075,-0.057,-0.018,0.033,0.011,-0.041,-0.063,-0.077,-0.013
-0.077,-0.06,0.017,0.068,-0.047,-0.022,0.032,0.018,-0.038,-0.059,-0.075,-0.017
-0.093,-0.06,0.033,0.076,-0.063,-0.013,0.025,0.018,-0.034,-0.055,-0.068,-0.014
-0.104,-0.06,0.044,0.082,-0.074,-0.008,0.022,0.013,-0.03,-0.05,-0.065,-0.016
-0.088,-0.06,0.028,0.074,-0.058,-0.016,0.017,0.01,-0.027,-0.046,-0.06,-0.015
-0.085,-0.06,0.025,0.072,-0.055,-0.018,0.013,0.006,-0.023,-0.04,-0.055,-0.013
-0.072,-0.057,0.015,0.064,-0.043,-0.021,0.011,0.003,-0.01,-0.031,-0.051,-0.002
-0.034,-0.038,-0.003,0.036,-0.015,-0.02,-0.014,-0.001,0.011,-0.022,-0.044,0.007
-0.011,-0.021,-0.01,0.016,0.0,-0.015,-0.028,0.007,0.02,-0.014,-0.038,0.017
0.004,-0.015,-0.02,0.006,0.013,-0.018,-0.023,0.019,0.041,0.014,-0.018,0.028
0.023,-0.003,-0.027,-0.009,0.025,-0.015,-0.026,0.025,0.065,0.033,0.007,0.035
0.026,0.002,-0.024,-0.014,0.025,-0.011,-0.024,0.05,0.095,0.054,0.028,0.066
0.05,0.024,-0.025,-0.036,0.037,-0.001,-0.03,0.069,0.134,0.089,0.05,0.088
0.064,0.039,-0.025,-0.051,0.044,0.007,-0.042,0.102,0.18,0.128,0.086,0.116
0.083,0.053,-0.03,-0.068,0.056,0.012,-0.057,0.139,0.242,0.178,0.126,0.139
0.137,0.09,-0.046,-0.113,0.091,0.022,-0.06,0.163,0.294,0.227,0.168,0.176
0.152,0.102,-0.05,-0.126,0.101,0.026,-0.071,0.2,0.351,0.272,0.215,0.222
0.178,0.138,-0.041,-0.157,0.109,0.048,-0.101,0.237,0.405,0.324,0.257,0.239
0.203,0.159,-0.043,-0.181,0.123,0.058,-0.1,0.243,0.44,0.36,0.285,0.263
0.182,0.169,-0.013,-0.176,0.097,0.078,-0.086,0.227,0.447,0.353,0.287,0.266
0.176,0.185,0.009,-0.181,0.084,0.096,-0.075,0.224,0.41,0.337,0.266,0.264
0.141,0.15,0.009,-0.146,0.065,0.079,-0.049,0.187,0.334,0.277,0.213,0.221
0.049,0.103,0.054,-0.076,-0.003,0.078,-0.007,0.129,0.236,0.192,0.139,0.151
-0.013,0.053,0.066,-0.02,-0.04,0.059,0.025,0.092,0.154,0.118,0.077,0.107
-0.048,0.005,0.054,0.021,-0.051,0.029,0.035,0.048,0.077,0.049,0.025,0.07
-0.07,-0.019,0.051,0.044,-0.06,0.016,0.036,0.005,0.028,0.013,-0.012,0.035
-0.068,-0.027,0.041,0.047,-0.054,0.007,0.034,-0.026,0.01,-0.023,-0.04,0.003
-0.075,-0.035,0.04,0.055,-0.058,0.002,0.036,-0.037,-0.004,-0.042,-0.06,-0.004
-0.077,-0.037,0.04,0.057,-0.058,0.001,0.034,-0.037,-0.011,-0.041,-0.065,-0.008
-0.088,-0.048,0.04,0.068,-0.063,-0.004,0.036,-0.042,-0.024,-0.046,-0.072,-0.016
-0.103,-0.062,0.041,0.083,-0.072,-0.011,0.04,-0.045,-0.038,-0.049,-0.082,-0.018
-0.096,-0.057,0.039,0.076,-0.067,-0.009,0.04,-0.042,-0.041,-0.051,-0.081,-0.017
-0.091,-0.055,0.036,0.072,-0.063,-0.009,0.04,-0.04,-0.039,-0.05,-0.077,-0.013
-0.085,-0.052,0.033,0.068,-0.059,-0.009,0.035,-0.04,-0.04,-0.048,-0.075,-0.011
-0.08,-0.049,0.031,0.065,-0.055,-0.009,0.035,-0.035,-0.04,-0.045,-0.071,-0.008
-0.075,-0.047,0.028,0.061,-0.051,-0.01,0.034,-0.035,-0.041,-0.045,-0.07,-0.004
-0.067,-0.044,0.024,0.055,-0.045,-0.01,0.03,-0.034,-0.045,-0.045,-0.066,-0.008
-0.078,-0.046,0.031,0.062,-0.054,-0.008,0.03,-0.03,-0.045,-0.045,-0.065,-0.01
-0.079,-0.044,0.035,0.061,-0.057,-0.004,0.03,-0.03,-0.046,-0.045,-0.065,-0.01
-0.074,-0.047,0.027,0.06,-0.05,-0.009,0.03,-0.031,-0.051,-0.046,-0.065,-0.014
-0.064,-0.043,0.021,0.053,-0.042,-0.011,0.035,-0.029,-0.05,-0.044,-0.065,-0.016
-0.06,-0.045,0.015,0.053,-0.037,-0.015,0.05,-0.029,-0.05,-0.048,-0.066,-0.014
-0.076,-0.071,0.006,0.073,-0.041,-0.032,0.054,-0.035,-0.051,-0.06,-0.075,-0.011
-0.089,-0.077,0.012,0.083,-0.05,-0.033,0.047,-0.035,-0.048,-0.065,-0.081,-0.01
-0.105,-0.078,0.027,0.091,-0.066,-0.025,0.042,-0.034,-0.066,-0.069,-0.08,-0.009
-0.107,-0.082,0.025,0.094,-0.066,-0.028,0.036,-0.036,-0.081,-0.068,-0.08,-0.005
-0.107,-0.085,0.022,0.096,-0.063,-0.031,0.031,-0.034,-0.082,-0.064,-0.08,-0.005
-0.103,-0.084,0.019,0.093,-0.061,-0.032,0.03,-0.038,-0.085,-0.065,-0.08,-0.008
-0.095,-0.08,0.015,0.087,-0.055,-0.032,0.042,-0.045,-0.082,-0.065,-0.083,-0.021
-0.095,-0.08,0.015,0.087,-0.055,-0.032,0.046,-0.045,-0.079,-0.065,-0.085,-0.032
-0.088,-0.077,0.01,0.083,-0.049,-0.033,0.044,-0.045,-0.082,-0.066,-0.085,-0.031
-0.085,-0.075,0.01,0.08,-0.047,-0.032,0.045,-0.045,-0.093,-0.068,-0.085,-0.03
-0.084,-0.074,0.01,0.079,-0.047,-0.031,0.045,-0.045,-0.096,-0.079,-0.09,-0.029
-0.09,-0.081,0.01,0.086,-0.05,-0.035,0.045,-0.045,-0.099,-0.087,-0.09,-0.024
-0.084,-0.074,0.011,0.079,-0.048,-0.032,0.04,-0.045,-0.102,-0.082,-0.086,-0.026
-0.089,-0.082,0.007,0.085,-0.048,-0.037,0.035,-0.045,-0.105,-0.08,-0.084,-0.023
-0.091,-0.086,0.005,0.088,-0.048,-0.04,0.03,-0.045,-0.104,-0.077,-0.081,-0.016
-0.073,-0.069,0.004,0.071,-0.039,-0.032,0.028,-0.044,-0.09,-0.075,-0.08,-0.009
-0.076,-0.059,0.017,0.068,-0.047,-0.021,0.019,-0.046,-0.076,-0.071,-0.081,-0.003
-0.066,-0.03,0.036,0.048,-0.051,0.003,0.032,-0.042,-0.065,-0.059,-0.077,0.004
-0.048,0.006,0.053,0.021,-0.05,0.029,0.06,-0.04,-0.065,-0.055,-0.068,0.012
-0.036,0.034,0.069,0.001,-0.053,0.051,0.05,-0.04,-0.064,-0.053,-0.057,0.019
-0.029,0.032,0.061,-0.002,-0.046,0.047,0.014,-0.037,-0.061,-0.049,-0.048,0.027
-0.031,0.02,0.052,0.005,-0.042,0.036,-0.002,-0.034,-0.059,-0.047,-0.049,0.027
-0.029,0.015,0.044,0.006,-0.037,0.029,-0.007,-0.035,-0.061,-0.043,-0.053,0.015
-0.015,-0.006,0.009,0.01,-0.012,0.001,-0.012,-0.058,-0.08,-0.056,-0.059,0.003
-0.025,-0.039,-0.014,0.033,-0.005,-0.026,0.001,-0.065,-0.098,-0.069,-0.073,-0.007
-0.063,-0.082,-0.019,0.073,-0.022,-0.051,0.009,-0.052,-0.096,-0.075,-0.091,-0.022
-0.07,-0.092,-0.022,0.082,-0.024,-0.057,0.022,-0.055,-0.099,-0.101,-0.095,-0.038
-0.062,-0.088,-0.025,0.075,-0.019,-0.056,0.032,-0.04,-0.091,-0.104,-0.09,-0.049
-0.076,-0.094,-0.018,0.085,-0.029,-0.056,0.03,-0.044,-0.098,-0.099,-0.09,-0.042
-0.09,-0.106,-0.016,0.098,-0.037,-0.06,0.044,-0.031,-0.093,-0.094,-0.09,-0.041
-0.093,-0.107,-0.014,0.1,-0.039,-0.06,0.046,-0.037,-0.095,-0.09,-0.09,-0.036
-0.084,-0.089,-0.005,0.087,-0.039,-0.047,0.044,-0.036,-0.096,-0.087,-0.091,-0.032
-0.091,-0.103,-0.012,0.098,-0.039,-0.057,0.046,-0.022,-0.081,-0.069,-0.083,-0.03
-0.139,-0.099,0.04,0.119,-0.089,-0.029,0.093,0.034,-0.055,-0.048,-0.055,-0.003
-0.049,-0.066,-0.017,0.057,-0.016,-0.041,0.122,0.263,0.262,0.198,0.12,0.085
0.296,0.199,-0.097,-0.247,0.197,0.051,-0.198,-0.082,0.349,0.683,0.702,0.553
0.356,0.355,-0.001,-0.355,0.178,0.176,-0.443,-0.816,-0.232,0.589,0.784,0.729
-0.035,-0.039,-0.004,0.037,-0.015,-0.021,-0.272,-0.949,-0.826,-0.328,-0.111,0.083
-0.199,-0.269,-0.071,0.234,-0.064,-0.17,-0.161,-0.656,-0.864,-0.737,-0.533,-0.258
-0.146,-0.235,-0.089,0.191,-0.029,-0.162,-0.081,-0.301,-0.499,-0.449,-0.352,-0.186
-0.124,-0.196,-0.072,0.16,-0.026,-0.134,0.002,-0.092,-0.22,-0.248,-0.219,-0.142
-0.085,-0.118,-0.033,0.102,-0.026,-0.075,0.03,-0.029,-0.089,-0.137,-0.121,-0.066
-0.075,-0.096,-0.021,0.086,-0.027,-0.058,0.051,-0.017,-0.063,-0.108,-0.112,-0.058
-0.066,-0.079,-0.013,0.073,-0.026,-0.046,0.042,-0.022,-0.065,-0.087,-0.094,-0.048
-0.081,-0.097,-0.015,0.089,-0.033,-0.056,0.045,-0.019,-0.056,-0.077,-0.089,-0.045
-0.078,-0.09,-0.012,0.084,-0.033,-0.05,0.039,-0.026,-0.057,-0.076,-0.084,-0.042
-0.061,-0.069,-0.009,0.065,-0.026,-0.039,0.04,-0.025,-0.049,-0.063,-0.074,-0.035
-0.058,-0.069,-0.012,0.063,-0.023,-0.04,0.039,-0.024,-0.049,-0.062,-0.071,-0.034
-0.04,-0.063,-0.023,0.052,-0.008,-0.043,0.032,-0.018,-0.042,-0.052,-0.062,-0.025
-0.036,-0.061,-0.025,0.049,-0.005,-0.043,0.031,-0.012,-0.039,-0.051,-0.06,-0.023
-0.037,-0.056,-0.019,0.047,-0.009,-0.037,0.026,-0.008,-0.034,-0.045,-0.053,-0.015
-0.036,-0.054,-0.018,0.045,-0.009,-0.035,0.023,-0.001,-0.03,-0.043,-0.05,-0.01
-0.037,-0.048,-0.011,0.043,-0.012,-0.029,0.019,0.003,-0.023,-0.038,-0.045,-0.005
-0.032,-0.042,-0.01,0.037,-0.01,-0.026,0.014,0.009,-0.015,-0.035,-0.041,0.001
-0.02,-0.036,-0.016,0.028,-0.001,-0.026,0.009,0.016,-0.006,-0.028,-0.035,0.01
-0.007,-0.032,-0.025,0.019,0.01,-0.028,0.004,0.024,0.007,-0.01,-0.025,0.014
0.008,-0.025,-0.033,0.008,0.021,-0.028,-0.002,0.034,0.024,0.005,-0.008,0.023
0.017,-0.018,-0.035,0.001,0.026,-0.026,-0.009,0.04,0.049,0.017,0.012,0.04
0.031,-0.007,-0.038,-0.012,0.035,-0.023,-0.007,0.06,0.081,0.044,0.033,0.051
0.038,-0.003,-0.041,-0.018,0.039,-0.021,-0.009,0.088,0.112,0.075,0.05,0.061
0.063,0.019,-0.044,-0.041,0.054,-0.013,-0.023,0.119,0.155,0.115,0.081,0.089
0.091,0.046,-0.045,-0.068,0.068,0.0,-0.037,0.159,0.215,0.162,0.125,0.118
0.103,0.058,-0.045,-0.08,0.074,0.007,-0.053,0.196,0.269,0.201,0.162,0.138
0.149,0.102,-0.047,-0.125,0.098,0.027,-0.057,0.239,0.328,0.258,0.212,0.182
0.165,0.119,-0.046,-0.141,0.105,0.036,-0.065,0.279,0.387,0.309,0.252,0.217
0.19,0.145,-0.044,-0.167,0.117,0.05,-0.077,0.302,0.441,0.352,0.287,0.243
0.224,0.178,-0.046,-0.2,0.135,0.066,-0.069,0.302,0.467,0.38,0.316,0.267
0.21,0.169,-0.042,-0.189,0.126,0.063,-0.068,0.29,0.461,0.373,0.316,0.272
0.189,0.167,-0.022,-0.177,0.105,0.072,-0.055,0.268,0.426,0.345,0.3,0.26
0.145,0.136,-0.009,-0.14,0.077,0.063,-0.015,0.222,0.347,0.274,0.242,0.209
0.092,0.086,-0.006,-0.088,0.049,0.04,0.008,0.171,0.253,0.187,0.158,0.148
0.044,0.043,-0.002,-0.043,0.022,0.02,0.011,0.119,0.169,0.118,0.089,0.092
-0.007,-0.002,0.005,0.004,-0.006,0.001,0.021,0.076,0.107,0.064,0.04,0.046
-0.032,-0.03,0.002,0.031,-0.016,-0.014,0.024,0.043,0.061,0.025,0.006,0.022
-0.029,-0.04,-0.011,0.035,-0.009,-0.026,0.035,0.014,0.034,-0.004,-0.018,0.009
-0.034,-0.045,-0.012,0.039,-0.011,-0.028,0.042,-0.004,0.026,-0.018,-0.034,0.004
-0.038,-0.045,-0.008,0.042,-0.015,-0.026,0.022,-0.009,0.021,-0.024,-0.035,-0.001
-0.039,-0.045,-0.006,0.042,-0.016,-0.025,0.043,-0.012,0.016,-0.027,-0.035,-0.007
-0.04,-0.042,-0.002,0.041,-0.019,-0.022,0.064,-0.018,0.009,-0.033,-0.035,-0.012
-0.039,-0.04,0.0,0.039,-0.019,-0.02,0.055,-0.019,0.006,-0.034,-0.035,-0.018
-0.043,-0.04,0.003,0.041,-0.023,-0.018,0.055,-0.015,0.009,-0.03,-0.034,-0.02
-0.049,-0.04,0.008,0.044,-0.029,-0.016,0.049,-0.016,0.01,-0.03,-0.031,-0.02
-0.054,-0.039,0.014,0.046,-0.034,-0.012,0.046,-0.013,0.01,-0.03,-0.028,-0.02
-0.063,-0.044,0.02,0.053,-0.041,-0.012,0.042,-0.009,0.01,-0.03,-0.025,-0.02
-0.065,-0.05,0.015,0.058,-0.039,-0.018,0.04,-0.011,0.01,-0.03,-0.023,-0.02
-0.053,-0.045,0.008,0.049,-0.031,-0.018,0.04,-0.006,0.008,-0.03,-0.019,-0.016
-0.044,-0.04,0.004,0.042,-0.024,-0.018,0.036,-0.005,0.004,-0.03,-0.026,-0.015
-0.032,-0.035,-0.003,0.033,-0.014,-0.018,0.034,-0.005,0.002,-0.03,-0.036,-0.015
-0.021,-0.028,-0.007,0.025,-0.007,-0.017,0.036,0.0,-0.001,-0.03,-0.035,-0.015
-0.013,-0.026,-0.013,0.019,0.0,-0.019,0.04,0.0,-0.004,-0.03,-0.035,-0.015
-0.018,-0.037,-0.019,0.028,0.0,-0.027,0.04,-0.001,-0.006,-0.031,-0.035,-0.015
-0.029,-0.053,-0.024,0.041,-0.003,-0.038,0.04,-0.012,-0.009,-0.037,-0.035,-0.015
-0.029,-0.058,-0.029,0.043,0.001,-0.043,0.037,-0.025,-0.014,-0.046,-0.039,-0.022
-0.018,-0.053,-0.035,0.036,0.009,-0.044,0.034,-0.027,-0.018,-0.051,-0.042,-0.029
-0.018,-0.057,-0.039,0.038,0.011,-0.048,0.036,-0.025,-0.02,-0.055,-0.047,-0.03
-0.038,-0.073,-0.035,0.056,-0.001,-0.054,0.04,-0.025,-0.024,-0.055,-0.05,-0.03
-0.041,-0.071,-0.03,0.056,-0.006,-0.05,0.048,-0.025,-0.026,-0.056,-0.05,-0.03
-0.039,-0.064,-0.025,0.052,-0.006,-0.045,0.048,-0.024,-0.03,-0.06,-0.05,-0.03
-0.039,-0.06,-0.022,0.05,-0.008,-0.041,0.041,-0.029,-0.03,-0.06,-0.05,-0.03
-0.037,-0.052,-0.016,0.045,-0.01,-0.034,0.036,-0.036,-0.025,-0.062,-0.05,-0.032
-0.035,-0.052,-0.017,0.044,-0.008,-0.034,0.031,-0.036,-0.024,-0.065,-0.053,-0.036
-0.034,-0.055,-0.021,0.044,-0.007,-0.038,0.024,-0.034,-0.019,-0.068,-0.056,-0.039
-0.05,-0.069,-0.019,0.059,-0.015,-0.044,0.021,-0.032,-0.028,-0.071,-0.053,-0.043
-0.055,-0.075,-0.021,0.065,-0.017,-0.048,0.024,-0.027,-0.037,-0.074,-0.05,-0.045
-0.049,-0.068,-0.019,0.058,-0.015,-0.043,0.035,-0.038,-0.031,-0.075,-0.05,-0.04
-0.048,-0.065,-0.017,0.057,-0.015,-0.041,0.042,-0.056,-0.03,-0.07,-0.05,-0.04
-0.056,-0.06,-0.004,0.058,-0.026,-0.032,0.039,-0.052,-0.026,-0.069,-0.05,-0.04
-0.06,-0.055,0.005,0.057,-0.032,-0.025,0.034,-0.048,-0.025,-0.065,-0.05,-0.04
-0.048,-0.052,-0.004,0.05,-0.021,-0.028,0.032,-0.045,-0.028,-0.062,-0.054,-0.04
-0.042,-0.049,-0.007,0.045,-0.017,-0.028,0.027,-0.04,-0.027,-0.06,-0.055,-0.038
-0.034,-0.05,-0.016,0.042,-0.009,-0.033,0.025,-0.04,-0.023,-0.061,-0.055,-0.034
-0.035,-0.042,-0.006,0.039,-0.014,-0.024,0.035,-0.04,-0.022,-0.075,-0.055,-0.035
-0.058,-0.051,0.007,0.054,-0.033,-0.021,0.042,-0.04,-0.018,-0.077,-0.055,-0.035
-0.056,-0.058,-0.002,0.057,-0.026,-0.03,0.046,-0.04,-0.015,-0.068,-0.054,-0.035
-0.012,-0.021,-0.009,0.017,-0.001,-0.015,0.049,-0.04,-0.013,-0.057,-0.038,-0.035
0.012,0.018,0.006,-0.015,0.003,0.012,0.063,-0.034,0.011,-0.04,-0.025,-0.024
-0.004,0.033,0.037,-0.015,-0.021,0.035,0.067,-0.03,0.022,-0.039,-0.023,-0.009
-0.017,0.025,0.042,-0.004,-0.03,0.033,0.034,-0.027,0.013,-0.043,-0.018,0.003
0.011,0.034,0.023,-0.023,-0.006,0.028,0.005,-0.02,0.008,-0.045,-0.016,0.005
0.025,0.043,0.019,-0.034,0.003,0.031,0.0,-0.022,0.0,-0.048,-0.01,-0.001
0.018,0.008,-0.011,-0.013,0.014,-0.001,0.011,-0.029,-0.005,-0.051,-0.012,-0.011
0.027,-0.029,-0.056,0.001,0.042,-0.042,0.017,-0.03,-0.013,-0.052,-0.032,-0.013
-0.009,-0.048,-0.039,0.029,0.015,-0.043,0.027,-0.021,-0.016,-0.061,-0.051,-0.029
-0.025,-0.058,-0.033,0.042,0.004,-0.046,0.03,-0.051,-0.048,-0.082,-0.055,-0.05
-0.022,-0.07,-0.048,0.047,0.013,-0.059,0.03,-0.059,-0.056,-0.085,-0.056,-0.05
-0.03,-0.071,-0.041,0.051,0.006,-0.056,0.031,-0.061,-0.054,-0.085,-0.063,-0.05
-0.027,-0.067,-0.04,0.047,0.006,-0.054,0.028,-0.06,-0.058,-0.085,-0.057,-0.051
-0.038,-0.074,-0.036,0.056,-0.001,-0.055,0.034,-0.058,-0.049,-0.084,-0.058,-0.057
-0.029,-0.064,-0.036,0.047,0.004,-0.049,0.024,-0.065,-0.066,-0.087,-0.051,-0.052
-0.062,-0.08,-0.018,0.071,-0.022,-0.049,0.017,-0.046,-0.023,-0.081,-0.052,-0.057
-0.091,-0.064,0.027,0.077,-0.058,-0.019,0.058,-0.024,-0.015,-0.07,-0.045,-0.053
-0.061,-0.059,0.002,0.06,-0.031,-0.028,0.148,0.227,0.197,0.072,0.052,0.001
0.225,0.119,-0.107,-0.172,0.166,0.006,-0.084,0.013,0.368,0.459,0.476,0.344
0.473,0.408,-0.064,-0.44,0.268,0.172,-0.485,-0.829,-0.075,0.587,0.806,0.71
0.137,0.104,-0.033,-0.121,0.085,0.036,-0.39,-1.106,-0.686,-0.123,0.151,0.25
-0.155,-0.278,-0.123,0.217,-0.016,-0.2,-0.185,-0.797,-0.856,-0.708,-0.493,-0.286
-0.127,-0.248,-0.122,0.188,-0.002,-0.185,-0.123,-0.414,-0.528,-0.508,-0.369,-0.243
-0.092,-0.183,-0.091,0.137,0.0,-0.136,-0.025,-0.137,-0.2,-0.258,-0.198,-0.169
-0.059,-0.106,-0.047,0.083,-0.005,-0.076,0.026,-0.029,-0.058,-0.139,-0.105,-0.102
-0.045,-0.075,-0.029,0.06,-0.008,-0.052,0.051,-0.015,-0.011,-0.097,-0.074,-0.069
-0.039,-0.071,-0.032,0.055,-0.004,-0.051,0.05,-0.016,-0.006,-0.095,-0.07,-0.07
-0.039,-0.068,-0.029,0.053,-0.005,-0.048,0.05,-0.014,0.007,-0.082,-0.059,-0.059
-0.038,-0.067,-0.029,0.052,-0.004,-0.047,0.051,-0.016,0.008,-0.084,-0.062,-0.061
-0.02,-0.057,-0.037,0.038,0.009,-0.046,0.049,-0.015,0.019,-0.072,-0.051,-0.051
-0.004,-0.056,-0.051,0.03,0.024,-0.053,0.05,-0.015,0.023,-0.069,-0.052,-0.051
-0.006,-0.047,-0.04,0.027,0.017,-0.043,0.042,-0.01,0.023,-0.06,-0.043,-0.043
-0.004,-0.043,-0.039,0.024,0.018,-0.04,0.036,-0.002,0.015,-0.054,-0.039,-0.04
-0.008,-0.038,-0.03,0.023,0.011,-0.034,0.029,0.004,0.021,-0.048,-0.034,-0.035
-0.005,-0.033,-0.028,0.019,0.012,-0.03,0.023,0.011,0.029,-0.041,-0.027,-0.03
-0.014,-0.031,-0.017,0.023,0.001,-0.023,0.015,0.018,0.038,-0.037,-0.023,-0.027
-0.024,-0.026,-0.002,0.025,-0.011,-0.014,0.029,0.022,0.066,-0.03,-0.017,-0.018
-0.009,-0.023,-0.013,0.016,0.002,-0.017,0.033,0.031,0.075,-0.026,-0.014,-0.013
0.003,-0.02,-0.023,0.009,0.013,-0.021,0.023,0.032,0.069,-0.02,-0.01,-0.006
0.048,0.003,-0.044,-0.025,0.046,-0.02,0.018,0.042,0.079,-0.004,0.007,0.001
0.054,0.017,-0.037,-0.036,0.045,-0.01,0.008,0.067,0.103,0.018,0.033,0.014
0.058,0.021,-0.037,-0.039,0.047,-0.008,0.004,0.084,0.126,0.038,0.049,0.03
0.101,0.043,-0.058,-0.071,0.079,-0.007,-0.012,0.096,0.147,0.05,0.062,0.038
0.112,0.058,-0.054,-0.084,0.082,0.002,-0.038,0.133,0.195,0.086,0.093,0.059
0.117,0.062,-0.055,-0.089,0.086,0.003,-0.046,0.172,0.24,0.126,0.126,0.077
0.152,0.096,-0.055,-0.123,0.103,0.021,-0.044,0.211,0.294,0.163,0.162,0.106
0.193,0.138,-0.055,-0.165,0.124,0.041,-0.046,0.263,0.364,0.224,0.211,0.151
0.223,0.171,-0.052,-0.197,0.137,0.06,-0.053,0.298,0.411,0.271,0.25,0.178
0.252,0.203,-0.05,-0.228,0.151,0.077,-0.069,0.341,0.477,0.309,0.285,0.211
0.262,0.213,-0.049,-0.238,0.155,0.082,-0.083,0.353,0.511,0.355,0.317,0.234
0.269,0.231,-0.037,-0.25,0.153,0.097,-0.073,0.338,0.512,0.373,0.322,0.232
0.257,0.235,-0.022,-0.246,0.14,0.106,-0.06,0.329,0.489,0.354,0.311,0.228
0.213,0.2,-0.013,-0.206,0.113,0.093,-0.05,0.292,0.417,0.308,0.279,0.206
0.149,0.154,0.004,-0.151,0.072,0.079,-0.015,0.231,0.331,0.235,0.218,0.155
0.074,0.109,0.034,-0.092,0.02,0.071,0.02,0.166,0.237,0.154,0.149,0.099
0.029,0.072,0.043,-0.051,-0.007,0.057,0.027,0.124,0.161,0.083,0.084,0.055
0.008,0.039,0.031,-0.024,-0.012,0.035,0.024,0.08,0.095,0.04,0.048,0.022
-0.011,0.023,0.035,-0.006,-0.023,0.029,0.033,0.043,0.059,0.011,0.019,-0.006
0.004,0.018,0.014,-0.011,-0.005,0.016,0.048,0.027,0.054,-0.014,0.0,-0.018
0.023,0.011,-0.013,-0.017,0.018,-0.001,0.046,0.013,0.042,-0.027,-0.003,-0.024
0.001,0.005,0.003,-0.003,-0.001,0.004,0.037,0.005,0.033,-0.034,-0.009,-0.029
0.006,-0.003,-0.009,-0.001,0.008,-0.006,0.036,0.005,0.03,-0.03,-0.012,-0.033
0.006,-0.002,-0.008,-0.002,0.007,-0.005,0.035,0.005,0.03,-0.03,-0.019,-0.034
-0.002,0.014,0.016,-0.006,-0.009,0.015,0.033,0.004,0.026,-0.03,-0.019,-0.029
0.005,0.026,0.022,-0.016,-0.009,0.024,0.029,0.006,0.024,-0.03,-0.015,-0.031
-0.002,0.026,0.027,-0.013,-0.015,0.026,0.03,-0.004,0.025,-0.029,-0.016,-0.028
0.001,0.025,0.024,-0.014,-0.012,0.024,0.038,-0.011,0.02,-0.034,-0.012,-0.025
-0.002,0.024,0.025,-0.012,-0.014,0.024,0.041,-0.01,0.017,-0.048,-0.01,-0.025
-0.005,0.02,0.025,-0.008,-0.015,0.022,0.04,-0.008,0.013,-0.051,-0.009,-0.025
-0.005,0.02,0.025,-0.008,-0.015,0.022,0.038,-0.005,0.009,-0.05,-0.022,-0.029
-0.004,0.018,0.022,-0.007,-0.013,0.019,0.034,-0.005,0.006,-0.05,-0.032,-0.031
-0.009,0.011,0.019,-0.001,-0.014,0.015,0.035,-0.002,0.003,-0.05,-0.029,-0.03
-0.016,0.004,0.021,0.006,-0.019,0.012,0.031,0.001,-0.002,-0.051,-0.03,-0.03
-0.022,-0.002,0.02,0.012,-0.021,0.008,0.026,0.004,-0.005,-0.054,-0.03,-0.03
-0.029,-0.01,0.019,0.019,-0.024,0.004,0.021,0.004,-0.008,-0.059,-0.03,-0.03
-0.029,-0.014,0.015,0.021,-0.021,0.0,0.018,-0.005,-0.013,-0.063,-0.026,-0.035
-0.023,-0.011,0.012,0.017,-0.017,0.0,0.012,-0.017,-0.016,-0.065,-0.025,-0.035
-0.016,-0.008,0.008,0.012,-0.012,0.0,0.011,-0.027,-0.02,-0.065,-0.025,-0.038
-0.027,-0.022,0.005,0.024,-0.016,-0.008,0.027,-0.025,-0.028,-0.065,-0.025,-0.04
-0.033,-0.031,0.002,0.032,-0.017,-0.014,0.039,-0.022,-0.03,-0.065,-0.025,-0.04
-0.023,-0.025,-0.002,0.024,-0.01,-0.013,0.037,-0.02,-0.03,-0.066,-0.027,-0.043
-0.018,-0.023,-0.005,0.021,-0.007,-0.014,0.033,-0.016,-0.034,-0.069,-0.038,-0.046
-0.009,-0.018,-0.009,0.014,0.0,-0.013,0.029,-0.015,-0.035,-0.07,-0.041,-0.044
-0.006,-0.015,-0.009,0.011,0.002,-0.012,0.026,-0.011,-0.035,-0.07,-0.039,-0.04
-0.006,-0.011,-0.005,0.009,0.0,-0.008,0.02,-0.01,-0.035,-0.07,-0.041,-0.04
-0.007,-0.01,-0.002,0.009,-0.002,-0.006,0.023,-0.009,-0.035,-0.072,-0.039,-0.038
-0.01,-0.01,0.0,0.01,-0.005,-0.005,0.032,-0.011,-0.035,-0.075,-0.042,-0.036
-0.009,-0.005,0.003,0.007,-0.006,-0.001,0.028,-0.009,-0.035,-0.078,-0.045,-0.033
-0.01,-0.005,0.006,0.007,-0.007,0.001,0.023,-0.013,-0.035,-0.081,-0.045,-0.043
-0.001,-0.007,-0.005,0.004,0.002,-0.006,0.022,-0.038,-0.035,-0.084,-0.045,-0.056
0.002,-0.01,-0.012,0.004,0.007,-0.011,0.014,-0.042,-0.035,-0.085,-0.045,-0.055
-0.004,-0.01,-0.006,0.008,0.001,-0.008,0.022,-0.037,-0.035,-0.08,-0.045,-0.054
-0.003,-0.009,-0.006,0.007,0.001,-0.007,0.036,-0.035,-0.035,-0.08,-0.041,-0.05
-0.011,-0.011,0.0,0.011,-0.006,-0.005,0.035,-0.031,-0.034,-0.079,-0.04,-0.05
-0.024,-0.009,0.015,0.016,-0.019,0.003,0.033,-0.03,-0.036,-0.075,-0.04,-0.05
-0.023,-0.007,0.015,0.015,-0.019,0.004,0.03,-0.026,-0.037,-0.075,-0.036,-0.05
-0.013,0.002,0.015,0.005,-0.014,0.008,0.03,-0.024,-0.035,-0.077,-0.034,-0.05
-0.009,0.004,0.013,0.003,-0.011,0.008,0.03,-0.02,-0.035,-0.08,-0.037,-0.05
-0.014,-0.005,0.009,0.01,-0.011,0.002,0.03,-0.019,-0.035,-0.08,-0.04,-0.05
-0.017,-0.007,0.011,0.012,-0.014,0.001,0.03,-0.014,-0.036,-0.08,-0.04,-0.049
-0.029,-0.023,0.006,0.026,-0.018,-0.008,0.029,-0.018,-0.033,-0.08,-0.04,-0.046
-0.034,-0.033,0.001,0.033,-0.018,-0.015,0.031,-0.038,-0.041,-0.08,-0.04,-0.045
-0.025,-0.028,-0.004,0.027,-0.011,-0.016,0.032,-0.041,-0.051,-0.075,-0.04,-0.045
-0.02,-0.027,-0.007,0.024,-0.006,-0.017,0.03,-0.035,-0.043,-0.075,-0.037,-0.045
-0.011,-0.024,-0.013,0.018,0.001,-0.018,0.026,-0.033,-0.04,-0.074,-0.032,-0.045
-0.011,-0.026,-0.015,0.019,0.002,-0.02,0.024,-0.029,-0.035,-0.069,-0.029,-0.043
-0.023,-0.03,-0.007,0.027,-0.008,-0.018,0.02,-0.024,-0.029,-0.071,-0.026,-0.036
-0.027,-0.03,-0.003,0.029,-0.012,-0.016,0.02,-0.034,-0.039,-0.067,-0.02,-0.032
-0.042,-0.038,0.005,0.04,-0.023,-0.016,0.025,-0.037,-0.038,-0.058,-0.022,-0.026
-0.031,-0.024,0.007,0.027,-0.019,-0.008,0.024,-0.027,-0.031,-0.047,-0.024,-0.02
0.007,0.025,0.018,-0.016,-0.006,0.021,0.036,-0.02,-0.023,-0.037,-0.011,-0.015
0.023,0.058,0.035,-0.041,-0.006,0.047,0.063,-0.009,-0.001,-0.034,0.0,-0.015
0.034,0.068,0.033,-0.051,0.0,0.05,0.04,-0.006,0.009,-0.035,0.007,-0.015
0.035,0.062,0.027,-0.049,0.004,0.044,-0.002,-0.003,0.022,-0.036,0.01,-0.015
0.031,0.052,0.021,-0.042,0.005,0.037,-0.005,-0.017,0.018,-0.033,0.015,-0.015
0.033,0.044,0.01,-0.039,0.011,0.027,-0.023,-0.036,0.007,-0.046,0.009,-0.015
0.06,0.029,-0.031,-0.045,0.045,-0.001,-0.018,-0.042,-0.007,-0.062,-0.005,-0.018
0.053,0.013,-0.04,-0.032,0.046,-0.013,0.02,-0.038,-0.037,-0.058,-0.02,-0.027
0.008,-0.003,-0.011,-0.002,0.01,-0.007,0.033,-0.04,-0.046,-0.067,-0.038,-0.039
0.01,-0.019,-0.029,0.005,0.02,-0.023,0.036,-0.055,-0.05,-0.084,-0.042,-0.053
0.001,-0.035,-0.035,0.017,0.019,-0.035,0.028,-0.066,-0.048,-0.084,-0.039,-0.057
-0.01,-0.034,-0.024,0.022,0.008,-0.029,0.024,-0.06,-0.054,-0.086,-0.04,-0.054
-0.01,-0.036,-0.026,0.023,0.009,-0.031,0.021,-0.051,-0.045,-0.083,-0.04,-0.06
-0.023,-0.034,-0.011,0.029,-0.005,-0.023,0.013,-0.058,-0.057,-0.087,-0.04,-0.051
-0.033,-0.051,-0.018,0.042,-0.007,-0.035,0.032,-0.031,-0.041,-0.082,-0.038,-0.059
-0.057,-0.031,0.026,0.044,-0.041,-0.003,0.049,-0.036,-0.021,-0.059,-0.019,-0.047
-0.049,-0.01,0.039,0.029,-0.044,0.015,0.13,0.187,0.132,0.042,0.036,-0.011
0.208,0.115,-0.093,-0.161,0.15,0.011,-0.019,0.136,0.37,0.377,0.379,0.257
0.508,0.421,-0.087,-0.464,0.298,0.167,-0.435,-0.708,0.038,0.576,0.767,0.677
0.226,0.22,-0.006,-0.223,0.116,0.107,-0.412,-1.148,-0.6,0.011,0.286,0.348
-0.145,-0.2,-0.055,0.172,-0.045,-0.127,-0.188,-0.87,-0.837,-0.626,-0.409,-0.231
-0.109,-0.216,-0.107,0.162,0.0,-0.161,-0.13,-0.512,-0.606,-0.541,-0.384,-0.244
-0.061,-0.16,-0.099,0.111,0.019,-0.129,-0.025,-0.196,-0.253,-0.275,-0.199,-0.168
-0.027,-0.089,-0.062,0.059,0.017,-0.075,0.05,-0.03,-0.081,-0.136,-0.099,-0.109
0.001,-0.051,-0.052,0.025,0.026,-0.051,0.069,-0.014,-0.031,-0.084,-0.053,-0.071
0.004,-0.037,-0.041,0.017,0.023,-0.039,0.062,-0.013,-0.016,-0.088,-0.052,-0.067
-0.013,-0.034,-0.02,0.024,0.004,-0.027,0.053,-0.004,-0.009,-0.072,-0.039,-0.051
-0.018,-0.046,-0.027,0.033,0.005,-0.036,0.047,-0.001,-0.006,-0.072,-0.041,-0.055
-0.004,-0.028,-0.024,0.016,0.01,-0.026,0.039,0.005,-0.002,-0.063,-0.029,-0.045
-0.005,-0.029,-0.023,0.017,0.009,-0.026,0.031,0.009,0.005,-0.061,-0.028,-0.044
0.018,-0.019,-0.037,0.001,0.027,-0.027,0.043,0.014,-0.001,-0.058,-0.021,-0.04
0.018,-0.017,-0.035,0.0,0.027,-0.026,0.056,0.016,-0.006,-0.053,-0.02,-0.041
0.019,-0.014,-0.032,-0.002,0.026,-0.023,0.044,0.021,0.003,-0.051,-0.02,-0.035
0.021,-0.009,-0.03,-0.006,0.025,-0.019,0.04,0.024,0.009,-0.045,-0.014,-0.03
0.023,-0.007,-0.03,-0.008,0.027,-0.018,0.032,0.028,0.016,-0.037,-0.016,-0.027
0.034,0.007,-0.027,-0.02,0.03,-0.009,0.026,0.031,0.022,-0.029,-0.013,-0.021
0.042,0.023,-0.019,-0.032,0.031,0.002,0.021,0.037,0.029,-0.02,-0.002,-0.018
0.03,0.015,-0.016,-0.022,0.023,0.0,0.02,0.048,0.043,-0.011,0.015,-0.009
0.026,0.017,-0.009,-0.021,0.017,0.003,0.017,0.057,0.051,0.001,0.022,-0.003
0.043,0.04,-0.003,-0.041,0.023,0.018,0.015,0.07,0.067,0.015,0.031,0.004
0.039,0.038,-0.002,-0.038,0.021,0.018,0.014,0.095,0.088,0.031,0.052,0.016
0.075,0.06,-0.015,-0.067,0.045,0.022,0.005,0.123,0.114,0.064,0.068,0.03
0.115,0.075,-0.04,-0.095,0.077,0.017,-0.004,0.146,0.146,0.083,0.09,0.045
0.111,0.074,-0.037,-0.093,0.074,0.018,-0.019,0.173,0.184,0.114,0.117,0.07
0.138,0.105,-0.033,-0.121,0.085,0.036,-0.025,0.215,0.239,0.16,0.151,0.098
0.179,0.133,-0.046,-0.156,0.112,0.043,-0.046,0.256,0.291,0.202,0.192,0.123
0.198,0.156,-0.042,-0.177,0.119,0.057,-0.061,0.293,0.346,0.25,0.23,0.156
0.218,0.18,-0.038,-0.199,0.128,0.071,-0.072,0.332,0.399,0.293,0.269,0.187
0.242,0.207,-0.035,-0.224,0.138,0.086,-0.085,0.356,0.442,0.343,0.306,0.22
0.251,0.22,-0.031,-0.236,0.141,0.094,-0.072,0.368,0.475,0.368,0.334,0.234
0.257,0.234,-0.024,-0.245,0.141,0.105,-0.069,0.363,0.463,0.369,0.328,0.218
0.232,0.229,-0.003,-0.23,0.117,0.113,-0.053,0.316,0.414,0.342,0.306,0.204
0.172,0.194,0.022,-0.183,0.075,0.108,-0.023,0.264,0.341,0.279,0.259,0.176
0.125,0.155,0.03,-0.14,0.048,0.092,-0.003,0.208,0.25,0.204,0.182,0.124
0.083,0.105,0.022,-0.094,0.03,0.063,0.019,0.14,0.16,0.129,0.117,0.072
0.041,0.059,0.018,-0.05,0.011,0.038,0.033,0.09,0.089,0.081,0.069,0.028
0.012,0.024,0.011,-0.018,0.0,0.017,0.036,0.064,0.05,0.033,0.034,0.001
0.008,0.013,0.006,-0.011,0.0,0.009,0.039,0.052,0.032,-0.001,0.02,-0.006
0.007,0.016,0.009,-0.012,-0.002,0.012,0.042,0.039,0.019,-0.002,0.015,-0.013
-0.006,0.014,0.021,-0.004,-0.014,0.017,0.045,0.025,0.001,-0.012,0.007,-0.019
-0.013,0.015,0.028,-0.001,-0.021,0.021,0.044,0.01,-0.013,-0.018,-0.001,-0.026
-0.009,0.016,0.025,-0.004,-0.018,0.02,0.039,0.015,-0.015,-0.016,-0.008,-0.039
-0.017,0.007,0.025,0.004,-0.021,0.016,0.036,0.027,-0.015,-0.015,-0.014,-0.04
-0.022,0.003,0.025,0.009,-0.024,0.014,0.033,0.025,-0.015,-0.015,-0.015,-0.04
-0.01,0.014,0.024,-0.003,-0.017,0.019,0.028,0.024,-0.015,-0.015,-0.015,-0.04
-0.008,0.018,0.026,-0.006,-0.018,0.022,0.025,0.02,-0.015,-0.015,-0.015,-0.04
0.001,0.015,0.014,-0.008,-0.007,0.014,0.021,0.02,-0.016,-0.017,-0.015,-0.039
0.021,0.015,-0.006,-0.018,0.012,0.004,0.015,0.018,-0.02,-0.023,-0.015,-0.035
0.011,0.013,0.002,-0.012,0.005,0.007,0.009,0.014,-0.02,-0.026,-0.015,-0.035
-0.007,0.009,0.015,-0.001,-0.011,0.012,0.006,0.016,-0.02,-0.032,-0.015,-0.035
-0.006,0.011,0.017,-0.003,-0.011,0.014,0.019,0.014,-0.02,-0.035,-0.015,-0.035
-0.007,0.005,0.012,0.001,-0.01,0.008,0.034,0.015,-0.02,-0.035,-0.015,-0.035
-0.008,0.001,0.009,0.004,-0.008,0.005,0.037,0.014,-0.022,-0.035,-0.015,-0.039
-0.01,-0.006,0.004,0.008,-0.007,-0.001,0.032,0.01,-0.029,-0.035,-0.019,-0.04
-0.013,-0.012,0.001,0.012,-0.007,-0.005,0.029,0.005,-0.035,-0.036,-0.024,-0.04
-0.012,-0.014,-0.002,0.013,-0.004,-0.008,0.026,0.0,-0.039,-0.034,-0.027,-0.04
-0.03,-0.037,-0.007,0.034,-0.011,-0.022,0.02,-0.003,-0.044,-0.041,-0.033,-0.041
-0.011,-0.021,-0.01,0.016,-0.001,-0.015,0.025,-0.01,-0.045,-0.051,-0.034,-0.045
-0.013,-0.035,-0.022,0.024,0.005,-0.028,0.036,-0.007,-0.045,-0.05,-0.03,-0.045
-0.036,-0.062,-0.026,0.05,-0.005,-0.044,0.031,0.007,-0.045,-0.05,-0.03,-0.045
-0.02,-0.041,-0.021,0.031,0.001,-0.031,0.028,0.006,-0.045,-0.05,-0.03,-0.045
-0.025,-0.045,-0.02,0.035,-0.002,-0.032,0.026,-0.001,-0.045,-0.049,-0.03,-0.045
-0.03,-0.045,-0.015,0.038,-0.007,-0.03,0.018,-0.004,-0.045,-0.053,-0.03,-0.045
-0.029,-0.044,-0.016,0.037,-0.006,-0.03,0.028,-0.01,-0.05,-0.055,-0.033,-0.045
-0.028,-0.046,-0.018,0.037,-0.004,-0.032,0.028,-0.012,-0.049,-0.055,-0.036,-0.045
-0.015,-0.044,-0.029,0.03,0.007,-0.036,0.035,-0.026,-0.059,-0.055,-0.034,-0.045
-0.011,-0.047,-0.036,0.03,0.013,-0.041,0.055,-0.037,-0.066,-0.055,-0.037,-0.045
-0.019,-0.05,-0.03,0.035,0.005,-0.04,0.049,-0.032,-0.058,-0.055,-0.04,-0.046
-0.023,-0.05,-0.027,0.037,0.002,-0.039,0.043,-0.03,-0.055,-0.055,-0.04,-0.05
-0.025,-0.05,-0.024,0.038,0.0,-0.037,0.038,-0.026,-0.05,-0.055,-0.04,-0.05
-0.033,-0.05,-0.017,0.042,-0.008,-0.034,0.032,-0.025,-0.045,-0.055,-0.04,-0.052
-0.017,-0.046,-0.029,0.032,0.007,-0.038,0.028,-0.021,-0.049,-0.055,-0.04,-0.055
-0.004,-0.044,-0.04,0.025,0.018,-0.042,0.023,-0.02,-0.05,-0.055,-0.044,-0.055
-0.009,-0.041,-0.032,0.025,0.011,-0.036,0.02,-0.02,-0.05,-0.055,-0.045,-0.052
-0.011,-0.039,-0.028,0.025,0.009,-0.033,0.017,-0.015,-0.05,-0.055,-0.045,-0.049
-0.014,-0.035,-0.021,0.025,0.004,-0.027,0.013,-0.015,-0.05,-0.055,-0.045,-0.05
-0.018,-0.035,-0.017,0.027,0.0,-0.026,0.009,-0.016,-0.051,-0.055,-0.045,-0.05
-0.039,-0.047,-0.008,0.043,-0.015,-0.027,0.034,-0.023,-0.055,-0.056,-0.044,-0.051
-0.054,-0.051,0.003,0.053,-0.029,-0.024,0.047,-0.022,-0.055,-0.061,-0.039,-0.048
-0.045,-0.049,-0.004,0.047,-0.021,-0.026,0.039,-0.019,-0.055,-0.059,-0.036,-0.045
-0.04,-0.05,-0.011,0.045,-0.014,-0.03,0.035,-0.021,-0.055,-0.055,-0.033,-0.045
-0.032,-0.05,-0.018,0.041,-0.007,-0.034,0.032,-0.019,-0.055,-0.052,-0.028,-0.045
-0.023,-0.049,-0.026,0.037,0.001,-0.037,0.026,-0.021,-0.052,-0.047,-0.025,-0.045
-0.013,-0.046,-0.033,0.03,0.01,-0.039,0.022,-0.019,-0.046,-0.045,-0.024,-0.045
-0.011,-0.043,-0.032,0.027,0.011,-0.037,0.052,-0.014,-0.042,-0.053,-0.027,-0.049
-0.03,-0.055,-0.024,0.043,-0.003,-0.039,0.064,-0.008,-0.037,-0.058,-0.03,-0.047
-0.038,-0.058,-0.02,0.048,-0.009,-0.039,0.056,-0.007,-0.032,-0.048,-0.022,-0.039
-0.008,-0.021,-0.013,0.015,0.003,-0.017,0.056,0.007,-0.028,-0.042,-0.014,-0.033
0.032,0.029,-0.003,-0.03,0.017,0.012,0.051,0.031,-0.004,-0.027,-0.006,-0.025
0.035,0.046,0.011,-0.041,0.012,0.028,0.051,0.029,0.007,-0.009,0.001,-0.021
0.036,0.048,0.012,-0.042,0.012,0.03,0.043,0.024,-0.003,-0.003,0.007,-0.025
0.046,0.054,0.007,-0.05,0.019,0.03,0.026,0.019,-0.009,0.0,0.015,-0.025
0.027,0.03,0.003,-0.029,0.011,0.017,0.01,0.015,-0.016,-0.011,0.008,-0.025
0.018,-0.012,-0.03,-0.003,0.024,-0.02,0.004,0.01,-0.031,-0.029,-0.007,-0.025
0.037,-0.023,-0.06,-0.007,0.049,-0.042,-0.001,0.006,-0.044,-0.042,-0.019,-0.028
0.019,-0.037,-0.056,0.009,0.038,-0.047,0.012,0.005,-0.047,-0.053,-0.031,-0.044
-0.015,-0.063,-0.048,0.039,0.017,-0.055,0.035,-0.001,-0.056,-0.061,-0.037,-0.053
-0.033,-0.077,-0.044,0.055,0.006,-0.06,0.036,0.001,-0.056,-0.062,-0.046,-0.065
-0.048,-0.081,-0.033,0.064,-0.007,-0.057,0.034,-0.009,-0.063,-0.06,-0.045,-0.065
-0.042,-0.075,-0.033,0.059,-0.004,-0.054,0.034,0.0,-0.057,-0.055,-0.045,-0.066
-0.043,-0.064,-0.021,0.054,-0.011,-0.043,0.028,-0.011,-0.063,-0.056,-0.046,-0.063
-0.026,-0.057,-0.031,0.042,0.002,-0.043,0.032,0.0,-0.059,-0.048,-0.043,-0.058
-0.038,-0.049,-0.011,0.044,-0.013,-0.03,0.028,-0.003,-0.052,-0.052,-0.048,-0.063
-0.068,-0.028,0.039,0.048,-0.053,0.005,0.1,0.148,0.048,0.005,0.001,-0.035
0.089,0.032,-0.057,-0.061,0.073,-0.013,0.074,0.298,0.353,0.279,0.247,0.134
0.442,0.325,-0.117,-0.383,0.279,0.104,-0.319,-0.343,0.246,0.602,0.719,0.594
0.341,0.326,-0.014,-0.333,0.177,0.156,-0.452,-1.017,-0.388,0.279,0.529,0.529
-0.12,-0.121,0.0,0.121,-0.06,-0.06,-0.195,-0.928,-0.819,-0.484,-0.272,-0.125
-0.164,-0.24,-0.076,0.202,-0.044,-0.158,-0.123,-0.597,-0.716,-0.602,-0.442,-0.289
-0.092,-0.182,-0.09,0.137,-0.001,-0.136,-0.088,-0.258,-0.36,-0.332,-0.243,-0.193
-0.067,-0.133,-0.066,0.1,0.0,-0.099,0.01,-0.043,-0.126,-0.165,-0.13,-0.129
-0.032,-0.064,-0.032,0.049,0.0,-0.048,0.05,0.013,-0.043,-0.08,-0.058,-0.075
-0.044,-0.057,-0.013,0.051,-0.015,-0.035,0.051,0.032,-0.018,-0.084,-0.056,-0.081
-0.017,-0.033,-0.016,0.026,0.0,-0.025,0.044,0.037,-0.007,-0.064,-0.041,-0.059
-0.021,-0.035,-0.014,0.028,-0.003,-0.024,0.045,0.043,-0.006,-0.061,-0.043,-0.061
-0.019,-0.034,-0.015,0.027,-0.001,-0.025,0.039,0.045,-0.002,-0.053,-0.035,-0.052
-0.02,-0.035,-0.015,0.028,-0.002,-0.025,0.04,0.045,0.003,-0.045,-0.031,-0.05
-0.023,-0.036,-0.012,0.03,-0.005,-0.024,0.04,0.049,0.006,-0.041,-0.029,-0.047
-0.024,-0.034,-0.01,0.029,-0.006,-0.022,0.04,0.053,0.009,-0.031,-0.022,-0.041
-0.028,-0.036,-0.008,0.032,-0.009,-0.022,0.04,0.057,0.012,-0.029,-0.021,-0.041
-0.022,-0.027,-0.006,0.025,-0.008,-0.016,0.04,0.061,0.016,-0.021,-0.016,-0.034
-0.014,-0.018,-0.003,0.016,-0.005,-0.01,0.04,0.064,0.019,-0.02,-0.013,-0.028
0.012,-0.007,-0.019,-0.002,0.016,-0.013,0.036,0.067,0.024,-0.013,-0.009,-0.02
0.043,0.002,-0.04,-0.022,0.041,-0.019,0.029,0.074,0.03,-0.01,-0.001,-0.014
0.049,0.009,-0.04,-0.029,0.045,-0.015,0.022,0.081,0.045,0.001,0.012,-0.008
0.049,0.01,-0.039,-0.029,0.044,-0.015,0.016,0.084,0.05,0.015,0.022,-0.002
0.053,0.013,-0.041,-0.033,0.047,-0.014,0.009,0.094,0.067,0.028,0.029,0.01
0.061,0.022,-0.039,-0.042,0.05,-0.008,0.004,0.126,0.093,0.052,0.044,0.023
0.075,0.033,-0.042,-0.054,0.058,-0.004,-0.004,0.142,0.114,0.065,0.058,0.036
0.088,0.042,-0.047,-0.065,0.067,-0.002,-0.012,0.154,0.144,0.084,0.073,0.05
0.125,0.07,-0.055,-0.097,0.09,0.007,-0.02,0.193,0.182,0.119,0.099,0.062
0.149,0.095,-0.054,-0.121,0.101,0.02,-0.028,0.226,0.232,0.154,0.129,0.087
0.161,0.103,-0.058,-0.132,0.109,0.023,-0.034,0.266,0.284,0.197,0.172,0.122
0.218,0.144,-0.074,-0.181,0.146,0.035,-0.045,0.311,0.35,0.256,0.221,0.162
0.237,0.165,-0.072,-0.201,0.154,0.046,-0.055,0.35,0.401,0.299,0.255,0.195
0.246,0.179,-0.067,-0.212,0.156,0.056,-0.065,0.38,0.449,0.337,0.294,0.218
0.262,0.199,-0.063,-0.23,0.163,0.068,-0.069,0.383,0.476,0.371,0.326,0.236
0.243,0.203,-0.04,-0.223,0.141,0.081,-0.059,0.378,0.467,0.369,0.333,0.236
0.235,0.218,-0.017,-0.226,0.126,0.1,-0.056,0.366,0.457,0.365,0.319,0.234
0.204,0.196,-0.008,-0.2,0.106,0.093,-0.036,0.324,0.39,0.319,0.274,0.208
0.136,0.147,0.011,-0.142,0.062,0.079,-0.007,0.266,0.292,0.244,0.209,0.15
0.075,0.1,0.025,-0.088,0.024,0.063,0.005,0.208,0.2,0.171,0.135,0.087
0.043,0.06,0.017,-0.051,0.012,0.038,0.024,0.149,0.125,0.1,0.077,0.045
0.009,0.02,0.011,-0.014,-0.001,0.015,0.021,0.102,0.078,0.049,0.041,0.018
-0.01,-0.006,0.005,0.008,-0.007,-0.001,0.026,0.086,0.036,0.02,0.018,-0.002
-0.013,-0.017,-0.003,0.015,-0.005,-0.01,0.056,0.082,0.008,0.014,0.009,-0.009
-0.02,-0.023,-0.003,0.022,-0.009,-0.013,0.052,0.074,-0.001,0.002,0.003,-0.014
-0.02,-0.019,0.0,0.019,-0.01,-0.009,0.043,0.068,-0.002,-0.007,-0.005,-0.019
-0.02,-0.02,0.0,0.02,-0.01,-0.01,0.039,0.06,-0.005,-0.01,-0.013,-0.025
-0.017,-0.016,0.0,0.016,-0.008,-0.008,0.029,0.064,-0.009,-0.013,-0.019,-0.03
-0.014,-0.015,0.0,0.015,-0.006,-0.007,0.028,0.069,-0.01,-0.016,-0.02,-0.03
-0.016,-0.015,0.001,0.015,-0.008,-0.007,0.044,0.065,-0.013,-0.019,-0.02,-0.03
-0.015,-0.01,0.004,0.012,-0.009,-0.003,0.046,0.065,-0.016,-0.021,-0.02,-0.03
-0.015,-0.009,0.006,0.012,-0.01,-0.001,0.04,0.065,-0.015,-0.024,-0.02,-0.03
-0.013,-0.011,0.002,0.012,-0.008,-0.004,0.039,0.065,-0.015,-0.025,-0.02,-0.03
-0.001,-0.008,-0.007,0.005,0.003,-0.008,0.034,0.065,-0.015,-0.025,-0.022,-0.032
0.0,-0.017,-0.018,0.009,0.009,-0.017,0.035,0.061,-0.016,-0.025,-0.026,-0.036
-0.004,-0.031,-0.027,0.018,0.012,-0.029,0.035,0.06,-0.022,-0.025,-0.029,-0.039
-0.004,-0.03,-0.026,0.018,0.011,-0.028,0.035,0.06,-0.025,-0.027,-0.033,-0.043
-0.009,-0.03,-0.021,0.019,0.006,-0.025,0.035,0.055,-0.031,-0.032,-0.035,-0.045
-0.009,-0.027,-0.018,0.018,0.004,-0.022,0.034,0.055,-0.034,-0.027,-0.03,-0.045
-0.01,-0.024,-0.014,0.018,0.003,-0.019,0.047,0.054,-0.037,-0.034,-0.03,-0.045
-0.01,-0.026,-0.016,0.018,0.004,-0.021,0.051,0.049,-0.033,-0.055,-0.029,-0.045
-0.014,-0.025,-0.01,0.02,-0.001,-0.017,0.046,0.044,-0.043,-0.057,-0.036,-0.045
-0.014,-0.024,-0.011,0.019,-0.001,-0.017,0.044,0.039,-0.065,-0.059,-0.046,-0.045
-0.022,-0.031,-0.009,0.026,-0.006,-0.019,0.041,0.035,-0.065,-0.063,-0.045,-0.047
-0.03,-0.036,-0.006,0.034,-0.011,-0.021,0.039,0.03,-0.065,-0.064,-0.045,-0.05
-0.031,-0.035,-0.004,0.033,-0.013,-0.02,0.036,0.026,-0.066,-0.068,-0.045,-0.05
-0.031,-0.033,-0.003,0.032,-0.013,-0.018,0.035,0.025,-0.064,-0.07,-0.044,-0.05
-0.01,-0.031,-0.021,0.021,0.006,-0.026,0.035,0.025,-0.065,-0.07,-0.048,-0.05
-0.001,-0.027,-0.027,0.015,0.013,-0.026,0.035,0.025,-0.065,-0.07,-0.054,-0.049
-0.02,-0.044,-0.024,0.033,0.002,-0.034,0.035,0.025,-0.065,-0.07,-0.055,-0.046
-0.042,-0.062,-0.02,0.052,-0.011,-0.041,0.037,0.024,-0.065,-0.07,-0.055,-0.043
-0.038,-0.059,-0.021,0.049,-0.009,-0.04,0.04,0.02,-0.065,-0.075,-0.055,-0.041
-0.044,-0.06,-0.016,0.052,-0.014,-0.038,0.04,0.021,-0.065,-0.075,-0.055,-0.037
-0.045,-0.06,-0.016,0.053,-0.015,-0.038,0.04,0.017,-0.07,-0.075,-0.055,-0.035
-0.02,-0.056,-0.036,0.038,0.008,-0.046,0.04,0.014,-0.07,-0.075,-0.058,-0.037
-0.019,-0.049,-0.03,0.034,0.006,-0.04,0.039,0.015,-0.071,-0.075,-0.06,-0.041
-0.018,-0.043,-0.024,0.031,0.003,-0.033,0.036,0.011,-0.076,-0.073,-0.061,-0.044
-0.012,-0.035,-0.023,0.024,0.006,-0.029,0.034,0.01,-0.074,-0.069,-0.065,-0.048
-0.016,-0.03,-0.014,0.023,-0.001,-0.021,0.03,0.01,-0.073,-0.07,-0.065,-0.05
-0.001,-0.024,-0.023,0.013,0.011,-0.023,0.028,0.01,-0.068,-0.066,-0.059,-0.044
-0.008,-0.038,-0.03,0.023,0.012,-0.034,0.023,0.009,-0.073,-0.065,-0.053,-0.038
-0.016,-0.038,-0.022,0.027,0.003,-0.03,0.029,0.012,-0.087,-0.065,-0.046,-0.031
0.0,-0.018,-0.018,0.009,0.009,-0.018,0.032,0.022,-0.076,-0.058,-0.04,-0.024
0.013,0.002,-0.011,-0.007,0.012,-0.004,0.038,0.035,-0.065,-0.047,-0.032,-0.017
0.032,0.032,0.0,-0.032,0.016,0.016,0.059,0.049,-0.047,-0.034,-0.023,-0.008
0.028,0.044,0.016,-0.037,0.006,0.03,0.044,0.051,-0.03,-0.023,-0.012,0.003
0.054,0.077,0.023,-0.066,0.015,0.05,0.025,0.044,-0.021,-0.023,-0.003,0.012
0.082,0.094,0.013,-0.088,0.034,0.053,0.02,0.03,-0.017,-0.026,-0.007,0.009
0.052,0.06,0.008,-0.056,0.021,0.034,0.011,0.023,-0.045,-0.028,-0.018,-0.002
0.047,0.02,-0.027,-0.033,0.036,-0.004,0.002,0.017,-0.07,-0.051,-0.028,-0.009
0.043,-0.018,-0.061,-0.012,0.052,-0.039,0.007,0.011,-0.071,-0.063,-0.039,-0.022
0.025,-0.035,-0.06,0.005,0.043,-0.048,0.026,0.007,-0.079,-0.073,-0.068,-0.055
0.005,-0.051,-0.056,0.023,0.031,-0.053,0.031,-0.001,-0.093,-0.092,-0.09,-0.07
-0.001,-0.056,-0.055,0.029,0.027,-0.055,0.029,-0.007,-0.086,-0.088,-0.09,-0.07
0.01,-0.041,-0.05,0.016,0.03,-0.045,0.031,-0.02,-0.095,-0.092,-0.091,-0.07
0.0,-0.049,-0.049,0.025,0.025,-0.048,0.029,-0.009,-0.084,-0.087,-0.095,-0.077
0.018,-0.03,-0.047,0.007,0.033,-0.039,0.027,-0.019,-0.096,-0.094,-0.096,-0.074
-0.008,-0.046,-0.038,0.027,0.015,-0.042,0.045,0.005,-0.08,-0.083,-0.091,-0.074
-0.009,-0.054,-0.045,0.031,0.019,-0.049,0.034,-0.004,-0.062,-0.071,-0.084,-0.064
-0.001,-0.034,-0.033,0.018,0.016,-0.033,0.111,0.153,0.036,-0.003,-0.032,-0.029
0.133,0.025,-0.108,-0.079,0.121,-0.041,0.053,0.32,0.398,0.363,0.301,0.185
0.46,0.348,-0.112,-0.404,0.286,0.118,-0.32,-0.273,0.277,0.716,0.815,0.66
0.286,0.313,0.026,-0.299,0.13,0.169,-0.364,-0.889,-0.426,0.287,0.499,0.506
-0.134,-0.109,0.025,0.121,-0.08,-0.042,-0.152,-0.839,-0.87,-0.538,-0.34,-0.15
-0.182,-0.217,-0.035,0.2,-0.073,-0.126,-0.104,-0.518,-0.748,-0.637,-0.47,-0.276
-0.078,-0.186,-0.108,0.132,0.015,-0.146,-0.051,-0.188,-0.388,-0.355,-0.289,-0.194
-0.008,-0.12,-0.112,0.064,0.052,-0.115,0.025,-0.034,-0.168,-0.202,-0.179,-0.141
-0.003,-0.07,-0.067,0.037,0.032,-0.068,0.047,0.008,-0.076,-0.118,-0.11,-0.091
0.01,-0.064,-0.074,0.027,0.042,-0.069,0.038,0.028,-0.058,-0.114,-0.109,-0.083
0.02,-0.047,-0.067,0.013,0.044,-0.057,0.036,0.027,-0.054,-0.094,-0.089,-0.056
0.015,-0.05,-0.065,0.018,0.04,-0.057,0.033,0.019,-0.054,-0.09,-0.089,-0.059
0.014,-0.039,-0.052,0.013,0.033,-0.045,0.028,0.012,-0.06,-0.081,-0.076,-0.05
0.01,-0.036,-0.046,0.013,0.028,-0.041,0.025,0.006,-0.059,-0.072,-0.072,-0.048
0.004,-0.03,-0.034,0.013,0.019,-0.032,0.037,-0.001,-0.061,-0.064,-0.064,-0.043
-0.014,-0.025,-0.011,0.02,-0.001,-0.018,0.037,0.022,-0.048,-0.058,-0.057,-0.038
0.019,-0.025,-0.044,0.003,0.032,-0.035,0.031,0.032,-0.029,-0.061,-0.051,-0.036
0.043,-0.025,-0.068,-0.009,0.056,-0.046,0.023,0.019,-0.021,-0.054,-0.045,-0.034
0.024,-0.025,-0.049,0.001,0.037,-0.037,0.014,0.019,-0.016,-0.051,-0.051,-0.046
0.023,-0.024,-0.047,0.001,0.035,-0.035,0.031,0.004,-0.01,-0.047,-0.044,-0.035
-0.001,-0.036,-0.035,0.019,0.017,-0.035,0.025,0.02,-0.004,-0.041,-0.038,-0.023
0.011,-0.024,-0.035,0.007,0.023,-0.029,0.002,0.066,0.001,-0.03,-0.031,-0.024
0.079,0.01,-0.07,-0.044,0.074,-0.03,0.004,0.073,0.017,-0.017,-0.024,-0.012
0.078,0.001,-0.077,-0.039,0.077,-0.038,0.005,0.066,0.048,0.003,-0.017,0.005
0.071,-0.003,-0.074,-0.034,0.073,-0.038,-0.017,0.075,0.063,0.036,0.003,0.029
0.1,0.024,-0.076,-0.061,0.087,-0.026,-0.021,0.09,0.081,0.053,0.02,0.045
0.114,0.036,-0.078,-0.075,0.096,-0.02,-0.029,0.111,0.115,0.075,0.042,0.055
0.154,0.05,-0.104,-0.102,0.129,-0.027,-0.054,0.136,0.157,0.114,0.069,0.084
0.173,0.082,-0.09,-0.128,0.131,-0.004,-0.05,0.168,0.2,0.151,0.103,0.097
0.181,0.109,-0.072,-0.145,0.126,0.019,-0.049,0.22,0.255,0.201,0.141,0.119
0.231,0.128,-0.103,-0.18,0.167,0.012,-0.088,0.258,0.314,0.252,0.184,0.158
0.282,0.17,-0.113,-0.226,0.197,0.028,-0.111,0.289,0.369,0.299,0.229,0.187
0.289,0.191,-0.099,-0.24,0.194,0.046,-0.098,0.314,0.418,0.338,0.26,0.214
0.298,0.194,-0.104,-0.246,0.2,0.045,-0.097,0.332,0.438,0.376,0.299,0.241
0.28,0.216,-0.064,-0.248,0.172,0.076,-0.081,0.349,0.446,0.39,0.308,0.237
0.208,0.207,-0.002,-0.207,0.105,0.102,-0.066,0.313,0.412,0.361,0.283,0.217
0.175,0.167,-0.008,-0.171,0.091,0.08,-0.053,0.246,0.324,0.289,0.226,0.187
0.122,0.144,0.022,-0.133,0.05,0.083,-0.026,0.199,0.224,0.196,0.143,0.113
0.042,0.093,0.051,-0.068,-0.004,0.071,-0.005,0.137,0.134,0.119,0.08,0.061
0.023,0.039,0.016,-0.032,0.003,0.027,0.024,0.076,0.065,0.06,0.027,0.043
0.036,0.028,-0.008,-0.032,0.022,0.01,0.025,0.049,0.014,0.025,-0.017,0.004
0.034,0.019,-0.015,-0.026,0.024,0.002,0.013,0.032,-0.014,-0.005,-0.045,-0.029
0.021,0.016,-0.005,-0.018,0.013,0.005,0.031,0.025,-0.028,-0.031,-0.062,-0.031
-0.001,0.009,0.01,-0.004,-0.006,0.009,0.048,0.021,-0.033,-0.036,-0.066,-0.03
-0.018,0.004,0.022,0.007,-0.02,0.013,0.042,0.019,-0.039,-0.034,-0.071,-0.028
-0.022,-0.003,0.02,0.013,-0.021,0.008,0.039,0.014,-0.041,-0.036,-0.075,-0.025
-0.039,-0.02,0.019,0.029,-0.029,0.0,0.036,0.011,-0.039,-0.035,-0.075,-0.025
-0.035,-0.021,0.015,0.027,-0.025,-0.002,0.031,0.007,-0.041,-0.036,-0.075,-0.03
-0.032,-0.016,0.015,0.023,-0.023,0.0,0.029,0.003,-0.039,-0.033,-0.075,-0.035
-0.026,-0.014,0.012,0.02,-0.018,-0.001,0.022,-0.002,-0.041,-0.029,-0.075,-0.035
-0.002,-0.009,-0.008,0.006,0.003,-0.008,0.018,-0.005,-0.05,-0.031,-0.076,-0.035
0.002,-0.007,-0.009,0.003,0.006,-0.008,0.012,0.0,-0.059,-0.028,-0.073,-0.036
0.001,-0.003,-0.004,0.001,0.003,-0.004,0.007,-0.001,-0.06,-0.041,-0.07,-0.035
-0.007,-0.002,0.005,0.004,-0.006,0.001,0.0,0.002,-0.061,-0.052,-0.07,-0.035
0.012,0.006,-0.006,-0.009,0.009,0.0,0.012,-0.013,-0.065,-0.048,-0.068,-0.048
0.035,0.015,-0.02,-0.025,0.027,-0.002,0.035,-0.033,-0.065,-0.047,-0.065,-0.051
0.017,0.007,-0.01,-0.012,0.013,-0.001,0.035,-0.029,-0.066,-0.043,-0.064,-0.045
0.005,0.001,-0.004,-0.003,0.004,-0.001,0.035,-0.03,-0.072,-0.055,-0.081,-0.044
-0.004,-0.006,-0.002,0.005,-0.001,-0.004,0.033,-0.03,-0.075,-0.061,-0.092,-0.039
0.001,-0.012,-0.013,0.006,0.007,-0.012,0.029,-0.029,-0.074,-0.054,-0.089,-0.042
0.003,-0.019,-0.022,0.008,0.013,-0.02,0.031,-0.035,-0.082,-0.065,-0.091,-0.045
-0.01,-0.031,-0.021,0.02,0.006,-0.026,0.026,-0.04,-0.092,-0.071,-0.09,-0.044
-0.014,-0.032,-0.018,0.023,0.002,-0.025,0.025,-0.043,-0.095,-0.069,-0.09,-0.048
-0.012,-0.028,-0.016,0.021,0.002,-0.022,0.025,-0.045,-0.099,-0.07,-0.093,-0.05
-0.014,-0.026,-0.012,0.02,0.0,-0.018,0.025,-0.043,-0.104,-0.07,-0.099,-0.05
-0.012,-0.022,-0.011,0.017,0.0,-0.016,0.025,-0.037,-0.105,-0.069,-0.097,-0.05
-0.013,-0.019,-0.006,0.016,-0.003,-0.013,0.025,-0.048,-0.105,-0.081,-0.106,-0.05
-0.035,-0.023,0.012,0.029,-0.023,-0.005,0.025,-0.066,-0.105,-0.091,-0.118,-0.05
-0.05,-0.033,0.016,0.041,-0.033,-0.008,0.025,-0.062,-0.105,-0.089,-0.111,-0.05
-0.047,-0.038,0.009,0.043,-0.028,-0.014,0.026,-0.058,-0.104,-0.09,-0.11,-0.049
-0.047,-0.041,0.006,0.043,-0.026,-0.017,0.02,-0.055,-0.1,-0.09,-0.106,-0.051
-0.046,-0.044,0.002,0.045,-0.023,-0.021,0.013,-0.05,-0.1,-0.09,-0.105,-0.055
-0.042,-0.047,-0.005,0.045,-0.018,-0.026,-0.001,-0.053,-0.097,-0.086,-0.101,-0.054
-0.048,-0.05,-0.002,0.049,-0.023,-0.026,-0.014,-0.055,-0.095,-0.08,-0.094,-0.058
-0.047,-0.048,-0.001,0.048,-0.023,-0.025,-0.002,-0.055,-0.095,-0.075,-0.091,-0.06
-0.03,-0.028,0.003,0.029,-0.016,-0.012,0.007,-0.055,-0.091,-0.069,-0.084,-0.061
-0.012,-0.007,0.005,0.01,-0.008,-0.001,0.019,-0.054,-0.081,-0.063,-0.079,-0.049
-0.002,0.013,0.015,-0.006,-0.009,0.014,0.036,-0.05,-0.076,-0.059,-0.074,-0.022
-0.009,0.049,0.058,-0.02,-0.034,0.054,0.025,-0.05,-0.08,-0.052,-0.069,-0.009
-0.006,0.066,0.072,-0.03,-0.039,0.069,0.002,-0.05,-0.083,-0.046,-0.066,-0.001
0.012,0.082,0.069,-0.047,-0.029,0.075,-0.006,-0.049,-0.087,-0.048,-0.067,0.011
0.016,0.077,0.06,-0.047,-0.022,0.068,-0.02,-0.051,-0.09,-0.053,-0.072,0.009
0.007,0.038,0.031,-0.023,-0.013,0.035,-0.032,-0.046,-0.09,-0.058,-0.073,-0.01
-0.019,0.001,0.02,0.009,-0.02,0.01,-0.021,-0.046,-0.09,-0.061,-0.079,-0.023
-0.034,-0.024,0.01,0.029,-0.022,-0.007,-0.009,-0.043,-0.094,-0.07,-0.084,-0.042
-0.015,-0.017,-0.003,0.016,-0.005,-0.01,-0.001,-0.044,-0.117,-0.087,-0.092,-0.053
-0.03,-0.051,-0.021,0.041,-0.004,-0.035,0.014,-0.036,-0.114,-0.083,-0.109,-0.058
-0.054,-0.081,-0.027,0.068,-0.013,-0.054,0.022,-0.044,-0.116,-0.089,-0.112,-0.065
-0.046,-0.068,-0.023,0.057,-0.011,-0.045,0.013,-0.049,-0.122,-0.091,-0.108,-0.063
-0.046,-0.074,-0.028,0.06,-0.009,-0.05,0.009,-0.05,-0.115,-0.089,-0.112,-0.069
-0.036,-0.061,-0.025,0.049,-0.005,-0.043,-0.001,-0.05,-0.126,-0.089,-0.108,-0.065
-0.024,-0.067,-0.043,0.045,0.01,-0.054,-0.002,-0.037,-0.102,-0.079,-0.108,-0.076
-0.065,-0.053,0.012,0.059,-0.038,-0.021,0.057,-0.025,-0.103,-0.087,-0.1,-0.06
-0.05,-0.044,0.006,0.047,-0.028,-0.019,0.118,0.231,0.157,0.101,0.026,0.006
0.25,0.139,-0.111,-0.195,0.181,0.014,-0.107,0.106,0.387,0.579,0.54,0.396
0.411,0.384,-0.027,-0.397,0.219,0.178,-0.425,-0.629,-0.056,0.722,0.87,0.754
0.078,0.115,0.037,-0.097,0.02,0.076,-0.333,-0.956,-0.724,-0.073,0.133,0.249
-0.178,-0.198,-0.02,0.188,-0.079,-0.109,-0.178,-0.746,-0.936,-0.736,-0.526,-0.254
-0.148,-0.21,-0.063,0.179,-0.042,-0.136,-0.125,-0.394,-0.621,-0.547,-0.426,-0.239
-0.07,-0.164,-0.094,0.117,0.012,-0.128,-0.022,-0.125,-0.29,-0.289,-0.267,-0.163
-0.047,-0.098,-0.051,0.072,0.002,-0.075,0.018,-0.035,-0.129,-0.157,-0.15,-0.079
-0.056,-0.072,-0.016,0.064,-0.02,-0.043,0.029,-0.033,-0.075,-0.109,-0.121,-0.071
-0.036,-0.048,-0.012,0.042,-0.012,-0.029,0.036,-0.03,-0.08,-0.089,-0.114,-0.065
-0.042,-0.053,-0.01,0.048,-0.016,-0.031,0.043,-0.022,-0.066,-0.07,-0.104,-0.064
-0.04,-0.053,-0.013,0.046,-0.013,-0.033,0.039,-0.018,-0.068,-0.077,-0.107,-0.064
-0.018,-0.046,-0.028,0.032,0.005,-0.037,0.031,-0.012,-0.055,-0.062,-0.095,-0.057
-0.024,-0.048,-0.024,0.036,0.001,-0.036,0.028,-0.007,-0.064,-0.063,-0.098,-0.063
-0.026,-0.04,-0.014,0.033,-0.006,-0.027,0.02,-0.004,-0.068,-0.054,-0.086,-0.051
-0.031,-0.042,-0.012,0.037,-0.01,-0.027,0.018,0.001,-0.042,-0.05,-0.08,-0.044
-0.037,-0.036,0.002,0.037,-0.019,-0.017,0.013,0.006,-0.033,-0.043,-0.064,-0.032
-0.035,-0.03,0.005,0.032,-0.02,-0.012,0.011,-0.024,-0.042,-0.035,-0.064,-0.027
-0.022,-0.018,0.005,0.02,-0.013,-0.006,0.008,-0.032,-0.042,-0.03,-0.067,-0.021
-0.02,-0.015,0.005,0.017,-0.012,-0.004,0.005,-0.014,-0.029,-0.022,-0.054,-0.015
-0.034,-0.021,0.013,0.027,-0.023,-0.004,0.003,-0.001,-0.019,-0.016,-0.044,-0.01
-0.022,-0.006,0.016,0.013,-0.018,0.005,-0.017,0.011,-0.006,-0.011,-0.031,-0.006
-0.009,-0.004,0.006,0.006,-0.007,0.001,-0.04,0.024,0.006,0.01,-0.02,-0.001
0.014,-0.007,-0.02,-0.003,0.018,-0.013,-0.04,0.039,0.03,0.035,-0.005,0.003
0.044,0.002,-0.041,-0.023,0.043,-0.019,-0.041,0.048,0.058,0.052,0.008,0.013
0.045,0.012,-0.033,-0.028,0.039,-0.01,-0.046,0.06,0.075,0.071,0.028,0.048
0.061,0.033,-0.028,-0.047,0.044,0.002,-0.043,0.091,0.119,0.108,0.065,0.077
0.089,0.065,-0.024,-0.077,0.056,0.021,-0.05,0.132,0.175,0.151,0.095,0.096
0.108,0.093,-0.015,-0.1,0.061,0.039,-0.069,0.16,0.227,0.193,0.136,0.126
0.151,0.125,-0.026,-0.137,0.088,0.049,-0.075,0.208,0.296,0.253,0.188,0.16
0.191,0.151,-0.04,-0.17,0.115,0.055,-0.075,0.251,0.355,0.306,0.231,0.199
0.18,0.15,-0.03,-0.165,0.105,0.06,-0.1,0.268,0.403,0.357,0.27,0.229
0.202,0.178,-0.025,-0.19,0.113,0.076,-0.118,0.299,0.45,0.4,0.312,0.252
0.209,0.195,-0.014,-0.202,0.112,0.09,-0.099,0.296,0.451,0.4,0.315,0.263
0.156,0.184,0.027,-0.17,0.064,0.105,-0.073,0.267,0.425,0.393,0.301,0.259
0.143,0.187,0.043,-0.165,0.05,0.115,-0.055,0.231,0.36,0.345,0.27,0.23
0.097,0.154,0.058,-0.126,0.019,0.106,-0.041,0.178,0.258,0.253,0.194,0.173
0.026,0.101,0.075,-0.064,-0.025,0.088,-0.024,0.127,0.166,0.177,0.12,0.11
-0.002,0.061,0.063,-0.029,-0.033,0.062,-0.011,0.08,0.085,0.106,0.053,0.063
-0.03,0.025,0.056,0.002,-0.043,0.04,-0.004,0.039,0.04,0.056,0.002,0.036
-0.036,0.011,0.047,0.012,-0.042,0.029,0.012,0.014,0.006,0.025,-0.016,0.011
-0.046,-0.003,0.043,0.024,-0.044,0.02,0.029,0.003,-0.025,0.008,-0.024,0.0
-0.06,-0.023,0.037,0.041,-0.048,0.007,0.03,-0.002,-0.046,0.003,-0.036,-0.003
-0.055,-0.021,0.034,0.038,-0.044,0.006,0.025,-0.005,-0.051,-0.005,-0.037,-0.007
-0.043,-0.015,0.028,0.029,-0.035,0.006,0.025,-0.008,-0.049,-0.01,-0.034,-0.01
-0.036,-0.009,0.026,0.022,-0.031,0.008,0.026,-0.013,-0.051,-0.018,-0.035,-0.015
-0.045,-0.004,0.04,0.024,-0.042,0.018,0.022,-0.014,-0.05,-0.018,-0.035,-0.013
-0.036,0.003,0.039,0.016,-0.038,0.021,0.016,-0.011,-0.05,-0.015,-0.035,-0.01
-0.044,-0.003,0.041,0.023,-0.043,0.019,0.009,-0.008,-0.05,-0.015,-0.034,-0.01
-0.059,-0.021,0.038,0.04,-0.048,0.008,0.003,-0.005,-0.05,-0.011,-0.03,-0.01
-0.059,-0.015,0.044,0.037,-0.051,0.014,-0.004,-0.003,-0.05,-0.01,-0.03,-0.01
-0.042,-0.01,0.032,0.026,-0.037,0.011,-0.011,0.002,-0.05,-0.011,-0.03,-0.01
-0.035,-0.007,0.028,0.021,-0.031,0.01,0.014,-0.011,-0.05,-0.015,-0.03,-0.01
-0.064,0.001,0.064,0.031,-0.064,0.032,0.028,-0.022,-0.052,-0.015,-0.03,-0.01
-0.067,-0.007,0.06,0.037,-0.063,0.026,0.02,-0.017,-0.058,-0.018,-0.029,-0.01
-0.069,-0.017,0.052,0.043,-0.06,0.018,0.019,-0.015,-0.062,-0.026,-0.031,-0.01
-0.062,-0.013,0.049,0.037,-0.055,0.017,0.014,-0.012,-0.065,-0.033,-0.028,-0.01
-0.051,-0.01,0.041,0.03,-0.046,0.015,0.011,-0.009,-0.07,-0.038,-0.037,-0.012
-0.047,-0.008,0.039,0.027,-0.042,0.015,0.007,-0.011,-0.07,-0.036,-0.051,-0.018
-0.035,-0.003,0.032,0.019,-0.033,0.014,0.003,-0.008,-0.071,-0.031,-0.045,-0.021
-0.04,-0.012,0.028,0.026,-0.034,0.007,-0.002,-0.014,-0.075,-0.029,-0.04,-0.027
-0.045,-0.022,0.023,0.033,-0.034,0.0,-0.004,-0.029,-0.075,-0.025,-0.037,-0.03
-0.035,-0.016,0.019,0.025,-0.027,0.001,-0.001,-0.03,-0.077,-0.019,-0.03,-0.025
-0.028,-0.014,0.014,0.02,-0.02,0.0,0.002,-0.03,-0.08,-0.031,-0.038,-0.025
-0.036,-0.009,0.026,0.022,-0.031,0.008,0.005,-0.03,-0.08,-0.042,-0.047,-0.025
-0.037,-0.005,0.032,0.021,-0.034,0.013,0.007,-0.03,-0.08,-0.039,-0.042,-0.025
-0.031,-0.007,0.024,0.019,-0.027,0.008,0.012,-0.029,-0.08,-0.038,-0.04,-0.025
-0.021,-0.01,0.011,0.016,-0.016,0.0,0.006,-0.025,-0.08,-0.034,-0.036,-0.027
-0.037,-0.014,0.024,0.025,-0.03,0.005,0.005,-0.033,-0.08,-0.035,-0.034,-0.03
-0.07,-0.015,0.055,0.043,-0.062,0.02,0.011,-0.036,-0.08,-0.039,-0.039,-0.03
-0.071,-0.02,0.05,0.045,-0.06,0.015,-0.003,-0.034,-0.08,-0.043,-0.04,-0.03
-0.063,-0.018,0.045,0.04,-0.054,0.013,-0.017,-0.035,-0.08,-0.048,-0.043,-0.03
-0.067,-0.025,0.042,0.046,-0.054,0.008,-0.015,-0.035,-0.082,-0.049,-0.045,-0.029
-0.072,-0.036,0.036,0.054,-0.054,0.0,-0.01,-0.035,-0.081,-0.045,-0.046,-0.026
-0.061,-0.028,0.033,0.044,-0.046,0.002,-0.005,-0.04,-0.078,-0.042,-0.05,-0.025
-0.05,-0.024,0.026,0.037,-0.038,0.001,-0.001,-0.048,-0.076,-0.04,-0.05,-0.025
-0.036,-0.018,0.019,0.027,-0.027,0.0,0.004,-0.048,-0.072,-0.036,-0.05,-0.025
-0.025,-0.012,0.013,0.019,-0.019,0.0,0.004,-0.042,-0.07,-0.035,-0.05,-0.026
-0.013,-0.007,0.006,0.01,-0.009,-0.001,-0.002,-0.037,-0.067,-0.031,-0.051,-0.022
0.002,0.001,0.0,-0.002,0.001,0.0,0.0,-0.034,-0.058,-0.022,-0.044,-0.014
-0.015,0.008,0.024,0.004,-0.02,0.016,-0.012,-0.027,-0.049,-0.016,-0.031,-0.007
-0.018,0.04,0.058,-0.012,-0.038,0.049,0.0,-0.026,-0.041,-0.009,-0.019,-0.001
-0.007,0.078,0.086,-0.035,-0.047,0.081,0.034,-0.013,-0.044,-0.001,-0.006,0.008
-0.026,0.066,0.092,-0.02,-0.059,0.078,0.007,-0.013,-0.046,0.005,0.01,0.016
-0.029,0.061,0.089,-0.016,-0.059,0.075,-0.026,-0.044,-0.043,0.014,0.011,0.026
-0.003,0.085,0.088,-0.041,-0.046,0.086,-0.036,-0.052,-0.047,0.008,0.0,0.027
0.016,0.058,0.042,-0.037,-0.013,0.05,-0.032,-0.051,-0.042,-0.006,-0.007,0.014
0.025,0.025,0.0,-0.025,0.013,0.012,-0.021,-0.059,-0.05,-0.021,-0.018,0.004
0.008,0.014,0.006,-0.011,0.001,0.01,-0.013,-0.056,-0.054,-0.028,-0.025,-0.008
-0.034,-0.008,0.026,0.021,-0.03,0.009,-0.006,-0.064,-0.068,-0.042,-0.037,-0.017
-0.062,-0.038,0.024,0.05,-0.043,-0.007,-0.003,-0.062,-0.089,-0.059,-0.051,-0.025
-0.066,-0.048,0.018,0.057,-0.041,-0.015,0.001,-0.067,-0.089,-0.06,-0.051,-0.034
-0.055,-0.039,0.016,0.047,-0.035,-0.011,0.004,-0.064,-0.093,-0.061,-0.049,-0.04
-0.048,-0.041,0.008,0.044,-0.028,-0.016,0.008,-0.063,-0.091,-0.058,-0.051,-0.045
-0.041,-0.032,0.009,0.036,-0.024,-0.012,0.012,-0.07,-0.102,-0.064,-0.049,-0.037
-0.038,-0.033,0.005,0.035,-0.021,-0.014,0.013,-0.053,-0.079,-0.049,-0.048,-0.044
-0.078,-0.024,0.054,0.051,-0.066,0.015,0.032,-0.044,-0.065,-0.033,-0.037,-0.035
-0.075,-0.017,0.058,0.046,-0.066,0.02,0.111,0.184,0.145,0.093,0.051,0.008
0.185,0.148,-0.037,-0.166,0.111,0.055,-0.084,0.037,0.327,0.478,0.467,0.33
0.429,0.43,0.001,-0.43,0.214,0.215,-0.487,-0.768,-0.075,0.667,0.855,0.734
0.161,0.188,0.027,-0.174,0.067,0.107,-0.44,-1.109,-0.683,0.01,0.263,0.338
-0.168,-0.223,-0.056,0.196,-0.056,-0.139,-0.22,-0.826,-0.892,-0.669,-0.452,-0.242
-0.155,-0.225,-0.07,0.19,-0.043,-0.147,-0.154,-0.434,-0.589,-0.512,-0.374,-0.238
-0.102,-0.147,-0.044,0.125,-0.029,-0.095,-0.037,-0.148,-0.233,-0.227,-0.182,-0.132
-0.08,-0.086,-0.005,0.083,-0.037,-0.045,0.035,-0.049,-0.084,-0.104,-0.086,-0.072
-0.073,-0.052,0.021,0.062,-0.047,-0.015,0.044,-0.034,-0.041,-0.049,-0.055,-0.052
-0.075,-0.044,0.031,0.059,-0.053,-0.006,0.039,-0.026,-0.033,-0.046,-0.052,-0.05
-0.066,-0.027,0.039,0.046,-0.052,0.006,0.029,-0.019,-0.023,-0.029,-0.031,-0.039
-0.061,-0.027,0.034,0.043,-0.047,0.003,0.027,-0.013,-0.023,-0.036,-0.035,-0.042
-0.059,-0.024,0.036,0.041,-0.047,0.006,0.014,-0.005,-0.015,-0.027,-0.024,-0.032
-0.061,-0.026,0.035,0.043,-0.047,0.004,0.023,-0.001,-0.013,-0.027,-0.024,-0.031
-0.06,-0.025,0.035,0.042,-0.047,0.005,0.04,0.011,-0.009,-0.024,-0.017,-0.025
-0.06,-0.025,0.035,0.042,-0.047,0.005,0.035,0.025,-0.004,-0.019,-0.013,-0.02
-0.051,-0.021,0.03,0.036,-0.04,0.004,0.027,0.033,-0.003,-0.014,-0.009,-0.016
-0.041,-0.011,0.03,0.026,-0.035,0.009,0.02,0.027,0.004,-0.007,0.001,-0.011
-0.035,-0.005,0.03,0.02,-0.032,0.012,0.012,0.028,0.004,-0.003,0.004,-0.007
-0.025,0.005,0.03,0.01,-0.028,0.017,0.006,0.051,0.018,0.008,0.014,-0.001
-0.019,0.011,0.03,0.004,-0.025,0.02,0.001,0.06,0.037,0.017,0.018,0.003
-0.004,0.026,0.03,-0.011,-0.017,0.028,-0.005,0.067,0.047,0.028,0.023,0.012
0.001,0.03,0.03,-0.016,-0.015,0.03,-0.001,0.089,0.067,0.038,0.042,0.017
-0.014,0.016,0.03,-0.001,-0.022,0.023,0.012,0.102,0.084,0.051,0.055,0.024
0.025,0.055,0.03,-0.04,-0.003,0.042,0.003,0.121,0.111,0.081,0.073,0.041
0.047,0.077,0.03,-0.062,0.008,0.053,-0.006,0.14,0.14,0.1,0.087,0.048
0.056,0.086,0.03,-0.071,0.013,0.057,-0.013,0.172,0.176,0.132,0.114,0.076
0.08,0.105,0.025,-0.093,0.027,0.065,-0.033,0.217,0.227,0.173,0.151,0.102
0.102,0.122,0.02,-0.112,0.041,0.071,-0.039,0.257,0.28,0.211,0.179,0.12
0.15,0.165,0.015,-0.158,0.067,0.09,-0.047,0.306,0.348,0.263,0.222,0.152
0.177,0.189,0.012,-0.184,0.082,0.1,-0.063,0.345,0.404,0.314,0.268,0.184
0.203,0.208,0.005,-0.206,0.099,0.106,-0.072,0.385,0.455,0.359,0.301,0.212
0.219,0.23,0.011,-0.225,0.104,0.12,-0.075,0.409,0.503,0.405,0.337,0.24
0.239,0.261,0.022,-0.25,0.108,0.141,-0.09,0.416,0.52,0.427,0.351,0.25
0.226,0.258,0.031,-0.242,0.097,0.144,-0.086,0.405,0.504,0.416,0.337,0.241
0.164,0.22,0.056,-0.192,0.054,0.137,-0.05,0.351,0.44,0.373,0.316,0.226
0.121,0.191,0.069,-0.156,0.026,0.13,-0.027,0.293,0.342,0.291,0.253,0.171
0.078,0.15,0.073,-0.114,0.002,0.111,-0.009,0.23,0.248,0.208,0.175,0.109
0.044,0.115,0.071,-0.08,-0.013,0.093,0.011,0.168,0.158,0.138,0.111,0.062
0.006,0.076,0.07,-0.041,-0.032,0.073,0.02,0.121,0.099,0.083,0.066,0.019
-0.036,0.033,0.069,0.002,-0.053,0.051,0.021,0.085,0.062,0.049,0.044,-0.001
-0.049,0.015,0.065,0.017,-0.057,0.039,0.02,0.064,0.035,0.034,0.032,-0.018
-0.061,0.004,0.065,0.028,-0.063,0.034,0.017,0.052,0.022,0.03,0.021,-0.03
-0.045,0.02,0.065,0.012,-0.055,0.043,0.014,0.042,0.017,0.022,0.009,-0.03
-0.023,0.042,0.065,-0.01,-0.044,0.053,0.015,0.035,0.015,0.014,0.004,-0.03
-0.031,0.035,0.065,-0.003,-0.048,0.05,0.01,0.033,0.01,0.007,-0.002,-0.035
-0.035,0.03,0.065,0.002,-0.05,0.047,0.01,0.03,0.006,0.001,-0.005,-0.035
-0.038,0.027,0.065,0.005,-0.052,0.046,0.009,0.027,0.005,0.0,-0.01,-0.036
-0.043,0.021,0.065,0.011,-0.054,0.043,0.004,0.025,0.005,0.0,-0.015,-0.04
-0.046,0.014,0.06,0.016,-0.053,0.037,0.006,0.022,0.005,0.0,-0.012,-0.04
-0.032,0.028,0.06,0.002,-0.046,0.044,0.002,0.019,0.005,0.0,-0.009,-0.04
-0.021,0.038,0.059,-0.008,-0.041,0.048,0.0,0.02,0.005,-0.001,-0.006,-0.04
-0.021,0.033,0.055,-0.007,-0.038,0.044,0.0,0.02,0.005,-0.006,-0.003,-0.04
-0.023,0.032,0.055,-0.005,-0.039,0.043,0.0,0.02,0.001,-0.005,0.0,-0.043
-0.028,0.029,0.057,-0.001,-0.042,0.043,0.0,0.02,-0.005,-0.008,-0.001,-0.046
-0.032,0.03,0.062,0.001,-0.047,0.046,0.0,0.015,-0.01,-0.011,-0.006,-0.049
-0.04,0.024,0.064,0.008,-0.053,0.044,0.005,0.011,-0.016,-0.01,-0.009,-0.052
-0.042,0.019,0.061,0.012,-0.052,0.039,0.005,0.006,-0.022,-0.014,-0.012,-0.055
-0.043,0.014,0.056,0.014,-0.05,0.035,0.006,0.001,-0.024,-0.015,-0.017,-0.054
-0.045,0.008,0.053,0.018,-0.05,0.03,0.01,-0.002,-0.02,-0.016,-0.02,-0.05
-0.048,0.002,0.05,0.023,-0.049,0.026,0.01,-0.006,-0.02,-0.024,-0.024,-0.047
-0.042,0.002,0.044,0.019,-0.043,0.023,0.007,-0.004,-0.02,-0.032,-0.026,-0.045
-0.047,0.007,0.055,0.019,-0.051,0.031,0.005,-0.01,-0.02,-0.035,-0.025,-0.042
-0.055,0.012,0.067,0.021,-0.061,0.039,0.005,-0.009,-0.02,-0.035,-0.025,-0.039
-0.05,0.014,0.064,0.017,-0.058,0.039,0.002,-0.012,-0.025,-0.035,-0.025,-0.049
-0.054,0.011,0.065,0.021,-0.06,0.038,-0.001,-0.029,-0.031,-0.035,-0.026,-0.051
-0.057,0.008,0.065,0.024,-0.061,0.036,0.001,-0.031,-0.03,-0.035,-0.03,-0.045
-0.06,0.005,0.065,0.027,-0.063,0.035,0.004,-0.029,-0.03,-0.035,-0.03,-0.043
-0.059,0.003,0.062,0.028,-0.06,0.032,0.006,-0.026,-0.03,-0.035,-0.032,-0.038
-0.055,-0.001,0.054,0.027,-0.055,0.026,0.011,-0.025,-0.03,-0.035,-0.035,-0.035
-0.052,-0.001,0.051,0.026,-0.051,0.025,0.007,-0.024,-0.032,-0.035,-0.035,-0.04
-0.052,-0.008,0.044,0.03,-0.048,0.018,0.006,-0.019,-0.03,-0.035,-0.031,-0.04
-0.062,-0.024,0.038,0.043,-0.05,0.007,0.019,-0.021,-0.03,-0.035,-0.029,-0.04
-0.06,-0.024,0.036,0.042,-0.048,0.006,0.022,-0.017,-0.03,-0.039,-0.03,-0.04
-0.052,-0.018,0.034,0.034,-0.043,0.008,0.02,-0.014,-0.03,-0.04,-0.03,-0.04
-0.066,-0.017,0.049,0.041,-0.057,0.016,0.02,-0.016,-0.03,-0.04,-0.031,-0.04
-0.064,-0.01,0.054,0.037,-0.058,0.022,0.02,-0.011,-0.034,-0.04,-0.028,-0.035
-0.056,-0.011,0.045,0.033,-0.05,0.017,0.02,-0.005,-0.035,-0.04,-0.026,-0.035
-0.06,-0.018,0.042,0.039,-0.05,0.012,0.019,0.0,-0.035,-0.04,-0.022,-0.035
-0.055,-0.02,0.034,0.037,-0.044,0.007,0.015,0.005,-0.039,-0.04,-0.02,-0.035
-0.065,-0.034,0.031,0.049,-0.047,-0.002,0.01,0.012,-0.041,-0.04,-0.016,-0.034
-0.028,-0.003,0.024,0.015,-0.026,0.011,0.007,0.014,-0.038,-0.04,-0.014,-0.039
-0.021,0.0,0.021,0.011,-0.021,0.01,0.0,0.01,-0.035,-0.04,-0.027,-0.053
-0.055,-0.039,0.016,0.047,-0.035,-0.012,0.004,0.005,-0.032,-0.04,-0.031,-0.055
-0.05,-0.032,0.019,0.041,-0.034,-0.007,0.016,0.003,-0.03,-0.036,-0.03,-0.055
-0.071,-0.029,0.042,0.05,-0.056,0.006,0.016,-0.002,-0.027,-0.035,-0.027,-0.055
-0.076,-0.027,0.049,0.051,-0.062,0.011,0.015,-0.004,-0.024,-0.035,-0.024,-0.055
-0.059,-0.019,0.04,0.039,-0.049,0.01,0.014,-0.01,-0.029,-0.03,-0.025,-0.055
-0.058,-0.021,0.037,0.039,-0.047,0.008,0.01,-0.019,-0.03,-0.03,-0.019,-0.049
-0.04,-0.011,0.03,0.025,-0.035,0.009,0.008,-0.011,-0.03,-0.029,-0.013,-0.044
-0.031,-0.008,0.023,0.019,-0.027,0.008,0.016,-0.023,-0.029,-0.025,-0.006,-0.039
-0.055,-0.022,0.033,0.038,-0.044,0.006,0.011,-0.035,-0.02,-0.023,0.0,-0.033
-0.038,-0.001,0.037,0.019,-0.037,0.018,0.011,-0.019,-0.014,-0.02,0.008,-0.027
-0.008,0.049,0.057,-0.021,-0.033,0.053,0.023,-0.013,-0.004,-0.013,0.008,-0.027
-0.004,0.083,0.087,-0.04,-0.046,0.085,0.031,-0.01,0.003,0.003,0.005,-0.031
0.025,0.085,0.059,-0.055,-0.018,0.072,0.022,-0.004,0.014,0.012,0.014,-0.029
0.043,0.088,0.045,-0.066,-0.001,0.066,-0.017,-0.012,0.017,0.003,0.028,-0.031
0.033,0.091,0.058,-0.062,-0.013,0.074,-0.028,-0.022,-0.001,-0.008,0.029,-0.029
0.03,0.05,0.02,-0.04,0.005,0.035,-0.026,-0.034,-0.021,-0.02,0.003,-0.032
0.022,0.016,-0.005,-0.019,0.013,0.005,-0.02,-0.046,-0.027,-0.029,-0.013,-0.033
-0.004,0.005,0.009,-0.001,-0.006,0.007,-0.008,-0.049,-0.018,-0.032,-0.019,-0.04
-0.049,-0.028,0.021,0.038,-0.035,-0.003,-0.003,-0.057,-0.046,-0.052,-0.026,-0.055
-0.085,-0.065,0.02,0.075,-0.052,-0.022,0.012,-0.058,-0.057,-0.06,-0.034,-0.057
-0.079,-0.059,0.02,0.069,-0.049,-0.019,0.009,-0.079,-0.065,-0.06,-0.042,-0.054
-0.072,-0.052,0.02,0.062,-0.046,-0.016,0.011,-0.07,-0.065,-0.06,-0.042,-0.055
-0.067,-0.047,0.019,0.057,-0.043,-0.014,0.009,-0.082,-0.064,-0.066,-0.041,-0.056
-0.056,-0.036,0.02,0.046,-0.038,-0.008,0.01,-0.077,-0.069,-0.066,-0.035,-0.054
-0.045,-0.038,0.008,0.041,-0.026,-0.015,0.014,-0.078,-0.054,-0.058,-0.035,-0.054
-0.079,-0.004,0.075,0.042,-0.077,0.035,0.054,-0.009,-0.016,-0.031,-0.007,-0.032
-0.032,0.007,0.039,0.012,-0.036,0.022,0.088,0.239,0.264,0.179,0.152,0.05
0.321,0.251,-0.07,-0.286,0.195,0.09,-0.234,-0.221,0.299,0.538,0.615,0.462
0.407,0.412,0.005,-0.41,0.201,0.208,-0.507,-1.041,-0.264,0.432,0.692,0.635
-0.016,0.001,0.018,0.007,-0.017,0.009,-0.311,-1.101,-0.795,-0.324,-0.078,0.031
-0.199,-0.253,-0.054,0.227,-0.072,-0.154,-0.176,-0.76,-0.814,-0.662,-0.469,-0.301
-0.126,-0.193,-0.067,0.159,-0.029,-0.129,-0.127,-0.411,-0.458,-0.399,-0.285,-0.217
-0.089,-0.13,-0.04,0.11,-0.024,-0.085,-0.017,-0.151,-0.172,-0.197,-0.148,-0.154
-0.056,-0.053,0.003,0.055,-0.03,-0.025,0.014,-0.057,-0.056,-0.097,-0.058,-0.073
-0.072,-0.038,0.033,0.055,-0.052,-0.002,0.037,-0.042,-0.039,-0.081,-0.051,-0.066
-0.067,-0.024,0.043,0.046,-0.055,0.009,0.047,-0.04,-0.033,-0.067,-0.04,-0.058
-0.053,-0.018,0.035,0.035,-0.044,0.008,0.044,-0.04,-0.017,-0.054,-0.036,-0.06
-0.082,-0.048,0.035,0.064,-0.058,-0.006,0.046,-0.039,-0.028,-0.055,-0.034,-0.057
-0.082,-0.051,0.031,0.067,-0.056,-0.01,0.045,-0.03,-0.028,-0.047,-0.025,-0.053
-0.058,-0.029,0.028,0.043,-0.043,0.0,0.045,-0.02,-0.023,-0.048,-0.026,-0.056
-0.052,-0.025,0.027,0.038,-0.039,0.001,0.04,-0.011,-0.018,-0.04,-0.016,-0.047
-0.04,-0.019,0.021,0.029,-0.031,0.001,0.04,-0.006,-0.011,-0.04,-0.014,-0.047
-0.035,-0.012,0.023,0.024,-0.029,0.005,0.036,-0.001,-0.007,-0.031,-0.007,-0.042
-0.023,-0.008,0.014,0.015,-0.018,0.003,0.035,0.002,-0.001,-0.023,-0.001,-0.039
-0.018,0.0,0.018,0.009,-0.018,0.009,0.031,0.008,0.006,-0.015,0.003,-0.035
-0.046,-0.011,0.035,0.028,-0.04,0.012,0.021,0.01,0.012,-0.008,0.011,-0.031
-0.035,-0.007,0.028,0.021,-0.032,0.01,0.006,0.026,0.019,0.0,0.017,-0.025
-0.009,0.01,0.019,-0.001,-0.014,0.014,0.001,0.046,0.025,0.004,0.027,-0.017
-0.003,0.017,0.019,-0.008,-0.011,0.018,-0.02,0.053,0.05,0.017,0.033,-0.012
0.013,0.043,0.03,-0.028,-0.009,0.037,-0.009,0.072,0.079,0.044,0.041,-0.003
0.024,0.051,0.027,-0.037,-0.002,0.038,0.019,0.08,0.085,0.049,0.058,0.01
0.03,0.052,0.022,-0.042,0.004,0.037,-0.012,0.096,0.11,0.065,0.079,0.028
0.051,0.07,0.019,-0.061,0.016,0.044,-0.027,0.138,0.16,0.109,0.103,0.048
0.1,0.088,-0.012,-0.094,0.055,0.038,-0.043,0.177,0.202,0.151,0.133,0.067
0.138,0.11,-0.028,-0.124,0.082,0.041,-0.057,0.213,0.256,0.186,0.173,0.102
0.16,0.136,-0.024,-0.148,0.092,0.056,-0.077,0.247,0.311,0.225,0.207,0.127
0.193,0.169,-0.025,-0.18,0.109,0.072,-0.095,0.293,0.36,0.274,0.245,0.155
0.221,0.195,-0.026,-0.208,0.124,0.084,-0.091,0.319,0.416,0.323,0.28,0.188
0.249,0.214,-0.034,-0.231,0.142,0.09,-0.097,0.339,0.452,0.356,0.319,0.217
0.242,0.227,-0.015,-0.235,0.129,0.106,-0.083,0.359,0.475,0.384,0.328,0.231
0.205,0.232,0.027,-0.219,0.089,0.129,-0.07,0.33,0.456,0.374,0.308,0.219
0.178,0.198,0.02,-0.188,0.079,0.109,-0.055,0.278,0.393,0.325,0.293,0.194
0.118,0.151,0.033,-0.135,0.042,0.092,-0.028,0.223,0.318,0.27,0.237,0.144
0.057,0.129,0.072,-0.093,-0.008,0.1,-0.008,0.149,0.216,0.181,0.164,0.093
0.028,0.091,0.062,-0.06,-0.017,0.077,0.005,0.087,0.134,0.108,0.109,0.048
-0.013,0.041,0.054,-0.014,-0.034,0.047,0.019,0.054,0.083,0.066,0.064,0.001
-0.035,0.02,0.056,0.007,-0.046,0.038,0.031,0.023,0.034,0.028,0.03,-0.027
-0.041,0.025,0.065,0.008,-0.053,0.045,0.032,0.013,0.004,0.012,0.018,-0.031
-0.045,0.019,0.064,0.013,-0.055,0.041,0.027,0.01,-0.006,0.001,0.012,-0.031
-0.046,0.013,0.059,0.017,-0.053,0.036,0.025,0.004,-0.007,-0.014,0.004,-0.04
-0.049,0.009,0.058,0.02,-0.054,0.034,0.021,0.002,-0.01,-0.028,0.006,-0.041
-0.054,0.0,0.054,0.027,-0.054,0.027,0.018,-0.012,-0.013,-0.031,0.003,-0.039
-0.046,0.01,0.056,0.017,-0.051,0.033,0.031,-0.022,-0.015,-0.029,0.0,-0.037
-0.034,0.017,0.051,0.008,-0.043,0.034,0.037,-0.019,-0.011,-0.03,0.0,-0.034
-0.045,0.004,0.05,0.021,-0.048,0.026,0.034,-0.016,-0.01,-0.03,-0.002,-0.036
-0.058,-0.008,0.05,0.033,-0.054,0.021,0.036,-0.014,-0.01,-0.03,-0.006,-0.04
-0.056,-0.013,0.044,0.034,-0.05,0.015,0.035,-0.01,-0.01,-0.03,-0.005,-0.04
-0.047,-0.008,0.039,0.027,-0.043,0.016,0.035,-0.011,-0.01,-0.03,-0.009,-0.04
-0.036,-0.002,0.033,0.019,-0.034,0.016,0.033,-0.019,-0.011,-0.03,-0.011,-0.04
-0.027,0.001,0.028,0.013,-0.028,0.014,0.027,-0.027,-0.02,-0.03,-0.009,-0.04
-0.016,0.007,0.023,0.004,-0.019,0.014,0.023,-0.034,-0.028,-0.03,-0.021,-0.04
-0.01,0.01,0.02,0.0,-0.015,0.015,0.018,-0.035,-0.037,-0.042,-0.028,-0.045
-0.036,0.005,0.042,0.015,-0.039,0.023,0.015,-0.035,-0.045,-0.046,-0.025,-0.053
-0.047,0.005,0.052,0.021,-0.05,0.028,0.009,-0.035,-0.048,-0.044,-0.025,-0.055
-0.041,0.004,0.046,0.018,-0.044,0.025,0.02,-0.035,-0.054,-0.046,-0.025,-0.055
-0.045,-0.001,0.044,0.023,-0.045,0.021,0.039,-0.034,-0.054,-0.045,-0.025,-0.055
-0.04,0.001,0.041,0.02,-0.04,0.021,0.035,-0.03,-0.05,-0.046,-0.026,-0.055
-0.042,-0.003,0.039,0.023,-0.041,0.018,0.026,-0.028,-0.05,-0.05,-0.029,-0.055
-0.053,-0.012,0.041,0.032,-0.046,0.014,0.022,-0.023,-0.05,-0.053,-0.034,-0.055
-0.059,-0.02,0.039,0.04,-0.049,0.009,0.012,-0.031,-0.054,-0.058,-0.032,-0.062
-0.068,-0.028,0.04,0.048,-0.054,0.005,0.014,-0.05,-0.056,-0.06,-0.03,-0.07
-0.076,-0.026,0.05,0.051,-0.063,0.012,0.026,-0.047,-0.054,-0.062,-0.03,-0.07
-0.063,-0.021,0.042,0.042,-0.052,0.01,0.024,-0.041,-0.055,-0.065,-0.03,-0.07
-0.05,-0.019,0.031,0.034,-0.04,0.006,0.021,-0.038,-0.059,-0.065,-0.03,-0.07
-0.042,-0.015,0.027,0.028,-0.034,0.006,0.018,-0.032,-0.061,-0.07,-0.031,-0.069
-0.028,-0.01,0.018,0.019,-0.023,0.004,0.015,-0.029,-0.059,-0.07,-0.034,-0.073
-0.026,-0.013,0.014,0.019,-0.02,0.0,0.014,-0.024,-0.06,-0.071,-0.035,-0.075
-0.025,-0.021,0.004,0.023,-0.014,-0.008,0.01,-0.021,-0.06,-0.075,-0.039,-0.075
-0.045,-0.028,0.018,0.036,-0.031,-0.005,0.008,-0.017,-0.06,-0.075,-0.04,-0.075
-0.066,-0.034,0.033,0.05,-0.049,0.0,0.005,-0.014,-0.063,-0.072,-0.042,-0.075
-0.059,-0.03,0.029,0.044,-0.043,-0.001,0.002,-0.009,-0.068,-0.07,-0.046,-0.074
-0.053,-0.022,0.031,0.037,-0.042,0.004,-0.001,-0.018,-0.069,-0.07,-0.045,-0.071
-0.046,-0.016,0.029,0.031,-0.037,0.006,0.005,-0.027,-0.065,-0.067,-0.045,-0.068
-0.04,-0.009,0.03,0.024,-0.035,0.01,0.014,-0.02,-0.065,-0.064,-0.045,-0.065
-0.031,-0.002,0.029,0.016,-0.03,0.013,0.015,-0.014,-0.062,-0.066,-0.045,-0.063
-0.025,-0.002,0.022,0.013,-0.023,0.01,0.015,-0.009,-0.059,-0.069,-0.045,-0.059
-0.029,-0.011,0.018,0.02,-0.023,0.003,0.015,-0.004,-0.06,-0.071,-0.045,-0.063
-0.03,-0.018,0.012,0.024,-0.021,-0.003,0.015,0.002,-0.063,-0.069,-0.045,-0.071
-0.023,-0.016,0.007,0.019,-0.015,-0.004,0.016,0.008,-0.072,-0.07,-0.045,-0.07
-0.014,-0.015,-0.001,0.014,-0.006,-0.008,0.011,0.014,-0.074,-0.07,-0.045,-0.067
-0.03,-0.015,0.015,0.023,-0.022,0.0,0.01,0.019,-0.07,-0.068,-0.045,-0.065
-0.055,-0.015,0.04,0.035,-0.047,0.012,0.009,0.017,-0.07,-0.064,-0.045,-0.061
-0.055,-0.016,0.04,0.036,-0.047,0.011,0.013,0.013,-0.07,-0.062,-0.045,-0.06
-0.053,-0.013,0.04,0.033,-0.046,0.013,0.03,0.01,-0.069,-0.059,-0.045,-0.057
-0.059,-0.019,0.04,0.039,-0.049,0.01,0.029,0.006,-0.071,-0.056,-0.046,-0.051
-0.053,-0.014,0.039,0.034,-0.046,0.013,0.022,0.006,-0.062,-0.055,-0.033,-0.046
-0.021,0.022,0.043,0.0,-0.032,0.032,0.018,0.015,-0.044,-0.038,-0.013,-0.043
0.015,0.066,0.052,-0.041,-0.019,0.059,0.011,0.026,-0.044,-0.022,-0.004,-0.037
0.028,0.075,0.046,-0.052,-0.01,0.06,0.007,0.026,-0.048,-0.026,0.004,-0.036
0.037,0.079,0.042,-0.058,-0.003,0.06,-0.002,0.015,-0.05,-0.028,0.012,-0.04
0.046,0.084,0.038,-0.065,0.004,0.061,-0.021,0.005,-0.054,-0.031,0.012,-0.04
0.051,0.04,-0.01,-0.045,0.03,0.015,-0.031,-0.004,-0.054,-0.035,-0.009,-0.044
0.046,0.011,-0.035,-0.028,0.04,-0.012,-0.022,-0.009,-0.06,-0.047,-0.039,-0.051
0.016,-0.004,-0.02,-0.006,0.019,-0.012,-0.005,0.005,-0.06,-0.06,-0.039,-0.059
-0.014,-0.016,-0.001,0.015,-0.006,-0.008,0.01,0.0,-0.076,-0.07,-0.045,-0.074
-0.025,-0.024,0.0,0.024,-0.012,-0.011,0.013,0.002,-0.078,-0.083,-0.061,-0.086
-0.034,-0.036,-0.002,0.036,-0.016,-0.019,0.0,-0.009,-0.075,-0.086,-0.06,-0.085
-0.042,-0.039,0.003,0.041,-0.023,-0.018,-0.007,-0.008,-0.074,-0.08,-0.06,-0.084
-0.028,-0.042,-0.014,0.035,-0.007,-0.028,-0.005,-0.007,-0.066,-0.077,-0.06,-0.087
-0.037,-0.037,0.0,0.037,-0.018,-0.018,0.002,-0.006,-0.073,-0.075,-0.06,-0.083
-0.053,-0.045,0.008,0.049,-0.031,-0.018,0.023,0.012,-0.055,-0.067,-0.054,-0.085
-0.079,-0.025,0.054,0.052,-0.066,0.015,0.062,0.046,-0.048,-0.056,-0.027,-0.071
-0.046,-0.01,0.036,0.028,-0.041,0.013,0.118,0.311,0.196,0.107,0.087,0.001
0.314,0.209,-0.105,-0.261,0.209,0.052,-0.157,0.02,0.34,0.482,0.526,0.379
0.482,0.431,-0.051,-0.456,0.266,0.189,-0.487,-0.835,-0.157,0.478,0.712,0.635
0.058,0.079,0.021,-0.069,0.018,0.05,-0.31,-1.032,-0.748,-0.228,0.014,0.1
-0.189,-0.24,-0.05,0.215,-0.069,-0.145,-0.155,-0.741,-0.855,-0.665,-0.475,-0.324
-0.127,-0.201,-0.075,0.164,-0.026,-0.138,-0.137,-0.387,-0.538,-0.458,-0.323,-0.256
-0.094,-0.152,-0.057,0.123,-0.018,-0.104,-0.033,-0.107,-0.227,-0.238,-0.179,-0.177
-0.048,-0.068,-0.021,0.059,-0.013,-0.044,0.016,-0.01,-0.098,-0.13,-0.094,-0.11
-0.042,-0.027,0.016,0.034,-0.029,-0.005,0.038,0.021,-0.07,-0.081,-0.066,-0.104
-0.051,-0.021,0.03,0.036,-0.04,0.004,0.011,0.025,-0.065,-0.08,-0.056,-0.037
-0.032,-0.016,0.016,0.024,-0.024,0.0,-0.004,0.021,-0.05,-0.097,-0.048,0.008
-0.03,-0.013,0.017,0.021,-0.023,0.002,0.003,0.015,-0.047,-0.1,-0.045,-0.005
-0.035,-0.007,0.028,0.021,-0.031,0.01,-0.002,0.012,-0.044,-0.091,-0.034,0.004
-0.052,-0.002,0.05,0.027,-0.051,0.024,0.002,0.006,-0.046,-0.092,-0.032,-0.004
-0.037,0.036,0.074,0.0,-0.056,0.055,-0.002,0.0,-0.044,-0.083,-0.039,0.003
