0.015,0.224,0.209,-0.119,-0.098,0.216,0.107,0.429,0.415,0.257,0.103,0.264
-0.014,0.172,0.187,-0.079,-0.101,0.179,0.125,0.345,0.335,0.195,0.052,0.223
-0.068,0.064,0.133,0.002,-0.101,0.099,0.13,0.216,0.188,0.072,-0.049,0.138
-0.093,-0.004,0.09,0.048,-0.091,0.043,0.124,0.123,0.082,-0.01,-0.12,0.082
-0.124,-0.074,0.05,0.099,-0.087,-0.012,0.122,0.044,0.008,-0.081,-0.17,0.038
-0.133,-0.117,0.017,0.125,-0.075,-0.05,0.117,-0.007,-0.042,-0.117,-0.203,0.024
-0.125,-0.132,-0.007,0.128,-0.058,-0.07,0.114,-0.035,-0.077,-0.135,-0.225,0.014
-0.124,-0.137,-0.013,0.131,-0.055,-0.075,0.111,-0.051,-0.088,-0.149,-0.224,0.001
-0.131,-0.134,-0.003,0.133,-0.064,-0.068,0.109,-0.049,-0.085,-0.145,-0.219,-0.006
-0.147,-0.136,0.011,0.141,-0.078,-0.062,0.11,-0.045,-0.082,-0.146,-0.221,-0.007
-0.147,-0.135,0.012,0.14,-0.079,-0.061,0.109,-0.042,-0.078,-0.144,-0.219,-0.003
-0.133,-0.134,-0.002,0.134,-0.065,-0.068,0.111,-0.037,-0.075,-0.14,-0.22,-0.001
-0.13,-0.129,0.001,0.13,-0.066,-0.064,0.107,-0.036,-0.071,-0.141,-0.22,0.003
-0.141,-0.126,0.015,0.133,-0.078,-0.055,0.105,-0.04,-0.068,-0.137,-0.22,0.005
-0.143,-0.123,0.02,0.133,-0.082,-0.051,0.105,-0.04,-0.065,-0.135,-0.22,0.007
-0.138,-0.118,0.02,0.128,-0.079,-0.049,0.101,-0.04,-0.066,-0.135,-0.22,0.01
-0.136,-0.115,0.02,0.126,-0.077,-0.047,0.1,-0.04,-0.065,-0.135,-0.22,0.01
-0.131,-0.111,0.019,0.121,-0.075,-0.046,0.1,-0.04,-0.074,-0.135,-0.22,0.01
-0.131,-0.11,0.021,0.12,-0.076,-0.045,0.095,-0.042,-0.081,-0.135,-0.22,0.01
-0.122,-0.11,0.012,0.116,-0.067,-0.049,0.095,-0.046,-0.081,-0.136,-0.22,0.005
-0.105,-0.11,-0.006,0.108,-0.049,-0.058,0.094,-0.051,-0.094,-0.134,-0.22,0.005
-0.105,-0.11,-0.004,0.108,-0.05,-0.057,0.09,-0.064,-0.106,-0.144,-0.22,0.004
-0.113,-0.111,0.002,0.112,-0.057,-0.055,0.09,-0.077,-0.11,-0.152,-0.22,-0.001
-0.12,-0.115,0.005,0.117,-0.062,-0.055,0.087,-0.081,-0.11,-0.149,-0.22,0.001
-0.125,-0.115,0.011,0.12,-0.067,-0.052,0.084,-0.08,-0.11,-0.15,-0.223,-0.003
-0.131,-0.117,0.014,0.124,-0.072,-0.052,0.085,-0.08,-0.11,-0.15,-0.226,-0.005
-0.141,-0.12,0.021,0.13,-0.081,-0.05,0.085,-0.085,-0.11,-0.15,-0.229,-0.005
-0.141,-0.12,0.022,0.13,-0.081,-0.049,0.085,-0.085,-0.114,-0.153,-0.229,-0.004
-0.133,-0.117,0.016,0.125,-0.074,-0.05,0.085,-0.086,-0.119,-0.156,-0.224,-0.006
-0.123,-0.112,0.011,0.117,-0.067,-0.05,0.08,-0.09,-0.122,-0.159,-0.221,-0.003
-0.118,-0.109,0.008,0.113,-0.063,-0.05,0.075,-0.09,-0.127,-0.162,-0.218,-0.002
-0.107,-0.105,0.001,0.106,-0.054,-0.052,0.071,-0.089,-0.13,-0.165,-0.213,0.01
-0.104,-0.102,0.002,0.103,-0.053,-0.05,0.066,-0.091,-0.13,-0.165,-0.21,0.067
-0.13,-0.098,0.032,0.114,-0.081,-0.033,0.062,-0.096,-0.132,-0.165,-0.203,0.093
-0.137,-0.095,0.042,0.116,-0.089,-0.026,0.056,-0.096,-0.136,-0.165,-0.188,0.08
-0.129,-0.091,0.038,0.11,-0.084,-0.026,0.056,-0.094,-0.135,-0.165,-0.176,0.075
-0.129,-0.088,0.041,0.109,-0.085,-0.023,0.054,-0.095,-0.132,-0.165,-0.167,0.065
-0.122,-0.083,0.039,0.102,-0.08,-0.022,0.053,-0.095,-0.126,-0.165,-0.161,0.06
-0.122,-0.08,0.042,0.101,-0.082,-0.019,0.048,-0.094,-0.122,-0.16,-0.154,0.054
-0.125,-0.091,0.033,0.108,-0.079,-0.028,0.052,-0.101,-0.118,-0.15,-0.141,0.051
-0.128,-0.093,0.034,0.11,-0.081,-0.029,0.072,-0.096,-0.111,-0.139,-0.13,0.048
-0.131,-0.061,0.071,0.096,-0.1,0.005,0.089,-0.091,-0.11,-0.133,-0.102,0.043
-0.109,-0.024,0.085,0.066,-0.097,0.031,0.13,-0.08,-0.1,-0.133,-0.083,0.041
-0.081,-0.012,0.069,0.046,-0.075,0.028,0.122,-0.078,-0.101,-0.14,-0.087,0.032
-0.085,-0.023,0.062,0.053,-0.073,0.02,0.08,-0.08,-0.087,-0.139,-0.081,0.024
-0.112,-0.065,0.047,0.088,-0.079,-0.009,0.059,-0.089,-0.105,-0.148,-0.092,0.006
-0.129,-0.085,0.044,0.107,-0.087,-0.02,0.04,-0.108,-0.125,-0.139,-0.092,-0.002
-0.128,-0.095,0.033,0.111,-0.08,-0.031,0.056,-0.094,-0.112,-0.137,-0.096,-0.028
-0.121,-0.075,0.046,0.098,-0.083,-0.014,0.028,-0.117,-0.132,-0.133,-0.082,-0.034
-0.13,-0.089,0.04,0.109,-0.085,-0.024,0.053,-0.08,-0.103,-0.122,-0.085,-0.051
-0.116,-0.069,0.047,0.092,-0.082,-0.01,0.019,-0.116,-0.141,-0.132,-0.078,-0.046
-0.135,-0.082,0.053,0.109,-0.094,-0.014,0.054,-0.069,-0.096,-0.105,-0.069,-0.049
-0.132,-0.092,0.04,0.112,-0.086,-0.026,0.038,-0.109,-0.144,-0.143,-0.077,-0.064
-0.088,-0.075,0.013,0.082,-0.05,-0.031,0.236,0.288,-0.022,-0.103,-0.056,-0.051
0.045,-0.007,-0.052,-0.019,0.049,-0.029,0.724,1.005,0.327,0.043,0.03,0.003
0.301,1.108,0.807,-0.704,-0.253,0.957,-0.031,-0.119,0.945,1.05,1.013,0.855
0.084,1.382,1.297,-0.733,-0.607,1.339,-0.687,-1.21,1.467,1.626,1.372,1.11
-0.238,0.048,0.286,0.095,-0.262,0.167,-0.351,-0.846,0.285,0.239,0.153,0.087
-0.163,-0.315,-0.152,0.239,-0.005,-0.233,-0.197,-0.474,-0.417,-0.366,-0.24,-0.191
-0.136,-0.167,-0.032,0.152,-0.052,-0.099,-0.009,-0.162,-0.072,-0.133,-0.07,-0.088
-0.127,-0.147,-0.021,0.137,-0.053,-0.084,0.071,-0.038,-0.148,-0.195,-0.103,-0.113
-0.112,-0.081,0.031,0.096,-0.071,-0.024,0.086,0.016,-0.066,-0.105,-0.051,-0.068
-0.115,-0.106,0.01,0.11,-0.062,-0.048,0.106,0.041,-0.087,-0.141,-0.075,-0.098
-0.102,-0.076,0.026,0.089,-0.064,-0.024,0.098,0.043,-0.072,-0.11,-0.046,-0.077
-0.108,-0.088,0.02,0.097,-0.064,-0.033,0.12,0.07,-0.058,-0.11,-0.051,-0.09
-0.098,-0.071,0.026,0.084,-0.062,-0.023,0.117,0.078,-0.064,-0.105,-0.041,-0.083
-0.097,-0.071,0.026,0.084,-0.061,-0.022,0.133,0.108,-0.029,-0.083,-0.034,-0.082
-0.091,-0.064,0.028,0.078,-0.059,-0.018,0.133,0.116,-0.036,-0.081,-0.032,-0.078
-0.086,-0.052,0.034,0.069,-0.06,-0.009,0.141,0.144,-0.001,-0.058,-0.023,-0.069
-0.082,-0.048,0.035,0.065,-0.058,-0.006,0.148,0.172,0.008,-0.055,-0.018,-0.068
-0.073,-0.034,0.039,0.054,-0.056,0.003,0.149,0.201,0.034,-0.036,-0.002,-0.058
-0.071,-0.027,0.044,0.049,-0.057,0.009,0.154,0.247,0.054,-0.014,0.008,-0.056
-0.064,-0.01,0.054,0.037,-0.059,0.022,0.169,0.304,0.086,0.021,0.027,-0.045
-0.055,0.004,0.06,0.025,-0.058,0.032,0.175,0.372,0.143,0.046,0.054,-0.028
-0.032,0.051,0.083,-0.01,-0.058,0.067,0.164,0.456,0.201,0.085,0.094,0.004
-0.007,0.107,0.114,-0.05,-0.061,0.11,0.157,0.54,0.262,0.142,0.14,0.046
0.021,0.171,0.15,-0.096,-0.065,0.16,0.147,0.623,0.345,0.216,0.208,0.089
0.056,0.25,0.193,-0.153,-0.069,0.221,0.139,0.678,0.417,0.292,0.273,0.137
0.081,0.307,0.226,-0.194,-0.073,0.266,0.122,0.687,0.471,0.353,0.329,0.193
0.105,0.353,0.248,-0.229,-0.072,0.301,0.1,0.682,0.502,0.393,0.374,0.229
0.098,0.353,0.255,-0.226,-0.079,0.304,0.099,0.616,0.476,0.392,0.371,0.229
0.086,0.312,0.226,-0.199,-0.07,0.268,0.101,0.491,0.409,0.346,0.334,0.2
0.053,0.226,0.173,-0.139,-0.061,0.199,0.104,0.356,0.286,0.245,0.259,0.133
-0.015,0.109,0.123,-0.047,-0.069,0.116,0.102,0.223,0.143,0.124,0.165,0.054
-0.053,0.027,0.08,0.013,-0.067,0.053,0.093,0.12,0.041,0.042,0.094,0.001
-0.065,-0.026,0.039,0.045,-0.052,0.007,0.088,0.045,-0.033,-0.006,0.047,-0.036
-0.08,-0.064,0.016,0.072,-0.048,-0.024,0.08,-0.001,-0.082,-0.045,0.015,-0.063
-0.093,-0.081,0.011,0.087,-0.052,-0.035,0.075,-0.034,-0.107,-0.064,0.002,-0.075
-0.088,-0.084,0.004,0.086,-0.045,-0.04,0.075,-0.044,-0.106,-0.067,-0.001,-0.083
-0.081,-0.085,-0.004,0.083,-0.038,-0.044,0.075,-0.035,-0.104,-0.064,-0.004,-0.089
-0.075,-0.086,-0.011,0.081,-0.031,-0.048,0.075,-0.032,-0.106,-0.06,-0.007,-0.086
-0.077,-0.09,-0.013,0.084,-0.032,-0.051,0.075,-0.025,-0.104,-0.057,-0.01,-0.085
-0.081,-0.091,-0.009,0.086,-0.036,-0.05,0.075,-0.02,-0.105,-0.052,-0.009,-0.085
-0.08,-0.087,-0.007,0.084,-0.036,-0.047,0.072,-0.015,-0.105,-0.05,-0.002,-0.08
-0.081,-0.085,-0.004,0.083,-0.038,-0.044,0.069,-0.011,-0.105,-0.05,0.002,-0.079
-0.084,-0.085,-0.001,0.085,-0.041,-0.043,0.07,-0.008,-0.105,-0.05,0.008,-0.081
-0.086,-0.085,0.001,0.085,-0.043,-0.041,0.07,-0.021,-0.105,-0.05,0.014,-0.085
-0.089,-0.085,0.004,0.087,-0.046,-0.041,0.07,-0.041,-0.105,-0.05,0.019,-0.085
-0.092,-0.085,0.007,0.088,-0.049,-0.039,0.069,-0.042,-0.106,-0.05,0.017,-0.085
-0.09,-0.08,0.009,0.085,-0.049,-0.035,0.066,-0.044,-0.109,-0.051,0.011,-0.084
-0.088,-0.075,0.012,0.081,-0.05,-0.031,0.063,-0.049,-0.112,-0.05,0.006,-0.092
-0.086,-0.07,0.015,0.077,-0.051,-0.027,0.06,-0.048,-0.115,-0.051,0.002,-0.105
-0.08,-0.067,0.013,0.073,-0.046,-0.027,0.057,-0.058,-0.117,-0.054,-0.002,-0.104
-0.068,-0.06,0.008,0.064,-0.038,-0.026,0.055,-0.064,-0.12,-0.056,-0.007,-0.108
-0.069,-0.064,0.005,0.066,-0.037,-0.029,0.053,-0.071,-0.123,-0.062,-0.01,-0.11
-0.077,-0.075,0.002,0.076,-0.039,-0.036,0.05,-0.09,-0.126,-0.066,-0.013,-0.111
-0.072,-0.075,-0.003,0.074,-0.034,-0.039,0.047,-0.09,-0.129,-0.065,-0.015,-0.116
-0.07,-0.075,-0.005,0.073,-0.032,-0.04,0.044,-0.089,-0.131,-0.065,-0.019,-0.114
-0.074,-0.075,0.0,0.075,-0.036,-0.037,0.041,-0.091,-0.134,-0.066,-0.02,-0.117
-0.076,-0.075,0.0,0.075,-0.037,-0.037,0.039,-0.089,-0.135,-0.063,-0.023,-0.12
-0.073,-0.074,0.0,0.074,-0.036,-0.037,0.036,-0.093,-0.135,-0.076,-0.031,-0.119
-0.07,-0.07,0.0,0.07,-0.035,-0.035,0.034,-0.095,-0.135,-0.092,-0.035,-0.124
-0.07,-0.07,0.0,0.07,-0.035,-0.035,0.036,-0.1,-0.134,-0.089,-0.035,-0.125
-0.072,-0.07,0.002,0.071,-0.037,-0.034,0.034,-0.1,-0.138,-0.09,-0.035,-0.125
-0.078,-0.07,0.008,0.074,-0.043,-0.031,0.036,-0.102,-0.141,-0.09,-0.035,-0.129
-0.08,-0.07,0.01,0.075,-0.045,-0.03,0.031,-0.105,-0.14,-0.09,-0.035,-0.131
-0.084,-0.068,0.017,0.076,-0.05,-0.025,0.031,-0.105,-0.141,-0.087,-0.036,-0.129
-0.082,-0.062,0.02,0.072,-0.05,-0.021,0.028,-0.103,-0.14,-0.082,-0.031,-0.125
-0.082,-0.062,0.02,0.072,-0.051,-0.021,0.033,-0.099,-0.14,-0.08,-0.025,-0.125
-0.075,-0.054,0.021,0.064,-0.047,-0.016,0.048,-0.098,-0.134,-0.075,-0.017,-0.12
-0.074,-0.055,0.019,0.065,-0.046,-0.018,0.046,-0.092,-0.123,-0.071,-0.012,-0.12
-0.062,-0.006,0.057,0.034,-0.059,0.025,0.078,-0.093,-0.124,-0.071,-0.003,-0.12
-0.019,0.045,0.065,-0.013,-0.042,0.055,0.123,-0.088,-0.123,-0.075,0.0,-0.12
-0.034,0.001,0.036,0.016,-0.035,0.018,0.107,-0.097,-0.131,-0.083,-0.011,-0.121
-0.049,-0.017,0.031,0.033,-0.04,0.007,0.075,-0.096,-0.128,-0.08,-0.017,-0.118
-0.059,-0.041,0.018,0.05,-0.038,-0.012,0.052,-0.098,-0.136,-0.096,-0.04,-0.124
-0.085,-0.068,0.017,0.076,-0.051,-0.025,0.042,-0.108,-0.136,-0.102,-0.048,-0.122
-0.08,-0.08,0.0,0.08,-0.04,-0.04,0.054,-0.096,-0.125,-0.107,-0.05,-0.13
-0.06,-0.065,-0.005,0.062,-0.027,-0.035,0.027,-0.118,-0.133,-0.104,-0.04,-0.119
-0.052,-0.075,-0.023,0.064,-0.014,-0.049,0.053,-0.076,-0.104,-0.103,-0.049,-0.131
-0.042,-0.05,-0.008,0.047,-0.016,-0.029,0.017,-0.116,-0.134,-0.111,-0.043,-0.119
-0.042,-0.059,-0.017,0.05,-0.013,-0.037,0.069,-0.055,-0.081,-0.092,-0.044,-0.13
-0.04,-0.045,-0.005,0.043,-0.017,-0.025,0.043,-0.09,-0.132,-0.107,-0.05,-0.134
-0.025,-0.064,-0.039,0.044,0.007,-0.051,0.288,0.374,0.021,-0.068,-0.061,-0.156
0.121,0.084,-0.037,-0.102,0.079,0.023,0.697,1.0,0.376,0.124,0.102,-0.027
0.348,1.229,0.881,-0.789,-0.267,1.055,-0.097,-0.201,1.078,1.209,1.145,0.872
0.079,1.263,1.184,-0.672,-0.553,1.223,-0.565,-1.134,1.465,1.553,1.283,0.934
-0.221,-0.047,0.174,0.134,-0.198,0.064,-0.266,-0.781,0.158,0.111,0.057,-0.061
-0.12,-0.283,-0.163,0.201,0.022,-0.223,-0.186,-0.452,-0.383,-0.327,-0.212,-0.244
-0.096,-0.16,-0.064,0.128,-0.015,-0.112,0.004,-0.145,-0.05,-0.108,-0.082,-0.16
-0.079,-0.12,-0.041,0.1,-0.019,-0.08,0.062,-0.042,-0.129,-0.168,-0.086,-0.156
-0.053,-0.054,-0.001,0.054,-0.026,-0.027,0.093,0.023,-0.024,-0.091,-0.034,-0.11
-0.052,-0.078,-0.026,0.066,-0.012,-0.052,0.1,0.04,-0.063,-0.125,-0.071,-0.136
-0.049,-0.054,-0.005,0.052,-0.022,-0.029,0.109,0.056,-0.034,-0.094,-0.037,-0.117
-0.058,-0.073,-0.014,0.065,-0.021,-0.043,0.129,0.073,-0.028,-0.105,-0.051,-0.13
-0.053,-0.06,-0.008,0.056,-0.022,-0.034,0.112,0.075,-0.031,-0.097,-0.035,-0.122
-0.06,-0.067,-0.007,0.064,-0.026,-0.037,0.126,0.107,-0.006,-0.092,-0.033,-0.124
-0.056,-0.058,-0.002,0.057,-0.027,-0.03,0.116,0.118,-0.014,-0.088,-0.029,-0.116
-0.051,-0.046,0.005,0.048,-0.028,-0.02,0.123,0.143,0.015,-0.057,-0.016,-0.108
-0.046,-0.04,0.006,0.043,-0.026,-0.017,0.128,0.155,0.022,-0.054,-0.014,-0.104
-0.037,-0.024,0.013,0.031,-0.025,-0.005,0.13,0.2,0.05,-0.034,0.0,-0.094
-0.033,-0.013,0.019,0.022,-0.026,0.003,0.13,0.241,0.074,-0.021,0.002,-0.092
-0.036,0.003,0.038,0.016,-0.037,0.02,0.13,0.29,0.108,0.008,0.023,-0.072
-0.005,0.028,0.033,-0.012,-0.019,0.03,0.13,0.363,0.156,0.042,0.044,-0.044
0.03,0.07,0.04,-0.051,-0.005,0.055,0.13,0.436,0.219,0.08,0.074,-0.01
0.048,0.128,0.081,-0.088,-0.017,0.104,0.119,0.521,0.296,0.142,0.133,0.029
0.074,0.188,0.114,-0.131,-0.02,0.151,0.091,0.587,0.369,0.212,0.199,0.077
0.099,0.26,0.161,-0.18,-0.031,0.21,0.068,0.632,0.445,0.282,0.256,0.138
0.132,0.324,0.191,-0.228,-0.03,0.257,0.047,0.65,0.503,0.342,0.307,0.188
0.146,0.354,0.207,-0.25,-0.031,0.28,0.03,0.622,0.52,0.372,0.343,0.206
0.156,0.361,0.205,-0.259,-0.025,0.283,0.031,0.552,0.508,0.367,0.343,0.194
0.125,0.311,0.186,-0.218,-0.03,0.248,0.048,0.441,0.422,0.31,0.294,0.178
0.058,0.218,0.16,-0.138,-0.051,0.189,0.073,0.315,0.286,0.207,0.211,0.124
0.021,0.115,0.095,-0.068,-0.037,0.105,0.083,0.195,0.155,0.098,0.124,0.036
-0.016,0.028,0.044,-0.006,-0.03,0.036,0.079,0.098,0.056,0.013,0.05,-0.024
-0.024,-0.012,0.012,0.018,-0.018,0.0,0.074,0.033,0.003,-0.045,0.003,-0.064
-0.029,-0.044,-0.015,0.037,-0.007,-0.029,0.07,-0.016,-0.047,-0.082,-0.022,-0.083
-0.054,-0.078,-0.024,0.066,-0.015,-0.051,0.065,-0.044,-0.074,-0.101,-0.039,-0.087
-0.04,-0.079,-0.04,0.06,0.0,-0.059,0.06,-0.057,-0.079,-0.105,-0.05,-0.103
-0.034,-0.074,-0.04,0.054,0.003,-0.056,0.06,-0.056,-0.074,-0.106,-0.05,-0.107
-0.056,-0.091,-0.035,0.074,-0.01,-0.063,0.06,-0.052,-0.068,-0.115,-0.05,-0.101
-0.061,-0.094,-0.034,0.078,-0.013,-0.064,0.059,-0.051,-0.063,-0.115,-0.05,-0.1
-0.057,-0.087,-0.03,0.072,-0.013,-0.059,0.061,-0.044,-0.056,-0.11,-0.05,-0.096
-0.056,-0.085,-0.029,0.071,-0.013,-0.057,0.059,-0.032,-0.057,-0.109,-0.051,-0.095
-0.044,-0.079,-0.035,0.061,-0.004,-0.057,0.06,-0.02,-0.06,-0.104,-0.055,-0.091
-0.027,-0.074,-0.047,0.051,0.01,-0.06,0.073,-0.015,-0.063,-0.106,-0.055,-0.09
-0.025,-0.068,-0.043,0.047,0.009,-0.055,0.072,-0.015,-0.066,-0.11,-0.055,-0.09
-0.023,-0.063,-0.04,0.043,0.009,-0.052,0.065,-0.015,-0.069,-0.113,-0.055,-0.085
-0.019,-0.056,-0.038,0.038,0.01,-0.047,0.063,-0.015,-0.071,-0.117,-0.055,-0.085
-0.024,-0.058,-0.035,0.042,0.006,-0.047,0.057,-0.022,-0.075,-0.12,-0.055,-0.087
-0.033,-0.066,-0.033,0.05,0.0,-0.049,0.054,-0.041,-0.08,-0.124,-0.055,-0.09
-0.037,-0.065,-0.028,0.052,-0.004,-0.046,0.05,-0.048,-0.083,-0.126,-0.056,-0.093
-0.043,-0.065,-0.022,0.054,-0.01,-0.043,0.047,-0.044,-0.088,-0.125,-0.054,-0.095
-0.046,-0.065,-0.019,0.056,-0.013,-0.042,0.045,-0.059,-0.09,-0.126,-0.069,-0.099
-0.051,-0.065,-0.014,0.058,-0.018,-0.039,0.041,-0.067,-0.093,-0.13,-0.081,-0.1
-0.057,-0.066,-0.01,0.061,-0.023,-0.038,0.04,-0.064,-0.096,-0.13,-0.08,-0.101
-0.042,-0.07,-0.029,0.056,-0.007,-0.049,0.036,-0.075,-0.099,-0.132,-0.085,-0.105
-0.032,-0.069,-0.037,0.051,0.002,-0.053,0.035,-0.073,-0.1,-0.136,-0.085,-0.108
-0.039,-0.072,-0.034,0.056,-0.002,-0.053,0.035,-0.078,-0.103,-0.134,-0.088,-0.112
-0.04,-0.076,-0.036,0.058,-0.002,-0.056,0.031,-0.094,-0.106,-0.139,-0.093,-0.115
-0.04,-0.074,-0.035,0.058,-0.002,-0.054,0.029,-0.091,-0.102,-0.145,-0.096,-0.115
-0.044,-0.079,-0.035,0.062,-0.004,-0.057,0.031,-0.09,-0.1,-0.145,-0.1,-0.115
-0.047,-0.08,-0.033,0.064,-0.007,-0.056,0.035,-0.09,-0.1,-0.145,-0.1,-0.115
-0.054,-0.081,-0.027,0.068,-0.014,-0.054,0.037,-0.084,-0.097,-0.146,-0.1,-0.115
-0.058,-0.079,-0.02,0.069,-0.019,-0.049,0.041,-0.085,-0.094,-0.145,-0.1,-0.115
-0.064,-0.082,-0.017,0.073,-0.023,-0.049,0.043,-0.084,-0.096,-0.145,-0.1,-0.114
-0.07,-0.077,-0.007,0.073,-0.031,-0.042,0.046,-0.086,-0.099,-0.141,-0.096,-0.107
-0.057,-0.066,-0.009,0.062,-0.024,-0.037,0.047,-0.088,-0.1,-0.133,-0.094,-0.103
-0.051,-0.029,0.022,0.04,-0.036,-0.003,0.054,-0.085,-0.095,-0.132,-0.097,-0.097
-0.02,0.021,0.041,-0.001,-0.031,0.031,0.097,-0.069,-0.063,-0.134,-0.099,-0.091
0.014,0.012,-0.002,-0.013,0.008,0.005,0.095,-0.067,-0.06,-0.14,-0.102,-0.087
-0.008,-0.015,-0.007,0.012,0.0,-0.011,0.054,-0.08,-0.059,-0.14,-0.102,-0.089
-0.019,-0.049,-0.029,0.034,0.006,-0.039,0.037,-0.073,-0.07,-0.147,-0.108,-0.116
-0.022,-0.066,-0.044,0.044,0.011,-0.054,0.012,-0.092,-0.101,-0.14,-0.106,-0.12
-0.027,-0.076,-0.049,0.052,0.011,-0.062,0.034,-0.079,-0.091,-0.139,-0.116,-0.13
-0.011,-0.058,-0.047,0.034,0.019,-0.052,0.001,-0.108,-0.113,-0.143,-0.106,-0.121
-0.017,-0.071,-0.054,0.044,0.019,-0.062,0.028,-0.066,-0.079,-0.135,-0.111,-0.128
0.002,-0.054,-0.057,0.026,0.029,-0.055,-0.004,-0.097,-0.113,-0.148,-0.112,-0.124
-0.017,-0.063,-0.045,0.04,0.014,-0.054,0.011,-0.06,-0.071,-0.13,-0.104,-0.121
-0.037,-0.069,-0.032,0.053,-0.002,-0.05,0.021,-0.073,-0.105,-0.16,-0.122,-0.139
0.007,-0.069,-0.075,0.031,0.041,-0.072,0.139,0.232,-0.019,-0.127,-0.109,-0.139
0.115,-0.051,-0.165,-0.032,0.14,-0.108,0.665,1.108,0.382,-0.002,-0.039,-0.1
0.319,1.02,0.702,-0.67,-0.192,0.861,0.079,0.089,0.931,0.953,0.885,0.707
0.129,1.386,1.256,-0.758,-0.564,1.321,-0.526,-1.181,1.434,1.62,1.308,1.009
-0.175,0.129,0.304,0.023,-0.24,0.217,-0.256,-0.833,0.377,0.314,0.16,0.055
-0.128,-0.297,-0.169,0.213,0.021,-0.233,-0.214,-0.509,-0.424,-0.402,-0.296,-0.254
-0.091,-0.181,-0.09,0.136,0.0,-0.136,-0.045,-0.193,-0.084,-0.169,-0.153,-0.161
-0.06,-0.147,-0.087,0.103,0.014,-0.117,0.017,-0.06,-0.124,-0.213,-0.167,-0.161
-0.017,-0.06,-0.043,0.038,0.014,-0.051,0.047,0.001,-0.041,-0.131,-0.1,-0.095
-0.015,-0.075,-0.059,0.045,0.022,-0.067,0.065,0.051,-0.049,-0.157,-0.126,-0.118
-0.01,-0.047,-0.037,0.029,0.013,-0.042,0.045,0.038,-0.045,-0.132,-0.098,-0.094
-0.012,-0.055,-0.043,0.033,0.016,-0.049,0.092,0.087,-0.016,-0.122,-0.102,-0.101
-0.009,-0.04,-0.031,0.025,0.011,-0.035,0.078,0.079,-0.031,-0.121,-0.093,-0.091
-0.008,-0.036,-0.028,0.022,0.01,-0.032,0.09,0.095,0.005,-0.098,-0.083,-0.088
-0.008,-0.031,-0.023,0.02,0.007,-0.027,0.087,0.101,-0.007,-0.097,-0.082,-0.086
-0.003,-0.024,-0.02,0.013,0.009,-0.021,0.091,0.127,0.023,-0.071,-0.067,-0.077
0.015,-0.021,-0.035,0.003,0.025,-0.027,0.091,0.156,0.032,-0.067,-0.065,-0.077
0.014,-0.013,-0.027,0.0,0.021,-0.019,0.095,0.185,0.055,-0.046,-0.051,-0.069
0.013,-0.007,-0.021,-0.003,0.017,-0.014,0.101,0.225,0.078,-0.035,-0.044,-0.064
0.025,0.011,-0.014,-0.017,0.019,-0.002,0.095,0.274,0.113,-0.011,-0.021,-0.043
0.039,0.037,-0.002,-0.038,0.02,0.018,0.09,0.333,0.164,0.026,0.011,-0.021
0.068,0.077,0.008,-0.073,0.03,0.042,0.082,0.406,0.224,0.071,0.046,0.009
0.096,0.125,0.029,-0.111,0.033,0.077,0.076,0.476,0.291,0.13,0.091,0.052
0.115,0.186,0.07,-0.151,0.022,0.128,0.067,0.541,0.371,0.2,0.15,0.1
0.146,0.254,0.108,-0.201,0.019,0.181,0.049,0.59,0.445,0.269,0.216,0.146
0.179,0.324,0.145,-0.252,0.017,0.234,0.02,0.582,0.506,0.332,0.269,0.197
0.193,0.356,0.163,-0.274,0.015,0.259,-0.01,0.57,0.523,0.369,0.308,0.229
0.182,0.339,0.156,-0.261,0.013,0.248,-0.024,0.538,0.492,0.358,0.318,0.229
0.156,0.304,0.147,-0.231,0.004,0.225,0.001,0.434,0.426,0.311,0.271,0.205
0.118,0.231,0.113,-0.174,0.002,0.172,0.045,0.316,0.294,0.215,0.188,0.145
0.078,0.129,0.05,-0.104,0.014,0.089,0.064,0.201,0.15,0.096,0.101,0.069
0.053,0.058,0.005,-0.055,0.024,0.031,0.064,0.108,0.055,0.017,0.027,0.011
0.036,0.008,-0.029,-0.022,0.032,-0.01,0.06,0.037,-0.011,-0.038,-0.026,-0.031
0.02,-0.03,-0.05,0.005,0.035,-0.04,0.056,-0.012,-0.057,-0.082,-0.048,-0.054
0.004,-0.051,-0.055,0.023,0.03,-0.053,0.053,-0.039,-0.087,-0.098,-0.067,-0.06
0.007,-0.063,-0.07,0.028,0.039,-0.066,0.049,-0.056,-0.101,-0.1,-0.078,-0.061
0.005,-0.06,-0.066,0.028,0.036,-0.063,0.046,-0.048,-0.095,-0.095,-0.071,-0.06
-0.001,-0.06,-0.059,0.031,0.029,-0.059,0.04,-0.044,-0.09,-0.095,-0.071,-0.06
-0.002,-0.06,-0.058,0.031,0.028,-0.059,0.036,-0.038,-0.087,-0.095,-0.066,-0.06
-0.011,-0.06,-0.049,0.036,0.019,-0.054,0.031,-0.032,-0.08,-0.095,-0.065,-0.06
-0.006,-0.061,-0.054,0.033,0.024,-0.057,0.027,-0.028,-0.082,-0.096,-0.069,-0.06
0.008,-0.057,-0.066,0.025,0.037,-0.061,0.022,-0.023,-0.085,-0.092,-0.071,-0.06
0.01,-0.054,-0.064,0.022,0.037,-0.059,0.016,-0.021,-0.085,-0.09,-0.074,-0.06
0.011,-0.049,-0.06,0.019,0.035,-0.055,0.011,-0.016,-0.085,-0.09,-0.076,-0.06
0.01,-0.048,-0.058,0.019,0.034,-0.053,0.006,-0.013,-0.085,-0.09,-0.081,-0.06
0.014,-0.041,-0.055,0.014,0.035,-0.048,0.0,-0.009,-0.085,-0.09,-0.079,-0.059
0.011,-0.041,-0.052,0.015,0.032,-0.047,-0.005,-0.022,-0.091,-0.091,-0.075,-0.055
0.005,-0.045,-0.05,0.02,0.028,-0.047,-0.011,-0.026,-0.098,-0.095,-0.076,-0.055
-0.002,-0.048,-0.046,0.025,0.023,-0.047,-0.017,-0.033,-0.103,-0.095,-0.072,-0.055
-0.019,-0.064,-0.045,0.042,0.013,-0.055,-0.023,-0.056,-0.109,-0.097,-0.07,-0.055
-0.026,-0.065,-0.039,0.046,0.007,-0.052,-0.037,-0.058,-0.111,-0.101,-0.07,-0.055
-0.017,-0.06,-0.043,0.039,0.013,-0.051,-0.046,-0.063,-0.108,-0.1,-0.074,-0.055
0.01,-0.059,-0.069,0.025,0.039,-0.064,-0.048,-0.065,-0.117,-0.1,-0.075,-0.055
0.016,-0.055,-0.07,0.02,0.044,-0.062,-0.05,-0.066,-0.125,-0.1,-0.075,-0.055
0.011,-0.054,-0.065,0.022,0.038,-0.059,-0.05,-0.07,-0.127,-0.1,-0.08,-0.055
0.015,-0.05,-0.064,0.018,0.039,-0.056,-0.05,-0.07,-0.13,-0.1,-0.08,-0.055
0.009,-0.05,-0.059,0.02,0.034,-0.055,-0.052,-0.075,-0.134,-0.1,-0.08,-0.055
0.009,-0.05,-0.059,0.021,0.034,-0.055,-0.063,-0.079,-0.135,-0.1,-0.08,-0.055
0.004,-0.05,-0.054,0.023,0.029,-0.051,-0.06,-0.083,-0.136,-0.1,-0.08,-0.055
0.0,-0.051,-0.052,0.026,0.026,-0.052,-0.055,-0.085,-0.14,-0.101,-0.081,-0.055
0.003,-0.044,-0.047,0.021,0.025,-0.045,-0.053,-0.085,-0.14,-0.097,-0.08,-0.055
0.005,-0.039,-0.044,0.017,0.025,-0.041,-0.047,-0.084,-0.138,-0.091,-0.081,-0.056
0.01,-0.029,-0.04,0.009,0.025,-0.034,-0.047,-0.087,-0.135,-0.086,-0.075,-0.051
0.006,-0.024,-0.03,0.009,0.018,-0.027,-0.036,-0.082,-0.129,-0.079,-0.067,-0.044
0.017,0.017,0.0,-0.017,0.009,0.008,-0.028,-0.083,-0.136,-0.076,-0.06,-0.039
0.036,0.056,0.02,-0.046,0.008,0.038,0.005,-0.078,-0.132,-0.073,-0.059,-0.04
0.043,0.026,-0.017,-0.035,0.03,0.005,0.0,-0.08,-0.138,-0.078,-0.062,-0.041
0.044,0.007,-0.037,-0.026,0.04,-0.015,-0.039,-0.075,-0.132,-0.07,-0.057,-0.037
0.032,-0.02,-0.052,-0.006,0.042,-0.035,-0.057,-0.071,-0.136,-0.086,-0.071,-0.048
0.025,-0.041,-0.066,0.009,0.046,-0.054,-0.072,-0.086,-0.136,-0.094,-0.075,-0.047
0.019,-0.05,-0.069,0.015,0.044,-0.059,-0.054,-0.074,-0.123,-0.096,-0.085,-0.061
0.022,-0.03,-0.052,0.004,0.037,-0.041,-0.081,-0.109,-0.142,-0.095,-0.076,-0.054
0.014,-0.045,-0.059,0.016,0.037,-0.052,-0.045,-0.071,-0.109,-0.084,-0.083,-0.062
0.019,-0.023,-0.041,0.002,0.03,-0.032,-0.089,-0.124,-0.148,-0.1,-0.08,-0.052
0.013,-0.038,-0.051,0.013,0.032,-0.044,-0.03,-0.072,-0.096,-0.073,-0.076,-0.054
0.015,-0.046,-0.06,0.015,0.038,-0.053,-0.054,-0.089,-0.153,-0.099,-0.091,-0.063
0.038,-0.044,-0.083,0.003,0.061,-0.063,0.17,0.355,-0.009,-0.056,-0.075,-0.052
0.18,0.068,-0.112,-0.124,0.146,-0.022,0.646,1.075,0.371,0.124,0.062,0.038
0.408,1.206,0.798,-0.807,-0.195,1.002,-0.199,-0.192,0.973,1.175,1.077,0.913
0.164,1.358,1.194,-0.761,-0.516,1.276,-0.76,-1.244,1.401,1.646,1.327,1.078
-0.123,0.022,0.146,0.051,-0.134,0.084,-0.404,-0.8,0.172,0.2,0.088,0.053
-0.045,-0.28,-0.235,0.163,0.095,-0.257,-0.279,-0.468,-0.441,-0.323,-0.224,-0.168
-0.019,-0.146,-0.127,0.083,0.054,-0.137,-0.089,-0.156,-0.091,-0.092,-0.075,-0.066
-0.008,-0.118,-0.109,0.063,0.051,-0.113,-0.04,-0.056,-0.178,-0.151,-0.117,-0.07
-0.003,-0.057,-0.053,0.03,0.025,-0.055,0.0,0.004,-0.083,-0.053,-0.053,-0.018
0.008,-0.083,-0.09,0.038,0.049,-0.087,0.014,0.038,-0.119,-0.097,-0.078,-0.043
0.011,-0.054,-0.065,0.021,0.039,-0.059,0.007,0.044,-0.101,-0.061,-0.046,-0.016
0.0,-0.069,-0.07,0.035,0.035,-0.069,0.027,0.075,-0.093,-0.067,-0.057,-0.027
0.005,-0.053,-0.058,0.024,0.032,-0.055,0.019,0.068,-0.097,-0.06,-0.044,-0.013
-0.005,-0.056,-0.052,0.031,0.024,-0.054,0.048,0.102,-0.065,-0.042,-0.039,-0.013
0.003,-0.046,-0.049,0.022,0.026,-0.047,0.053,0.113,-0.074,-0.044,-0.037,-0.009
0.007,-0.032,-0.039,0.013,0.023,-0.035,0.061,0.139,-0.047,-0.017,-0.025,-0.001
0.015,-0.023,-0.038,0.004,0.027,-0.031,0.061,0.163,-0.033,-0.008,-0.023,-0.001
0.022,-0.007,-0.029,-0.007,0.026,-0.018,0.058,0.202,0.001,0.009,-0.009,0.008
0.032,0.006,-0.025,-0.019,0.028,-0.009,0.064,0.246,0.016,0.012,-0.001,0.009
0.048,0.028,-0.02,-0.038,0.034,0.004,0.086,0.301,0.057,0.04,0.029,0.027
0.063,0.049,-0.014,-0.056,0.038,0.018,0.098,0.374,0.109,0.078,0.055,0.05
0.085,0.08,-0.005,-0.082,0.045,0.037,0.098,0.445,0.165,0.123,0.091,0.076
0.107,0.128,0.021,-0.118,0.043,0.074,0.09,0.534,0.242,0.182,0.143,0.117
0.138,0.2,0.062,-0.169,0.038,0.13,0.081,0.604,0.315,0.254,0.201,0.17
0.169,0.264,0.094,-0.217,0.037,0.178,0.064,0.648,0.388,0.324,0.268,0.225
0.197,0.332,0.135,-0.264,0.031,0.233,0.044,0.664,0.443,0.391,0.327,0.275
0.217,0.366,0.149,-0.291,0.034,0.257,0.045,0.639,0.463,0.419,0.362,0.306
0.208,0.346,0.138,-0.277,0.035,0.242,0.045,0.57,0.445,0.407,0.347,0.299
0.18,0.3,0.12,-0.241,0.03,0.21,0.047,0.446,0.343,0.348,0.296,0.259
0.12,0.194,0.074,-0.157,0.023,0.134,0.051,0.311,0.2,0.238,0.215,0.195
0.083,0.1,0.018,-0.092,0.032,0.059,0.05,0.194,0.076,0.138,0.126,0.125
0.06,0.034,-0.026,-0.047,0.043,0.004,0.044,0.097,-0.019,0.058,0.066,0.07
0.032,-0.033,-0.065,0.001,0.049,-0.048,0.032,0.024,-0.088,0.008,0.021,0.041
0.034,-0.054,-0.088,0.01,0.061,-0.071,0.021,-0.017,-0.121,-0.023,0.006,0.034
0.027,-0.07,-0.097,0.022,0.062,-0.083,0.009,-0.045,-0.138,-0.038,0.003,0.028
0.033,-0.077,-0.11,0.022,0.072,-0.093,0.005,-0.061,-0.155,-0.034,-0.003,0.021
0.032,-0.073,-0.105,0.021,0.069,-0.089,0.005,-0.052,-0.148,-0.035,-0.008,0.014
0.024,-0.076,-0.1,0.026,0.063,-0.088,0.005,-0.046,-0.144,-0.035,-0.014,0.011
0.022,-0.074,-0.096,0.026,0.06,-0.085,0.005,-0.039,-0.138,-0.035,-0.012,0.016
0.017,-0.075,-0.092,0.029,0.054,-0.083,0.005,-0.032,-0.132,-0.035,-0.009,0.014
0.017,-0.07,-0.087,0.027,0.052,-0.078,0.008,-0.032,-0.127,-0.031,-0.006,0.017
0.012,-0.07,-0.082,0.029,0.047,-0.076,0.014,-0.036,-0.125,-0.03,-0.003,0.02
0.004,-0.07,-0.074,0.033,0.039,-0.072,0.019,-0.035,-0.125,-0.03,0.0,0.02
0.004,-0.07,-0.074,0.033,0.039,-0.071,0.022,-0.035,-0.121,-0.026,-0.001,0.016
0.027,-0.071,-0.098,0.022,0.063,-0.084,0.028,-0.035,-0.12,-0.025,-0.008,0.014
0.032,-0.069,-0.101,0.019,0.067,-0.085,0.029,-0.035,-0.12,-0.026,-0.014,0.015
0.028,-0.071,-0.099,0.022,0.063,-0.085,0.024,-0.041,-0.131,-0.032,-0.016,0.01
0.033,-0.068,-0.101,0.018,0.067,-0.084,0.025,-0.048,-0.13,-0.039,-0.015,0.01
0.028,-0.072,-0.1,0.022,0.064,-0.085,0.023,-0.051,-0.136,-0.043,-0.017,0.009
0.018,-0.081,-0.099,0.031,0.059,-0.09,0.019,-0.049,-0.147,-0.046,-0.02,0.004
0.015,-0.079,-0.094,0.033,0.054,-0.086,0.021,-0.062,-0.144,-0.049,-0.02,0.006
0.013,-0.083,-0.096,0.035,0.055,-0.089,0.016,-0.078,-0.148,-0.052,-0.022,0.002
0.007,-0.085,-0.092,0.039,0.05,-0.089,0.015,-0.08,-0.15,-0.054,-0.025,0.0
0.005,-0.085,-0.089,0.04,0.047,-0.086,0.015,-0.083,-0.15,-0.057,-0.025,0.0
0.009,-0.082,-0.091,0.037,0.05,-0.086,0.01,-0.086,-0.147,-0.06,-0.025,-0.004
0.009,-0.077,-0.086,0.035,0.048,-0.081,0.01,-0.089,-0.144,-0.06,-0.025,-0.005
0.011,-0.074,-0.085,0.032,0.048,-0.08,0.009,-0.091,-0.145,-0.062,-0.025,-0.005
0.014,-0.07,-0.085,0.029,0.049,-0.077,0.005,-0.094,-0.145,-0.065,-0.025,-0.005
0.014,-0.066,-0.08,0.026,0.047,-0.073,0.005,-0.096,-0.145,-0.065,-0.025,-0.005
0.015,-0.065,-0.08,0.025,0.048,-0.072,0.005,-0.095,-0.147,-0.061,-0.027,-0.004
0.003,-0.076,-0.08,0.037,0.041,-0.078,0.006,-0.095,-0.15,-0.055,-0.033,0.0
-0.011,-0.083,-0.072,0.047,0.031,-0.078,0.004,-0.095,-0.151,-0.05,-0.04,0.005
-0.01,-0.076,-0.066,0.043,0.028,-0.071,0.01,-0.092,-0.145,-0.044,-0.044,0.007
-0.006,-0.065,-0.059,0.035,0.027,-0.062,0.019,-0.088,-0.138,-0.038,-0.035,0.013
0.002,-0.049,-0.052,0.024,0.027,-0.05,0.041,-0.083,-0.129,-0.035,-0.024,0.014
0.046,-0.009,-0.054,-0.018,0.05,-0.031,0.058,-0.08,-0.128,-0.042,-0.02,0.021
0.079,0.02,-0.059,-0.049,0.069,-0.019,0.069,-0.076,-0.129,-0.038,-0.019,0.033
0.074,0.004,-0.07,-0.039,0.072,-0.033,0.071,-0.073,-0.13,-0.044,-0.022,0.022
0.063,-0.011,-0.074,-0.026,0.069,-0.042,0.024,-0.078,-0.13,-0.044,-0.019,0.014
0.027,-0.05,-0.077,0.012,0.052,-0.064,0.015,-0.077,-0.134,-0.045,-0.037,-0.003
0.003,-0.07,-0.073,0.034,0.038,-0.071,0.002,-0.099,-0.156,-0.062,-0.042,-0.007
-0.007,-0.084,-0.076,0.046,0.034,-0.08,0.019,-0.08,-0.147,-0.061,-0.051,-0.012
-0.003,-0.079,-0.075,0.042,0.036,-0.076,0.006,-0.097,-0.171,-0.062,-0.057,-0.01
-0.007,-0.078,-0.071,0.043,0.032,-0.074,0.021,-0.077,-0.14,-0.046,-0.05,-0.012
-0.015,-0.086,-0.071,0.051,0.028,-0.079,0.014,-0.089,-0.157,-0.059,-0.063,-0.021
-0.021,-0.068,-0.047,0.044,0.013,-0.057,-0.002,-0.091,-0.132,-0.032,-0.043,-0.006
-0.038,-0.099,-0.061,0.069,0.012,-0.08,0.044,-0.087,-0.131,-0.063,-0.071,-0.042
-0.004,-0.053,-0.049,0.029,0.022,-0.051,0.092,0.066,-0.117,-0.033,-0.037,-0.02
0.103,-0.089,-0.191,-0.007,0.147,-0.14,0.645,0.921,0.192,0.032,-0.033,-0.04
0.372,0.747,0.376,-0.56,-0.002,0.561,0.275,0.403,0.709,0.766,0.708,0.621
0.326,1.545,1.219,-0.936,-0.447,1.382,-0.654,-1.075,1.482,1.77,1.514,1.283
-0.066,0.422,0.488,-0.179,-0.277,0.455,-0.467,-1.027,0.702,0.754,0.526,0.428
-0.093,-0.342,-0.249,0.218,0.078,-0.295,-0.239,-0.57,-0.427,-0.282,-0.234,-0.155
-0.012,-0.175,-0.163,0.094,0.076,-0.169,-0.085,-0.262,-0.153,-0.071,-0.059,-0.022
-0.021,-0.158,-0.137,0.09,0.058,-0.148,0.042,-0.076,-0.133,-0.094,-0.085,-0.045
-0.004,-0.086,-0.082,0.045,0.039,-0.084,0.056,-0.036,-0.115,-0.032,-0.034,0.006
-0.012,-0.101,-0.089,0.057,0.039,-0.095,0.09,0.025,-0.08,-0.033,-0.048,-0.011
0.005,-0.079,-0.085,0.038,0.045,-0.082,0.079,0.017,-0.108,-0.035,-0.038,-0.004
0.011,-0.072,-0.083,0.031,0.047,-0.077,0.108,0.047,-0.068,-0.01,-0.027,-0.003
0.019,-0.069,-0.088,0.025,0.054,-0.078,0.1,0.047,-0.09,-0.025,-0.032,-0.009
0.027,-0.055,-0.081,0.015,0.054,-0.068,0.113,0.062,-0.04,0.002,-0.015,0.0
0.028,-0.057,-0.085,0.015,0.056,-0.071,0.114,0.082,-0.048,-0.009,-0.02,-0.003
0.03,-0.042,-0.071,0.006,0.051,-0.056,0.118,0.086,-0.03,0.012,-0.003,0.008
0.026,-0.043,-0.07,0.009,0.048,-0.056,0.124,0.1,-0.02,0.015,-0.004,0.005
0.031,-0.029,-0.06,-0.001,0.045,-0.044,0.127,0.131,0.008,0.036,0.008,0.014
0.035,-0.02,-0.055,-0.007,0.045,-0.037,0.137,0.171,0.037,0.057,0.019,0.013
0.045,-0.003,-0.048,-0.021,0.047,-0.026,0.142,0.225,0.06,0.07,0.035,0.026
0.061,0.024,-0.037,-0.042,0.049,-0.007,0.152,0.297,0.106,0.106,0.057,0.048
0.081,0.055,-0.026,-0.068,0.053,0.014,0.152,0.374,0.165,0.151,0.091,0.076
0.109,0.103,-0.006,-0.106,0.057,0.048,0.143,0.458,0.233,0.198,0.139,0.115
0.128,0.163,0.035,-0.145,0.046,0.099,0.132,0.534,0.305,0.263,0.196,0.161
0.156,0.231,0.075,-0.194,0.04,0.153,0.123,0.595,0.374,0.335,0.263,0.216
0.186,0.297,0.111,-0.242,0.037,0.203,0.103,0.615,0.441,0.401,0.323,0.263
0.201,0.345,0.144,-0.273,0.028,0.245,0.084,0.597,0.477,0.442,0.365,0.305
0.213,0.358,0.145,-0.286,0.034,0.251,0.078,0.552,0.465,0.45,0.38,0.317
0.195,0.32,0.125,-0.258,0.035,0.222,0.075,0.444,0.406,0.409,0.346,0.286
0.15,0.235,0.086,-0.193,0.032,0.16,0.091,0.306,0.279,0.312,0.264,0.225
0.099,0.127,0.028,-0.113,0.035,0.077,0.096,0.176,0.144,0.201,0.174,0.156
0.068,0.042,-0.026,-0.055,0.047,0.008,0.09,0.071,0.043,0.118,0.102,0.096
0.061,-0.006,-0.067,-0.027,0.064,-0.036,0.088,-0.008,-0.023,0.06,0.05,0.055
0.045,-0.043,-0.087,-0.001,0.066,-0.065,0.083,-0.071,-0.073,0.012,0.019,0.035
0.028,-0.074,-0.102,0.023,0.066,-0.088,0.08,-0.097,-0.103,-0.004,0.008,0.021
0.026,-0.087,-0.114,0.031,0.07,-0.1,0.077,-0.107,-0.114,-0.006,0.004,0.011
0.029,-0.082,-0.111,0.027,0.07,-0.096,0.072,-0.104,-0.123,-0.013,-0.001,0.009
0.018,-0.092,-0.11,0.037,0.064,-0.1,0.069,-0.095,-0.116,-0.018,-0.005,0.006
0.009,-0.101,-0.11,0.046,0.059,-0.105,0.065,-0.09,-0.109,-0.024,-0.01,0.003
0.01,-0.095,-0.105,0.043,0.058,-0.1,0.061,-0.082,-0.103,-0.021,-0.01,0.001
0.013,-0.093,-0.106,0.041,0.059,-0.099,0.061,-0.08,-0.096,-0.02,-0.01,-0.002
0.015,-0.088,-0.103,0.037,0.059,-0.095,0.065,-0.08,-0.095,-0.02,-0.01,-0.005
0.015,-0.085,-0.1,0.035,0.059,-0.092,0.077,-0.077,-0.095,-0.015,-0.01,-0.005
0.016,-0.082,-0.097,0.033,0.057,-0.089,0.079,-0.074,-0.095,-0.015,-0.01,-0.005
0.015,-0.08,-0.095,0.033,0.055,-0.087,0.071,-0.076,-0.095,-0.016,-0.011,-0.005
0.011,-0.08,-0.092,0.035,0.051,-0.086,0.07,-0.074,-0.096,-0.024,-0.017,-0.005
0.009,-0.08,-0.089,0.035,0.049,-0.084,0.063,-0.076,-0.093,-0.033,-0.021,-0.009
0.029,-0.08,-0.109,0.026,0.069,-0.095,0.061,-0.088,-0.115,-0.039,-0.025,-0.01
0.037,-0.08,-0.117,0.022,0.077,-0.098,0.07,-0.097,-0.142,-0.047,-0.03,-0.01
0.03,-0.08,-0.111,0.025,0.07,-0.095,0.066,-0.103,-0.144,-0.05,-0.033,-0.015
0.03,-0.08,-0.11,0.025,0.07,-0.095,0.061,-0.105,-0.148,-0.05,-0.036,-0.015
0.025,-0.08,-0.105,0.028,0.065,-0.092,0.058,-0.122,-0.153,-0.053,-0.039,-0.016
0.025,-0.08,-0.104,0.028,0.065,-0.092,0.052,-0.132,-0.155,-0.058,-0.042,-0.02
0.02,-0.08,-0.101,0.03,0.06,-0.09,0.049,-0.128,-0.155,-0.06,-0.044,-0.023
0.02,-0.076,-0.096,0.029,0.058,-0.086,0.044,-0.134,-0.154,-0.06,-0.047,-0.025
0.019,-0.074,-0.093,0.028,0.057,-0.084,0.046,-0.135,-0.155,-0.063,-0.05,-0.029
0.014,-0.075,-0.09,0.031,0.052,-0.082,0.044,-0.135,-0.154,-0.065,-0.05,-0.03
0.01,-0.074,-0.085,0.032,0.048,-0.08,0.046,-0.13,-0.15,-0.068,-0.05,-0.03
0.012,-0.076,-0.088,0.033,0.051,-0.082,0.044,-0.122,-0.144,-0.064,-0.05,-0.035
0.019,-0.073,-0.092,0.027,0.056,-0.082,0.046,-0.116,-0.139,-0.074,-0.051,-0.036
0.016,-0.069,-0.085,0.027,0.051,-0.077,0.061,-0.109,-0.133,-0.081,-0.045,-0.033
0.038,-0.049,-0.088,0.006,0.064,-0.068,0.079,-0.102,-0.126,-0.063,-0.04,-0.029
0.074,-0.016,-0.09,-0.029,0.082,-0.052,0.099,-0.096,-0.128,-0.058,-0.031,-0.024
0.069,-0.021,-0.09,-0.024,0.08,-0.056,0.116,-0.082,-0.132,-0.06,-0.027,-0.021
0.07,-0.02,-0.09,-0.025,0.08,-0.054,0.097,-0.066,-0.138,-0.06,-0.018,-0.02
0.083,-0.007,-0.09,-0.038,0.087,-0.048,0.049,-0.09,-0.131,-0.059,-0.017,-0.02
0.069,-0.026,-0.096,-0.021,0.083,-0.061,0.023,-0.134,-0.148,-0.068,-0.048,-0.022
0.063,-0.03,-0.093,-0.016,0.078,-0.061,0.018,-0.138,-0.161,-0.07,-0.047,-0.017
0.035,-0.063,-0.098,0.014,0.067,-0.08,0.021,-0.146,-0.16,-0.085,-0.064,-0.035
0.003,-0.088,-0.09,0.043,0.047,-0.089,0.002,-0.177,-0.17,-0.09,-0.08,-0.042
0.011,-0.089,-0.1,0.039,0.056,-0.094,0.019,-0.149,-0.153,-0.089,-0.081,-0.05
0.016,-0.072,-0.088,0.029,0.052,-0.08,-0.013,-0.175,-0.172,-0.093,-0.073,-0.039
0.012,-0.079,-0.091,0.034,0.052,-0.084,0.015,-0.139,-0.145,-0.084,-0.073,-0.043
0.02,-0.063,-0.082,0.022,0.051,-0.072,-0.012,-0.168,-0.177,-0.1,-0.071,-0.039
0.008,-0.068,-0.076,0.03,0.042,-0.072,0.007,-0.131,-0.144,-0.08,-0.063,-0.039
0.009,-0.073,-0.082,0.032,0.046,-0.077,0.041,-0.126,-0.17,-0.113,-0.074,-0.06
0.031,-0.068,-0.099,0.019,0.065,-0.084,0.148,0.143,-0.088,-0.085,-0.062,-0.061
0.153,-0.049,-0.203,-0.052,0.178,-0.126,0.677,1.018,0.279,0.041,-0.007,-0.03
0.396,0.984,0.587,-0.69,-0.096,0.785,0.106,0.149,0.884,0.979,0.909,0.773
0.222,1.385,1.163,-0.804,-0.471,1.274,-0.566,-1.183,1.465,1.668,1.366,1.108
-0.13,0.143,0.273,-0.006,-0.202,0.208,-0.283,-0.929,0.385,0.385,0.224,0.153
-0.083,-0.312,-0.229,0.198,0.074,-0.27,-0.214,-0.557,-0.472,-0.341,-0.251,-0.177
-0.018,-0.179,-0.161,0.099,0.072,-0.17,-0.046,-0.257,-0.139,-0.1,-0.099,-0.075
-0.016,-0.146,-0.13,0.081,0.057,-0.138,0.037,-0.102,-0.187,-0.16,-0.119,-0.079
0.018,-0.062,-0.08,0.023,0.049,-0.071,0.048,-0.044,-0.123,-0.095,-0.053,-0.015
0.024,-0.08,-0.105,0.028,0.065,-0.092,0.073,0.001,-0.128,-0.115,-0.081,-0.041
0.036,-0.054,-0.09,0.009,0.063,-0.072,0.066,-0.006,-0.126,-0.093,-0.064,-0.023
0.041,-0.062,-0.103,0.011,0.072,-0.082,0.098,0.022,-0.094,-0.082,-0.072,-0.033
0.05,-0.049,-0.1,0.0,0.075,-0.074,0.075,0.032,-0.108,-0.081,-0.071,-0.03
0.051,-0.046,-0.096,-0.002,0.074,-0.071,0.091,0.065,-0.07,-0.058,-0.066,-0.027
0.051,-0.042,-0.093,-0.004,0.073,-0.068,0.081,0.068,-0.08,-0.06,-0.064,-0.025
0.054,-0.029,-0.083,-0.012,0.069,-0.056,0.086,0.085,-0.05,-0.036,-0.05,-0.014
0.054,-0.029,-0.083,-0.013,0.069,-0.055,0.092,0.115,-0.041,-0.034,-0.046,-0.014
0.055,-0.017,-0.072,-0.019,0.064,-0.044,0.087,0.154,-0.011,-0.02,-0.026,-0.004
0.068,-0.005,-0.073,-0.032,0.071,-0.039,0.104,0.197,0.017,-0.014,-0.016,-0.002
0.076,0.013,-0.062,-0.045,0.069,-0.024,0.106,0.245,0.042,0.008,-0.001,0.007
0.076,0.033,-0.043,-0.054,0.059,-0.005,0.095,0.305,0.091,0.047,0.018,0.04
0.079,0.067,-0.012,-0.073,0.046,0.027,0.089,0.38,0.148,0.091,0.055,0.069
0.108,0.125,0.017,-0.117,0.045,0.071,0.08,0.461,0.221,0.144,0.108,0.101
0.15,0.181,0.032,-0.166,0.059,0.106,0.065,0.527,0.298,0.209,0.166,0.156
0.169,0.245,0.075,-0.207,0.047,0.16,0.038,0.557,0.362,0.275,0.23,0.212
0.205,0.314,0.108,-0.26,0.048,0.211,0.008,0.555,0.424,0.336,0.28,0.256
0.224,0.352,0.128,-0.288,0.047,0.24,-0.021,0.548,0.442,0.37,0.307,0.279
0.206,0.35,0.143,-0.278,0.032,0.246,-0.026,0.501,0.425,0.36,0.309,0.274
0.187,0.298,0.111,-0.243,0.038,0.205,-0.01,0.397,0.359,0.309,0.269,0.236
0.15,0.214,0.065,-0.182,0.042,0.139,0.027,0.28,0.216,0.211,0.184,0.179
0.098,0.118,0.02,-0.108,0.039,0.069,0.051,0.17,0.092,0.103,0.097,0.114
0.065,0.043,-0.021,-0.054,0.043,0.011,0.017,0.081,-0.006,0.017,0.026,0.056
0.045,-0.01,-0.055,-0.017,0.05,-0.032,-0.004,0.017,-0.075,-0.034,-0.024,0.014
0.02,-0.065,-0.085,0.023,0.053,-0.075,-0.008,-0.036,-0.121,-0.08,-0.058,-0.007
0.016,-0.088,-0.104,0.036,0.061,-0.096,-0.019,-0.067,-0.149,-0.109,-0.079,-0.011
0.025,-0.08,-0.106,0.028,0.066,-0.092,-0.025,-0.072,-0.146,-0.101,-0.081,-0.016
0.024,-0.08,-0.104,0.029,0.064,-0.092,-0.031,-0.064,-0.145,-0.1,-0.085,-0.022
0.021,-0.08,-0.101,0.03,0.061,-0.09,-0.03,-0.056,-0.141,-0.1,-0.085,-0.027
0.025,-0.075,-0.1,0.025,0.063,-0.087,-0.03,-0.048,-0.139,-0.096,-0.085,-0.033
0.024,-0.076,-0.099,0.026,0.062,-0.087,-0.03,-0.041,-0.136,-0.095,-0.085,-0.035
0.019,-0.073,-0.092,0.027,0.056,-0.083,-0.029,-0.04,-0.135,-0.094,-0.085,-0.035
0.017,-0.07,-0.087,0.027,0.052,-0.078,-0.031,-0.04,-0.14,-0.109,-0.089,-0.035
0.012,-0.07,-0.082,0.029,0.047,-0.076,-0.034,-0.04,-0.14,-0.117,-0.09,-0.035
0.008,-0.068,-0.076,0.03,0.042,-0.072,-0.037,-0.04,-0.14,-0.114,-0.09,-0.035
0.007,-0.064,-0.071,0.029,0.039,-0.067,-0.039,-0.04,-0.14,-0.116,-0.09,-0.035
0.016,-0.065,-0.082,0.025,0.05,-0.073,-0.043,-0.043,-0.141,-0.115,-0.09,-0.035
0.01,-0.077,-0.087,0.034,0.048,-0.082,-0.045,-0.044,-0.138,-0.116,-0.092,-0.035
-0.001,-0.081,-0.081,0.041,0.04,-0.081,-0.045,-0.061,-0.156,-0.12,-0.095,-0.035
0.001,-0.079,-0.08,0.039,0.04,-0.08,-0.045,-0.074,-0.167,-0.12,-0.095,-0.035
-0.005,-0.08,-0.075,0.043,0.035,-0.077,-0.044,-0.074,-0.164,-0.124,-0.095,-0.037
-0.005,-0.08,-0.075,0.043,0.035,-0.077,-0.051,-0.082,-0.169,-0.126,-0.095,-0.042
0.0,-0.08,-0.08,0.04,0.04,-0.08,-0.064,-0.083,-0.17,-0.122,-0.098,-0.047
0.001,-0.073,-0.074,0.036,0.038,-0.073,-0.069,-0.077,-0.17,-0.12,-0.107,-0.05
0.004,-0.063,-0.068,0.03,0.036,-0.065,-0.067,-0.073,-0.164,-0.117,-0.109,-0.045
0.005,-0.057,-0.061,0.026,0.033,-0.059,-0.056,-0.068,-0.155,-0.115,-0.103,-0.04
0.008,-0.046,-0.054,0.019,0.031,-0.05,-0.049,-0.064,-0.148,-0.111,-0.097,-0.036
0.009,-0.039,-0.047,0.015,0.028,-0.043,-0.023,-0.059,-0.138,-0.11,-0.093,-0.031
0.013,-0.034,-0.047,0.011,0.03,-0.04,0.005,-0.055,-0.137,-0.11,-0.086,-0.026
0.025,-0.033,-0.058,0.004,0.042,-0.045,0.001,-0.057,-0.14,-0.109,-0.08,-0.026
0.031,-0.022,-0.054,-0.004,0.043,-0.038,-0.012,-0.05,-0.142,-0.111,-0.084,-0.032
0.042,-0.013,-0.055,-0.015,0.049,-0.033,-0.074,-0.076,-0.147,-0.109,-0.084,-0.032
0.048,-0.035,-0.083,-0.006,0.066,-0.059,-0.101,-0.089,-0.152,-0.11,-0.087,-0.038
0.051,-0.033,-0.084,-0.009,0.068,-0.059,-0.102,-0.093,-0.166,-0.113,-0.083,-0.038
0.025,-0.06,-0.085,0.018,0.055,-0.072,-0.1,-0.095,-0.153,-0.13,-0.097,-0.05
0.009,-0.077,-0.086,0.034,0.048,-0.081,-0.107,-0.11,-0.171,-0.143,-0.11,-0.062
0.006,-0.076,-0.082,0.036,0.044,-0.079,-0.106,-0.106,-0.171,-0.139,-0.112,-0.065
-0.011,-0.101,-0.09,0.056,0.039,-0.095,-0.096,-0.101,-0.176,-0.163,-0.137,-0.074
-0.007,-0.079,-0.072,0.044,0.033,-0.076,-0.112,-0.116,-0.171,-0.144,-0.12,-0.063
-0.014,-0.096,-0.083,0.055,0.035,-0.09,-0.078,-0.086,-0.158,-0.154,-0.135,-0.079
-0.005,-0.062,-0.057,0.033,0.027,-0.059,-0.124,-0.134,-0.18,-0.141,-0.112,-0.058
-0.018,-0.092,-0.074,0.055,0.028,-0.083,-0.054,-0.068,-0.129,-0.141,-0.13,-0.084
0.002,-0.048,-0.051,0.023,0.027,-0.049,-0.089,-0.103,-0.194,-0.135,-0.112,-0.058
0.037,-0.128,-0.165,0.046,0.101,-0.146,0.338,0.633,0.062,-0.083,-0.128,-0.104
0.232,0.286,0.054,-0.259,0.089,0.17,0.499,0.923,0.487,0.288,0.243,0.222
0.368,1.435,1.067,-0.902,-0.349,1.251,-0.481,-0.663,1.217,1.495,1.308,1.102
0.005,0.884,0.879,-0.445,-0.437,0.881,-0.587,-1.176,1.097,1.223,0.9,0.703
-0.16,-0.254,-0.094,0.207,-0.032,-0.174,-0.316,-0.703,-0.279,-0.219,-0.217,-0.156
-0.052,-0.253,-0.202,0.153,0.076,-0.227,-0.252,-0.415,-0.355,-0.271,-0.196,-0.128
-0.047,-0.194,-0.147,0.121,0.05,-0.17,-0.064,-0.13,-0.12,-0.165,-0.146,-0.097
-0.013,-0.112,-0.1,0.063,0.044,-0.106,-0.064,-0.082,-0.184,-0.174,-0.139,-0.061
-0.015,-0.094,-0.079,0.054,0.032,-0.086,-0.008,-0.007,-0.08,-0.108,-0.105,-0.043
-0.014,-0.104,-0.089,0.059,0.038,-0.096,-0.025,-0.003,-0.144,-0.142,-0.117,-0.058
-0.016,-0.084,-0.068,0.05,0.026,-0.076,-0.015,0.021,-0.092,-0.093,-0.089,-0.04
-0.02,-0.096,-0.076,0.058,0.028,-0.086,-0.01,0.031,-0.117,-0.116,-0.103,-0.051
-0.019,-0.079,-0.06,0.049,0.021,-0.069,-0.015,0.043,-0.091,-0.087,-0.082,-0.04
-0.009,-0.084,-0.075,0.046,0.033,-0.079,-0.004,0.062,-0.082,-0.091,-0.088,-0.045
0.019,-0.064,-0.083,0.023,0.051,-0.073,-0.008,0.07,-0.072,-0.077,-0.074,-0.035
0.026,-0.055,-0.081,0.015,0.054,-0.068,0.004,0.101,-0.042,-0.056,-0.067,-0.033
0.033,-0.041,-0.074,0.004,0.054,-0.057,0.003,0.12,-0.033,-0.04,-0.059,-0.028
0.044,-0.024,-0.068,-0.009,0.056,-0.046,0.009,0.164,0.004,-0.02,-0.047,-0.021
0.045,-0.016,-0.061,-0.015,0.054,-0.038,0.028,0.209,0.025,-0.012,-0.035,-0.002
0.057,0.004,-0.053,-0.03,0.055,-0.025,0.069,0.261,0.063,0.018,-0.012,0.025
0.068,0.031,-0.037,-0.05,0.053,-0.003,0.088,0.332,0.116,0.055,0.017,0.043
0.071,0.069,-0.001,-0.07,0.036,0.033,0.073,0.407,0.18,0.111,0.063,0.077
0.097,0.13,0.033,-0.113,0.032,0.081,0.047,0.482,0.258,0.175,0.119,0.125
0.124,0.192,0.068,-0.158,0.028,0.13,0.027,0.541,0.332,0.244,0.179,0.166
0.149,0.255,0.106,-0.202,0.021,0.18,-0.007,0.561,0.399,0.317,0.241,0.22
0.177,0.315,0.137,-0.246,0.02,0.226,-0.029,0.568,0.446,0.368,0.285,0.26
0.189,0.333,0.145,-0.261,0.022,0.239,-0.044,0.535,0.441,0.383,0.303,0.274
0.182,0.303,0.122,-0.242,0.03,0.212,-0.056,0.441,0.385,0.357,0.282,0.265
0.147,0.235,0.088,-0.191,0.03,0.161,-0.02,0.321,0.273,0.278,0.217,0.212
0.095,0.139,0.044,-0.117,0.025,0.091,0.003,0.206,0.131,0.168,0.133,0.139
0.043,0.05,0.007,-0.046,0.018,0.028,0.005,0.1,0.02,0.073,0.06,0.08
0.034,-0.005,-0.038,-0.014,0.036,-0.022,0.014,0.012,-0.061,0.013,0.005,0.037
0.031,-0.046,-0.077,0.007,0.054,-0.061,0.012,-0.036,-0.109,-0.03,-0.029,0.008
-0.006,-0.088,-0.082,0.047,0.038,-0.085,0.009,-0.075,-0.137,-0.061,-0.049,-0.002
-0.014,-0.107,-0.093,0.061,0.04,-0.1,0.005,-0.094,-0.152,-0.065,-0.059,-0.006
-0.008,-0.104,-0.096,0.057,0.045,-0.1,0.002,-0.089,-0.149,-0.06,-0.06,-0.011
-0.011,-0.105,-0.094,0.059,0.042,-0.1,-0.003,-0.086,-0.15,-0.06,-0.06,-0.015
-0.009,-0.105,-0.096,0.057,0.044,-0.1,-0.005,-0.08,-0.15,-0.06,-0.06,-0.02
-0.01,-0.105,-0.095,0.058,0.043,-0.1,0.0,-0.075,-0.15,-0.06,-0.06,-0.016
-0.011,-0.105,-0.094,0.058,0.042,-0.099,0.0,-0.069,-0.148,-0.06,-0.06,-0.015
-0.017,-0.105,-0.088,0.062,0.036,-0.096,0.0,-0.064,-0.144,-0.06,-0.062,-0.015
-0.022,-0.104,-0.082,0.063,0.03,-0.093,0.0,-0.06,-0.145,-0.06,-0.066,-0.01
-0.022,-0.1,-0.078,0.061,0.028,-0.089,0.0,-0.06,-0.141,-0.06,-0.065,-0.01
-0.03,-0.1,-0.071,0.065,0.021,-0.085,-0.002,-0.056,-0.139,-0.06,-0.065,-0.009
-0.032,-0.098,-0.066,0.065,0.017,-0.082,-0.006,-0.054,-0.141,-0.06,-0.065,-0.005
-0.014,-0.095,-0.081,0.055,0.034,-0.087,-0.005,-0.071,-0.144,-0.06,-0.066,-0.005
-0.01,-0.095,-0.085,0.053,0.038,-0.09,-0.009,-0.087,-0.148,-0.067,-0.07,-0.005
-0.019,-0.099,-0.079,0.059,0.03,-0.089,-0.01,-0.088,-0.155,-0.077,-0.07,-0.005
-0.024,-0.1,-0.076,0.063,0.026,-0.088,-0.01,-0.094,-0.157,-0.081,-0.07,-0.005
-0.026,-0.1,-0.073,0.063,0.023,-0.086,-0.019,-0.11,-0.164,-0.084,-0.07,-0.008
-0.032,-0.1,-0.068,0.066,0.018,-0.084,-0.032,-0.118,-0.17,-0.088,-0.07,-0.011
-0.019,-0.1,-0.081,0.06,0.031,-0.091,-0.038,-0.119,-0.17,-0.09,-0.068,-0.014
-0.005,-0.099,-0.094,0.052,0.045,-0.096,-0.031,-0.115,-0.17,-0.084,-0.062,-0.017
-0.006,-0.09,-0.084,0.048,0.039,-0.087,-0.024,-0.109,-0.169,-0.077,-0.057,-0.02
0.008,-0.083,-0.091,0.037,0.05,-0.086,-0.018,-0.104,-0.172,-0.072,-0.054,-0.019
0.001,-0.073,-0.074,0.037,0.038,-0.073,-0.009,-0.097,-0.164,-0.064,-0.049,-0.013
-0.004,-0.065,-0.061,0.035,0.028,-0.062,-0.007,-0.093,-0.139,-0.057,-0.045,-0.007
0.004,-0.056,-0.059,0.026,0.032,-0.057,0.016,-0.086,-0.122,-0.057,-0.05,-0.003
0.007,-0.044,-0.05,0.019,0.029,-0.047,0.026,-0.086,-0.121,-0.061,-0.052,0.004
0.007,-0.041,-0.048,0.017,0.028,-0.044,0.003,-0.076,-0.109,-0.059,-0.056,0.009
0.0,-0.038,-0.038,0.019,0.019,-0.038,-0.045,-0.102,-0.119,-0.062,-0.059,0.006
0.01,-0.058,-0.068,0.024,0.039,-0.063,-0.074,-0.15,-0.15,-0.071,-0.062,-0.005
0.019,-0.074,-0.092,0.028,0.056,-0.083,-0.076,-0.163,-0.169,-0.079,-0.07,-0.016
-0.005,-0.082,-0.077,0.044,0.036,-0.079,-0.072,-0.159,-0.166,-0.079,-0.075,-0.023
-0.022,-0.1,-0.078,0.061,0.029,-0.089,-0.066,-0.158,-0.172,-0.09,-0.09,-0.036
-0.043,-0.106,-0.063,0.074,0.01,-0.084,-0.073,-0.165,-0.171,-0.087,-0.083,-0.031
-0.066,-0.134,-0.068,0.101,0.001,-0.101,-0.054,-0.151,-0.165,-0.092,-0.088,-0.04
-0.059,-0.115,-0.056,0.087,-0.001,-0.085,-0.085,-0.178,-0.18,-0.09,-0.075,-0.033
-0.075,-0.134,-0.059,0.105,-0.008,-0.096,-0.055,-0.15,-0.154,-0.086,-0.08,-0.051
-0.064,-0.117,-0.053,0.091,-0.005,-0.085,-0.098,-0.191,-0.19,-0.099,-0.072,-0.042
-0.086,-0.13,-0.044,0.108,-0.02,-0.087,-0.06,-0.153,-0.138,-0.076,-0.067,-0.038
-0.07,-0.114,-0.044,0.092,-0.012,-0.079,-0.06,-0.191,-0.194,-0.108,-0.096,-0.05
-0.029,-0.086,-0.058,0.058,0.015,-0.072,0.17,0.232,-0.055,-0.068,-0.078,-0.045
0.101,-0.002,-0.103,-0.05,0.102,-0.053,0.636,0.96,0.291,0.091,0.036,0.029
0.378,1.135,0.756,-0.757,-0.189,0.945,-0.202,-0.203,0.947,1.147,1.046,0.909
0.151,1.34,1.189,-0.746,-0.519,1.264,-0.81,-1.33,1.417,1.648,1.34,1.114
-0.174,-0.014,0.16,0.094,-0.168,0.073,-0.441,-0.927,0.157,0.21,0.087,0.075
-0.105,-0.33,-0.226,0.218,0.061,-0.277,-0.284,-0.531,-0.456,-0.317,-0.25,-0.165
-0.072,-0.171,-0.099,0.122,0.013,-0.134,-0.091,-0.226,-0.11,-0.077,-0.089,-0.06
-0.063,-0.156,-0.093,0.11,0.015,-0.124,-0.036,-0.107,-0.198,-0.148,-0.124,-0.075
-0.048,-0.092,-0.043,0.07,-0.002,-0.067,-0.006,-0.062,-0.096,-0.059,-0.064,-0.023
-0.049,-0.118,-0.069,0.084,0.01,-0.093,-0.005,-0.026,-0.129,-0.098,-0.097,-0.05
-0.051,-0.092,-0.041,0.072,-0.005,-0.066,-0.029,-0.021,-0.105,-0.063,-0.065,-0.024
-0.055,-0.105,-0.05,0.08,-0.002,-0.077,-0.001,0.009,-0.094,-0.066,-0.075,-0.035
-0.051,-0.093,-0.042,0.072,-0.004,-0.067,-0.001,0.009,-0.1,-0.06,-0.063,-0.023
-0.055,-0.095,-0.04,0.075,-0.007,-0.067,0.019,0.032,-0.073,-0.042,-0.057,-0.023
-0.05,-0.089,-0.039,0.07,-0.005,-0.064,0.023,0.053,-0.082,-0.044,-0.057,-0.019
-0.043,-0.075,-0.032,0.059,-0.005,-0.053,0.035,0.075,-0.046,-0.021,-0.044,-0.011
-0.035,-0.07,-0.035,0.053,0.0,-0.052,0.036,0.1,-0.036,-0.021,-0.046,-0.011
-0.032,-0.052,-0.02,0.042,-0.006,-0.036,0.039,0.139,0.0,0.005,-0.031,-0.003
-0.012,-0.026,-0.014,0.02,0.001,-0.02,0.042,0.193,0.027,0.02,-0.01,0.005
-0.002,-0.003,-0.002,0.003,0.0,-0.002,0.045,0.252,0.059,0.043,0.018,0.025
0.002,0.013,0.01,-0.008,-0.004,0.011,0.041,0.319,0.1,0.075,0.04,0.044
0.038,0.059,0.021,-0.048,0.008,0.04,0.032,0.402,0.162,0.116,0.072,0.073
0.048,0.102,0.053,-0.075,-0.003,0.077,0.024,0.486,0.235,0.178,0.122,0.113
0.081,0.166,0.085,-0.124,-0.003,0.126,0.017,0.558,0.303,0.246,0.183,0.162
0.113,0.238,0.125,-0.176,-0.006,0.181,0.007,0.601,0.377,0.319,0.25,0.22
0.127,0.284,0.157,-0.206,-0.015,0.22,-0.019,0.615,0.426,0.382,0.304,0.263
0.162,0.331,0.169,-0.247,-0.004,0.25,-0.049,0.596,0.438,0.41,0.331,0.292
0.135,0.306,0.171,-0.221,-0.018,0.238,-0.053,0.514,0.413,0.401,0.321,0.294
0.112,0.242,0.129,-0.177,-0.009,0.185,-0.037,0.388,0.32,0.333,0.278,0.243
0.069,0.147,0.078,-0.108,-0.005,0.112,-0.035,0.259,0.182,0.224,0.189,0.172
0.014,0.048,0.034,-0.031,-0.01,0.04,-0.035,0.141,0.062,0.126,0.1,0.108
0.001,-0.014,-0.015,0.007,0.008,-0.014,-0.035,0.045,-0.025,0.052,0.049,0.056
-0.027,-0.073,-0.045,0.05,0.009,-0.059,-0.034,-0.017,-0.082,0.008,0.003,0.022
-0.038,-0.1,-0.063,0.069,0.013,-0.081,-0.037,-0.06,-0.115,-0.024,-0.016,0.005
-0.045,-0.124,-0.079,0.084,0.018,-0.101,-0.058,-0.087,-0.139,-0.045,-0.02,0.0
-0.045,-0.125,-0.08,0.085,0.018,-0.102,-0.061,-0.097,-0.139,-0.045,-0.031,0.0
-0.042,-0.117,-0.075,0.08,0.017,-0.096,-0.059,-0.094,-0.133,-0.045,-0.037,0.0
-0.044,-0.118,-0.074,0.081,0.015,-0.095,-0.061,-0.086,-0.131,-0.045,-0.038,0.0
-0.039,-0.109,-0.07,0.074,0.015,-0.09,-0.06,-0.079,-0.126,-0.045,-0.033,0.0
-0.043,-0.112,-0.069,0.078,0.013,-0.09,-0.059,-0.073,-0.124,-0.044,-0.031,0.004
-0.05,-0.115,-0.065,0.083,0.008,-0.09,-0.054,-0.069,-0.12,-0.04,-0.028,0.005
-0.05,-0.115,-0.065,0.083,0.008,-0.09,-0.051,-0.067,-0.12,-0.04,-0.025,0.005
-0.05,-0.115,-0.065,0.083,0.008,-0.09,-0.048,-0.064,-0.12,-0.04,-0.025,0.005
-0.05,-0.115,-0.065,0.083,0.008,-0.09,-0.043,-0.061,-0.12,-0.04,-0.025,0.005
-0.05,-0.115,-0.066,0.083,0.008,-0.09,-0.04,-0.06,-0.12,-0.04,-0.025,0.004
-0.054,-0.115,-0.061,0.085,0.004,-0.088,-0.043,-0.06,-0.123,-0.044,-0.025,-0.001
-0.055,-0.115,-0.06,0.085,0.003,-0.087,-0.046,-0.066,-0.126,-0.049,-0.025,-0.004
-0.056,-0.115,-0.059,0.086,0.002,-0.087,-0.043,-0.071,-0.124,-0.053,-0.031,-0.007
-0.058,-0.115,-0.057,0.087,0.0,-0.086,-0.05,-0.077,-0.127,-0.056,-0.04,-0.012
-0.063,-0.115,-0.052,0.09,-0.005,-0.084,-0.065,-0.091,-0.13,-0.062,-0.045,-0.015
-0.05,-0.114,-0.063,0.083,0.007,-0.088,-0.065,-0.102,-0.13,-0.069,-0.05,-0.019
-0.029,-0.11,-0.081,0.069,0.026,-0.095,-0.067,-0.116,-0.13,-0.07,-0.052,-0.023
-0.033,-0.11,-0.076,0.072,0.021,-0.093,-0.072,-0.123,-0.13,-0.07,-0.056,-0.028
-0.037,-0.11,-0.073,0.074,0.018,-0.091,-0.066,-0.118,-0.13,-0.07,-0.06,-0.029
-0.04,-0.109,-0.07,0.075,0.015,-0.09,-0.067,-0.113,-0.131,-0.071,-0.058,-0.025
-0.046,-0.112,-0.066,0.079,0.01,-0.088,-0.062,-0.105,-0.129,-0.069,-0.055,-0.026
-0.036,-0.099,-0.063,0.068,0.013,-0.08,-0.072,-0.102,-0.117,-0.063,-0.052,-0.023
-0.017,-0.077,-0.06,0.047,0.021,-0.068,-0.089,-0.094,-0.105,-0.056,-0.049,-0.02
-0.005,-0.066,-0.06,0.035,0.028,-0.063,-0.076,-0.087,-0.099,-0.049,-0.046,-0.02
0.002,-0.058,-0.06,0.028,0.031,-0.058,-0.104,-0.081,-0.095,-0.043,-0.044,-0.023
0.006,-0.054,-0.06,0.024,0.034,-0.057,-0.15,-0.077,-0.084,-0.034,-0.051,-0.026
0.003,-0.057,-0.059,0.027,0.032,-0.058,-0.184,-0.115,-0.099,-0.048,-0.054,-0.026
0.002,-0.075,-0.077,0.037,0.04,-0.076,-0.194,-0.13,-0.123,-0.072,-0.059,-0.031
-0.01,-0.088,-0.078,0.049,0.034,-0.083,-0.197,-0.136,-0.132,-0.08,-0.063,-0.03
-0.044,-0.11,-0.067,0.077,0.012,-0.088,-0.193,-0.14,-0.128,-0.088,-0.071,-0.048
-0.055,-0.121,-0.066,0.089,0.005,-0.094,-0.196,-0.149,-0.139,-0.103,-0.08,-0.06
-0.071,-0.122,-0.05,0.097,-0.01,-0.086,-0.197,-0.145,-0.125,-0.095,-0.08,-0.055
-0.085,-0.143,-0.058,0.114,-0.013,-0.1,-0.192,-0.14,-0.132,-0.111,-0.091,-0.066
-0.069,-0.131,-0.062,0.1,-0.004,-0.096,-0.213,-0.156,-0.131,-0.099,-0.077,-0.052
-0.072,-0.146,-0.074,0.109,0.001,-0.11,-0.182,-0.127,-0.114,-0.103,-0.094,-0.07
-0.067,-0.117,-0.05,0.093,-0.008,-0.084,-0.234,-0.17,-0.145,-0.1,-0.076,-0.05
-0.082,-0.144,-0.062,0.114,-0.01,-0.103,-0.164,-0.102,-0.088,-0.094,-0.093,-0.07
-0.058,-0.104,-0.045,0.081,-0.006,-0.074,-0.182,-0.133,-0.137,-0.112,-0.075,-0.055
-0.02,-0.159,-0.139,0.09,0.06,-0.149,0.191,0.512,0.074,-0.069,-0.085,-0.082
0.184,0.177,-0.007,-0.181,0.095,0.085,0.418,0.917,0.461,0.253,0.21,0.172
0.341,1.317,0.976,-0.83,-0.318,1.146,-0.536,-0.545,1.245,1.439,1.287,1.092
-0.01,0.929,0.939,-0.46,-0.475,0.934,-0.761,-1.228,1.274,1.342,1.037,0.829
-0.212,-0.272,-0.061,0.242,-0.075,-0.166,-0.454,-0.76,-0.129,-0.116,-0.144,-0.112
-0.127,-0.328,-0.202,0.228,0.038,-0.265,-0.365,-0.431,-0.317,-0.256,-0.194,-0.132
-0.092,-0.235,-0.143,0.164,0.025,-0.189,-0.18,-0.157,-0.069,-0.13,-0.117,-0.095
-0.06,-0.176,-0.116,0.119,0.028,-0.146,-0.171,-0.087,-0.147,-0.158,-0.107,-0.072
-0.072,-0.144,-0.072,0.108,0.0,-0.107,-0.125,-0.022,-0.03,-0.084,-0.069,-0.05
-0.049,-0.156,-0.108,0.103,0.03,-0.132,-0.136,-0.012,-0.086,-0.131,-0.1,-0.071
-0.044,-0.135,-0.091,0.09,0.024,-0.113,-0.127,0.013,-0.031,-0.085,-0.073,-0.051
-0.048,-0.148,-0.1,0.098,0.026,-0.124,-0.115,0.033,-0.047,-0.107,-0.094,-0.068
-0.043,-0.131,-0.088,0.087,0.023,-0.109,-0.117,0.036,-0.032,-0.086,-0.079,-0.055
-0.048,-0.137,-0.089,0.093,0.021,-0.113,-0.101,0.061,-0.022,-0.087,-0.083,-0.059
-0.042,-0.126,-0.084,0.085,0.021,-0.105,-0.104,0.076,-0.019,-0.077,-0.071,-0.048
-0.043,-0.122,-0.079,0.083,0.018,-0.1,-0.092,0.106,0.014,-0.064,-0.063,-0.043
-0.043,-0.118,-0.075,0.081,0.016,-0.096,-0.091,0.136,0.027,-0.062,-0.057,-0.037
-0.036,-0.103,-0.067,0.07,0.015,-0.084,-0.084,0.179,0.059,-0.029,-0.047,-0.028
-0.019,-0.083,-0.064,0.051,0.022,-0.073,-0.082,0.228,0.088,-0.011,-0.035,-0.016
-0.007,-0.063,-0.055,0.035,0.024,-0.059,-0.075,0.291,0.13,0.009,-0.012,-0.002
0.013,-0.031,-0.044,0.009,0.029,-0.038,-0.082,0.363,0.177,0.042,0.014,0.02
0.03,0.014,-0.015,-0.022,0.022,-0.001,-0.084,0.44,0.243,0.086,0.054,0.057
0.043,0.063,0.02,-0.053,0.011,0.042,-0.089,0.517,0.322,0.15,0.103,0.103
0.079,0.126,0.047,-0.103,0.016,0.087,-0.117,0.572,0.399,0.221,0.167,0.153
0.114,0.192,0.077,-0.154,0.018,0.134,-0.141,0.591,0.474,0.282,0.233,0.2
0.146,0.251,0.105,-0.199,0.021,0.178,-0.168,0.587,0.529,0.335,0.278,0.244
0.16,0.266,0.106,-0.213,0.027,0.186,-0.185,0.552,0.532,0.357,0.298,0.259
0.145,0.241,0.096,-0.193,0.024,0.168,-0.178,0.463,0.497,0.321,0.282,0.249
0.107,0.178,0.071,-0.143,0.018,0.124,-0.153,0.347,0.398,0.245,0.212,0.199
0.047,0.067,0.02,-0.058,0.014,0.044,-0.126,0.226,0.265,0.136,0.121,0.119
0.006,-0.021,-0.027,0.008,0.016,-0.024,-0.11,0.119,0.15,0.035,0.044,0.059
-0.022,-0.083,-0.061,0.053,0.02,-0.072,-0.109,0.036,0.074,-0.033,-0.018,0.013
-0.038,-0.131,-0.093,0.085,0.028,-0.112,-0.11,-0.023,0.033,-0.081,-0.055,-0.016
-0.038,-0.151,-0.114,0.095,0.038,-0.132,-0.112,-0.054,-0.001,-0.101,-0.072,-0.029
-0.046,-0.166,-0.12,0.106,0.037,-0.143,-0.116,-0.065,-0.018,-0.107,-0.086,-0.04
-0.051,-0.171,-0.12,0.111,0.035,-0.146,-0.115,-0.065,-0.022,-0.116,-0.091,-0.045
-0.048,-0.168,-0.12,0.108,0.036,-0.144,-0.112,-0.057,-0.02,-0.126,-0.089,-0.047
-0.046,-0.165,-0.12,0.105,0.038,-0.142,-0.103,-0.051,-0.017,-0.124,-0.09,-0.05
-0.042,-0.162,-0.12,0.102,0.039,-0.141,-0.099,-0.044,-0.014,-0.12,-0.09,-0.053
-0.039,-0.159,-0.12,0.099,0.04,-0.14,-0.093,-0.037,-0.011,-0.118,-0.089,-0.055
-0.046,-0.162,-0.116,0.105,0.035,-0.139,-0.092,-0.037,-0.009,-0.114,-0.093,-0.058
-0.056,-0.166,-0.109,0.111,0.027,-0.137,-0.076,-0.041,-0.005,-0.118,-0.095,-0.06
-0.062,-0.164,-0.102,0.114,0.02,-0.133,-0.043,-0.04,0.0,-0.121,-0.095,-0.06
-0.069,-0.165,-0.097,0.117,0.014,-0.131,-0.033,-0.04,0.004,-0.124,-0.095,-0.065
-0.077,-0.165,-0.088,0.121,0.006,-0.126,-0.031,-0.047,0.008,-0.128,-0.101,-0.065
-0.077,-0.165,-0.088,0.122,0.006,-0.127,-0.027,-0.046,0.014,-0.13,-0.106,-0.066
-0.062,-0.165,-0.103,0.114,0.021,-0.134,-0.023,-0.058,0.015,-0.135,-0.104,-0.07
-0.043,-0.16,-0.118,0.102,0.038,-0.139,-0.02,-0.078,0.015,-0.14,-0.106,-0.073
-0.039,-0.16,-0.121,0.1,0.041,-0.141,-0.019,-0.073,0.015,-0.143,-0.104,-0.077
-0.043,-0.159,-0.116,0.102,0.036,-0.137,-0.023,-0.082,0.015,-0.148,-0.107,-0.08
-0.046,-0.161,-0.115,0.104,0.034,-0.138,-0.031,-0.098,0.015,-0.15,-0.123,-0.084
-0.048,-0.158,-0.11,0.103,0.031,-0.134,-0.027,-0.103,0.015,-0.153,-0.126,-0.085
-0.055,-0.166,-0.111,0.111,0.028,-0.138,-0.021,-0.105,0.022,-0.156,-0.124,-0.085
-0.081,-0.179,-0.098,0.13,0.009,-0.139,-0.018,-0.098,0.03,-0.159,-0.125,-0.085
-0.075,-0.174,-0.099,0.125,0.012,-0.136,-0.012,-0.091,0.038,-0.162,-0.125,-0.086
-0.044,-0.164,-0.12,0.104,0.038,-0.141,-0.008,-0.083,0.046,-0.148,-0.124,-0.084
-0.049,-0.142,-0.093,0.096,0.022,-0.117,0.005,-0.078,0.048,-0.128,-0.12,-0.079
-0.063,-0.134,-0.072,0.099,0.005,-0.103,0.044,-0.076,0.044,-0.124,-0.118,-0.075
-0.056,-0.129,-0.073,0.093,0.009,-0.101,0.043,-0.083,0.039,-0.125,-0.114,-0.07
-0.031,-0.095,-0.064,0.064,0.016,-0.079,0.01,-0.077,0.057,-0.125,-0.119,-0.074
-0.017,-0.091,-0.074,0.054,0.029,-0.083,-0.03,-0.083,0.049,-0.125,-0.124,-0.074
-0.025,-0.131,-0.106,0.078,0.041,-0.118,-0.052,-0.102,0.03,-0.14,-0.126,-0.078
-0.022,-0.14,-0.118,0.082,0.048,-0.129,-0.039,-0.107,0.02,-0.157,-0.133,-0.08
-0.042,-0.154,-0.112,0.098,0.035,-0.132,-0.027,-0.124,0.011,-0.158,-0.135,-0.085
-0.069,-0.187,-0.118,0.128,0.025,-0.152,-0.015,-0.124,0.005,-0.177,-0.147,-0.113
-0.057,-0.168,-0.111,0.113,0.028,-0.14,-0.052,-0.141,-0.01,-0.174,-0.145,-0.107
-0.059,-0.177,-0.118,0.118,0.03,-0.147,-0.035,-0.116,0.011,-0.169,-0.153,-0.113
-0.053,-0.161,-0.108,0.107,0.027,-0.134,-0.057,-0.146,-0.007,-0.174,-0.153,-0.108
-0.053,-0.163,-0.111,0.108,0.029,-0.137,-0.034,-0.114,0.026,-0.156,-0.155,-0.11
-0.059,-0.168,-0.109,0.114,0.025,-0.138,-0.052,-0.141,-0.002,-0.178,-0.164,-0.111
-0.083,-0.169,-0.086,0.127,0.002,-0.127,-0.047,-0.114,0.034,-0.158,-0.152,-0.096
-0.084,-0.171,-0.087,0.128,0.002,-0.129,-0.02,-0.1,0.008,-0.195,-0.171,-0.112
-0.051,-0.157,-0.107,0.104,0.028,-0.132,0.074,0.12,0.053,-0.163,-0.155,-0.102
0.034,-0.181,-0.215,0.074,0.125,-0.198,0.63,1.039,0.437,-0.053,-0.116,-0.094
0.27,0.809,0.539,-0.54,-0.134,0.674,0.116,0.243,0.991,0.835,0.754,0.642
0.118,1.314,1.196,-0.716,-0.54,1.255,-0.599,-1.146,1.58,1.648,1.318,1.053
-0.213,0.103,0.316,0.055,-0.264,0.21,-0.33,-0.917,0.585,0.407,0.207,0.14
-0.167,-0.413,-0.245,0.29,0.039,-0.328,-0.245,-0.564,-0.331,-0.414,-0.346,-0.25
-0.127,-0.293,-0.166,0.21,0.02,-0.229,-0.085,-0.254,0.008,-0.169,-0.187,-0.146
-0.097,-0.254,-0.157,0.175,0.03,-0.205,-0.019,-0.09,-0.016,-0.236,-0.208,-0.155
-0.07,-0.16,-0.091,0.115,0.011,-0.125,-0.01,-0.035,0.057,-0.153,-0.133,-0.09
-0.085,-0.188,-0.104,0.137,0.01,-0.146,0.035,0.007,0.056,-0.169,-0.158,-0.115
-0.076,-0.159,-0.083,0.118,0.003,-0.121,0.017,-0.008,0.046,-0.157,-0.14,-0.099
-0.083,-0.165,-0.082,0.124,0.0,-0.124,0.045,0.022,0.083,-0.143,-0.141,-0.102
-0.077,-0.153,-0.076,0.115,0.0,-0.114,0.028,0.014,0.061,-0.151,-0.139,-0.1
-0.084,-0.147,-0.063,0.116,-0.011,-0.105,0.04,0.041,0.103,-0.123,-0.129,-0.097
-0.064,-0.145,-0.081,0.105,0.009,-0.113,0.031,0.044,0.081,-0.122,-0.13,-0.095
-0.046,-0.132,-0.086,0.089,0.021,-0.109,0.047,0.076,0.117,-0.097,-0.114,-0.085
-0.049,-0.128,-0.08,0.089,0.016,-0.104,0.053,0.097,0.122,-0.094,-0.113,-0.083
-0.044,-0.116,-0.072,0.08,0.014,-0.093,0.039,0.123,0.135,-0.079,-0.101,-0.075
-0.043,-0.11,-0.066,0.077,0.012,-0.088,0.034,0.175,0.176,-0.073,-0.094,-0.069
-0.034,-0.097,-0.063,0.066,0.014,-0.08,0.022,0.218,0.196,-0.052,-0.071,-0.047
-0.015,-0.072,-0.057,0.043,0.022,-0.064,0.009,0.275,0.228,-0.015,-0.042,-0.028
0.011,-0.023,-0.034,0.006,0.023,-0.028,-0.013,0.344,0.28,0.028,-0.011,-0.001
0.019,0.023,0.004,-0.021,0.008,0.013,-0.04,0.417,0.342,0.085,0.033,0.04
0.039,0.085,0.045,-0.062,-0.004,0.065,-0.059,0.483,0.414,0.157,0.094,0.086
0.08,0.153,0.073,-0.117,0.004,0.113,-0.081,0.517,0.486,0.232,0.159,0.135
0.106,0.209,0.103,-0.157,0.001,0.156,-0.115,0.503,0.538,0.292,0.212,0.185
0.127,0.249,0.122,-0.188,0.002,0.185,-0.14,0.491,0.558,0.33,0.249,0.222
0.11,0.232,0.121,-0.171,-0.006,0.176,-0.144,0.455,0.545,0.326,0.248,0.22
0.089,0.194,0.105,-0.141,-0.008,0.149,-0.123,0.349,0.446,0.264,0.191,0.177
0.051,0.117,0.066,-0.084,-0.008,0.091,-0.097,0.23,0.309,0.163,0.108,0.106
-0.014,-0.003,0.011,0.008,-0.013,0.004,-0.089,0.126,0.186,0.055,0.032,0.043
-0.038,-0.07,-0.033,0.054,-0.002,-0.051,-0.091,0.04,0.08,-0.025,-0.029,0.0
-0.053,-0.111,-0.058,0.082,0.003,-0.084,-0.087,-0.03,0.025,-0.076,-0.08,-0.043
-0.057,-0.147,-0.09,0.102,0.017,-0.118,-0.084,-0.07,-0.013,-0.109,-0.112,-0.064
-0.071,-0.165,-0.094,0.119,0.012,-0.13,-0.085,-0.097,-0.039,-0.122,-0.119,-0.072
-0.083,-0.172,-0.089,0.128,0.003,-0.13,-0.085,-0.109,-0.048,-0.125,-0.119,-0.082
-0.077,-0.169,-0.091,0.123,0.007,-0.13,-0.085,-0.102,-0.051,-0.125,-0.129,-0.081
-0.084,-0.171,-0.087,0.128,0.001,-0.128,-0.085,-0.098,-0.049,-0.125,-0.134,-0.08
-0.084,-0.169,-0.085,0.127,0.001,-0.127,-0.085,-0.094,-0.051,-0.125,-0.127,-0.08
-0.087,-0.171,-0.085,0.129,-0.001,-0.128,-0.085,-0.089,-0.049,-0.124,-0.122,-0.079
-0.094,-0.175,-0.082,0.135,-0.005,-0.128,-0.086,-0.085,-0.051,-0.121,-0.116,-0.081
-0.095,-0.174,-0.079,0.135,-0.007,-0.126,-0.09,-0.09,-0.06,-0.116,-0.111,-0.077
-0.097,-0.178,-0.08,0.138,-0.008,-0.129,-0.09,-0.09,-0.074,-0.114,-0.11,-0.075
-0.106,-0.18,-0.075,0.143,-0.015,-0.127,-0.09,-0.091,-0.102,-0.11,-0.11,-0.075
-0.104,-0.18,-0.075,0.143,-0.014,-0.127,-0.09,-0.096,-0.127,-0.105,-0.11,-0.072
-0.103,-0.177,-0.074,0.14,-0.014,-0.125,-0.09,-0.093,-0.145,-0.107,-0.11,-0.069
-0.102,-0.171,-0.069,0.136,-0.016,-0.12,-0.093,-0.1,-0.163,-0.11,-0.11,-0.071
-0.079,-0.167,-0.088,0.123,0.005,-0.127,-0.096,-0.109,-0.173,-0.11,-0.111,-0.075
-0.065,-0.162,-0.097,0.114,0.016,-0.129,-0.093,-0.116,-0.192,-0.115,-0.115,-0.075
-0.064,-0.158,-0.094,0.111,0.015,-0.125,-0.101,-0.123,-0.208,-0.115,-0.115,-0.077
-0.058,-0.153,-0.096,0.106,0.019,-0.124,-0.12,-0.137,-0.21,-0.116,-0.115,-0.081
-0.055,-0.15,-0.095,0.103,0.02,-0.122,-0.12,-0.151,-0.215,-0.121,-0.115,-0.08
-0.055,-0.15,-0.095,0.103,0.02,-0.122,-0.12,-0.149,-0.219,-0.119,-0.115,-0.08
-0.059,-0.15,-0.091,0.105,0.016,-0.12,-0.12,-0.152,-0.227,-0.123,-0.115,-0.08
-0.064,-0.15,-0.086,0.107,0.011,-0.118,-0.12,-0.156,-0.229,-0.125,-0.115,-0.079
-0.066,-0.15,-0.084,0.109,0.009,-0.117,-0.117,-0.155,-0.225,-0.125,-0.115,-0.076
-0.067,-0.146,-0.079,0.106,0.006,-0.112,-0.109,-0.152,-0.225,-0.125,-0.115,-0.075
-0.064,-0.14,-0.076,0.102,0.006,-0.108,-0.101,-0.149,-0.223,-0.125,-0.116,-0.076
-0.062,-0.135,-0.073,0.099,0.006,-0.104,-0.088,-0.144,-0.219,-0.126,-0.114,-0.075
-0.064,-0.127,-0.063,0.096,0.0,-0.095,-0.067,-0.143,-0.221,-0.112,-0.109,-0.075
-0.046,-0.103,-0.057,0.075,0.006,-0.08,-0.031,-0.136,-0.215,-0.098,-0.104,-0.072
-0.032,-0.079,-0.047,0.056,0.007,-0.062,0.0,-0.126,-0.209,-0.101,-0.099,-0.07
-0.036,-0.078,-0.042,0.057,0.004,-0.06,0.006,-0.104,-0.204,-0.103,-0.095,-0.07
-0.039,-0.071,-0.032,0.055,-0.003,-0.051,-0.027,-0.094,-0.189,-0.108,-0.09,-0.067
-0.031,-0.076,-0.045,0.054,0.007,-0.06,-0.073,-0.139,-0.205,-0.11,-0.096,-0.063
-0.019,-0.111,-0.092,0.066,0.037,-0.101,-0.077,-0.16,-0.232,-0.115,-0.11,-0.067
-0.037,-0.113,-0.076,0.075,0.02,-0.094,-0.085,-0.172,-0.241,-0.12,-0.112,-0.067
-0.064,-0.129,-0.065,0.097,0.001,-0.097,-0.074,-0.167,-0.237,-0.122,-0.122,-0.082
-0.076,-0.138,-0.062,0.107,-0.007,-0.1,-0.087,-0.183,-0.253,-0.131,-0.126,-0.086
-0.084,-0.14,-0.057,0.112,-0.014,-0.098,-0.075,-0.174,-0.235,-0.12,-0.131,-0.089
-0.083,-0.142,-0.059,0.113,-0.012,-0.1,-0.079,-0.184,-0.254,-0.129,-0.14,-0.089
-0.091,-0.134,-0.042,0.113,-0.024,-0.088,-0.077,-0.177,-0.238,-0.109,-0.127,-0.078
-0.082,-0.151,-0.068,0.117,-0.007,-0.11,-0.063,-0.167,-0.247,-0.124,-0.145,-0.095
-0.077,-0.123,-0.045,0.1,-0.016,-0.084,-0.09,-0.192,-0.252,-0.102,-0.122,-0.071
-0.095,-0.157,-0.061,0.126,-0.017,-0.109,-0.033,-0.148,-0.219,-0.117,-0.151,-0.103
-0.079,-0.1,-0.021,0.089,-0.029,-0.061,-0.049,-0.113,-0.249,-0.117,-0.115,-0.066
-0.03,-0.173,-0.143,0.102,0.056,-0.157,0.51,0.754,0.06,-0.055,-0.126,-0.113
0.237,0.469,0.231,-0.353,0.003,0.35,0.378,0.631,0.505,0.502,0.434,0.362
0.297,1.504,1.207,-0.9,-0.456,1.355,-0.704,-0.991,1.286,1.665,1.427,1.183
-0.098,0.618,0.716,-0.26,-0.407,0.667,-0.6,-1.173,0.838,0.994,0.69,0.53
-0.177,-0.364,-0.187,0.271,0.005,-0.276,-0.245,-0.683,-0.464,-0.309,-0.29,-0.221
-0.085,-0.249,-0.165,0.167,0.041,-0.207,-0.114,-0.389,-0.325,-0.189,-0.171,-0.125
-0.107,-0.21,-0.103,0.159,-0.002,-0.156,0.05,-0.151,-0.225,-0.159,-0.168,-0.133
-0.065,-0.127,-0.062,0.096,-0.001,-0.094,0.057,-0.113,-0.242,-0.138,-0.127,-0.088
-0.054,-0.123,-0.069,0.089,0.008,-0.095,0.099,-0.042,-0.163,-0.103,-0.117,-0.089
-0.056,-0.118,-0.062,0.088,0.003,-0.09,0.084,-0.042,-0.217,-0.127,-0.124,-0.088
-0.058,-0.109,-0.051,0.084,-0.003,-0.08,0.104,-0.016,-0.156,-0.085,-0.102,-0.077
-0.06,-0.115,-0.055,0.088,-0.002,-0.085,0.109,-0.005,-0.19,-0.104,-0.113,-0.083
-0.056,-0.1,-0.044,0.078,-0.005,-0.072,0.118,0.017,-0.152,-0.068,-0.093,-0.069
-0.039,-0.107,-0.069,0.073,0.015,-0.088,0.123,0.034,-0.153,-0.073,-0.098,-0.073
-0.028,-0.09,-0.062,0.059,0.017,-0.076,0.124,0.046,-0.134,-0.051,-0.081,-0.057
-0.036,-0.089,-0.053,0.063,0.009,-0.07,0.13,0.078,-0.116,-0.043,-0.079,-0.053
-0.029,-0.072,-0.043,0.05,0.007,-0.057,0.133,0.105,-0.102,-0.031,-0.067,-0.044
-0.018,-0.057,-0.038,0.037,0.01,-0.047,0.15,0.147,-0.072,-0.012,-0.057,-0.036
-0.006,-0.049,-0.043,0.027,0.019,-0.045,0.154,0.199,-0.049,0.012,-0.039,-0.022
0.009,-0.023,-0.031,0.007,0.02,-0.027,0.153,0.263,0.001,0.047,-0.007,-0.007
0.016,0.013,-0.004,-0.015,0.01,0.004,0.144,0.332,0.051,0.079,0.027,0.013
0.025,0.063,0.038,-0.044,-0.007,0.051,0.136,0.412,0.115,0.138,0.07,0.049
0.064,0.127,0.063,-0.096,0.001,0.095,0.128,0.492,0.189,0.205,0.128,0.099
0.102,0.189,0.087,-0.146,0.007,0.138,0.122,0.538,0.249,0.271,0.191,0.146
0.131,0.259,0.128,-0.195,0.001,0.193,0.102,0.553,0.31,0.335,0.248,0.199
0.147,0.301,0.154,-0.224,-0.004,0.227,0.079,0.546,0.339,0.384,0.292,0.237
0.142,0.31,0.167,-0.226,-0.013,0.238,0.073,0.502,0.331,0.396,0.301,0.242
0.135,0.287,0.152,-0.211,-0.009,0.219,0.07,0.397,0.278,0.354,0.277,0.23
0.086,0.2,0.113,-0.143,-0.014,0.156,0.091,0.262,0.151,0.266,0.206,0.17
0.052,0.101,0.05,-0.077,0.001,0.075,0.114,0.144,0.019,0.161,0.112,0.092
0.013,0.016,0.003,-0.015,0.005,0.009,0.11,0.039,-0.083,0.072,0.047,0.038
-0.024,-0.048,-0.024,0.036,0.0,-0.036,0.092,-0.037,-0.16,0.011,-0.007,-0.007
-0.015,-0.077,-0.062,0.046,0.024,-0.069,0.08,-0.088,-0.206,-0.023,-0.045,-0.033
-0.019,-0.1,-0.081,0.06,0.031,-0.09,0.08,-0.121,-0.233,-0.047,-0.052,-0.046
-0.017,-0.102,-0.084,0.06,0.034,-0.093,0.079,-0.141,-0.235,-0.059,-0.05,-0.051
-0.019,-0.099,-0.08,0.059,0.03,-0.089,0.076,-0.15,-0.234,-0.056,-0.05,-0.05
-0.025,-0.101,-0.076,0.063,0.026,-0.088,0.074,-0.143,-0.235,-0.05,-0.05,-0.05
-0.026,-0.099,-0.073,0.063,0.023,-0.085,0.076,-0.132,-0.234,-0.042,-0.05,-0.05
-0.032,-0.101,-0.069,0.066,0.019,-0.085,0.08,-0.125,-0.236,-0.037,-0.049,-0.05
-0.032,-0.097,-0.066,0.065,0.017,-0.081,0.08,-0.125,-0.232,-0.027,-0.045,-0.045
-0.03,-0.091,-0.061,0.061,0.016,-0.076,0.082,-0.124,-0.228,-0.029,-0.045,-0.045
-0.028,-0.086,-0.058,0.057,0.015,-0.072,0.085,-0.12,-0.225,-0.04,-0.045,-0.045
-0.026,-0.081,-0.055,0.054,0.015,-0.067,0.085,-0.12,-0.222,-0.04,-0.045,-0.045
-0.025,-0.075,-0.05,0.05,0.013,-0.062,0.082,-0.122,-0.217,-0.04,-0.045,-0.045
-0.018,-0.07,-0.052,0.044,0.018,-0.061,0.076,-0.127,-0.215,-0.041,-0.047,-0.045
-0.006,-0.076,-0.071,0.041,0.033,-0.073,0.071,-0.13,-0.22,-0.039,-0.051,-0.045
-0.003,-0.078,-0.075,0.041,0.037,-0.076,0.068,-0.131,-0.22,-0.043,-0.053,-0.045
-0.006,-0.074,-0.069,0.04,0.032,-0.071,0.062,-0.138,-0.228,-0.045,-0.056,-0.06
-0.008,-0.076,-0.067,0.042,0.03,-0.071,0.06,-0.145,-0.235,-0.045,-0.059,-0.066
-0.009,-0.071,-0.062,0.041,0.027,-0.067,0.06,-0.155,-0.234,-0.05,-0.061,-0.064
-0.011,-0.07,-0.058,0.04,0.024,-0.064,0.06,-0.165,-0.235,-0.053,-0.064,-0.066
0.0,-0.07,-0.07,0.035,0.035,-0.07,0.06,-0.17,-0.235,-0.058,-0.065,-0.064
0.005,-0.07,-0.074,0.033,0.039,-0.072,0.06,-0.17,-0.235,-0.06,-0.068,-0.066
-0.004,-0.07,-0.067,0.037,0.032,-0.068,0.06,-0.169,-0.235,-0.06,-0.07,-0.069
-0.006,-0.07,-0.064,0.038,0.029,-0.066,0.06,-0.171,-0.231,-0.06,-0.07,-0.07
-0.011,-0.07,-0.059,0.041,0.024,-0.064,0.06,-0.168,-0.23,-0.06,-0.07,-0.07
-0.016,-0.07,-0.054,0.043,0.019,-0.062,0.06,-0.18,-0.229,-0.059,-0.07,-0.07
-0.018,-0.068,-0.05,0.043,0.016,-0.059,0.06,-0.192,-0.231,-0.056,-0.07,-0.07
-0.021,-0.064,-0.043,0.043,0.012,-0.054,0.06,-0.189,-0.229,-0.055,-0.07,-0.07
-0.026,-0.065,-0.039,0.046,0.007,-0.052,0.061,-0.191,-0.232,-0.055,-0.07,-0.07
-0.032,-0.065,-0.033,0.049,0.001,-0.049,0.066,-0.189,-0.242,-0.056,-0.065,-0.07
-0.039,-0.065,-0.026,0.052,-0.006,-0.045,0.064,-0.191,-0.239,-0.054,-0.065,-0.07
-0.033,-0.067,-0.034,0.05,0.001,-0.05,0.067,-0.185,-0.232,-0.065,-0.064,-0.07
-0.013,-0.052,-0.039,0.033,0.013,-0.045,0.063,-0.18,-0.227,-0.067,-0.06,-0.07
-0.001,-0.033,-0.032,0.018,0.016,-0.032,0.068,-0.171,-0.22,-0.055,-0.06,-0.075
0.009,-0.018,-0.027,0.005,0.018,-0.022,0.104,-0.153,-0.209,-0.045,-0.062,-0.075
0.013,-0.008,-0.022,-0.002,0.017,-0.015,0.126,-0.13,-0.202,-0.036,-0.065,-0.074
0.029,0.014,-0.015,-0.021,0.022,-0.001,0.098,-0.105,-0.178,-0.035,-0.066,-0.076
0.048,0.028,-0.02,-0.038,0.034,0.004,0.045,-0.154,-0.186,-0.037,-0.063,-0.073
0.017,-0.02,-0.037,0.002,0.028,-0.028,0.037,-0.196,-0.215,-0.061,-0.067,-0.079
0.008,-0.021,-0.028,0.007,0.018,-0.024,0.029,-0.2,-0.22,-0.066,-0.063,-0.079
-0.009,-0.035,-0.026,0.023,0.009,-0.03,0.034,-0.196,-0.222,-0.064,-0.076,-0.081
-0.025,-0.048,-0.023,0.036,-0.001,-0.035,0.022,-0.21,-0.244,-0.073,-0.088,-0.08
-0.03,-0.042,-0.012,0.036,-0.008,-0.027,0.028,-0.198,-0.229,-0.066,-0.087,-0.078
-0.05,-0.076,-0.026,0.063,-0.011,-0.051,0.028,-0.201,-0.242,-0.092,-0.1,-0.079
-0.034,-0.064,-0.03,0.049,-0.002,-0.046,0.026,-0.203,-0.231,-0.077,-0.084,-0.069
-0.031,-0.072,-0.041,0.052,0.005,-0.057,0.042,-0.191,-0.23,-0.093,-0.099,-0.084
-0.028,-0.041,-0.013,0.035,-0.007,-0.027,0.009,-0.217,-0.239,-0.079,-0.078,-0.063
-0.034,-0.069,-0.036,0.052,0.001,-0.052,0.063,-0.176,-0.209,-0.088,-0.098,-0.089
-0.014,-0.01,0.004,0.012,-0.009,-0.002,0.042,-0.163,-0.235,-0.086,-0.071,-0.063
0.028,-0.075,-0.103,0.024,0.066,-0.089,0.547,0.619,0.024,-0.037,-0.096,-0.125
0.285,0.472,0.187,-0.379,0.049,0.329,0.513,0.647,0.453,0.454,0.392,0.305
0.383,1.572,1.189,-0.978,-0.403,1.38,-0.534,-0.915,1.295,1.647,1.44,1.193
-0.02,0.807,0.828,-0.394,-0.424,0.817,-0.567,-1.262,0.963,1.116,0.832,0.635
-0.15,-0.262,-0.112,0.206,-0.019,-0.187,-0.239,-0.753,-0.397,-0.235,-0.228,-0.198
-0.056,-0.167,-0.111,0.112,0.028,-0.139,-0.115,-0.432,-0.34,-0.17,-0.147,-0.122
-0.055,-0.122,-0.067,0.088,0.006,-0.094,0.044,-0.183,-0.189,-0.115,-0.124,-0.113
-0.031,-0.054,-0.023,0.042,-0.003,-0.038,0.058,-0.13,-0.228,-0.106,-0.088,-0.077
-0.029,-0.043,-0.014,0.036,-0.007,-0.028,0.087,-0.071,-0.155,-0.065,-0.071,-0.071
-0.016,-0.043,-0.027,0.03,0.006,-0.035,0.062,-0.07,-0.209,-0.101,-0.091,-0.081
-0.019,-0.026,-0.007,0.023,-0.006,-0.016,0.069,-0.04,-0.148,-0.062,-0.066,-0.068
-0.012,-0.034,-0.022,0.024,0.005,-0.028,0.061,-0.024,-0.172,-0.089,-0.084,-0.082
-0.006,-0.015,-0.008,0.011,0.001,-0.011,0.055,-0.017,-0.137,-0.066,-0.067,-0.069
-0.008,-0.019,-0.012,0.014,0.002,-0.015,0.059,0.005,-0.134,-0.07,-0.074,-0.074
-0.004,-0.004,0.0,0.004,-0.002,-0.002,0.058,0.026,-0.115,-0.047,-0.061,-0.06
-0.005,-0.003,0.002,0.004,-0.003,-0.001,0.062,0.054,-0.095,-0.036,-0.059,-0.057
0.003,0.012,0.009,-0.007,-0.003,0.01,0.064,0.086,-0.079,-0.023,-0.051,-0.048
0.011,0.025,0.014,-0.018,-0.002,0.02,0.074,0.137,-0.048,-0.006,-0.031,-0.043
0.019,0.04,0.021,-0.03,-0.001,0.03,0.073,0.185,-0.025,0.009,-0.016,-0.034
0.029,0.068,0.039,-0.048,-0.005,0.053,0.066,0.251,0.023,0.039,0.003,-0.012
0.053,0.1,0.047,-0.077,0.003,0.073,0.059,0.327,0.078,0.076,0.039,0.017
0.077,0.142,0.066,-0.11,0.005,0.103,0.052,0.403,0.142,0.12,0.08,0.048
0.101,0.203,0.102,-0.152,-0.001,0.152,0.046,0.481,0.219,0.183,0.132,0.088
0.135,0.275,0.139,-0.205,-0.002,0.207,0.041,0.532,0.287,0.257,0.204,0.146
0.152,0.333,0.181,-0.243,-0.014,0.257,0.019,0.544,0.344,0.315,0.255,0.191
0.162,0.373,0.21,-0.268,-0.024,0.291,-0.017,0.539,0.381,0.361,0.297,0.232
0.18,0.396,0.216,-0.288,-0.018,0.306,-0.041,0.501,0.387,0.371,0.317,0.25
0.177,0.374,0.198,-0.276,-0.01,0.286,-0.046,0.398,0.344,0.337,0.288,0.225
0.142,0.302,0.16,-0.223,-0.009,0.231,-0.047,0.271,0.238,0.262,0.223,0.175
0.089,0.21,0.121,-0.15,-0.016,0.165,-0.053,0.155,0.109,0.151,0.132,0.108
0.034,0.113,0.079,-0.074,-0.023,0.096,-0.052,0.049,-0.008,0.05,0.05,0.047
0.005,0.047,0.041,-0.026,-0.018,0.044,-0.063,-0.034,-0.086,-0.011,-0.001,-0.003
-0.003,0.006,0.009,-0.002,-0.006,0.008,-0.082,-0.09,-0.136,-0.056,-0.037,-0.038
-0.003,-0.01,-0.007,0.007,0.002,-0.008,-0.088,-0.119,-0.161,-0.089,-0.061,-0.049
-0.006,0.004,0.011,0.001,-0.008,0.007,-0.099,-0.135,-0.171,-0.094,-0.069,-0.056
-0.017,-0.02,-0.003,0.018,-0.007,-0.012,-0.101,-0.14,-0.175,-0.102,-0.07,-0.065
-0.015,-0.046,-0.031,0.031,0.008,-0.038,-0.099,-0.134,-0.168,-0.112,-0.07,-0.067
-0.01,-0.035,-0.025,0.023,0.007,-0.03,-0.1,-0.131,-0.165,-0.107,-0.07,-0.064
-0.009,-0.029,-0.02,0.02,0.006,-0.025,-0.1,-0.127,-0.16,-0.105,-0.07,-0.061
-0.008,-0.023,-0.015,0.016,0.004,-0.019,-0.099,-0.122,-0.155,-0.102,-0.07,-0.059
-0.01,-0.018,-0.007,0.014,-0.001,-0.013,-0.094,-0.12,-0.155,-0.099,-0.073,-0.054
-0.009,-0.016,-0.007,0.013,0.0,-0.011,-0.095,-0.115,-0.154,-0.104,-0.076,-0.057
-0.002,-0.011,-0.01,0.006,0.004,-0.01,-0.093,-0.113,-0.156,-0.105,-0.075,-0.06
0.003,-0.008,-0.01,0.002,0.007,-0.009,-0.089,-0.106,-0.154,-0.106,-0.075,-0.061
0.005,-0.005,-0.01,0.0,0.008,-0.007,-0.09,-0.112,-0.16,-0.109,-0.075,-0.064
0.012,0.006,-0.006,-0.009,0.009,0.0,-0.094,-0.136,-0.176,-0.11,-0.075,-0.065
0.012,0.012,0.0,-0.012,0.006,0.006,-0.101,-0.138,-0.174,-0.11,-0.075,-0.068
-0.002,0.004,0.006,-0.001,-0.005,0.005,-0.11,-0.144,-0.178,-0.109,-0.075,-0.072
-0.008,0.001,0.009,0.004,-0.009,0.005,-0.119,-0.158,-0.193,-0.123,-0.086,-0.076
-0.008,-0.004,0.005,0.006,-0.006,0.0,-0.126,-0.163,-0.195,-0.132,-0.091,-0.081
-0.014,-0.009,0.005,0.011,-0.009,-0.002,-0.131,-0.171,-0.195,-0.129,-0.089,-0.084
-0.013,-0.008,0.005,0.01,-0.009,-0.001,-0.135,-0.173,-0.195,-0.131,-0.09,-0.089
-0.008,-0.003,0.005,0.005,-0.006,0.001,-0.135,-0.179,-0.195,-0.129,-0.1,-0.093
-0.005,0.0,0.005,0.002,-0.005,0.002,-0.135,-0.193,-0.194,-0.131,-0.106,-0.098
-0.005,0.003,0.008,0.001,-0.007,0.005,-0.135,-0.195,-0.191,-0.134,-0.105,-0.1
-0.003,0.008,0.011,-0.002,-0.007,0.009,-0.131,-0.199,-0.188,-0.135,-0.111,-0.1
0.001,0.011,0.01,-0.006,-0.004,0.01,-0.124,-0.2,-0.185,-0.135,-0.109,-0.1
-0.001,0.009,0.01,-0.004,-0.006,0.01,-0.118,-0.195,-0.183,-0.133,-0.106,-0.1
0.002,0.011,0.009,-0.007,-0.004,0.01,-0.11,-0.187,-0.18,-0.126,-0.104,-0.1
0.019,0.03,0.011,-0.025,0.004,0.02,-0.104,-0.184,-0.178,-0.119,-0.1,-0.1
0.031,0.051,0.02,-0.041,0.005,0.035,-0.1,-0.175,-0.168,-0.113,-0.098,-0.1
0.018,0.048,0.029,-0.033,-0.005,0.038,-0.107,-0.164,-0.162,-0.105,-0.094,-0.1
0.015,0.058,0.043,-0.036,-0.014,0.05,-0.111,-0.164,-0.164,-0.101,-0.097,-0.1
0.04,0.09,0.05,-0.065,-0.006,0.07,-0.112,-0.167,-0.171,-0.103,-0.101,-0.101
0.02,0.067,0.046,-0.044,-0.013,0.056,-0.136,-0.183,-0.173,-0.113,-0.098,-0.098
-0.001,0.036,0.037,-0.018,-0.019,0.037,-0.15,-0.193,-0.177,-0.135,-0.102,-0.103
0.004,0.041,0.037,-0.023,-0.017,0.039,-0.153,-0.204,-0.187,-0.14,-0.108,-0.103
-0.014,0.011,0.026,0.002,-0.02,0.018,-0.139,-0.195,-0.185,-0.147,-0.124,-0.112
-0.018,0.011,0.029,0.003,-0.024,0.02,-0.152,-0.217,-0.201,-0.157,-0.125,-0.115
-0.02,0.0,0.02,0.009,-0.02,0.01,-0.131,-0.207,-0.184,-0.159,-0.134,-0.124
-0.011,0.008,0.019,0.001,-0.015,0.013,-0.149,-0.231,-0.199,-0.166,-0.137,-0.119
-0.002,0.016,0.017,-0.007,-0.01,0.016,-0.142,-0.21,-0.174,-0.152,-0.13,-0.118
0.009,0.014,0.005,-0.012,0.002,0.009,-0.146,-0.213,-0.19,-0.168,-0.143,-0.126
0.001,0.041,0.04,-0.022,-0.019,0.04,-0.158,-0.221,-0.174,-0.143,-0.123,-0.108
-0.016,0.004,0.02,0.006,-0.018,0.012,-0.092,-0.173,-0.168,-0.165,-0.151,-0.138
0.019,0.048,0.029,-0.033,-0.005,0.038,-0.09,-0.083,-0.164,-0.154,-0.124,-0.109
0.075,-0.034,-0.109,-0.02,0.092,-0.071,0.457,0.839,0.179,-0.098,-0.132,-0.163
0.302,0.761,0.459,-0.532,-0.079,0.61,0.207,0.449,0.669,0.619,0.573,0.453
0.259,1.58,1.32,-0.92,-0.531,1.45,-0.646,-1.104,1.388,1.645,1.38,1.112
-0.111,0.528,0.639,-0.209,-0.375,0.584,-0.479,-1.1,0.696,0.708,0.458,0.304
-0.132,-0.213,-0.081,0.172,-0.025,-0.147,-0.359,-0.692,-0.459,-0.374,-0.298,-0.249
-0.06,-0.106,-0.045,0.083,-0.007,-0.075,-0.213,-0.391,-0.221,-0.198,-0.154,-0.139
-0.041,-0.08,-0.039,0.06,-0.001,-0.059,-0.065,-0.19,-0.177,-0.207,-0.168,-0.159
0.007,0.029,0.022,-0.018,-0.007,0.025,-0.066,-0.141,-0.15,-0.151,-0.104,-0.102
-0.019,0.019,0.037,0.0,-0.028,0.028,-0.005,-0.072,-0.098,-0.146,-0.117,-0.119
-0.022,0.036,0.057,-0.007,-0.04,0.046,-0.024,-0.091,-0.135,-0.154,-0.11,-0.104
-0.023,0.028,0.051,-0.003,-0.037,0.04,0.005,-0.057,-0.082,-0.127,-0.101,-0.102
-0.017,0.028,0.045,-0.006,-0.031,0.036,-0.002,-0.054,-0.112,-0.145,-0.107,-0.1
0.016,0.062,0.047,-0.04,-0.016,0.054,0.011,-0.025,-0.073,-0.111,-0.093,-0.09
0.027,0.064,0.037,-0.046,-0.005,0.05,0.016,-0.013,-0.081,-0.113,-0.099,-0.092
0.027,0.066,0.039,-0.047,-0.006,0.052,0.02,-0.006,-0.05,-0.09,-0.086,-0.077
0.037,0.07,0.033,-0.054,0.002,0.051,0.027,0.028,-0.029,-0.088,-0.087,-0.077
0.039,0.069,0.03,-0.054,0.004,0.049,0.025,0.057,-0.008,-0.078,-0.08,-0.066
0.039,0.075,0.036,-0.057,0.001,0.056,0.032,0.101,0.029,-0.066,-0.073,-0.062
0.032,0.094,0.062,-0.064,-0.015,0.078,0.025,0.158,0.052,-0.043,-0.052,-0.054
0.043,0.11,0.067,-0.077,-0.012,0.088,0.022,0.215,0.098,0.002,-0.024,-0.038
0.063,0.142,0.079,-0.103,-0.008,0.11,0.017,0.28,0.154,0.037,0.007,-0.017
0.092,0.198,0.105,-0.145,-0.007,0.151,0.013,0.352,0.217,0.088,0.055,0.02
0.146,0.278,0.132,-0.213,0.007,0.205,0.007,0.421,0.309,0.165,0.116,0.071
0.161,0.327,0.166,-0.245,-0.003,0.247,-0.02,0.456,0.374,0.225,0.171,0.118
0.177,0.378,0.201,-0.277,-0.013,0.289,-0.052,0.456,0.424,0.284,0.227,0.164
0.207,0.436,0.23,-0.322,-0.012,0.333,-0.082,0.447,0.456,0.329,0.268,0.194
0.212,0.445,0.232,-0.329,-0.01,0.339,-0.101,0.408,0.442,0.332,0.276,0.204
0.175,0.4,0.225,-0.288,-0.025,0.312,-0.074,0.325,0.38,0.29,0.241,0.173
0.11,0.305,0.195,-0.208,-0.043,0.25,-0.034,0.209,0.249,0.189,0.161,0.108
0.075,0.216,0.14,-0.146,-0.033,0.178,-0.028,0.102,0.113,0.078,0.071,0.047
0.052,0.141,0.089,-0.097,-0.019,0.115,-0.031,0.011,0.008,-0.012,-0.002,-0.019
0.03,0.079,0.049,-0.055,-0.01,0.064,-0.029,-0.058,-0.061,-0.074,-0.052,-0.061
0.009,0.04,0.032,-0.025,-0.012,0.036,-0.031,-0.103,-0.103,-0.102,-0.086,-0.08
-0.008,0.022,0.029,-0.007,-0.019,0.025,-0.03,-0.134,-0.114,-0.12,-0.099,-0.092
-0.012,0.019,0.031,-0.004,-0.021,0.025,-0.027,-0.137,-0.101,-0.124,-0.1,-0.095
-0.013,0.016,0.029,-0.002,-0.022,0.022,-0.025,-0.152,-0.094,-0.141,-0.108,-0.106
-0.017,0.013,0.031,0.002,-0.025,0.022,-0.025,-0.157,-0.081,-0.151,-0.111,-0.11
-0.019,0.01,0.029,0.005,-0.024,0.019,-0.02,-0.135,-0.074,-0.143,-0.109,-0.111
-0.012,0.014,0.026,-0.002,-0.019,0.02,-0.02,-0.124,-0.061,-0.141,-0.11,-0.115
-0.002,0.022,0.024,-0.01,-0.013,0.023,-0.019,-0.109,-0.039,-0.135,-0.109,-0.114
