-0.076,-0.069,0.006,0.072,-0.041,-0.031,-0.009,0.0,-0.026,-0.055,-0.105,-0.03
-0.092,-0.072,0.021,0.082,-0.057,-0.025,-0.011,-0.004,-0.032,-0.055,-0.105,-0.03
-0.111,-0.085,0.026,0.097,-0.068,-0.03,-0.025,-0.01,-0.031,-0.055,-0.105,-0.03
-0.089,-0.084,0.005,0.087,-0.046,-0.04,-0.031,-0.01,-0.03,-0.055,-0.105,-0.03
-0.073,-0.081,-0.007,0.077,-0.033,-0.044,-0.029,-0.01,-0.029,-0.055,-0.105,-0.03
-0.091,-0.079,0.012,0.085,-0.052,-0.033,-0.03,-0.01,-0.025,-0.055,-0.104,-0.029
-0.097,-0.075,0.023,0.086,-0.059,-0.026,-0.03,-0.01,-0.025,-0.051,-0.1,-0.025
-0.1,-0.077,0.023,0.088,-0.061,-0.026,-0.03,-0.008,-0.028,-0.05,-0.095,-0.02
-0.12,-0.082,0.038,0.101,-0.079,-0.022,-0.034,-0.002,-0.028,-0.049,-0.091,-0.016
-0.094,-0.09,0.005,0.092,-0.049,-0.042,-0.036,0.002,-0.022,-0.044,-0.086,-0.011
-0.073,-0.084,-0.011,0.079,-0.031,-0.047,-0.032,0.006,-0.018,-0.046,-0.082,-0.007
-0.081,-0.071,0.01,0.076,-0.045,-0.031,-0.024,0.012,-0.013,-0.042,-0.077,-0.002
-0.063,-0.058,0.005,0.06,-0.034,-0.026,-0.013,0.014,-0.009,-0.034,-0.072,0.004
-0.061,-0.019,0.042,0.04,-0.051,0.012,-0.009,0.026,-0.004,-0.026,-0.065,0.011
-0.043,0.025,0.068,0.008,-0.055,0.046,0.009,0.04,0.002,-0.018,-0.06,0.018
-0.033,0.033,0.066,0.0,-0.05,0.049,0.005,0.049,0.012,-0.012,-0.055,0.023
-0.034,0.016,0.05,0.009,-0.042,0.033,-0.025,0.037,0.026,0.002,-0.049,0.04
0.0,-0.001,-0.001,0.001,0.0,-0.001,-0.046,0.011,0.02,0.002,-0.052,0.045
-0.002,-0.023,-0.021,0.013,0.01,-0.022,-0.06,-0.018,-0.004,-0.017,-0.045,0.038
-0.025,-0.05,-0.025,0.037,0.001,-0.037,-0.058,-0.015,-0.039,-0.047,-0.066,0.031
-0.06,-0.068,-0.008,0.064,-0.026,-0.038,-0.057,-0.011,-0.022,-0.049,-0.078,0.025
-0.09,-0.096,-0.006,0.093,-0.042,-0.051,-0.048,-0.02,-0.03,-0.062,-0.083,0.011
-0.064,-0.078,-0.013,0.071,-0.025,-0.045,-0.056,0.005,-0.01,-0.048,-0.077,0.008
-0.072,-0.08,-0.008,0.076,-0.032,-0.044,-0.037,-0.036,-0.011,-0.061,-0.084,-0.006
-0.063,-0.126,-0.063,0.095,0.0,-0.094,0.007,0.126,-0.007,-0.076,-0.117,-0.033
-0.076,-0.122,-0.045,0.099,-0.015,-0.084,0.149,0.07,0.033,-0.046,-0.119,-0.058
0.174,0.369,0.195,-0.272,-0.011,0.282,-0.339,-0.481,0.405,0.37,0.293,0.292
0.649,1.134,0.485,-0.892,0.082,0.81,-1.385,-0.733,1.305,1.213,1.091,0.946
0.413,0.763,0.35,-0.588,0.031,0.556,-1.146,-0.646,0.758,0.814,0.818,0.759
0.007,0.047,0.04,-0.027,-0.017,0.043,-0.263,-0.293,-0.347,-0.135,-0.002,0.163
-0.007,-0.011,-0.004,0.009,-0.002,-0.008,-0.024,0.04,-0.204,-0.165,-0.101,0.057
-0.068,-0.076,-0.008,0.072,-0.03,-0.042,0.036,0.064,-0.152,-0.155,-0.121,0.027
-0.07,-0.091,-0.021,0.081,-0.024,-0.055,0.051,0.062,-0.147,-0.154,-0.136,0.017
-0.063,-0.092,-0.029,0.078,-0.016,-0.06,0.043,0.058,-0.096,-0.124,-0.115,0.021
-0.052,-0.101,-0.049,0.077,-0.001,-0.074,0.04,0.054,-0.113,-0.13,-0.124,0.011
-0.038,-0.084,-0.046,0.062,0.004,-0.064,0.028,0.052,-0.069,-0.1,-0.102,0.015
-0.056,-0.095,-0.04,0.076,-0.008,-0.067,0.027,0.05,-0.075,-0.104,-0.108,0.006
-0.044,-0.079,-0.035,0.061,-0.004,-0.057,0.016,0.057,-0.035,-0.079,-0.093,0.016
-0.067,-0.094,-0.027,0.08,-0.02,-0.06,0.016,0.053,-0.041,-0.076,-0.094,0.015
-0.067,-0.098,-0.031,0.083,-0.017,-0.064,0.015,0.064,-0.027,-0.061,-0.085,0.019
-0.048,-0.094,-0.046,0.071,-0.001,-0.07,0.013,0.071,-0.022,-0.053,-0.08,0.022
-0.05,-0.089,-0.04,0.07,-0.005,-0.065,0.01,0.077,-0.017,-0.043,-0.076,0.024
-0.046,-0.081,-0.035,0.064,-0.005,-0.058,0.01,0.083,-0.004,-0.03,-0.063,0.027
-0.047,-0.079,-0.032,0.063,-0.007,-0.055,0.007,0.086,0.004,-0.021,-0.051,0.032
-0.043,-0.068,-0.025,0.056,-0.009,-0.046,0.004,0.103,0.022,-0.006,-0.035,0.04
-0.019,-0.048,-0.029,0.034,0.005,-0.038,0.006,0.112,0.042,0.006,-0.02,0.046
0.007,-0.022,-0.029,0.008,0.019,-0.026,0.005,0.136,0.068,0.029,0.004,0.059
0.023,-0.001,-0.024,-0.011,0.024,-0.012,0.006,0.17,0.094,0.052,0.026,0.076
0.042,0.023,-0.019,-0.032,0.03,0.002,0.005,0.201,0.134,0.089,0.06,0.097
0.088,0.075,-0.013,-0.081,0.05,0.03,-0.005,0.247,0.186,0.148,0.122,0.141
0.127,0.12,-0.007,-0.123,0.067,0.056,-0.014,0.278,0.24,0.205,0.178,0.186
0.169,0.17,0.001,-0.17,0.084,0.086,-0.028,0.29,0.294,0.266,0.239,0.222
0.221,0.219,-0.002,-0.22,0.111,0.109,-0.036,0.285,0.329,0.319,0.297,0.266
0.243,0.246,0.003,-0.244,0.12,0.124,-0.032,0.282,0.329,0.341,0.319,0.29
0.232,0.26,0.028,-0.247,0.102,0.144,-0.026,0.271,0.321,0.333,0.319,0.283
0.197,0.241,0.044,-0.219,0.076,0.142,-0.008,0.212,0.296,0.294,0.279,0.252
0.141,0.18,0.039,-0.16,0.051,0.109,0.029,0.138,0.219,0.21,0.199,0.205
0.071,0.104,0.033,-0.088,0.018,0.068,0.067,0.082,0.134,0.119,0.114,0.149
0.018,0.046,0.028,-0.032,-0.005,0.037,0.069,0.032,0.068,0.052,0.036,0.096
-0.016,0.006,0.022,0.005,-0.019,0.014,0.057,0.002,0.02,0.003,-0.011,0.062
-0.042,-0.024,0.018,0.033,-0.029,-0.003,0.051,-0.009,-0.006,-0.031,-0.044,0.044
-0.057,-0.046,0.011,0.052,-0.034,-0.017,0.04,-0.024,-0.018,-0.048,-0.064,0.036
-0.058,-0.053,0.006,0.055,-0.032,-0.023,0.033,-0.027,-0.02,-0.05,-0.064,0.029
-0.057,-0.057,0.0,0.057,-0.028,-0.028,0.022,-0.025,-0.02,-0.05,-0.07,0.023
-0.066,-0.06,0.006,0.062,-0.036,-0.027,0.014,-0.025,-0.02,-0.05,-0.067,0.015
-0.08,-0.056,0.024,0.067,-0.051,-0.016,0.005,-0.025,-0.02,-0.05,-0.062,0.011
-0.084,-0.053,0.031,0.068,-0.057,-0.011,-0.004,-0.025,-0.021,-0.05,-0.06,0.014
-0.073,-0.05,0.023,0.061,-0.048,-0.014,-0.001,-0.026,-0.018,-0.05,-0.055,0.017
-0.067,-0.047,0.02,0.057,-0.043,-0.013,0.0,-0.013,-0.011,-0.045,-0.052,0.019
-0.06,-0.045,0.015,0.052,-0.037,-0.015,0.0,0.003,-0.004,-0.037,-0.048,0.023
-0.052,-0.042,0.01,0.047,-0.031,-0.016,0.0,0.006,0.002,-0.031,-0.045,0.025
-0.061,-0.04,0.021,0.05,-0.041,-0.009,0.0,0.01,0.01,-0.024,-0.045,0.025
-0.061,-0.037,0.025,0.049,-0.042,-0.006,-0.002,0.013,0.014,-0.017,-0.043,0.025
-0.051,-0.034,0.016,0.042,-0.033,-0.009,-0.006,0.018,0.01,-0.015,-0.04,0.025
-0.044,-0.031,0.013,0.037,-0.028,-0.009,-0.004,0.02,0.01,-0.015,-0.04,0.025
-0.035,-0.029,0.006,0.032,-0.021,-0.011,-0.005,0.015,0.009,-0.015,-0.044,0.025
-0.039,-0.038,0.001,0.038,-0.019,-0.019,-0.005,0.012,0.004,-0.015,-0.046,0.025
-0.054,-0.044,0.011,0.049,-0.032,-0.016,-0.006,0.008,0.006,-0.015,-0.045,0.02
-0.069,-0.053,0.016,0.061,-0.042,-0.019,-0.01,0.004,0.002,-0.022,-0.045,0.02
-0.069,-0.062,0.008,0.065,-0.038,-0.027,-0.01,0.001,-0.001,-0.029,-0.045,0.019
-0.064,-0.059,0.005,0.061,-0.035,-0.027,-0.014,-0.002,0.0,-0.03,-0.046,0.015
-0.06,-0.06,0.0,0.06,-0.03,-0.03,-0.015,-0.007,-0.004,-0.03,-0.05,0.015
-0.054,-0.06,-0.006,0.058,-0.024,-0.032,-0.017,-0.013,-0.005,-0.03,-0.05,0.015
-0.066,-0.06,0.006,0.063,-0.036,-0.026,-0.023,-0.016,-0.005,-0.03,-0.05,0.015
-0.073,-0.064,0.009,0.068,-0.041,-0.027,-0.027,-0.021,-0.01,-0.029,-0.05,0.015
-0.065,-0.065,0.0,0.065,-0.032,-0.032,-0.03,-0.025,-0.01,-0.033,-0.05,0.015
-0.06,-0.065,-0.005,0.062,-0.027,-0.035,-0.03,-0.025,-0.01,-0.035,-0.047,0.015
-0.052,-0.065,-0.013,0.059,-0.019,-0.039,-0.03,-0.025,-0.01,-0.035,-0.042,0.015
-0.046,-0.065,-0.018,0.056,-0.013,-0.041,-0.03,-0.025,-0.01,-0.035,-0.04,0.02
-0.045,-0.066,-0.021,0.056,-0.011,-0.043,-0.03,-0.025,-0.01,-0.035,-0.035,0.02
-0.061,-0.07,-0.009,0.066,-0.026,-0.039,-0.03,-0.026,-0.01,-0.034,-0.032,0.021
-0.081,-0.07,0.011,0.075,-0.046,-0.029,-0.03,-0.022,-0.01,-0.031,-0.028,0.025
-0.076,-0.07,0.006,0.073,-0.041,-0.032,-0.03,-0.02,-0.01,-0.03,-0.025,0.025
-0.065,-0.07,-0.005,0.068,-0.03,-0.037,-0.03,-0.02,-0.01,-0.03,-0.025,0.023
-0.059,-0.07,-0.011,0.064,-0.024,-0.04,-0.03,-0.02,-0.01,-0.031,-0.025,0.018
-0.049,-0.074,-0.024,0.062,-0.012,-0.049,-0.03,-0.02,-0.003,-0.028,-0.025,0.015
-0.062,-0.075,-0.013,0.069,-0.024,-0.044,-0.03,-0.02,-0.019,-0.041,-0.025,0.012
-0.085,-0.075,0.01,0.08,-0.047,-0.032,-0.025,-0.025,-0.032,-0.051,-0.028,0.007
-0.083,-0.075,0.008,0.079,-0.045,-0.033,-0.025,-0.025,-0.024,-0.043,-0.03,0.004
-0.077,-0.075,0.002,0.075,-0.039,-0.036,-0.025,-0.026,-0.023,-0.04,-0.03,0.001
-0.074,-0.076,-0.002,0.075,-0.035,-0.039,-0.025,-0.03,-0.018,-0.035,-0.03,0.0
-0.071,-0.08,-0.009,0.076,-0.031,-0.045,-0.025,-0.03,-0.015,-0.03,-0.03,0.0
-0.066,-0.08,-0.014,0.073,-0.026,-0.046,-0.027,-0.028,-0.019,-0.03,-0.03,0.0
-0.063,-0.08,-0.018,0.072,-0.023,-0.049,-0.034,-0.024,-0.024,-0.03,-0.03,0.0
-0.054,-0.08,-0.026,0.067,-0.014,-0.053,-0.031,-0.025,-0.027,-0.029,-0.03,0.002
-0.043,-0.08,-0.036,0.062,-0.003,-0.058,-0.03,-0.021,-0.033,-0.032,-0.03,0.006
-0.063,-0.092,-0.03,0.077,-0.016,-0.061,-0.03,-0.02,-0.034,-0.036,-0.03,0.005
-0.067,-0.095,-0.028,0.081,-0.019,-0.061,-0.03,-0.02,-0.029,-0.035,-0.03,0.005
-0.065,-0.089,-0.024,0.078,-0.021,-0.056,-0.03,-0.015,-0.026,-0.034,-0.026,0.01
-0.07,-0.087,-0.017,0.078,-0.026,-0.052,-0.03,-0.016,-0.023,-0.031,-0.025,0.01
-0.047,-0.082,-0.035,0.065,-0.006,-0.058,-0.03,-0.013,-0.018,-0.029,-0.025,0.011
-0.045,-0.08,-0.034,0.063,-0.006,-0.057,-0.029,-0.01,-0.015,-0.032,-0.021,0.015
-0.044,-0.075,-0.031,0.06,-0.006,-0.053,-0.031,-0.009,-0.011,-0.035,-0.02,0.015
-0.034,-0.075,-0.041,0.055,0.004,-0.058,-0.028,-0.014,-0.01,-0.035,-0.02,0.015
-0.045,-0.074,-0.029,0.06,-0.008,-0.051,-0.037,-0.028,-0.01,-0.035,-0.02,0.015
-0.044,-0.07,-0.025,0.057,-0.009,-0.047,-0.047,-0.031,-0.01,-0.035,-0.02,0.015
-0.053,-0.07,-0.017,0.062,-0.018,-0.044,-0.044,-0.033,-0.011,-0.035,-0.021,0.015
-0.058,-0.068,-0.01,0.063,-0.024,-0.038,-0.045,-0.036,-0.009,-0.032,-0.019,0.015
-0.032,-0.065,-0.032,0.048,0.001,-0.048,-0.044,-0.039,-0.005,-0.03,-0.029,0.015
-0.021,-0.062,-0.042,0.042,0.011,-0.052,-0.045,-0.04,-0.003,-0.03,-0.034,0.02
-0.035,-0.059,-0.024,0.047,-0.006,-0.041,-0.04,-0.033,0.0,-0.03,-0.025,0.02
-0.041,-0.056,-0.015,0.049,-0.013,-0.035,-0.032,-0.025,0.003,-0.03,-0.019,0.021
-0.027,-0.054,-0.027,0.04,0.001,-0.04,-0.026,-0.02,0.006,-0.029,-0.013,0.026
-0.028,-0.038,-0.009,0.033,-0.009,-0.023,-0.019,-0.009,0.008,-0.014,-0.004,0.023
-0.03,-0.002,0.028,0.016,-0.029,0.013,-0.008,0.014,0.025,0.002,0.011,0.033
-0.022,0.027,0.049,-0.002,-0.036,0.037,0.007,0.03,0.039,0.008,0.022,0.045
-0.014,0.04,0.054,-0.014,-0.034,0.047,-0.002,0.025,0.036,0.022,0.036,0.054
0.013,0.025,0.012,-0.019,0.0,0.018,-0.026,0.009,0.022,0.025,0.035,0.066
0.022,-0.006,-0.028,-0.008,0.025,-0.017,-0.049,0.004,0.018,0.005,0.026,0.059
0.008,-0.032,-0.04,0.013,0.024,-0.036,-0.048,-0.029,0.008,-0.022,0.013,0.044
-0.014,-0.063,-0.049,0.039,0.018,-0.056,-0.055,-0.024,0.005,-0.024,-0.008,0.035
-0.034,-0.08,-0.046,0.058,0.006,-0.063,-0.045,-0.035,0.003,-0.033,-0.023,0.025
-0.033,-0.075,-0.042,0.054,0.005,-0.058,-0.054,-0.016,-0.01,-0.051,-0.027,0.015
-0.038,-0.072,-0.035,0.055,-0.001,-0.053,-0.048,-0.029,0.002,-0.033,-0.022,0.012
-0.049,-0.093,-0.045,0.072,-0.002,-0.069,-0.026,0.006,-0.031,-0.057,-0.045,-0.017
-0.06,-0.129,-0.069,0.094,0.005,-0.098,0.085,0.188,0.017,-0.062,-0.062,-0.06
0.012,0.033,0.021,-0.022,-0.005,0.027,0.068,-0.198,0.14,0.071,0.056,0.052
0.486,0.798,0.312,-0.642,0.086,0.555,-0.87,-0.691,0.803,0.815,0.797,0.676
0.703,1.085,0.381,-0.894,0.161,0.733,-1.381,-0.677,1.09,1.182,1.212,1.028
0.226,0.332,0.107,-0.279,0.059,0.219,-0.597,-0.45,0.08,0.27,0.42,0.453
-0.019,-0.018,0.001,0.019,-0.01,-0.009,-0.07,-0.076,-0.273,-0.184,-0.047,0.073
-0.01,-0.023,-0.013,0.017,0.001,-0.018,0.026,0.08,-0.082,-0.095,-0.028,0.057
-0.037,-0.097,-0.06,0.067,0.012,-0.078,0.058,0.063,-0.133,-0.142,-0.092,0.007
-0.031,-0.083,-0.052,0.057,0.011,-0.067,0.039,0.071,-0.069,-0.101,-0.063,0.021
-0.045,-0.103,-0.057,0.075,0.006,-0.08,0.049,0.06,-0.087,-0.118,-0.076,0.004
-0.039,-0.091,-0.052,0.066,0.007,-0.071,0.036,0.063,-0.059,-0.097,-0.065,0.005
-0.045,-0.094,-0.05,0.069,0.003,-0.072,0.04,0.058,-0.052,-0.087,-0.063,-0.003
-0.039,-0.09,-0.051,0.064,0.006,-0.07,0.034,0.066,-0.036,-0.069,-0.053,-0.004
-0.035,-0.089,-0.054,0.062,0.01,-0.071,0.033,0.065,-0.019,-0.051,-0.033,0.002
-0.032,-0.088,-0.056,0.061,0.012,-0.072,0.03,0.066,-0.02,-0.051,-0.029,-0.003
-0.023,-0.077,-0.054,0.051,0.016,-0.065,0.029,0.071,-0.003,-0.038,-0.017,0.006
-0.022,-0.077,-0.056,0.05,0.017,-0.066,0.028,0.069,-0.003,-0.036,-0.017,0.004
-0.013,-0.067,-0.055,0.041,0.021,-0.061,0.023,0.072,0.011,-0.026,-0.008,0.006
-0.01,-0.065,-0.055,0.038,0.023,-0.06,0.026,0.068,0.02,-0.023,-0.004,0.012
-0.009,-0.058,-0.049,0.034,0.02,-0.054,0.029,0.084,0.037,-0.012,0.001,0.021
-0.003,-0.045,-0.042,0.024,0.02,-0.043,0.03,0.106,0.048,-0.002,0.017,0.03
0.004,-0.033,-0.036,0.015,0.02,-0.034,0.03,0.116,0.067,0.017,0.036,0.037
0.017,-0.012,-0.029,-0.002,0.023,-0.02,0.03,0.144,0.093,0.045,0.06,0.062
0.037,0.014,-0.023,-0.025,0.03,-0.005,0.031,0.171,0.117,0.075,0.088,0.085
0.073,0.057,-0.016,-0.064,0.044,0.02,0.027,0.198,0.153,0.115,0.125,0.111
0.106,0.101,-0.005,-0.104,0.055,0.048,0.011,0.23,0.197,0.166,0.181,0.148
0.147,0.155,0.008,-0.151,0.069,0.081,-0.002,0.25,0.248,0.224,0.24,0.197
0.195,0.216,0.02,-0.206,0.087,0.118,-0.011,0.25,0.295,0.277,0.297,0.243
0.225,0.261,0.036,-0.243,0.094,0.148,-0.014,0.243,0.321,0.323,0.342,0.274
0.24,0.283,0.042,-0.262,0.099,0.162,-0.02,0.243,0.321,0.335,0.374,0.297
0.225,0.264,0.04,-0.244,0.092,0.152,-0.015,0.222,0.309,0.323,0.372,0.29
0.209,0.249,0.04,-0.229,0.084,0.145,0.016,0.178,0.283,0.292,0.324,0.263
0.168,0.205,0.036,-0.187,0.066,0.12,0.041,0.125,0.225,0.219,0.248,0.21
0.085,0.119,0.035,-0.103,0.025,0.077,0.064,0.079,0.159,0.138,0.163,0.146
0.024,0.059,0.035,-0.042,-0.006,0.047,0.071,0.04,0.107,0.08,0.095,0.095
-0.016,0.01,0.026,0.003,-0.021,0.018,0.063,0.001,0.057,0.03,0.048,0.046
-0.036,-0.023,0.013,0.029,-0.024,-0.005,0.058,-0.014,0.033,-0.01,0.018,0.03
-0.04,-0.038,0.003,0.039,-0.021,-0.017,0.053,-0.017,0.031,-0.027,0.007,0.034
-0.036,-0.037,0.0,0.036,-0.017,-0.018,0.044,-0.023,0.025,-0.033,0.003,0.027
-0.037,-0.037,0.0,0.037,-0.018,-0.018,0.022,-0.028,0.022,-0.033,-0.003,0.022
-0.054,-0.054,0.0,0.054,-0.027,-0.027,0.009,-0.035,0.016,-0.029,-0.009,0.016
-0.054,-0.053,0.0,0.053,-0.027,-0.026,0.011,-0.031,0.017,-0.03,-0.014,0.011
-0.048,-0.048,0.0,0.048,-0.024,-0.024,0.008,-0.022,0.022,-0.03,-0.012,0.014
-0.042,-0.047,-0.005,0.045,-0.018,-0.026,0.005,-0.014,0.025,-0.03,-0.006,0.02
-0.035,-0.04,-0.005,0.038,-0.015,-0.022,0.004,-0.006,0.028,-0.03,-0.002,0.026
-0.035,-0.042,-0.006,0.039,-0.015,-0.023,0.008,0.001,0.033,-0.025,0.002,0.029
-0.035,-0.045,-0.01,0.04,-0.012,-0.027,0.01,0.005,0.035,-0.02,0.008,0.025
-0.036,-0.045,-0.009,0.04,-0.013,-0.027,0.01,0.004,0.03,-0.015,0.009,0.025
-0.032,-0.045,-0.013,0.039,-0.009,-0.029,0.014,0.007,0.026,-0.012,0.005,0.022
-0.03,-0.045,-0.015,0.038,-0.007,-0.03,0.016,0.01,0.024,-0.006,0.002,0.019
-0.03,-0.045,-0.015,0.038,-0.007,-0.03,0.014,0.01,0.019,-0.007,0.0,0.02
-0.034,-0.049,-0.015,0.042,-0.009,-0.032,0.01,0.007,0.016,-0.018,-0.004,0.016
-0.035,-0.05,-0.015,0.043,-0.01,-0.032,0.01,0.001,0.012,-0.026,-0.005,0.014
-0.035,-0.05,-0.015,0.043,-0.01,-0.032,0.009,-0.003,0.008,-0.035,-0.008,0.015
-0.039,-0.05,-0.01,0.045,-0.015,-0.03,0.005,-0.008,0.005,-0.043,-0.014,0.015
-0.041,-0.051,-0.01,0.046,-0.016,-0.03,0.005,-0.012,0.002,-0.041,-0.017,0.015
-0.045,-0.056,-0.01,0.051,-0.017,-0.032,0.003,-0.017,-0.003,-0.038,-0.023,0.014
-0.05,-0.059,-0.01,0.054,-0.02,-0.034,-0.001,-0.02,-0.005,-0.035,-0.024,0.01
-0.053,-0.064,-0.011,0.058,-0.021,-0.037,-0.003,-0.02,0.0,-0.033,-0.019,0.011
-0.058,-0.065,-0.007,0.062,-0.025,-0.036,-0.006,-0.022,0.0,-0.029,-0.021,0.007
-0.06,-0.065,-0.005,0.063,-0.027,-0.035,-0.009,-0.025,0.0,-0.033,-0.017,0.005
-0.06,-0.065,-0.005,0.063,-0.027,-0.035,-0.01,-0.025,-0.002,-0.042,-0.015,0.005
-0.06,-0.065,-0.005,0.063,-0.027,-0.035,-0.01,-0.021,-0.006,-0.045,-0.013,0.002
-0.059,-0.064,-0.005,0.062,-0.026,-0.034,-0.01,-0.02,-0.004,-0.045,-0.028,-0.001
-0.055,-0.06,-0.005,0.058,-0.025,-0.032,-0.01,-0.02,-0.009,-0.045,-0.046,-0.004
-0.05,-0.06,-0.01,0.055,-0.02,-0.035,-0.01,-0.02,-0.01,-0.045,-0.044,-0.007
-0.043,-0.058,-0.015,0.051,-0.014,-0.036,-0.01,-0.02,-0.01,-0.045,-0.045,-0.009
-0.036,-0.054,-0.018,0.045,-0.008,-0.036,-0.012,-0.019,-0.015,-0.047,-0.045,-0.012
-0.032,-0.055,-0.023,0.044,-0.004,-0.039,-0.016,-0.015,-0.015,-0.051,-0.045,-0.015
-0.038,-0.063,-0.025,0.051,-0.006,-0.044,-0.015,-0.014,-0.015,-0.05,-0.045,-0.015
-0.042,-0.067,-0.025,0.055,-0.008,-0.046,-0.015,-0.011,-0.015,-0.05,-0.045,-0.017
-0.037,-0.062,-0.025,0.05,-0.006,-0.043,-0.015,-0.009,-0.014,-0.05,-0.045,-0.02
-0.035,-0.06,-0.025,0.048,-0.005,-0.042,-0.015,-0.021,-0.018,-0.05,-0.045,-0.02
-0.033,-0.057,-0.024,0.045,-0.004,-0.04,-0.02,-0.031,-0.02,-0.055,-0.045,-0.023
-0.033,-0.054,-0.021,0.043,-0.005,-0.037,-0.02,-0.03,-0.02,-0.055,-0.045,-0.026
-0.043,-0.06,-0.017,0.051,-0.012,-0.039,-0.02,-0.03,-0.023,-0.056,-0.049,-0.024
-0.049,-0.066,-0.016,0.058,-0.016,-0.041,-0.02,-0.03,-0.026,-0.06,-0.05,-0.027
-0.053,-0.064,-0.011,0.059,-0.021,-0.037,-0.02,-0.03,-0.024,-0.06,-0.05,-0.034
-0.056,-0.068,-0.011,0.062,-0.022,-0.039,-0.02,-0.026,-0.02,-0.057,-0.05,-0.035
-0.064,-0.07,-0.006,0.068,-0.029,-0.038,-0.02,-0.025,-0.02,-0.055,-0.05,-0.035
-0.065,-0.07,-0.004,0.068,-0.03,-0.037,-0.02,-0.025,-0.019,-0.055,-0.05,-0.035
-0.046,-0.074,-0.028,0.06,-0.008,-0.05,-0.02,-0.025,-0.015,-0.051,-0.05,-0.035
-0.048,-0.075,-0.027,0.062,-0.01,-0.051,-0.02,-0.025,-0.015,-0.05,-0.05,-0.036
-0.054,-0.075,-0.021,0.064,-0.016,-0.047,-0.019,-0.026,-0.017,-0.05,-0.05,-0.042
-0.058,-0.075,-0.018,0.067,-0.02,-0.046,-0.016,-0.03,-0.027,-0.05,-0.05,-0.049
-0.061,-0.074,-0.013,0.068,-0.023,-0.044,-0.013,-0.03,-0.033,-0.05,-0.05,-0.054
-0.073,-0.076,-0.004,0.074,-0.034,-0.04,-0.011,-0.03,-0.031,-0.05,-0.054,-0.055
-0.092,-0.08,0.012,0.086,-0.052,-0.034,-0.007,-0.03,-0.028,-0.05,-0.055,-0.055
-0.086,-0.08,0.006,0.082,-0.046,-0.037,-0.005,-0.03,-0.026,-0.05,-0.055,-0.055
-0.084,-0.08,0.004,0.081,-0.044,-0.037,-0.005,-0.027,-0.022,-0.052,-0.06,-0.055
-0.079,-0.08,-0.001,0.08,-0.039,-0.041,-0.005,-0.024,-0.02,-0.055,-0.06,-0.056
-0.077,-0.08,-0.003,0.079,-0.037,-0.041,-0.005,-0.025,-0.019,-0.055,-0.06,-0.06
-0.068,-0.077,-0.01,0.073,-0.029,-0.043,-0.004,-0.024,-0.022,-0.055,-0.06,-0.06
-0.046,-0.071,-0.025,0.058,-0.01,-0.047,-0.005,-0.025,-0.035,-0.055,-0.06,-0.057
-0.047,-0.067,-0.02,0.057,-0.013,-0.043,-0.004,-0.024,-0.032,-0.055,-0.06,-0.054
-0.047,-0.062,-0.015,0.055,-0.016,-0.038,-0.001,-0.018,-0.026,-0.057,-0.06,-0.055
-0.052,-0.058,-0.006,0.055,-0.022,-0.032,0.001,-0.012,-0.023,-0.053,-0.06,-0.055
-0.04,-0.052,-0.012,0.046,-0.013,-0.032,-0.001,-0.007,-0.017,-0.046,-0.055,-0.055
-0.026,-0.025,0.001,0.026,-0.013,-0.012,0.006,-0.001,-0.014,-0.039,-0.045,-0.054
-0.035,0.008,0.043,0.013,-0.039,0.025,0.041,0.007,-0.009,-0.032,-0.034,-0.049
-0.033,0.025,0.058,0.004,-0.046,0.041,0.028,0.026,-0.011,-0.034,-0.028,-0.051
-0.035,0.022,0.057,0.006,-0.046,0.039,-0.01,0.022,-0.004,-0.034,-0.028,-0.049
-0.024,0.013,0.036,0.005,-0.03,0.025,-0.01,0.007,-0.007,-0.036,-0.032,-0.052
0.009,-0.003,-0.012,-0.003,0.011,-0.008,-0.008,0.005,-0.009,-0.034,-0.031,-0.048
0.002,-0.036,-0.038,0.017,0.02,-0.036,0.004,-0.011,-0.029,-0.044,-0.044,-0.055
-0.025,-0.051,-0.026,0.038,0.0,-0.038,0.004,-0.005,-0.039,-0.053,-0.057,-0.071
-0.034,-0.065,-0.031,0.049,-0.001,-0.048,0.018,-0.028,-0.044,-0.072,-0.067,-0.082
-0.036,-0.067,-0.031,0.052,-0.003,-0.049,0.007,-0.016,-0.049,-0.071,-0.065,-0.08
-0.052,-0.073,-0.021,0.063,-0.015,-0.047,0.008,-0.04,-0.031,-0.072,-0.062,-0.076
-0.065,-0.108,-0.043,0.087,-0.01,-0.076,0.016,0.044,-0.039,-0.087,-0.095,-0.106
-0.096,-0.135,-0.038,0.116,-0.029,-0.086,0.145,0.178,0.005,-0.059,-0.116,-0.138
0.027,0.121,0.094,-0.074,-0.034,0.108,0.061,-0.253,0.173,0.118,0.074,0.017
0.512,0.904,0.393,-0.708,0.059,0.648,-0.886,-0.693,0.909,0.914,0.856,0.667
0.588,0.982,0.394,-0.785,0.097,0.688,-1.218,-0.7,0.947,1.043,1.046,0.858
0.099,0.205,0.106,-0.152,-0.004,0.155,-0.427,-0.42,-0.114,0.08,0.199,0.224
-0.078,-0.039,0.039,0.058,-0.058,0.0,0.006,-0.023,-0.286,-0.193,-0.117,-0.034
-0.06,-0.039,0.021,0.049,-0.041,-0.008,0.088,0.083,-0.142,-0.124,-0.093,-0.045
-0.088,-0.09,-0.002,0.089,-0.042,-0.046,0.116,0.066,-0.188,-0.162,-0.136,-0.111
-0.063,-0.08,-0.016,0.072,-0.023,-0.048,0.118,0.07,-0.111,-0.121,-0.102,-0.101
-0.048,-0.098,-0.05,0.073,0.001,-0.073,0.125,0.059,-0.135,-0.14,-0.118,-0.116
-0.046,-0.085,-0.039,0.065,-0.004,-0.061,0.107,0.059,-0.101,-0.109,-0.097,-0.106
-0.055,-0.094,-0.038,0.075,-0.009,-0.066,0.109,0.053,-0.102,-0.105,-0.1,-0.112
-0.057,-0.088,-0.031,0.073,-0.013,-0.059,0.097,0.055,-0.076,-0.09,-0.092,-0.11
-0.061,-0.091,-0.03,0.076,-0.016,-0.06,0.095,0.06,-0.066,-0.089,-0.089,-0.109
-0.074,-0.09,-0.017,0.082,-0.028,-0.053,0.089,0.081,-0.068,-0.087,-0.088,-0.106
-0.051,-0.085,-0.034,0.068,-0.008,-0.06,0.09,0.088,-0.056,-0.081,-0.082,-0.104
-0.023,-0.08,-0.057,0.052,0.018,-0.068,0.088,0.088,-0.059,-0.074,-0.082,-0.105
-0.027,-0.072,-0.044,0.05,0.009,-0.058,0.084,0.096,-0.045,-0.058,-0.078,-0.098
-0.014,-0.067,-0.052,0.04,0.019,-0.059,0.085,0.092,-0.035,-0.052,-0.071,-0.101
-0.009,-0.058,-0.049,0.034,0.02,-0.053,0.088,0.099,-0.018,-0.038,-0.054,-0.097
-0.015,-0.054,-0.039,0.035,0.012,-0.047,0.091,0.114,-0.012,-0.028,-0.042,-0.089
-0.022,-0.041,-0.019,0.032,-0.001,-0.03,0.089,0.128,0.009,-0.006,-0.028,-0.08
-0.036,-0.026,0.011,0.031,-0.023,-0.007,0.095,0.149,0.041,0.02,-0.004,-0.065
0.029,0.016,-0.013,-0.023,0.021,0.002,0.089,0.182,0.065,0.055,0.03,-0.039
0.09,0.059,-0.031,-0.074,0.06,0.014,0.076,0.22,0.107,0.097,0.064,-0.012
0.105,0.1,-0.005,-0.103,0.055,0.047,0.065,0.245,0.152,0.146,0.118,0.027
0.139,0.167,0.028,-0.153,0.055,0.098,0.059,0.271,0.206,0.212,0.185,0.077
0.155,0.208,0.053,-0.181,0.05,0.131,0.061,0.269,0.252,0.263,0.237,0.116
0.194,0.241,0.047,-0.217,0.073,0.144,0.059,0.259,0.267,0.292,0.272,0.149
0.216,0.271,0.055,-0.244,0.081,0.162,0.062,0.254,0.273,0.308,0.279,0.157
0.181,0.264,0.082,-0.223,0.049,0.172,0.058,0.22,0.264,0.3,0.259,0.153
0.145,0.226,0.082,-0.186,0.031,0.154,0.086,0.185,0.234,0.255,0.229,0.128
0.1,0.173,0.073,-0.137,0.013,0.123,0.132,0.144,0.154,0.173,0.159,0.061
0.044,0.113,0.07,-0.079,-0.013,0.091,0.153,0.097,0.07,0.087,0.063,0.0
-0.007,0.056,0.063,-0.025,-0.035,0.059,0.165,0.051,0.017,0.019,0.001,-0.049
-0.049,0.012,0.061,0.019,-0.055,0.036,0.151,0.011,-0.031,-0.033,-0.055,-0.095
-0.075,-0.017,0.057,0.046,-0.066,0.02,0.139,-0.004,-0.059,-0.054,-0.081,-0.116
-0.088,-0.033,0.055,0.06,-0.071,0.011,0.132,-0.007,-0.074,-0.064,-0.085,-0.123
-0.097,-0.041,0.055,0.069,-0.076,0.007,0.121,-0.006,-0.073,-0.064,-0.094,-0.126
-0.098,-0.043,0.055,0.07,-0.076,0.005,0.114,-0.004,-0.065,-0.058,-0.095,-0.123
-0.095,-0.039,0.056,0.067,-0.075,0.008,0.105,-0.006,-0.064,-0.057,-0.094,-0.127
-0.091,-0.037,0.053,0.063,-0.072,0.008,0.101,-0.004,-0.056,-0.05,-0.088,-0.139
-0.094,-0.033,0.061,0.063,-0.077,0.014,0.094,-0.006,-0.057,-0.051,-0.086,-0.139
-0.097,-0.032,0.066,0.064,-0.081,0.017,0.09,0.0,-0.07,-0.051,-0.08,-0.133
-0.085,-0.028,0.057,0.056,-0.071,0.014,0.082,0.009,-0.068,-0.048,-0.081,-0.132
-0.09,-0.028,0.062,0.059,-0.076,0.017,0.082,0.021,-0.063,-0.046,-0.09,-0.125
-0.109,-0.044,0.065,0.076,-0.087,0.01,0.102,0.042,-0.062,-0.042,-0.091,-0.129
-0.104,-0.045,0.059,0.075,-0.081,0.006,0.105,0.043,-0.055,-0.04,-0.089,-0.14
-0.094,-0.04,0.054,0.067,-0.074,0.007,0.096,0.035,-0.057,-0.042,-0.091,-0.14
-0.086,-0.039,0.046,0.062,-0.066,0.003,0.095,0.031,-0.06,-0.047,-0.089,-0.14
-0.085,-0.034,0.051,0.059,-0.067,0.008,0.087,0.025,-0.06,-0.05,-0.091,-0.14
-0.093,-0.037,0.057,0.065,-0.075,0.01,0.086,0.02,-0.072,-0.05,-0.103,-0.139
-0.092,-0.04,0.052,0.066,-0.072,0.006,0.095,0.016,-0.077,-0.05,-0.105,-0.143
-0.09,-0.04,0.05,0.065,-0.07,0.005,0.092,0.013,-0.074,-0.049,-0.107,-0.145
-0.086,-0.04,0.046,0.063,-0.066,0.003,0.086,0.01,-0.073,-0.053,-0.11,-0.146
-0.083,-0.04,0.043,0.061,-0.063,0.001,0.081,0.007,-0.068,-0.068,-0.111,-0.15
-0.079,-0.04,0.039,0.06,-0.059,-0.001,0.075,0.005,-0.073,-0.07,-0.115,-0.15
-0.076,-0.04,0.036,0.057,-0.056,-0.001,0.07,0.005,-0.084,-0.07,-0.115,-0.154
-0.071,-0.04,0.031,0.056,-0.051,-0.005,0.079,0.005,-0.086,-0.07,-0.115,-0.159
-0.067,-0.038,0.029,0.053,-0.048,-0.005,0.092,0.005,-0.084,-0.071,-0.115,-0.16
-0.082,-0.035,0.047,0.058,-0.064,0.006,0.088,0.005,-0.081,-0.075,-0.115,-0.16
-0.086,-0.035,0.051,0.061,-0.068,0.008,0.085,0.005,-0.079,-0.074,-0.111,-0.16
-0.079,-0.035,0.044,0.057,-0.061,0.005,0.082,0.005,-0.082,-0.077,-0.109,-0.16
-0.08,-0.035,0.045,0.057,-0.062,0.005,0.08,0.0,-0.085,-0.08,-0.11,-0.16
-0.074,-0.035,0.039,0.054,-0.056,0.002,0.078,0.0,-0.086,-0.08,-0.11,-0.159
-0.077,-0.039,0.039,0.058,-0.058,0.0,0.073,0.0,-0.089,-0.076,-0.11,-0.155
-0.092,-0.04,0.052,0.066,-0.072,0.005,0.07,0.0,-0.09,-0.075,-0.111,-0.155
-0.094,-0.04,0.054,0.067,-0.074,0.007,0.067,0.0,-0.09,-0.074,-0.115,-0.155
-0.088,-0.04,0.048,0.064,-0.068,0.004,0.061,-0.002,-0.09,-0.071,-0.115,-0.155
-0.087,-0.04,0.047,0.063,-0.067,0.003,0.062,-0.007,-0.09,-0.069,-0.115,-0.153
-0.079,-0.039,0.041,0.059,-0.06,0.001,0.075,-0.01,-0.09,-0.074,-0.115,-0.149
-0.076,-0.035,0.041,0.055,-0.058,0.003,0.073,-0.013,-0.09,-0.084,-0.115,-0.147
-0.084,-0.035,0.049,0.059,-0.066,0.007,0.069,-0.018,-0.09,-0.086,-0.118,-0.144
-0.085,-0.035,0.049,0.06,-0.067,0.007,0.066,-0.02,-0.09,-0.084,-0.121,-0.141
-0.086,-0.035,0.051,0.06,-0.068,0.008,0.061,-0.015,-0.09,-0.086,-0.124,-0.139
-0.083,-0.035,0.048,0.059,-0.065,0.006,0.059,-0.015,-0.09,-0.084,-0.127,-0.136
-0.09,-0.039,0.052,0.064,-0.071,0.006,0.055,-0.014,-0.09,-0.087,-0.13,-0.133
-0.106,-0.041,0.065,0.073,-0.086,0.012,0.053,-0.009,-0.09,-0.091,-0.129,-0.131
-0.105,-0.04,0.065,0.072,-0.085,0.012,0.05,-0.01,-0.087,-0.09,-0.125,-0.127
-0.104,-0.04,0.064,0.071,-0.084,0.012,0.047,-0.007,-0.082,-0.093,-0.122,-0.125
-0.1,-0.041,0.059,0.07,-0.08,0.009,0.044,-0.001,-0.08,-0.095,-0.12,-0.123
-0.099,-0.038,0.061,0.068,-0.08,0.012,0.05,0.004,-0.075,-0.095,-0.116,-0.117
-0.082,-0.025,0.057,0.053,-0.069,0.015,0.059,0.009,-0.071,-0.088,-0.116,-0.113
-0.052,0.002,0.054,0.025,-0.053,0.028,0.061,0.016,-0.069,-0.067,-0.104,-0.109
-0.051,0.037,0.088,0.007,-0.07,0.062,0.086,0.02,-0.051,-0.05,-0.078,-0.104
-0.043,0.068,0.111,-0.013,-0.077,0.09,0.095,0.031,-0.044,-0.037,-0.075,-0.101
-0.024,0.086,0.11,-0.031,-0.067,0.097,0.069,0.03,-0.044,-0.032,-0.075,-0.1
-0.015,0.068,0.082,-0.027,-0.048,0.075,0.048,0.022,-0.051,-0.043,-0.075,-0.099
-0.016,0.037,0.053,-0.011,-0.034,0.045,0.041,0.018,-0.05,-0.045,-0.074,-0.095
-0.039,0.006,0.045,0.016,-0.042,0.025,0.049,-0.009,-0.072,-0.065,-0.084,-0.094
-0.048,-0.004,0.044,0.025,-0.046,0.02,0.043,-0.011,-0.091,-0.081,-0.095,-0.101
-0.078,-0.033,0.045,0.055,-0.061,0.006,0.055,-0.045,-0.093,-0.089,-0.113,-0.114
-0.092,-0.057,0.035,0.075,-0.064,-0.011,0.046,-0.024,-0.107,-0.103,-0.127,-0.119
-0.102,-0.055,0.047,0.079,-0.074,-0.004,0.056,-0.035,-0.071,-0.089,-0.12,-0.108
-0.093,-0.078,0.015,0.085,-0.054,-0.031,0.069,0.013,-0.098,-0.115,-0.139,-0.128
-0.064,-0.087,-0.023,0.076,-0.02,-0.054,0.17,0.182,-0.04,-0.108,-0.15,-0.174
-0.005,0.098,0.103,-0.047,-0.054,0.1,0.149,-0.204,0.095,0.051,-0.009,-0.053
0.438,0.861,0.423,-0.65,0.008,0.642,-0.782,-0.724,0.83,0.81,0.712,0.545
0.591,1.1,0.509,-0.846,0.041,0.804,-1.307,-0.795,1.134,1.126,1.054,0.831
0.13,0.331,0.201,-0.231,-0.036,0.266,-0.527,-0.514,-0.04,0.169,0.279,0.28
-0.047,0.021,0.068,0.013,-0.058,0.044,0.021,-0.071,-0.398,-0.249,-0.132,-0.03
-0.051,0.014,0.065,0.018,-0.058,0.039,0.117,0.074,-0.163,-0.147,-0.109,-0.05
-0.099,-0.074,0.026,0.086,-0.062,-0.024,0.151,0.06,-0.238,-0.196,-0.163,-0.106
-0.083,-0.06,0.023,0.071,-0.053,-0.018,0.132,0.069,-0.152,-0.147,-0.13,-0.09
-0.078,-0.077,0.001,0.078,-0.04,-0.038,0.136,0.058,-0.166,-0.158,-0.143,-0.105
-0.055,-0.069,-0.014,0.062,-0.02,-0.042,0.119,0.062,-0.121,-0.127,-0.129,-0.093
-0.04,-0.077,-0.038,0.059,0.0,-0.057,0.118,0.059,-0.115,-0.125,-0.128,-0.094
-0.042,-0.075,-0.034,0.059,-0.004,-0.054,0.108,0.065,-0.106,-0.117,-0.125,-0.089
-0.05,-0.078,-0.029,0.064,-0.01,-0.054,0.105,0.065,-0.084,-0.105,-0.113,-0.083
-0.053,-0.082,-0.03,0.068,-0.011,-0.056,0.103,0.064,-0.08,-0.104,-0.107,-0.084
-0.055,-0.077,-0.022,0.067,-0.016,-0.049,0.099,0.066,-0.058,-0.087,-0.093,-0.075
-0.045,-0.072,-0.027,0.059,-0.009,-0.049,0.098,0.064,-0.056,-0.081,-0.086,-0.076
-0.022,-0.061,-0.038,0.042,0.008,-0.049,0.093,0.068,-0.04,-0.064,-0.075,-0.069
-0.02,-0.053,-0.033,0.037,0.007,-0.043,0.099,0.074,-0.034,-0.053,-0.068,-0.067
-0.021,-0.046,-0.025,0.034,0.002,-0.035,0.1,0.086,-0.017,-0.038,-0.059,-0.063
-0.018,-0.038,-0.02,0.028,0.001,-0.029,0.1,0.099,-0.001,-0.028,-0.043,-0.051
-0.015,-0.026,-0.011,0.021,-0.002,-0.018,0.105,0.113,0.017,-0.014,-0.019,-0.036
0.02,0.003,-0.017,-0.012,0.019,-0.007,0.105,0.142,0.04,0.011,0.005,-0.02
0.057,0.031,-0.026,-0.044,0.041,0.003,0.104,0.177,0.068,0.043,0.045,0.005
0.077,0.058,-0.019,-0.068,0.048,0.02,0.088,0.213,0.11,0.085,0.082,0.028
0.119,0.107,-0.012,-0.112,0.065,0.047,0.07,0.251,0.165,0.144,0.128,0.066
0.165,0.155,-0.009,-0.16,0.087,0.073,0.069,0.286,0.222,0.204,0.199,0.118
0.204,0.207,0.002,-0.205,0.101,0.104,0.063,0.297,0.271,0.265,0.256,0.158
0.249,0.25,0.001,-0.249,0.124,0.125,0.062,0.284,0.299,0.309,0.3,0.189
0.26,0.27,0.01,-0.265,0.125,0.14,0.055,0.273,0.303,0.309,0.31,0.198
0.225,0.26,0.034,-0.243,0.095,0.147,0.056,0.238,0.281,0.294,0.293,0.187
0.173,0.225,0.052,-0.199,0.06,0.139,0.093,0.177,0.235,0.242,0.248,0.163
0.107,0.174,0.067,-0.14,0.02,0.12,0.126,0.119,0.161,0.157,0.167,0.112
0.05,0.105,0.055,-0.078,-0.002,0.079,0.148,0.066,0.075,0.072,0.085,0.052
0.007,0.049,0.042,-0.028,-0.018,0.045,0.15,0.02,0.015,0.003,0.019,0.009
-0.03,0.007,0.038,0.011,-0.034,0.022,0.14,-0.016,-0.021,-0.042,-0.027,-0.017
-0.063,-0.021,0.041,0.042,-0.052,0.01,0.138,-0.034,-0.047,-0.064,-0.049,-0.033
-0.079,-0.033,0.045,0.055,-0.062,0.006,0.127,-0.035,-0.061,-0.07,-0.057,-0.048
-0.078,-0.039,0.04,0.058,-0.059,0.001,0.113,-0.035,-0.062,-0.077,-0.06,-0.05
-0.078,-0.037,0.041,0.058,-0.059,0.001,0.1,-0.035,-0.06,-0.075,-0.06,-0.05
-0.072,-0.034,0.038,0.052,-0.054,0.002,0.091,-0.035,-0.06,-0.075,-0.058,-0.05
-0.067,-0.031,0.036,0.049,-0.051,0.002,0.084,-0.034,-0.055,-0.073,-0.055,-0.05
-0.061,-0.028,0.034,0.044,-0.047,0.002,0.077,-0.029,-0.055,-0.069,-0.055,-0.05
-0.064,-0.026,0.038,0.044,-0.051,0.006,0.071,-0.026,-0.054,-0.071,-0.053,-0.045
-0.071,-0.023,0.048,0.047,-0.059,0.012,0.07,-0.02,-0.048,-0.066,-0.05,-0.045
-0.061,-0.02,0.041,0.041,-0.051,0.01,0.07,-0.01,-0.043,-0.06,-0.047,-0.045
-0.053,-0.02,0.033,0.036,-0.043,0.007,0.065,0.0,-0.037,-0.055,-0.044,-0.045
-0.047,-0.02,0.027,0.034,-0.037,0.003,0.065,0.009,-0.032,-0.049,-0.041,-0.045
-0.037,-0.02,0.017,0.028,-0.027,-0.001,0.065,0.018,-0.025,-0.044,-0.04,-0.045
-0.042,-0.02,0.022,0.031,-0.032,0.001,0.065,0.016,-0.028,-0.04,-0.045,-0.045
-0.055,-0.023,0.032,0.039,-0.043,0.004,0.065,0.007,-0.03,-0.052,-0.045,-0.045
-0.054,-0.026,0.028,0.04,-0.04,0.0,0.065,0.001,-0.034,-0.061,-0.046,-0.045
-0.055,-0.029,0.026,0.042,-0.041,-0.001,0.077,-0.007,-0.046,-0.062,-0.05,-0.045
-0.053,-0.032,0.022,0.042,-0.037,-0.005,0.081,-0.014,-0.053,-0.066,-0.05,-0.045
-0.056,-0.035,0.021,0.046,-0.038,-0.007,0.076,-0.021,-0.052,-0.065,-0.048,-0.05
-0.052,-0.038,0.014,0.045,-0.033,-0.012,0.074,-0.026,-0.05,-0.065,-0.044,-0.05
-0.031,-0.042,-0.011,0.036,-0.01,-0.026,0.071,-0.024,-0.05,-0.065,-0.045,-0.052
-0.028,-0.045,-0.017,0.037,-0.005,-0.031,0.069,-0.03,-0.047,-0.065,-0.045,-0.055
-0.033,-0.042,-0.009,0.037,-0.012,-0.025,0.066,-0.039,-0.043,-0.065,-0.045,-0.055
-0.033,-0.039,-0.006,0.036,-0.014,-0.022,0.063,-0.04,-0.048,-0.065,-0.045,-0.054
-0.034,-0.036,-0.002,0.035,-0.016,-0.019,0.061,-0.04,-0.059,-0.065,-0.04,-0.051
-0.039,-0.034,0.006,0.036,-0.022,-0.014,0.057,-0.04,-0.061,-0.065,-0.04,-0.048
-0.025,-0.03,-0.005,0.027,-0.01,-0.017,0.055,-0.04,-0.059,-0.065,-0.04,-0.045
-0.016,-0.032,-0.016,0.024,0.0,-0.024,0.052,-0.04,-0.056,-0.065,-0.04,-0.042
-0.033,-0.04,-0.007,0.037,-0.013,-0.023,0.05,-0.044,-0.054,-0.064,-0.04,-0.04
-0.039,-0.04,-0.001,0.04,-0.019,-0.02,0.05,-0.045,-0.057,-0.07,-0.043,-0.042
-0.045,-0.04,0.005,0.042,-0.025,-0.017,0.046,-0.045,-0.06,-0.078,-0.045,-0.048
-0.054,-0.04,0.013,0.047,-0.034,-0.013,0.044,-0.045,-0.06,-0.075,-0.045,-0.05
-0.051,-0.039,0.012,0.045,-0.031,-0.014,0.046,-0.045,-0.06,-0.072,-0.049,-0.05
-0.038,-0.042,-0.004,0.04,-0.017,-0.022,0.049,-0.044,-0.06,-0.07,-0.051,-0.05
-0.029,-0.045,-0.016,0.037,-0.006,-0.03,0.05,-0.04,-0.06,-0.066,-0.049,-0.05
-0.028,-0.045,-0.016,0.037,-0.005,-0.031,0.051,-0.04,-0.06,-0.065,-0.046,-0.05
-0.035,-0.047,-0.013,0.041,-0.011,-0.03,0.055,-0.04,-0.06,-0.065,-0.045,-0.054
-0.04,-0.05,-0.011,0.045,-0.014,-0.031,0.054,-0.04,-0.06,-0.065,-0.045,-0.055
-0.043,-0.05,-0.007,0.047,-0.018,-0.028,0.057,-0.04,-0.06,-0.065,-0.045,-0.055
-0.041,-0.046,-0.005,0.044,-0.017,-0.026,0.061,-0.044,-0.059,-0.065,-0.045,-0.055
-0.043,-0.044,-0.001,0.044,-0.02,-0.023,0.059,-0.045,-0.055,-0.065,-0.042,-0.055
-0.056,-0.045,0.011,0.05,-0.033,-0.017,0.061,-0.045,-0.055,-0.064,-0.04,-0.053
-0.051,-0.04,0.011,0.045,-0.031,-0.014,0.059,-0.045,-0.055,-0.06,-0.04,-0.049
-0.05,-0.041,0.009,0.045,-0.03,-0.016,0.061,-0.045,-0.055,-0.06,-0.04,-0.05
-0.049,-0.039,0.01,0.044,-0.029,-0.015,0.065,-0.044,-0.056,-0.061,-0.041,-0.05
-0.038,-0.035,0.004,0.036,-0.021,-0.016,0.065,-0.037,-0.051,-0.06,-0.04,-0.05
-0.042,-0.035,0.006,0.038,-0.024,-0.014,0.065,-0.033,-0.044,-0.061,-0.034,-0.05
-0.035,-0.034,0.001,0.035,-0.018,-0.017,0.064,-0.027,-0.041,-0.055,-0.027,-0.043
-0.025,-0.037,-0.011,0.031,-0.007,-0.024,0.066,-0.021,-0.033,-0.046,-0.021,-0.034
-0.025,-0.021,0.005,0.023,-0.015,-0.008,0.063,-0.017,-0.03,-0.038,-0.014,-0.026
-0.023,0.018,0.041,0.002,-0.032,0.029,0.086,-0.01,-0.023,-0.028,-0.007,-0.016
-0.01,0.047,0.058,-0.019,-0.034,0.053,0.1,-0.008,-0.019,-0.026,-0.003,-0.015
0.004,0.057,0.053,-0.031,-0.025,0.055,0.07,0.0,-0.011,-0.023,0.002,-0.014
0.012,0.055,0.043,-0.034,-0.016,0.049,0.066,-0.004,-0.006,-0.027,0.006,-0.012
0.024,0.038,0.014,-0.031,0.005,0.026,0.061,-0.006,-0.016,-0.023,0.01,-0.009
0.007,-0.006,-0.013,0.0,0.01,-0.009,0.061,-0.024,-0.035,-0.031,0.004,-0.01
-0.001,-0.034,-0.034,0.018,0.017,-0.034,0.056,-0.027,-0.055,-0.047,-0.006,-0.018
-0.008,-0.047,-0.039,0.027,0.016,-0.043,0.054,-0.041,-0.048,-0.044,-0.007,-0.025
-0.023,-0.065,-0.041,0.044,0.009,-0.053,0.054,-0.052,-0.067,-0.063,-0.024,-0.038
-0.02,-0.059,-0.039,0.04,0.01,-0.049,0.039,-0.05,-0.049,-0.057,-0.02,-0.04
-0.038,-0.078,-0.039,0.058,0.001,-0.058,0.049,-0.053,-0.068,-0.079,-0.04,-0.058
-0.028,-0.097,-0.069,0.063,0.021,-0.083,0.114,0.143,-0.035,-0.064,-0.066,-0.075
-0.031,-0.057,-0.026,0.044,-0.002,-0.042,0.24,-0.048,0.029,-0.016,-0.039,-0.063
0.325,0.56,0.235,-0.443,0.045,0.397,-0.44,-0.602,0.53,0.536,0.521,0.4
0.723,1.161,0.438,-0.942,0.142,0.799,-1.311,-0.753,1.17,1.205,1.196,0.98
0.372,0.585,0.213,-0.478,0.079,0.398,-0.796,-0.568,0.364,0.541,0.66,0.589
0.021,0.033,0.012,-0.027,0.004,0.022,-0.063,-0.189,-0.351,-0.17,-0.007,0.071
0.003,0.01,0.008,-0.007,-0.002,0.009,0.092,0.028,-0.155,-0.111,-0.026,0.032
-0.027,-0.069,-0.042,0.048,0.008,-0.055,0.144,0.044,-0.182,-0.141,-0.079,-0.024
-0.017,-0.065,-0.048,0.041,0.015,-0.056,0.13,0.061,-0.136,-0.121,-0.065,-0.032
-0.021,-0.072,-0.05,0.047,0.014,-0.061,0.137,0.047,-0.122,-0.12,-0.061,-0.047
-0.023,-0.074,-0.051,0.049,0.014,-0.063,0.13,0.05,-0.114,-0.117,-0.062,-0.047
-0.039,-0.088,-0.048,0.063,0.005,-0.068,0.129,0.043,-0.088,-0.095,-0.049,-0.042
-0.045,-0.097,-0.052,0.071,0.004,-0.074,0.13,0.039,-0.088,-0.095,-0.054,-0.049
-0.036,-0.082,-0.046,0.059,0.005,-0.064,0.123,0.044,-0.059,-0.075,-0.039,-0.042
-0.037,-0.083,-0.046,0.06,0.005,-0.064,0.124,0.048,-0.06,-0.074,-0.039,-0.048
-0.026,-0.07,-0.044,0.048,0.01,-0.057,0.118,0.054,-0.042,-0.058,-0.027,-0.039
-0.026,-0.067,-0.042,0.047,0.008,-0.054,0.118,0.055,-0.04,-0.051,-0.023,-0.036
-0.028,-0.068,-0.04,0.048,0.006,-0.053,0.114,0.055,-0.028,-0.04,-0.013,-0.03
-0.031,-0.071,-0.04,0.051,0.004,-0.055,0.119,0.065,-0.021,-0.03,-0.004,-0.024
-0.033,-0.068,-0.035,0.051,0.001,-0.051,0.12,0.078,-0.014,-0.024,0.003,-0.019
-0.013,-0.043,-0.029,0.028,0.008,-0.036,0.12,0.088,-0.002,-0.012,0.018,-0.013
0.009,-0.017,-0.026,0.004,0.018,-0.021,0.12,0.104,0.018,0.008,0.033,0.0
0.024,0.003,-0.021,-0.013,0.022,-0.009,0.12,0.122,0.043,0.035,0.046,0.013
0.049,0.032,-0.017,-0.041,0.033,0.008,0.119,0.148,0.071,0.068,0.072,0.031
0.072,0.059,-0.012,-0.065,0.042,0.023,0.106,0.187,0.108,0.102,0.113,0.061
0.108,0.104,-0.004,-0.106,0.056,0.05,0.091,0.224,0.156,0.152,0.165,0.097
0.157,0.161,0.004,-0.159,0.076,0.082,0.088,0.253,0.212,0.214,0.233,0.145
0.201,0.214,0.013,-0.208,0.094,0.113,0.091,0.268,0.254,0.269,0.286,0.182
0.244,0.262,0.017,-0.253,0.113,0.139,0.089,0.254,0.285,0.317,0.337,0.225
0.256,0.287,0.031,-0.272,0.112,0.159,0.096,0.238,0.302,0.344,0.37,0.251
0.238,0.29,0.052,-0.265,0.093,0.171,0.094,0.216,0.294,0.335,0.36,0.234
0.219,0.27,0.051,-0.245,0.084,0.16,0.099,0.182,0.265,0.299,0.329,0.22
0.182,0.226,0.044,-0.205,0.069,0.135,0.14,0.129,0.204,0.23,0.253,0.179
0.116,0.154,0.038,-0.135,0.039,0.096,0.16,0.069,0.126,0.14,0.164,0.111
0.052,0.082,0.031,-0.067,0.01,0.056,0.153,0.024,0.062,0.067,0.089,0.06
0.004,0.028,0.024,-0.016,-0.01,0.026,0.148,-0.007,0.013,0.009,0.029,0.021
-0.017,0.002,0.019,0.008,-0.019,0.01,0.14,-0.018,-0.015,-0.025,-0.001,-0.007
-0.016,0.0,0.016,0.008,-0.016,0.008,0.134,-0.03,-0.022,-0.031,-0.011,-0.02
-0.019,-0.007,0.012,0.013,-0.016,0.003,0.127,-0.038,-0.03,-0.03,-0.012,-0.02
-0.02,-0.012,0.009,0.016,-0.014,-0.002,0.117,-0.034,-0.034,-0.03,-0.015,-0.02
-0.023,-0.018,0.005,0.02,-0.014,-0.007,0.109,-0.036,-0.029,-0.03,-0.018,-0.02
-0.023,-0.018,0.005,0.02,-0.014,-0.006,0.1,-0.032,-0.023,-0.03,-0.021,-0.019
-0.019,-0.014,0.005,0.016,-0.011,-0.005,0.091,-0.029,-0.02,-0.027,-0.016,-0.023
-0.021,-0.015,0.005,0.018,-0.013,-0.005,0.09,-0.031,-0.015,-0.022,-0.015,-0.025
-0.019,-0.015,0.005,0.017,-0.012,-0.005,0.09,-0.026,-0.01,-0.019,-0.015,-0.025
-0.02,-0.015,0.005,0.017,-0.012,-0.005,0.09,-0.02,-0.013,-0.016,-0.01,-0.025
-0.02,-0.015,0.005,0.017,-0.012,-0.005,0.09,-0.015,-0.016,-0.011,-0.01,-0.025
-0.015,-0.022,-0.007,0.018,-0.004,-0.014,0.09,-0.009,-0.015,-0.011,-0.011,-0.025
-0.012,-0.023,-0.011,0.017,0.0,-0.017,0.087,-0.003,-0.015,-0.016,-0.015,-0.03
-0.01,-0.02,-0.01,0.015,0.0,-0.015,0.084,-0.001,-0.015,-0.015,-0.015,-0.03
-0.014,-0.02,-0.006,0.017,-0.004,-0.013,0.085,-0.006,-0.016,-0.018,-0.018,-0.031
-0.012,-0.017,-0.005,0.015,-0.003,-0.011,0.081,-0.012,-0.021,-0.021,-0.021,-0.036
-0.011,-0.015,-0.004,0.013,-0.003,-0.009,0.08,-0.015,-0.025,-0.02,-0.02,-0.034
-0.026,-0.015,0.01,0.02,-0.017,-0.002,0.08,-0.02,-0.03,-0.024,-0.024,-0.038
-0.035,-0.025,0.009,0.03,-0.022,-0.008,0.076,-0.024,-0.035,-0.025,-0.025,-0.04
-0.037,-0.031,0.006,0.034,-0.021,-0.012,0.073,-0.029,-0.039,-0.025,-0.025,-0.04
-0.04,-0.036,0.004,0.038,-0.022,-0.016,0.07,-0.03,-0.04,-0.025,-0.025,-0.044
-0.041,-0.041,0.0,0.041,-0.02,-0.021,0.067,-0.031,-0.04,-0.026,-0.025,-0.046
-0.038,-0.039,-0.001,0.039,-0.019,-0.02,0.065,-0.039,-0.04,-0.034,-0.025,-0.044
-0.027,-0.041,-0.014,0.034,-0.006,-0.027,0.063,-0.04,-0.039,-0.035,-0.025,-0.041
-0.022,-0.039,-0.017,0.031,-0.003,-0.028,0.058,-0.04,-0.041,-0.035,-0.025,-0.04
-0.026,-0.041,-0.014,0.034,-0.006,-0.027,0.055,-0.04,-0.045,-0.035,-0.025,-0.04
-0.022,-0.037,-0.015,0.03,-0.003,-0.026,0.052,-0.039,-0.045,-0.034,-0.025,-0.04
-0.025,-0.035,-0.01,0.03,-0.007,-0.022,0.047,-0.041,-0.045,-0.037,-0.025,-0.04
-0.026,-0.035,-0.01,0.03,-0.007,-0.022,0.046,-0.045,-0.045,-0.04,-0.025,-0.042
-0.02,-0.031,-0.011,0.026,-0.004,-0.021,0.049,-0.045,-0.045,-0.04,-0.025,-0.046
-0.011,-0.031,-0.02,0.021,0.004,-0.025,0.052,-0.045,-0.042,-0.04,-0.025,-0.045
0.003,-0.028,-0.031,0.013,0.017,-0.029,0.054,-0.045,-0.039,-0.04,-0.025,-0.045
-0.012,-0.044,-0.032,0.028,0.01,-0.037,0.058,-0.045,-0.04,-0.04,-0.025,-0.045
-0.029,-0.055,-0.026,0.042,-0.001,-0.04,0.06,-0.049,-0.04,-0.036,-0.025,-0.045
-0.024,-0.045,-0.021,0.035,-0.001,-0.032,0.058,-0.05,-0.041,-0.035,-0.025,-0.05
-0.021,-0.039,-0.018,0.03,-0.001,-0.029,0.054,-0.05,-0.039,-0.035,-0.025,-0.05
-0.022,-0.033,-0.011,0.028,-0.005,-0.022,0.052,-0.05,-0.035,-0.035,-0.025,-0.05
-0.011,-0.025,-0.014,0.018,0.001,-0.019,0.049,-0.05,-0.035,-0.035,-0.025,-0.05
-0.009,-0.035,-0.026,0.023,0.009,-0.03,0.046,-0.049,-0.033,-0.036,-0.025,-0.05
-0.036,-0.059,-0.023,0.048,-0.007,-0.041,0.044,-0.045,-0.029,-0.04,-0.025,-0.048
-0.042,-0.06,-0.018,0.051,-0.012,-0.039,0.04,-0.045,-0.03,-0.04,-0.025,-0.043
-0.038,-0.055,-0.017,0.047,-0.01,-0.036,0.04,-0.045,-0.033,-0.04,-0.025,-0.04
-0.044,-0.054,-0.01,0.049,-0.017,-0.031,0.039,-0.045,-0.037,-0.04,-0.025,-0.037
-0.036,-0.05,-0.014,0.043,-0.011,-0.032,0.034,-0.045,-0.04,-0.04,-0.025,-0.032
-0.023,-0.049,-0.026,0.036,0.002,-0.037,0.036,-0.045,-0.044,-0.036,-0.025,-0.03
-0.021,-0.044,-0.023,0.033,0.001,-0.033,0.032,-0.045,-0.044,-0.035,-0.025,-0.035
-0.02,-0.038,-0.018,0.029,-0.001,-0.028,0.029,-0.045,-0.039,-0.035,-0.025,-0.035
-0.018,-0.035,-0.017,0.027,0.0,-0.026,0.03,-0.045,-0.041,-0.035,-0.025,-0.035
-0.02,-0.03,-0.01,0.025,-0.005,-0.02,0.029,-0.045,-0.038,-0.035,-0.025,-0.035
-0.011,-0.025,-0.014,0.018,0.002,-0.019,0.031,-0.045,-0.034,-0.036,-0.025,-0.034
-0.011,-0.037,-0.026,0.025,0.008,-0.031,0.029,-0.045,-0.036,-0.04,-0.022,-0.038
-0.02,-0.042,-0.022,0.031,0.001,-0.032,0.027,-0.045,-0.032,-0.04,-0.02,-0.041
-0.02,-0.036,-0.016,0.028,-0.002,-0.026,0.024,-0.045,-0.03,-0.04,-0.021,-0.04
-0.021,-0.035,-0.013,0.028,-0.004,-0.024,0.027,-0.045,-0.03,-0.04,-0.02,-0.04
-0.024,-0.03,-0.006,0.027,-0.009,-0.018,0.023,-0.045,-0.025,-0.04,-0.021,-0.04
-0.021,-0.03,-0.009,0.027,-0.006,-0.019,0.028,-0.041,-0.025,-0.035,-0.018,-0.04
-0.004,-0.018,-0.014,0.012,0.005,-0.015,0.045,-0.035,-0.024,-0.025,-0.006,-0.033
-0.011,0.001,0.012,0.005,-0.012,0.007,0.049,-0.027,-0.012,-0.015,0.009,-0.023
-0.017,0.031,0.049,-0.007,-0.033,0.04,0.078,-0.026,0.0,-0.009,0.02,-0.012
0.013,0.063,0.051,-0.038,-0.019,0.057,0.076,-0.023,0.003,-0.008,0.024,-0.003
0.021,0.062,0.041,-0.042,-0.01,0.051,0.056,-0.027,0.013,-0.002,0.033,0.002
0.019,0.047,0.028,-0.033,-0.005,0.038,0.044,-0.023,0.011,-0.001,0.032,0.004
0.014,0.018,0.004,-0.016,0.005,0.011,0.024,-0.034,-0.005,-0.003,0.014,-0.004
0.018,-0.017,-0.035,-0.001,0.027,-0.026,0.027,-0.048,-0.02,-0.015,-0.007,-0.017
0.015,-0.028,-0.043,0.006,0.03,-0.036,0.011,-0.04,-0.014,-0.021,-0.008,-0.031
-0.023,-0.047,-0.024,0.035,0.001,-0.035,0.022,-0.076,-0.039,-0.042,-0.015,-0.046
-0.007,-0.037,-0.029,0.022,0.011,-0.033,-0.001,-0.061,-0.049,-0.051,-0.022,-0.047
-0.031,-0.04,-0.009,0.036,-0.011,-0.025,0.016,-0.084,-0.037,-0.043,-0.022,-0.04
-0.03,-0.073,-0.042,0.052,0.006,-0.057,0.042,0.03,-0.043,-0.059,-0.044,-0.062
-0.033,-0.102,-0.069,0.068,0.018,-0.085,0.182,0.126,0.012,-0.054,-0.071,-0.115
0.099,0.199,0.1,-0.149,-0.001,0.15,0.015,-0.337,0.222,0.189,0.167,0.1
0.629,1.013,0.384,-0.821,0.123,0.698,-0.982,-0.704,0.956,0.996,0.981,0.792
0.624,0.972,0.348,-0.799,0.138,0.66,-1.15,-0.668,0.858,1.002,1.062,0.888
0.122,0.192,0.07,-0.157,0.025,0.131,-0.325,-0.404,-0.151,0.048,0.201,0.24
-0.007,0.014,0.021,-0.004,-0.014,0.017,0.039,-0.033,-0.216,-0.16,-0.056,0.014
-0.02,-0.011,0.01,0.015,-0.015,0.0,0.106,0.055,-0.105,-0.1,-0.048,0.003
-0.043,-0.064,-0.021,0.054,-0.011,-0.042,0.113,0.036,-0.144,-0.132,-0.097,-0.043
-0.018,-0.054,-0.036,0.036,0.009,-0.045,0.103,0.044,-0.073,-0.091,-0.069,-0.041
0.007,-0.067,-0.074,0.03,0.04,-0.07,0.107,0.031,-0.097,-0.111,-0.084,-0.057
0.008,-0.054,-0.062,0.023,0.035,-0.058,0.096,0.035,-0.066,-0.082,-0.061,-0.043
-0.004,-0.064,-0.06,0.035,0.028,-0.062,0.099,0.026,-0.074,-0.085,-0.065,-0.048
-0.003,-0.057,-0.055,0.03,0.026,-0.056,0.09,0.027,-0.045,-0.068,-0.052,-0.04
-0.026,-0.061,-0.035,0.044,0.005,-0.048,0.091,0.022,-0.036,-0.06,-0.048,-0.04
-0.007,-0.054,-0.047,0.031,0.021,-0.051,0.09,0.019,-0.03,-0.053,-0.042,-0.037
0.029,-0.047,-0.076,0.009,0.053,-0.061,0.09,0.036,-0.018,-0.043,-0.034,-0.03
0.027,-0.042,-0.069,0.008,0.048,-0.055,0.09,0.052,-0.017,-0.037,-0.027,-0.027
0.035,-0.033,-0.068,-0.001,0.052,-0.05,0.089,0.053,-0.007,-0.028,-0.016,-0.022
0.049,-0.029,-0.077,-0.009,0.063,-0.053,0.086,0.06,-0.005,-0.021,-0.01,-0.018
0.044,-0.021,-0.065,-0.011,0.055,-0.043,0.084,0.065,0.013,-0.009,0.0,-0.013
0.031,-0.02,-0.052,-0.005,0.042,-0.036,0.085,0.068,0.03,-0.002,0.006,-0.008
0.049,-0.004,-0.052,-0.022,0.05,-0.027,0.084,0.097,0.053,0.019,0.024,0.003
0.065,0.02,-0.044,-0.042,0.054,-0.012,0.086,0.128,0.074,0.05,0.056,0.018
0.084,0.045,-0.039,-0.064,0.061,0.003,0.082,0.153,0.104,0.085,0.09,0.049
0.128,0.086,-0.042,-0.107,0.085,0.022,0.067,0.182,0.145,0.125,0.13,0.08
0.143,0.143,0.0,-0.143,0.071,0.071,0.053,0.219,0.195,0.183,0.188,0.124
0.203,0.208,0.005,-0.206,0.099,0.106,0.044,0.242,0.239,0.237,0.252,0.173
0.264,0.253,-0.011,-0.258,0.137,0.121,0.038,0.234,0.276,0.286,0.305,0.213
0.277,0.292,0.015,-0.285,0.131,0.153,0.034,0.23,0.3,0.335,0.348,0.253
0.275,0.316,0.041,-0.296,0.116,0.178,0.025,0.222,0.301,0.333,0.36,0.269
0.24,0.31,0.07,-0.275,0.085,0.19,0.035,0.178,0.291,0.313,0.334,0.26
0.205,0.267,0.061,-0.236,0.072,0.164,0.076,0.125,0.25,0.27,0.288,0.224
0.142,0.191,0.048,-0.167,0.047,0.119,0.111,0.085,0.183,0.18,0.202,0.159
0.083,0.125,0.042,-0.104,0.021,0.083,0.125,0.046,0.114,0.098,0.125,0.095
0.032,0.064,0.033,-0.049,-0.001,0.048,0.122,0.009,0.061,0.046,0.062,0.051
-0.005,0.027,0.032,-0.011,-0.019,0.029,0.115,-0.019,0.023,0.006,0.007,0.013
-0.013,0.011,0.024,0.001,-0.019,0.017,0.11,-0.035,-0.001,-0.031,-0.01,-0.009
-0.022,-0.005,0.018,0.013,-0.02,0.006,0.105,-0.041,-0.008,-0.048,-0.022,-0.016
-0.023,-0.012,0.011,0.017,-0.017,0.0,0.098,-0.04,-0.018,-0.043,-0.028,-0.019
-0.018,-0.015,0.003,0.016,-0.01,-0.006,0.087,-0.04,-0.024,-0.041,-0.025,-0.015
-0.003,-0.02,-0.018,0.011,0.008,-0.019,0.078,-0.04,-0.019,-0.038,-0.02,-0.015
0.003,-0.025,-0.028,0.011,0.016,-0.026,0.068,-0.04,-0.014,-0.035,-0.015,-0.015
0.0,-0.021,-0.021,0.011,0.011,-0.021,0.064,-0.036,-0.01,-0.033,-0.011,-0.015
0.0,-0.02,-0.02,0.01,0.01,-0.02,0.065,-0.026,-0.005,-0.03,-0.006,-0.015
-0.005,-0.02,-0.015,0.013,0.005,-0.017,0.065,-0.02,0.0,-0.027,-0.002,-0.011
-0.004,-0.016,-0.011,0.01,0.004,-0.013,0.065,-0.01,-0.004,-0.025,0.0,-0.01
-0.006,-0.014,-0.009,0.01,0.002,-0.011,0.065,-0.007,-0.005,-0.022,0.0,-0.01
-0.024,-0.017,0.007,0.02,-0.015,-0.004,0.06,-0.01,-0.005,-0.02,0.0,-0.01
-0.032,-0.02,0.012,0.025,-0.022,-0.004,0.06,-0.01,-0.01,-0.024,0.0,-0.01
-0.02,-0.02,-0.001,0.02,-0.009,-0.01,0.059,-0.012,-0.01,-0.025,0.0,-0.012
-0.01,-0.02,-0.01,0.015,0.0,-0.014,0.055,-0.016,-0.011,-0.025,-0.006,-0.015
-0.006,-0.024,-0.018,0.015,0.006,-0.02,0.055,-0.014,-0.017,-0.025,-0.012,-0.018
-0.003,-0.025,-0.022,0.014,0.01,-0.024,0.052,-0.019,-0.02,-0.025,-0.016,-0.02
0.004,-0.024,-0.029,0.01,0.017,-0.026,0.049,-0.026,-0.025,-0.026,-0.022,-0.023
0.008,-0.026,-0.034,0.01,0.021,-0.03,0.05,-0.032,-0.03,-0.031,-0.028,-0.026
0.009,-0.022,-0.032,0.007,0.021,-0.027,0.046,-0.035,-0.026,-0.036,-0.03,-0.021
-0.009,-0.037,-0.028,0.023,0.009,-0.032,0.045,-0.037,-0.025,-0.041,-0.03,-0.02
-0.028,-0.052,-0.024,0.041,-0.002,-0.037,0.045,-0.041,-0.025,-0.045,-0.03,-0.02
-0.028,-0.049,-0.021,0.039,-0.003,-0.035,0.04,-0.036,-0.02,-0.045,-0.03,-0.02
-0.035,-0.05,-0.015,0.043,-0.01,-0.032,0.04,-0.035,-0.02,-0.045,-0.03,-0.02
-0.032,-0.05,-0.019,0.041,-0.006,-0.034,0.039,-0.035,-0.021,-0.045,-0.03,-0.021
-0.019,-0.05,-0.031,0.034,0.006,-0.04,0.035,-0.035,-0.025,-0.045,-0.025,-0.034
-0.017,-0.047,-0.03,0.032,0.007,-0.038,0.035,-0.035,-0.025,-0.045,-0.025,-0.035
-0.019,-0.044,-0.025,0.032,0.004,-0.034,0.033,-0.035,-0.024,-0.046,-0.024,-0.037
-0.017,-0.041,-0.024,0.029,0.004,-0.033,0.029,-0.035,-0.03,-0.05,-0.034,-0.04
-0.019,-0.038,-0.019,0.029,0.0,-0.028,0.027,-0.035,-0.036,-0.05,-0.047,-0.041
-0.014,-0.035,-0.021,0.024,0.004,-0.028,0.024,-0.043,-0.038,-0.054,-0.048,-0.046
0.001,-0.036,-0.037,0.018,0.019,-0.036,0.021,-0.046,-0.041,-0.055,-0.052,-0.044
-0.004,-0.04,-0.036,0.023,0.016,-0.038,0.019,-0.045,-0.044,-0.055,-0.055,-0.048
-0.014,-0.04,-0.025,0.027,0.006,-0.032,0.027,-0.043,-0.046,-0.055,-0.051,-0.051
-0.019,-0.042,-0.023,0.031,0.002,-0.033,0.04,-0.039,-0.05,-0.055,-0.049,-0.049
-0.035,-0.045,-0.011,0.04,-0.011,-0.028,0.037,-0.04,-0.049,-0.055,-0.05,-0.054
-0.028,-0.045,-0.017,0.036,-0.005,-0.031,0.031,-0.043,-0.045,-0.055,-0.05,-0.055
-0.001,-0.041,-0.04,0.022,0.02,-0.041,0.028,-0.046,-0.045,-0.055,-0.051,-0.055
-0.005,-0.04,-0.035,0.023,0.015,-0.037,0.022,-0.043,-0.045,-0.055,-0.048,-0.055
-0.013,-0.04,-0.027,0.027,0.007,-0.033,0.02,-0.04,-0.045,-0.055,-0.045,-0.055
-0.018,-0.04,-0.022,0.03,0.002,-0.031,0.02,-0.04,-0.045,-0.055,-0.045,-0.056
-0.027,-0.04,-0.013,0.033,-0.007,-0.026,0.02,-0.04,-0.045,-0.055,-0.045,-0.06
-0.03,-0.041,-0.011,0.036,-0.009,-0.026,0.02,-0.04,-0.045,-0.055,-0.045,-0.06
-0.028,-0.046,-0.018,0.037,-0.004,-0.032,0.024,-0.04,-0.045,-0.055,-0.044,-0.06
-0.023,-0.051,-0.028,0.037,0.003,-0.039,0.025,-0.044,-0.045,-0.055,-0.056,-0.064
-0.028,-0.054,-0.027,0.041,0.0,-0.04,0.025,-0.045,-0.044,-0.055,-0.066,-0.065
-0.029,-0.052,-0.023,0.041,-0.003,-0.037,0.025,-0.045,-0.046,-0.056,-0.064,-0.068
-0.03,-0.049,-0.019,0.04,-0.006,-0.034,0.025,-0.045,-0.05,-0.06,-0.065,-0.07
-0.034,-0.051,-0.016,0.043,-0.009,-0.033,0.025,-0.045,-0.049,-0.06,-0.065,-0.071
-0.04,-0.05,-0.01,0.045,-0.015,-0.03,0.025,-0.045,-0.058,-0.06,-0.065,-0.076
-0.037,-0.051,-0.013,0.044,-0.012,-0.032,0.026,-0.045,-0.063,-0.06,-0.069,-0.075
-0.023,-0.049,-0.027,0.036,0.002,-0.038,0.024,-0.045,-0.059,-0.06,-0.07,-0.078
-0.02,-0.043,-0.023,0.032,0.002,-0.033,0.026,-0.045,-0.061,-0.056,-0.07,-0.08
-0.02,-0.04,-0.02,0.03,0.0,-0.03,0.023,-0.045,-0.06,-0.049,-0.07,-0.08
-0.018,-0.034,-0.016,0.026,0.0,-0.025,0.028,-0.046,-0.06,-0.043,-0.07,-0.075
-0.02,-0.032,-0.013,0.026,-0.003,-0.022,0.031,-0.039,-0.059,-0.036,-0.069,-0.065
-0.022,-0.015,0.007,0.018,-0.015,-0.004,0.045,-0.016,-0.031,-0.03,-0.042,-0.054
-0.022,0.024,0.046,-0.001,-0.034,0.034,0.073,-0.007,-0.019,-0.03,-0.021,-0.047
0.006,0.049,0.043,-0.028,-0.019,0.046,0.041,0.002,-0.031,-0.03,-0.02,-0.05
0.028,0.05,0.022,-0.039,0.003,0.036,0.024,0.008,-0.037,-0.03,-0.015,-0.053
0.022,0.031,0.009,-0.026,0.006,0.02,0.02,-0.003,-0.05,-0.031,-0.017,-0.058
0.015,0.001,-0.013,-0.008,0.014,-0.006,0.015,-0.042,-0.051,-0.038,-0.029,-0.057
0.009,-0.029,-0.038,0.011,0.024,-0.033,0.013,-0.047,-0.06,-0.058,-0.05,-0.069
-0.012,-0.043,-0.031,0.028,0.01,-0.037,0.003,-0.041,-0.056,-0.053,-0.064,-0.081
-0.031,-0.061,-0.03,0.046,0.0,-0.045,0.012,-0.053,-0.075,-0.068,-0.084,-0.089
-0.024,-0.048,-0.024,0.037,0.0,-0.036,0.004,-0.031,-0.056,-0.061,-0.075,-0.086
-0.048,-0.066,-0.018,0.057,-0.015,-0.042,0.025,-0.057,-0.073,-0.075,-0.091,-0.093
-0.027,-0.093,-0.066,0.06,0.019,-0.079,0.053,0.121,-0.049,-0.089,-0.104,-0.13
-0.033,-0.06,-0.028,0.046,-0.002,-0.044,0.203,0.06,0.027,-0.047,-0.085,-0.138
0.243,0.456,0.214,-0.35,0.014,0.335,-0.268,-0.497,0.431,0.425,0.363,0.257
0.674,1.127,0.452,-0.901,0.111,0.789,-1.203,-0.742,1.103,1.152,1.093,0.867
0.385,0.657,0.272,-0.521,0.057,0.464,-0.904,-0.635,0.457,0.629,0.683,0.584
0.013,0.038,0.025,-0.026,-0.006,0.031,-0.155,-0.261,-0.357,-0.165,-0.05,0.016
-0.007,0.029,0.036,-0.011,-0.022,0.033,0.034,0.047,-0.195,-0.121,-0.086,-0.044
-0.034,-0.046,-0.012,0.04,-0.011,-0.029,0.095,0.046,-0.188,-0.138,-0.129,-0.102
-0.014,-0.062,-0.048,0.039,0.017,-0.055,0.087,0.054,-0.162,-0.129,-0.126,-0.116
-0.028,-0.07,-0.042,0.05,0.007,-0.056,0.088,0.047,-0.142,-0.115,-0.114,-0.123
-0.025,-0.073,-0.048,0.05,0.011,-0.06,0.085,0.044,-0.137,-0.124,-0.121,-0.139
-0.028,-0.066,-0.038,0.047,0.005,-0.052,0.08,0.045,-0.098,-0.102,-0.104,-0.122
-0.032,-0.075,-0.043,0.053,0.005,-0.059,0.081,0.037,-0.108,-0.107,-0.111,-0.127
-0.029,-0.066,-0.037,0.048,0.004,-0.051,0.075,0.045,-0.085,-0.084,-0.097,-0.113
-0.036,-0.07,-0.034,0.053,-0.001,-0.051,0.075,0.043,-0.091,-0.084,-0.099,-0.113
-0.033,-0.059,-0.025,0.046,-0.004,-0.041,0.07,0.048,-0.075,-0.07,-0.09,-0.105
-0.039,-0.058,-0.019,0.049,-0.01,-0.038,0.069,0.049,-0.072,-0.068,-0.088,-0.105
-0.038,-0.052,-0.014,0.045,-0.012,-0.033,0.065,0.051,-0.06,-0.062,-0.082,-0.105
-0.045,-0.047,-0.003,0.046,-0.021,-0.025,0.065,0.065,-0.047,-0.054,-0.078,-0.104
-0.017,-0.044,-0.027,0.031,0.005,-0.035,0.065,0.078,-0.033,-0.046,-0.071,-0.106
0.008,-0.037,-0.045,0.015,0.027,-0.041,0.076,0.091,-0.03,-0.033,-0.06,-0.103
-0.005,-0.028,-0.023,0.017,0.009,-0.025,0.078,0.101,-0.025,-0.02,-0.044,-0.092
-0.007,-0.006,0.001,0.006,-0.004,-0.002,0.07,0.117,0.006,0.007,-0.021,-0.081
0.039,0.028,-0.011,-0.033,0.024,0.008,0.066,0.143,0.03,0.04,0.006,-0.062
0.09,0.062,-0.028,-0.076,0.059,0.017,0.06,0.177,0.067,0.07,0.042,-0.027
0.106,0.095,-0.011,-0.1,0.058,0.042,0.044,0.208,0.115,0.116,0.079,-0.003
0.152,0.151,-0.002,-0.151,0.076,0.074,0.023,0.235,0.161,0.175,0.138,0.028
0.215,0.21,-0.006,-0.212,0.11,0.102,0.02,0.252,0.207,0.233,0.201,0.077
0.222,0.247,0.026,-0.235,0.098,0.136,0.02,0.242,0.248,0.284,0.249,0.129
0.219,0.278,0.06,-0.249,0.079,0.169,0.02,0.239,0.255,0.295,0.272,0.144
0.218,0.279,0.062,-0.249,0.078,0.17,0.02,0.227,0.244,0.288,0.27,0.131
0.194,0.267,0.073,-0.231,0.061,0.17,0.032,0.192,0.233,0.276,0.254,0.125
0.152,0.223,0.071,-0.188,0.04,0.147,0.079,0.144,0.176,0.215,0.186,0.084
0.09,0.151,0.061,-0.121,0.014,0.106,0.117,0.093,0.109,0.123,0.098,0.017
0.038,0.095,0.057,-0.067,-0.01,0.076,0.12,0.051,0.033,0.044,0.024,-0.047
-0.002,0.046,0.047,-0.022,-0.025,0.047,0.114,0.009,-0.031,-0.015,-0.041,-0.092
-0.028,0.019,0.047,0.004,-0.038,0.033,0.108,-0.011,-0.06,-0.054,-0.071,-0.109
-0.059,-0.009,0.05,0.034,-0.054,0.02,0.103,-0.013,-0.081,-0.069,-0.084,-0.123
-0.078,-0.027,0.05,0.052,-0.063,0.011,0.096,-0.017,-0.089,-0.073,-0.096,-0.125
-0.074,-0.024,0.05,0.049,-0.061,0.012,0.085,-0.02,-0.097,-0.072,-0.104,-0.131
-0.076,-0.026,0.05,0.051,-0.062,0.012,0.072,-0.025,-0.088,-0.067,-0.11,-0.136
-0.075,-0.025,0.05,0.05,-0.062,0.012,0.065,-0.023,-0.072,-0.064,-0.103,-0.134
-0.075,-0.025,0.05,0.05,-0.062,0.012,0.065,-0.016,-0.066,-0.061,-0.1,-0.133
-0.075,-0.025,0.05,0.05,-0.062,0.012,0.065,-0.009,-0.064,-0.056,-0.095,-0.129
-0.07,-0.02,0.05,0.045,-0.06,0.015,0.065,-0.003,-0.065,-0.056,-0.09,-0.13
-0.067,-0.017,0.05,0.042,-0.058,0.016,0.065,0.005,-0.065,-0.06,-0.094,-0.13
-0.062,-0.013,0.049,0.037,-0.055,0.017,0.062,0.009,-0.065,-0.06,-0.095,-0.13
-0.055,-0.01,0.045,0.032,-0.05,0.017,0.06,0.012,-0.067,-0.062,-0.095,-0.13
-0.045,-0.005,0.04,0.025,-0.042,0.017,0.06,0.015,-0.07,-0.066,-0.095,-0.131
-0.044,-0.007,0.037,0.025,-0.04,0.014,0.06,0.017,-0.07,-0.065,-0.095,-0.139
-0.048,-0.015,0.034,0.031,-0.041,0.01,0.06,0.021,-0.07,-0.065,-0.096,-0.141
-0.051,-0.02,0.031,0.035,-0.041,0.006,0.06,0.018,-0.07,-0.065,-0.1,-0.139
-0.065,-0.037,0.028,0.051,-0.046,-0.004,0.055,0.011,-0.07,-0.065,-0.1,-0.142
-0.066,-0.04,0.025,0.052,-0.045,-0.007,0.05,0.004,-0.076,-0.066,-0.104,-0.148
-0.057,-0.034,0.024,0.045,-0.04,-0.005,0.046,-0.002,-0.083,-0.063,-0.105,-0.151
-0.049,-0.033,0.016,0.041,-0.033,-0.008,0.041,-0.009,-0.085,-0.071,-0.105,-0.149
-0.035,-0.026,0.009,0.03,-0.022,-0.008,0.036,-0.015,-0.085,-0.085,-0.11,-0.15
-0.029,-0.027,0.002,0.028,-0.015,-0.012,0.032,-0.015,-0.085,-0.085,-0.11,-0.15
-0.022,-0.028,-0.006,0.025,-0.008,-0.017,0.03,-0.015,-0.085,-0.085,-0.111,-0.15
-0.027,-0.039,-0.013,0.033,-0.007,-0.026,0.03,-0.015,-0.085,-0.085,-0.115,-0.155
-0.04,-0.052,-0.012,0.046,-0.014,-0.032,0.03,-0.015,-0.085,-0.084,-0.114,-0.156
-0.045,-0.049,-0.004,0.047,-0.021,-0.026,0.03,-0.015,-0.09,-0.088,-0.117,-0.155
-0.053,-0.051,0.002,0.052,-0.028,-0.024,0.03,-0.017,-0.09,-0.09,-0.12,-0.155
-0.058,-0.049,0.009,0.054,-0.034,-0.02,0.025,-0.021,-0.09,-0.09,-0.12,-0.155
-0.067,-0.051,0.016,0.059,-0.041,-0.017,0.025,-0.023,-0.09,-0.09,-0.117,-0.155
-0.066,-0.045,0.02,0.056,-0.043,-0.012,0.025,-0.026,-0.089,-0.09,-0.114,-0.152
-0.06,-0.04,0.02,0.05,-0.04,-0.01,0.025,-0.029,-0.093,-0.089,-0.115,-0.147
-0.052,-0.032,0.02,0.042,-0.036,-0.006,0.025,-0.03,-0.095,-0.085,-0.115,-0.144
-0.047,-0.027,0.02,0.037,-0.033,-0.003,0.023,-0.03,-0.095,-0.085,-0.115,-0.141
-0.038,-0.018,0.02,0.028,-0.029,0.001,0.018,-0.03,-0.095,-0.085,-0.114,-0.136
-0.035,-0.015,0.02,0.025,-0.027,0.002,0.015,-0.03,-0.095,-0.085,-0.11,-0.135
-0.078,-0.061,0.017,0.069,-0.047,-0.022,0.012,-0.03,-0.094,-0.085,-0.11,-0.135
-0.087,-0.076,0.011,0.081,-0.049,-0.032,0.007,-0.03,-0.091,-0.085,-0.11,-0.135
-0.068,-0.061,0.006,0.064,-0.037,-0.027,0.005,-0.03,-0.088,-0.085,-0.11,-0.135
-0.063,-0.06,0.003,0.061,-0.032,-0.028,0.01,-0.03,-0.086,-0.085,-0.111,-0.135
-0.046,-0.05,-0.004,0.048,-0.021,-0.026,0.011,-0.03,-0.082,-0.085,-0.107,-0.135
-0.042,-0.046,-0.003,0.044,-0.019,-0.024,0.01,-0.029,-0.08,-0.085,-0.105,-0.131
-0.037,-0.038,-0.001,0.038,-0.018,-0.019,0.011,-0.031,-0.077,-0.085,-0.105,-0.124
-0.031,-0.028,0.003,0.03,-0.017,-0.012,0.009,-0.029,-0.069,-0.078,-0.1,-0.117
-0.025,-0.021,0.004,0.023,-0.014,-0.009,0.013,-0.025,-0.062,-0.07,-0.1,-0.111
-0.027,-0.008,0.019,0.017,-0.023,0.005,0.022,-0.008,-0.057,-0.062,-0.099,-0.103
-0.038,0.02,0.058,0.009,-0.049,0.039,0.04,0.015,-0.058,-0.053,-0.085,-0.101
-0.022,0.05,0.072,-0.014,-0.047,0.061,0.05,0.022,-0.062,-0.049,-0.072,-0.106
-0.003,0.064,0.067,-0.031,-0.036,0.066,0.02,0.014,-0.058,-0.039,-0.063,-0.104
0.002,0.046,0.044,-0.024,-0.021,0.044,-0.015,0.011,-0.069,-0.038,-0.068,-0.106
0.013,0.022,0.01,-0.018,0.001,0.016,-0.023,0.007,-0.06,-0.048,-0.062,-0.103
0.0,-0.014,-0.014,0.007,0.007,-0.014,-0.016,-0.03,-0.072,-0.07,-0.075,-0.107
-0.023,-0.044,-0.021,0.033,0.0,-0.032,-0.024,-0.037,-0.08,-0.08,-0.095,-0.1
-0.044,-0.063,-0.019,0.053,-0.012,-0.04,-0.015,-0.056,-0.089,-0.098,-0.103,-0.1
-0.042,-0.059,-0.017,0.051,-0.013,-0.038,-0.024,-0.032,-0.096,-0.107,-0.1,-0.102
-0.037,-0.052,-0.014,0.045,-0.011,-0.033,-0.012,-0.054,-0.075,-0.1,-0.091,-0.096
-0.037,-0.101,-0.064,0.069,0.014,-0.082,-0.001,0.019,-0.1,-0.124,-0.122,-0.135
-0.049,-0.126,-0.077,0.087,0.014,-0.101,0.11,0.161,-0.027,-0.104,-0.144,-0.177
0.037,0.115,0.078,-0.076,-0.02,0.096,0.033,-0.264,0.137,0.083,0.038,-0.024
0.49,0.903,0.414,-0.697,0.038,0.658,-0.932,-0.733,0.922,0.888,0.801,0.621
0.565,1.02,0.455,-0.792,0.054,0.737,-1.32,-0.755,1.042,1.059,1.013,0.826
0.111,0.23,0.12,-0.17,-0.005,0.175,-0.511,-0.478,-0.141,0.071,0.194,0.211
-0.019,-0.012,0.007,0.015,-0.013,-0.002,-0.045,-0.066,-0.348,-0.217,-0.125,-0.047
-0.021,-0.025,-0.004,0.023,-0.008,-0.014,0.043,0.057,-0.157,-0.133,-0.099,-0.053
-0.04,-0.085,-0.045,0.063,0.003,-0.065,0.068,0.038,-0.225,-0.182,-0.156,-0.105
-0.031,-0.07,-0.04,0.051,0.005,-0.055,0.048,0.045,-0.134,-0.135,-0.127,-0.096
-0.055,-0.108,-0.053,0.082,-0.001,-0.08,0.056,0.035,-0.159,-0.16,-0.14,-0.114
-0.041,-0.094,-0.054,0.068,0.007,-0.074,0.04,0.037,-0.122,-0.135,-0.123,-0.097
-0.042,-0.103,-0.062,0.073,0.01,-0.083,0.042,0.035,-0.117,-0.136,-0.123,-0.099
-0.039,-0.099,-0.059,0.069,0.01,-0.079,0.032,0.041,-0.097,-0.122,-0.116,-0.092
-0.04,-0.1,-0.06,0.07,0.01,-0.08,0.03,0.04,-0.085,-0.111,-0.109,-0.087
-0.041,-0.101,-0.061,0.071,0.01,-0.081,0.031,0.04,-0.081,-0.105,-0.102,-0.085
-0.035,-0.095,-0.059,0.065,0.012,-0.077,0.027,0.044,-0.064,-0.093,-0.091,-0.076
-0.03,-0.09,-0.061,0.06,0.016,-0.075,0.026,0.051,-0.061,-0.092,-0.085,-0.072
-0.025,-0.081,-0.056,0.054,0.016,-0.068,0.024,0.057,-0.045,-0.079,-0.069,-0.064
-0.024,-0.077,-0.053,0.05,0.015,-0.064,0.025,0.064,-0.037,-0.068,-0.057,-0.058
-0.02,-0.069,-0.049,0.044,0.015,-0.058,0.037,0.078,-0.023,-0.053,-0.043,-0.052
-0.011,-0.057,-0.046,0.035,0.018,-0.051,0.038,0.09,-0.011,-0.038,-0.032,-0.042
0.002,-0.039,-0.041,0.019,0.021,-0.039,0.028,0.102,0.006,-0.015,-0.018,-0.025
0.025,-0.016,-0.041,-0.004,0.033,-0.029,0.023,0.126,0.031,0.007,0.004,-0.009
0.066,0.016,-0.05,-0.04,0.058,-0.017,0.016,0.165,0.07,0.039,0.036,0.019
0.09,0.043,-0.047,-0.066,0.068,-0.002,0.01,0.199,0.111,0.081,0.08,0.052
0.125,0.084,-0.04,-0.104,0.082,0.022,0.005,0.237,0.161,0.138,0.132,0.088
0.178,0.143,-0.035,-0.16,0.106,0.053,0.0,0.268,0.218,0.204,0.202,0.136
0.218,0.189,-0.029,-0.203,0.124,0.08,-0.005,0.269,0.259,0.254,0.262,0.184
0.254,0.228,-0.026,-0.241,0.14,0.101,-0.008,0.264,0.282,0.29,0.298,0.212
0.271,0.25,-0.021,-0.26,0.146,0.115,-0.015,0.25,0.285,0.303,0.312,0.222
0.265,0.247,-0.018,-0.256,0.141,0.114,-0.008,0.207,0.264,0.281,0.286,0.216
0.201,0.201,0.0,-0.201,0.1,0.1,0.03,0.148,0.207,0.221,0.228,0.174
0.109,0.128,0.019,-0.119,0.045,0.073,0.068,0.094,0.134,0.135,0.15,0.112
0.054,0.07,0.016,-0.063,0.019,0.043,0.09,0.047,0.068,0.05,0.074,0.057
0.007,0.015,0.008,-0.012,0.0,0.012,0.094,0.005,0.012,-0.016,0.01,0.015
-0.028,-0.023,0.005,0.026,-0.016,-0.009,0.085,-0.031,-0.037,-0.062,-0.041,-0.006
-0.038,-0.042,-0.004,0.04,-0.017,-0.023,0.072,-0.046,-0.064,-0.079,-0.06,-0.023
-0.025,-0.052,-0.027,0.039,0.002,-0.04,0.061,-0.045,-0.062,-0.084,-0.063,-0.034
-0.024,-0.055,-0.031,0.039,0.004,-0.043,0.05,-0.045,-0.06,-0.086,-0.066,-0.036
-0.035,-0.06,-0.024,0.048,-0.005,-0.042,0.037,-0.045,-0.06,-0.082,-0.061,-0.039
-0.033,-0.057,-0.024,0.045,-0.004,-0.04,0.028,-0.045,-0.056,-0.08,-0.059,-0.041
-0.036,-0.054,-0.018,0.045,-0.009,-0.036,0.023,-0.042,-0.055,-0.076,-0.054,-0.045
-0.04,-0.056,-0.015,0.049,-0.012,-0.035,0.02,-0.034,-0.055,-0.075,-0.051,-0.044
-0.036,-0.054,-0.018,0.045,-0.008,-0.036,0.017,-0.026,-0.05,-0.072,-0.047,-0.039
-0.032,-0.056,-0.024,0.044,-0.003,-0.04,0.012,-0.018,-0.05,-0.067,-0.045,-0.041
-0.028,-0.053,-0.025,0.041,-0.001,-0.039,0.01,-0.011,-0.049,-0.064,-0.045,-0.037
-0.02,-0.05,-0.03,0.035,0.005,-0.04,0.015,-0.005,-0.045,-0.061,-0.041,-0.035
-0.021,-0.05,-0.029,0.036,0.004,-0.039,0.015,-0.005,-0.045,-0.056,-0.039,-0.035
-0.025,-0.05,-0.025,0.038,0.0,-0.037,0.015,-0.005,-0.048,-0.056,-0.041,-0.035
-0.027,-0.05,-0.024,0.039,-0.002,-0.037,0.015,-0.005,-0.05,-0.06,-0.044,-0.035
-0.032,-0.049,-0.017,0.041,-0.007,-0.034,0.015,-0.005,-0.05,-0.063,-0.046,-0.035
-0.022,-0.055,-0.033,0.039,0.006,-0.044,0.013,-0.007,-0.053,-0.067,-0.045,-0.035
-0.012,-0.06,-0.048,0.037,0.018,-0.054,0.007,-0.012,-0.056,-0.07,-0.046,-0.035
-0.023,-0.064,-0.041,0.044,0.009,-0.052,0.003,-0.015,-0.055,-0.074,-0.044,-0.037
-0.035,-0.076,-0.041,0.055,0.003,-0.058,-0.001,-0.019,-0.055,-0.075,-0.048,-0.04
-0.044,-0.08,-0.036,0.062,-0.004,-0.058,-0.007,-0.022,-0.055,-0.075,-0.05,-0.04
-0.046,-0.08,-0.034,0.063,-0.006,-0.057,-0.01,-0.025,-0.055,-0.08,-0.05,-0.04
-0.036,-0.08,-0.044,0.059,0.004,-0.061,-0.021,-0.035,-0.056,-0.08,-0.054,-0.04
-0.034,-0.08,-0.046,0.058,0.006,-0.062,-0.03,-0.037,-0.053,-0.08,-0.055,-0.04
-0.04,-0.08,-0.04,0.06,0.0,-0.06,-0.032,-0.034,-0.065,-0.08,-0.054,-0.037
-0.038,-0.076,-0.038,0.057,0.0,-0.057,-0.034,-0.035,-0.077,-0.08,-0.05,-0.034
-0.041,-0.075,-0.034,0.058,-0.003,-0.054,-0.044,-0.035,-0.074,-0.08,-0.05,-0.031
-0.047,-0.074,-0.028,0.06,-0.009,-0.051,-0.051,-0.034,-0.075,-0.08,-0.049,-0.028
-0.029,-0.071,-0.042,0.05,0.007,-0.056,-0.045,-0.039,-0.075,-0.08,-0.045,-0.025
-0.013,-0.068,-0.055,0.041,0.021,-0.062,-0.043,-0.041,-0.075,-0.084,-0.045,-0.026
-0.029,-0.075,-0.046,0.052,0.009,-0.061,-0.038,-0.04,-0.075,-0.085,-0.045,-0.03
-0.043,-0.086,-0.043,0.065,0.0,-0.064,-0.035,-0.039,-0.075,-0.085,-0.045,-0.029
-0.048,-0.085,-0.037,0.067,-0.005,-0.061,-0.038,-0.035,-0.075,-0.085,-0.045,-0.032
-0.056,-0.085,-0.029,0.071,-0.013,-0.056,-0.042,-0.035,-0.075,-0.085,-0.045,-0.035
-0.043,-0.085,-0.043,0.064,0.0,-0.064,-0.045,-0.038,-0.074,-0.084,-0.045,-0.035
-0.029,-0.084,-0.055,0.057,0.014,-0.069,-0.049,-0.048,-0.077,-0.08,-0.045,-0.032
-0.041,-0.088,-0.047,0.065,0.003,-0.067,-0.049,-0.055,-0.082,-0.08,-0.045,-0.027
-0.048,-0.09,-0.042,0.069,-0.003,-0.066,-0.045,-0.055,-0.08,-0.078,-0.045,-0.024
-0.053,-0.09,-0.037,0.072,-0.008,-0.063,-0.043,-0.055,-0.075,-0.074,-0.045,-0.021
-0.065,-0.093,-0.028,0.079,-0.018,-0.06,-0.039,-0.055,-0.073,-0.076,-0.045,-0.016
-0.053,-0.096,-0.043,0.075,-0.005,-0.069,-0.037,-0.054,-0.069,-0.071,-0.044,-0.016
-0.037,-0.094,-0.057,0.066,0.01,-0.075,-0.033,-0.058,-0.064,-0.07,-0.048,-0.022
-0.041,-0.091,-0.05,0.066,0.004,-0.071,-0.044,-0.06,-0.073,-0.069,-0.05,-0.025
-0.04,-0.088,-0.047,0.064,0.004,-0.068,-0.056,-0.06,-0.082,-0.066,-0.05,-0.03
-0.041,-0.086,-0.044,0.064,0.002,-0.065,-0.055,-0.063,-0.079,-0.064,-0.054,-0.035
-0.045,-0.082,-0.038,0.063,-0.003,-0.06,-0.055,-0.066,-0.08,-0.067,-0.056,-0.032
-0.034,-0.079,-0.045,0.057,0.006,-0.062,-0.055,-0.064,-0.08,-0.076,-0.054,-0.026
-0.027,-0.082,-0.056,0.055,0.015,-0.069,-0.055,-0.061,-0.08,-0.076,-0.051,-0.022
-0.038,-0.085,-0.048,0.062,0.006,-0.066,-0.052,-0.054,-0.077,-0.072,-0.046,-0.017
-0.044,-0.089,-0.045,0.067,0.001,-0.067,-0.048,-0.05,-0.075,-0.071,-0.044,-0.013
-0.05,-0.091,-0.041,0.07,-0.005,-0.066,-0.046,-0.047,-0.076,-0.067,-0.04,-0.009
-0.062,-0.095,-0.033,0.079,-0.014,-0.064,-0.043,-0.04,-0.074,-0.064,-0.036,-0.003
-0.05,-0.094,-0.044,0.073,-0.003,-0.069,-0.04,-0.047,-0.076,-0.074,-0.033,0.003
-0.022,-0.09,-0.068,0.057,0.023,-0.079,-0.04,-0.046,-0.073,-0.075,-0.027,0.008
-0.015,-0.077,-0.062,0.046,0.024,-0.069,-0.029,-0.035,-0.06,-0.071,-0.023,0.014
-0.031,-0.042,-0.011,0.036,-0.009,-0.026,-0.021,-0.025,-0.047,-0.062,-0.019,0.019
-0.024,-0.009,0.015,0.016,-0.02,0.003,-0.006,-0.015,-0.034,-0.046,-0.013,0.015
-0.01,0.019,0.029,-0.005,-0.02,0.024,0.009,-0.011,-0.029,-0.051,-0.012,0.015
0.018,0.035,0.017,-0.027,0.001,0.026,-0.033,-0.002,-0.018,-0.048,-0.008,0.034
0.045,0.018,-0.027,-0.031,0.036,-0.005,-0.07,-0.004,-0.021,-0.052,-0.009,0.041
0.031,-0.021,-0.052,-0.005,0.042,-0.037,-0.071,-0.028,-0.052,-0.048,-0.001,0.037
0.021,-0.052,-0.072,0.015,0.047,-0.062,-0.068,-0.053,-0.081,-0.05,-0.011,0.023
0.007,-0.06,-0.067,0.027,0.037,-0.063,-0.078,-0.04,-0.073,-0.058,-0.019,0.016
-0.036,-0.097,-0.061,0.067,0.013,-0.079,-0.071,-0.069,-0.092,-0.068,-0.031,0.006
-0.04,-0.103,-0.063,0.072,0.011,-0.083,-0.078,-0.052,-0.1,-0.075,-0.047,-0.004
-0.003,-0.083,-0.08,0.044,0.039,-0.082,-0.058,-0.066,-0.081,-0.059,-0.03,-0.008
0.006,-0.118,-0.124,0.056,0.065,-0.121,-0.044,-0.008,-0.105,-0.098,-0.053,-0.046
-0.036,-0.142,-0.106,0.09,0.035,-0.124,0.089,0.161,-0.03,-0.091,-0.068,-0.068
0.058,0.076,0.019,-0.067,0.019,0.047,0.011,-0.27,0.112,0.091,0.094,0.074
0.555,0.861,0.306,-0.708,0.124,0.583,-0.969,-0.73,0.827,0.868,0.864,0.731
0.676,1.024,0.349,-0.85,0.163,0.686,-1.345,-0.692,0.964,1.087,1.139,0.989
0.177,0.235,0.058,-0.206,0.059,0.146,-0.534,-0.466,-0.099,0.13,0.31,0.358
0.005,-0.031,-0.036,0.013,0.02,-0.033,-0.071,-0.089,-0.329,-0.193,-0.033,0.067
0.014,-0.03,-0.044,0.008,0.029,-0.036,0.016,0.038,-0.165,-0.111,-0.023,0.048
-0.033,-0.107,-0.073,0.071,0.02,-0.09,0.048,0.017,-0.209,-0.159,-0.098,-0.015
-0.017,-0.093,-0.077,0.055,0.03,-0.085,0.031,0.031,-0.145,-0.114,-0.07,-0.002
-0.031,-0.113,-0.082,0.073,0.026,-0.097,0.039,0.02,-0.163,-0.137,-0.086,-0.023
-0.029,-0.1,-0.071,0.065,0.021,-0.085,0.027,0.028,-0.119,-0.113,-0.066,-0.015
-0.033,-0.108,-0.075,0.07,0.022,-0.091,0.029,0.024,-0.12,-0.116,-0.069,-0.019
-0.039,-0.104,-0.065,0.072,0.014,-0.084,0.022,0.031,-0.101,-0.102,-0.06,-0.014
-0.025,-0.104,-0.079,0.064,0.027,-0.091,0.02,0.03,-0.092,-0.091,-0.051,-0.015
-0.007,-0.099,-0.091,0.053,0.042,-0.095,0.016,0.032,-0.089,-0.085,-0.046,-0.016
-0.004,-0.089,-0.085,0.047,0.04,-0.086,0.012,0.036,-0.074,-0.07,-0.034,-0.014
-0.003,-0.086,-0.083,0.044,0.041,-0.085,0.009,0.034,-0.074,-0.065,-0.031,-0.015
0.002,-0.076,-0.078,0.037,0.04,-0.077,0.004,0.038,-0.06,-0.05,-0.021,-0.005
0.003,-0.073,-0.076,0.036,0.039,-0.074,0.009,0.052,-0.058,-0.044,-0.018,0.0
0.007,-0.064,-0.071,0.029,0.039,-0.067,0.01,0.061,-0.048,-0.035,-0.011,0.007
0.015,-0.055,-0.07,0.02,0.043,-0.062,0.011,0.077,-0.04,-0.024,0.001,0.019
0.039,-0.029,-0.068,-0.005,0.053,-0.048,0.014,0.101,-0.014,-0.003,0.025,0.032
0.056,-0.008,-0.065,-0.023,0.061,-0.036,0.016,0.115,0.019,0.028,0.061,0.051
0.078,0.014,-0.063,-0.046,0.07,-0.024,0.014,0.14,0.04,0.052,0.089,0.074
0.101,0.059,-0.042,-0.08,0.071,0.008,0.0,0.172,0.077,0.09,0.13,0.108
0.129,0.103,-0.026,-0.116,0.077,0.038,-0.018,0.205,0.121,0.145,0.185,0.145
0.186,0.167,-0.019,-0.176,0.102,0.074,-0.03,0.236,0.175,0.209,0.25,0.193
0.234,0.22,-0.014,-0.227,0.124,0.103,-0.041,0.243,0.217,0.263,0.313,0.243
0.266,0.261,-0.005,-0.264,0.135,0.128,-0.041,0.233,0.24,0.296,0.344,0.274
0.271,0.275,0.005,-0.273,0.133,0.14,-0.032,0.219,0.239,0.319,0.362,0.284
0.247,0.262,0.015,-0.255,0.116,0.138,-0.024,0.186,0.224,0.305,0.352,0.268
0.204,0.244,0.039,-0.224,0.082,0.141,0.009,0.144,0.195,0.254,0.302,0.254
0.139,0.179,0.04,-0.159,0.049,0.109,0.042,0.092,0.13,0.176,0.227,0.203
0.079,0.102,0.024,-0.091,0.027,0.063,0.056,0.036,0.062,0.09,0.143,0.136
0.03,0.045,0.015,-0.038,0.007,0.029,0.063,-0.005,-0.006,0.024,0.071,0.089
-0.008,-0.007,0.001,0.007,-0.004,-0.003,0.053,-0.036,-0.052,-0.034,0.022,0.057
-0.03,-0.043,-0.014,0.037,-0.008,-0.028,0.041,-0.054,-0.075,-0.055,0.005,0.041
-0.02,-0.046,-0.025,0.033,0.003,-0.035,0.03,-0.054,-0.082,-0.059,0.002,0.025
-0.004,-0.045,-0.041,0.025,0.019,-0.043,0.017,-0.05,-0.077,-0.071,-0.001,0.019
-0.006,-0.05,-0.044,0.028,0.019,-0.047,0.001,-0.05,-0.092,-0.066,-0.006,0.021
-0.013,-0.05,-0.037,0.032,0.012,-0.043,-0.015,-0.05,-0.099,-0.063,-0.01,0.02
-0.015,-0.049,-0.034,0.032,0.01,-0.041,-0.021,-0.05,-0.09,-0.06,-0.01,0.02
-0.016,-0.045,-0.028,0.031,0.006,-0.036,-0.023,-0.05,-0.085,-0.055,-0.01,0.02
-0.02,-0.045,-0.025,0.033,0.003,-0.035,-0.026,-0.046,-0.077,-0.053,-0.01,0.017
-0.023,-0.043,-0.019,0.033,-0.002,-0.031,-0.029,-0.04,-0.071,-0.049,-0.01,0.014
-0.023,-0.039,-0.017,0.031,-0.003,-0.027,-0.032,-0.035,-0.07,-0.047,-0.01,0.015
-0.031,-0.04,-0.009,0.036,-0.011,-0.025,-0.035,-0.029,-0.07,-0.044,-0.01,0.015
-0.025,-0.043,-0.018,0.034,-0.003,-0.03,-0.034,-0.024,-0.07,-0.041,-0.015,0.015
-0.005,-0.046,-0.042,0.026,0.019,-0.044,-0.03,-0.019,-0.07,-0.04,-0.015,0.014
-0.009,-0.049,-0.04,0.029,0.015,-0.044,-0.03,-0.014,-0.071,-0.047,-0.015,0.009
-0.012,-0.052,-0.04,0.032,0.014,-0.046,-0.03,-0.016,-0.075,-0.05,-0.015,0.011
-0.018,-0.055,-0.037,0.037,0.01,-0.046,-0.03,-0.014,-0.075,-0.05,-0.015,0.007
-0.023,-0.056,-0.034,0.04,0.006,-0.045,-0.03,-0.026,-0.074,-0.05,-0.018,0.005
-0.024,-0.06,-0.036,0.043,0.006,-0.048,-0.033,-0.045,-0.076,-0.053,-0.02,0.005
-0.033,-0.06,-0.027,0.047,-0.003,-0.043,-0.036,-0.044,-0.076,-0.06,-0.023,0.002
-0.038,-0.06,-0.022,0.049,-0.008,-0.041,-0.039,-0.048,-0.09,-0.062,-0.026,-0.001
-0.048,-0.06,-0.012,0.054,-0.018,-0.036,-0.042,-0.05,-0.101,-0.066,-0.029,-0.004
-0.037,-0.06,-0.022,0.049,-0.008,-0.041,-0.044,-0.051,-0.1,-0.069,-0.03,-0.007
-0.012,-0.064,-0.052,0.038,0.021,-0.058,-0.047,-0.055,-0.098,-0.073,-0.03,-0.01
-0.01,-0.065,-0.056,0.038,0.024,-0.06,-0.05,-0.055,-0.095,-0.075,-0.03,-0.009
-0.014,-0.065,-0.051,0.04,0.019,-0.058,-0.05,-0.055,-0.095,-0.075,-0.03,-0.005
-0.015,-0.065,-0.05,0.04,0.018,-0.057,-0.052,-0.055,-0.091,-0.075,-0.032,-0.003
-0.02,-0.065,-0.045,0.043,0.013,-0.055,-0.056,-0.055,-0.089,-0.075,-0.036,0.0
-0.018,-0.064,-0.045,0.041,0.014,-0.054,-0.055,-0.055,-0.09,-0.075,-0.035,0.003
-0.01,-0.06,-0.049,0.035,0.02,-0.054,-0.051,-0.055,-0.09,-0.075,-0.035,0.005
-0.006,-0.06,-0.054,0.034,0.024,-0.057,-0.05,-0.055,-0.09,-0.075,-0.035,0.002
-0.005,-0.058,-0.053,0.031,0.025,-0.055,-0.05,-0.055,-0.091,-0.075,-0.035,-0.002
-0.005,-0.054,-0.049,0.03,0.022,-0.051,-0.05,-0.055,-0.095,-0.075,-0.04,-0.005
-0.008,-0.055,-0.047,0.032,0.02,-0.051,-0.05,-0.055,-0.095,-0.075,-0.04,-0.009
-0.015,-0.058,-0.044,0.037,0.015,-0.051,-0.051,-0.055,-0.097,-0.077,-0.041,-0.009
-0.02,-0.061,-0.041,0.04,0.011,-0.051,-0.055,-0.055,-0.1,-0.08,-0.045,-0.005
-0.02,-0.06,-0.039,0.04,0.01,-0.049,-0.055,-0.055,-0.1,-0.08,-0.045,-0.005
-0.026,-0.06,-0.034,0.043,0.004,-0.047,-0.057,-0.055,-0.096,-0.08,-0.042,-0.005
-0.032,-0.06,-0.028,0.046,-0.002,-0.043,-0.06,-0.055,-0.095,-0.08,-0.04,-0.005
-0.041,-0.061,-0.02,0.052,-0.01,-0.04,-0.06,-0.058,-0.095,-0.08,-0.04,-0.005
-0.05,-0.065,-0.016,0.058,-0.016,-0.04,-0.056,-0.06,-0.09,-0.08,-0.04,-0.005
-0.06,-0.065,-0.005,0.063,-0.027,-0.035,-0.055,-0.06,-0.09,-0.08,-0.04,-0.005
-0.049,-0.065,-0.016,0.057,-0.016,-0.04,-0.055,-0.06,-0.09,-0.08,-0.039,-0.005
-0.019,-0.065,-0.046,0.043,0.014,-0.055,-0.055,-0.06,-0.09,-0.08,-0.036,-0.005
-0.021,-0.065,-0.043,0.043,0.011,-0.054,-0.055,-0.06,-0.09,-0.08,-0.033,-0.005
-0.032,-0.069,-0.036,0.051,0.002,-0.052,-0.055,-0.06,-0.09,-0.08,-0.031,-0.006
-0.035,-0.07,-0.035,0.053,0.0,-0.052,-0.055,-0.056,-0.09,-0.08,-0.027,-0.01
-0.043,-0.07,-0.027,0.056,-0.008,-0.049,-0.054,-0.055,-0.09,-0.08,-0.025,-0.01
-0.044,-0.07,-0.026,0.057,-0.009,-0.047,-0.061,-0.055,-0.09,-0.08,-0.024,-0.012
-0.042,-0.07,-0.029,0.056,-0.006,-0.05,-0.066,-0.055,-0.09,-0.08,-0.026,-0.015
-0.038,-0.069,-0.031,0.053,-0.003,-0.05,-0.064,-0.055,-0.09,-0.079,-0.027,-0.015
-0.035,-0.065,-0.029,0.05,-0.003,-0.046,-0.069,-0.055,-0.09,-0.076,-0.025,-0.012
-0.035,-0.066,-0.031,0.05,-0.002,-0.048,-0.07,-0.058,-0.09,-0.073,-0.033,-0.01
-0.021,-0.063,-0.041,0.042,0.01,-0.051,-0.069,-0.061,-0.09,-0.071,-0.036,-0.01
-0.016,-0.06,-0.044,0.038,0.014,-0.052,-0.065,-0.059,-0.091,-0.067,-0.035,-0.005
-0.025,-0.06,-0.035,0.043,0.005,-0.047,-0.064,-0.061,-0.09,-0.066,-0.036,-0.005
-0.025,-0.057,-0.032,0.041,0.004,-0.044,-0.066,-0.062,-0.09,-0.062,-0.035,-0.004
-0.03,-0.053,-0.024,0.042,-0.003,-0.039,-0.064,-0.057,-0.089,-0.06,-0.035,0.003
-0.031,-0.052,-0.021,0.041,-0.005,-0.036,-0.067,-0.05,-0.091,-0.058,-0.028,0.007
-0.022,-0.046,-0.024,0.034,0.001,-0.035,-0.058,-0.045,-0.082,-0.056,-0.019,0.013
-0.025,-0.009,0.016,0.017,-0.02,0.003,-0.039,-0.04,-0.066,-0.054,-0.01,0.018
-0.013,0.031,0.044,-0.009,-0.028,0.037,-0.009,-0.033,-0.065,-0.051,-0.001,0.025
-0.015,0.037,0.052,-0.011,-0.034,0.045,-0.007,-0.024,-0.065,-0.05,0.0,0.024
0.009,0.051,0.042,-0.031,-0.017,0.046,-0.056,-0.014,-0.064,-0.049,0.009,0.029
0.054,0.037,-0.017,-0.045,0.035,0.01,-0.083,-0.017,-0.066,-0.052,0.014,0.036
0.018,-0.023,-0.04,0.003,0.029,-0.031,-0.08,-0.052,-0.082,-0.046,-0.009,0.015
0.016,-0.039,-0.054,0.012,0.035,-0.046,-0.085,-0.065,-0.102,-0.064,-0.033,0.0
-0.008,-0.052,-0.044,0.03,0.018,-0.047,-0.089,-0.053,-0.088,-0.067,-0.034,0.004
-0.046,-0.076,-0.03,0.061,-0.008,-0.053,-0.088,-0.07,-0.105,-0.074,-0.05,-0.01
-0.023,-0.065,-0.042,0.044,0.01,-0.054,-0.091,-0.047,-0.095,-0.066,-0.039,-0.005
-0.04,-0.072,-0.032,0.057,-0.004,-0.052,-0.062,-0.072,-0.103,-0.08,-0.056,-0.026
-0.019,-0.085,-0.066,0.052,0.024,-0.075,-0.04,0.069,-0.08,-0.099,-0.083,-0.058
-0.038,-0.106,-0.069,0.072,0.016,-0.088,0.125,0.077,-0.029,-0.079,-0.083,-0.072
0.194,0.339,0.145,-0.267,0.024,0.242,-0.224,-0.44,0.267,0.279,0.265,0.228
0.677,1.083,0.406,-0.88,0.135,0.744,-1.208,-0.726,0.989,1.075,1.064,0.91
0.509,0.778,0.269,-0.644,0.119,0.523,-1.094,-0.638,0.592,0.783,0.868,0.791
0.078,0.105,0.027,-0.091,0.025,0.065,-0.288,-0.331,-0.301,-0.1,0.039,0.142
0.003,0.016,0.013,-0.01,-0.004,0.014,-0.045,-0.023,-0.233,-0.154,-0.08,0.024
-0.021,-0.044,-0.022,0.033,0.001,-0.033,0.014,0.018,-0.186,-0.144,-0.091,0.006
-0.029,-0.071,-0.043,0.05,0.007,-0.056,0.028,0.033,-0.188,-0.155,-0.12,-0.033
-0.035,-0.072,-0.038,0.053,0.002,-0.055,0.023,0.029,-0.155,-0.135,-0.099,-0.04
-0.042,-0.085,-0.043,0.064,0.0,-0.064,0.028,0.023,-0.169,-0.151,-0.113,-0.061
-0.041,-0.075,-0.034,0.059,-0.004,-0.054,0.017,0.025,-0.131,-0.118,-0.095,-0.054
-0.048,-0.084,-0.037,0.066,-0.005,-0.06,0.023,0.016,-0.136,-0.12,-0.105,-0.059
-0.043,-0.077,-0.033,0.061,-0.005,-0.055,0.017,0.025,-0.114,-0.099,-0.093,-0.047
-0.051,-0.082,-0.031,0.067,-0.01,-0.057,0.016,0.023,-0.119,-0.1,-0.091,-0.047
-0.049,-0.079,-0.03,0.064,-0.01,-0.054,0.01,0.028,-0.11,-0.09,-0.085,-0.041
-0.048,-0.077,-0.029,0.062,-0.009,-0.052,0.008,0.029,-0.107,-0.084,-0.079,-0.036
-0.044,-0.069,-0.025,0.057,-0.01,-0.047,0.004,0.031,-0.098,-0.079,-0.074,-0.033
-0.038,-0.063,-0.025,0.051,-0.006,-0.044,0.0,0.035,-0.086,-0.07,-0.068,-0.028
-0.03,-0.053,-0.023,0.042,-0.003,-0.038,0.0,0.04,-0.078,-0.058,-0.061,-0.026
-0.017,-0.032,-0.015,0.025,-0.001,-0.023,0.0,0.055,-0.058,-0.042,-0.054,-0.021
-0.001,-0.014,-0.013,0.007,0.006,-0.013,0.0,0.072,-0.037,-0.034,-0.048,-0.018
0.01,0.006,-0.004,-0.007,0.007,0.001,0.0,0.092,-0.021,-0.018,-0.032,-0.014
0.026,0.024,-0.002,-0.025,0.014,0.011,0.001,0.115,-0.009,0.002,0.002,-0.01
0.051,0.059,0.008,-0.056,0.022,0.033,-0.001,0.142,0.025,0.042,0.04,0.01
0.092,0.104,0.012,-0.098,0.04,0.058,-0.015,0.175,0.069,0.091,0.073,0.052
0.16,0.159,-0.001,-0.16,0.08,0.079,-0.033,0.203,0.12,0.141,0.132,0.094
0.195,0.223,0.028,-0.209,0.083,0.125,-0.044,0.225,0.167,0.202,0.192,0.136
0.216,0.269,0.053,-0.243,0.081,0.161,-0.052,0.226,0.197,0.254,0.249,0.183
0.251,0.3,0.048,-0.275,0.101,0.174,-0.053,0.212,0.215,0.288,0.282,0.207
0.262,0.322,0.059,-0.292,0.101,0.19,-0.049,0.198,0.21,0.291,0.281,0.206
0.241,0.305,0.064,-0.274,0.088,0.185,-0.026,0.172,0.204,0.263,0.267,0.192
0.188,0.243,0.055,-0.216,0.066,0.149,0.014,0.126,0.154,0.205,0.206,0.155
0.138,0.188,0.05,-0.163,0.044,0.118,0.041,0.073,0.084,0.125,0.12,0.091
0.083,0.125,0.042,-0.104,0.02,0.084,0.056,0.024,0.007,0.057,0.037,0.037
0.027,0.063,0.036,-0.045,-0.004,0.049,0.056,-0.011,-0.049,-0.001,-0.029,-0.015
-0.012,0.027,0.039,-0.008,-0.025,0.033,0.045,-0.025,-0.086,-0.053,-0.068,-0.06
-0.034,0.006,0.04,0.014,-0.037,0.023,0.037,-0.037,-0.109,-0.076,-0.087,-0.069
-0.045,-0.004,0.041,0.025,-0.043,0.018,0.027,-0.047,-0.102,-0.082,-0.095,-0.085
-0.051,-0.007,0.044,0.028,-0.047,0.018,0.019,-0.046,-0.129,-0.08,-0.096,-0.075
-0.051,-0.005,0.046,0.027,-0.048,0.021,0.013,-0.043,-0.088,-0.08,-0.094,-0.089
-0.047,-0.005,0.043,0.026,-0.044,0.019,0.006,-0.041,-0.138,-0.079,-0.096,-0.069
-0.046,-0.006,0.041,0.026,-0.043,0.017,-0.001,-0.037,-0.076,-0.072,-0.094,-0.093
-0.044,-0.004,0.04,0.024,-0.042,0.018,-0.008,-0.035,-0.139,-0.08,-0.096,-0.066
-0.044,-0.007,0.037,0.026,-0.04,0.014,-0.014,-0.032,-0.069,-0.049,-0.101,0.086
-0.053,-0.017,0.037,0.035,-0.045,0.01,-0.012,-0.019,0.314,-0.002,-0.099,0.017
-0.045,-0.016,0.03,0.03,-0.037,0.007,-0.009,-0.009,0.059,0.0,-0.101,-0.014
-0.073,-0.015,0.059,0.044,-0.066,0.022,-0.01,0.02,-0.044,0.0,-0.098,0.012
-0.053,-0.013,0.04,0.033,-0.046,0.013,-0.01,0.047,0.035,0.0,-0.103,-0.01
-0.002,-0.009,-0.007,0.005,0.002,-0.008,-0.011,0.044,-0.027,-0.001,-0.077,0.007
-0.014,-0.011,0.002,0.012,-0.008,-0.004,-0.008,0.045,0.019,0.0,-0.01,-0.004
-0.012,-0.013,0.0,0.012,-0.006,-0.006,-0.005,0.041,-0.012,-0.001,0.003,0.002
-0.016,-0.017,-0.001,0.016,-0.007,-0.008,-0.005,0.039,0.006,0.0,-0.003,-0.001
-0.02,-0.018,0.001,0.019,-0.011,-0.009,-0.005,0.041,-0.003,0.0,0.002,-0.001
-0.021,-0.023,-0.001,0.022,-0.01,-0.012,-0.005,0.028,0.001,0.0,-0.002,0.001
