-0.181,-0.438,-0.257,0.31,0.038,-0.347,0.121,0.051,0.082,-0.058,-0.052,-0.134
-0.151,-0.436,-0.284,0.294,0.067,-0.36,0.122,0.061,0.098,-0.027,-0.033,-0.128
-0.128,-0.405,-0.277,0.267,0.075,-0.341,0.113,0.065,0.117,-0.004,-0.017,-0.122
-0.119,-0.413,-0.295,0.266,0.088,-0.354,0.101,0.058,0.127,0.01,-0.005,-0.1
-0.113,-0.405,-0.292,0.259,0.089,-0.348,0.094,0.055,0.134,0.049,0.004,-0.07
-0.102,-0.388,-0.286,0.245,0.092,-0.336,0.106,0.05,0.17,0.063,0.054,-0.046
-0.085,-0.368,-0.283,0.227,0.099,-0.325,0.083,0.046,0.176,0.083,0.074,-0.033
-0.069,-0.346,-0.277,0.208,0.104,-0.311,0.058,0.041,0.175,0.112,0.078,-0.016
-0.023,-0.298,-0.275,0.161,0.127,-0.287,0.05,0.037,0.192,0.145,0.125,0.027
0.009,-0.273,-0.282,0.132,0.146,-0.277,0.032,0.034,0.202,0.185,0.165,0.044
0.014,-0.272,-0.286,0.129,0.15,-0.279,-0.005,0.03,0.221,0.23,0.217,0.087
0.072,-0.216,-0.288,0.072,0.18,-0.252,-0.032,0.027,0.235,0.269,0.267,0.156
0.134,-0.167,-0.301,0.017,0.218,-0.234,-0.052,0.022,0.265,0.33,0.336,0.186
0.184,-0.132,-0.316,-0.026,0.251,-0.224,-0.09,0.015,0.282,0.388,0.396,0.257
0.236,-0.086,-0.322,-0.075,0.28,-0.204,-0.12,-0.02,0.277,0.425,0.44,0.307
0.243,-0.025,-0.268,-0.109,0.256,-0.146,-0.143,-0.047,0.296,0.459,0.481,0.322
0.261,0.025,-0.236,-0.143,0.249,-0.106,-0.158,-0.045,0.298,0.475,0.497,0.355
0.229,-0.002,-0.232,-0.113,0.231,-0.117,-0.163,-0.042,0.282,0.473,0.504,0.373
0.17,-0.019,-0.189,-0.075,0.18,-0.104,-0.151,-0.041,0.274,0.425,0.447,0.331
0.153,-0.031,-0.184,-0.06,0.168,-0.107,-0.107,-0.036,0.261,0.366,0.369,0.234
0.08,-0.106,-0.186,0.014,0.133,-0.146,-0.039,0.003,0.254,0.294,0.293,0.169
0.031,-0.152,-0.183,0.061,0.107,-0.167,0.01,0.042,0.235,0.202,0.188,0.085
-0.024,-0.211,-0.187,0.118,0.082,-0.199,0.057,0.059,0.195,0.129,0.099,-0.003
-0.101,-0.283,-0.181,0.192,0.04,-0.232,0.089,0.061,0.16,0.06,0.034,-0.027
-0.091,-0.287,-0.196,0.19,0.053,-0.242,0.102,0.059,0.139,0.012,-0.008,-0.052
-0.096,-0.291,-0.195,0.193,0.05,-0.243,0.122,0.061,0.134,-0.005,-0.05,-0.098
-0.112,-0.301,-0.19,0.207,0.039,-0.245,0.12,0.059,0.132,-0.025,-0.07,-0.114
-0.143,-0.316,-0.172,0.23,0.015,-0.244,0.12,0.063,0.129,-0.037,-0.062,-0.108
-0.165,-0.314,-0.149,0.24,-0.007,-0.232,0.121,0.071,0.126,-0.033,-0.067,-0.107
-0.122,-0.318,-0.196,0.221,0.037,-0.257,0.119,0.072,0.124,-0.048,-0.076,-0.105
-0.118,-0.322,-0.204,0.22,0.043,-0.263,0.121,0.068,0.121,-0.054,-0.078,-0.104
-0.113,-0.306,-0.193,0.21,0.04,-0.249,0.119,0.066,0.116,-0.042,-0.068,-0.101
-0.14,-0.317,-0.178,0.229,0.019,-0.247,0.12,0.062,0.114,-0.039,-0.064,-0.116
-0.148,-0.296,-0.148,0.222,0.001,-0.222,0.12,0.059,0.109,-0.03,-0.055,-0.122
-0.112,-0.281,-0.169,0.197,0.029,-0.225,0.12,0.063,0.105,-0.025,-0.051,-0.115
-0.125,-0.291,-0.166,0.208,0.021,-0.228,0.12,0.065,0.105,-0.039,-0.061,-0.115
-0.111,-0.278,-0.167,0.195,0.028,-0.222,0.113,0.068,0.105,-0.037,-0.057,-0.111
-0.121,-0.276,-0.154,0.199,0.017,-0.215,0.105,0.071,0.105,-0.033,-0.052,-0.11
-0.129,-0.27,-0.141,0.2,0.006,-0.205,0.1,0.074,0.105,-0.051,-0.046,-0.106
-0.096,-0.235,-0.14,0.166,0.022,-0.187,0.09,0.076,0.113,-0.03,-0.04,-0.099
-0.099,-0.214,-0.115,0.157,0.008,-0.164,0.086,0.058,0.117,-0.004,-0.035,-0.098
-0.098,-0.185,-0.086,0.142,-0.006,-0.136,0.071,0.029,0.111,-0.003,-0.028,-0.085
-0.108,-0.149,-0.04,0.129,-0.034,-0.094,0.043,-0.01,0.112,0.009,-0.017,-0.045
-0.111,-0.14,-0.029,0.126,-0.041,-0.084,0.031,-0.032,0.095,0.003,-0.011,-0.036
-0.058,-0.126,-0.068,0.092,0.005,-0.097,0.039,-0.026,0.056,-0.035,-0.031,-0.043
-0.038,-0.164,-0.126,0.101,0.044,-0.144,0.037,-0.019,0.039,-0.079,-0.064,-0.066
-0.064,-0.226,-0.161,0.145,0.049,-0.193,0.043,-0.012,0.035,-0.105,-0.088,-0.109
-0.118,-0.287,-0.169,0.202,0.026,-0.228,0.093,-0.006,0.023,-0.126,-0.11,-0.128
-0.154,-0.324,-0.169,0.239,0.008,-0.246,0.113,0.0,0.018,-0.136,-0.124,-0.142
-0.154,-0.35,-0.196,0.252,0.021,-0.273,0.109,0.007,0.011,-0.163,-0.152,-0.157
-0.163,-0.363,-0.201,0.263,0.019,-0.282,0.108,0.018,0.008,-0.169,-0.155,-0.168
-0.163,-0.375,-0.212,0.269,0.025,-0.293,0.124,0.032,0.018,-0.161,-0.17,-0.19
-0.172,-0.412,-0.24,0.292,0.034,-0.326,0.135,0.028,0.028,-0.164,-0.188,-0.21
-0.223,-0.417,-0.194,0.321,-0.015,-0.306,0.136,0.023,0.034,-0.13,-0.14,-0.186
-0.226,-0.426,-0.2,0.326,-0.013,-0.313,0.187,0.086,0.072,-0.155,-0.189,-0.231
-0.128,-0.345,-0.217,0.237,0.044,-0.281,0.216,0.161,0.206,0.005,-0.074,-0.184
-0.018,-0.306,-0.288,0.163,0.135,-0.297,0.098,0.093,0.205,0.224,0.264,0.12
0.339,0.003,-0.336,-0.17,0.337,-0.166,-0.169,-0.034,0.225,0.667,0.857,0.635
0.342,0.283,-0.059,-0.312,0.2,0.112,-0.261,-0.264,0.019,0.601,0.763,0.703
-0.33,-0.17,0.161,0.25,-0.246,-0.005,0.02,-0.342,-0.544,-0.659,-0.497,-0.127
-0.541,-0.508,0.034,0.525,-0.287,-0.237,0.313,-0.017,-0.499,-1.078,-0.932,-0.582
-0.461,-0.574,-0.113,0.518,-0.174,-0.343,0.366,0.079,-0.321,-0.78,-0.696,-0.498
-0.388,-0.528,-0.14,0.458,-0.124,-0.333,0.255,-0.001,-0.288,-0.608,-0.535,-0.405
-0.213,-0.343,-0.13,0.278,-0.041,-0.236,0.13,0.031,-0.053,-0.261,-0.241,-0.221
-0.181,-0.331,-0.15,0.256,-0.015,-0.24,0.113,0.019,0.037,-0.147,-0.149,-0.16
-0.127,-0.318,-0.192,0.223,0.033,-0.255,0.115,0.038,0.054,-0.1,-0.093,-0.129
-0.109,-0.301,-0.192,0.205,0.042,-0.246,0.103,0.042,0.063,-0.075,-0.08,-0.113
-0.108,-0.293,-0.185,0.201,0.039,-0.239,0.102,0.03,0.085,-0.061,-0.058,-0.095
-0.091,-0.273,-0.182,0.183,0.045,-0.227,0.093,0.025,0.1,-0.026,-0.02,-0.07
-0.093,-0.266,-0.173,0.18,0.04,-0.219,0.08,0.017,0.092,-0.017,-0.023,-0.06
-0.078,-0.25,-0.172,0.164,0.048,-0.211,0.056,0.023,0.117,0.025,0.029,-0.041
-0.07,-0.244,-0.174,0.157,0.052,-0.208,0.039,0.014,0.121,0.049,0.048,-0.03
-0.057,-0.228,-0.172,0.143,0.058,-0.199,0.023,-0.014,0.124,0.064,0.061,0.015
-0.011,-0.173,-0.162,0.092,0.076,-0.167,0.01,-0.022,0.153,0.112,0.121,0.056
0.047,-0.119,-0.165,0.036,0.106,-0.142,-0.007,-0.014,0.156,0.15,0.146,0.066
0.084,-0.092,-0.176,0.005,0.13,-0.134,-0.043,-0.022,0.171,0.189,0.205,0.12
0.128,-0.047,-0.175,-0.04,0.152,-0.111,-0.077,-0.035,0.199,0.254,0.282,0.181
0.161,-0.01,-0.171,-0.075,0.166,-0.09,-0.112,-0.045,0.197,0.284,0.315,0.218
0.203,0.033,-0.17,-0.118,0.187,-0.069,-0.153,-0.072,0.205,0.33,0.375,0.277
0.223,0.056,-0.167,-0.139,0.195,-0.055,-0.177,-0.093,0.211,0.358,0.412,0.317
0.252,0.097,-0.154,-0.174,0.203,-0.028,-0.2,-0.09,0.209,0.365,0.45,0.347
0.266,0.123,-0.142,-0.194,0.204,-0.01,-0.207,-0.103,0.206,0.379,0.454,0.346
0.207,0.083,-0.124,-0.145,0.165,-0.02,-0.174,-0.101,0.202,0.332,0.4,0.314
0.18,0.081,-0.099,-0.13,0.139,-0.008,-0.131,-0.072,0.201,0.29,0.352,0.242
0.124,0.063,-0.061,-0.093,0.093,0.001,-0.083,-0.053,0.197,0.242,0.251,0.153
0.02,-0.015,-0.035,-0.002,0.027,-0.025,-0.048,-0.022,0.189,0.166,0.17,0.093
-0.045,-0.081,-0.036,0.064,-0.004,-0.058,-0.011,0.008,0.16,0.088,0.098,0.021
-0.076,-0.126,-0.05,0.101,-0.012,-0.088,0.032,0.02,0.127,0.026,0.02,-0.047
-0.07,-0.148,-0.078,0.109,0.005,-0.113,0.059,0.033,0.115,-0.008,-0.019,-0.078
-0.086,-0.161,-0.075,0.124,-0.005,-0.118,0.079,0.04,0.104,-0.053,-0.057,-0.095
-0.126,-0.195,-0.069,0.161,-0.028,-0.132,0.079,0.04,0.092,-0.077,-0.084,-0.125
-0.121,-0.183,-0.062,0.152,-0.029,-0.122,0.09,0.04,0.085,-0.08,-0.09,-0.13
-0.113,-0.177,-0.064,0.145,-0.024,-0.12,0.101,0.04,0.085,-0.071,-0.081,-0.12
-0.099,-0.2,-0.101,0.15,0.001,-0.15,0.089,0.04,0.084,-0.061,-0.079,-0.12
-0.088,-0.177,-0.089,0.133,0.001,-0.133,0.085,0.038,0.079,-0.084,-0.074,-0.112
-0.112,-0.17,-0.058,0.141,-0.027,-0.113,0.077,0.031,0.081,-0.097,-0.07,-0.111
-0.122,-0.181,-0.059,0.152,-0.032,-0.12,0.071,0.026,0.077,-0.098,-0.077,-0.114
-0.097,-0.18,-0.083,0.139,-0.006,-0.131,0.075,0.022,0.074,-0.101,-0.081,-0.117
-0.077,-0.165,-0.087,0.121,0.005,-0.126,0.077,0.013,0.069,-0.105,-0.086,-0.12
-0.089,-0.163,-0.074,0.126,-0.007,-0.118,0.074,0.013,0.067,-0.104,-0.091,-0.122
-0.109,-0.185,-0.075,0.147,-0.017,-0.13,0.071,-0.004,0.061,-0.101,-0.103,-0.126
-0.122,-0.163,-0.04,0.142,-0.041,-0.101,0.068,0.003,0.061,-0.112,-0.099,-0.122
-0.082,-0.118,-0.037,0.1,-0.022,-0.077,0.066,0.043,0.078,-0.093,-0.066,-0.11
-0.028,-0.085,-0.057,0.057,0.015,-0.071,0.063,0.035,0.08,-0.077,-0.048,-0.097
-0.027,-0.059,-0.031,0.043,0.002,-0.045,0.053,0.023,0.089,-0.082,-0.051,-0.09
-0.036,-0.022,0.013,0.029,-0.024,-0.004,0.03,-0.011,0.091,-0.078,-0.048,-0.087
-0.032,0.024,0.056,0.004,-0.044,0.039,-0.011,-0.057,0.064,-0.08,-0.044,-0.07
-0.025,0.039,0.064,-0.007,-0.045,0.052,-0.047,-0.063,0.038,-0.08,-0.048,-0.06
-0.007,0.037,0.044,-0.016,-0.025,0.04,-0.04,-0.065,0.019,-0.081,-0.04,-0.052
0.006,-0.022,-0.028,0.008,0.018,-0.025,-0.016,-0.056,0.006,-0.116,-0.066,-0.064
-0.034,-0.106,-0.072,0.07,0.019,-0.088,0.002,-0.053,-0.001,-0.155,-0.11,-0.113
-0.107,-0.157,-0.05,0.132,-0.028,-0.103,0.041,-0.038,-0.01,-0.174,-0.134,-0.132
-0.114,-0.194,-0.08,0.155,-0.017,-0.137,0.065,-0.022,-0.012,-0.184,-0.147,-0.141
-0.128,-0.227,-0.1,0.178,-0.014,-0.163,0.063,-0.03,-0.02,-0.206,-0.177,-0.172
-0.144,-0.236,-0.092,0.19,-0.025,-0.164,0.071,-0.018,-0.026,-0.207,-0.192,-0.18
-0.112,-0.248,-0.136,0.18,0.012,-0.191,0.078,-0.013,-0.027,-0.192,-0.18,-0.172
-0.132,-0.27,-0.138,0.202,0.003,-0.204,0.11,0.005,-0.028,-0.211,-0.194,-0.184
-0.145,-0.251,-0.107,0.198,-0.019,-0.179,0.117,0.014,-0.004,-0.176,-0.16,-0.16
-0.154,-0.268,-0.113,0.211,-0.02,-0.19,0.154,0.054,0.026,-0.21,-0.221,-0.235
-0.147,-0.208,-0.061,0.178,-0.043,-0.134,0.182,0.145,0.153,-0.056,-0.106,-0.212
0.039,-0.121,-0.159,0.041,0.099,-0.14,0.056,0.087,0.196,0.199,0.243,0.092
0.427,0.133,-0.293,-0.28,0.36,-0.08,-0.214,-0.04,0.234,0.669,0.837,0.612
0.396,0.36,-0.036,-0.378,0.216,0.162,-0.36,-0.32,-0.044,0.625,0.825,0.764
-0.229,-0.061,0.168,0.145,-0.198,0.053,-0.066,-0.445,-0.714,-0.763,-0.478,-0.038
-0.53,-0.465,0.066,0.497,-0.298,-0.199,0.254,-0.117,-0.696,-1.258,-1.023,-0.587
-0.47,-0.505,-0.035,0.487,-0.217,-0.269,0.286,-0.01,-0.462,-0.886,-0.757,-0.519
-0.347,-0.4,-0.054,0.374,-0.146,-0.227,0.196,-0.045,-0.325,-0.654,-0.552,-0.384
-0.185,-0.225,-0.04,0.205,-0.072,-0.132,0.106,-0.007,-0.068,-0.276,-0.234,-0.207
-0.132,-0.198,-0.066,0.165,-0.033,-0.132,0.091,-0.017,-0.013,-0.185,-0.16,-0.159
-0.11,-0.194,-0.084,0.152,-0.012,-0.138,0.077,-0.005,0.029,-0.132,-0.114,-0.131
-0.109,-0.187,-0.078,0.148,-0.016,-0.132,0.065,-0.012,0.04,-0.105,-0.089,-0.121
-0.099,-0.181,-0.081,0.14,-0.009,-0.131,0.056,-0.003,0.045,-0.093,-0.077,-0.112
-0.099,-0.178,-0.079,0.138,-0.01,-0.129,0.045,-0.006,0.065,-0.056,-0.049,-0.083
-0.089,-0.169,-0.081,0.129,-0.004,-0.125,0.043,-0.002,0.073,-0.048,-0.033,-0.073
-0.054,-0.13,-0.076,0.093,0.011,-0.103,0.034,-0.003,0.084,-0.018,0.001,-0.051
-0.029,-0.103,-0.074,0.067,0.023,-0.089,0.026,-0.014,0.102,0.007,0.021,-0.017
-0.003,-0.078,-0.075,0.041,0.036,-0.076,0.013,-0.002,0.13,0.052,0.07,0.013
0.0,-0.07,-0.07,0.035,0.035,-0.07,-0.016,-0.006,0.135,0.085,0.104,0.033
0.031,-0.039,-0.07,0.004,0.051,-0.054,-0.04,-0.012,0.16,0.136,0.145,0.072
0.069,-0.002,-0.071,-0.033,0.07,-0.036,-0.064,-0.016,0.175,0.192,0.209,0.121
0.124,0.049,-0.076,-0.086,0.1,-0.013,-0.101,-0.031,0.2,0.249,0.27,0.166
0.186,0.101,-0.085,-0.143,0.135,0.008,-0.141,-0.052,0.226,0.311,0.331,0.224
0.224,0.149,-0.075,-0.187,0.15,0.037,-0.165,-0.057,0.246,0.365,0.398,0.295
0.28,0.214,-0.066,-0.247,0.173,0.073,-0.195,-0.065,0.266,0.405,0.447,0.338
0.298,0.224,-0.074,-0.261,0.186,0.074,-0.223,-0.081,0.258,0.425,0.466,0.36
0.261,0.206,-0.055,-0.233,0.157,0.075,-0.219,-0.076,0.251,0.428,0.477,0.359
0.228,0.206,-0.022,-0.217,0.125,0.092,-0.206,-0.069,0.24,0.406,0.451,0.332
0.204,0.204,0.0,-0.204,0.102,0.101,-0.173,-0.063,0.231,0.346,0.371,0.277
0.127,0.151,0.023,-0.14,0.052,0.087,-0.122,-0.055,0.213,0.261,0.268,0.176
0.036,0.071,0.036,-0.054,0.0,0.054,-0.071,-0.039,0.181,0.16,0.167,0.086
-0.022,0.017,0.039,0.003,-0.031,0.028,-0.024,-0.017,0.146,0.075,0.08,0.024
-0.069,-0.025,0.044,0.047,-0.056,0.01,0.021,-0.016,0.104,0.005,0.008,-0.025
-0.094,-0.054,0.039,0.073,-0.066,-0.007,0.058,-0.014,0.077,-0.04,-0.034,-0.046
-0.102,-0.102,0.0,0.102,-0.051,-0.051,0.061,-0.017,0.031,-0.094,-0.08,-0.079
-0.123,-0.126,-0.003,0.125,-0.06,-0.064,0.056,-0.033,0.018,-0.141,-0.118,-0.111
-0.14,-0.106,0.033,0.123,-0.086,-0.036,0.055,-0.024,0.047,-0.134,-0.113,-0.11
-0.13,-0.104,0.025,0.117,-0.077,-0.039,0.049,-0.014,0.045,-0.127,-0.111,-0.11
-0.121,-0.102,0.019,0.111,-0.07,-0.041,0.051,-0.016,0.045,-0.122,-0.108,-0.11
-0.102,-0.096,0.006,0.099,-0.054,-0.045,0.041,-0.013,0.045,-0.113,-0.105,-0.11
-0.096,-0.095,0.001,0.096,-0.048,-0.047,0.052,-0.01,0.045,-0.11,-0.104,-0.109
-0.09,-0.087,0.003,0.089,-0.047,-0.042,0.081,-0.01,0.043,-0.104,-0.1,-0.104
-0.092,-0.093,-0.001,0.092,-0.045,-0.047,0.076,-0.008,0.038,-0.105,-0.098,-0.101
-0.118,-0.087,0.031,0.102,-0.075,-0.027,0.072,-0.003,0.035,-0.12,-0.095,-0.097
-0.13,-0.094,0.036,0.112,-0.083,-0.029,0.069,0.002,0.032,-0.12,-0.091,-0.094
-0.137,-0.111,0.026,0.124,-0.081,-0.043,0.061,0.004,0.027,-0.114,-0.091,-0.09
-0.103,-0.076,0.027,0.089,-0.065,-0.024,0.053,-0.003,0.026,-0.116,-0.086,-0.087
-0.084,-0.039,0.045,0.061,-0.064,0.003,0.046,-0.018,0.039,-0.115,-0.08,-0.082
-0.07,-0.01,0.06,0.04,-0.065,0.025,0.037,-0.022,0.049,-0.114,-0.072,-0.076
-0.071,-0.007,0.064,0.039,-0.067,0.028,0.029,-0.017,0.045,-0.116,-0.066,-0.073
-0.082,0.028,0.109,0.027,-0.096,0.068,0.002,-0.03,0.03,-0.114,-0.061,-0.066
-0.051,0.086,0.137,-0.018,-0.094,0.111,-0.062,-0.054,0.005,-0.115,-0.065,-0.066
-0.043,0.085,0.128,-0.021,-0.085,0.106,-0.074,-0.065,-0.004,-0.116,-0.069,-0.07
-0.023,0.058,0.081,-0.018,-0.052,0.069,-0.055,-0.059,-0.024,-0.112,-0.066,-0.07
-0.038,-0.009,0.029,0.023,-0.034,0.01,-0.039,-0.046,-0.048,-0.156,-0.105,-0.07
-0.087,-0.07,0.018,0.078,-0.052,-0.026,-0.007,-0.038,-0.051,-0.179,-0.128,-0.082
-0.144,-0.132,0.012,0.138,-0.078,-0.06,0.026,-0.027,-0.074,-0.203,-0.162,-0.138
-0.144,-0.162,-0.018,0.153,-0.063,-0.09,0.043,-0.017,-0.07,-0.226,-0.188,-0.159
-0.12,-0.191,-0.071,0.156,-0.024,-0.131,0.032,-0.009,-0.069,-0.235,-0.194,-0.16
-0.141,-0.212,-0.071,0.176,-0.034,-0.141,0.037,0.002,-0.058,-0.227,-0.193,-0.17
-0.161,-0.22,-0.059,0.191,-0.05,-0.139,0.063,0.002,-0.057,-0.239,-0.207,-0.188
-0.155,-0.21,-0.054,0.183,-0.05,-0.132,0.073,0.018,-0.05,-0.239,-0.195,-0.185
-0.179,-0.224,-0.045,0.202,-0.066,-0.134,0.09,0.022,-0.025,-0.233,-0.204,-0.18
-0.217,-0.238,-0.021,0.228,-0.098,-0.129,0.144,0.093,0.022,-0.218,-0.235,-0.225
-0.133,-0.145,-0.012,0.139,-0.06,-0.078,0.138,0.156,0.147,0.017,-0.001,-0.083
0.139,-0.053,-0.192,-0.043,0.165,-0.122,-0.05,0.058,0.172,0.306,0.408,0.261
0.552,0.324,-0.227,-0.438,0.389,0.049,-0.343,-0.116,0.19,0.811,0.953,0.723
0.268,0.357,0.089,-0.312,0.089,0.223,-0.328,-0.414,-0.307,0.23,0.423,0.546
-0.401,-0.199,0.201,0.3,-0.301,0.001,0.052,-0.377,-0.871,-1.117,-0.812,-0.278
-0.535,-0.449,0.086,0.492,-0.31,-0.181,0.274,-0.087,-0.682,-1.145,-0.943,-0.558
-0.489,-0.43,0.06,0.459,-0.274,-0.185,0.249,-0.037,-0.499,-0.828,-0.696,-0.452
-0.329,-0.274,0.055,0.301,-0.192,-0.109,0.152,0.016,-0.274,-0.507,-0.422,-0.301
-0.217,-0.184,0.033,0.2,-0.125,-0.075,0.071,0.03,-0.072,-0.229,-0.207,-0.173
-0.183,-0.198,-0.015,0.19,-0.084,-0.106,0.056,0.015,-0.053,-0.214,-0.183,-0.152
-0.132,-0.167,-0.035,0.15,-0.048,-0.101,0.048,0.023,-0.002,-0.14,-0.119,-0.118
-0.133,-0.158,-0.025,0.146,-0.054,-0.091,0.044,0.009,-0.001,-0.126,-0.1,-0.1
-0.092,-0.119,-0.027,0.106,-0.032,-0.072,0.037,0.013,0.023,-0.074,-0.053,-0.079
-0.081,-0.1,-0.019,0.09,-0.031,-0.059,0.033,0.008,0.034,-0.076,-0.051,-0.089
-0.075,-0.1,-0.024,0.088,-0.025,-0.062,0.021,0.011,0.041,-0.047,-0.027,-0.089
-0.053,-0.1,-0.047,0.077,-0.003,-0.073,0.015,0.01,0.059,-0.024,-0.009,-0.049
-0.035,-0.079,-0.045,0.057,0.005,-0.062,-0.016,0.009,0.063,-0.009,0.017,-0.006
-0.01,-0.043,-0.033,0.027,0.012,-0.038,-0.046,0.014,0.092,0.053,0.076,0.02
0.004,-0.024,-0.028,0.01,0.016,-0.026,-0.038,0.018,0.126,0.065,0.084,0.018
0.03,0.029,0.0,-0.029,0.015,0.014,-0.075,0.007,0.134,0.124,0.132,0.065
0.087,0.074,-0.013,-0.081,0.05,0.03,-0.102,-0.005,0.165,0.204,0.231,0.152
0.145,0.098,-0.047,-0.121,0.096,0.025,-0.131,-0.016,0.184,0.253,0.293,0.21
0.202,0.162,-0.041,-0.182,0.121,0.06,-0.181,-0.037,0.197,0.304,0.338,0.256
0.257,0.221,-0.036,-0.239,0.146,0.093,-0.208,-0.057,0.21,0.344,0.383,0.298
0.268,0.237,-0.031,-0.253,0.149,0.103,-0.234,-0.071,0.225,0.391,0.429,0.341
0.262,0.245,-0.017,-0.254,0.14,0.113,-0.237,-0.074,0.236,0.407,0.466,0.364
0.265,0.268,0.004,-0.266,0.13,0.136,-0.228,-0.063,0.219,0.381,0.449,0.353
0.219,0.269,0.049,-0.244,0.085,0.159,-0.208,-0.064,0.207,0.353,0.397,0.3
0.151,0.222,0.071,-0.186,0.04,0.146,-0.161,-0.063,0.19,0.287,0.3,0.226
0.101,0.17,0.068,-0.136,0.016,0.119,-0.104,-0.03,0.174,0.203,0.217,0.162
0.027,0.103,0.076,-0.065,-0.024,0.089,-0.05,-0.013,0.135,0.112,0.127,0.079
-0.039,0.026,0.066,0.006,-0.053,0.046,-0.013,-0.007,0.082,0.016,0.018,-0.01
-0.037,0.013,0.05,0.012,-0.044,0.031,0.013,0.009,0.054,-0.035,-0.015,-0.054
-0.064,-0.009,0.055,0.036,-0.059,0.022,0.051,0.025,0.042,-0.08,-0.076,-0.086
-0.092,-0.035,0.057,0.063,-0.074,0.011,0.067,0.031,0.033,-0.112,-0.103,-0.119
-0.101,-0.051,0.049,0.076,-0.075,-0.001,0.057,0.03,0.022,-0.127,-0.103,-0.117
-0.126,-0.083,0.043,0.104,-0.084,-0.02,0.05,0.03,0.014,-0.162,-0.149,-0.114
-0.088,-0.06,0.028,0.074,-0.058,-0.016,0.049,0.03,0.009,-0.168,-0.13,-0.108
-0.089,-0.053,0.036,0.071,-0.062,-0.008,0.056,0.03,0.003,-0.158,-0.113,-0.105
-0.118,-0.078,0.041,0.098,-0.079,-0.018,0.054,0.026,-0.003,-0.153,-0.137,-0.136
-0.101,-0.079,0.022,0.09,-0.061,-0.028,0.05,0.019,-0.003,-0.145,-0.144,-0.127
-0.08,-0.023,0.057,0.051,-0.069,0.017,0.048,0.012,0.003,-0.141,-0.124,-0.094
-0.114,-0.034,0.08,0.074,-0.097,0.022,0.043,0.006,0.007,-0.14,-0.12,-0.12
-0.119,-0.059,0.06,0.089,-0.089,0.001,0.048,-0.002,0.01,-0.14,-0.14,-0.143
-0.102,-0.058,0.043,0.08,-0.072,-0.008,0.057,-0.003,0.004,-0.14,-0.139,-0.117
-0.108,-0.102,0.006,0.105,-0.057,-0.048,0.056,0.003,0.001,-0.141,-0.141,-0.107
-0.099,-0.048,0.051,0.073,-0.074,0.001,0.047,0.013,0.01,-0.136,-0.138,-0.117
-0.105,-0.014,0.09,0.059,-0.097,0.038,0.042,0.015,0.014,-0.122,-0.097,-0.115
-0.089,-0.012,0.077,0.051,-0.083,0.032,0.034,0.024,0.026,-0.107,-0.083,-0.1
-0.064,0.03,0.094,0.017,-0.079,0.062,0.026,0.012,0.032,-0.111,-0.1,-0.094
-0.028,0.081,0.11,-0.027,-0.069,0.095,0.009,-0.036,0.012,-0.108,-0.094,-0.088
-0.066,0.109,0.175,-0.022,-0.121,0.142,-0.037,-0.053,-0.012,-0.112,-0.105,-0.092
-0.079,0.112,0.19,-0.017,-0.135,0.151,-0.056,-0.072,-0.041,-0.114,-0.101,-0.085
-0.045,0.061,0.105,-0.008,-0.075,0.083,-0.048,-0.077,-0.07,-0.136,-0.107,-0.059
-0.046,0.039,0.085,0.003,-0.066,0.062,-0.037,-0.066,-0.09,-0.189,-0.148,-0.112
-0.103,-0.018,0.085,0.061,-0.094,0.033,-0.008,-0.068,-0.105,-0.202,-0.151,-0.154
-0.185,-0.152,0.033,0.168,-0.109,-0.059,0.026,-0.058,-0.1,-0.241,-0.203,-0.164
-0.162,-0.136,0.026,0.149,-0.094,-0.054,0.037,-0.066,-0.092,-0.253,-0.224,-0.197
-0.146,-0.145,0.001,0.146,-0.074,-0.072,0.05,-0.063,-0.091,-0.249,-0.209,-0.204
-0.11,-0.143,-0.033,0.127,-0.038,-0.088,0.067,-0.038,-0.079,-0.234,-0.209,-0.194
-0.112,-0.118,-0.006,0.116,-0.053,-0.062,0.08,-0.015,-0.081,-0.239,-0.226,-0.207
-0.152,-0.15,0.002,0.151,-0.076,-0.074,0.099,-0.009,-0.068,-0.22,-0.204,-0.188
-0.172,-0.206,-0.033,0.189,-0.069,-0.119,0.102,0.0,-0.061,-0.219,-0.231,-0.212
-0.167,-0.17,-0.004,0.168,-0.081,-0.087,0.164,0.091,0.035,-0.178,-0.234,-0.259
-0.092,-0.113,-0.021,0.102,-0.035,-0.066,0.131,0.093,0.128,0.017,-0.01,-0.103
0.183,0.017,-0.166,-0.1,0.175,-0.075,-0.091,0.009,0.122,0.338,0.49,0.328
0.49,0.426,-0.063,-0.458,0.276,0.182,-0.304,-0.16,0.121,0.784,0.994,0.815
0.047,0.31,0.263,-0.179,-0.108,0.286,-0.221,-0.397,-0.37,-0.007,0.165,0.386
-0.467,-0.158,0.309,0.312,-0.388,0.076,0.137,-0.259,-0.71,-1.126,-0.929,-0.465
-0.484,-0.353,0.132,0.419,-0.308,-0.11,0.307,-0.032,-0.501,-0.988,-0.869,-0.578
-0.46,-0.387,0.073,0.423,-0.266,-0.157,0.261,-0.016,-0.447,-0.777,-0.685,-0.464
-0.291,-0.22,0.071,0.255,-0.181,-0.074,0.153,-0.028,-0.269,-0.499,-0.441,-0.31
-0.186,-0.138,0.048,0.162,-0.117,-0.045,0.088,-0.045,-0.093,-0.229,-0.212,-0.179
-0.117,-0.123,-0.006,0.12,-0.055,-0.064,0.088,-0.034,-0.061,-0.208,-0.18,-0.166
-0.032,-0.065,-0.034,0.049,0.001,-0.049,0.069,-0.035,-0.022,-0.144,-0.116,-0.121
-0.049,-0.063,-0.014,0.056,-0.018,-0.038,0.065,-0.03,-0.02,-0.123,-0.088,-0.107
-0.047,-0.058,-0.011,0.053,-0.018,-0.035,0.052,-0.03,0.002,-0.076,-0.09,-0.09
-0.071,-0.054,0.017,0.063,-0.044,-0.018,0.046,-0.017,0.012,-0.061,-0.071,-0.079
-0.063,-0.03,0.033,0.047,-0.048,0.001,0.04,-0.009,0.027,-0.044,-0.021,-0.055
-0.01,0.016,0.026,-0.003,-0.018,0.021,0.033,-0.033,0.039,-0.008,0.025,-0.032
0.023,0.049,0.026,-0.037,-0.001,0.037,0.019,-0.035,0.062,0.014,0.056,-0.011
0.032,0.053,0.021,-0.043,0.006,0.037,-0.021,-0.035,0.066,0.052,0.071,0.032
0.042,0.062,0.02,-0.052,0.011,0.041,-0.037,-0.035,0.069,0.099,0.117,0.077
0.083,0.109,0.026,-0.097,0.028,0.067,-0.054,-0.05,0.086,0.15,0.172,0.129
0.116,0.152,0.036,-0.134,0.04,0.094,-0.088,-0.059,0.107,0.215,0.252,0.184
0.15,0.204,0.053,-0.177,0.048,0.128,-0.12,-0.071,0.13,0.269,0.32,0.243
0.193,0.235,0.042,-0.214,0.075,0.138,-0.161,-0.098,0.129,0.303,0.37,0.308
0.216,0.25,0.034,-0.234,0.091,0.142,-0.194,-0.112,0.13,0.349,0.43,0.35
0.241,0.31,0.069,-0.276,0.086,0.189,-0.222,-0.124,0.13,0.38,0.459,0.379
0.268,0.336,0.068,-0.302,0.1,0.202,-0.225,-0.119,0.13,0.382,0.473,0.384
0.231,0.325,0.094,-0.278,0.068,0.209,-0.199,-0.109,0.13,0.372,0.446,0.369
0.161,0.302,0.141,-0.231,0.01,0.221,-0.162,-0.102,0.121,0.329,0.389,0.334
0.131,0.272,0.14,-0.202,-0.005,0.206,-0.117,-0.082,0.109,0.258,0.289,0.218
0.103,0.23,0.127,-0.167,-0.012,0.178,-0.072,-0.055,0.098,0.182,0.188,0.136
0.037,0.15,0.113,-0.093,-0.038,0.131,-0.023,-0.024,0.083,0.107,0.111,0.063
-0.029,0.095,0.124,-0.033,-0.077,0.109,0.019,-0.009,0.05,0.047,0.015,-0.033
-0.062,0.046,0.108,0.007,-0.085,0.077,0.05,-0.005,0.034,-0.018,-0.043,-0.042
-0.074,0.013,0.087,0.031,-0.081,0.05,0.063,0.0,0.032,-0.066,-0.078,-0.068
-0.059,0.032,0.091,0.014,-0.075,0.061,0.074,0.003,0.028,-0.079,-0.104,-0.108
-0.067,0.017,0.083,0.025,-0.076,0.05,0.086,0.01,0.025,-0.089,-0.109,-0.111
-0.104,-0.02,0.084,0.062,-0.094,0.031,0.085,0.008,0.02,-0.09,-0.102,-0.109
-0.099,-0.02,0.079,0.059,-0.089,0.029,0.085,0.005,0.02,-0.091,-0.112,-0.112
-0.084,-0.005,0.078,0.044,-0.081,0.036,0.085,0.005,0.02,-0.087,-0.123,-0.124
-0.074,0.0,0.074,0.037,-0.074,0.037,0.085,0.001,0.02,-0.085,-0.114,-0.12
-0.038,0.037,0.075,0.0,-0.057,0.056,0.085,0.0,0.02,-0.086,-0.111,-0.112
-0.043,0.061,0.105,-0.009,-0.074,0.083,0.085,0.0,0.02,-0.077,-0.106,-0.107
-0.066,0.036,0.102,0.014,-0.084,0.069,0.086,0.011,0.021,-0.084,-0.101,-0.099
-0.07,0.017,0.087,0.027,-0.078,0.052,0.084,0.017,0.024,-0.089,-0.098,-0.091
-0.068,0.025,0.093,0.021,-0.081,0.059,0.086,0.013,0.027,-0.078,-0.093,-0.084
-0.043,0.044,0.087,-0.001,-0.065,0.065,0.083,0.011,0.03,-0.074,-0.091,-0.078
-0.033,0.063,0.096,-0.016,-0.065,0.08,0.071,0.007,0.032,-0.066,-0.087,-0.071
-0.025,0.081,0.106,-0.029,-0.065,0.093,0.055,0.006,0.036,-0.058,-0.082,-0.065
-0.048,0.055,0.102,-0.004,-0.075,0.078,0.05,0.0,0.033,-0.062,-0.079,-0.059
-0.031,0.114,0.146,-0.042,-0.089,0.129,0.047,-0.024,0.025,-0.056,-0.059,-0.055
0.023,0.211,0.188,-0.117,-0.083,0.199,0.01,-0.052,0.021,-0.028,-0.026,-0.054
0.022,0.208,0.186,-0.115,-0.082,0.197,-0.026,-0.073,-0.009,-0.028,-0.025,-0.056
0.035,0.184,0.149,-0.11,-0.057,0.167,-0.032,-0.081,-0.046,-0.068,-0.058,-0.053
0.011,0.119,0.108,-0.066,-0.048,0.114,-0.001,-0.074,-0.051,-0.102,-0.089,-0.056
-0.051,0.051,0.103,0.0,-0.077,0.077,0.031,-0.067,-0.049,-0.133,-0.099,-0.066
-0.073,0.003,0.077,0.035,-0.075,0.04,0.046,-0.061,-0.068,-0.168,-0.143,-0.113
-0.094,-0.045,0.049,0.07,-0.071,0.002,0.06,-0.054,-0.069,-0.181,-0.184,-0.147
-0.129,-0.096,0.033,0.112,-0.081,-0.032,0.068,-0.049,-0.064,-0.196,-0.197,-0.148
-0.137,-0.113,0.024,0.124,-0.08,-0.044,0.089,-0.033,-0.063,-0.189,-0.191,-0.175
-0.122,-0.11,0.011,0.116,-0.066,-0.049,0.097,-0.019,-0.055,-0.176,-0.183,-0.172
-0.127,-0.122,0.005,0.124,-0.066,-0.058,0.094,-0.012,-0.058,-0.187,-0.194,-0.173
-0.101,-0.105,-0.004,0.103,-0.048,-0.054,0.103,-0.004,-0.043,-0.156,-0.162,-0.142
-0.099,-0.137,-0.039,0.118,-0.03,-0.088,0.147,0.039,-0.015,-0.196,-0.236,-0.187
-0.118,-0.09,0.029,0.104,-0.073,-0.03,0.168,0.113,0.101,-0.038,-0.119,-0.174
0.049,-0.015,-0.064,-0.017,0.057,-0.04,0.067,0.076,0.145,0.204,0.226,0.11
0.436,0.27,-0.166,-0.353,0.301,0.051,-0.184,-0.045,0.179,0.67,0.85,0.645
0.432,0.541,0.109,-0.487,0.161,0.325,-0.322,-0.293,-0.051,0.683,0.878,0.821
-0.189,0.116,0.305,0.036,-0.247,0.211,-0.051,-0.408,-0.664,-0.664,-0.451,-0.005
-0.487,-0.294,0.193,0.391,-0.34,-0.05,0.247,-0.12,-0.662,-1.186,-1.018,-0.568
-0.454,-0.37,0.084,0.412,-0.269,-0.143,0.284,0.021,-0.458,-0.845,-0.77,-0.507
-0.363,-0.288,0.075,0.325,-0.219,-0.106,0.206,-0.033,-0.379,-0.65,-0.589,-0.395
-0.149,-0.09,0.058,0.119,-0.103,-0.016,0.118,-0.023,-0.127,-0.26,-0.262,-0.195
-0.125,-0.076,0.048,0.1,-0.086,-0.014,0.091,-0.01,-0.055,-0.162,-0.189,-0.155
-0.078,-0.063,0.015,0.07,-0.046,-0.024,0.082,-0.005,-0.021,-0.122,-0.134,-0.119
-0.013,-0.036,-0.023,0.025,0.005,-0.029,0.075,-0.027,-0.005,-0.074,-0.105,-0.102
-0.049,-0.061,-0.012,0.055,-0.019,-0.036,0.07,-0.022,-0.005,-0.059,-0.09,-0.097
-0.058,-0.047,0.011,0.053,-0.035,-0.018,0.057,-0.014,0.012,-0.031,-0.037,-0.052
-0.049,-0.029,0.02,0.039,-0.034,-0.004,0.046,-0.012,0.012,-0.031,-0.026,-0.045
-0.021,-0.028,-0.007,0.024,-0.007,-0.017,0.033,-0.002,0.027,0.008,0.001,-0.031
-0.055,-0.045,0.01,0.05,-0.032,-0.018,0.02,-0.027,0.039,0.023,0.011,-0.018
-0.033,-0.002,0.031,0.017,-0.032,0.015,0.003,-0.046,0.063,0.057,0.037,0.013
0.076,0.083,0.007,-0.08,0.034,0.045,-0.022,-0.043,0.077,0.117,0.098,0.056
0.114,0.118,0.004,-0.116,0.055,0.06,-0.046,-0.038,0.103,0.177,0.172,0.112
0.158,0.145,-0.013,-0.151,0.085,0.066,-0.069,-0.035,0.124,0.216,0.212,0.152
0.186,0.181,-0.005,-0.184,0.095,0.088,-0.115,-0.057,0.13,0.275,0.277,0.21
0.207,0.224,0.017,-0.215,0.095,0.12,-0.15,-0.066,0.143,0.341,0.354,0.28
0.263,0.278,0.015,-0.27,0.123,0.146,-0.181,-0.079,0.156,0.389,0.405,0.323
0.29,0.319,0.029,-0.305,0.13,0.174,-0.213,-0.116,0.164,0.42,0.457,0.382
0.31,0.346,0.036,-0.329,0.137,0.191,-0.227,-0.124,0.164,0.437,0.478,0.406
0.281,0.326,0.046,-0.304,0.118,0.186,-0.243,-0.131,0.156,0.425,0.47,0.391
0.244,0.302,0.059,-0.273,0.092,0.18,-0.226,-0.138,0.147,0.373,0.436,0.37
0.196,0.303,0.107,-0.25,0.044,0.205,-0.179,-0.117,0.139,0.325,0.349,0.292
0.126,0.258,0.132,-0.193,-0.003,0.195,-0.115,-0.079,0.124,0.265,0.253,0.203
0.09,0.201,0.111,-0.146,-0.011,0.156,-0.058,-0.043,0.102,0.174,0.159,0.129
0.045,0.152,0.108,-0.099,-0.032,0.13,-0.022,-0.024,0.083,0.104,0.081,0.064
-0.005,0.093,0.098,-0.045,-0.052,0.096,0.017,-0.007,0.056,0.037,0.017,0.025
-0.032,0.058,0.09,-0.013,-0.061,0.074,0.028,0.003,0.023,-0.034,-0.052,-0.026
-0.041,0.04,0.08,0.0,-0.061,0.06,0.042,-0.001,0.01,-0.055,-0.079,-0.061
-0.044,0.026,0.07,0.009,-0.057,0.048,0.057,0.0,0.005,-0.071,-0.091,-0.069
-0.056,0.014,0.071,0.021,-0.064,0.042,0.054,0.0,-0.003,-0.089,-0.104,-0.078
-0.065,0.004,0.069,0.03,-0.067,0.036,0.055,0.0,-0.011,-0.091,-0.111,-0.08
-0.041,0.025,0.066,0.008,-0.053,0.045,0.055,0.0,-0.018,-0.095,-0.116,-0.08
-0.038,0.027,0.065,0.005,-0.052,0.046,0.055,0.005,-0.016,-0.09,-0.114,-0.08
-0.052,0.011,0.063,0.02,-0.058,0.037,0.052,0.01,-0.015,-0.089,-0.115,-0.08
-0.068,0.006,0.074,0.031,-0.071,0.04,0.049,0.013,-0.014,-0.085,-0.115,-0.081
-0.077,0.001,0.079,0.038,-0.078,0.04,0.046,0.019,-0.012,-0.084,-0.115,-0.079
-0.052,0.018,0.069,0.017,-0.061,0.043,0.044,0.018,-0.007,-0.078,-0.116,-0.073
-0.047,0.02,0.067,0.013,-0.057,0.043,0.04,0.014,-0.018,-0.083,-0.112,-0.066
-0.04,0.019,0.058,0.01,-0.049,0.038,0.041,0.016,-0.026,-0.088,-0.103,-0.059
-0.029,0.029,0.058,0.0,-0.044,0.043,0.048,0.011,-0.013,-0.069,-0.093,-0.054
-0.022,0.07,0.093,-0.024,-0.058,0.081,0.041,0.01,-0.009,-0.061,-0.083,-0.045
-0.01,0.104,0.114,-0.047,-0.063,0.109,0.032,0.011,-0.01,-0.056,-0.076,-0.05
-0.015,0.082,0.097,-0.034,-0.057,0.089,0.024,-0.002,-0.01,-0.05,-0.069,-0.038
0.011,0.142,0.131,-0.077,-0.06,0.136,0.007,-0.025,-0.009,-0.049,-0.067,-0.01
0.018,0.204,0.186,-0.111,-0.084,0.195,-0.039,-0.067,-0.034,-0.051,-0.073,-0.014
0.021,0.186,0.165,-0.104,-0.072,0.175,-0.069,-0.092,-0.067,-0.051,-0.077,-0.026
0.056,0.159,0.104,-0.108,-0.024,0.131,-0.045,-0.083,-0.073,-0.08,-0.079,-0.034
0.027,0.1,0.073,-0.064,-0.023,0.086,-0.023,-0.072,-0.083,-0.123,-0.095,-0.047
-0.025,0.05,0.075,-0.013,-0.051,0.062,0.002,-0.063,-0.091,-0.134,-0.129,-0.073
-0.02,0.009,0.029,0.005,-0.025,0.019,0.027,-0.052,-0.097,-0.162,-0.161,-0.105
-0.035,-0.026,0.009,0.03,-0.022,-0.008,0.044,-0.043,-0.092,-0.168,-0.174,-0.12
-0.097,-0.076,0.022,0.086,-0.059,-0.027,0.067,-0.033,-0.099,-0.186,-0.203,-0.146
-0.088,-0.101,-0.013,0.095,-0.037,-0.057,0.067,-0.021,-0.091,-0.175,-0.189,-0.137
-0.1,-0.125,-0.024,0.113,-0.038,-0.074,0.074,-0.014,-0.105,-0.178,-0.199,-0.141
-0.11,-0.122,-0.012,0.117,-0.049,-0.067,0.078,-0.003,-0.104,-0.175,-0.195,-0.142
-0.121,-0.132,-0.01,0.127,-0.056,-0.071,0.093,0.002,-0.079,-0.16,-0.195,-0.14
-0.149,-0.131,0.018,0.14,-0.083,-0.056,0.142,0.078,-0.023,-0.162,-0.231,-0.208
-0.05,-0.024,0.026,0.037,-0.038,0.001,0.106,0.11,0.106,0.065,0.004,-0.061
0.217,0.073,-0.144,-0.145,0.18,-0.035,-0.075,0.019,0.099,0.392,0.466,0.329
0.567,0.441,-0.126,-0.504,0.346,0.157,-0.342,-0.151,0.09,0.876,1.031,0.835
0.251,0.44,0.189,-0.346,0.031,0.314,-0.3,-0.44,-0.409,0.188,0.394,0.584
-0.359,-0.147,0.212,0.253,-0.286,0.033,0.071,-0.357,-0.914,-1.161,-0.893,-0.313
-0.488,-0.397,0.091,0.442,-0.289,-0.153,0.274,-0.063,-0.677,-1.109,-0.955,-0.539
-0.432,-0.338,0.093,0.385,-0.263,-0.122,0.252,-0.034,-0.513,-0.778,-0.694,-0.435
-0.22,-0.142,0.078,0.181,-0.149,-0.032,0.137,-0.019,-0.277,-0.448,-0.4,-0.252
-0.107,-0.058,0.049,0.083,-0.078,-0.005,0.077,-0.009,-0.081,-0.158,-0.163,-0.108
-0.085,-0.077,0.009,0.081,-0.047,-0.034,0.075,0.0,-0.086,-0.158,-0.163,-0.12
-0.068,-0.047,0.022,0.057,-0.045,-0.013,0.051,0.019,-0.042,-0.081,-0.109,-0.072
-0.121,-0.065,0.056,0.093,-0.088,-0.005,0.045,0.012,-0.052,-0.078,-0.111,-0.069
-0.095,-0.049,0.047,0.072,-0.071,-0.001,0.034,0.017,-0.025,-0.035,-0.065,-0.048
-0.056,-0.015,0.042,0.035,-0.049,0.013,0.03,0.009,-0.016,-0.014,-0.04,-0.036
-0.014,0.019,0.032,-0.003,-0.023,0.026,0.023,0.011,0.007,0.01,-0.019,-0.021
0.019,0.057,0.038,-0.038,-0.01,0.048,0.015,0.009,0.034,0.056,0.01,0.001
0.024,0.068,0.045,-0.046,-0.011,0.056,0.011,-0.008,0.031,0.069,0.026,0.013
0.032,0.069,0.037,-0.05,-0.003,0.052,-0.003,-0.009,0.052,0.109,0.076,0.055
0.104,0.137,0.033,-0.121,0.035,0.084,-0.026,0.003,0.089,0.164,0.13,0.1
0.157,0.183,0.026,-0.17,0.065,0.104,-0.062,-0.004,0.115,0.211,0.176,0.126
0.163,0.183,0.021,-0.173,0.071,0.102,-0.096,-0.014,0.126,0.266,0.235,0.182
0.212,0.235,0.024,-0.224,0.094,0.129,-0.133,-0.021,0.149,0.337,0.317,0.257
0.258,0.29,0.032,-0.274,0.113,0.16,-0.166,-0.036,0.182,0.407,0.392,0.319
0.301,0.334,0.033,-0.318,0.134,0.183,-0.201,-0.053,0.194,0.445,0.433,0.359
0.342,0.389,0.047,-0.365,0.147,0.218,-0.237,-0.068,0.201,0.488,0.484,0.398
0.34,0.406,0.066,-0.374,0.136,0.236,-0.228,-0.069,0.2,0.503,0.513,0.418
0.318,0.397,0.079,-0.358,0.119,0.238,-0.223,-0.063,0.2,0.468,0.491,0.4
0.289,0.385,0.097,-0.337,0.096,0.241,-0.199,-0.06,0.199,0.432,0.426,0.35
0.215,0.336,0.121,-0.276,0.047,0.228,-0.142,-0.044,0.166,0.345,0.322,0.243
0.133,0.26,0.127,-0.197,0.003,0.193,-0.087,-0.022,0.132,0.252,0.234,0.177
0.082,0.195,0.113,-0.139,-0.016,0.154,-0.031,-0.006,0.102,0.17,0.141,0.125
0.034,0.145,0.111,-0.09,-0.038,0.128,-0.003,0.006,0.069,0.076,0.042,0.039
0.007,0.107,0.099,-0.057,-0.046,0.103,0.024,0.006,0.036,0.018,-0.024,0.003
-0.001,0.088,0.089,-0.044,-0.045,0.089,0.038,0.004,0.004,-0.035,-0.058,-0.03
-0.022,0.086,0.108,-0.032,-0.065,0.096,0.052,0.003,-0.01,-0.068,-0.09,-0.059
-0.047,0.069,0.117,-0.012,-0.082,0.093,0.072,-0.003,-0.015,-0.079,-0.091,-0.059
-0.056,0.06,0.115,-0.003,-0.086,0.087,0.065,0.012,-0.023,-0.091,-0.087,-0.054
-0.041,0.061,0.101,-0.01,-0.071,0.081,0.06,0.032,-0.037,-0.09,-0.124,-0.049
-0.046,0.049,0.095,-0.002,-0.071,0.072,0.058,0.03,-0.04,-0.089,-0.129,-0.046
-0.072,0.039,0.111,0.016,-0.092,0.075,0.049,0.03,-0.031,-0.085,-0.119,-0.038
-0.079,0.024,0.102,0.027,-0.091,0.063,0.053,0.031,-0.03,-0.085,-0.116,-0.055
-0.06,0.034,0.095,0.013,-0.078,0.064,0.065,0.027,-0.022,-0.083,-0.109,-0.072
-0.047,0.044,0.092,0.001,-0.07,0.068,0.061,0.042,-0.022,-0.079,-0.104,-0.069
-0.03,0.047,0.077,-0.009,-0.054,0.062,0.055,0.056,-0.039,-0.08,-0.099,-0.071
-0.059,0.041,0.1,0.009,-0.08,0.07,0.052,0.055,-0.036,-0.08,-0.093,-0.069
-0.088,0.049,0.137,0.019,-0.112,0.093,0.046,0.054,-0.03,-0.08,-0.086,-0.078
-0.093,0.042,0.135,0.025,-0.114,0.088,0.042,0.056,-0.025,-0.082,-0.091,-0.071
-0.105,0.032,0.137,0.036,-0.121,0.084,0.035,0.054,-0.017,-0.067,-0.076,-0.046
-0.03,0.114,0.143,-0.042,-0.087,0.128,0.022,0.056,-0.017,-0.049,-0.058,-0.032
-0.02,0.116,0.137,-0.048,-0.079,0.126,0.023,0.051,-0.023,-0.041,-0.061,-0.017
-0.014,0.157,0.171,-0.071,-0.092,0.163,-0.006,-0.002,-0.038,-0.039,-0.06,-0.014
0.036,0.221,0.185,-0.129,-0.074,0.203,-0.055,-0.043,-0.032,-0.034,-0.06,0.017
0.029,0.2,0.171,-0.115,-0.071,0.185,-0.074,-0.049,-0.057,-0.03,-0.06,0.034
0.042,0.189,0.147,-0.115,-0.053,0.168,-0.078,-0.049,-0.092,-0.078,-0.06,0.028
0.035,0.122,0.087,-0.079,-0.026,0.104,-0.044,-0.039,-0.091,-0.109,-0.072,0.006
-0.021,0.066,0.087,-0.023,-0.054,0.076,0.006,-0.029,-0.109,-0.127,-0.129,-0.055
-0.054,0.018,0.072,0.017,-0.063,0.045,0.033,-0.024,-0.118,-0.16,-0.173,-0.092
-0.066,-0.018,0.049,0.042,-0.057,0.015,0.046,-0.002,-0.119,-0.158,-0.165,-0.107
-0.129,-0.087,0.042,0.108,-0.085,-0.022,0.076,0.024,-0.13,-0.191,-0.207,-0.122
-0.142,-0.111,0.031,0.126,-0.086,-0.04,0.083,0.027,-0.114,-0.17,-0.195,-0.114
-0.108,-0.097,0.011,0.102,-0.059,-0.043,0.072,0.005,-0.121,-0.178,-0.179,-0.109
-0.122,-0.127,-0.005,0.125,-0.058,-0.066,0.079,0.019,-0.105,-0.191,-0.201,-0.129
-0.159,-0.125,0.035,0.142,-0.096,-0.045,0.101,0.054,-0.097,-0.202,-0.238,-0.16
-0.147,-0.096,0.05,0.121,-0.098,-0.023,0.158,0.121,-0.023,-0.154,-0.22,-0.159
-0.054,-0.024,0.03,0.039,-0.042,0.003,0.147,0.144,0.109,0.095,0.029,-0.032
0.228,0.079,-0.149,-0.153,0.188,-0.035,-0.043,0.047,0.112,0.355,0.431,0.318
0.598,0.465,-0.133,-0.531,0.365,0.166,-0.342,-0.119,0.128,0.86,0.969,0.832
0.256,0.44,0.184,-0.348,0.036,0.311,-0.312,-0.403,-0.389,0.187,0.346,0.563
-0.368,-0.135,0.233,0.252,-0.301,0.049,0.076,-0.323,-0.88,-1.122,-0.873,-0.291
-0.45,-0.32,0.131,0.385,-0.29,-0.094,0.276,-0.04,-0.663,-1.055,-0.927,-0.546
-0.401,-0.295,0.106,0.348,-0.253,-0.094,0.255,0.005,-0.519,-0.773,-0.698,-0.45
-0.225,-0.142,0.083,0.183,-0.154,-0.029,0.153,0.046,-0.299,-0.445,-0.407,-0.259
-0.104,-0.041,0.063,0.072,-0.083,0.011,0.091,0.037,-0.112,-0.165,-0.183,-0.141
-0.12,-0.071,0.049,0.095,-0.084,-0.011,0.092,0.031,-0.087,-0.161,-0.174,-0.128
-0.059,-0.021,0.038,0.04,-0.049,0.008,0.068,0.033,-0.04,-0.09,-0.113,-0.087
-0.045,-0.016,0.029,0.031,-0.037,0.006,0.066,0.021,-0.046,-0.09,-0.127,-0.094
-0.029,0.001,0.031,0.014,-0.03,0.016,0.055,0.029,-0.023,-0.033,-0.09,-0.076
-0.012,0.017,0.03,-0.002,-0.021,0.023,0.048,0.022,-0.02,-0.011,-0.066,-0.034
0.022,0.052,0.029,-0.037,-0.004,0.04,0.041,0.027,-0.007,0.017,-0.018,0.0
0.023,0.055,0.032,-0.039,-0.005,0.043,0.03,0.024,0.005,0.037,0.011,0.027
0.039,0.056,0.017,-0.047,0.011,0.036,0.017,0.026,0.02,0.059,0.009,0.029
0.058,0.096,0.038,-0.078,0.01,0.067,-0.001,0.025,0.045,0.116,0.07,0.031
0.078,0.115,0.037,-0.096,0.02,0.076,-0.016,0.014,0.065,0.148,0.124,0.103
0.129,0.143,0.014,-0.136,0.058,0.078,-0.057,0.001,0.077,0.196,0.171,0.144
0.146,0.161,0.015,-0.154,0.065,0.088,-0.087,-0.021,0.093,0.245,0.226,0.196
0.252,0.249,-0.003,-0.25,0.127,0.123,-0.117,-0.043,0.115,0.319,0.299,0.255
0.285,0.315,0.03,-0.3,0.127,0.172,-0.169,-0.053,0.14,0.39,0.386,0.302
0.257,0.331,0.074,-0.294,0.092,0.202,-0.185,-0.054,0.163,0.421,0.437,0.38
0.301,0.371,0.071,-0.336,0.115,0.22,-0.206,-0.075,0.157,0.465,0.479,0.417
0.316,0.381,0.066,-0.349,0.125,0.223,-0.228,-0.09,0.149,0.484,0.512,0.448
0.288,0.37,0.083,-0.329,0.102,0.226,-0.209,-0.082,0.142,0.456,0.48,0.414
0.267,0.341,0.074,-0.304,0.096,0.207,-0.176,-0.082,0.134,0.418,0.422,0.352
0.229,0.324,0.095,-0.277,0.067,0.209,-0.136,-0.056,0.125,0.355,0.341,0.287
0.13,0.278,0.148,-0.204,-0.009,0.212,-0.082,-0.02,0.101,0.255,0.228,0.194
0.083,0.209,0.126,-0.147,-0.021,0.167,-0.02,0.008,0.089,0.156,0.124,0.11
0.053,0.165,0.112,-0.109,-0.03,0.138,0.024,0.026,0.071,0.094,0.04,0.028
0.007,0.114,0.107,-0.061,-0.051,0.11,0.046,0.025,0.029,0.041,-0.024,-0.007
-0.025,0.071,0.096,-0.024,-0.061,0.083,0.052,0.02,0.005,-0.039,-0.08,-0.043
-0.038,0.055,0.093,-0.009,-0.065,0.073,0.062,0.021,-0.005,-0.079,-0.121,-0.093
-0.038,0.044,0.082,-0.003,-0.061,0.063,0.076,0.042,-0.017,-0.069,-0.139,-0.104
-0.036,0.041,0.078,-0.003,-0.057,0.059,0.085,0.042,-0.027,-0.065,-0.145,-0.105
-0.045,0.021,0.067,0.012,-0.056,0.044,0.091,0.033,-0.034,-0.076,-0.149,-0.112
-0.025,0.047,0.072,-0.011,-0.049,0.059,0.09,0.031,-0.03,-0.087,-0.148,-0.085
-0.016,0.07,0.085,-0.027,-0.051,0.077,0.09,0.021,-0.03,-0.085,-0.138,-0.057
-0.064,0.021,0.085,0.021,-0.075,0.053,0.09,0.026,-0.028,-0.081,-0.129,-0.084
-0.02,0.065,0.085,-0.023,-0.052,0.075,0.09,0.028,-0.025,-0.074,-0.123,-0.086
0.007,0.092,0.086,-0.05,-0.04,0.089,0.087,0.037,-0.024,-0.067,-0.104,-0.062
-0.012,0.08,0.093,-0.035,-0.053,0.086,0.084,0.038,-0.029,-0.063,-0.115,-0.077
-0.023,0.074,0.097,-0.026,-0.06,0.085,0.086,0.041,-0.027,-0.057,-0.134,-0.088
-0.037,0.057,0.093,-0.011,-0.065,0.075,0.084,0.06,-0.023,-0.052,-0.111,-0.083
0.008,0.107,0.099,-0.058,-0.046,0.102,0.086,0.059,-0.018,-0.046,-0.111,-0.088
0.01,0.134,0.124,-0.072,-0.058,0.129,0.084,0.053,-0.014,-0.041,-0.105,-0.053
0.006,0.147,0.141,-0.077,-0.068,0.144,0.075,0.051,-0.01,-0.031,-0.077,-0.023
0.012,0.139,0.127,-0.076,-0.058,0.133,0.067,0.045,0.011,-0.027,-0.081,-0.037
0.023,0.194,0.171,-0.109,-0.074,0.182,0.033,-0.008,-0.024,-0.017,-0.079,-0.027
0.055,0.277,0.222,-0.167,-0.084,0.249,-0.005,-0.044,-0.055,0.003,-0.081,-0.02
0.05,0.253,0.202,-0.152,-0.077,0.227,-0.022,-0.031,-0.054,-0.001,-0.08,-0.011
0.077,0.236,0.159,-0.157,-0.042,0.197,-0.03,-0.03,-0.086,-0.047,-0.079,-0.016
0.044,0.166,0.122,-0.106,-0.039,0.144,-0.014,-0.022,-0.097,-0.093,-0.11,-0.038
-0.021,0.099,0.12,-0.039,-0.071,0.109,0.032,-0.017,-0.101,-0.112,-0.14,-0.056
-0.002,0.082,0.085,-0.04,-0.044,0.083,0.055,-0.013,-0.112,-0.127,-0.166,-0.09
-0.001,0.051,0.052,-0.025,-0.027,0.051,0.066,-0.003,-0.105,-0.129,-0.169,-0.096
-0.019,0.034,0.053,-0.008,-0.037,0.043,0.083,0.001,-0.104,-0.171,-0.194,-0.11
-0.02,0.024,0.044,-0.002,-0.032,0.034,0.083,0.012,-0.093,-0.155,-0.185,-0.108
-0.03,0.006,0.036,0.012,-0.033,0.021,0.115,0.04,-0.092,-0.143,-0.195,-0.124
-0.028,0.006,0.034,0.011,-0.031,0.02,0.124,0.05,-0.084,-0.126,-0.187,-0.117
-0.033,-0.013,0.021,0.023,-0.027,0.004,0.116,0.051,-0.073,-0.128,-0.191,-0.124
-0.069,-0.031,0.038,0.049,-0.053,0.003,0.178,0.131,0.012,-0.132,-0.231,-0.199
-0.029,-0.001,0.028,0.015,-0.029,0.014,0.165,0.149,0.113,0.082,-0.022,-0.072
0.237,0.119,-0.118,-0.178,0.177,0.001,-0.022,0.057,0.09,0.374,0.45,0.331
0.545,0.5,-0.045,-0.523,0.295,0.227,-0.28,-0.093,0.096,0.867,1.048,0.845
0.233,0.51,0.277,-0.372,-0.022,0.393,-0.242,-0.341,-0.312,0.256,0.407,0.563
-0.296,0.038,0.334,0.129,-0.316,0.186,0.116,-0.236,-0.699,-0.977,-0.83,-0.302
-0.338,-0.18,0.158,0.259,-0.247,-0.011,0.307,0.029,-0.535,-0.958,-0.892,-0.536
-0.276,-0.188,0.088,0.231,-0.182,-0.05,0.297,0.04,-0.454,-0.719,-0.693,-0.436
-0.158,-0.064,0.094,0.111,-0.126,0.015,0.201,0.068,-0.285,-0.447,-0.429,-0.266
-0.027,0.04,0.066,-0.007,-0.047,0.053,0.113,0.062,-0.104,-0.154,-0.192,-0.124
-0.011,0.022,0.034,-0.006,-0.023,0.028,0.099,0.046,-0.068,-0.115,-0.178,-0.105
0.021,0.051,0.031,-0.036,-0.005,0.041,0.081,0.047,-0.03,-0.053,-0.115,-0.066
0.01,0.048,0.038,-0.029,-0.014,0.042,0.073,0.033,-0.036,-0.06,-0.127,-0.063
0.017,0.045,0.028,-0.031,-0.005,0.036,0.063,0.036,-0.021,-0.018,-0.092,-0.046
0.04,0.071,0.031,-0.056,0.004,0.051,0.055,0.026,-0.018,0.019,-0.045,-0.027
0.077,0.1,0.023,-0.089,0.027,0.061,0.046,0.025,-0.004,0.042,-0.021,-0.001
0.103,0.129,0.027,-0.116,0.038,0.078,0.035,0.019,0.007,0.06,0.012,0.029
0.081,0.122,0.041,-0.102,0.02,0.081,0.024,0.014,0.021,0.083,0.041,0.04
0.116,0.144,0.029,-0.13,0.043,0.086,0.009,0.005,0.032,0.115,0.063,0.053
0.123,0.165,0.042,-0.144,0.04,0.103,-0.014,0.0,0.05,0.158,0.117,0.096
0.144,0.183,0.039,-0.164,0.052,0.111,-0.054,-0.01,0.078,0.213,0.184,0.15
0.2,0.235,0.034,-0.218,0.083,0.134,-0.086,-0.015,0.082,0.271,0.244,0.206
0.276,0.298,0.022,-0.287,0.127,0.16,-0.113,-0.027,0.102,0.337,0.332,0.292
0.305,0.338,0.033,-0.322,0.136,0.185,-0.152,-0.05,0.116,0.383,0.383,0.341
0.287,0.354,0.067,-0.321,0.11,0.21,-0.188,-0.074,0.115,0.425,0.425,0.375
0.351,0.401,0.05,-0.376,0.15,0.226,-0.213,-0.097,0.113,0.452,0.476,0.421
0.322,0.417,0.094,-0.37,0.114,0.255,-0.228,-0.096,0.106,0.453,0.494,0.414
0.265,0.397,0.131,-0.332,0.067,0.264,-0.214,-0.106,0.101,0.422,0.461,0.4
0.261,0.386,0.125,-0.323,0.068,0.255,-0.181,-0.099,0.095,0.379,0.389,0.359
0.219,0.353,0.134,-0.286,0.042,0.243,-0.141,-0.057,0.091,0.336,0.307,0.262
0.165,0.299,0.134,-0.233,0.015,0.217,-0.088,-0.024,0.078,0.261,0.213,0.179
0.106,0.234,0.128,-0.17,-0.012,0.181,-0.033,0.013,0.057,0.178,0.11,0.109
0.07,0.178,0.108,-0.124,-0.019,0.142,0.009,0.035,0.038,0.114,0.036,0.042
0.04,0.144,0.104,-0.092,-0.032,0.124,0.033,0.034,0.017,0.053,-0.008,-0.008
0.021,0.126,0.106,-0.074,-0.043,0.116,0.037,0.038,0.001,0.002,-0.06,-0.044
-0.019,0.085,0.104,-0.034,-0.062,0.095,0.032,0.04,-0.015,-0.032,-0.104,-0.075
-0.07,0.032,0.102,0.019,-0.087,0.067,0.049,0.042,-0.03,-0.048,-0.118,-0.074
-0.029,0.069,0.098,-0.02,-0.064,0.083,0.062,0.045,-0.032,-0.044,-0.116,-0.066
0.016,0.112,0.097,-0.064,-0.041,0.105,0.059,0.042,-0.028,-0.038,-0.113,-0.088
0.009,0.101,0.092,-0.055,-0.043,0.097,0.058,0.039,-0.026,-0.035,-0.11,-0.083
0.018,0.109,0.091,-0.064,-0.037,0.1,0.054,0.036,-0.022,-0.031,-0.108,-0.067
0.022,0.109,0.087,-0.066,-0.033,0.098,0.055,0.033,-0.02,-0.024,-0.104,-0.057
0.013,0.111,0.098,-0.062,-0.042,0.104,0.055,0.03,-0.022,-0.033,-0.108,-0.062
-0.012,0.096,0.108,-0.042,-0.06,0.102,0.055,0.03,-0.026,-0.04,-0.11,-0.086
-0.037,0.058,0.095,-0.011,-0.066,0.077,0.055,0.03,-0.035,-0.043,-0.104,-0.083
-0.027,0.062,0.089,-0.018,-0.058,0.075,0.054,0.031,-0.035,-0.051,-0.099,-0.078
-0.006,0.073,0.08,-0.034,-0.043,0.076,0.056,0.029,-0.029,-0.045,-0.094,-0.074
0.021,0.097,0.077,-0.06,-0.028,0.087,0.054,0.031,-0.028,-0.04,-0.088,-0.07
0.026,0.134,0.108,-0.081,-0.041,0.121,0.047,0.029,-0.02,-0.034,-0.082,-0.059
0.001,0.142,0.141,-0.072,-0.07,0.141,0.038,0.035,-0.022,-0.029,-0.08,-0.044
0.04,0.174,0.134,-0.108,-0.047,0.154,0.034,0.042,-0.006,-0.024,-0.079,-0.045
0.078,0.207,0.129,-0.143,-0.026,0.168,0.026,-0.001,-0.011,-0.027,-0.081,-0.045
0.063,0.251,0.188,-0.157,-0.063,0.219,-0.009,-0.035,-0.049,-0.011,-0.082,-0.037
0.058,0.272,0.214,-0.165,-0.078,0.243,-0.057,-0.054,-0.064,0.012,-0.088,-0.029
0.056,0.23,0.175,-0.143,-0.06,0.202,-0.06,-0.07,-0.083,-0.003,-0.08,-0.016
0.054,0.186,0.132,-0.121,-0.039,0.159,-0.036,-0.058,-0.087,-0.053,-0.095,-0.015
-0.008,0.108,0.116,-0.05,-0.063,0.112,-0.021,-0.051,-0.097,-0.092,-0.127,-0.047
-0.062,0.037,0.099,0.013,-0.081,0.068,0.009,-0.042,-0.119,-0.117,-0.161,-0.092
-0.02,0.033,0.054,-0.007,-0.037,0.043,0.031,-0.028,-0.11,-0.131,-0.186,-0.12
-0.029,0.026,0.054,0.001,-0.042,0.04,0.049,-0.014,-0.108,-0.135,-0.19,-0.124
-0.016,0.017,0.033,-0.001,-0.025,0.025,0.071,0.005,-0.107,-0.145,-0.2,-0.129
0.007,0.021,0.014,-0.014,-0.004,0.018,0.071,0.01,-0.096,-0.126,-0.186,-0.122
-0.053,-0.006,0.047,0.029,-0.05,0.02,0.078,0.022,-0.105,-0.147,-0.209,-0.139
-0.034,0.004,0.038,0.014,-0.036,0.021,0.081,0.026,-0.079,-0.114,-0.175,-0.118
-0.07,-0.05,0.021,0.06,-0.045,-0.015,0.118,0.058,-0.06,-0.14,-0.231,-0.163
-0.041,0.015,0.055,0.013,-0.048,0.035,0.163,0.146,0.054,-0.008,-0.145,-0.151
0.129,0.12,-0.01,-0.124,0.069,0.055,0.065,0.104,0.109,0.247,0.199,0.129
0.418,0.292,-0.126,-0.355,0.272,0.083,-0.209,-0.023,0.106,0.668,0.763,0.607
0.527,0.581,0.054,-0.554,0.236,0.317,-0.388,-0.277,-0.067,0.807,0.939,0.865
-0.029,0.251,0.279,-0.111,-0.154,0.265,-0.149,-0.432,-0.703,-0.486,-0.285,0.168
-0.393,-0.194,0.199,0.293,-0.296,0.003,0.2,-0.161,-0.795,-1.202,-1.033,-0.487
-0.355,-0.262,0.094,0.309,-0.224,-0.084,0.298,0.017,-0.535,-0.845,-0.796,-0.475
-0.262,-0.171,0.091,0.216,-0.176,-0.04,0.209,0.042,-0.429,-0.621,-0.6,-0.362
-0.055,0.021,0.075,0.017,-0.065,0.048,0.108,0.064,-0.171,-0.233,-0.266,-0.156
0.003,0.067,0.064,-0.035,-0.031,0.065,0.098,0.037,-0.08,-0.098,-0.176,-0.092
0.007,0.06,0.053,-0.034,-0.023,0.056,0.082,0.041,-0.058,-0.077,-0.133,-0.075
0.012,0.06,0.049,-0.036,-0.019,0.054,0.062,0.027,-0.042,-0.039,-0.075,-0.057
0.013,0.052,0.04,-0.033,-0.014,0.046,0.048,0.031,-0.038,-0.034,-0.102,-0.072
0.017,0.052,0.035,-0.035,-0.009,0.043,0.038,0.03,-0.012,0.008,-0.071,-0.048
0.024,0.052,0.028,-0.038,-0.002,0.04,0.025,0.029,-0.01,0.024,-0.047,-0.045
0.057,0.073,0.016,-0.065,0.02,0.044,-0.001,0.032,0.006,0.057,-0.018,-0.02
0.054,0.1,0.046,-0.077,0.004,0.073,0.005,0.026,0.024,0.079,0.014,0.013
0.092,0.147,0.055,-0.119,0.018,0.1,-0.016,0.022,0.039,0.126,0.063,0.055
0.143,0.198,0.055,-0.17,0.044,0.126,-0.037,0.015,0.061,0.176,0.113,0.101
0.17,0.216,0.046,-0.193,0.061,0.131,-0.049,0.01,0.083,0.211,0.149,0.134
0.209,0.26,0.051,-0.235,0.079,0.155,-0.081,0.005,0.104,0.283,0.223,0.186
0.23,0.307,0.077,-0.269,0.076,0.192,-0.123,-0.017,0.117,0.341,0.29,0.246
0.253,0.32,0.066,-0.286,0.093,0.193,-0.175,-0.041,0.131,0.385,0.345,0.294
0.334,0.405,0.072,-0.369,0.131,0.238,-0.197,-0.037,0.165,0.468,0.431,0.363
0.399,0.469,0.07,-0.434,0.164,0.269,-0.222,-0.052,0.172,0.513,0.485,0.426
0.409,0.476,0.067,-0.443,0.171,0.272,-0.253,-0.073,0.163,0.521,0.521,0.441
0.411,0.502,0.09,-0.457,0.16,0.296,-0.252,-0.068,0.155,0.511,0.527,0.43
0.384,0.483,0.099,-0.434,0.142,0.291,-0.227,-0.062,0.148,0.49,0.48,0.41
0.301,0.432,0.132,-0.367,0.084,0.282,-0.185,-0.058,0.134,0.434,0.396,0.339
0.22,0.362,0.142,-0.291,0.038,0.252,-0.146,-0.04,0.112,0.339,0.282,0.239
0.175,0.306,0.132,-0.241,0.021,0.219,-0.098,-0.002,0.101,0.26,0.181,0.164
0.131,0.256,0.125,-0.194,0.003,0.19,-0.056,0.021,0.083,0.18,0.103,0.102
0.092,0.204,0.112,-0.148,-0.01,0.158,-0.012,0.02,0.052,0.099,0.031,0.052
0.047,0.18,0.133,-0.114,-0.043,0.156,0.032,0.021,0.005,0.04,-0.037,0.01
0.005,0.128,0.123,-0.067,-0.059,0.125,0.038,0.02,-0.032,0.007,-0.083,-0.03
0.001,0.107,0.106,-0.054,-0.052,0.106,0.039,0.02,-0.037,-0.018,-0.098,-0.042
0.004,0.115,0.111,-0.059,-0.054,0.113,0.045,0.02,-0.035,-0.037,-0.102,-0.04
0.001,0.11,0.109,-0.056,-0.054,0.109,0.043,0.02,-0.031,-0.039,-0.105,-0.039
0.016,0.126,0.111,-0.071,-0.048,0.118,0.04,0.035,-0.027,-0.04,-0.105,-0.036
0.012,0.121,0.11,-0.067,-0.049,0.115,0.04,0.036,-0.024,-0.042,-0.107,-0.033
0.003,0.113,0.11,-0.058,-0.054,0.111,0.04,0.025,-0.019,-0.045,-0.111,-0.041
-0.004,0.102,0.107,-0.049,-0.056,0.104,0.04,0.019,-0.027,-0.045,-0.109,-0.063
-0.001,0.102,0.102,-0.051,-0.051,0.102,0.04,0.01,-0.041,-0.047,-0.115,-0.068
-0.007,0.092,0.099,-0.042,-0.054,0.095,0.044,0.017,-0.04,-0.052,-0.123,-0.062
0.004,0.1,0.096,-0.053,-0.046,0.098,0.045,0.028,-0.04,-0.048,-0.118,-0.058
0.049,0.14,0.091,-0.095,-0.021,0.115,0.045,0.03,-0.041,-0.042,-0.111,-0.053
0.043,0.136,0.093,-0.09,-0.025,0.114,0.045,0.034,-0.039,-0.039,-0.105,-0.05
0.02,0.124,0.104,-0.073,-0.042,0.114,0.045,0.036,-0.042,-0.03,-0.098,-0.044
-0.017,0.109,0.127,-0.046,-0.072,0.118,0.044,0.04,-0.032,-0.029,-0.088,-0.039
0.007,0.17,0.163,-0.089,-0.078,0.166,0.029,0.04,-0.015,-0.012,-0.069,-0.027
0.071,0.207,0.137,-0.139,-0.033,0.172,0.019,0.024,-0.008,0.009,-0.065,-0.018
0.071,0.221,0.151,-0.146,-0.04,0.186,-0.011,-0.007,-0.018,0.011,-0.065,-0.008
0.086,0.282,0.195,-0.184,-0.055,0.238,-0.055,-0.043,-0.036,0.011,-0.061,0.004
0.081,0.253,0.172,-0.167,-0.046,0.212,-0.09,-0.073,-0.069,-0.004,-0.062,-0.005
0.058,0.215,0.158,-0.137,-0.05,0.186,-0.101,-0.073,-0.11,-0.025,-0.055,-0.003
0.096,0.185,0.089,-0.141,0.003,0.137,-0.06,-0.04,-0.119,-0.062,-0.09,-0.002
0.081,0.169,0.087,-0.125,-0.003,0.128,-0.02,-0.026,-0.116,-0.066,-0.104,-0.011
-0.018,0.082,0.1,-0.032,-0.06,0.091,-0.005,-0.027,-0.124,-0.102,-0.137,-0.062
-0.059,0.004,0.063,0.027,-0.061,0.033,0.006,-0.017,-0.115,-0.126,-0.189,-0.113
-0.064,-0.005,0.059,0.034,-0.062,0.027,0.013,-0.019,-0.127,-0.136,-0.192,-0.116
-0.06,-0.037,0.023,0.048,-0.041,-0.007,0.029,-0.007,-0.133,-0.152,-0.182,-0.112
-0.019,-0.006,0.013,0.012,-0.015,0.003,0.048,-0.003,-0.117,-0.132,-0.173,-0.106
-0.029,-0.003,0.026,0.016,-0.028,0.011,0.067,0.016,-0.098,-0.139,-0.177,-0.112
-0.025,0.002,0.028,0.011,-0.026,0.015,0.086,0.042,-0.06,-0.105,-0.151,-0.093
-0.06,-0.033,0.027,0.046,-0.043,-0.003,0.127,0.083,-0.051,-0.144,-0.222,-0.16
-0.044,-0.01,0.034,0.026,-0.039,0.012,0.126,0.143,0.054,0.023,-0.102,-0.112
0.172,0.104,-0.068,-0.137,0.12,0.017,-0.014,0.07,0.096,0.306,0.298,0.211
0.577,0.435,-0.142,-0.506,0.36,0.146,-0.286,-0.059,0.138,0.836,0.93,0.742
0.542,0.625,0.083,-0.584,0.229,0.354,-0.374,-0.336,-0.188,0.629,0.742,0.784
-0.147,0.113,0.26,0.017,-0.204,0.186,-0.047,-0.41,-0.856,-0.83,-0.603,-0.062
-0.437,-0.285,0.152,0.361,-0.294,-0.066,0.241,-0.108,-0.794,-1.177,-1.032,-0.529
-0.411,-0.314,0.096,0.362,-0.253,-0.109,0.255,-0.024,-0.563,-0.809,-0.758,-0.455
-0.278,-0.173,0.105,0.225,-0.191,-0.034,0.154,-0.004,-0.394,-0.536,-0.508,-0.307
-0.075,-0.009,0.066,0.041,-0.07,0.028,0.08,0.034,-0.124,-0.159,-0.198,-0.118
-0.041,0.014,0.055,0.013,-0.049,0.035,0.081,0.02,-0.07,-0.107,-0.148,-0.081
-0.009,0.038,0.046,-0.015,-0.028,0.042,0.06,0.029,-0.035,-0.057,-0.101,-0.067
0.002,0.044,0.042,-0.023,-0.02,0.043,0.046,0.016,-0.035,-0.034,-0.078,-0.046
0.017,0.049,0.032,-0.033,-0.008,0.041,0.03,0.021,-0.037,0.006,-0.054,-0.019
-0.012,0.026,0.038,-0.007,-0.025,0.032,0.023,0.01,-0.032,0.033,-0.015,-0.021
0.01,0.055,0.045,-0.033,-0.018,0.05,0.02,0.033,-0.008,0.039,0.003,-0.005
0.073,0.107,0.034,-0.09,0.019,0.07,0.016,0.056,0.035,0.093,0.025,0.036
0.08,0.111,0.031,-0.096,0.024,0.071,0.002,0.041,0.046,0.114,0.035,0.039
0.093,0.114,0.021,-0.103,0.036,0.067,-0.039,0.034,0.057,0.136,0.076,0.072
0.146,0.164,0.018,-0.155,0.063,0.091,-0.045,0.026,0.074,0.188,0.131,0.114
0.212,0.22,0.008,-0.216,0.101,0.114,-0.063,0.021,0.098,0.249,0.183,0.151
0.224,0.237,0.013,-0.23,0.105,0.125,-0.092,0.016,0.129,0.304,0.242,0.207
0.265,0.265,0.0,-0.265,0.132,0.132,-0.136,0.007,0.143,0.363,0.301,0.248
0.318,0.313,-0.006,-0.315,0.162,0.153,-0.18,-0.002,0.163,0.433,0.388,0.32
0.347,0.373,0.026,-0.36,0.16,0.2,-0.193,-0.016,0.196,0.501,0.459,0.393
0.422,0.426,0.004,-0.424,0.208,0.215,-0.234,-0.042,0.21,0.539,0.501,0.432
0.452,0.466,0.013,-0.459,0.219,0.239,-0.252,-0.045,0.225,0.571,0.545,0.464
0.428,0.475,0.046,-0.452,0.191,0.26,-0.232,-0.048,0.219,0.547,0.514,0.447
0.391,0.461,0.07,-0.426,0.16,0.265,-0.212,-0.057,0.207,0.512,0.468,0.403
0.289,0.385,0.095,-0.337,0.097,0.24,-0.182,-0.033,0.183,0.444,0.392,0.33
0.208,0.31,0.102,-0.259,0.053,0.205,-0.147,-0.001,0.141,0.337,0.277,0.233
0.16,0.266,0.106,-0.213,0.027,0.185,-0.082,0.023,0.122,0.266,0.193,0.154
0.11,0.204,0.094,-0.157,0.008,0.149,-0.03,0.044,0.096,0.176,0.108,0.087
0.083,0.168,0.085,-0.126,-0.001,0.126,-0.005,0.051,0.058,0.103,0.037,0.03
0.067,0.149,0.081,-0.108,-0.007,0.115,0.031,0.05,0.032,0.052,-0.016,0.002
0.064,0.142,0.078,-0.103,-0.007,0.11,0.045,0.05,0.014,0.016,-0.048,-0.011
0.019,0.101,0.082,-0.06,-0.031,0.091,0.046,0.051,-0.003,-0.007,-0.065,-0.033
-0.017,0.062,0.079,-0.022,-0.048,0.07,0.05,0.049,-0.022,-0.032,-0.081,-0.04
0.02,0.095,0.076,-0.058,-0.028,0.085,0.052,0.046,-0.026,-0.035,-0.082,-0.042
0.024,0.118,0.093,-0.071,-0.035,0.105,0.056,0.043,-0.02,-0.029,-0.079,-0.045
0.021,0.114,0.094,-0.068,-0.037,0.104,0.052,0.04,-0.02,-0.027,-0.076,-0.048
0.03,0.111,0.081,-0.071,-0.025,0.096,0.05,0.038,-0.015,-0.022,-0.073,-0.051
0.03,0.105,0.075,-0.068,-0.023,0.09,0.05,0.033,-0.015,-0.019,-0.07,-0.046
0.033,0.099,0.067,-0.066,-0.017,0.083,0.05,0.046,-0.02,-0.031,-0.071,-0.044
0.032,0.095,0.063,-0.064,-0.016,0.079,0.05,0.062,-0.02,-0.036,-0.076,-0.041
0.031,0.088,0.057,-0.059,-0.013,0.072,0.05,0.059,-0.024,-0.035,-0.075,-0.039
0.034,0.086,0.052,-0.06,-0.009,0.069,0.045,0.06,-0.024,-0.032,-0.075,-0.035
0.046,0.091,0.045,-0.069,0.0,0.068,0.044,0.06,-0.031,-0.03,-0.08,-0.035
0.029,0.087,0.058,-0.058,-0.014,0.072,0.04,0.06,-0.03,-0.03,-0.074,-0.026
0.029,0.112,0.083,-0.071,-0.027,0.097,0.04,0.056,-0.007,-0.023,-0.06,-0.019
0.019,0.127,0.108,-0.073,-0.045,0.118,0.057,0.045,-0.005,-0.014,-0.051,-0.01
0.05,0.16,0.111,-0.105,-0.031,0.135,0.04,0.035,-0.004,-0.005,-0.044,-0.006
0.096,0.187,0.091,-0.142,0.003,0.139,0.005,0.024,-0.005,0.003,-0.04,-0.019
0.055,0.194,0.139,-0.125,-0.042,0.166,-0.036,-0.01,-0.016,0.018,-0.032,0.021
0.057,0.238,0.18,-0.148,-0.062,0.209,-0.078,-0.04,-0.027,0.02,-0.031,0.047
0.09,0.232,0.142,-0.162,-0.026,0.187,-0.082,-0.051,-0.046,0.01,-0.028,0.034
0.093,0.195,0.102,-0.144,-0.004,0.148,-0.073,-0.05,-0.064,-0.017,-0.039,0.024
0.03,0.121,0.092,-0.076,-0.031,0.106,-0.048,-0.038,-0.088,-0.056,-0.078,-0.006
-0.024,0.055,0.079,-0.016,-0.052,0.067,-0.017,-0.032,-0.095,-0.078,-0.109,-0.033
0.009,0.036,0.028,-0.023,-0.01,0.032,0.013,-0.02,-0.098,-0.113,-0.145,-0.072
-0.012,0.007,0.018,0.002,-0.015,0.012,0.04,-0.009,-0.107,-0.123,-0.157,-0.079
-0.054,-0.029,0.026,0.041,-0.04,-0.001,0.053,0.003,-0.115,-0.137,-0.173,-0.086
-0.028,-0.039,-0.012,0.034,-0.008,-0.025,0.046,0.018,-0.102,-0.118,-0.156,-0.089
-0.052,-0.076,-0.024,0.064,-0.013,-0.05,0.046,0.02,-0.11,-0.13,-0.173,-0.104
-0.041,-0.055,-0.014,0.048,-0.013,-0.035,0.073,0.027,-0.097,-0.116,-0.159,-0.098
-0.031,-0.056,-0.025,0.044,-0.003,-0.04,0.094,0.033,-0.07,-0.118,-0.169,-0.103
-0.078,-0.07,0.008,0.075,-0.043,-0.031,0.136,0.115,0.009,-0.102,-0.19,-0.155
0.006,0.022,0.015,-0.014,-0.004,0.018,0.108,0.148,0.115,0.143,0.063,0.019
0.311,0.137,-0.175,-0.224,0.243,-0.019,-0.101,0.035,0.12,0.455,0.506,0.407
0.661,0.492,-0.168,-0.577,0.414,0.162,-0.367,-0.151,0.122,0.911,0.999,0.86
0.272,0.409,0.137,-0.341,0.068,0.272,-0.289,-0.435,-0.453,0.113,0.262,0.516
-0.328,-0.141,0.188,0.234,-0.258,0.023,0.094,-0.329,-0.924,-1.157,-0.911,-0.321
-0.431,-0.343,0.087,0.387,-0.259,-0.128,0.286,-0.019,-0.665,-1.02,-0.887,-0.486
-0.391,-0.307,0.084,0.349,-0.237,-0.112,0.248,0.004,-0.509,-0.715,-0.645,-0.386
-0.163,-0.111,0.052,0.136,-0.107,-0.029,0.14,0.036,-0.256,-0.363,-0.341,-0.199
-0.066,-0.038,0.028,0.052,-0.047,-0.005,0.09,0.054,-0.076,-0.109,-0.147,-0.074
-0.063,-0.052,0.011,0.057,-0.037,-0.02,0.076,0.047,-0.068,-0.108,-0.142,-0.062
-0.017,-0.014,0.003,0.015,-0.009,-0.005,0.045,0.051,-0.025,-0.033,-0.073,-0.021
0.013,0.0,-0.013,-0.006,0.013,-0.006,0.04,0.041,-0.026,-0.031,-0.065,-0.026
0.074,0.044,-0.03,-0.059,0.051,0.007,0.031,0.048,0.02,0.025,-0.007,-0.002
0.059,0.051,-0.008,-0.055,0.033,0.022,0.022,0.04,0.029,0.032,-0.005,-0.002
0.06,0.058,-0.002,-0.059,0.03,0.028,0.017,0.038,0.033,0.053,0.012,0.019
0.06,0.052,-0.008,-0.056,0.034,0.022,0.004,0.034,0.044,0.085,0.048,0.052
0.098,0.086,-0.012,-0.092,0.055,0.037,-0.005,0.03,0.066,0.128,0.081,0.084
0.113,0.108,-0.005,-0.11,0.059,0.051,-0.022,0.027,0.081,0.166,0.119,0.104
0.135,0.118,-0.017,-0.126,0.076,0.05,-0.05,0.023,0.092,0.192,0.147,0.125
0.205,0.172,-0.033,-0.189,0.119,0.069,-0.072,0.016,0.126,0.262,0.212,0.18
0.202,0.174,-0.028,-0.188,0.115,0.073,-0.118,0.005,0.136,0.31,0.266,0.218
0.275,0.244,-0.031,-0.259,0.153,0.106,-0.148,-0.002,0.166,0.382,0.339,0.284
0.344,0.315,-0.03,-0.329,0.187,0.142,-0.175,-0.012,0.212,0.451,0.414,0.352
0.366,0.336,-0.03,-0.351,0.198,0.153,-0.22,-0.022,0.224,0.493,0.467,0.396
0.4,0.374,-0.026,-0.387,0.213,0.174,-0.241,-0.04,0.242,0.546,0.523,0.445
0.386,0.394,0.008,-0.39,0.189,0.201,-0.256,-0.052,0.249,0.565,0.527,0.462
0.397,0.419,0.022,-0.409,0.187,0.221,-0.239,-0.046,0.237,0.539,0.508,0.436
0.353,0.39,0.037,-0.371,0.158,0.213,-0.198,-0.033,0.235,0.499,0.481,0.393
0.261,0.331,0.071,-0.296,0.095,0.201,-0.151,-0.012,0.212,0.428,0.39,0.323
0.176,0.247,0.071,-0.212,0.052,0.159,-0.108,0.006,0.169,0.319,0.267,0.222
0.101,0.168,0.068,-0.135,0.016,0.118,-0.061,0.03,0.135,0.225,0.168,0.138
0.07,0.136,0.066,-0.103,0.002,0.101,-0.012,0.034,0.093,0.146,0.09,0.077
0.007,0.071,0.064,-0.039,-0.029,0.067,-0.003,0.031,0.042,0.075,0.024,0.031
-0.024,0.033,0.056,-0.005,-0.04,0.044,0.006,0.041,0.026,0.029,-0.02,0.011
-0.001,0.04,0.041,-0.02,-0.021,0.04,0.034,0.03,0.022,-0.003,-0.046,-0.001
0.0,0.04,0.04,-0.02,-0.02,0.04,0.045,0.041,0.014,-0.025,-0.069,-0.007
0.006,0.04,0.033,-0.024,-0.013,0.036,0.045,0.057,0.008,-0.031,-0.077,-0.018
0.007,0.041,0.034,-0.024,-0.014,0.037,0.045,0.054,0.001,-0.027,-0.074,-0.024
0.015,0.039,0.024,-0.027,-0.005,0.032,0.045,0.056,-0.004,-0.024,-0.073,-0.019
0.006,0.037,0.031,-0.022,-0.013,0.033,0.045,0.055,-0.008,-0.022,-0.069,-0.021
-0.036,0.024,0.059,0.006,-0.048,0.041,0.047,0.055,-0.013,-0.018,-0.071,-0.018
-0.029,0.016,0.045,0.006,-0.038,0.031,0.051,0.052,-0.018,-0.026,-0.074,-0.03
-0.034,0.003,0.037,0.016,-0.036,0.02,0.05,0.047,-0.02,-0.045,-0.073,-0.047
-0.069,-0.018,0.051,0.044,-0.06,0.016,0.05,0.045,-0.032,-0.045,-0.086,-0.045
-0.043,0.002,0.045,0.02,-0.044,0.023,0.05,0.04,-0.033,-0.046,-0.092,-0.044
-0.011,0.025,0.036,-0.007,-0.024,0.03,0.045,0.037,-0.023,-0.05,-0.089,-0.039
-0.004,0.024,0.028,-0.01,-0.017,0.026,0.045,0.033,-0.018,-0.051,-0.091,-0.041
-0.018,-0.003,0.016,0.01,-0.017,0.006,0.044,0.03,-0.01,-0.047,-0.09,-0.038
-0.027,-0.002,0.025,0.014,-0.026,0.011,0.04,0.031,-0.006,-0.035,-0.089,-0.029
-0.013,0.067,0.08,-0.027,-0.047,0.073,0.041,0.028,0.008,-0.023,-0.078,-0.023
-0.015,0.092,0.106,-0.039,-0.061,0.099,0.036,0.025,0.019,-0.008,-0.065,-0.015
0.009,0.079,0.07,-0.044,-0.031,0.075,0.02,0.026,0.013,0.003,-0.048,-0.006
0.02,0.143,0.123,-0.082,-0.052,0.133,-0.02,0.012,0.01,0.027,-0.018,0.027
0.058,0.207,0.15,-0.133,-0.046,0.178,-0.065,-0.034,-0.007,0.029,0.003,0.038
0.046,0.149,0.104,-0.098,-0.029,0.126,-0.095,-0.068,-0.05,0.003,0.0,0.031
0.001,0.059,0.058,-0.03,-0.029,0.058,-0.09,-0.059,-0.077,-0.047,-0.048,0.017
0.02,0.022,0.002,-0.021,0.009,0.012,-0.05,-0.046,-0.082,-0.076,-0.082,-0.007
-0.048,-0.004,0.044,0.026,-0.046,0.02,-0.003,-0.028,-0.09,-0.077,-0.09,-0.033
-0.098,-0.073,0.024,0.085,-0.061,-0.024,0.036,-0.035,-0.111,-0.128,-0.142,-0.079
-0.1,-0.13,-0.03,0.115,-0.035,-0.08,0.042,-0.041,-0.113,-0.138,-0.159,-0.084
-0.094,-0.136,-0.042,0.115,-0.025,-0.089,0.044,-0.02,-0.102,-0.145,-0.167,-0.086
-0.044,-0.103,-0.06,0.074,0.008,-0.081,0.05,-0.017,-0.096,-0.128,-0.162,-0.074
-0.09,-0.137,-0.048,0.114,-0.021,-0.092,0.075,-0.013,-0.106,-0.142,-0.175,-0.1
-0.156,-0.207,-0.051,0.182,-0.053,-0.129,0.066,-0.006,-0.092,-0.149,-0.178,-0.11
-0.133,-0.182,-0.049,0.158,-0.042,-0.115,0.079,0.015,-0.057,-0.144,-0.169,-0.107
-0.14,-0.141,-0.001,0.141,-0.069,-0.071,0.16,0.123,0.036,-0.086,-0.134,-0.153
-0.089,-0.113,-0.024,0.101,-0.032,-0.068,0.091,0.125,0.108,0.122,0.062,-0.009
0.26,0.038,-0.222,-0.148,0.241,-0.092,-0.135,0.009,0.102,0.421,0.482,0.367
0.613,0.408,-0.205,-0.51,0.408,0.102,-0.375,-0.163,0.106,0.86,0.945,0.819
0.195,0.293,0.098,-0.244,0.048,0.195,-0.281,-0.47,-0.486,0.013,0.166,0.437
-0.466,-0.286,0.18,0.375,-0.323,-0.053,0.099,-0.347,-0.939,-1.171,-0.913,-0.376
-0.564,-0.48,0.084,0.522,-0.324,-0.198,0.268,-0.041,-0.68,-1.016,-0.862,-0.506
-0.45,-0.389,0.061,0.42,-0.256,-0.164,0.23,-0.041,-0.516,-0.724,-0.633,-0.393
-0.271,-0.218,0.052,0.244,-0.161,-0.083,0.13,0.019,-0.252,-0.359,-0.325,-0.201
-0.155,-0.126,0.029,0.14,-0.092,-0.048,0.068,0.037,-0.083,-0.128,-0.141,-0.098
-0.138,-0.146,-0.008,0.142,-0.065,-0.076,0.05,0.006,-0.083,-0.129,-0.143,-0.091
-0.103,-0.143,-0.04,0.123,-0.031,-0.091,0.036,0.01,-0.048,-0.066,-0.088,-0.051
-0.079,-0.118,-0.04,0.099,-0.019,-0.079,0.036,0.0,-0.052,-0.065,-0.078,-0.057
-0.04,-0.081,-0.041,0.061,0.0,-0.061,0.023,0.009,-0.01,-0.008,-0.03,-0.022
-0.029,-0.069,-0.04,0.049,0.005,-0.054,0.021,0.016,0.001,0.017,-0.015,-0.005
-0.014,-0.054,-0.04,0.034,0.013,-0.047,0.002,0.027,0.008,0.039,0.008,0.014
0.008,-0.05,-0.058,0.021,0.033,-0.054,-0.011,0.024,0.029,0.063,0.03,0.028
0.004,-0.047,-0.051,0.022,0.027,-0.049,-0.014,0.025,0.062,0.103,0.059,0.046
0.04,0.019,-0.022,-0.029,0.031,-0.002,-0.035,0.025,0.082,0.146,0.113,0.096
0.105,0.072,-0.033,-0.088,0.068,0.019,-0.053,0.024,0.097,0.196,0.172,0.142
0.159,0.094,-0.065,-0.126,0.112,0.014,-0.096,0.025,0.13,0.245,0.218,0.173
0.208,0.146,-0.062,-0.177,0.135,0.042,-0.118,0.007,0.158,0.299,0.273,0.216
0.248,0.184,-0.065,-0.216,0.156,0.059,-0.149,-0.011,0.176,0.366,0.346,0.281
0.31,0.224,-0.085,-0.267,0.197,0.069,-0.202,-0.025,0.194,0.417,0.403,0.324
0.362,0.278,-0.084,-0.32,0.223,0.097,-0.222,-0.047,0.223,0.471,0.451,0.371
0.372,0.307,-0.065,-0.339,0.219,0.121,-0.252,-0.061,0.245,0.501,0.496,0.422
0.389,0.32,-0.07,-0.354,0.229,0.125,-0.259,-0.063,0.24,0.516,0.525,0.426
0.354,0.306,-0.048,-0.329,0.201,0.128,-0.244,-0.062,0.23,0.505,0.499,0.407
0.283,0.289,0.006,-0.286,0.139,0.147,-0.22,-0.053,0.219,0.463,0.449,0.371
0.243,0.259,0.016,-0.251,0.113,0.137,-0.171,-0.029,0.198,0.401,0.367,0.305
0.143,0.189,0.047,-0.166,0.048,0.118,-0.123,-0.007,0.167,0.304,0.256,0.208
0.075,0.122,0.047,-0.099,0.014,0.084,-0.072,0.004,0.125,0.198,0.161,0.12
0.046,0.074,0.027,-0.06,0.009,0.05,-0.033,0.02,0.085,0.119,0.088,0.06
0.015,0.036,0.021,-0.026,-0.003,0.029,-0.004,0.027,0.048,0.071,0.037,0.018
-0.017,-0.007,0.01,0.012,-0.013,0.001,0.023,0.025,0.024,0.024,0.0,-0.003
-0.059,-0.033,0.026,0.046,-0.042,-0.004,0.031,0.025,0.019,-0.014,-0.022,-0.022
-0.048,-0.045,0.003,0.046,-0.026,-0.02,0.032,0.022,0.02,-0.026,-0.05,-0.042
-0.068,-0.061,0.007,0.064,-0.037,-0.027,0.037,0.019,0.02,-0.025,-0.069,-0.053
-0.065,-0.059,0.005,0.062,-0.035,-0.027,0.03,0.022,0.02,-0.024,-0.062,-0.055
-0.058,-0.061,-0.002,0.06,-0.028,-0.031,0.034,0.034,0.02,-0.038,-0.058,-0.072
-0.095,-0.059,0.036,0.077,-0.066,-0.011,0.055,0.034,0.017,-0.037,-0.052,-0.084
-0.103,-0.061,0.042,0.082,-0.072,-0.01,0.055,0.028,0.012,-0.042,-0.046,-0.078
-0.093,-0.055,0.038,0.074,-0.065,-0.008,0.05,0.027,0.01,-0.056,-0.041,-0.075
-0.062,-0.031,0.031,0.046,-0.046,0.0,0.049,0.02,0.005,-0.048,-0.043,-0.072
-0.042,-0.022,0.02,0.032,-0.031,-0.001,0.045,0.021,0.002,-0.045,-0.047,-0.066
-0.03,-0.011,0.019,0.02,-0.024,0.004,0.044,0.025,-0.001,-0.04,-0.05,-0.066
-0.052,-0.04,0.012,0.045,-0.032,-0.014,0.04,0.024,-0.009,-0.036,-0.062,-0.077
-0.046,-0.061,-0.015,0.054,-0.015,-0.038,0.038,0.026,-0.016,-0.037,-0.062,-0.082
-0.036,-0.047,-0.011,0.042,-0.012,-0.029,0.035,0.024,-0.023,-0.045,-0.054,-0.078
-0.062,-0.03,0.032,0.046,-0.047,0.001,0.032,0.027,-0.021,-0.044,-0.048,-0.074
-0.021,0.023,0.045,-0.001,-0.033,0.034,0.029,0.018,-0.012,-0.024,-0.042,-0.067
-0.004,0.055,0.059,-0.026,-0.031,0.056,0.031,0.015,-0.003,-0.011,-0.029,-0.062
-0.003,0.048,0.051,-0.023,-0.027,0.049,0.026,0.036,0.008,-0.006,-0.02,-0.054
0.011,0.071,0.06,-0.042,-0.024,0.065,-0.033,0.015,0.013,0.005,-0.002,-0.03
-0.001,0.105,0.105,-0.052,-0.053,0.105,-0.083,-0.036,-0.003,0.014,0.015,-0.027
0.026,0.135,0.11,-0.081,-0.042,0.122,-0.08,-0.063,-0.031,0.0,0.012,-0.017
0.063,0.109,0.046,-0.086,0.008,0.077,-0.077,-0.061,-0.059,-0.047,-0.02,-0.033
0.065,0.041,-0.023,-0.053,0.044,0.009,-0.05,-0.051,-0.084,-0.074,-0.061,-0.057
-0.006,0.003,0.01,0.002,-0.008,0.007,-0.018,-0.042,-0.085,-0.077,-0.075,-0.056
-0.077,-0.084,-0.006,0.081,-0.035,-0.045,0.004,-0.025,-0.088,-0.115,-0.109,-0.106
-0.035,-0.105,-0.07,0.071,0.018,-0.088,0.033,-0.016,-0.088,-0.114,-0.116,-0.117
-0.052,-0.111,-0.059,0.082,0.004,-0.085,0.046,-0.015,-0.093,-0.144,-0.148,-0.144
-0.096,-0.161,-0.064,0.129,-0.016,-0.112,0.043,-0.009,-0.079,-0.148,-0.152,-0.149
-0.101,-0.183,-0.082,0.142,-0.009,-0.132,0.051,-0.011,-0.076,-0.152,-0.16,-0.156
-0.075,-0.138,-0.063,0.107,-0.006,-0.1,0.061,0.011,-0.06,-0.144,-0.15,-0.157
-0.074,-0.142,-0.068,0.108,-0.003,-0.104,0.083,0.015,-0.049,-0.142,-0.159,-0.159
-0.112,-0.17,-0.057,0.141,-0.027,-0.113,0.139,0.105,0.013,-0.122,-0.162,-0.218
-0.014,-0.075,-0.061,0.045,0.023,-0.068,0.128,0.176,0.145,0.121,0.077,-0.049
0.236,0.01,-0.226,-0.123,0.231,-0.108,-0.059,0.058,0.149,0.364,0.42,0.259
0.611,0.343,-0.269,-0.477,0.44,0.037,-0.356,-0.117,0.166,0.819,0.901,0.71
0.297,0.322,0.026,-0.309,0.135,0.173,-0.32,-0.408,-0.329,0.225,0.347,0.504
-0.389,-0.181,0.208,0.284,-0.298,0.013,0.072,-0.349,-0.851,-1.032,-0.802,-0.344
-0.436,-0.347,0.089,0.391,-0.262,-0.129,0.294,-0.025,-0.635,-0.992,-0.847,-0.564
-0.368,-0.362,0.006,0.365,-0.186,-0.178,0.274,0.029,-0.498,-0.715,-0.615,-0.442
-0.224,-0.217,0.007,0.221,-0.115,-0.105,0.153,0.052,-0.308,-0.431,-0.356,-0.268
-0.081,-0.093,-0.011,0.087,-0.035,-0.052,0.085,0.052,-0.087,-0.144,-0.133,-0.156
-0.096,-0.139,-0.043,0.118,-0.026,-0.091,0.062,0.049,-0.066,-0.139,-0.129,-0.136
-0.049,-0.093,-0.044,0.072,-0.003,-0.068,0.048,0.06,-0.029,-0.066,-0.069,-0.085
-0.033,-0.075,-0.042,0.054,0.004,-0.058,0.06,0.051,-0.029,-0.054,-0.052,-0.088
-0.013,-0.087,-0.074,0.05,0.031,-0.08,0.038,0.055,0.012,-0.014,-0.011,-0.048
0.025,-0.054,-0.079,0.015,0.052,-0.066,0.028,0.045,0.032,0.021,0.002,-0.05
0.048,-0.033,-0.081,-0.008,0.065,-0.056,0.022,0.046,0.026,0.036,0.014,-0.059
0.003,-0.074,-0.077,0.036,0.04,-0.075,0.012,0.04,0.04,0.05,0.047,-0.024
0.003,-0.071,-0.075,0.035,0.039,-0.073,-0.001,0.036,0.048,0.073,0.066,0.004
0.048,-0.027,-0.075,-0.01,0.062,-0.051,-0.021,0.034,0.074,0.125,0.12,0.047
0.079,0.008,-0.071,-0.043,0.075,-0.032,-0.055,0.025,0.092,0.169,0.165,0.075
0.143,0.073,-0.07,-0.108,0.106,0.002,-0.08,0.015,0.112,0.211,0.202,0.097
0.149,0.079,-0.07,-0.114,0.109,0.004,-0.105,0.003,0.143,0.243,0.238,0.142
0.213,0.12,-0.092,-0.166,0.152,0.014,-0.144,-0.012,0.153,0.308,0.305,0.199
0.288,0.189,-0.099,-0.238,0.193,0.045,-0.182,-0.024,0.161,0.369,0.386,0.254
0.277,0.19,-0.087,-0.233,0.182,0.051,-0.213,-0.041,0.174,0.416,0.44,0.309
0.318,0.234,-0.084,-0.275,0.201,0.074,-0.241,-0.058,0.192,0.452,0.488,0.361
0.331,0.257,-0.075,-0.294,0.203,0.091,-0.267,-0.066,0.189,0.45,0.492,0.373
0.319,0.261,-0.057,-0.29,0.188,0.102,-0.246,-0.065,0.178,0.455,0.485,0.378
0.28,0.259,-0.021,-0.27,0.151,0.119,-0.226,-0.065,0.168,0.413,0.424,0.317
0.18,0.204,0.024,-0.192,0.078,0.114,-0.184,-0.063,0.156,0.356,0.345,0.227
0.119,0.155,0.035,-0.137,0.042,0.095,-0.107,-0.02,0.136,0.292,0.278,0.167
0.043,0.067,0.024,-0.056,0.009,0.046,-0.064,0.019,0.095,0.181,0.162,0.06
-0.008,0.009,0.017,0.0,-0.013,0.012,-0.03,0.031,0.073,0.101,0.093,-0.001
-0.015,-0.004,0.011,0.009,-0.013,0.003,0.012,0.046,0.053,0.033,0.029,-0.041
-0.049,-0.052,-0.003,0.05,-0.022,-0.027,0.025,0.05,0.022,-0.023,-0.038,-0.101
-0.044,-0.058,-0.014,0.052,-0.015,-0.036,0.032,0.05,0.015,-0.038,-0.046,-0.111
-0.055,-0.074,-0.019,0.064,-0.017,-0.046,0.054,0.054,0.013,-0.049,-0.062,-0.113
-0.083,-0.089,-0.006,0.086,-0.038,-0.047,0.055,0.055,0.009,-0.055,-0.072,-0.117
-0.104,-0.08,0.024,0.092,-0.063,-0.028,0.055,0.057,0.007,-0.055,-0.068,-0.113
-0.12,-0.118,0.002,0.118,-0.06,-0.058,0.06,0.061,0.004,-0.063,-0.08,-0.125
-0.087,-0.103,-0.017,0.095,-0.035,-0.059,0.06,0.058,0.003,-0.063,-0.082,-0.127
-0.103,-0.085,0.019,0.094,-0.061,-0.033,0.059,0.055,-0.013,-0.057,-0.073,-0.118
-0.121,-0.095,0.026,0.107,-0.073,-0.034,0.054,0.055,-0.006,-0.042,-0.064,-0.109
-0.113,-0.094,0.019,0.104,-0.065,-0.037,0.056,0.055,0.011,-0.061,-0.059,-0.103
-0.109,-0.091,0.018,0.1,-0.063,-0.036,0.053,0.055,-0.001,-0.079,-0.049,-0.102
-0.099,-0.088,0.011,0.093,-0.055,-0.038,0.049,0.055,-0.017,-0.073,-0.073,-0.116
-0.132,-0.122,0.01,0.127,-0.071,-0.055,0.051,0.051,-0.038,-0.091,-0.111,-0.149
-0.146,-0.141,0.004,0.143,-0.075,-0.068,0.046,0.049,-0.039,-0.096,-0.083,-0.155
-0.148,-0.142,0.006,0.145,-0.077,-0.067,0.042,0.05,-0.03,-0.094,-0.069,-0.144
-0.112,-0.117,-0.005,0.115,-0.054,-0.061,0.038,0.05,-0.025,-0.096,-0.075,-0.141
-0.1,-0.075,0.025,0.087,-0.062,-0.025,0.033,0.05,-0.018,-0.088,-0.062,-0.132
-0.143,-0.072,0.071,0.107,-0.107,0.0,0.028,0.049,-0.01,-0.073,-0.058,-0.12
-0.126,-0.066,0.06,0.096,-0.093,-0.003,0.018,0.034,-0.015,-0.053,-0.051,-0.097
-0.054,0.029,0.083,0.012,-0.069,0.056,-0.005,0.011,-0.019,-0.024,-0.044,-0.077
-0.018,0.077,0.094,-0.03,-0.056,0.085,-0.042,-0.023,-0.029,-0.023,-0.047,-0.065
-0.043,0.044,0.086,-0.001,-0.065,0.065,-0.058,-0.052,-0.059,-0.055,-0.042,-0.048
-0.046,0.017,0.063,0.014,-0.054,0.04,-0.046,-0.044,-0.085,-0.092,-0.062,-0.083
-0.072,-0.073,-0.002,0.072,-0.035,-0.037,-0.034,-0.032,-0.101,-0.11,-0.105,-0.107
-0.128,-0.138,-0.009,0.133,-0.059,-0.073,-0.007,-0.026,-0.098,-0.128,-0.123,-0.132
-0.139,-0.181,-0.042,0.16,-0.048,-0.111,0.019,-0.02,-0.112,-0.161,-0.152,-0.159
-0.135,-0.224,-0.09,0.18,-0.022,-0.157,0.035,-0.009,-0.123,-0.169,-0.161,-0.147
-0.137,-0.219,-0.082,0.179,-0.028,-0.15,0.046,0.02,-0.118,-0.187,-0.174,-0.189
-0.124,-0.223,-0.1,0.174,-0.012,-0.161,0.055,0.037,-0.106,-0.163,-0.166,-0.194
-0.159,-0.276,-0.117,0.218,-0.021,-0.196,0.068,0.036,-0.106,-0.178,-0.185,-0.201
-0.178,-0.273,-0.095,0.226,-0.041,-0.183,0.077,0.041,-0.092,-0.155,-0.168,-0.173
-0.175,-0.277,-0.102,0.226,-0.037,-0.189,0.101,0.055,-0.076,-0.167,-0.189,-0.18
-0.21,-0.282,-0.072,0.246,-0.069,-0.177,0.145,0.151,0.018,-0.117,-0.184,-0.246
-0.115,-0.226,-0.111,0.171,-0.002,-0.168,0.118,0.183,0.111,0.109,0.054,-0.095
0.209,-0.067,-0.276,-0.071,0.243,-0.171,-0.09,0.058,0.091,0.39,0.508,0.318
0.501,0.307,-0.195,-0.404,0.348,0.056,-0.324,-0.109,0.104,0.82,0.989,0.789
0.094,0.238,0.143,-0.166,-0.025,0.19,-0.219,-0.324,-0.356,0.061,0.198,0.366
-0.471,-0.221,0.25,0.346,-0.36,0.014,0.133,-0.18,-0.711,-1.028,-0.856,-0.447
-0.49,-0.445,0.045,0.467,-0.267,-0.2,0.307,0.116,-0.51,-0.925,-0.822,-0.567
-0.409,-0.446,-0.037,0.428,-0.186,-0.241,0.271,0.096,-0.461,-0.74,-0.662,-0.493
-0.262,-0.3,-0.038,0.281,-0.112,-0.169,0.158,0.077,-0.279,-0.447,-0.375,-0.324
-0.155,-0.231,-0.075,0.193,-0.04,-0.153,0.08,0.068,-0.1,-0.183,-0.163,-0.187
-0.153,-0.233,-0.08,0.193,-0.036,-0.156,0.065,0.049,-0.069,-0.15,-0.131,-0.169
-0.112,-0.21,-0.098,0.161,-0.007,-0.154,0.052,0.05,-0.03,-0.101,-0.086,-0.144
-0.103,-0.188,-0.085,0.146,-0.009,-0.136,0.046,0.035,-0.039,-0.079,-0.07,-0.142
-0.083,-0.164,-0.08,0.124,-0.001,-0.122,0.035,0.036,-0.019,-0.031,-0.026,-0.097
-0.064,-0.163,-0.099,0.114,0.018,-0.131,0.028,0.023,-0.017,-0.031,-0.027,-0.09
-0.034,-0.146,-0.113,0.09,0.04,-0.129,0.02,0.022,-0.005,-0.005,0.017,-0.072
-0.01,-0.116,-0.107,0.063,0.049,-0.111,0.015,0.03,0.001,0.016,0.049,-0.056
-0.012,-0.116,-0.104,0.064,0.047,-0.11,0.005,0.028,0.009,0.055,0.069,-0.031
0.021,-0.082,-0.103,0.03,0.062,-0.092,-0.013,0.023,0.042,0.108,0.126,0.017
0.054,-0.043,-0.097,-0.005,0.076,-0.07,-0.046,0.019,0.049,0.139,0.163,0.042
0.056,-0.043,-0.098,-0.006,0.077,-0.07,-0.079,0.014,0.054,0.18,0.196,0.089
0.09,0.002,-0.088,-0.046,0.089,-0.042,-0.111,-0.001,0.082,0.222,0.258,0.133
0.176,0.072,-0.103,-0.124,0.139,-0.015,-0.152,-0.037,0.093,0.278,0.318,0.19
0.239,0.119,-0.121,-0.179,0.18,-0.001,-0.177,-0.051,0.095,0.333,0.389,0.267
0.256,0.148,-0.108,-0.202,0.182,0.02,-0.211,-0.056,0.097,0.378,0.452,0.311
0.253,0.157,-0.096,-0.204,0.174,0.03,-0.245,-0.088,0.084,0.395,0.472,0.332
0.238,0.152,-0.086,-0.195,0.162,0.033,-0.261,-0.108,0.097,0.381,0.494,0.353
0.238,0.171,-0.066,-0.204,0.152,0.052,-0.246,-0.093,0.114,0.375,0.474,0.338
0.231,0.179,-0.052,-0.205,0.141,0.063,-0.211,-0.072,0.102,0.354,0.428,0.29
0.174,0.126,-0.048,-0.149,0.111,0.038,-0.161,-0.051,0.093,0.297,0.358,0.215
0.09,0.045,-0.045,-0.067,0.067,0.0,-0.108,-0.022,0.082,0.216,0.241,0.109
0.005,-0.038,-0.043,0.016,0.024,-0.04,-0.066,-0.005,0.069,0.149,0.147,0.041
-0.039,-0.075,-0.036,0.057,-0.001,-0.055,-0.019,0.029,0.058,0.103,0.086,-0.013
-0.03,-0.095,-0.066,0.063,0.018,-0.08,0.021,0.057,0.036,0.023,0.037,-0.065
-0.051,-0.134,-0.083,0.093,0.016,-0.109,0.043,0.057,0.013,-0.025,-0.008,-0.102
-0.11,-0.154,-0.044,0.132,-0.033,-0.099,0.037,0.061,0.006,-0.034,-0.038,-0.125
-0.136,-0.171,-0.035,0.154,-0.05,-0.103,0.036,0.065,0.002,-0.043,-0.048,-0.113
-0.104,-0.176,-0.072,0.141,-0.015,-0.124,0.057,0.063,-0.004,-0.054,-0.061,-0.119
-0.092,-0.171,-0.079,0.132,-0.007,-0.124,0.064,0.06,-0.01,-0.066,-0.076,-0.128
-0.108,-0.169,-0.062,0.139,-0.023,-0.115,0.055,0.06,-0.014,-0.06,-0.075,-0.121
-0.095,-0.166,-0.071,0.13,-0.011,-0.118,0.049,0.056,-0.011,-0.055,-0.071,-0.121
-0.095,-0.163,-0.069,0.129,-0.012,-0.116,0.042,0.055,-0.007,-0.053,-0.07,-0.116
-0.099,-0.161,-0.061,0.13,-0.019,-0.111,0.036,0.055,-0.005,-0.043,-0.067,-0.115
-0.068,-0.145,-0.078,0.107,0.005,-0.111,0.031,0.05,0.0,-0.056,-0.065,-0.115
-0.067,-0.157,-0.09,0.112,0.012,-0.124,0.03,0.05,-0.003,-0.081,-0.065,-0.115
-0.084,-0.175,-0.091,0.129,0.003,-0.132,0.029,0.05,-0.022,-0.08,-0.065,-0.116
-0.068,-0.157,-0.088,0.113,0.01,-0.122,0.027,0.05,-0.026,-0.08,-0.065,-0.114
-0.081,-0.166,-0.085,0.124,0.002,-0.125,0.023,0.05,-0.017,-0.08,-0.065,-0.118
-0.087,-0.173,-0.086,0.13,0.0,-0.129,0.032,0.052,-0.011,-0.081,-0.061,-0.12
-0.077,-0.158,-0.081,0.118,0.003,-0.119,0.044,0.056,-0.004,-0.077,-0.057,-0.121
-0.069,-0.145,-0.075,0.107,0.004,-0.11,0.031,0.054,0.003,-0.061,-0.051,-0.118
-0.054,-0.118,-0.064,0.086,0.005,-0.091,0.024,0.062,0.003,-0.048,-0.038,-0.112
-0.036,-0.086,-0.05,0.061,0.007,-0.068,0.005,0.05,-0.011,-0.035,-0.017,-0.09
-0.053,-0.052,0.001,0.053,-0.027,-0.026,-0.033,0.011,-0.02,-0.022,0.008,-0.06
-0.055,-0.015,0.04,0.035,-0.047,0.012,-0.061,-0.026,-0.034,-0.017,0.017,-0.063
-0.002,0.002,0.004,0.0,-0.003,0.003,-0.067,-0.03,-0.058,-0.036,-0.007,-0.067
-0.006,-0.063,-0.057,0.035,0.026,-0.06,-0.058,-0.01,-0.076,-0.081,-0.047,-0.082
-0.058,-0.167,-0.108,0.112,0.025,-0.137,-0.041,0.009,-0.095,-0.111,-0.077,-0.105
-0.128,-0.234,-0.106,0.181,-0.011,-0.17,-0.008,0.053,-0.109,-0.146,-0.113,-0.141
-0.142,-0.258,-0.117,0.2,-0.012,-0.187,0.012,0.098,-0.109,-0.156,-0.131,-0.173
-0.122,-0.271,-0.149,0.197,0.014,-0.21,0.036,0.104,-0.11,-0.152,-0.141,-0.17
-0.116,-0.286,-0.169,0.201,0.027,-0.227,0.062,0.106,-0.111,-0.173,-0.158,-0.185
-0.145,-0.321,-0.176,0.234,0.016,-0.249,0.058,0.119,-0.108,-0.157,-0.158,-0.192
-0.201,-0.372,-0.171,0.287,-0.015,-0.271,0.061,0.109,-0.113,-0.172,-0.177,-0.193
-0.184,-0.355,-0.172,0.27,-0.006,-0.263,0.065,0.119,-0.091,-0.135,-0.147,-0.175
-0.17,-0.359,-0.189,0.264,0.01,-0.273,0.102,0.167,-0.057,-0.167,-0.201,-0.23
-0.135,-0.286,-0.151,0.211,0.008,-0.219,0.153,0.264,0.075,-0.042,-0.095,-0.2
-0.052,-0.241,-0.189,0.147,0.068,-0.215,0.047,0.22,0.118,0.187,0.204,0.025
0.284,-0.056,-0.339,-0.114,0.311,-0.197,-0.225,0.079,0.133,0.6,0.76,0.483
0.429,0.267,-0.162,-0.348,0.296,0.052,-0.381,-0.132,-0.012,0.791,0.974,0.786
-0.156,-0.06,0.096,0.108,-0.125,0.018,-0.145,-0.309,-0.658,-0.467,-0.225,0.09
-0.519,-0.496,0.023,0.507,-0.27,-0.237,0.192,-0.018,-0.771,-1.21,-0.982,-0.56
-0.46,-0.563,-0.103,0.512,-0.179,-0.332,0.285,0.19,-0.515,-0.886,-0.772,-0.545
-0.376,-0.494,-0.117,0.435,-0.129,-0.305,0.217,0.141,-0.43,-0.666,-0.571,-0.438
-0.217,-0.322,-0.105,0.269,-0.055,-0.213,0.117,0.164,-0.175,-0.285,-0.238,-0.232
-0.139,-0.277,-0.137,0.208,-0.001,-0.207,0.083,0.145,-0.063,-0.145,-0.123,-0.159
-0.09,-0.257,-0.167,0.174,0.039,-0.212,0.07,0.149,-0.032,-0.096,-0.077,-0.138
-0.067,-0.228,-0.161,0.148,0.047,-0.194,0.055,0.144,-0.015,-0.06,-0.042,-0.111
-0.061,-0.219,-0.158,0.14,0.049,-0.188,0.049,0.156,-0.021,-0.045,-0.035,-0.113
-0.042,-0.197,-0.155,0.12,0.057,-0.176,0.036,0.173,0.0,-0.001,-0.008,-0.092
-0.058,-0.208,-0.15,0.133,0.046,-0.179,0.028,0.162,0.007,0.007,0.014,-0.081
-0.046,-0.198,-0.152,0.122,0.053,-0.175,0.023,0.162,0.024,0.055,0.058,-0.055
0.012,-0.167,-0.179,0.078,0.096,-0.173,0.019,0.155,0.042,0.074,0.074,-0.034
0.057,-0.124,-0.181,0.034,0.119,-0.152,0.012,0.152,0.067,0.116,0.123,0.014
0.073,-0.086,-0.159,0.007,0.116,-0.122,-0.008,0.147,0.085,0.151,0.156,0.045
0.106,-0.055,-0.161,-0.026,0.134,-0.108,-0.036,0.137,0.103,0.202,0.208,0.081
0.142,-0.013,-0.155,-0.064,0.148,-0.084,-0.061,0.129,0.129,0.265,0.275,0.138
0.173,0.02,-0.153,-0.096,0.163,-0.066,-0.099,0.12,0.153,0.312,0.33,0.185
0.224,0.073,-0.151,-0.148,0.187,-0.039,-0.136,0.11,0.162,0.379,0.407,0.252
0.263,0.114,-0.15,-0.188,0.206,-0.018,-0.177,0.1,0.188,0.423,0.469,0.307
0.302,0.125,-0.178,-0.213,0.24,-0.026,-0.211,0.08,0.196,0.456,0.51,0.345
0.346,0.176,-0.17,-0.26,0.257,0.003,-0.229,0.073,0.197,0.503,0.561,0.395
0.371,0.22,-0.151,-0.295,0.261,0.035,-0.234,0.074,0.213,0.52,0.573,0.406
0.336,0.206,-0.13,-0.27,0.233,0.037,-0.222,0.075,0.2,0.477,0.521,0.362
0.24,0.14,-0.1,-0.19,0.17,0.02,-0.196,0.075,0.183,0.418,0.458,0.303
0.176,0.068,-0.107,-0.121,0.141,-0.019,-0.133,0.075,0.162,0.339,0.36,0.21
0.131,0.023,-0.109,-0.077,0.12,-0.043,-0.075,0.115,0.127,0.256,0.264,0.113
0.069,-0.043,-0.111,-0.013,0.09,-0.077,-0.036,0.137,0.103,0.183,0.179,0.056
0.013,-0.102,-0.115,0.045,0.064,-0.108,0.006,0.141,0.076,0.1,0.096,0.005
-0.011,-0.126,-0.115,0.069,0.053,-0.12,0.037,0.162,0.044,0.044,0.04,-0.047
-0.074,-0.199,-0.125,0.136,0.026,-0.162,0.045,0.168,0.029,0.008,0.004,-0.084
-0.078,-0.209,-0.131,0.144,0.027,-0.169,0.057,0.171,0.02,-0.015,-0.005,-0.092
-0.056,-0.19,-0.134,0.123,0.039,-0.162,0.067,0.174,0.011,-0.032,-0.036,-0.094
-0.079,-0.211,-0.132,0.145,0.027,-0.172,0.064,0.176,0.01,-0.051,-0.053,-0.103
0.089,-0.034,-0.123,-0.027,0.106,-0.078,0.065,0.181,0.01,-0.046,-0.039,-0.098
0.198,0.076,-0.122,-0.137,0.16,-0.023,0.065,0.178,0.011,-0.035,-0.037,-0.092
