0.001,-0.068,-0.069,0.034,0.036,-0.069,0.04,0.145,0.017,-0.089,-0.015,0.05
-0.01,-0.081,-0.071,0.046,0.031,-0.076,0.053,0.159,0.027,-0.072,-0.013,0.058
-0.009,-0.062,-0.053,0.036,0.023,-0.057,0.074,0.181,0.04,-0.048,-0.007,0.065
0.021,-0.041,-0.063,0.01,0.042,-0.052,0.076,0.184,0.062,-0.04,-0.004,0.066
-0.006,-0.039,-0.033,0.023,0.014,-0.036,0.073,0.201,0.083,-0.022,0.003,0.07
0.005,-0.03,-0.035,0.013,0.021,-0.033,0.08,0.223,0.095,-0.004,0.004,0.072
0.011,-0.02,-0.031,0.005,0.021,-0.025,0.095,0.255,0.118,0.031,0.024,0.076
-0.011,-0.007,0.004,0.009,-0.007,-0.002,0.103,0.293,0.161,0.063,0.045,0.077
-0.025,0.007,0.032,0.009,-0.029,0.019,0.121,0.346,0.197,0.08,0.057,0.097
-0.003,0.028,0.03,-0.013,-0.017,0.029,0.131,0.422,0.24,0.124,0.077,0.111
0.05,0.057,0.006,-0.054,0.022,0.031,0.132,0.518,0.296,0.178,0.1,0.115
0.05,0.08,0.03,-0.065,0.01,0.055,0.158,0.63,0.363,0.237,0.132,0.142
0.054,0.124,0.07,-0.089,-0.008,0.096,0.177,0.738,0.431,0.303,0.17,0.173
0.088,0.169,0.081,-0.129,0.003,0.125,0.174,0.824,0.491,0.382,0.228,0.207
0.088,0.193,0.105,-0.14,-0.009,0.149,0.165,0.864,0.534,0.44,0.271,0.232
0.107,0.226,0.119,-0.167,-0.006,0.172,0.157,0.851,0.538,0.465,0.296,0.258
0.123,0.257,0.134,-0.191,-0.006,0.195,0.147,0.804,0.527,0.479,0.309,0.273
0.12,0.251,0.131,-0.186,-0.006,0.191,0.139,0.735,0.49,0.458,0.302,0.262
0.102,0.224,0.122,-0.164,-0.01,0.173,0.132,0.613,0.42,0.405,0.29,0.259
0.071,0.195,0.124,-0.133,-0.026,0.159,0.127,0.472,0.328,0.334,0.257,0.248
0.058,0.155,0.097,-0.107,-0.02,0.126,0.114,0.337,0.236,0.248,0.213,0.215
0.042,0.127,0.085,-0.085,-0.022,0.106,0.092,0.214,0.154,0.164,0.161,0.188
0.041,0.097,0.056,-0.069,-0.007,0.076,0.08,0.125,0.079,0.099,0.12,0.164
0.0,0.05,0.05,-0.025,-0.025,0.05,0.073,0.071,0.027,0.047,0.085,0.126
-0.01,0.022,0.032,-0.006,-0.022,0.027,0.065,0.043,-0.011,0.017,0.048,0.108
-0.007,0.007,0.014,-0.001,-0.011,0.01,0.055,0.013,-0.038,-0.004,0.037,0.103
-0.007,-0.008,-0.001,0.007,-0.003,-0.004,0.047,0.004,-0.053,-0.029,0.031,0.095
0.036,-0.017,-0.053,-0.009,0.045,-0.035,0.037,0.003,-0.062,-0.04,0.024,0.09
0.024,-0.026,-0.05,0.001,0.037,-0.037,0.031,-0.001,-0.061,-0.04,0.018,0.082
0.019,-0.029,-0.048,0.005,0.034,-0.039,0.035,-0.002,-0.055,-0.04,0.011,0.08
0.018,-0.034,-0.053,0.008,0.036,-0.043,0.037,-0.007,-0.051,-0.04,0.013,0.08
0.014,-0.033,-0.047,0.01,0.031,-0.04,0.04,0.003,-0.046,-0.04,0.016,0.076
0.026,-0.026,-0.052,0.0,0.039,-0.039,0.043,0.02,-0.042,-0.038,0.02,0.075
0.03,-0.021,-0.051,-0.004,0.041,-0.036,0.045,0.038,-0.038,-0.031,0.019,0.075
0.023,-0.016,-0.039,-0.003,0.031,-0.027,0.041,0.05,-0.034,-0.024,0.014,0.07
0.026,-0.01,-0.036,-0.008,0.031,-0.023,0.04,0.054,-0.03,-0.018,0.016,0.07
0.024,-0.006,-0.03,-0.009,0.027,-0.018,0.04,0.051,-0.027,-0.011,0.012,0.069
-0.021,-0.012,0.01,0.016,-0.015,-0.001,0.04,0.046,-0.022,-0.005,0.01,0.064
-0.01,-0.02,-0.01,0.016,0.0,-0.015,0.04,0.044,-0.02,-0.005,0.01,0.066
0.018,-0.028,-0.045,0.005,0.032,-0.036,0.038,0.039,-0.027,-0.005,0.015,0.062
0.001,-0.031,-0.032,0.015,0.016,-0.031,0.035,0.036,-0.038,-0.005,0.015,0.059
0.005,-0.03,-0.035,0.013,0.02,-0.032,0.033,0.032,-0.04,-0.005,0.008,0.06
0.005,-0.03,-0.035,0.013,0.02,-0.032,0.03,0.024,-0.04,-0.003,0.005,0.056
0.001,-0.03,-0.031,0.014,0.016,-0.03,0.026,0.016,-0.04,0.002,0.0,0.055
-0.001,-0.031,-0.03,0.016,0.015,-0.03,0.025,0.008,-0.051,0.005,-0.004,0.055
-0.004,-0.034,-0.03,0.019,0.013,-0.031,0.021,0.001,-0.06,0.008,-0.01,0.055
-0.006,-0.037,-0.03,0.022,0.012,-0.033,0.02,-0.005,-0.06,0.013,-0.018,0.055
-0.01,-0.04,-0.029,0.025,0.009,-0.035,0.015,-0.005,-0.06,0.015,-0.015,0.055
-0.012,-0.042,-0.03,0.027,0.009,-0.036,0.018,-0.005,-0.06,0.02,-0.01,0.055
-0.031,-0.045,-0.014,0.039,-0.008,-0.029,0.038,-0.005,-0.06,0.019,-0.008,0.055
-0.015,-0.047,-0.032,0.031,0.009,-0.039,0.04,-0.005,-0.058,0.022,-0.003,0.057
0.01,-0.055,-0.065,0.023,0.037,-0.059,0.032,-0.003,-0.051,0.024,0.0,0.06
-0.01,-0.06,-0.049,0.035,0.02,-0.054,0.031,0.005,-0.044,0.027,-0.004,0.06
-0.005,-0.053,-0.048,0.029,0.022,-0.05,0.024,0.01,-0.039,0.021,-0.015,0.059
-0.005,-0.043,-0.037,0.024,0.016,-0.04,0.021,0.02,-0.029,0.021,-0.018,0.061
-0.017,-0.029,-0.012,0.023,-0.002,-0.02,0.025,0.022,-0.027,0.042,0.002,0.058
-0.007,-0.004,0.004,0.006,-0.005,0.0,0.045,0.038,-0.001,0.064,0.022,0.072
-0.016,0.029,0.045,-0.007,-0.031,0.037,0.076,0.061,0.022,0.082,0.036,0.07
0.007,0.056,0.049,-0.032,-0.021,0.052,0.087,0.067,0.017,0.086,0.039,0.063
0.023,0.103,0.08,-0.063,-0.029,0.091,0.065,0.057,0.042,0.112,0.053,0.1
0.0,0.132,0.132,-0.066,-0.066,0.132,0.017,0.005,0.055,0.14,0.074,0.113
0.025,0.119,0.094,-0.072,-0.035,0.106,0.009,0.002,0.037,0.122,0.063,0.101
0.047,0.092,0.045,-0.07,0.001,0.068,0.026,0.019,0.029,0.121,0.064,0.104
0.008,0.021,0.013,-0.014,-0.003,0.017,0.033,0.029,0.014,0.107,0.053,0.086
-0.023,-0.024,-0.001,0.024,-0.011,-0.012,0.027,0.001,-0.027,0.056,0.014,0.06
-0.022,-0.05,-0.028,0.037,0.003,-0.039,0.022,-0.022,-0.043,0.045,-0.006,0.04
-0.024,-0.075,-0.051,0.05,0.013,-0.063,0.02,-0.008,-0.061,0.024,-0.015,0.03
-0.009,-0.081,-0.072,0.045,0.032,-0.076,0.01,-0.028,-0.044,0.041,-0.014,0.032
-0.012,-0.095,-0.083,0.054,0.036,-0.089,0.016,0.021,-0.049,0.009,-0.033,0.021
-0.023,-0.078,-0.055,0.051,0.016,-0.067,-0.001,-0.031,-0.041,0.028,-0.023,0.03
-0.006,-0.103,-0.097,0.055,0.046,-0.1,0.032,0.054,-0.017,0.016,-0.05,0.011
-0.055,0.027,0.082,0.014,-0.069,0.055,0.082,0.07,0.078,0.07,-0.014,0.037
-0.082,0.23,0.313,-0.074,-0.198,0.271,0.143,0.259,0.434,0.244,0.084,0.109
0.108,0.438,0.33,-0.273,-0.112,0.384,-0.111,-0.112,0.596,0.77,0.508,0.413
0.324,0.311,-0.014,-0.317,0.169,0.148,-0.538,-1.517,0.42,1.767,1.064,0.713
0.309,-0.599,-0.908,0.145,0.609,-0.753,-0.775,-1.734,-0.834,0.502,0.337,0.222
0.202,-1.309,-1.512,0.554,0.857,-1.41,-1.054,-1.548,-2.072,-1.43,-0.666,-0.362
0.134,-1.224,-1.358,0.545,0.746,-1.291,-0.757,-1.229,-1.488,-1.134,-0.652,-0.39
0.084,-0.699,-0.782,0.308,0.433,-0.74,-0.24,-0.376,-0.663,-0.602,-0.398,-0.231
0.03,-0.314,-0.344,0.142,0.188,-0.329,-0.105,-0.053,-0.263,-0.274,-0.192,-0.094
0.011,-0.192,-0.203,0.091,0.107,-0.197,-0.01,0.098,-0.047,-0.098,-0.109,-0.052
-0.002,-0.131,-0.129,0.067,0.064,-0.129,0.017,0.122,-0.018,-0.078,-0.088,-0.03
-0.011,-0.129,-0.118,0.071,0.053,-0.123,0.048,0.141,0.042,-0.006,-0.068,-0.021
0.011,-0.091,-0.101,0.04,0.056,-0.096,0.055,0.163,0.043,-0.009,-0.069,-0.016
-0.006,-0.082,-0.076,0.045,0.035,-0.079,0.058,0.148,0.075,0.038,-0.052,-0.004
-0.005,-0.079,-0.074,0.042,0.035,-0.076,0.073,0.169,0.088,0.036,-0.052,-0.001
0.007,-0.069,-0.076,0.031,0.042,-0.072,0.077,0.164,0.106,0.061,-0.042,0.009
-0.005,-0.069,-0.064,0.037,0.029,-0.066,0.091,0.183,0.121,0.081,-0.039,0.013
-0.018,-0.056,-0.038,0.037,0.01,-0.047,0.09,0.2,0.146,0.101,-0.031,0.021
-0.001,-0.044,-0.043,0.023,0.021,-0.043,0.104,0.24,0.191,0.127,-0.012,0.028
0.001,-0.029,-0.031,0.014,0.016,-0.03,0.112,0.267,0.21,0.15,0.011,0.034
-0.018,-0.013,0.005,0.016,-0.012,-0.004,0.121,0.324,0.255,0.2,0.034,0.049
0.028,0.012,-0.016,-0.019,0.022,-0.002,0.133,0.401,0.31,0.246,0.055,0.059
0.044,0.045,0.001,-0.045,0.021,0.023,0.143,0.485,0.366,0.296,0.08,0.075
0.043,0.085,0.042,-0.064,0.001,0.063,0.16,0.595,0.437,0.371,0.125,0.115
0.078,0.124,0.046,-0.101,0.016,0.085,0.164,0.692,0.51,0.452,0.185,0.155
0.103,0.163,0.06,-0.133,0.021,0.112,0.158,0.755,0.56,0.513,0.223,0.179
0.113,0.196,0.083,-0.154,0.015,0.139,0.152,0.768,0.564,0.547,0.255,0.205
0.104,0.216,0.112,-0.16,-0.004,0.164,0.148,0.75,0.555,0.551,0.28,0.219
0.116,0.22,0.104,-0.168,0.006,0.162,0.141,0.709,0.53,0.55,0.27,0.21
0.114,0.214,0.1,-0.164,0.006,0.157,0.136,0.614,0.471,0.528,0.26,0.202
0.1,0.195,0.095,-0.148,0.003,0.145,0.145,0.498,0.385,0.455,0.248,0.193
0.068,0.156,0.088,-0.112,-0.01,0.122,0.136,0.378,0.29,0.369,0.203,0.183
0.024,0.108,0.084,-0.067,-0.03,0.096,0.119,0.248,0.196,0.28,0.147,0.151
0.011,0.064,0.053,-0.038,-0.021,0.058,0.109,0.157,0.113,0.202,0.097,0.113
-0.028,0.027,0.055,0.001,-0.042,0.041,0.096,0.086,0.054,0.148,0.061,0.092
-0.017,-0.006,0.011,0.011,-0.014,0.002,0.085,0.031,0.016,0.107,0.039,0.075
0.026,-0.023,-0.049,-0.001,0.038,-0.036,0.073,0.007,-0.008,0.081,0.027,0.061
0.009,-0.033,-0.042,0.012,0.026,-0.037,0.062,0.004,-0.026,0.071,0.016,0.051
0.0,-0.038,-0.038,0.019,0.019,-0.037,0.055,0.004,-0.031,0.068,0.004,0.05
0.005,-0.034,-0.039,0.015,0.022,-0.037,0.055,-0.002,-0.026,0.065,-0.002,0.05
-0.009,-0.035,-0.026,0.023,0.009,-0.03,0.054,0.002,-0.024,0.062,-0.009,0.045
0.004,-0.035,-0.039,0.015,0.022,-0.036,0.05,0.011,-0.019,0.059,-0.016,0.045
0.02,-0.035,-0.055,0.008,0.038,-0.045,0.05,0.026,-0.016,0.062,-0.023,0.044
0.013,-0.035,-0.048,0.011,0.031,-0.041,0.05,0.029,-0.013,0.065,-0.029,0.04
0.016,-0.03,-0.045,0.007,0.031,-0.038,0.05,0.033,-0.01,0.066,-0.026,0.04
0.003,-0.026,-0.028,0.012,0.016,-0.027,0.05,0.041,-0.007,0.07,-0.02,0.037
0.004,-0.021,-0.026,0.009,0.015,-0.023,0.05,0.036,-0.004,0.069,-0.015,0.034
0.006,-0.017,-0.023,0.006,0.015,-0.02,0.05,0.033,-0.001,0.065,-0.01,0.035
0.013,-0.012,-0.025,0.0,0.019,-0.018,0.049,0.029,0.0,0.065,-0.003,0.031
0.01,-0.01,-0.02,0.0,0.015,-0.015,0.045,0.026,-0.008,0.065,-0.001,0.03
-0.01,-0.01,0.0,0.01,-0.005,-0.005,0.041,0.022,-0.017,0.065,-0.006,0.03
-0.006,-0.011,-0.005,0.008,-0.001,-0.007,0.039,0.014,-0.026,0.065,-0.012,0.03
-0.02,-0.01,0.011,0.015,-0.016,0.001,0.034,0.006,-0.034,0.063,-0.015,0.03
-0.045,-0.011,0.034,0.028,-0.04,0.011,0.031,-0.002,-0.047,0.057,-0.02,0.03
-0.047,-0.024,0.023,0.035,-0.035,0.0,0.027,-0.009,-0.06,0.052,-0.025,0.03
-0.03,-0.025,0.005,0.027,-0.017,-0.009,0.025,-0.021,-0.06,0.048,-0.022,0.03
-0.027,-0.019,0.007,0.023,-0.017,-0.006,0.025,-0.026,-0.06,0.044,-0.019,0.03
-0.034,-0.017,0.016,0.025,-0.025,0.0,0.025,-0.025,-0.062,0.04,-0.02,0.03
-0.037,-0.012,0.025,0.024,-0.031,0.007,0.025,-0.025,-0.066,0.035,-0.02,0.03
-0.005,-0.01,-0.005,0.008,0.0,-0.007,0.025,-0.025,-0.07,0.035,-0.02,0.027
-0.008,-0.015,-0.007,0.011,0.0,-0.011,0.02,-0.025,-0.075,0.034,-0.021,0.022
-0.039,-0.02,0.019,0.029,-0.029,0.0,0.02,-0.023,-0.075,0.03,-0.026,0.019
-0.028,-0.023,0.005,0.026,-0.016,-0.009,0.018,-0.02,-0.075,0.03,-0.03,0.016
-0.037,-0.03,0.007,0.033,-0.022,-0.011,0.015,-0.02,-0.075,0.032,-0.03,0.011
-0.032,-0.027,0.005,0.029,-0.018,-0.011,0.015,-0.02,-0.075,0.036,-0.031,0.011
-0.008,-0.02,-0.012,0.014,0.002,-0.016,0.017,-0.019,-0.073,0.038,-0.03,0.017
0.01,-0.011,-0.021,0.001,0.016,-0.016,0.023,-0.02,-0.065,0.043,-0.031,0.024
-0.009,-0.007,0.001,0.008,-0.005,-0.003,0.024,-0.007,-0.061,0.044,-0.022,0.031
-0.031,0.028,0.058,0.001,-0.045,0.042,0.041,0.011,-0.035,0.066,-0.004,0.038
-0.002,0.097,0.099,-0.048,-0.051,0.097,0.064,0.038,0.001,0.094,0.009,0.052
0.011,0.122,0.111,-0.067,-0.05,0.116,0.067,0.05,0.01,0.098,0.025,0.057
-0.001,0.134,0.135,-0.067,-0.068,0.134,0.034,0.011,0.013,0.116,0.033,0.069
0.01,0.165,0.155,-0.088,-0.073,0.16,-0.003,-0.029,0.021,0.131,0.053,0.083
0.029,0.163,0.135,-0.096,-0.053,0.149,0.003,-0.028,0.008,0.12,0.061,0.078
0.025,0.127,0.102,-0.076,-0.039,0.114,0.003,-0.031,-0.004,0.122,0.05,0.083
-0.002,0.067,0.069,-0.033,-0.036,0.068,0.003,-0.016,-0.026,0.092,0.032,0.067
-0.03,0.022,0.052,0.003,-0.041,0.037,-0.004,-0.045,-0.068,0.05,0.001,0.039
-0.036,-0.009,0.027,0.022,-0.032,0.009,-0.003,-0.047,-0.075,0.05,-0.021,0.02
-0.046,-0.02,0.026,0.033,-0.036,0.003,-0.008,-0.042,-0.1,0.022,-0.037,0.005
-0.017,-0.033,-0.016,0.025,0.0,-0.024,-0.012,-0.067,-0.086,0.037,-0.043,-0.001
0.012,-0.045,-0.057,0.017,0.035,-0.051,-0.007,-0.028,-0.103,0.003,-0.057,-0.01
0.004,-0.015,-0.019,0.006,0.011,-0.016,-0.029,-0.096,-0.089,0.038,-0.041,-0.003
-0.001,-0.046,-0.045,0.024,0.022,-0.045,0.027,0.024,-0.066,0.006,-0.061,-0.019
-0.071,0.093,0.163,-0.011,-0.117,0.128,0.061,0.044,0.065,0.075,-0.006,0.024
-0.062,0.314,0.376,-0.126,-0.219,0.345,0.092,0.228,0.432,0.28,0.107,0.106
0.141,0.544,0.403,-0.343,-0.131,0.473,-0.178,-0.339,0.576,0.898,0.59,0.459
0.333,0.377,0.043,-0.355,0.145,0.21,-0.642,-1.812,0.352,1.81,1.07,0.71
0.331,-0.635,-0.966,0.153,0.649,-0.801,-0.938,-1.878,-1.036,0.294,0.196,0.099
0.242,-1.323,-1.565,0.541,0.904,-1.444,-1.138,-1.684,-2.143,-1.492,-0.736,-0.451
0.171,-1.13,-1.302,0.48,0.737,-1.216,-0.735,-1.229,-1.416,-1.062,-0.65,-0.423
0.097,-0.593,-0.69,0.248,0.394,-0.641,-0.242,-0.32,-0.644,-0.585,-0.39,-0.254
0.039,-0.239,-0.278,0.1,0.159,-0.258,-0.133,-0.079,-0.277,-0.269,-0.198,-0.122
-0.008,-0.142,-0.134,0.075,0.063,-0.138,-0.044,0.077,-0.094,-0.113,-0.139,-0.085
-0.001,-0.083,-0.082,0.042,0.04,-0.082,-0.014,0.094,-0.065,-0.087,-0.109,-0.052
0.013,-0.067,-0.079,0.027,0.046,-0.073,0.006,0.117,-0.014,-0.028,-0.091,-0.044
0.007,-0.044,-0.051,0.019,0.029,-0.047,0.015,0.145,-0.009,-0.028,-0.086,-0.033
-0.016,-0.034,-0.018,0.026,0.001,-0.026,0.039,0.128,0.033,0.021,-0.069,-0.025
-0.016,-0.022,-0.006,0.019,-0.004,-0.014,0.055,0.154,0.044,0.022,-0.068,-0.021
0.016,-0.014,-0.029,-0.001,0.023,-0.021,0.051,0.149,0.056,0.041,-0.055,-0.011
0.002,-0.006,-0.008,0.002,0.005,-0.007,0.066,0.177,0.081,0.057,-0.05,-0.006
0.002,0.005,0.003,-0.003,-0.001,0.004,0.07,0.188,0.107,0.072,-0.041,0.0
0.02,0.021,0.0,-0.021,0.01,0.011,0.082,0.217,0.136,0.093,-0.023,0.008
0.021,0.048,0.027,-0.035,-0.003,0.037,0.084,0.275,0.172,0.126,-0.009,0.017
0.011,0.063,0.052,-0.037,-0.02,0.057,0.096,0.344,0.222,0.166,0.013,0.029
0.045,0.089,0.044,-0.067,0.0,0.067,0.127,0.434,0.28,0.217,0.043,0.051
0.074,0.112,0.038,-0.093,0.017,0.075,0.136,0.536,0.343,0.273,0.077,0.071
0.065,0.149,0.083,-0.107,-0.009,0.116,0.155,0.648,0.42,0.345,0.121,0.101
0.079,0.184,0.106,-0.132,-0.014,0.145,0.168,0.744,0.487,0.41,0.155,0.123
0.09,0.216,0.126,-0.153,-0.018,0.171,0.157,0.791,0.531,0.479,0.202,0.156
0.112,0.257,0.145,-0.185,-0.017,0.201,0.151,0.805,0.54,0.522,0.239,0.186
0.137,0.272,0.136,-0.205,0.0,0.204,0.141,0.786,0.528,0.521,0.259,0.192
0.149,0.285,0.136,-0.218,0.006,0.21,0.135,0.716,0.507,0.516,0.259,0.193
0.141,0.272,0.131,-0.206,0.005,0.201,0.126,0.605,0.446,0.475,0.242,0.18
0.099,0.229,0.13,-0.164,-0.016,0.179,0.111,0.473,0.358,0.409,0.229,0.175
0.068,0.192,0.124,-0.131,-0.028,0.157,0.099,0.328,0.253,0.314,0.179,0.155
0.051,0.159,0.107,-0.105,-0.028,0.133,0.084,0.198,0.162,0.224,0.12,0.117
0.037,0.132,0.096,-0.085,-0.03,0.114,0.07,0.103,0.085,0.153,0.076,0.084
0.022,0.104,0.082,-0.063,-0.03,0.093,0.057,0.034,0.03,0.094,0.043,0.058
0.0,0.07,0.071,-0.035,-0.036,0.07,0.045,-0.013,-0.001,0.057,0.022,0.047
-0.01,0.05,0.06,-0.02,-0.035,0.054,0.034,-0.04,-0.039,0.022,0.005,0.036
-0.014,0.039,0.053,-0.013,-0.033,0.045,0.022,-0.056,-0.062,0.007,-0.005,0.024
-0.019,0.027,0.046,-0.005,-0.033,0.036,0.015,-0.062,-0.069,-0.003,-0.013,0.02
-0.013,0.025,0.038,-0.006,-0.026,0.031,0.015,-0.054,-0.074,-0.016,-0.022,0.017
-0.005,0.025,0.03,-0.01,-0.018,0.027,0.015,-0.044,-0.067,-0.016,-0.031,0.015
-0.001,0.025,0.026,-0.012,-0.014,0.025,0.015,-0.036,-0.063,-0.015,-0.035,0.011
-0.007,0.025,0.032,-0.009,-0.02,0.028,0.015,-0.029,-0.057,-0.015,-0.035,0.009
-0.014,0.025,0.039,-0.006,-0.027,0.032,0.012,-0.024,-0.051,-0.01,-0.035,0.014
-0.009,0.032,0.041,-0.012,-0.025,0.036,0.009,-0.019,-0.046,-0.01,-0.035,0.015
-0.002,0.043,0.045,-0.021,-0.024,0.044,0.01,-0.013,-0.041,-0.009,-0.035,0.015
0.002,0.05,0.048,-0.026,-0.023,0.049,0.006,-0.007,-0.039,-0.004,-0.032,0.015
0.003,0.055,0.052,-0.029,-0.025,0.053,0.005,-0.007,-0.036,-0.001,-0.029,0.015
-0.005,0.058,0.063,-0.027,-0.034,0.06,0.005,-0.015,-0.034,0.002,-0.026,0.015
-0.003,0.063,0.065,-0.031,-0.034,0.064,0.0,-0.021,-0.03,0.007,-0.023,0.015
0.0,0.065,0.065,-0.033,-0.033,0.065,0.0,-0.028,-0.031,0.01,-0.02,0.015
-0.005,0.065,0.07,-0.03,-0.038,0.067,-0.001,-0.035,-0.04,0.006,-0.021,0.015
-0.005,0.065,0.07,-0.03,-0.038,0.067,-0.005,-0.04,-0.049,0.001,-0.025,0.015
-0.006,0.065,0.071,-0.03,-0.039,0.068,-0.005,-0.046,-0.056,-0.003,-0.025,0.015
-0.011,0.064,0.075,-0.027,-0.044,0.07,-0.007,-0.052,-0.062,-0.008,-0.025,0.012
-0.014,0.061,0.075,-0.024,-0.044,0.067,-0.011,-0.058,-0.065,-0.012,-0.025,0.009
-0.017,0.058,0.075,-0.021,-0.046,0.066,-0.01,-0.06,-0.068,-0.017,-0.024,0.006
-0.02,0.055,0.075,-0.018,-0.048,0.065,-0.01,-0.06,-0.073,-0.02,-0.03,0.004
-0.023,0.052,0.075,-0.015,-0.049,0.063,-0.01,-0.06,-0.075,-0.02,-0.033,0.0
-0.029,0.05,0.079,-0.011,-0.053,0.064,-0.01,-0.06,-0.075,-0.02,-0.03,0.001
-0.033,0.048,0.08,-0.008,-0.057,0.064,-0.015,-0.06,-0.075,-0.02,-0.03,0.005
-0.035,0.044,0.08,-0.005,-0.058,0.061,-0.015,-0.065,-0.075,-0.019,-0.03,0.004
-0.038,0.042,0.08,-0.002,-0.059,0.061,-0.016,-0.065,-0.075,-0.024,-0.03,0.008
-0.041,0.039,0.08,0.001,-0.06,0.059,-0.02,-0.065,-0.076,-0.025,-0.03,0.01
-0.043,0.036,0.079,0.003,-0.062,0.057,-0.02,-0.064,-0.071,-0.027,-0.026,0.01
-0.039,0.034,0.073,0.002,-0.056,0.054,-0.017,-0.066,-0.067,-0.038,-0.02,0.006
-0.027,0.042,0.07,-0.008,-0.049,0.056,-0.009,-0.061,-0.062,-0.033,-0.016,0.004
-0.014,0.051,0.065,-0.019,-0.04,0.058,-0.001,-0.052,-0.058,-0.027,-0.009,0.0
-0.011,0.062,0.073,-0.026,-0.042,0.067,0.003,-0.042,-0.052,-0.015,-0.004,0.001
-0.027,0.11,0.137,-0.042,-0.082,0.123,0.027,-0.021,-0.02,0.011,0.002,0.028
-0.044,0.142,0.186,-0.05,-0.115,0.164,0.045,0.001,0.006,0.033,0.006,0.046
-0.025,0.167,0.192,-0.071,-0.109,0.179,0.04,0.019,0.009,0.044,0.022,0.047
-0.002,0.213,0.215,-0.106,-0.109,0.214,0.002,-0.026,0.016,0.05,0.045,0.065
-0.008,0.221,0.229,-0.107,-0.118,0.225,-0.036,-0.067,0.02,0.052,0.045,0.074
-0.006,0.192,0.198,-0.094,-0.102,0.195,-0.034,-0.061,0.003,0.042,0.035,0.064
-0.008,0.143,0.151,-0.068,-0.079,0.146,-0.037,-0.079,-0.006,0.048,0.035,0.057
-0.018,0.09,0.108,-0.036,-0.063,0.098,-0.029,-0.059,-0.031,0.006,0.015,0.037
-0.025,0.068,0.094,-0.022,-0.06,0.081,-0.032,-0.093,-0.062,-0.021,-0.004,0.02
-0.027,0.044,0.071,-0.009,-0.049,0.057,-0.027,-0.076,-0.064,-0.039,-0.023,0.004
-0.038,0.04,0.078,-0.002,-0.058,0.059,-0.033,-0.101,-0.071,-0.057,-0.024,0.006
-0.06,0.012,0.072,0.024,-0.066,0.042,-0.028,-0.087,-0.056,-0.038,-0.036,-0.005
-0.073,0.01,0.083,0.032,-0.078,0.046,-0.029,-0.091,-0.076,-0.059,-0.045,-0.008
-0.083,0.001,0.084,0.041,-0.084,0.042,-0.038,-0.116,-0.054,-0.012,-0.044,-0.011
-0.081,0.005,0.086,0.038,-0.084,0.045,0.008,0.014,-0.047,-0.065,-0.069,-0.031
-0.109,0.216,0.325,-0.054,-0.217,0.27,0.054,0.019,0.188,0.061,0.027,0.031
-0.058,0.437,0.495,-0.19,-0.277,0.466,0.044,0.221,0.53,0.308,0.222,0.186
0.172,0.645,0.473,-0.409,-0.151,0.559,-0.358,-0.934,0.633,1.201,0.84,0.6
0.326,0.166,-0.16,-0.246,0.243,0.003,-0.779,-2.169,0.119,1.494,0.9,0.546
0.267,-0.932,-1.199,0.333,0.733,-1.065,-1.073,-1.905,-1.507,-0.598,-0.264,-0.205
0.184,-1.307,-1.49,0.562,0.837,-1.398,-1.122,-1.776,-2.005,-1.554,-0.798,-0.525
0.126,-0.906,-1.032,0.39,0.579,-0.968,-0.542,-0.933,-1.041,-0.882,-0.547,-0.391
0.049,-0.379,-0.428,0.165,0.239,-0.403,-0.19,-0.204,-0.48,-0.529,-0.306,-0.21
-0.005,-0.14,-0.136,0.073,0.065,-0.138,-0.115,-0.07,-0.169,-0.226,-0.142,-0.108
-0.03,-0.078,-0.048,0.055,0.009,-0.063,-0.025,0.094,-0.074,-0.178,-0.12,-0.084
-0.029,-0.032,-0.002,0.03,-0.013,-0.017,-0.009,0.057,-0.04,-0.122,-0.082,-0.058
-0.043,-0.018,0.026,0.03,-0.034,0.004,0.024,0.117,0.005,-0.082,-0.072,-0.053
-0.063,0.001,0.064,0.03,-0.063,0.032,0.021,0.106,0.003,-0.059,-0.062,-0.039
-0.052,0.009,0.061,0.021,-0.057,0.035,0.035,0.124,0.029,-0.035,-0.055,-0.037
-0.045,0.025,0.07,0.01,-0.058,0.047,0.041,0.142,0.041,-0.036,-0.051,-0.031
-0.058,0.038,0.096,0.009,-0.077,0.067,0.047,0.151,0.078,-0.002,-0.038,-0.027
-0.071,0.051,0.121,0.01,-0.096,0.086,0.055,0.183,0.093,0.012,-0.031,-0.023
-0.053,0.069,0.122,-0.008,-0.088,0.095,0.059,0.202,0.122,0.046,-0.019,-0.018
-0.023,0.093,0.115,-0.035,-0.069,0.104,0.065,0.245,0.147,0.049,-0.005,-0.011
-0.036,0.097,0.133,-0.031,-0.084,0.115,0.083,0.3,0.184,0.071,0.019,0.0
-0.046,0.106,0.152,-0.03,-0.099,0.128,0.106,0.38,0.233,0.107,0.036,0.012
-0.01,0.134,0.144,-0.062,-0.077,0.139,0.107,0.473,0.275,0.142,0.057,0.035
0.0,0.167,0.167,-0.084,-0.084,0.167,0.131,0.594,0.352,0.206,0.087,0.054
0.024,0.202,0.178,-0.113,-0.077,0.19,0.16,0.71,0.431,0.276,0.138,0.081
0.073,0.238,0.165,-0.156,-0.046,0.202,0.162,0.79,0.489,0.344,0.185,0.117
0.076,0.277,0.202,-0.177,-0.063,0.239,0.153,0.828,0.526,0.401,0.222,0.145
0.078,0.305,0.227,-0.192,-0.075,0.266,0.144,0.825,0.53,0.422,0.255,0.161
0.087,0.313,0.226,-0.201,-0.069,0.269,0.136,0.783,0.517,0.421,0.255,0.175
0.079,0.302,0.223,-0.191,-0.072,0.262,0.125,0.696,0.485,0.416,0.241,0.182
0.059,0.291,0.232,-0.175,-0.087,0.261,0.121,0.572,0.42,0.372,0.232,0.182
0.048,0.279,0.231,-0.164,-0.092,0.255,0.114,0.422,0.335,0.3,0.217,0.165
0.042,0.254,0.212,-0.148,-0.085,0.232,0.092,0.273,0.249,0.217,0.177,0.126
0.002,0.215,0.213,-0.109,-0.106,0.214,0.075,0.151,0.158,0.126,0.121,0.084
-0.026,0.169,0.195,-0.072,-0.111,0.182,0.064,0.057,0.085,0.05,0.074,0.049
-0.042,0.134,0.176,-0.046,-0.11,0.155,0.051,-0.015,0.036,0.003,0.039,0.027
-0.059,0.112,0.171,-0.027,-0.115,0.141,0.035,-0.047,-0.009,-0.025,0.024,0.008
-0.065,0.095,0.16,-0.016,-0.113,0.128,0.018,-0.07,-0.036,-0.053,0.016,-0.006
-0.054,0.09,0.143,-0.018,-0.099,0.116,0.009,-0.088,-0.051,-0.071,0.005,-0.014
-0.043,0.082,0.125,-0.02,-0.084,0.103,0.011,-0.078,-0.052,-0.079,-0.004,-0.022
-0.045,0.076,0.121,-0.016,-0.083,0.098,0.008,-0.073,-0.05,-0.091,-0.011,-0.032
-0.032,0.069,0.101,-0.019,-0.067,0.085,0.005,-0.066,-0.073,-0.098,-0.017,-0.042
-0.064,0.064,0.127,0.0,-0.096,0.095,0.005,-0.058,-0.08,-0.094,-0.024,-0.04
-0.076,0.082,0.158,-0.004,-0.117,0.12,0.003,-0.056,-0.071,-0.089,-0.031,-0.04
-0.063,0.091,0.155,-0.014,-0.109,0.122,-0.001,-0.052,-0.067,-0.085,-0.035,-0.04
-0.074,0.085,0.159,-0.006,-0.117,0.122,-0.003,-0.051,-0.061,-0.081,-0.035,-0.04
-0.077,0.083,0.161,-0.003,-0.12,0.122,-0.006,-0.046,-0.06,-0.074,-0.035,-0.04
-0.077,0.096,0.173,-0.01,-0.125,0.134,-0.01,-0.045,-0.06,-0.082,-0.035,-0.043
-0.061,0.106,0.167,-0.023,-0.115,0.136,-0.009,-0.049,-0.06,-0.095,-0.035,-0.046
-0.073,0.1,0.173,-0.014,-0.123,0.136,-0.018,-0.051,-0.06,-0.095,-0.035,-0.045
-0.081,0.098,0.179,-0.009,-0.13,0.138,-0.027,-0.054,-0.06,-0.095,-0.039,-0.045
-0.071,0.093,0.164,-0.012,-0.118,0.128,-0.024,-0.057,-0.061,-0.095,-0.04,-0.045
-0.073,0.09,0.163,-0.009,-0.118,0.126,-0.026,-0.06,-0.066,-0.095,-0.04,-0.046
-0.063,0.087,0.15,-0.012,-0.107,0.118,-0.025,-0.059,-0.069,-0.095,-0.045,-0.05
-0.067,0.081,0.148,-0.007,-0.108,0.114,-0.025,-0.055,-0.075,-0.095,-0.045,-0.053
-0.081,0.076,0.157,0.002,-0.119,0.116,-0.028,-0.056,-0.084,-0.095,-0.046,-0.057
-0.085,0.073,0.158,0.006,-0.122,0.115,-0.033,-0.052,-0.092,-0.095,-0.051,-0.06
-0.098,0.066,0.164,0.016,-0.131,0.115,-0.034,-0.049,-0.094,-0.1,-0.055,-0.063
-0.081,0.07,0.151,0.006,-0.117,0.11,-0.029,-0.05,-0.09,-0.098,-0.052,-0.067
-0.075,0.081,0.156,-0.003,-0.115,0.118,-0.031,-0.053,-0.087,-0.092,-0.049,-0.07
-0.082,0.079,0.162,0.001,-0.122,0.12,-0.027,-0.058,-0.085,-0.088,-0.05,-0.074
-0.077,0.08,0.157,-0.002,-0.117,0.119,-0.025,-0.059,-0.081,-0.081,-0.05,-0.074
-0.081,0.08,0.161,0.0,-0.121,0.12,-0.025,-0.055,-0.08,-0.076,-0.05,-0.069
-0.069,0.08,0.149,-0.006,-0.109,0.114,-0.022,-0.05,-0.077,-0.071,-0.05,-0.071
-0.062,0.078,0.14,-0.008,-0.101,0.109,-0.019,-0.048,-0.074,-0.07,-0.05,-0.067
-0.075,0.074,0.149,0.0,-0.112,0.111,-0.017,-0.043,-0.076,-0.07,-0.05,-0.064
-0.07,0.076,0.146,-0.003,-0.109,0.111,-0.013,-0.039,-0.074,-0.065,-0.05,-0.066
-0.06,0.07,0.13,-0.005,-0.095,0.1,-0.011,-0.047,-0.076,-0.066,-0.05,-0.06
-0.063,0.07,0.133,-0.004,-0.098,0.102,-0.008,-0.049,-0.073,-0.064,-0.051,-0.052
-0.046,0.07,0.116,-0.012,-0.081,0.093,-0.003,-0.033,-0.059,-0.052,-0.045,-0.044
-0.049,0.106,0.155,-0.029,-0.102,0.13,0.012,-0.004,-0.035,-0.032,-0.035,-0.036
-0.067,0.165,0.232,-0.049,-0.15,0.198,0.041,0.027,-0.003,-0.004,-0.025,-0.029
-0.045,0.18,0.225,-0.068,-0.135,0.203,0.051,0.044,0.005,0.009,-0.012,-0.023
-0.057,0.202,0.259,-0.073,-0.158,0.231,0.024,0.004,0.013,0.008,0.008,-0.016
-0.059,0.211,0.27,-0.076,-0.165,0.24,-0.015,-0.048,0.026,0.018,0.024,-0.012
-0.014,0.195,0.209,-0.091,-0.112,0.202,-0.026,-0.036,0.01,0.006,0.015,-0.007
-0.026,0.159,0.186,-0.067,-0.106,0.172,-0.026,-0.051,-0.007,-0.003,0.009,-0.006
-0.04,0.091,0.132,-0.026,-0.086,0.111,-0.022,-0.039,-0.038,-0.041,-0.007,-0.033
-0.043,0.062,0.105,-0.01,-0.074,0.083,-0.023,-0.057,-0.081,-0.084,-0.042,-0.057
-0.063,0.029,0.092,0.017,-0.078,0.06,-0.016,-0.048,-0.087,-0.097,-0.065,-0.075
-0.082,0.008,0.09,0.037,-0.086,0.049,-0.025,-0.055,-0.102,-0.127,-0.071,-0.082
-0.093,-0.019,0.074,0.056,-0.083,0.027,-0.024,-0.09,-0.099,-0.103,-0.078,-0.089
-0.084,-0.024,0.06,0.054,-0.072,0.017,-0.024,-0.075,-0.122,-0.134,-0.093,-0.1
-0.059,0.004,0.063,0.028,-0.061,0.033,-0.031,-0.136,-0.095,-0.092,-0.078,-0.089
-0.042,-0.017,0.026,0.029,-0.034,0.004,0.022,-0.013,-0.08,-0.14,-0.104,-0.102
-0.113,0.14,0.253,-0.014,-0.183,0.196,0.064,0.006,0.089,-0.042,-0.041,-0.064
-0.105,0.34,0.445,-0.118,-0.275,0.392,0.093,0.229,0.447,0.165,0.085,0.039
0.129,0.557,0.428,-0.343,-0.15,0.492,-0.242,-0.504,0.572,0.873,0.616,0.411
0.295,0.284,-0.011,-0.289,0.153,0.136,-0.636,-1.862,0.293,1.647,1.008,0.577
0.25,-0.721,-0.97,0.236,0.61,-0.845,-0.896,-1.793,-1.175,-0.117,0.028,-0.062
0.161,-1.282,-1.443,0.561,0.802,-1.362,-1.109,-1.692,-2.116,-1.652,-0.798,-0.545
0.086,-1.071,-1.157,0.493,0.621,-1.114,-0.664,-1.174,-1.319,-1.122,-0.657,-0.499
0.023,-0.541,-0.563,0.259,0.293,-0.552,-0.211,-0.33,-0.621,-0.692,-0.408,-0.332
-0.02,-0.207,-0.188,0.114,0.084,-0.197,-0.113,-0.112,-0.252,-0.358,-0.214,-0.19
-0.064,-0.117,-0.053,0.09,-0.005,-0.085,-0.018,0.029,-0.092,-0.242,-0.17,-0.167
-0.073,-0.063,0.01,0.068,-0.041,-0.026,0.005,0.025,-0.06,-0.188,-0.139,-0.148
-0.045,-0.064,-0.019,0.055,-0.013,-0.041,0.034,0.055,-0.001,-0.146,-0.125,-0.137
-0.052,-0.04,0.011,0.046,-0.031,-0.015,0.045,0.061,0.005,-0.15,-0.116,-0.124
-0.068,-0.024,0.044,0.046,-0.056,0.01,0.065,0.07,0.041,-0.106,-0.099,-0.112
-0.082,-0.009,0.073,0.045,-0.078,0.032,0.071,0.096,0.054,-0.107,-0.097,-0.11
-0.09,-0.007,0.083,0.048,-0.086,0.038,0.08,0.103,0.08,-0.063,-0.082,-0.103
-0.059,0.0,0.059,0.03,-0.059,0.029,0.089,0.123,0.091,-0.047,-0.079,-0.098
-0.055,0.025,0.08,0.015,-0.068,0.052,0.096,0.149,0.125,-0.021,-0.069,-0.092
-0.073,0.033,0.107,0.019,-0.09,0.07,0.113,0.184,0.154,-0.005,-0.067,-0.086
-0.065,0.04,0.105,0.012,-0.085,0.072,0.108,0.217,0.184,0.024,-0.035,-0.069
-0.043,0.061,0.105,-0.009,-0.075,0.083,0.134,0.29,0.243,0.079,0.008,-0.048
-0.02,0.084,0.104,-0.033,-0.062,0.094,0.145,0.367,0.299,0.122,0.027,-0.028
-0.02,0.104,0.125,-0.042,-0.073,0.114,0.147,0.458,0.357,0.17,0.047,-0.013
-0.005,0.136,0.141,-0.066,-0.074,0.139,0.16,0.565,0.424,0.234,0.086,0.011
0.025,0.184,0.159,-0.105,-0.067,0.171,0.159,0.658,0.496,0.316,0.146,0.046
0.055,0.218,0.163,-0.137,-0.054,0.19,0.154,0.72,0.538,0.381,0.186,0.077
0.094,0.244,0.149,-0.169,-0.028,0.196,0.15,0.739,0.544,0.41,0.211,0.095
0.083,0.263,0.18,-0.173,-0.049,0.221,0.145,0.71,0.519,0.416,0.229,0.105
0.065,0.258,0.193,-0.162,-0.064,0.226,0.141,0.658,0.48,0.407,0.23,0.113
0.068,0.247,0.179,-0.158,-0.056,0.213,0.135,0.575,0.427,0.374,0.231,0.102
0.053,0.226,0.173,-0.14,-0.061,0.2,0.127,0.446,0.338,0.299,0.199,0.091
0.029,0.192,0.163,-0.11,-0.067,0.177,0.119,0.312,0.246,0.207,0.147,0.07
-0.009,0.146,0.155,-0.068,-0.082,0.15,0.111,0.2,0.167,0.117,0.097,0.032
-0.039,0.111,0.15,-0.036,-0.095,0.131,0.104,0.114,0.09,0.051,0.061,0.006
-0.029,0.082,0.112,-0.026,-0.071,0.097,0.093,0.044,0.036,-0.006,0.033,-0.025
-0.053,0.039,0.092,0.007,-0.073,0.065,0.08,-0.008,-0.006,-0.061,-0.015,-0.055
-0.079,0.018,0.097,0.03,-0.088,0.057,0.071,-0.036,-0.044,-0.086,-0.036,-0.07
-0.062,0.014,0.076,0.023,-0.069,0.045,0.07,-0.049,-0.059,-0.101,-0.034,-0.076
-0.072,0.008,0.08,0.032,-0.076,0.044,0.07,-0.055,-0.065,-0.097,-0.036,-0.074
-0.072,0.003,0.076,0.034,-0.074,0.039,0.065,-0.056,-0.062,-0.094,-0.034,-0.076
-0.071,-0.004,0.067,0.037,-0.069,0.032,0.065,-0.044,-0.052,-0.096,-0.046,-0.079
-0.075,-0.003,0.073,0.039,-0.074,0.035,0.064,-0.017,-0.045,-0.094,-0.051,-0.084
-0.061,0.004,0.065,0.029,-0.064,0.035,0.06,-0.004,-0.037,-0.096,-0.045,-0.083
-0.055,0.009,0.063,0.023,-0.059,0.036,0.058,-0.021,-0.031,-0.093,-0.046,-0.079
-0.026,0.014,0.039,0.006,-0.033,0.027,0.054,-0.026,-0.03,-0.09,-0.043,-0.077
-0.023,0.02,0.043,0.001,-0.033,0.032,0.052,-0.009,-0.03,-0.086,-0.04,-0.074
-0.057,0.024,0.081,0.016,-0.07,0.053,0.049,0.013,-0.025,-0.083,-0.04,-0.071
-0.065,0.021,0.085,0.022,-0.075,0.053,0.047,0.022,-0.025,-0.079,-0.04,-0.07
-0.065,0.019,0.085,0.022,-0.075,0.052,0.044,0.01,-0.025,-0.075,-0.04,-0.07
-0.061,0.02,0.082,0.02,-0.072,0.051,0.041,-0.008,-0.025,-0.08,-0.04,-0.07
-0.06,0.019,0.079,0.02,-0.069,0.049,0.038,-0.024,-0.026,-0.09,-0.04,-0.07
-0.06,0.02,0.08,0.02,-0.07,0.05,0.036,-0.026,-0.023,-0.096,-0.04,-0.07
-0.057,0.018,0.075,0.019,-0.066,0.046,0.033,-0.024,-0.036,-0.098,-0.041,-0.07
-0.062,0.013,0.075,0.024,-0.069,0.044,0.03,-0.025,-0.052,-0.102,-0.039,-0.072
-0.061,0.01,0.071,0.026,-0.066,0.04,0.03,-0.024,-0.054,-0.105,-0.044,-0.077
-0.063,0.007,0.07,0.028,-0.067,0.038,0.028,-0.038,-0.054,-0.101,-0.055,-0.079
-0.066,0.002,0.068,0.031,-0.067,0.035,0.025,-0.055,-0.062,-0.1,-0.055,-0.075
-0.065,-0.001,0.064,0.032,-0.064,0.031,0.025,-0.058,-0.071,-0.1,-0.055,-0.075
-0.055,0.01,0.066,0.022,-0.061,0.038,0.039,-0.054,-0.063,-0.095,-0.055,-0.075
-0.046,0.018,0.065,0.014,-0.056,0.041,0.047,-0.055,-0.06,-0.095,-0.055,-0.075
-0.054,0.011,0.065,0.021,-0.06,0.038,0.044,-0.055,-0.055,-0.094,-0.055,-0.075
-0.059,0.006,0.065,0.026,-0.063,0.036,0.046,-0.055,-0.05,-0.089,-0.055,-0.075
-0.069,0.001,0.07,0.034,-0.069,0.035,0.045,-0.069,-0.054,-0.086,-0.055,-0.075
-0.085,-0.006,0.079,0.045,-0.082,0.036,0.045,-0.065,-0.052,-0.082,-0.055,-0.075
-0.084,-0.008,0.076,0.046,-0.08,0.033,0.04,-0.049,-0.048,-0.079,-0.055,-0.075
-0.079,-0.008,0.07,0.043,-0.074,0.031,0.041,-0.05,-0.045,-0.075,-0.056,-0.075
-0.047,0.005,0.052,0.021,-0.049,0.028,0.039,-0.047,-0.041,-0.072,-0.048,-0.075
-0.04,0.036,0.076,0.002,-0.059,0.056,0.047,-0.025,-0.037,-0.067,-0.033,-0.064
-0.053,0.088,0.141,-0.018,-0.097,0.114,0.075,-0.002,-0.009,-0.043,-0.02,-0.05
-0.028,0.121,0.149,-0.047,-0.089,0.135,0.086,0.007,0.018,-0.019,-0.005,-0.037
-0.026,0.138,0.165,-0.056,-0.096,0.151,0.079,0.019,0.033,-0.01,0.009,-0.028
-0.034,0.175,0.209,-0.071,-0.121,0.192,0.045,-0.014,0.042,-0.004,0.012,-0.02
-0.006,0.194,0.2,-0.095,-0.103,0.197,0.027,-0.066,0.039,0.002,0.006,-0.011
0.017,0.175,0.157,-0.096,-0.07,0.166,0.031,-0.08,0.03,0.003,0.002,-0.017
-0.006,0.122,0.128,-0.059,-0.067,0.125,0.029,-0.084,0.018,-0.005,-0.001,-0.026
-0.028,0.064,0.091,-0.018,-0.06,0.077,0.032,-0.072,-0.027,-0.052,-0.026,-0.046
-0.056,0.017,0.073,0.019,-0.064,0.045,0.027,-0.096,-0.062,-0.071,-0.051,-0.071
-0.097,-0.022,0.075,0.059,-0.086,0.027,0.034,-0.07,-0.075,-0.091,-0.077,-0.081
-0.067,-0.02,0.046,0.044,-0.056,0.013,0.031,-0.094,-0.085,-0.083,-0.073,-0.083
-0.036,-0.039,-0.003,0.038,-0.017,-0.021,0.043,-0.061,-0.08,-0.081,-0.081,-0.104
-0.083,-0.024,0.059,0.053,-0.071,0.017,0.038,-0.079,-0.086,-0.097,-0.082,-0.097
-0.079,-0.032,0.046,0.055,-0.063,0.007,0.047,-0.069,-0.05,-0.064,-0.081,-0.102
-0.066,0.0,0.067,0.032,-0.067,0.033,0.075,0.014,-0.038,-0.107,-0.092,-0.093
-0.129,0.216,0.344,-0.044,-0.237,0.28,0.147,0.066,0.26,0.067,0.002,-0.032
-0.045,0.437,0.482,-0.196,-0.264,0.46,0.083,0.148,0.549,0.339,0.237,0.142
0.211,0.592,0.382,-0.402,-0.086,0.487,-0.381,-1.122,0.594,1.371,0.901,0.586
0.318,-0.017,-0.335,-0.15,0.326,-0.176,-0.73,-2.011,-0.114,1.343,0.801,0.431
0.233,-1.053,-1.286,0.41,0.76,-1.169,-1.014,-1.702,-1.755,-0.915,-0.387,-0.3
0.165,-1.294,-1.459,0.565,0.812,-1.376,-0.975,-1.589,-1.927,-1.539,-0.783,-0.548
0.094,-0.859,-0.953,0.383,0.524,-0.906,-0.383,-0.767,-0.951,-0.868,-0.531,-0.428
0.027,-0.362,-0.389,0.168,0.208,-0.375,-0.111,-0.179,-0.442,-0.542,-0.312,-0.253
-0.007,-0.161,-0.154,0.084,0.074,-0.157,-0.037,-0.036,-0.143,-0.255,-0.17,-0.177
-0.021,-0.103,-0.082,0.062,0.031,-0.092,0.033,0.087,-0.068,-0.229,-0.15,-0.155
-0.031,-0.067,-0.036,0.049,0.003,-0.052,0.046,0.054,-0.025,-0.158,-0.112,-0.126
-0.034,-0.044,-0.01,0.039,-0.012,-0.026,0.083,0.111,0.006,-0.136,-0.109,-0.122
-0.012,-0.018,-0.006,0.015,-0.002,-0.012,0.079,0.095,0.031,-0.099,-0.091,-0.106
-0.02,-0.017,0.003,0.019,-0.011,-0.007,0.092,0.119,0.052,-0.085,-0.085,-0.104
-0.027,-0.004,0.024,0.015,-0.025,0.01,0.1,0.126,0.065,-0.082,-0.081,-0.095
-0.049,0.003,0.051,0.023,-0.05,0.027,0.11,0.144,0.092,-0.046,-0.07,-0.089
-0.056,0.01,0.066,0.023,-0.061,0.038,0.11,0.169,0.099,-0.037,-0.068,-0.083
-0.035,0.021,0.056,0.007,-0.045,0.038,0.11,0.182,0.138,-0.011,-0.053,-0.076
-0.03,0.031,0.062,-0.001,-0.046,0.046,0.125,0.238,0.17,0.014,-0.042,-0.068
-0.011,0.059,0.069,-0.024,-0.04,0.064,0.136,0.29,0.204,0.053,-0.023,-0.057
-0.005,0.08,0.085,-0.038,-0.045,0.082,0.154,0.365,0.251,0.092,0.01,-0.037
-0.007,0.093,0.099,-0.043,-0.053,0.096,0.173,0.463,0.309,0.148,0.043,-0.012
0.015,0.128,0.113,-0.072,-0.049,0.12,0.192,0.578,0.384,0.208,0.082,0.008
0.047,0.158,0.111,-0.104,-0.032,0.135,0.2,0.684,0.451,0.275,0.112,0.025
0.076,0.205,0.13,-0.141,-0.027,0.167,0.212,0.764,0.512,0.345,0.164,0.058
0.076,0.246,0.17,-0.161,-0.047,0.208,0.218,0.799,0.539,0.399,0.206,0.094
0.08,0.259,0.178,-0.17,-0.049,0.218,0.206,0.781,0.524,0.428,0.228,0.11
0.094,0.263,0.169,-0.178,-0.038,0.216,0.199,0.761,0.514,0.427,0.255,0.124
0.082,0.253,0.172,-0.167,-0.045,0.212,0.19,0.686,0.474,0.395,0.246,0.116
0.07,0.254,0.184,-0.162,-0.058,0.219,0.18,0.56,0.402,0.349,0.231,0.105
0.067,0.24,0.172,-0.154,-0.052,0.206,0.169,0.421,0.315,0.278,0.197,0.095
0.042,0.193,0.151,-0.118,-0.055,0.172,0.148,0.274,0.213,0.183,0.149,0.064
-0.006,0.149,0.155,-0.072,-0.081,0.152,0.127,0.16,0.13,0.104,0.101,0.033
-0.031,0.11,0.141,-0.04,-0.086,0.125,0.111,0.077,0.058,0.034,0.053,0.006
-0.036,0.07,0.106,-0.017,-0.071,0.088,0.095,0.015,0.008,-0.017,0.019,-0.018
-0.05,0.05,0.1,0.0,-0.075,0.074,0.082,-0.024,-0.021,-0.047,-0.008,-0.038
-0.046,0.04,0.086,0.003,-0.066,0.063,0.072,-0.041,-0.047,-0.07,-0.019,-0.05
-0.041,0.027,0.067,0.007,-0.054,0.047,0.059,-0.05,-0.063,-0.086,-0.027,-0.056
-0.045,0.023,0.068,0.011,-0.057,0.045,0.051,-0.051,-0.067,-0.098,-0.031,-0.061
-0.039,0.025,0.064,0.006,-0.052,0.045,0.048,-0.042,-0.064,-0.104,-0.03,-0.066
-0.04,0.025,0.065,0.007,-0.053,0.045,0.044,-0.036,-0.065,-0.101,-0.03,-0.069
-0.041,0.025,0.066,0.008,-0.054,0.046,0.041,-0.029,-0.065,-0.1,-0.03,-0.067
-0.037,0.025,0.062,0.005,-0.05,0.044,0.035,-0.018,-0.065,-0.1,-0.031,-0.064
-0.05,0.03,0.081,0.01,-0.066,0.055,0.038,-0.006,-0.064,-0.095,-0.028,-0.061
-0.054,0.038,0.092,0.008,-0.073,0.065,0.046,0.008,-0.058,-0.095,-0.025,-0.058
-0.048,0.04,0.088,0.004,-0.068,0.064,0.041,0.012,-0.052,-0.094,-0.023,-0.056
-0.046,0.045,0.092,0.001,-0.069,0.068,0.036,0.008,-0.048,-0.09,-0.02,-0.053
-0.016,0.053,0.069,-0.018,-0.043,0.061,0.033,0.006,-0.041,-0.087,-0.017,-0.05
-0.024,0.055,0.079,-0.016,-0.052,0.067,0.027,0.003,-0.037,-0.085,-0.015,-0.05
-0.047,0.054,0.102,-0.004,-0.075,0.078,0.026,0.0,-0.038,-0.081,-0.019,-0.05
-0.041,0.05,0.091,-0.005,-0.066,0.07,0.027,-0.001,-0.042,-0.08,-0.024,-0.05
-0.037,0.05,0.087,-0.007,-0.062,0.068,0.024,-0.01,-0.055,-0.084,-0.027,-0.05
-0.034,0.049,0.083,-0.008,-0.059,0.065,0.021,-0.016,-0.06,-0.085,-0.033,-0.053
-0.028,0.044,0.072,-0.009,-0.05,0.058,0.018,-0.027,-0.069,-0.091,-0.034,-0.056
-0.038,0.046,0.084,-0.004,-0.061,0.064,0.015,-0.041,-0.082,-0.095,-0.03,-0.059
-0.057,0.042,0.1,0.007,-0.079,0.071,0.014,-0.04,-0.079,-0.108,-0.03,-0.062
-0.051,0.039,0.09,0.006,-0.071,0.065,0.01,-0.039,-0.08,-0.117,-0.028,-0.065
-0.053,0.041,0.093,0.006,-0.073,0.067,0.01,-0.046,-0.088,-0.114,-0.024,-0.064
-0.06,0.036,0.096,0.011,-0.078,0.066,0.01,-0.051,-0.091,-0.113,-0.025,-0.059
-0.059,0.035,0.094,0.012,-0.077,0.065,0.01,-0.05,-0.09,-0.109,-0.033,-0.061
-0.061,0.034,0.095,0.013,-0.079,0.065,0.01,-0.05,-0.088,-0.11,-0.036,-0.057
-0.064,0.031,0.095,0.016,-0.08,0.062,0.01,-0.05,-0.084,-0.11,-0.034,-0.054
-0.068,0.026,0.094,0.02,-0.081,0.06,0.01,-0.049,-0.086,-0.11,-0.036,-0.055
-0.066,0.023,0.089,0.021,-0.078,0.056,0.01,-0.054,-0.081,-0.11,-0.035,-0.054
-0.071,0.02,0.091,0.025,-0.081,0.055,0.011,-0.055,-0.081,-0.109,-0.034,-0.057
-0.075,0.014,0.089,0.03,-0.082,0.051,0.009,-0.047,-0.087,-0.119,-0.044,-0.056
-0.071,0.021,0.092,0.025,-0.082,0.056,0.012,-0.04,-0.078,-0.116,-0.044,-0.05
-0.044,0.043,0.086,0.001,-0.065,0.064,0.026,-0.035,-0.072,-0.092,-0.026,-0.044
-0.024,0.093,0.117,-0.035,-0.071,0.105,0.048,-0.021,-0.038,-0.067,-0.008,-0.038
-0.047,0.135,0.182,-0.044,-0.115,0.158,0.078,0.012,-0.003,-0.055,0.005,-0.027
-0.043,0.15,0.192,-0.054,-0.118,0.171,0.086,0.03,-0.006,-0.041,0.022,-0.015
-0.024,0.178,0.201,-0.077,-0.113,0.189,0.043,-0.011,-0.011,-0.026,0.04,-0.005
-0.026,0.192,0.218,-0.083,-0.122,0.205,0.004,-0.054,-0.011,-0.016,0.049,0.004
-0.004,0.186,0.19,-0.091,-0.097,0.188,0.007,-0.052,-0.02,-0.024,0.042,0.012
-0.008,0.14,0.148,-0.066,-0.079,0.144,0.01,-0.069,-0.017,-0.015,0.044,0.019
-0.036,0.067,0.104,-0.016,-0.07,0.085,0.026,-0.05,-0.032,-0.036,0.023,-0.008
-0.044,0.038,0.082,0.003,-0.063,0.06,0.023,-0.07,-0.07,-0.075,-0.011,-0.035
-0.052,0.009,0.061,0.021,-0.057,0.035,0.023,-0.052,-0.079,-0.082,-0.028,-0.05
-0.054,0.007,0.061,0.023,-0.058,0.034,0.018,-0.064,-0.093,-0.098,-0.042,-0.056
-0.052,-0.003,0.049,0.028,-0.05,0.023,0.016,-0.073,-0.071,-0.075,-0.037,-0.06
-0.051,-0.011,0.04,0.031,-0.045,0.014,0.017,-0.051,-0.083,-0.1,-0.038,-0.059
-0.051,-0.009,0.042,0.03,-0.046,0.016,0.002,-0.114,-0.061,-0.05,-0.015,-0.045
-0.06,-0.031,0.029,0.045,-0.045,-0.001,0.043,0.028,-0.06,-0.097,-0.028,-0.058
-0.114,0.155,0.269,-0.02,-0.192,0.212,0.098,0.03,0.116,0.006,0.013,-0.011
-0.079,0.389,0.468,-0.155,-0.273,0.428,0.129,0.252,0.487,0.244,0.169,0.115
0.145,0.627,0.482,-0.387,-0.168,0.554,-0.233,-0.659,0.617,1.011,0.742,0.519
0.307,0.292,-0.015,-0.3,0.161,0.138,-0.696,-2.108,0.26,1.634,0.993,0.599
0.273,-0.803,-1.075,0.265,0.674,-0.939,-0.994,-1.954,-1.273,-0.237,-0.069,-0.124
0.193,-1.326,-1.519,0.567,0.856,-1.422,-1.113,-1.807,-2.095,-1.605,-0.797,-0.551
0.135,-1.0,-1.135,0.433,0.636,-1.067,-0.59,-1.1,-1.213,-1.006,-0.599,-0.45
0.053,-0.457,-0.511,0.202,0.282,-0.484,-0.157,-0.225,-0.548,-0.6,-0.341,-0.264
0.004,-0.163,-0.167,0.08,0.086,-0.165,-0.075,-0.073,-0.223,-0.281,-0.155,-0.141
-0.014,-0.088,-0.074,0.051,0.031,-0.081,0.009,0.101,-0.095,-0.198,-0.118,-0.113
-0.034,-0.043,-0.009,0.039,-0.013,-0.026,0.031,0.086,-0.07,-0.161,-0.088,-0.085
-0.054,-0.04,0.014,0.046,-0.033,-0.013,0.061,0.118,-0.015,-0.109,-0.079,-0.083
-0.064,-0.026,0.038,0.045,-0.05,0.006,0.061,0.127,-0.01,-0.096,-0.072,-0.07
-0.063,-0.02,0.044,0.041,-0.053,0.012,0.081,0.136,0.027,-0.047,-0.057,-0.066
-0.07,-0.005,0.065,0.037,-0.068,0.03,0.094,0.161,0.043,-0.046,-0.054,-0.063
-0.056,0.009,0.065,0.023,-0.061,0.037,0.1,0.171,0.075,-0.015,-0.042,-0.056
-0.047,0.017,0.065,0.015,-0.056,0.041,0.114,0.2,0.082,-0.012,-0.039,-0.055
-0.032,0.033,0.065,-0.001,-0.049,0.049,0.118,0.218,0.103,0.009,-0.028,-0.037
-0.018,0.051,0.069,-0.017,-0.044,0.059,0.126,0.265,0.137,0.027,-0.014,-0.019
-0.015,0.066,0.081,-0.026,-0.048,0.073,0.135,0.314,0.173,0.056,0.008,-0.005
-0.005,0.075,0.08,-0.035,-0.043,0.077,0.153,0.389,0.224,0.099,0.028,0.012
0.003,0.101,0.098,-0.052,-0.048,0.099,0.172,0.489,0.277,0.141,0.055,0.029
0.024,0.129,0.105,-0.077,-0.041,0.117,0.186,0.603,0.339,0.194,0.082,0.045
0.034,0.156,0.122,-0.096,-0.044,0.139,0.203,0.72,0.404,0.261,0.123,0.073
0.065,0.202,0.137,-0.133,-0.036,0.169,0.216,0.816,0.475,0.335,0.168,0.101
0.081,0.23,0.149,-0.156,-0.034,0.189,0.209,0.859,0.518,0.39,0.2,0.13
0.083,0.254,0.171,-0.169,-0.044,0.213,0.204,0.862,0.524,0.428,0.243,0.161
0.104,0.274,0.17,-0.189,-0.033,0.222,0.197,0.837,0.516,0.429,0.27,0.18
0.097,0.267,0.17,-0.182,-0.037,0.218,0.193,0.762,0.489,0.419,0.263,0.183
0.085,0.254,0.169,-0.17,-0.042,0.212,0.183,0.644,0.432,0.397,0.252,0.171
0.06,0.238,0.178,-0.149,-0.059,0.208,0.146,0.488,0.338,0.315,0.23,0.157
0.031,0.211,0.179,-0.121,-0.074,0.195,0.124,0.33,0.239,0.23,0.184,0.138
0.009,0.171,0.162,-0.09,-0.077,0.166,0.115,0.203,0.154,0.153,0.131,0.107
-0.023,0.13,0.152,-0.054,-0.088,0.141,0.102,0.108,0.077,0.079,0.087,0.07
-0.036,0.102,0.138,-0.033,-0.088,0.12,0.092,0.043,0.029,0.027,0.058,0.044
-0.035,0.083,0.117,-0.024,-0.076,0.1,0.08,-0.002,-0.009,-0.014,0.03,0.036
-0.032,0.068,0.101,-0.018,-0.067,0.084,0.069,-0.029,-0.042,-0.043,0.003,0.027
-0.045,0.055,0.1,-0.005,-0.073,0.077,0.057,-0.044,-0.061,-0.058,-0.004,0.018
-0.051,0.047,0.099,0.002,-0.075,0.073,0.05,-0.045,-0.072,-0.067,-0.011,0.009
-0.052,0.042,0.094,0.004,-0.073,0.068,0.045,-0.038,-0.07,-0.078,-0.017,0.004
-0.054,0.037,0.091,0.008,-0.073,0.064,0.04,-0.035,-0.07,-0.083,-0.024,-0.001
-0.055,0.032,0.087,0.012,-0.071,0.059,0.037,-0.03,-0.068,-0.081,-0.03,-0.006
-0.06,0.025,0.085,0.017,-0.072,0.054,0.031,-0.026,-0.064,-0.076,-0.025,-0.01
-0.041,0.036,0.077,0.003,-0.06,0.056,0.028,-0.021,-0.066,-0.074,-0.025,-0.015
-0.048,0.046,0.094,0.001,-0.072,0.069,0.024,-0.012,-0.061,-0.069,-0.024,-0.011
-0.058,0.054,0.112,0.002,-0.086,0.083,0.026,-0.006,-0.058,-0.065,-0.02,-0.01
-0.045,0.063,0.109,-0.009,-0.077,0.086,0.035,-0.005,-0.054,-0.067,-0.02,-0.01
-0.046,0.066,0.113,-0.01,-0.08,0.089,0.035,-0.006,-0.051,-0.071,-0.022,-0.006
-0.046,0.07,0.115,-0.012,-0.08,0.092,0.031,-0.005,-0.046,-0.073,-0.026,-0.005
-0.049,0.066,0.115,-0.009,-0.083,0.09,0.029,-0.005,-0.046,-0.076,-0.023,-0.006
-0.048,0.063,0.111,-0.008,-0.08,0.087,0.026,-0.005,-0.055,-0.083,-0.035,-0.01
-0.044,0.06,0.105,-0.008,-0.075,0.082,0.024,-0.01,-0.064,-0.086,-0.047,-0.01
-0.042,0.057,0.099,-0.008,-0.071,0.078,0.02,-0.029,-0.068,-0.092,-0.044,-0.012
-0.04,0.055,0.095,-0.007,-0.069,0.075,0.02,-0.041,-0.071,-0.104,-0.046,-0.016
-0.033,0.053,0.086,-0.01,-0.06,0.069,0.019,-0.04,-0.08,-0.108,-0.045,-0.015
-0.044,0.049,0.093,-0.003,-0.068,0.071,0.014,-0.039,-0.089,-0.111,-0.045,-0.019
-0.064,0.047,0.111,0.008,-0.088,0.079,0.015,-0.035,-0.09,-0.114,-0.049,-0.02
-0.061,0.044,0.105,0.008,-0.083,0.074,0.013,-0.035,-0.09,-0.117,-0.05,-0.02
-0.06,0.041,0.1,0.009,-0.08,0.07,0.007,-0.038,-0.094,-0.122,-0.05,-0.02
-0.057,0.04,0.097,0.008,-0.077,0.068,0.002,-0.04,-0.095,-0.12,-0.05,-0.02
-0.059,0.033,0.091,0.013,-0.075,0.062,-0.001,-0.04,-0.094,-0.12,-0.05,-0.021
-0.06,0.026,0.087,0.017,-0.074,0.056,-0.007,-0.04,-0.09,-0.118,-0.049,-0.026
-0.077,0.018,0.095,0.029,-0.086,0.056,-0.01,-0.04,-0.09,-0.114,-0.045,-0.03
-0.094,0.013,0.106,0.04,-0.1,0.059,-0.003,-0.04,-0.088,-0.116,-0.045,-0.035
-0.093,0.001,0.094,0.046,-0.094,0.047,0.005,-0.034,-0.084,-0.111,-0.045,-0.031
-0.086,0.008,0.094,0.039,-0.09,0.051,0.011,-0.02,-0.086,-0.1,-0.045,-0.02
-0.046,0.038,0.084,0.004,-0.065,0.061,0.019,-0.014,-0.077,-0.09,-0.046,-0.01
-0.036,0.071,0.106,-0.018,-0.071,0.088,0.036,0.003,-0.056,-0.079,-0.038,0.001
-0.072,0.11,0.182,-0.019,-0.127,0.145,0.056,0.024,-0.029,-0.066,-0.023,0.009
-0.073,0.117,0.19,-0.023,-0.132,0.154,0.069,0.039,-0.01,-0.05,-0.009,0.027
-0.052,0.149,0.202,-0.049,-0.127,0.175,0.045,0.026,-0.009,-0.042,0.014,0.052
-0.063,0.171,0.235,-0.054,-0.149,0.203,0.003,-0.031,-0.005,-0.028,0.035,0.073
-0.041,0.157,0.198,-0.058,-0.12,0.177,0.0,-0.03,-0.001,-0.024,0.031,0.072
-0.016,0.138,0.153,-0.061,-0.085,0.145,0.002,-0.034,-0.003,-0.035,0.025,0.064
-0.05,0.065,0.116,-0.008,-0.083,0.09,0.007,-0.026,-0.023,-0.05,0.007,0.048
-0.064,0.027,0.091,0.018,-0.078,0.058,0.007,-0.033,-0.064,-0.074,-0.019,0.024
-0.067,0.002,0.069,0.032,-0.068,0.036,0.011,-0.03,-0.071,-0.09,-0.045,0.008
-0.072,-0.014,0.059,0.043,-0.065,0.022,0.013,-0.016,-0.092,-0.118,-0.064,0.002
-0.085,-0.032,0.053,0.059,-0.069,0.01,0.013,-0.035,-0.086,-0.093,-0.054,-0.002
-0.08,-0.051,0.029,0.065,-0.054,-0.011,0.02,0.011,-0.094,-0.123,-0.072,-0.015
-0.051,-0.02,0.031,0.035,-0.041,0.006,0.005,-0.051,-0.077,-0.084,-0.053,-0.011
-0.065,-0.05,0.015,0.057,-0.04,-0.017,0.036,0.063,-0.068,-0.117,-0.086,-0.031
-0.118,0.08,0.197,0.018,-0.157,0.138,0.081,0.085,0.068,-0.053,-0.056,0.006
-0.124,0.291,0.415,-0.084,-0.269,0.353,0.15,0.294,0.429,0.15,0.073,0.085
0.085,0.516,0.431,-0.301,-0.173,0.473,-0.141,-0.237,0.575,0.747,0.548,0.431
0.295,0.343,0.048,-0.319,0.123,0.195,-0.571,-1.719,0.415,1.675,1.022,0.683
0.267,-0.625,-0.893,0.18,0.58,-0.759,-0.824,-1.835,-0.936,0.205,0.17,0.09
0.172,-1.289,-1.46,0.559,0.817,-1.374,-1.1,-1.679,-2.098,-1.581,-0.758,-0.46
0.101,-1.144,-1.245,0.522,0.673,-1.194,-0.734,-1.251,-1.425,-1.183,-0.684,-0.447
0.026,-0.633,-0.659,0.304,0.343,-0.646,-0.223,-0.342,-0.668,-0.707,-0.431,-0.287
-0.019,-0.26,-0.241,0.139,0.111,-0.25,-0.112,-0.065,-0.284,-0.366,-0.216,-0.14
-0.041,-0.157,-0.116,0.099,0.038,-0.136,-0.025,0.102,-0.092,-0.218,-0.153,-0.098
-0.054,-0.107,-0.053,0.081,0.0,-0.08,0.002,0.108,-0.064,-0.19,-0.125,-0.07
-0.049,-0.079,-0.03,0.064,-0.009,-0.054,0.037,0.127,-0.005,-0.122,-0.104,-0.063
-0.057,-0.048,0.009,0.053,-0.033,-0.019,0.054,0.163,-0.002,-0.121,-0.105,-0.058
-0.055,-0.05,0.004,0.052,-0.029,-0.023,0.071,0.146,0.042,-0.072,-0.088,-0.051
-0.073,-0.045,0.028,0.059,-0.05,-0.008,0.077,0.163,0.05,-0.08,-0.088,-0.05
-0.089,-0.041,0.048,0.065,-0.069,0.003,0.078,0.173,0.071,-0.053,-0.074,-0.042
-0.09,-0.039,0.051,0.065,-0.071,0.006,0.102,0.201,0.093,-0.041,-0.063,-0.041
-0.088,-0.013,0.075,0.05,-0.081,0.031,0.101,0.217,0.112,-0.01,-0.047,-0.03
-0.077,-0.01,0.067,0.044,-0.072,0.028,0.104,0.255,0.144,0.022,-0.04,-0.019
-0.058,0.013,0.071,0.023,-0.065,0.042,0.111,0.297,0.176,0.044,-0.028,-0.006
-0.044,0.042,0.086,0.001,-0.065,0.064,0.131,0.353,0.224,0.086,-0.008,0.001
-0.056,0.042,0.097,0.007,-0.077,0.069,0.134,0.431,0.275,0.135,0.026,0.025
0.006,0.074,0.068,-0.04,-0.031,0.071,0.127,0.528,0.339,0.188,0.06,0.045
0.031,0.117,0.086,-0.074,-0.028,0.101,0.145,0.63,0.413,0.255,0.087,0.058
0.028,0.156,0.128,-0.092,-0.051,0.142,0.166,0.726,0.474,0.329,0.134,0.094
0.068,0.202,0.134,-0.135,-0.033,0.168,0.163,0.784,0.523,0.393,0.172,0.123
0.039,0.216,0.177,-0.128,-0.069,0.196,0.154,0.8,0.541,0.439,0.205,0.146
0.036,0.221,0.185,-0.128,-0.075,0.203,0.147,0.777,0.527,0.433,0.231,0.165
0.063,0.236,0.173,-0.15,-0.055,0.205,0.137,0.72,0.5,0.422,0.238,0.166
0.045,0.234,0.189,-0.139,-0.072,0.211,0.131,0.627,0.433,0.407,0.227,0.16
0.031,0.201,0.169,-0.116,-0.069,0.185,0.123,0.496,0.34,0.325,0.182,0.152
0.02,0.16,0.14,-0.091,-0.06,0.15,0.115,0.367,0.26,0.236,0.135,0.126
0.0,0.12,0.121,-0.06,-0.061,0.12,0.106,0.242,0.174,0.152,0.102,0.088
-0.03,0.081,0.111,-0.026,-0.071,0.096,0.089,0.148,0.097,0.078,0.061,0.054
-0.038,0.054,0.092,-0.009,-0.065,0.073,0.077,0.102,0.053,0.038,0.016,0.014
-0.059,0.02,0.078,0.019,-0.069,0.049,0.07,0.058,0.007,-0.012,-0.028,-0.011
-0.086,-0.012,0.073,0.049,-0.079,0.03,0.062,0.037,-0.031,-0.051,-0.047,-0.018
-0.069,-0.022,0.047,0.045,-0.058,0.012,0.054,0.027,-0.049,-0.058,-0.049,-0.026
-0.095,-0.032,0.063,0.063,-0.079,0.016,0.047,0.022,-0.062,-0.071,-0.057,-0.034
-0.099,-0.033,0.066,0.066,-0.082,0.016,0.045,0.026,-0.069,-0.084,-0.068,-0.041
-0.073,-0.027,0.045,0.05,-0.059,0.009,0.045,0.027,-0.066,-0.075,-0.074,-0.045
-0.08,-0.023,0.057,0.051,-0.068,0.017,0.041,0.032,-0.061,-0.067,-0.072,-0.045
-0.042,-0.018,0.023,0.03,-0.032,0.002,0.04,0.027,-0.057,-0.062,-0.069,-0.042
-0.026,-0.014,0.012,0.02,-0.019,-0.001,0.04,0.038,-0.052,-0.056,-0.066,-0.039
-0.045,-0.009,0.036,0.027,-0.041,0.013,0.035,0.058,-0.044,-0.051,-0.063,-0.041
-0.04,-0.006,0.034,0.022,-0.036,0.014,0.031,0.065,-0.038,-0.045,-0.061,-0.039
-0.07,-0.004,0.066,0.037,-0.068,0.031,0.028,0.073,-0.031,-0.041,-0.058,-0.042
-0.089,-0.007,0.082,0.048,-0.085,0.037,0.025,0.062,-0.03,-0.04,-0.055,-0.046
-0.069,0.003,0.072,0.033,-0.071,0.037,0.019,0.054,-0.03,-0.04,-0.055,-0.045
-0.068,0.009,0.077,0.029,-0.073,0.043,0.026,0.055,-0.03,-0.04,-0.055,-0.045
-0.071,0.0,0.071,0.035,-0.071,0.035,0.032,0.054,-0.031,-0.04,-0.055,-0.04
-0.069,-0.006,0.063,0.037,-0.065,0.028,0.026,0.055,-0.029,-0.04,-0.054,-0.04
-0.069,-0.014,0.055,0.041,-0.062,0.02,0.024,0.055,-0.037,-0.043,-0.062,-0.04
-0.074,-0.021,0.053,0.047,-0.063,0.016,0.019,0.055,-0.045,-0.045,-0.075,-0.04
-0.094,-0.028,0.067,0.061,-0.08,0.019,0.015,0.049,-0.051,-0.049,-0.081,-0.04
-0.095,-0.031,0.065,0.063,-0.08,0.017,0.017,0.043,-0.056,-0.05,-0.085,-0.04
-0.086,-0.03,0.056,0.058,-0.071,0.013,0.025,0.039,-0.055,-0.058,-0.085,-0.048
-0.097,-0.034,0.064,0.065,-0.08,0.015,0.03,0.032,-0.054,-0.067,-0.085,-0.051
-0.099,-0.036,0.064,0.067,-0.081,0.014,0.024,0.028,-0.05,-0.065,-0.085,-0.047
-0.092,-0.034,0.058,0.063,-0.075,0.011,0.019,0.022,-0.049,-0.065,-0.085,-0.045
-0.098,-0.041,0.057,0.069,-0.077,0.008,0.014,0.019,-0.054,-0.066,-0.085,-0.042
-0.107,-0.044,0.063,0.075,-0.084,0.009,0.008,0.014,-0.056,-0.063,-0.081,-0.038
-0.105,-0.05,0.055,0.077,-0.08,0.003,0.001,0.012,-0.053,-0.071,-0.08,-0.048
-0.096,-0.047,0.048,0.071,-0.072,0.001,0.004,0.008,-0.049,-0.079,-0.078,-0.052
-0.046,-0.03,0.016,0.038,-0.031,-0.007,0.019,0.004,-0.047,-0.071,-0.075,-0.044
-0.036,-0.02,0.016,0.028,-0.026,-0.002,0.032,0.029,-0.038,-0.059,-0.073,-0.038
-0.059,0.029,0.088,0.015,-0.073,0.059,0.049,0.051,-0.01,-0.033,-0.05,-0.018
-0.061,0.062,0.122,-0.001,-0.092,0.092,0.069,0.079,0.019,-0.008,-0.028,0.001
-0.064,0.079,0.143,-0.007,-0.104,0.111,0.068,0.086,0.043,0.014,-0.017,0.009
-0.042,0.138,0.18,-0.049,-0.111,0.159,0.03,0.053,0.047,0.03,-0.004,0.023
-0.036,0.144,0.18,-0.054,-0.108,0.162,-0.004,0.042,0.039,0.031,0.007,0.035
-0.011,0.132,0.143,-0.061,-0.077,0.137,-0.02,0.041,0.029,0.015,0.02,0.04
-0.008,0.115,0.123,-0.054,-0.066,0.119,-0.027,0.021,0.021,0.015,0.014,0.042
-0.042,0.052,0.094,-0.005,-0.068,0.073,-0.022,0.029,0.005,-0.005,-0.024,0.011
-0.029,0.02,0.049,0.004,-0.039,0.034,-0.028,0.007,-0.024,-0.039,-0.051,-0.022
-0.032,-0.018,0.014,0.025,-0.023,-0.002,-0.021,0.018,-0.051,-0.064,-0.075,-0.046
-0.066,-0.029,0.037,0.047,-0.051,0.003,-0.029,0.006,-0.071,-0.08,-0.082,-0.051
-0.061,-0.03,0.03,0.045,-0.045,0.0,-0.025,0.0,-0.048,-0.057,-0.083,-0.056
-0.041,-0.033,0.008,0.037,-0.025,-0.012,-0.032,0.014,-0.06,-0.089,-0.091,-0.052
-0.048,-0.038,0.01,0.043,-0.029,-0.014,-0.028,-0.025,-0.03,-0.039,-0.068,-0.04
-0.053,-0.056,-0.003,0.054,-0.024,-0.03,0.025,0.099,-0.028,-0.098,-0.102,-0.063
-0.11,0.126,0.236,-0.009,-0.173,0.181,0.075,0.098,0.161,0.008,-0.052,-0.02
-0.071,0.349,0.42,-0.139,-0.245,0.384,0.096,0.275,0.512,0.225,0.097,0.084
0.165,0.566,0.4,-0.366,-0.118,0.483,-0.284,-0.547,0.629,1.043,0.69,0.496
0.313,0.221,-0.092,-0.267,0.203,0.065,-0.696,-1.787,0.211,1.685,1.0,0.633
0.268,-0.813,-1.081,0.273,0.675,-0.947,-0.958,-1.561,-1.348,-0.247,-0.033,-0.031
0.179,-1.324,-1.503,0.572,0.841,-1.413,-1.085,-1.442,-2.076,-1.598,-0.769,-0.463
0.098,-1.043,-1.142,0.473,0.62,-1.092,-0.586,-0.936,-1.196,-1.007,-0.612,-0.407
0.031,-0.499,-0.53,0.235,0.28,-0.515,-0.182,-0.162,-0.537,-0.612,-0.381,-0.25
-0.011,-0.201,-0.19,0.107,0.09,-0.195,-0.101,0.0,-0.195,-0.294,-0.208,-0.144
-0.031,-0.132,-0.101,0.081,0.035,-0.116,-0.008,0.154,-0.059,-0.204,-0.169,-0.122
-0.027,-0.076,-0.048,0.052,0.011,-0.062,0.01,0.138,-0.023,-0.154,-0.135,-0.096
-0.034,-0.049,-0.016,0.042,-0.009,-0.032,0.04,0.168,0.024,-0.112,-0.123,-0.087
-0.039,-0.024,0.016,0.031,-0.027,-0.004,0.043,0.181,0.039,-0.102,-0.112,-0.072
-0.063,-0.02,0.043,0.041,-0.053,0.012,0.057,0.168,0.068,-0.059,-0.098,-0.066
-0.067,-0.006,0.061,0.036,-0.064,0.027,0.063,0.188,0.077,-0.057,-0.097,-0.06
-0.052,-0.002,0.05,0.027,-0.05,0.023,0.061,0.186,0.096,-0.032,-0.086,-0.052
-0.055,-0.006,0.049,0.031,-0.052,0.021,0.083,0.207,0.119,-0.021,-0.08,-0.046
-0.056,0.007,0.063,0.024,-0.06,0.035,0.091,0.231,0.16,0.009,-0.065,-0.04
-0.063,0.027,0.09,0.017,-0.076,0.058,0.1,0.279,0.179,0.027,-0.055,-0.033
-0.032,0.045,0.077,-0.007,-0.055,0.061,0.114,0.319,0.221,0.06,-0.039,-0.023
0.0,0.069,0.069,-0.035,-0.034,0.068,0.121,0.371,0.268,0.095,-0.017,-0.011
-0.019,0.091,0.11,-0.036,-0.065,0.1,0.133,0.454,0.314,0.133,0.012,0.006
-0.014,0.116,0.13,-0.051,-0.072,0.122,0.145,0.553,0.383,0.192,0.046,0.032
0.014,0.158,0.144,-0.087,-0.065,0.151,0.159,0.662,0.455,0.264,0.086,0.066
0.029,0.199,0.17,-0.114,-0.07,0.184,0.178,0.759,0.526,0.341,0.137,0.096
0.061,0.243,0.183,-0.152,-0.061,0.213,0.176,0.803,0.556,0.397,0.177,0.127
0.079,0.267,0.188,-0.174,-0.055,0.228,0.17,0.797,0.55,0.421,0.205,0.154
0.07,0.27,0.201,-0.17,-0.065,0.235,0.165,0.781,0.541,0.412,0.216,0.156
0.06,0.274,0.215,-0.167,-0.078,0.244,0.158,0.732,0.511,0.403,0.215,0.147
0.06,0.259,0.199,-0.16,-0.07,0.229,0.154,0.614,0.436,0.366,0.213,0.142
0.045,0.244,0.199,-0.145,-0.077,0.221,0.138,0.478,0.348,0.286,0.182,0.133
0.022,0.216,0.193,-0.12,-0.086,0.204,0.117,0.344,0.246,0.202,0.132,0.111
0.002,0.164,0.162,-0.083,-0.08,0.162,0.103,0.221,0.152,0.115,0.081,0.08
-0.034,0.119,0.152,-0.043,-0.094,0.135,0.09,0.139,0.082,0.036,0.04,0.048
-0.045,0.084,0.129,-0.02,-0.087,0.107,0.074,0.068,0.014,-0.012,-0.001,0.019
-0.055,0.061,0.116,-0.003,-0.086,0.089,0.057,0.011,-0.032,-0.053,-0.031,-0.001
-0.051,0.049,0.1,0.0,-0.076,0.074,0.046,-0.014,-0.056,-0.081,-0.039,-0.013
-0.045,0.042,0.088,0.001,-0.067,0.065,0.042,-0.016,-0.069,-0.09,-0.051,-0.025
-0.053,0.036,0.089,0.008,-0.071,0.062,0.039,-0.011,-0.072,-0.097,-0.064,-0.031
-0.053,0.029,0.082,0.011,-0.067,0.055,0.036,-0.01,-0.07,-0.095,-0.065,-0.029
-0.076,0.022,0.098,0.026,-0.087,0.06,0.031,-0.005,-0.067,-0.095,-0.065,-0.033
-0.07,0.022,0.092,0.024,-0.081,0.057,0.029,-0.005,-0.064,-0.092,-0.065,-0.035
-0.062,0.026,0.089,0.018,-0.076,0.057,0.024,0.002,-0.061,-0.089,-0.065,-0.035
-0.057,0.031,0.089,0.013,-0.073,0.059,0.018,0.012,-0.059,-0.09,-0.065,-0.031
-0.048,0.033,0.081,0.007,-0.065,0.057,0.015,0.023,-0.056,-0.085,-0.061,-0.03
-0.06,0.042,0.102,0.009,-0.082,0.072,0.01,0.028,-0.053,-0.086,-0.06,-0.03
-0.062,0.055,0.117,0.003,-0.09,0.086,0.005,0.023,-0.051,-0.084,-0.06,-0.03
-0.058,0.054,0.112,0.001,-0.085,0.083,0.002,0.02,-0.048,-0.08,-0.055,-0.03
-0.051,0.058,0.109,-0.003,-0.081,0.083,-0.001,0.016,-0.045,-0.08,-0.055,-0.031
-0.046,0.061,0.107,-0.008,-0.077,0.084,-0.004,0.012,-0.047,-0.082,-0.055,-0.035
-0.049,0.054,0.103,-0.003,-0.076,0.078,-0.007,0.009,-0.052,-0.088,-0.055,-0.035
-0.064,0.051,0.114,0.006,-0.089,0.082,-0.01,0.004,-0.055,-0.092,-0.055,-0.037
-0.073,0.046,0.119,0.013,-0.096,0.083,-0.01,-0.002,-0.062,-0.095,-0.055,-0.04
-0.069,0.041,0.11,0.014,-0.089,0.075,-0.01,-0.01,-0.072,-0.101,-0.055,-0.04
-0.065,0.04,0.105,0.012,-0.085,0.072,-0.01,-0.015,-0.079,-0.105,-0.054,-0.036
-0.056,0.04,0.096,0.008,-0.076,0.067,-0.01,-0.027,-0.085,-0.105,-0.06,-0.035
-0.053,0.041,0.093,0.006,-0.073,0.067,-0.01,-0.04,-0.09,-0.112,-0.065,-0.035
-0.043,0.039,0.082,0.002,-0.062,0.06,-0.01,-0.042,-0.09,-0.118,-0.065,-0.03
-0.044,0.041,0.086,0.001,-0.065,0.063,-0.014,-0.046,-0.093,-0.121,-0.064,-0.029
-0.055,0.05,0.105,0.002,-0.08,0.077,-0.024,-0.049,-0.096,-0.125,-0.067,-0.032
-0.052,0.049,0.1,0.001,-0.076,0.074,-0.028,-0.052,-0.092,-0.12,-0.071,-0.035
-0.053,0.042,0.095,0.005,-0.074,0.068,-0.025,-0.06,-0.09,-0.12,-0.07,-0.035
-0.052,0.039,0.091,0.006,-0.072,0.065,-0.025,-0.064,-0.09,-0.12,-0.07,-0.034
-0.054,0.034,0.087,0.01,-0.071,0.06,-0.023,-0.066,-0.09,-0.119,-0.066,-0.036
-0.052,0.029,0.081,0.011,-0.066,0.054,-0.018,-0.062,-0.09,-0.121,-0.065,-0.034
-0.065,0.042,0.107,0.011,-0.087,0.075,-0.021,-0.051,-0.09,-0.117,-0.064,-0.038
-0.075,0.058,0.133,0.008,-0.105,0.095,-0.008,-0.046,-0.07,-0.103,-0.051,-0.032
-0.055,0.104,0.158,-0.025,-0.107,0.131,0.024,-0.033,-0.041,-0.079,-0.04,-0.004
-0.044,0.142,0.186,-0.048,-0.116,0.163,0.045,-0.033,-0.027,-0.055,-0.03,0.011
-0.027,0.152,0.179,-0.063,-0.103,0.165,0.048,-0.026,-0.013,-0.054,-0.019,0.019
-0.014,0.202,0.217,-0.094,-0.116,0.209,0.001,-0.043,-0.01,-0.056,-0.006,0.034
-0.016,0.214,0.23,-0.099,-0.124,0.222,-0.037,-0.085,-0.009,-0.052,0.011,0.036
-0.003,0.192,0.194,-0.095,-0.099,0.193,-0.035,-0.082,-0.01,-0.059,0.007,0.025
-0.009,0.147,0.157,-0.069,-0.083,0.152,-0.033,-0.091,-0.016,-0.049,-0.004,0.019
-0.039,0.075,0.114,-0.018,-0.076,0.094,-0.024,-0.074,-0.049,-0.08,-0.024,0.006
-0.05,0.046,0.096,0.002,-0.073,0.07,-0.026,-0.111,-0.085,-0.101,-0.044,-0.012
-0.056,0.021,0.077,0.018,-0.067,0.049,-0.012,-0.103,-0.089,-0.126,-0.066,-0.038
-0.051,0.024,0.074,0.013,-0.063,0.049,-0.024,-0.129,-0.107,-0.134,-0.063,-0.035
-0.025,0.004,0.028,0.01,-0.027,0.016,-0.032,-0.125,-0.108,-0.12,-0.06,-0.037
-0.052,0.01,0.062,0.021,-0.057,0.036,-0.039,-0.138,-0.13,-0.146,-0.063,-0.035
-0.073,-0.001,0.072,0.036,-0.073,0.035,-0.03,-0.138,-0.087,-0.106,-0.053,-0.033
-0.054,0.007,0.061,0.023,-0.057,0.034,0.016,-0.033,-0.062,-0.155,-0.075,-0.049
-0.115,0.223,0.338,-0.054,-0.227,0.28,0.068,-0.031,0.186,0.005,0.006,0.01
-0.049,0.446,0.495,-0.199,-0.272,0.47,0.043,0.148,0.527,0.26,0.217,0.178
0.204,0.645,0.44,-0.425,-0.118,0.542,-0.387,-1.037,0.604,1.206,0.863,0.606
0.32,0.116,-0.204,-0.218,0.262,-0.044,-0.814,-2.191,0.006,1.444,0.884,0.527
0.263,-0.975,-1.238,0.356,0.751,-1.106,-1.109,-1.902,-1.625,-0.736,-0.301,-0.227
0.186,-1.307,-1.494,0.561,0.841,-1.4,-1.096,-1.754,-2.011,-1.626,-0.802,-0.525
0.1,-0.897,-0.997,0.399,0.549,-0.947,-0.509,-0.919,-1.036,-0.943,-0.556,-0.4
0.021,-0.383,-0.403,0.181,0.212,-0.393,-0.195,-0.241,-0.495,-0.601,-0.322,-0.228
-0.013,-0.16,-0.147,0.087,0.067,-0.153,-0.117,-0.126,-0.189,-0.303,-0.166,-0.122
-0.024,-0.089,-0.064,0.057,0.02,-0.076,-0.029,0.029,-0.096,-0.259,-0.154,-0.099
-0.023,-0.04,-0.017,0.031,-0.003,-0.028,-0.031,-0.006,-0.069,-0.196,-0.111,-0.076
-0.062,-0.027,0.035,0.045,-0.048,0.004,-0.003,0.044,-0.036,-0.172,-0.096,-0.076
-0.076,-0.007,0.069,0.042,-0.073,0.031,0.004,0.046,-0.022,-0.151,-0.085,-0.063
-0.055,-0.001,0.054,0.028,-0.055,0.026,0.02,0.062,0.02,-0.116,-0.078,-0.058
-0.047,0.014,0.061,0.016,-0.055,0.038,0.036,0.083,0.042,-0.121,-0.074,-0.05
-0.05,0.021,0.071,0.014,-0.061,0.046,0.054,0.092,0.057,-0.1,-0.064,-0.041
-0.06,0.033,0.094,0.014,-0.077,0.063,0.062,0.118,0.07,-0.093,-0.06,-0.035
-0.047,0.042,0.089,0.003,-0.068,0.065,0.061,0.14,0.106,-0.061,-0.043,-0.026
-0.036,0.053,0.089,-0.009,-0.063,0.071,0.071,0.185,0.135,-0.026,-0.022,-0.019
-0.028,0.068,0.096,-0.02,-0.062,0.081,0.084,0.249,0.177,0.003,-0.003,-0.014
-0.036,0.072,0.107,-0.019,-0.072,0.089,0.1,0.33,0.22,0.035,0.017,0.003
0.0,0.097,0.097,-0.049,-0.049,0.097,0.116,0.438,0.281,0.089,0.043,0.029
0.038,0.136,0.098,-0.087,-0.03,0.117,0.138,0.561,0.352,0.151,0.076,0.049
0.017,0.163,0.147,-0.091,-0.065,0.155,0.161,0.679,0.424,0.219,0.121,0.07
0.026,0.199,0.173,-0.113,-0.074,0.186,0.173,0.766,0.486,0.289,0.166,0.107
0.082,0.241,0.159,-0.162,-0.039,0.199,0.167,0.802,0.508,0.347,0.214,0.143
0.119,0.274,0.155,-0.196,-0.018,0.214,0.154,0.798,0.494,0.375,0.245,0.163
0.092,0.28,0.188,-0.186,-0.048,0.234,0.144,0.748,0.484,0.381,0.25,0.174
0.069,0.265,0.197,-0.167,-0.064,0.231,0.128,0.66,0.464,0.359,0.251,0.166
0.068,0.256,0.187,-0.162,-0.06,0.221,0.096,0.512,0.39,0.31,0.247,0.155
0.051,0.238,0.187,-0.145,-0.068,0.213,0.074,0.351,0.299,0.241,0.217,0.144
0.026,0.205,0.179,-0.116,-0.077,0.192,0.064,0.211,0.208,0.16,0.169,0.123
-0.005,0.166,0.17,-0.081,-0.088,0.168,0.051,0.081,0.121,0.079,0.121,0.099
-0.035,0.124,0.159,-0.045,-0.097,0.141,0.035,0.003,0.045,0.007,0.08,0.072
-0.04,0.089,0.129,-0.025,-0.084,0.109,0.019,-0.057,0.0,-0.042,0.04,0.042
-0.029,0.076,0.105,-0.024,-0.067,0.091,0.007,-0.107,-0.033,-0.08,0.014,0.021
-0.032,0.071,0.103,-0.02,-0.068,0.087,0.002,-0.121,-0.062,-0.101,0.008,0.014
-0.034,0.064,0.098,-0.015,-0.066,0.08,-0.013,-0.118,-0.069,-0.107,0.001,0.008
-0.03,0.058,0.088,-0.014,-0.059,0.072,-0.031,-0.115,-0.078,-0.114,-0.007,0.001
-0.023,0.051,0.073,-0.014,-0.048,0.062,-0.03,-0.113,-0.075,-0.116,-0.014,-0.006
-0.014,0.053,0.068,-0.02,-0.041,0.06,-0.029,-0.109,-0.071,-0.113,-0.021,-0.012
0.001,0.056,0.055,-0.028,-0.028,0.055,-0.031,-0.116,-0.07,-0.121,-0.025,-0.023
-0.003,0.054,0.058,-0.026,-0.031,0.056,-0.03,-0.121,-0.065,-0.131,-0.025,-0.028
-0.028,0.06,0.089,-0.016,-0.059,0.074,-0.03,-0.112,-0.065,-0.125,-0.027,-0.023
-0.032,0.059,0.092,-0.014,-0.062,0.075,-0.03,-0.106,-0.061,-0.121,-0.031,-0.021
-0.038,0.062,0.1,-0.012,-0.069,0.081,-0.03,-0.1,-0.057,-0.117,-0.03,-0.018
-0.039,0.073,0.112,-0.017,-0.076,0.092,-0.031,-0.092,-0.053,-0.111,-0.027,-0.015
-0.034,0.075,0.109,-0.021,-0.072,0.091,-0.028,-0.093,-0.05,-0.112,-0.024,-0.016
-0.028,0.083,0.111,-0.028,-0.069,0.096,-0.04,-0.102,-0.045,-0.116,-0.021,-0.021
-0.023,0.086,0.109,-0.031,-0.067,0.097,-0.052,-0.112,-0.049,-0.121,-0.018,-0.02
-0.026,0.084,0.11,-0.029,-0.069,0.097,-0.049,-0.116,-0.062,-0.123,-0.015,-0.02
-0.021,0.085,0.106,-0.033,-0.064,0.095,-0.05,-0.127,-0.07,-0.128,-0.014,-0.02
-0.02,0.085,0.105,-0.033,-0.063,0.095,-0.05,-0.145,-0.074,-0.128,-0.009,-0.019
-0.019,0.085,0.104,-0.033,-0.062,0.095,-0.055,-0.145,-0.083,-0.138,-0.021,-0.031
-0.019,0.082,0.101,-0.031,-0.06,0.091,-0.063,-0.144,-0.09,-0.156,-0.04,-0.041
-0.02,0.079,0.098,-0.029,-0.059,0.089,-0.069,-0.146,-0.097,-0.155,-0.039,-0.042
-0.029,0.076,0.105,-0.024,-0.067,0.09,-0.074,-0.144,-0.109,-0.155,-0.043,-0.046
-0.043,0.073,0.116,-0.015,-0.08,0.094,-0.075,-0.148,-0.11,-0.155,-0.045,-0.048
-0.039,0.07,0.11,-0.016,-0.074,0.09,-0.075,-0.15,-0.11,-0.158,-0.045,-0.05
-0.037,0.069,0.105,-0.016,-0.071,0.087,-0.075,-0.15,-0.11,-0.161,-0.045,-0.053
-0.037,0.064,0.102,-0.014,-0.07,0.083,-0.075,-0.15,-0.11,-0.159,-0.045,-0.055
-0.035,0.061,0.096,-0.013,-0.065,0.078,-0.074,-0.15,-0.109,-0.161,-0.045,-0.055
-0.04,0.058,0.097,-0.009,-0.069,0.077,-0.07,-0.15,-0.104,-0.159,-0.045,-0.055
-0.047,0.053,0.1,-0.003,-0.074,0.076,-0.067,-0.144,-0.1,-0.16,-0.05,-0.055
-0.052,0.049,0.101,0.001,-0.076,0.075,-0.065,-0.139,-0.099,-0.158,-0.049,-0.054
-0.051,0.054,0.105,-0.002,-0.078,0.08,-0.06,-0.131,-0.092,-0.151,-0.042,-0.049
-0.039,0.066,0.105,-0.014,-0.073,0.086,-0.061,-0.128,-0.092,-0.145,-0.036,-0.043
-0.028,0.089,0.117,-0.031,-0.072,0.103,-0.048,-0.117,-0.073,-0.127,-0.031,-0.04
-0.034,0.126,0.161,-0.046,-0.098,0.143,-0.027,-0.095,-0.041,-0.109,-0.023,-0.034
-0.035,0.151,0.186,-0.059,-0.111,0.168,-0.018,-0.069,-0.038,-0.1,-0.007,-0.032
-0.029,0.181,0.209,-0.076,-0.119,0.195,-0.032,-0.075,-0.042,-0.106,0.004,-0.016
-0.028,0.209,0.237,-0.09,-0.133,0.222,-0.077,-0.132,-0.039,-0.103,0.03,0.014
-0.004,0.202,0.207,-0.099,-0.106,0.204,-0.092,-0.145,-0.041,-0.106,0.033,0.011
0.006,0.178,0.173,-0.093,-0.084,0.175,-0.09,-0.154,-0.04,-0.112,0.016,0.001
-0.019,0.109,0.128,-0.046,-0.073,0.118,-0.089,-0.148,-0.044,-0.105,0.0,-0.005
-0.042,0.056,0.098,-0.007,-0.07,0.077,-0.086,-0.154,-0.092,-0.124,-0.037,-0.025
-0.052,0.038,0.09,0.007,-0.071,0.064,-0.085,-0.161,-0.105,-0.127,-0.062,-0.061
-0.046,0.015,0.061,0.016,-0.054,0.037,-0.082,-0.142,-0.121,-0.16,-0.07,-0.073
-0.045,0.001,0.046,0.021,-0.045,0.023,-0.083,-0.17,-0.129,-0.142,-0.063,-0.07
-0.034,-0.016,0.018,0.025,-0.026,0.001,-0.073,-0.119,-0.139,-0.163,-0.08,-0.081
-0.032,0.012,0.044,0.009,-0.038,0.028,-0.082,-0.182,-0.126,-0.133,-0.067,-0.074
-0.047,-0.022,0.025,0.034,-0.036,0.002,-0.056,-0.076,-0.105,-0.148,-0.096,-0.088
-0.091,0.086,0.177,0.002,-0.134,0.132,-0.017,-0.067,-0.008,-0.117,-0.061,-0.034
-0.116,0.296,0.412,-0.091,-0.264,0.354,0.053,0.111,0.36,0.092,0.062,0.033
0.062,0.519,0.457,-0.291,-0.198,0.488,-0.177,-0.215,0.544,0.578,0.462,0.328
0.287,0.46,0.173,-0.374,0.057,0.316,-0.65,-1.788,0.476,1.602,1.013,0.633
0.293,-0.468,-0.761,0.088,0.527,-0.614,-0.94,-2.067,-0.709,0.49,0.313,0.115
0.197,-1.26,-1.457,0.532,0.827,-1.358,-1.205,-1.832,-2.079,-1.516,-0.721,-0.493
0.119,-1.195,-1.314,0.538,0.717,-1.255,-0.908,-1.509,-1.582,-1.306,-0.73,-0.525
0.053,-0.681,-0.734,0.315,0.394,-0.707,-0.356,-0.536,-0.745,-0.768,-0.468,-0.355
-0.006,-0.272,-0.266,0.14,0.13,-0.269,-0.213,-0.209,-0.351,-0.454,-0.253,-0.201
-0.029,-0.145,-0.116,0.087,0.043,-0.13,-0.112,-0.045,-0.128,-0.263,-0.164,-0.155
-0.03,-0.084,-0.054,0.057,0.012,-0.068,-0.079,-0.002,-0.1,-0.241,-0.14,-0.125
-0.059,-0.082,-0.023,0.071,-0.018,-0.052,-0.066,-0.006,-0.035,-0.158,-0.117,-0.114
-0.07,-0.056,0.013,0.063,-0.041,-0.021,-0.039,0.038,-0.015,-0.16,-0.114,-0.107
-0.067,-0.046,0.021,0.057,-0.044,-0.013,-0.04,0.025,0.017,-0.118,-0.091,-0.096
-0.069,-0.043,0.026,0.056,-0.047,-0.008,-0.027,0.051,0.014,-0.115,-0.085,-0.097
-0.068,-0.032,0.036,0.05,-0.051,0.002,-0.016,0.052,0.031,-0.092,-0.075,-0.088
-0.068,-0.03,0.038,0.049,-0.053,0.004,0.008,0.083,0.06,-0.072,-0.071,-0.087
-0.06,-0.018,0.041,0.039,-0.05,0.011,0.014,0.103,0.078,-0.054,-0.066,-0.079
-0.052,-0.014,0.038,0.033,-0.045,0.012,0.019,0.137,0.123,-0.022,-0.053,-0.071
-0.049,-0.001,0.049,0.025,-0.049,0.024,0.035,0.187,0.155,0.0,-0.041,-0.062
-0.048,0.014,0.062,0.017,-0.055,0.038,0.044,0.249,0.194,0.035,-0.022,-0.053
-0.016,0.047,0.062,-0.016,-0.039,0.054,0.054,0.323,0.253,0.09,0.014,-0.028
0.005,0.074,0.069,-0.04,-0.033,0.071,0.077,0.422,0.318,0.149,0.042,0.002
0.007,0.103,0.096,-0.055,-0.045,0.099,0.094,0.528,0.391,0.215,0.084,0.028
0.023,0.135,0.112,-0.079,-0.045,0.123,0.112,0.62,0.459,0.29,0.13,0.053
0.04,0.177,0.137,-0.109,-0.049,0.157,0.117,0.677,0.515,0.358,0.167,0.071
0.068,0.225,0.157,-0.147,-0.045,0.191,0.11,0.699,0.531,0.403,0.199,0.096
0.077,0.233,0.156,-0.155,-0.04,0.194,0.111,0.685,0.512,0.421,0.221,0.116
0.077,0.23,0.153,-0.154,-0.038,0.191,0.092,0.619,0.49,0.416,0.226,0.119
0.064,0.228,0.164,-0.147,-0.05,0.196,0.068,0.526,0.434,0.381,0.221,0.107
0.051,0.217,0.166,-0.134,-0.058,0.192,0.057,0.401,0.349,0.32,0.2,0.098
0.041,0.179,0.137,-0.11,-0.048,0.158,0.049,0.267,0.251,0.227,0.145,0.083
0.01,0.134,0.124,-0.072,-0.057,0.128,0.04,0.143,0.16,0.137,0.095,0.046
-0.018,0.096,0.114,-0.039,-0.066,0.104,0.031,0.046,0.084,0.063,0.05,0.014
-0.035,0.057,0.092,-0.011,-0.064,0.074,0.021,-0.014,0.021,0.003,0.011,-0.014
-0.034,0.04,0.074,-0.004,-0.054,0.057,0.009,-0.067,-0.019,-0.042,-0.006,-0.047
-0.038,0.023,0.062,0.007,-0.05,0.042,-0.002,-0.093,-0.049,-0.064,-0.015,-0.059
-0.05,0.003,0.053,0.023,-0.052,0.028,-0.013,-0.099,-0.072,-0.072,-0.025,-0.062
-0.054,-0.017,0.038,0.035,-0.046,0.01,-0.015,-0.106,-0.073,-0.083,-0.041,-0.064
-0.052,-0.034,0.017,0.043,-0.034,-0.008,-0.015,-0.099,-0.066,-0.08,-0.053,-0.069
-0.04,-0.035,0.005,0.038,-0.022,-0.015,-0.019,-0.092,-0.062,-0.08,-0.054,-0.085
-0.028,-0.034,-0.007,0.031,-0.01,-0.02,-0.021,-0.086,-0.056,-0.079,-0.055,-0.083
-0.013,-0.03,-0.017,0.022,0.002,-0.023,-0.019,-0.079,-0.05,-0.074,-0.055,-0.078
-0.015,-0.03,-0.015,0.023,0.0,-0.022,-0.016,-0.074,-0.045,-0.075,-0.055,-0.077
-0.021,-0.029,-0.008,0.025,-0.006,-0.018,-0.015,-0.069,-0.04,-0.075,-0.055,-0.07
-0.021,-0.025,-0.004,0.023,-0.008,-0.014,-0.015,-0.066,-0.037,-0.075,-0.051,-0.072
-0.03,-0.025,0.004,0.027,-0.017,-0.01,-0.015,-0.063,-0.033,-0.075,-0.05,-0.076
-0.044,-0.023,0.021,0.033,-0.033,-0.001,-0.015,-0.059,-0.03,-0.07,-0.05,-0.074
-0.046,-0.019,0.027,0.033,-0.037,0.003,-0.017,-0.054,-0.025,-0.07,-0.046,-0.071
-0.041,-0.02,0.02,0.03,-0.03,0.0,-0.024,-0.063,-0.028,-0.069,-0.044,-0.069
-0.048,-0.029,0.019,0.038,-0.033,-0.005,-0.029,-0.071,-0.037,-0.065,-0.047,-0.065
-0.051,-0.037,0.014,0.044,-0.032,-0.011,-0.036,-0.071,-0.041,-0.066,-0.05,-0.066
-0.043,-0.034,0.01,0.039,-0.026,-0.012,-0.039,-0.082,-0.039,-0.063,-0.05,-0.07
-0.045,-0.035,0.009,0.04,-0.027,-0.013,-0.036,-0.086,-0.042,-0.06,-0.052,-0.072
-0.023,-0.04,-0.017,0.031,-0.003,-0.028,-0.033,-0.084,-0.062,-0.06,-0.055,-0.075
0.003,-0.04,-0.043,0.018,0.023,-0.041,-0.03,-0.086,-0.066,-0.06,-0.055,-0.078
-0.008,-0.047,-0.039,0.028,0.016,-0.043,-0.028,-0.089,-0.065,-0.06,-0.051,-0.08
-0.016,-0.055,-0.04,0.035,0.013,-0.047,-0.025,-0.094,-0.07,-0.06,-0.05,-0.08
-0.03,-0.071,-0.042,0.05,0.006,-0.056,-0.025,-0.093,-0.07,-0.06,-0.05,-0.084
-0.046,-0.082,-0.036,0.064,-0.005,-0.059,-0.025,-0.089,-0.069,-0.06,-0.045,-0.086
-0.028,-0.079,-0.05,0.053,0.011,-0.064,-0.025,-0.09,-0.065,-0.06,-0.045,-0.083
-0.033,-0.084,-0.051,0.059,0.009,-0.068,-0.026,-0.09,-0.065,-0.06,-0.044,-0.081
-0.043,-0.085,-0.043,0.064,0.001,-0.064,-0.024,-0.09,-0.065,-0.06,-0.037,-0.077
-0.033,-0.085,-0.052,0.059,0.01,-0.068,-0.026,-0.091,-0.065,-0.058,-0.033,-0.075
-0.023,-0.079,-0.056,0.051,0.017,-0.068,-0.016,-0.081,-0.066,-0.043,-0.028,-0.071
-0.001,-0.06,-0.059,0.031,0.029,-0.059,-0.009,-0.074,-0.058,-0.037,-0.021,-0.07
-0.002,-0.02,-0.019,0.011,0.009,-0.019,0.009,-0.057,-0.035,-0.028,-0.016,-0.065
-0.039,0.011,0.05,0.014,-0.045,0.03,0.043,-0.031,-0.013,0.008,-0.01,-0.055
-0.048,0.02,0.069,0.014,-0.059,0.044,0.053,-0.01,0.009,0.032,0.0,-0.044
-0.021,0.063,0.084,-0.021,-0.052,0.073,0.034,-0.016,0.022,0.036,0.006,-0.02
-0.033,0.083,0.116,-0.025,-0.075,0.099,-0.017,-0.082,0.017,0.046,0.02,0.0
-0.016,0.07,0.086,-0.027,-0.051,0.077,-0.025,-0.093,0.008,0.046,0.027,0.002
0.003,0.046,0.044,-0.025,-0.021,0.045,-0.006,-0.077,0.003,0.031,0.017,0.004
-0.039,-0.028,0.011,0.033,-0.025,-0.008,-0.001,-0.076,-0.013,0.016,0.004,-0.018
-0.057,-0.073,-0.016,0.065,-0.02,-0.044,0.005,-0.1,-0.057,-0.014,-0.022,-0.042
-0.058,-0.107,-0.049,0.083,-0.004,-0.078,0.004,-0.114,-0.075,-0.026,-0.047,-0.062
-0.033,-0.134,-0.101,0.083,0.034,-0.117,0.007,-0.1,-0.094,-0.056,-0.062,-0.07
-0.017,-0.135,-0.118,0.076,0.051,-0.126,0.002,-0.134,-0.095,-0.048,-0.057,-0.07
-0.028,-0.149,-0.121,0.089,0.047,-0.135,0.003,-0.089,-0.105,-0.08,-0.072,-0.091
-0.015,-0.115,-0.1,0.065,0.043,-0.108,-0.017,-0.15,-0.092,-0.056,-0.057,-0.082
-0.017,-0.147,-0.129,0.082,0.056,-0.138,0.035,-0.055,-0.065,-0.053,-0.073,-0.104
-0.063,-0.032,0.031,0.047,-0.047,0.0,0.08,-0.035,0.034,-0.018,-0.053,-0.068
-0.088,0.188,0.276,-0.05,-0.182,0.232,0.13,0.111,0.389,0.166,0.034,0.0
0.066,0.396,0.33,-0.232,-0.132,0.363,-0.089,-0.164,0.584,0.666,0.444,0.289
0.283,0.342,0.058,-0.313,0.113,0.2,-0.548,-1.568,0.425,1.734,1.086,0.68
0.298,-0.544,-0.842,0.124,0.57,-0.693,-0.807,-1.76,-0.806,0.67,0.483,0.261
0.199,-1.351,-1.55,0.576,0.875,-1.45,-1.052,-1.476,-2.106,-1.389,-0.6,-0.381
0.123,-1.314,-1.436,0.596,0.78,-1.375,-0.765,-1.295,-1.601,-1.232,-0.673,-0.46
0.064,-0.795,-0.86,0.366,0.462,-0.827,-0.236,-0.465,-0.734,-0.681,-0.426,-0.321
0.017,-0.382,-0.398,0.183,0.208,-0.39,-0.095,-0.14,-0.326,-0.371,-0.227,-0.184
-0.007,-0.26,-0.253,0.134,0.124,-0.257,0.0,-0.013,-0.096,-0.174,-0.139,-0.134
-0.024,-0.199,-0.175,0.112,0.076,-0.186,0.03,0.039,-0.06,-0.155,-0.114,-0.108
-0.026,-0.18,-0.154,0.104,0.064,-0.167,0.062,0.036,-0.002,-0.072,-0.085,-0.096
-0.024,-0.156,-0.132,0.09,0.054,-0.144,0.08,0.078,0.015,-0.067,-0.087,-0.093
-0.029,-0.14,-0.111,0.085,0.041,-0.125,0.078,0.062,0.04,-0.027,-0.071,-0.083
-0.014,-0.133,-0.119,0.074,0.052,-0.126,0.1,0.076,0.052,-0.033,-0.068,-0.079
-0.007,-0.126,-0.118,0.067,0.056,-0.122,0.105,0.084,0.073,-0.004,-0.058,-0.07
-0.005,-0.115,-0.11,0.06,0.053,-0.112,0.114,0.115,0.095,0.02,-0.051,-0.066
-0.005,-0.091,-0.086,0.048,0.041,-0.088,0.117,0.133,0.12,0.037,-0.04,-0.057
0.005,-0.081,-0.086,0.039,0.046,-0.084,0.136,0.165,0.158,0.058,-0.03,-0.051
0.011,-0.073,-0.083,0.032,0.047,-0.078,0.144,0.206,0.185,0.081,-0.014,-0.043
0.017,-0.063,-0.08,0.023,0.049,-0.071,0.147,0.264,0.234,0.133,0.013,-0.033
0.019,-0.041,-0.059,0.011,0.039,-0.05,0.165,0.341,0.287,0.175,0.043,-0.01
0.009,0.002,-0.007,-0.006,0.008,-0.002,0.184,0.435,0.349,0.228,0.069,0.02
0.05,0.039,-0.011,-0.044,0.03,0.013,0.199,0.543,0.423,0.298,0.103,0.044
0.093,0.069,-0.023,-0.081,0.058,0.023,0.211,0.635,0.489,0.366,0.147,0.068
0.104,0.116,0.012,-0.11,0.046,0.063,0.219,0.705,0.539,0.433,0.187,0.094
0.101,0.158,0.056,-0.13,0.022,0.107,0.226,0.737,0.554,0.479,0.23,0.122
0.091,0.164,0.073,-0.127,0.009,0.118,0.219,0.728,0.545,0.478,0.254,0.141
0.096,0.159,0.063,-0.128,0.017,0.11,0.205,0.683,0.518,0.463,0.26,0.157
0.095,0.162,0.067,-0.129,0.014,0.114,0.195,0.596,0.462,0.444,0.244,0.154
0.065,0.129,0.064,-0.097,0.0,0.096,0.182,0.464,0.36,0.362,0.204,0.141
0.029,0.079,0.05,-0.055,-0.01,0.064,0.171,0.331,0.251,0.267,0.172,0.117
0.021,0.047,0.026,-0.034,-0.003,0.036,0.157,0.205,0.167,0.19,0.134,0.074
-0.001,0.009,0.01,-0.004,-0.006,0.01,0.141,0.1,0.082,0.106,0.072,0.027
-0.022,-0.027,-0.005,0.024,-0.008,-0.016,0.125,0.031,0.018,0.045,0.032,0.003
-0.003,-0.061,-0.058,0.032,0.027,-0.059,0.111,-0.025,-0.038,-0.001,0.014,-0.012
0.014,-0.076,-0.09,0.031,0.052,-0.083,0.1,-0.048,-0.068,-0.03,-0.008,-0.025
-0.008,-0.081,-0.073,0.045,0.033,-0.077,0.092,-0.062,-0.08,-0.043,-0.02,-0.031
-0.035,-0.096,-0.061,0.066,0.013,-0.079,0.086,-0.07,-0.088,-0.045,-0.03,-0.034
0.0,-0.097,-0.097,0.049,0.049,-0.097,0.078,-0.063,-0.081,-0.039,-0.032,-0.029
0.024,-0.092,-0.115,0.034,0.07,-0.104,0.07,-0.056,-0.081,-0.038,-0.029,-0.03
0.016,-0.09,-0.105,0.037,0.06,-0.097,0.066,-0.046,-0.076,-0.034,-0.026,-0.028
0.027,-0.085,-0.112,0.029,0.07,-0.098,0.075,-0.04,-0.075,-0.032,-0.023,-0.024
0.027,-0.082,-0.109,0.028,0.068,-0.095,0.081,-0.032,-0.071,-0.03,-0.02,-0.026
0.028,-0.078,-0.106,0.026,0.067,-0.092,0.08,-0.03,-0.064,-0.03,-0.021,-0.021
0.028,-0.075,-0.103,0.024,0.066,-0.088,0.08,-0.03,-0.058,-0.03,-0.021,-0.02
0.024,-0.075,-0.099,0.026,0.062,-0.087,0.08,-0.028,-0.051,-0.03,-0.016,-0.019
0.028,-0.073,-0.101,0.022,0.065,-0.086,0.08,-0.024,-0.044,-0.03,-0.014,-0.016
0.022,-0.069,-0.092,0.024,0.057,-0.08,0.077,-0.028,-0.041,-0.03,-0.01,-0.014
0.017,-0.07,-0.088,0.027,0.053,-0.079,0.072,-0.041,-0.057,-0.031,-0.005,-0.017
0.017,-0.073,-0.09,0.028,0.054,-0.081,0.069,-0.048,-0.067,-0.036,-0.007,-0.02
0.015,-0.076,-0.091,0.031,0.053,-0.083,0.065,-0.048,-0.069,-0.039,-0.014,-0.02
0.02,-0.074,-0.094,0.028,0.057,-0.084,0.061,-0.053,-0.075,-0.045,-0.021,-0.022
0.021,-0.076,-0.097,0.028,0.059,-0.086,0.058,-0.075,-0.085,-0.054,-0.027,-0.025
0.026,-0.074,-0.099,0.024,0.063,-0.086,0.055,-0.082,-0.093,-0.059,-0.034,-0.025
0.025,-0.078,-0.103,0.027,0.064,-0.09,0.052,-0.083,-0.091,-0.062,-0.04,-0.021
0.006,-0.098,-0.105,0.046,0.055,-0.101,0.05,-0.085,-0.09,-0.069,-0.04,-0.02
0.007,-0.101,-0.108,0.047,0.057,-0.104,0.046,-0.079,-0.09,-0.076,-0.04,-0.02
0.011,-0.099,-0.11,0.044,0.061,-0.105,0.045,-0.081,-0.09,-0.073,-0.04,-0.015
0.009,-0.101,-0.11,0.046,0.06,-0.106,0.041,-0.079,-0.09,-0.068,-0.04,-0.015
0.016,-0.098,-0.115,0.042,0.065,-0.106,0.04,-0.084,-0.091,-0.067,-0.04,-0.016
0.012,-0.103,-0.115,0.046,0.064,-0.108,0.04,-0.1,-0.095,-0.06,-0.038,-0.024
0.012,-0.104,-0.116,0.046,0.065,-0.11,0.04,-0.1,-0.095,-0.063,-0.034,-0.033
0.014,-0.106,-0.12,0.046,0.068,-0.113,0.04,-0.1,-0.095,-0.063,-0.035,-0.032
0.016,-0.103,-0.12,0.043,0.069,-0.111,0.041,-0.1,-0.091,-0.067,-0.035,-0.026
0.015,-0.107,-0.122,0.046,0.069,-0.114,0.045,-0.1,-0.089,-0.083,-0.035,-0.022
0.006,-0.12,-0.126,0.057,0.067,-0.123,0.045,-0.099,-0.085,-0.077,-0.035,-0.018
0.01,-0.113,-0.123,0.052,0.067,-0.118,0.045,-0.084,-0.082,-0.064,-0.028,-0.013
0.008,-0.096,-0.104,0.045,0.056,-0.099,0.051,-0.073,-0.078,-0.053,-0.02,-0.008
0.005,-0.053,-0.059,0.024,0.032,-0.056,0.072,-0.05,-0.045,-0.029,-0.01,0.002
0.01,-0.026,-0.036,0.008,0.023,-0.031,0.086,-0.026,-0.02,0.0,0.006,0.014
0.0,-0.001,-0.001,0.001,0.0,-0.001,0.074,-0.016,-0.019,0.018,0.029,0.029
-0.023,0.036,0.059,-0.007,-0.042,0.047,0.06,-0.05,-0.021,0.014,0.04,0.05
-0.038,0.034,0.072,0.001,-0.055,0.053,0.054,-0.102,-0.018,0.012,0.042,0.059
-0.005,0.032,0.037,-0.014,-0.021,0.034,0.056,-0.096,-0.022,0.0,0.042,0.051
0.041,0.003,-0.038,-0.022,0.04,-0.018,0.051,-0.112,-0.019,-0.002,0.034,0.048
0.002,-0.066,-0.068,0.032,0.035,-0.066,0.051,-0.1,-0.038,-0.013,0.017,0.032
-0.012,-0.095,-0.083,0.054,0.035,-0.089,0.048,-0.119,-0.08,-0.038,-0.003,0.014
-0.003,-0.13,-0.127,0.067,0.062,-0.129,0.055,-0.11,-0.082,-0.056,-0.027,0.002
-0.023,-0.141,-0.118,0.082,0.048,-0.13,0.055,-0.115,-0.099,-0.074,-0.034,0.002
0.007,-0.142,-0.148,0.068,0.078,-0.145,0.059,-0.126,-0.082,-0.059,-0.033,-0.003
-0.011,-0.156,-0.144,0.084,0.067,-0.15,0.064,-0.1,-0.096,-0.1,-0.04,-0.008
-0.01,-0.136,-0.125,0.073,0.057,-0.13,0.058,-0.159,-0.078,-0.051,-0.027,-0.007
-0.008,-0.15,-0.142,0.08,0.067,-0.146,0.081,-0.024,-0.071,-0.086,-0.052,-0.024
-0.083,0.01,0.094,0.036,-0.088,0.052,0.119,-0.03,0.096,0.005,0.014,0.025
-0.04,0.251,0.291,-0.106,-0.165,0.271,0.154,0.171,0.476,0.228,0.161,0.138
0.175,0.491,0.316,-0.334,-0.071,0.403,-0.2,-0.672,0.61,1.003,0.735,0.538
0.361,0.194,-0.167,-0.278,0.264,0.014,-0.683,-2.095,0.248,1.708,1.061,0.661
0.311,-0.93,-1.241,0.31,0.776,-1.085,-0.992,-1.95,-1.282,-0.136,0.019,-0.031
0.234,-1.485,-1.719,0.626,0.976,-1.602,-1.091,-1.774,-2.118,-1.605,-0.757,-0.485
0.162,-1.159,-1.321,0.499,0.742,-1.24,-0.562,-1.124,-1.222,-1.007,-0.566,-0.393
0.057,-0.642,-0.699,0.293,0.378,-0.67,-0.144,-0.287,-0.551,-0.598,-0.322,-0.227
0.028,-0.321,-0.349,0.147,0.189,-0.335,-0.064,-0.136,-0.227,-0.296,-0.151,-0.106
-0.023,-0.263,-0.24,0.143,0.109,-0.251,0.038,0.03,-0.078,-0.192,-0.101,-0.076
0.024,-0.173,-0.197,0.075,0.111,-0.185,0.053,0.021,-0.054,-0.158,-0.085,-0.05
-0.034,-0.217,-0.183,0.126,0.075,-0.2,0.085,0.069,-0.007,-0.106,-0.047,-0.038
0.009,-0.141,-0.15,0.066,0.08,-0.145,0.091,0.077,-0.003,-0.109,-0.062,-0.037
-0.067,-0.211,-0.144,0.139,0.039,-0.177,0.102,0.074,0.034,-0.063,-0.028,-0.007
-0.235,-0.371,-0.136,0.303,-0.049,-0.253,0.113,0.092,0.045,-0.062,-0.043,-0.036
0.142,0.013,-0.129,-0.077,0.135,-0.058,0.121,0.103,0.08,-0.038,-0.023,0.04
0.222,0.098,-0.124,-0.16,0.173,-0.012,0.134,0.136,0.094,-0.025,0.203,0.077
0.12,0.014,-0.106,-0.067,0.112,-0.045,0.14,0.148,0.116,0.001,0.095,-0.01
0.18,0.089,-0.091,-0.134,0.135,-0.001,0.148,0.193,0.149,0.036,-0.051,0.001
0.1,0.013,-0.087,-0.056,0.093,-0.036,0.151,0.242,0.179,0.014,0.04,0.001
