0.036,0.025,-0.011,-0.031,0.023,0.007,0.323,0.853,0.283,0.082,0.067,-0.014
0.054,0.044,-0.01,-0.049,0.031,0.017,0.318,0.847,0.313,0.11,0.091,0.003
0.095,0.09,-0.005,-0.092,0.05,0.042,0.312,0.831,0.338,0.143,0.123,0.035
0.119,0.115,-0.004,-0.117,0.061,0.055,0.268,0.739,0.324,0.146,0.13,0.046
0.11,0.112,0.002,-0.111,0.053,0.057,0.205,0.595,0.267,0.132,0.131,0.039
0.119,0.094,-0.026,-0.106,0.072,0.034,0.128,0.427,0.195,0.094,0.125,0.029
0.114,0.062,-0.053,-0.088,0.083,0.004,0.047,0.245,0.104,0.043,0.093,0.021
0.061,0.013,-0.048,-0.037,0.054,-0.018,0.0,0.103,0.005,-0.019,0.036,0.001
0.02,-0.05,-0.07,0.015,0.046,-0.06,-0.039,-0.008,-0.077,-0.089,-0.019,-0.033
-0.001,-0.084,-0.083,0.043,0.041,-0.084,-0.064,-0.089,-0.137,-0.136,-0.053,-0.068
-0.017,-0.095,-0.078,0.056,0.031,-0.086,-0.069,-0.136,-0.185,-0.172,-0.08,-0.093
-0.029,-0.11,-0.082,0.07,0.027,-0.096,-0.075,-0.166,-0.213,-0.198,-0.098,-0.105
-0.045,-0.124,-0.079,0.084,0.017,-0.101,-0.074,-0.188,-0.231,-0.211,-0.117,-0.116
-0.04,-0.12,-0.08,0.08,0.021,-0.1,-0.084,-0.192,-0.238,-0.216,-0.126,-0.121
-0.02,-0.112,-0.091,0.066,0.036,-0.101,-0.092,-0.189,-0.234,-0.215,-0.124,-0.119
-0.017,-0.106,-0.09,0.062,0.037,-0.098,-0.087,-0.191,-0.235,-0.215,-0.126,-0.12
-0.02,-0.099,-0.079,0.06,0.03,-0.089,-0.085,-0.19,-0.235,-0.215,-0.124,-0.12
-0.023,-0.094,-0.071,0.058,0.024,-0.082,-0.082,-0.19,-0.235,-0.214,-0.126,-0.12
-0.023,-0.088,-0.065,0.056,0.022,-0.076,-0.08,-0.19,-0.235,-0.211,-0.124,-0.118
-0.021,-0.082,-0.062,0.052,0.021,-0.072,-0.08,-0.19,-0.235,-0.208,-0.119,-0.114
-0.019,-0.078,-0.058,0.048,0.02,-0.068,-0.08,-0.19,-0.235,-0.206,-0.116,-0.112
-0.016,-0.071,-0.055,0.044,0.019,-0.063,-0.08,-0.19,-0.235,-0.202,-0.113,-0.109
-0.016,-0.066,-0.05,0.041,0.017,-0.057,-0.08,-0.19,-0.235,-0.199,-0.109,-0.106
-0.015,-0.068,-0.054,0.042,0.02,-0.061,-0.08,-0.193,-0.234,-0.202,-0.104,-0.104
-0.01,-0.07,-0.06,0.04,0.025,-0.065,-0.081,-0.196,-0.238,-0.205,-0.115,-0.101
-0.012,-0.072,-0.06,0.042,0.025,-0.066,-0.085,-0.198,-0.24,-0.208,-0.121,-0.1
-0.018,-0.076,-0.058,0.047,0.021,-0.066,-0.085,-0.201,-0.24,-0.211,-0.119,-0.1
-0.001,-0.075,-0.074,0.038,0.037,-0.074,-0.085,-0.207,-0.244,-0.215,-0.12,-0.1
0.012,-0.075,-0.087,0.032,0.05,-0.081,-0.086,-0.217,-0.245,-0.214,-0.12,-0.099
0.009,-0.075,-0.084,0.034,0.047,-0.079,-0.084,-0.221,-0.245,-0.211,-0.12,-0.103
0.011,-0.075,-0.085,0.033,0.049,-0.08,-0.09,-0.225,-0.245,-0.208,-0.12,-0.11
0.01,-0.075,-0.085,0.033,0.048,-0.08,-0.098,-0.23,-0.245,-0.205,-0.12,-0.11
0.01,-0.075,-0.085,0.033,0.048,-0.08,-0.095,-0.229,-0.245,-0.203,-0.12,-0.11
0.013,-0.072,-0.085,0.03,0.049,-0.078,-0.091,-0.232,-0.245,-0.197,-0.12,-0.11
0.016,-0.069,-0.085,0.027,0.05,-0.076,-0.088,-0.235,-0.244,-0.211,-0.12,-0.11
0.019,-0.066,-0.085,0.024,0.053,-0.076,-0.084,-0.235,-0.247,-0.227,-0.12,-0.11
0.022,-0.063,-0.085,0.021,0.053,-0.074,-0.079,-0.239,-0.25,-0.224,-0.12,-0.11
0.025,-0.061,-0.086,0.018,0.055,-0.073,-0.085,-0.24,-0.25,-0.225,-0.12,-0.109
0.025,-0.058,-0.083,0.017,0.054,-0.07,-0.092,-0.24,-0.253,-0.225,-0.12,-0.116
0.025,-0.055,-0.08,0.015,0.053,-0.067,-0.09,-0.24,-0.255,-0.225,-0.12,-0.126
0.025,-0.052,-0.077,0.014,0.051,-0.064,-0.089,-0.24,-0.254,-0.221,-0.12,-0.125
0.025,-0.05,-0.075,0.013,0.05,-0.062,-0.091,-0.24,-0.255,-0.219,-0.123,-0.125
0.025,-0.046,-0.071,0.011,0.048,-0.058,-0.089,-0.24,-0.254,-0.22,-0.126,-0.125
0.025,-0.045,-0.07,0.01,0.048,-0.057,-0.09,-0.24,-0.255,-0.215,-0.129,-0.125
0.032,-0.042,-0.074,0.005,0.053,-0.057,-0.094,-0.238,-0.254,-0.215,-0.131,-0.125
0.036,-0.039,-0.076,0.002,0.056,-0.057,-0.094,-0.234,-0.256,-0.214,-0.135,-0.125
0.034,-0.041,-0.075,0.004,0.054,-0.057,-0.105,-0.235,-0.252,-0.209,-0.134,-0.125
0.036,-0.039,-0.075,0.002,0.056,-0.057,-0.108,-0.231,-0.247,-0.206,-0.128,-0.125
0.034,-0.041,-0.075,0.004,0.054,-0.057,-0.098,-0.229,-0.244,-0.202,-0.122,-0.125
0.037,-0.038,-0.075,0.001,0.056,-0.056,-0.092,-0.23,-0.237,-0.198,-0.116,-0.125
0.059,-0.028,-0.087,-0.015,0.073,-0.057,-0.087,-0.212,-0.237,-0.195,-0.111,-0.115
0.066,-0.006,-0.072,-0.029,0.069,-0.039,-0.055,-0.187,-0.208,-0.188,-0.103,-0.099
0.055,0.027,-0.027,-0.041,0.041,0.0,-0.012,-0.167,-0.186,-0.173,-0.088,-0.09
0.064,0.039,-0.025,-0.051,0.044,0.006,0.003,-0.142,-0.188,-0.162,-0.077,-0.09
0.111,0.056,-0.055,-0.083,0.083,0.0,0.018,-0.117,-0.174,-0.16,-0.075,-0.09
0.127,0.053,-0.074,-0.09,0.1,-0.01,-0.018,-0.135,-0.177,-0.159,-0.075,-0.09
0.118,0.011,-0.107,-0.064,0.112,-0.048,-0.093,-0.187,-0.2,-0.17,-0.076,-0.09
0.131,0.001,-0.129,-0.066,0.13,-0.064,-0.113,-0.212,-0.213,-0.186,-0.073,-0.09
0.105,-0.015,-0.12,-0.045,0.113,-0.067,-0.107,-0.232,-0.224,-0.194,-0.085,-0.095
0.055,-0.038,-0.093,-0.008,0.074,-0.066,-0.106,-0.247,-0.24,-0.205,-0.1,-0.096
0.037,-0.04,-0.077,0.002,0.057,-0.058,-0.101,-0.243,-0.249,-0.221,-0.112,-0.111
0.029,-0.043,-0.072,0.007,0.051,-0.057,-0.101,-0.246,-0.263,-0.224,-0.126,-0.121
0.022,-0.047,-0.069,0.013,0.045,-0.058,-0.097,-0.237,-0.256,-0.217,-0.124,-0.119
0.009,-0.059,-0.068,0.026,0.038,-0.063,-0.093,-0.242,-0.258,-0.223,-0.127,-0.12
0.002,-0.055,-0.057,0.026,0.03,-0.056,-0.087,-0.236,-0.249,-0.216,-0.122,-0.112
0.013,-0.052,-0.066,0.019,0.04,-0.059,-0.083,-0.234,-0.252,-0.223,-0.128,-0.118
0.02,-0.031,-0.052,0.006,0.036,-0.041,-0.08,-0.237,-0.246,-0.217,-0.12,-0.109
0.032,-0.038,-0.07,0.003,0.051,-0.053,-0.072,-0.224,-0.237,-0.214,-0.123,-0.106
0.032,-0.019,-0.05,-0.006,0.041,-0.034,-0.072,-0.239,-0.232,-0.203,-0.119,-0.092
0.073,0.023,-0.051,-0.048,0.062,-0.014,-0.048,-0.203,-0.208,-0.182,-0.103,-0.088
0.089,0.137,0.047,-0.113,0.02,0.091,-0.017,-0.185,-0.193,-0.148,-0.058,-0.057
0.153,0.238,0.086,-0.196,0.033,0.162,0.143,0.189,0.06,0.028,0.074,0.029
0.336,0.185,-0.151,-0.261,0.243,0.017,0.118,0.315,0.296,0.229,0.225,0.12
0.716,0.428,-0.287,-0.572,0.501,0.07,-0.643,-0.353,0.617,0.667,0.645,0.481
1.241,0.447,-0.794,-0.844,1.017,-0.173,-1.397,-0.72,0.691,0.848,0.904,0.741
1.029,0.075,-0.954,-0.552,0.991,-0.439,-1.379,-1.156,-0.134,0.254,0.554,0.559
0.42,-0.071,-0.492,-0.174,0.456,-0.281,-0.946,-1.322,-0.651,-0.216,0.134,0.263
0.221,-0.075,-0.296,-0.073,0.259,-0.185,-0.486,-0.705,-0.489,-0.276,-0.055,0.04
0.106,-0.026,-0.132,-0.039,0.119,-0.079,-0.161,-0.315,-0.313,-0.243,-0.085,-0.04
0.044,-0.03,-0.074,-0.007,0.059,-0.052,-0.023,-0.137,-0.226,-0.209,-0.097,-0.086
0.03,-0.028,-0.058,-0.001,0.045,-0.043,0.022,-0.062,-0.204,-0.194,-0.108,-0.098
0.012,-0.02,-0.031,0.004,0.022,-0.025,0.041,-0.042,-0.186,-0.184,-0.104,-0.085
0.026,-0.006,-0.032,-0.009,0.029,-0.019,0.061,-0.005,-0.184,-0.181,-0.1,-0.087
0.038,0.025,-0.013,-0.031,0.025,0.006,0.075,0.013,-0.176,-0.168,-0.092,-0.078
0.077,0.052,-0.025,-0.065,0.051,0.013,0.089,0.062,-0.145,-0.144,-0.087,-0.077
0.119,0.104,-0.014,-0.111,0.066,0.045,0.125,0.107,-0.101,-0.127,-0.067,-0.069
0.152,0.136,-0.016,-0.143,0.084,0.06,0.151,0.163,-0.072,-0.115,-0.05,-0.062
0.179,0.164,-0.015,-0.171,0.096,0.075,0.172,0.216,-0.054,-0.091,-0.039,-0.054
0.184,0.173,-0.011,-0.178,0.097,0.081,0.19,0.281,-0.028,-0.075,-0.027,-0.046
0.198,0.194,-0.004,-0.196,0.101,0.095,0.207,0.353,0.007,-0.061,-0.019,-0.039
0.19,0.193,0.003,-0.192,0.094,0.098,0.242,0.448,0.055,-0.046,-0.012,-0.033
0.152,0.161,0.009,-0.157,0.072,0.084,0.267,0.543,0.091,-0.034,-0.006,-0.027
0.143,0.16,0.017,-0.151,0.063,0.088,0.3,0.639,0.13,-0.011,0.007,-0.021
0.138,0.159,0.021,-0.149,0.059,0.09,0.339,0.741,0.186,0.023,0.029,-0.017
0.134,0.175,0.041,-0.155,0.046,0.108,0.375,0.838,0.252,0.069,0.06,-0.003
0.135,0.188,0.052,-0.162,0.041,0.12,0.409,0.915,0.32,0.112,0.098,0.028
0.179,0.233,0.054,-0.206,0.062,0.143,0.42,0.951,0.367,0.162,0.14,0.072
0.229,0.294,0.065,-0.262,0.082,0.179,0.409,0.952,0.396,0.206,0.184,0.111
0.254,0.315,0.061,-0.284,0.096,0.188,0.375,0.873,0.387,0.208,0.204,0.126
0.264,0.319,0.055,-0.292,0.104,0.187,0.305,0.737,0.344,0.199,0.195,0.123
0.239,0.276,0.038,-0.258,0.101,0.157,0.21,0.568,0.28,0.173,0.185,0.118
0.222,0.234,0.013,-0.228,0.104,0.123,0.14,0.386,0.191,0.116,0.164,0.115
0.191,0.197,0.006,-0.195,0.092,0.101,0.089,0.229,0.096,0.061,0.113,0.094
0.152,0.153,0.001,-0.153,0.075,0.077,0.047,0.102,0.016,0.002,0.062,0.056
0.124,0.119,-0.004,-0.121,0.064,0.058,0.025,0.02,-0.054,-0.06,0.02,0.015
0.101,0.091,-0.01,-0.096,0.055,0.04,0.015,-0.039,-0.103,-0.099,-0.015,-0.009
0.09,0.075,-0.015,-0.082,0.053,0.03,0.012,-0.081,-0.133,-0.123,-0.045,-0.015
0.086,0.062,-0.023,-0.074,0.054,0.019,0.005,-0.096,-0.157,-0.127,-0.061,-0.025
0.096,0.05,-0.046,-0.073,0.071,0.002,0.0,-0.103,-0.161,-0.123,-0.059,-0.033
0.098,0.041,-0.057,-0.069,0.077,-0.008,-0.005,-0.103,-0.159,-0.139,-0.062,-0.035
0.091,0.039,-0.052,-0.065,0.071,-0.006,-0.01,-0.1,-0.16,-0.146,-0.065,-0.035
0.086,0.036,-0.05,-0.061,0.068,-0.007,-0.011,-0.1,-0.16,-0.144,-0.065,-0.036
0.079,0.033,-0.046,-0.056,0.062,-0.006,-0.007,-0.1,-0.159,-0.145,-0.063,-0.037
0.075,0.03,-0.046,-0.052,0.06,-0.008,-0.005,-0.1,-0.154,-0.145,-0.059,-0.033
0.072,0.031,-0.041,-0.051,0.056,-0.005,-0.005,-0.101,-0.149,-0.145,-0.06,-0.03
0.076,0.036,-0.041,-0.056,0.058,-0.002,-0.002,-0.105,-0.145,-0.141,-0.056,-0.027
0.075,0.037,-0.037,-0.056,0.056,0.0,0.0,-0.106,-0.14,-0.136,-0.055,-0.022
0.077,0.043,-0.034,-0.06,0.056,0.004,-0.001,-0.105,-0.136,-0.131,-0.055,-0.02
0.08,0.044,-0.035,-0.062,0.057,0.004,-0.004,-0.106,-0.138,-0.128,-0.055,-0.025
0.087,0.065,-0.022,-0.076,0.054,0.021,-0.009,-0.105,-0.142,-0.122,-0.055,-0.033
0.116,0.08,-0.036,-0.098,0.076,0.022,-0.011,-0.107,-0.143,-0.12,-0.055,-0.035
0.094,0.065,-0.03,-0.079,0.062,0.017,-0.016,-0.115,-0.148,-0.13,-0.056,-0.036
0.069,0.051,-0.018,-0.06,0.043,0.016,-0.019,-0.12,-0.15,-0.139,-0.054,-0.04
0.08,0.053,-0.027,-0.066,0.054,0.012,-0.022,-0.129,-0.15,-0.141,-0.059,-0.04
0.08,0.061,-0.019,-0.07,0.05,0.021,-0.028,-0.143,-0.145,-0.144,-0.073,-0.044
0.078,0.06,-0.018,-0.069,0.048,0.02,-0.031,-0.145,-0.146,-0.147,-0.075,-0.045
0.073,0.06,-0.013,-0.066,0.043,0.023,-0.037,-0.144,-0.165,-0.15,-0.075,-0.044
0.07,0.06,-0.01,-0.065,0.04,0.025,-0.039,-0.149,-0.172,-0.15,-0.075,-0.046
0.066,0.06,-0.006,-0.062,0.036,0.026,-0.036,-0.15,-0.169,-0.15,-0.075,-0.044
0.057,0.057,0.0,-0.057,0.028,0.028,-0.033,-0.151,-0.171,-0.15,-0.075,-0.049
0.048,0.054,0.006,-0.051,0.021,0.029,-0.03,-0.152,-0.169,-0.15,-0.07,-0.052
0.046,0.056,0.01,-0.051,0.018,0.033,-0.027,-0.15,-0.171,-0.15,-0.07,-0.05
0.061,0.053,-0.008,-0.057,0.034,0.022,-0.024,-0.15,-0.174,-0.15,-0.07,-0.05
0.077,0.06,-0.016,-0.068,0.046,0.022,-0.027,-0.15,-0.175,-0.154,-0.07,-0.046
0.075,0.071,-0.004,-0.073,0.039,0.033,-0.031,-0.15,-0.176,-0.155,-0.069,-0.045
0.064,0.066,0.002,-0.065,0.03,0.034,-0.033,-0.15,-0.18,-0.155,-0.072,-0.045
0.065,0.064,-0.002,-0.064,0.033,0.03,-0.036,-0.154,-0.18,-0.159,-0.079,-0.053
0.067,0.059,-0.008,-0.063,0.037,0.025,-0.039,-0.155,-0.177,-0.16,-0.076,-0.058
0.07,0.056,-0.014,-0.063,0.041,0.021,-0.04,-0.155,-0.175,-0.158,-0.075,-0.054
0.065,0.054,-0.011,-0.059,0.037,0.021,-0.035,-0.155,-0.171,-0.155,-0.075,-0.055
0.057,0.057,0.001,-0.057,0.027,0.029,-0.035,-0.155,-0.169,-0.155,-0.075,-0.055
0.061,0.069,0.008,-0.065,0.026,0.038,-0.034,-0.153,-0.166,-0.155,-0.075,-0.055
0.069,0.072,0.003,-0.07,0.033,0.037,-0.029,-0.149,-0.164,-0.154,-0.077,-0.055
0.073,0.067,-0.005,-0.07,0.039,0.031,-0.031,-0.149,-0.172,-0.156,-0.081,-0.06
0.077,0.068,-0.009,-0.072,0.043,0.029,-0.029,-0.144,-0.171,-0.147,-0.084,-0.06
0.081,0.061,-0.02,-0.071,0.05,0.02,-0.031,-0.146,-0.16,-0.13,-0.09,-0.061
0.076,0.075,-0.001,-0.075,0.038,0.036,0.001,-0.116,-0.128,-0.12,-0.086,-0.056
0.079,0.117,0.037,-0.099,0.021,0.077,0.048,-0.072,-0.104,-0.111,-0.068,-0.039
0.089,0.123,0.034,-0.106,0.027,0.078,0.055,-0.072,-0.103,-0.099,-0.046,-0.022
0.108,0.127,0.019,-0.118,0.044,0.073,0.066,-0.049,-0.101,-0.099,-0.038,-0.006
0.129,0.135,0.006,-0.132,0.061,0.071,0.048,-0.043,-0.098,-0.101,-0.04,-0.005
0.152,0.118,-0.035,-0.135,0.093,0.041,-0.008,-0.086,-0.104,-0.106,-0.04,-0.014
0.155,0.091,-0.065,-0.123,0.11,0.013,-0.049,-0.123,-0.119,-0.107,-0.047,-0.026
0.116,0.06,-0.056,-0.088,0.086,0.002,-0.056,-0.152,-0.143,-0.116,-0.059,-0.036
0.087,0.046,-0.041,-0.066,0.063,0.002,-0.047,-0.17,-0.166,-0.146,-0.076,-0.05
0.072,0.036,-0.036,-0.053,0.054,-0.001,-0.045,-0.169,-0.164,-0.15,-0.093,-0.069
0.06,0.027,-0.032,-0.043,0.046,-0.002,-0.04,-0.169,-0.167,-0.146,-0.1,-0.071
0.05,0.022,-0.029,-0.036,0.039,-0.003,-0.035,-0.164,-0.174,-0.144,-0.099,-0.068
0.037,0.009,-0.028,-0.022,0.032,-0.009,-0.038,-0.161,-0.177,-0.146,-0.101,-0.075
0.033,0.014,-0.019,-0.023,0.026,-0.003,-0.041,-0.162,-0.17,-0.143,-0.098,-0.074
0.027,0.005,-0.022,-0.016,0.025,-0.009,-0.039,-0.152,-0.17,-0.146,-0.102,-0.086
0.023,0.016,-0.007,-0.019,0.015,0.005,-0.047,-0.162,-0.167,-0.147,-0.098,-0.091
0.021,0.004,-0.017,-0.013,0.02,-0.007,-0.043,-0.145,-0.161,-0.15,-0.096,-0.087
0.006,0.016,0.01,-0.011,-0.002,0.012,-0.046,-0.167,-0.166,-0.156,-0.09,-0.075
0.006,0.013,0.007,-0.01,-0.001,0.009,-0.03,-0.139,-0.148,-0.149,-0.086,-0.071
-0.025,0.035,0.06,-0.005,-0.043,0.047,-0.004,-0.137,-0.155,-0.133,-0.078,-0.057
0.027,0.134,0.107,-0.081,-0.04,0.12,0.104,0.174,0.051,0.014,0.008,-0.007
0.208,0.103,-0.105,-0.155,0.156,-0.001,0.213,0.519,0.326,0.212,0.141,0.067
0.611,0.391,-0.22,-0.501,0.415,0.086,-0.353,-0.084,0.686,0.682,0.592,0.443
1.154,0.563,-0.591,-0.858,0.872,-0.014,-1.214,-0.63,0.953,1.064,1.021,0.824
0.973,0.234,-0.738,-0.603,0.855,-0.252,-1.35,-1.089,0.228,0.582,0.776,0.723
0.363,0.014,-0.349,-0.188,0.356,-0.168,-0.956,-1.367,-0.522,-0.055,0.261,0.37
0.16,-0.071,-0.23,-0.044,0.196,-0.151,-0.505,-0.773,-0.46,-0.222,-0.028,0.079
0.068,-0.035,-0.103,-0.016,0.086,-0.069,-0.17,-0.316,-0.27,-0.173,-0.087,-0.024
-0.001,-0.02,-0.019,0.011,0.009,-0.019,0.0,-0.098,-0.181,-0.145,-0.095,-0.071
0.004,-0.023,-0.027,0.01,0.016,-0.025,0.06,0.009,-0.15,-0.147,-0.101,-0.096
-0.001,-0.006,-0.005,0.004,0.002,-0.005,0.077,0.022,-0.127,-0.136,-0.095,-0.087
0.008,-0.009,-0.017,0.0,0.013,-0.012,0.089,0.068,-0.111,-0.134,-0.096,-0.092
-0.004,-0.006,-0.002,0.005,-0.001,-0.004,0.098,0.074,-0.102,-0.127,-0.094,-0.093
-0.015,-0.02,-0.005,0.018,-0.005,-0.012,0.117,0.118,-0.086,-0.122,-0.095,-0.094
-0.007,-0.006,0.001,0.006,-0.004,-0.002,0.12,0.142,-0.07,-0.108,-0.095,-0.085
0.01,0.002,-0.009,-0.006,0.009,-0.003,0.127,0.175,-0.047,-0.095,-0.094,-0.08
0.036,0.013,-0.024,-0.024,0.03,-0.005,0.144,0.221,-0.024,-0.084,-0.082,-0.072
0.047,0.02,-0.026,-0.033,0.036,-0.003,0.159,0.276,0.009,-0.069,-0.069,-0.066
0.039,0.02,-0.019,-0.03,0.029,0.0,0.191,0.349,0.033,-0.047,-0.061,-0.073
0.035,0.027,-0.009,-0.031,0.021,0.009,0.226,0.441,0.069,-0.023,-0.048,-0.072
0.027,0.025,-0.002,-0.026,0.014,0.011,0.262,0.551,0.126,0.0,-0.027,-0.062
0.039,0.047,0.008,-0.044,0.015,0.028,0.304,0.671,0.182,0.041,0.006,-0.05
0.072,0.088,0.017,-0.08,0.027,0.052,0.355,0.79,0.26,0.088,0.034,-0.025
0.087,0.122,0.035,-0.105,0.026,0.078,0.396,0.895,0.334,0.136,0.065,-0.003
0.084,0.152,0.068,-0.119,0.008,0.11,0.421,0.978,0.396,0.187,0.108,0.022
0.113,0.189,0.076,-0.151,0.018,0.132,0.413,1.008,0.462,0.239,0.146,0.059
0.147,0.222,0.075,-0.185,0.036,0.148,0.396,0.998,0.496,0.279,0.181,0.08
0.156,0.232,0.076,-0.194,0.04,0.153,0.377,0.94,0.477,0.279,0.193,0.102
0.168,0.244,0.076,-0.206,0.046,0.159,0.313,0.805,0.444,0.271,0.18,0.113
0.161,0.235,0.074,-0.199,0.043,0.155,0.247,0.64,0.385,0.257,0.168,0.098
0.164,0.202,0.038,-0.183,0.063,0.12,0.176,0.462,0.294,0.212,0.158,0.089
0.14,0.167,0.027,-0.154,0.056,0.097,0.103,0.3,0.201,0.143,0.122,0.06
0.098,0.118,0.02,-0.108,0.039,0.068,0.063,0.171,0.111,0.076,0.067,0.02
0.059,0.067,0.008,-0.063,0.025,0.037,0.035,0.066,0.037,0.025,0.018,-0.014
0.016,0.032,0.016,-0.024,0.0,0.024,0.022,0.006,-0.017,-0.02,-0.02,-0.04
0.009,0.013,0.005,-0.011,0.002,0.009,0.019,-0.035,-0.052,-0.051,-0.04,-0.047
0.005,0.004,-0.001,-0.004,0.002,0.001,0.016,-0.058,-0.071,-0.071,-0.058,-0.061
0.004,-0.003,-0.007,0.0,0.005,-0.004,0.013,-0.065,-0.077,-0.077,-0.067,-0.068
0.009,-0.01,-0.018,0.001,0.014,-0.014,0.01,-0.066,-0.082,-0.075,-0.07,-0.071
0.004,-0.018,-0.022,0.007,0.013,-0.02,0.008,-0.064,-0.082,-0.072,-0.07,-0.076
-0.004,-0.023,-0.019,0.014,0.008,-0.021,0.005,-0.066,-0.079,-0.07,-0.069,-0.078
-0.007,-0.021,-0.014,0.015,0.003,-0.017,0.002,-0.065,-0.08,-0.067,-0.075,-0.089
-0.007,-0.018,-0.011,0.013,0.002,-0.014,0.0,-0.063,-0.075,-0.064,-0.075,-0.091
-0.008,-0.015,-0.007,0.012,0.0,-0.011,-0.004,-0.06,-0.075,-0.072,-0.075,-0.087
-0.009,-0.013,-0.004,0.011,-0.003,-0.008,-0.006,-0.06,-0.076,-0.081,-0.073,-0.085
-0.009,-0.009,0.0,0.009,-0.005,-0.005,-0.005,-0.055,-0.085,-0.084,-0.069,-0.081
-0.025,-0.013,0.012,0.019,-0.018,0.0,-0.005,-0.056,-0.094,-0.082,-0.072,-0.08
-0.037,-0.022,0.015,0.029,-0.026,-0.003,-0.005,-0.072,-0.095,-0.079,-0.068,-0.084
-0.029,-0.021,0.009,0.025,-0.019,-0.006,-0.006,-0.081,-0.095,-0.08,-0.077,-0.086
-0.028,-0.02,0.008,0.024,-0.018,-0.006,-0.012,-0.085,-0.095,-0.08,-0.095,-0.084
-0.02,-0.018,0.001,0.019,-0.01,-0.008,-0.015,-0.085,-0.095,-0.08,-0.097,-0.086
-0.017,-0.016,0.001,0.016,-0.008,-0.007,-0.02,-0.095,-0.096,-0.081,-0.099,-0.084
-0.024,-0.013,0.01,0.018,-0.017,-0.001,-0.025,-0.108,-0.102,-0.09,-0.103,-0.087
-0.035,-0.026,0.008,0.03,-0.021,-0.009,-0.029,-0.111,-0.11,-0.099,-0.105,-0.095
-0.044,-0.042,0.002,0.043,-0.023,-0.02,-0.03,-0.117,-0.124,-0.1,-0.103,-0.095
-0.038,-0.039,-0.001,0.039,-0.019,-0.02,-0.03,-0.121,-0.132,-0.1,-0.099,-0.095
-0.034,-0.04,-0.007,0.037,-0.014,-0.023,-0.034,-0.124,-0.127,-0.105,-0.1,-0.095
-0.03,-0.04,-0.01,0.035,-0.01,-0.025,-0.036,-0.125,-0.125,-0.105,-0.1,-0.097
-0.03,-0.04,-0.01,0.035,-0.01,-0.025,-0.033,-0.125,-0.122,-0.106,-0.1,-0.101
-0.034,-0.043,-0.01,0.038,-0.012,-0.026,-0.03,-0.125,-0.119,-0.11,-0.101,-0.098
-0.034,-0.046,-0.012,0.04,-0.01,-0.029,-0.027,-0.125,-0.117,-0.109,-0.104,-0.095
-0.027,-0.049,-0.021,0.038,-0.003,-0.035,-0.025,-0.125,-0.114,-0.112,-0.107,-0.093
-0.023,-0.052,-0.029,0.038,0.003,-0.04,-0.021,-0.126,-0.111,-0.115,-0.109,-0.088
-0.027,-0.064,-0.037,0.046,0.006,-0.051,-0.02,-0.13,-0.108,-0.114,-0.113,-0.097
-0.024,-0.068,-0.044,0.046,0.01,-0.056,-0.02,-0.13,-0.105,-0.119,-0.115,-0.106
-0.024,-0.063,-0.04,0.044,0.009,-0.051,-0.02,-0.13,-0.106,-0.12,-0.115,-0.105
-0.028,-0.061,-0.033,0.045,0.003,-0.047,-0.02,-0.13,-0.115,-0.12,-0.115,-0.11
-0.03,-0.058,-0.029,0.044,0.0,-0.044,-0.019,-0.13,-0.116,-0.12,-0.115,-0.11
-0.031,-0.054,-0.023,0.043,-0.003,-0.038,-0.023,-0.126,-0.109,-0.12,-0.115,-0.106
-0.041,-0.057,-0.016,0.049,-0.013,-0.036,-0.031,-0.125,-0.106,-0.119,-0.115,-0.101
-0.036,-0.058,-0.023,0.048,-0.006,-0.04,-0.03,-0.124,-0.101,-0.111,-0.115,-0.096
-0.015,-0.069,-0.054,0.042,0.02,-0.061,-0.03,-0.126,-0.096,-0.104,-0.108,-0.092
0.006,-0.064,-0.07,0.029,0.039,-0.067,-0.029,-0.121,-0.092,-0.097,-0.097,-0.088
-0.001,-0.034,-0.033,0.017,0.016,-0.033,0.006,-0.086,-0.086,-0.09,-0.088,-0.083
-0.027,-0.03,-0.003,0.029,-0.012,-0.016,0.036,-0.053,-0.081,-0.081,-0.084,-0.08
-0.026,-0.03,-0.005,0.029,-0.011,-0.017,0.043,-0.049,-0.076,-0.077,-0.086,-0.076
-0.015,-0.026,-0.011,0.021,-0.002,-0.018,0.046,-0.039,-0.079,-0.08,-0.089,-0.073
0.023,-0.016,-0.039,-0.003,0.031,-0.027,0.026,-0.039,-0.083,-0.08,-0.092,-0.069
0.059,-0.013,-0.071,-0.023,0.065,-0.042,-0.017,-0.093,-0.082,-0.085,-0.095,-0.064
0.041,-0.032,-0.073,-0.004,0.057,-0.052,-0.066,-0.129,-0.097,-0.085,-0.097,-0.076
0.017,-0.045,-0.063,0.014,0.04,-0.054,-0.075,-0.132,-0.109,-0.089,-0.1,-0.085
-0.009,-0.061,-0.052,0.035,0.021,-0.056,-0.066,-0.15,-0.125,-0.103,-0.103,-0.098
-0.056,-0.093,-0.037,0.075,-0.009,-0.065,-0.063,-0.153,-0.14,-0.114,-0.12,-0.122
-0.063,-0.117,-0.054,0.09,-0.004,-0.086,-0.056,-0.155,-0.152,-0.129,-0.136,-0.128
-0.062,-0.12,-0.059,0.091,-0.002,-0.089,-0.052,-0.149,-0.158,-0.134,-0.134,-0.129
-0.081,-0.126,-0.044,0.104,-0.018,-0.085,-0.046,-0.15,-0.156,-0.137,-0.136,-0.134
-0.082,-0.124,-0.042,0.103,-0.02,-0.082,-0.044,-0.15,-0.147,-0.133,-0.133,-0.134
-0.083,-0.134,-0.051,0.109,-0.017,-0.092,-0.038,-0.14,-0.144,-0.137,-0.137,-0.141
-0.084,-0.124,-0.041,0.104,-0.021,-0.082,-0.038,-0.152,-0.138,-0.133,-0.132,-0.138
-0.069,-0.128,-0.059,0.099,-0.004,-0.093,-0.029,-0.137,-0.129,-0.131,-0.131,-0.134
-0.077,-0.118,-0.041,0.098,-0.018,-0.08,-0.031,-0.155,-0.13,-0.122,-0.122,-0.122
-0.067,-0.102,-0.035,0.085,-0.016,-0.068,-0.018,-0.131,-0.105,-0.109,-0.119,-0.116
-0.097,-0.053,0.044,0.075,-0.07,-0.005,0.008,-0.101,-0.111,-0.107,-0.105,-0.102
-0.084,-0.006,0.078,0.044,-0.08,0.035,0.137,0.231,0.109,0.049,-0.001,-0.048
0.123,-0.022,-0.145,-0.05,0.134,-0.083,0.201,0.438,0.416,0.294,0.173,0.062
0.537,0.306,-0.231,-0.421,0.384,0.037,-0.458,-0.228,0.82,0.819,0.674,0.473
1.02,0.442,-0.578,-0.731,0.799,-0.068,-1.281,-0.679,1.1,1.206,1.103,0.865
0.816,0.099,-0.717,-0.457,0.767,-0.309,-1.329,-1.068,0.303,0.662,0.8,0.734
0.259,-0.129,-0.388,-0.065,0.324,-0.259,-0.909,-1.287,-0.48,-0.02,0.242,0.342
0.105,-0.188,-0.294,0.042,0.2,-0.241,-0.461,-0.684,-0.407,-0.17,-0.031,0.066
0.0,-0.161,-0.161,0.081,0.081,-0.161,-0.129,-0.247,-0.216,-0.133,-0.091,-0.023
-0.068,-0.154,-0.086,0.111,0.009,-0.12,0.031,-0.049,-0.12,-0.101,-0.097,-0.065
-0.068,-0.142,-0.074,0.105,0.003,-0.107,0.083,0.039,-0.097,-0.09,-0.094,-0.09
-0.048,-0.103,-0.055,0.076,0.004,-0.079,0.118,0.066,-0.066,-0.094,-0.096,-0.076
0.072,0.006,-0.066,-0.039,0.069,-0.03,0.164,0.15,-0.027,-0.064,-0.065,-0.057
0.128,0.079,-0.05,-0.103,0.089,0.014,0.196,0.182,0.005,-0.034,-0.033,-0.053
0.099,0.043,-0.056,-0.071,0.077,-0.006,0.196,0.215,0.019,-0.037,-0.04,-0.056
0.062,0.016,-0.046,-0.039,0.053,-0.014,0.194,0.231,0.022,-0.042,-0.045,-0.059
-0.009,-0.055,-0.046,0.033,0.019,-0.05,0.197,0.252,0.034,-0.044,-0.058,-0.069
-0.065,-0.11,-0.045,0.088,-0.01,-0.077,0.193,0.278,0.027,-0.039,-0.058,-0.082
-0.058,-0.1,-0.043,0.079,-0.008,-0.071,0.199,0.325,0.043,-0.026,-0.047,-0.082
-0.053,-0.093,-0.04,0.073,-0.006,-0.066,0.208,0.39,0.075,-0.019,-0.041,-0.074
-0.043,-0.083,-0.04,0.063,-0.001,-0.061,0.247,0.484,0.119,-0.002,-0.032,-0.067
-0.023,-0.06,-0.037,0.042,0.007,-0.048,0.302,0.603,0.183,0.032,-0.023,-0.061
-0.009,-0.037,-0.028,0.024,0.01,-0.033,0.345,0.724,0.236,0.064,-0.003,-0.042
0.006,-0.018,-0.024,0.007,0.015,-0.021,0.398,0.841,0.306,0.116,0.035,-0.017
-0.002,0.005,0.007,-0.001,-0.005,0.006,0.438,0.94,0.38,0.165,0.07,0.0
0.022,0.047,0.025,-0.035,-0.002,0.036,0.462,1.016,0.442,0.213,0.104,0.03
0.069,0.097,0.028,-0.084,0.02,0.062,0.463,1.035,0.502,0.264,0.143,0.062
0.09,0.134,0.044,-0.112,0.023,0.089,0.449,1.015,0.507,0.288,0.181,0.087
0.117,0.153,0.036,-0.136,0.04,0.095,0.426,0.944,0.494,0.284,0.193,0.112
0.115,0.142,0.027,-0.129,0.044,0.084,0.354,0.804,0.476,0.272,0.184,0.117
0.111,0.131,0.02,-0.121,0.045,0.075,0.261,0.632,0.417,0.264,0.184,0.108
0.112,0.118,0.006,-0.115,0.053,0.062,0.182,0.453,0.325,0.219,0.17,0.098
0.08,0.078,-0.002,-0.079,0.041,0.038,0.121,0.3,0.227,0.152,0.127,0.073
0.062,0.035,-0.027,-0.049,0.045,0.004,0.088,0.179,0.142,0.092,0.077,0.04
0.045,0.004,-0.042,-0.024,0.043,-0.019,0.072,0.099,0.066,0.039,0.03,0.01
0.033,-0.007,-0.04,-0.013,0.037,-0.024,0.059,0.047,0.02,0.002,-0.011,-0.01
0.017,-0.022,-0.039,0.002,0.028,-0.03,0.052,-0.008,-0.013,-0.028,-0.034,-0.02
-0.008,-0.051,-0.043,0.03,0.017,-0.047,0.041,-0.032,-0.035,-0.042,-0.04,-0.032
-0.013,-0.077,-0.064,0.046,0.025,-0.07,0.037,-0.038,-0.045,-0.054,-0.048,-0.043
-0.025,-0.087,-0.062,0.056,0.019,-0.074,0.04,-0.043,-0.053,-0.063,-0.053,-0.052
-0.026,-0.081,-0.055,0.054,0.015,-0.068,0.04,-0.04,-0.049,-0.058,-0.051,-0.052
-0.024,-0.077,-0.053,0.051,0.015,-0.065,0.04,-0.04,-0.046,-0.055,-0.046,-0.048
-0.026,-0.073,-0.047,0.049,0.011,-0.059,0.04,-0.04,-0.043,-0.052,-0.044,-0.046
-0.024,-0.068,-0.044,0.047,0.01,-0.056,0.04,-0.04,-0.039,-0.047,-0.04,-0.042
-0.027,-0.065,-0.037,0.046,0.006,-0.051,0.036,-0.041,-0.035,-0.045,-0.035,-0.04
-0.028,-0.06,-0.033,0.044,0.002,-0.046,0.034,-0.044,-0.032,-0.04,-0.037,-0.037
-0.03,-0.058,-0.027,0.044,-0.001,-0.042,0.035,-0.047,-0.028,-0.04,-0.041,-0.035
-0.032,-0.054,-0.021,0.043,-0.005,-0.037,0.035,-0.05,-0.037,-0.04,-0.04,-0.035
-0.034,-0.05,-0.016,0.042,-0.009,-0.032,0.035,-0.053,-0.055,-0.041,-0.04,-0.035
-0.029,-0.047,-0.019,0.038,-0.005,-0.033,0.033,-0.055,-0.057,-0.039,-0.04,-0.035
-0.017,-0.043,-0.026,0.03,0.005,-0.034,0.03,-0.057,-0.059,-0.044,-0.04,-0.036
-0.016,-0.052,-0.035,0.034,0.01,-0.043,0.028,-0.062,-0.063,-0.058,-0.045,-0.039
-0.018,-0.066,-0.049,0.042,0.016,-0.057,0.025,-0.063,-0.065,-0.06,-0.045,-0.04
-0.013,-0.063,-0.05,0.038,0.019,-0.056,0.022,-0.072,-0.068,-0.06,-0.047,-0.04
-0.01,-0.06,-0.05,0.035,0.02,-0.055,0.02,-0.085,-0.07,-0.06,-0.051,-0.04
-0.008,-0.058,-0.05,0.033,0.021,-0.054,0.016,-0.087,-0.07,-0.06,-0.05,-0.04
-0.004,-0.055,-0.05,0.029,0.024,-0.052,0.015,-0.091,-0.07,-0.065,-0.05,-0.04
-0.008,-0.056,-0.049,0.032,0.021,-0.052,0.015,-0.095,-0.07,-0.065,-0.05,-0.04
-0.024,-0.069,-0.045,0.047,0.01,-0.056,0.015,-0.092,-0.07,-0.065,-0.05,-0.04
-0.031,-0.076,-0.045,0.054,0.008,-0.06,0.015,-0.09,-0.075,-0.065,-0.055,-0.045
-0.025,-0.07,-0.045,0.048,0.01,-0.057,0.016,-0.09,-0.075,-0.065,-0.055,-0.045
-0.023,-0.068,-0.045,0.046,0.011,-0.056,0.02,-0.09,-0.076,-0.065,-0.055,-0.046
-0.018,-0.063,-0.045,0.041,0.014,-0.054,0.02,-0.09,-0.08,-0.065,-0.055,-0.05
-0.015,-0.06,-0.045,0.038,0.015,-0.052,0.022,-0.09,-0.08,-0.065,-0.055,-0.05
-0.018,-0.063,-0.045,0.041,0.014,-0.054,0.025,-0.097,-0.078,-0.065,-0.055,-0.05
-0.023,-0.068,-0.045,0.046,0.011,-0.056,0.025,-0.1,-0.074,-0.065,-0.055,-0.05
-0.024,-0.069,-0.045,0.047,0.01,-0.056,0.022,-0.1,-0.075,-0.069,-0.055,-0.05
-0.019,-0.065,-0.046,0.042,0.014,-0.055,0.019,-0.104,-0.075,-0.07,-0.055,-0.05
-0.02,-0.063,-0.043,0.042,0.012,-0.053,0.016,-0.106,-0.076,-0.07,-0.055,-0.05
-0.019,-0.059,-0.04,0.039,0.01,-0.05,0.013,-0.104,-0.074,-0.07,-0.055,-0.05
-0.017,-0.057,-0.04,0.037,0.012,-0.048,0.01,-0.1,-0.071,-0.07,-0.049,-0.045
-0.015,-0.055,-0.04,0.035,0.013,-0.047,0.01,-0.095,-0.068,-0.067,-0.043,-0.04
-0.011,-0.052,-0.04,0.031,0.015,-0.046,0.019,-0.092,-0.066,-0.058,-0.038,-0.037
-0.009,-0.048,-0.039,0.028,0.015,-0.044,0.02,-0.083,-0.058,-0.047,-0.032,-0.032
0.022,-0.016,-0.037,-0.003,0.029,-0.026,0.055,-0.045,-0.026,-0.036,-0.024,-0.024
0.035,0.013,-0.021,-0.024,0.028,-0.004,0.093,-0.019,-0.008,-0.023,-0.014,-0.017
0.051,0.027,-0.025,-0.039,0.038,0.001,0.099,-0.008,-0.008,-0.013,-0.007,-0.011
0.079,0.037,-0.042,-0.058,0.06,-0.002,0.097,0.014,0.0,-0.009,0.013,-0.005
0.071,0.016,-0.056,-0.043,0.063,-0.02,0.053,-0.018,-0.006,-0.005,0.025,0.003
0.075,-0.012,-0.087,-0.031,0.081,-0.049,-0.002,-0.074,-0.035,-0.016,0.01,0.002
0.062,-0.032,-0.094,-0.014,0.078,-0.063,-0.025,-0.094,-0.056,-0.029,-0.006,-0.007
0.04,-0.046,-0.085,0.003,0.063,-0.065,-0.024,-0.11,-0.076,-0.047,-0.022,-0.016
0.02,-0.055,-0.075,0.018,0.048,-0.065,-0.019,-0.123,-0.083,-0.066,-0.039,-0.022
-0.003,-0.072,-0.069,0.037,0.033,-0.07,-0.014,-0.124,-0.089,-0.079,-0.05,-0.039
-0.011,-0.069,-0.059,0.04,0.024,-0.064,-0.011,-0.122,-0.103,-0.082,-0.05,-0.047
-0.017,-0.07,-0.053,0.044,0.018,-0.061,-0.004,-0.118,-0.096,-0.079,-0.049,-0.044
-0.022,-0.068,-0.046,0.045,0.013,-0.057,-0.003,-0.122,-0.098,-0.082,-0.051,-0.046
-0.018,-0.062,-0.043,0.041,0.013,-0.052,0.002,-0.112,-0.089,-0.074,-0.049,-0.04
-0.022,-0.071,-0.049,0.047,0.014,-0.06,0.004,-0.117,-0.094,-0.078,-0.052,-0.041
-0.034,-0.073,-0.038,0.054,0.002,-0.055,0.006,-0.112,-0.084,-0.071,-0.043,-0.037
-0.024,-0.079,-0.055,0.052,0.016,-0.067,0.011,-0.108,-0.085,-0.073,-0.046,-0.037
-0.023,-0.053,-0.03,0.038,0.004,-0.041,0.009,-0.111,-0.077,-0.055,-0.038,-0.017
-0.038,-0.062,-0.024,0.05,-0.007,-0.043,0.04,-0.098,-0.074,-0.054,-0.033,-0.019
-0.08,0.041,0.12,0.019,-0.1,0.08,0.067,-0.044,-0.027,-0.01,0.017,0.014
-0.002,0.084,0.087,-0.041,-0.045,0.085,0.218,0.373,0.251,0.175,0.127,0.072
0.244,0.118,-0.127,-0.181,0.185,-0.005,0.075,0.268,0.502,0.439,0.346,0.219
0.744,0.459,-0.284,-0.601,0.514,0.087,-0.781,-0.423,0.88,0.919,0.834,0.648
1.16,0.362,-0.798,-0.76,0.979,-0.218,-1.396,-0.718,0.785,0.941,0.987,0.836
0.774,0.002,-0.772,-0.388,0.773,-0.385,-1.255,-1.177,-0.13,0.289,0.557,0.593
0.279,-0.092,-0.371,-0.093,0.326,-0.232,-0.785,-1.143,-0.512,-0.119,0.152,0.274
0.139,-0.095,-0.234,-0.022,0.187,-0.164,-0.322,-0.492,-0.305,-0.149,-0.001,0.078
0.007,-0.06,-0.067,0.027,0.037,-0.063,-0.052,-0.171,-0.147,-0.107,-0.023,0.023
-0.04,-0.075,-0.035,0.058,-0.002,-0.055,0.057,-0.017,-0.085,-0.08,-0.042,-0.031
-0.063,-0.068,-0.005,0.066,-0.029,-0.037,0.106,0.031,-0.072,-0.068,-0.048,-0.046
-0.076,-0.069,0.007,0.073,-0.041,-0.031,0.131,0.07,-0.047,-0.063,-0.042,-0.044
-0.082,-0.072,0.009,0.077,-0.045,-0.031,0.132,0.103,-0.035,-0.061,-0.038,-0.047
-0.091,-0.064,0.027,0.077,-0.059,-0.019,0.144,0.124,-0.018,-0.054,-0.033,-0.043
-0.078,-0.057,0.021,0.067,-0.05,-0.018,0.167,0.161,-0.011,-0.052,-0.029,-0.047
-0.068,-0.04,0.028,0.054,-0.048,-0.006,0.178,0.192,0.001,-0.042,-0.024,-0.042
-0.054,-0.031,0.023,0.042,-0.038,-0.004,0.189,0.243,0.024,-0.028,-0.018,-0.036
-0.039,-0.013,0.026,0.026,-0.032,0.006,0.204,0.287,0.05,-0.014,-0.007,-0.029
-0.029,-0.004,0.025,0.016,-0.027,0.01,0.231,0.354,0.087,0.011,0.002,-0.023
-0.019,0.004,0.024,0.007,-0.022,0.014,0.256,0.437,0.124,0.029,0.013,-0.015
-0.022,0.009,0.031,0.006,-0.026,0.02,0.286,0.533,0.166,0.047,0.023,-0.011
-0.036,0.014,0.05,0.011,-0.044,0.031,0.329,0.646,0.218,0.077,0.041,0.002
-0.011,0.04,0.05,-0.014,-0.031,0.044,0.377,0.768,0.279,0.112,0.064,0.019
0.008,0.056,0.048,-0.032,-0.021,0.052,0.427,0.872,0.338,0.152,0.083,0.035
0.027,0.095,0.068,-0.062,-0.02,0.082,0.466,0.971,0.411,0.2,0.123,0.06
0.08,0.155,0.076,-0.118,0.002,0.115,0.501,1.048,0.497,0.262,0.181,0.096
0.114,0.2,0.085,-0.157,0.014,0.142,0.511,1.067,0.544,0.313,0.226,0.141
0.143,0.237,0.094,-0.19,0.024,0.165,0.477,1.04,0.554,0.332,0.252,0.168
0.153,0.235,0.082,-0.194,0.035,0.158,0.43,0.95,0.53,0.318,0.256,0.174
0.147,0.219,0.073,-0.183,0.037,0.146,0.361,0.801,0.48,0.311,0.245,0.169
0.142,0.205,0.063,-0.174,0.04,0.133,0.264,0.623,0.414,0.296,0.232,0.163
0.122,0.174,0.052,-0.149,0.035,0.113,0.18,0.441,0.316,0.236,0.203,0.153
0.093,0.136,0.043,-0.115,0.025,0.089,0.128,0.287,0.217,0.172,0.155,0.122
0.062,0.094,0.032,-0.079,0.015,0.063,0.094,0.163,0.14,0.106,0.103,0.084
0.031,0.056,0.025,-0.044,0.003,0.04,0.067,0.082,0.076,0.049,0.058,0.052
0.007,0.027,0.02,-0.017,-0.006,0.023,0.059,0.034,0.026,0.018,0.035,0.033
-0.007,0.009,0.016,-0.001,-0.012,0.012,0.057,-0.001,-0.007,-0.003,0.024,0.024
-0.01,0.001,0.011,0.004,-0.011,0.006,0.053,-0.016,-0.02,-0.011,0.012,0.019
-0.01,-0.004,0.007,0.007,-0.008,0.001,0.05,-0.028,-0.027,-0.016,0.006,0.014
-0.011,-0.009,0.002,0.009,-0.006,-0.003,0.046,-0.037,-0.035,-0.02,0.001,0.008
-0.016,-0.016,0.0,0.016,-0.007,-0.008,0.044,-0.035,-0.043,-0.025,-0.004,0.002
-0.019,-0.019,0.0,0.019,-0.009,-0.009,0.041,-0.035,-0.042,-0.03,-0.011,0.0
-0.015,-0.015,0.0,0.015,-0.007,-0.007,0.038,-0.035,-0.04,-0.026,-0.014,0.0
-0.008,-0.008,0.0,0.008,-0.004,-0.004,0.034,-0.035,-0.04,-0.025,-0.011,0.0
-0.003,-0.003,0.0,0.003,-0.001,-0.001,0.036,-0.035,-0.035,-0.025,-0.008,0.0
-0.007,0.002,0.009,0.002,-0.008,0.005,0.04,-0.031,-0.035,-0.025,-0.006,0.0
-0.012,0.01,0.022,0.001,-0.017,0.016,0.042,-0.03,-0.035,-0.025,-0.002,0.0
-0.014,0.019,0.033,-0.003,-0.023,0.026,0.045,-0.027,-0.035,-0.025,0.0,0.006
0.023,0.058,0.035,-0.041,-0.006,0.047,0.041,-0.023,-0.035,-0.025,0.003,0.016
0.028,0.063,0.035,-0.046,-0.004,0.049,0.037,-0.034,-0.035,-0.025,0.005,0.018
-0.017,0.023,0.04,-0.003,-0.029,0.031,0.034,-0.051,-0.035,-0.025,0.0,0.013
-0.021,0.02,0.04,0.0,-0.03,0.03,0.03,-0.059,-0.035,-0.025,-0.004,0.01
-0.019,0.021,0.04,-0.001,-0.029,0.03,0.027,-0.062,-0.035,-0.025,-0.006,0.007
-0.025,0.015,0.04,0.005,-0.033,0.027,0.023,-0.067,-0.036,-0.03,-0.011,0.002
-0.024,0.016,0.039,0.004,-0.032,0.027,0.02,-0.072,-0.045,-0.04,-0.014,-0.001
-0.029,0.014,0.042,0.007,-0.036,0.028,0.017,-0.083,-0.055,-0.046,-0.018,-0.004
-0.034,0.011,0.045,0.011,-0.04,0.028,0.015,-0.093,-0.06,-0.049,-0.02,-0.005
-0.037,0.008,0.045,0.014,-0.041,0.026,0.011,-0.099,-0.06,-0.054,-0.02,-0.005
-0.04,0.006,0.045,0.017,-0.043,0.026,0.01,-0.106,-0.06,-0.055,-0.024,-0.005
-0.042,0.002,0.045,0.019,-0.044,0.023,0.007,-0.112,-0.063,-0.055,-0.025,-0.004
-0.046,-0.001,0.046,0.023,-0.046,0.022,0.004,-0.115,-0.068,-0.06,-0.025,-0.008
-0.047,0.003,0.049,0.022,-0.049,0.026,0.005,-0.115,-0.071,-0.06,-0.03,-0.01
-0.045,0.005,0.05,0.02,-0.048,0.027,0.005,-0.117,-0.075,-0.06,-0.03,-0.01
-0.045,0.005,0.05,0.02,-0.048,0.027,0.005,-0.121,-0.078,-0.06,-0.031,-0.013
-0.045,0.005,0.05,0.02,-0.048,0.027,0.004,-0.12,-0.082,-0.06,-0.036,-0.016
-0.046,0.005,0.05,0.021,-0.049,0.027,0.0,-0.12,-0.085,-0.06,-0.034,-0.014
-0.042,0.006,0.047,0.018,-0.045,0.026,0.0,-0.12,-0.085,-0.06,-0.038,-0.011
-0.036,0.009,0.045,0.013,-0.04,0.026,0.0,-0.12,-0.085,-0.06,-0.04,-0.008
-0.029,0.013,0.042,0.008,-0.036,0.027,0.0,-0.12,-0.085,-0.056,-0.04,-0.006
-0.024,0.015,0.039,0.004,-0.032,0.027,0.0,-0.12,-0.085,-0.055,-0.044,-0.002
-0.016,0.02,0.036,-0.002,-0.026,0.027,-0.004,-0.119,-0.085,-0.055,-0.045,0.0
-0.014,0.02,0.034,-0.004,-0.024,0.027,-0.014,-0.111,-0.084,-0.055,-0.045,0.002
-0.028,0.019,0.048,0.004,-0.038,0.033,-0.019,-0.103,-0.076,-0.055,-0.038,0.009
-0.026,0.021,0.047,0.002,-0.036,0.034,-0.005,-0.094,-0.069,-0.054,-0.027,0.016
-0.023,0.017,0.04,0.003,-0.032,0.029,0.008,-0.088,-0.063,-0.045,-0.017,0.022
-0.013,0.052,0.065,-0.02,-0.039,0.058,0.03,-0.075,-0.053,-0.035,-0.008,0.03
-0.001,0.084,0.085,-0.042,-0.043,0.084,0.067,-0.051,-0.038,-0.027,0.0,0.034
0.008,0.085,0.077,-0.047,-0.035,0.081,0.08,-0.041,-0.026,-0.02,0.003,0.043
0.042,0.099,0.057,-0.071,-0.007,0.078,0.073,-0.027,-0.01,-0.021,0.018,0.047
0.055,0.096,0.041,-0.076,0.006,0.068,0.033,-0.044,-0.015,-0.019,0.027,0.039
0.06,0.068,0.008,-0.064,0.026,0.038,-0.033,-0.093,-0.043,-0.026,0.009,0.032
0.055,0.035,-0.02,-0.045,0.037,0.007,-0.054,-0.116,-0.061,-0.037,-0.005,0.026
0.017,0.012,-0.005,-0.014,0.01,0.004,-0.047,-0.139,-0.082,-0.048,-0.028,0.019
-0.021,-0.001,0.02,0.01,-0.02,0.009,-0.047,-0.152,-0.095,-0.066,-0.041,0.013
-0.047,-0.016,0.03,0.031,-0.038,0.007,-0.042,-0.148,-0.104,-0.078,-0.047,0.006
-0.05,-0.013,0.038,0.031,-0.044,0.012,-0.042,-0.153,-0.114,-0.086,-0.06,0.002
-0.04,-0.006,0.033,0.023,-0.036,0.013,-0.037,-0.147,-0.113,-0.087,-0.059,-0.004
-0.033,0.001,0.035,0.015,-0.034,0.018,-0.036,-0.153,-0.118,-0.086,-0.057,-0.01
-0.041,0.005,0.046,0.018,-0.043,0.025,-0.03,-0.144,-0.111,-0.083,-0.052,-0.014
-0.06,-0.012,0.049,0.036,-0.054,0.018,-0.028,-0.143,-0.119,-0.085,-0.052,-0.016
-0.059,-0.004,0.055,0.032,-0.057,0.025,-0.024,-0.141,-0.111,-0.075,-0.05,-0.017
-0.072,-0.03,0.042,0.051,-0.057,0.006,-0.018,-0.131,-0.118,-0.086,-0.063,-0.035
-0.069,-0.01,0.059,0.04,-0.064,0.025,-0.021,-0.14,-0.104,-0.065,-0.046,-0.015
-0.033,0.005,0.038,0.014,-0.036,0.021,0.006,-0.118,-0.099,-0.065,-0.04,-0.006
-0.091,0.081,0.172,0.004,-0.132,0.126,0.03,-0.085,-0.058,-0.025,0.0,0.036
-0.023,0.115,0.138,-0.046,-0.081,0.127,0.192,0.331,0.218,0.156,0.115,0.092
0.233,0.138,-0.094,-0.185,0.163,0.022,0.072,0.308,0.449,0.395,0.308,0.226
0.744,0.473,-0.272,-0.609,0.508,0.1,-0.766,-0.376,0.804,0.85,0.783,0.646
1.216,0.407,-0.808,-0.811,1.012,-0.2,-1.414,-0.725,0.702,0.874,0.938,0.832
0.816,0.058,-0.758,-0.437,0.787,-0.35,-1.283,-1.216,-0.174,0.253,0.516,0.594
0.254,-0.047,-0.301,-0.103,0.277,-0.174,-0.809,-1.183,-0.523,-0.127,0.136,0.296
0.108,-0.058,-0.166,-0.024,0.137,-0.112,-0.363,-0.534,-0.339,-0.157,-0.022,0.097
-0.021,-0.021,-0.001,0.021,-0.01,-0.011,-0.082,-0.208,-0.175,-0.121,-0.047,0.034
-0.081,-0.033,0.048,0.057,-0.065,0.008,0.035,-0.041,-0.095,-0.09,-0.057,-0.006
-0.091,-0.024,0.067,0.057,-0.079,0.022,0.081,0.0,-0.086,-0.078,-0.059,-0.017
-0.088,-0.022,0.067,0.054,-0.077,0.022,0.093,0.043,-0.068,-0.074,-0.062,-0.022
-0.083,-0.022,0.061,0.052,-0.072,0.019,0.105,0.065,-0.067,-0.07,-0.067,-0.034
-0.086,-0.016,0.069,0.051,-0.078,0.026,0.118,0.086,-0.054,-0.064,-0.058,-0.037
-0.092,-0.031,0.061,0.061,-0.076,0.015,0.129,0.128,-0.039,-0.061,-0.054,-0.034
-0.099,-0.034,0.065,0.067,-0.081,0.015,0.144,0.155,-0.012,-0.054,-0.045,-0.023
-0.09,-0.033,0.057,0.061,-0.073,0.012,0.152,0.209,0.007,-0.041,-0.04,-0.016
-0.084,-0.027,0.057,0.055,-0.07,0.015,0.171,0.251,0.028,-0.03,-0.032,-0.006
-0.08,-0.027,0.053,0.053,-0.066,0.013,0.184,0.312,0.058,-0.013,-0.024,-0.002
-0.063,-0.014,0.05,0.039,-0.056,0.018,0.207,0.385,0.084,0.011,-0.016,0.005
-0.043,0.008,0.05,0.017,-0.047,0.029,0.249,0.488,0.137,0.039,0.002,0.01
-0.042,0.026,0.068,0.007,-0.055,0.047,0.283,0.598,0.186,0.061,0.021,0.015
-0.025,0.046,0.07,-0.01,-0.048,0.058,0.33,0.715,0.246,0.098,0.048,0.032
-0.008,0.066,0.074,-0.029,-0.041,0.07,0.382,0.837,0.324,0.151,0.083,0.059
0.003,0.104,0.101,-0.054,-0.049,0.102,0.425,0.936,0.388,0.193,0.12,0.081
0.033,0.153,0.12,-0.093,-0.044,0.136,0.443,1.01,0.455,0.243,0.155,0.097
0.074,0.193,0.12,-0.134,-0.023,0.156,0.438,1.028,0.513,0.295,0.201,0.14
0.109,0.224,0.116,-0.167,-0.004,0.17,0.431,1.006,0.536,0.319,0.232,0.173
0.115,0.229,0.113,-0.172,0.001,0.171,0.385,0.924,0.514,0.326,0.225,0.182
0.113,0.223,0.11,-0.168,0.001,0.166,0.312,0.777,0.461,0.306,0.214,0.19
0.112,0.221,0.109,-0.167,0.002,0.165,0.223,0.601,0.394,0.265,0.207,0.179
0.088,0.185,0.097,-0.137,-0.005,0.141,0.142,0.409,0.303,0.215,0.181,0.151
0.037,0.123,0.086,-0.08,-0.025,0.104,0.093,0.252,0.202,0.146,0.13,0.117
0.009,0.077,0.068,-0.043,-0.029,0.072,0.05,0.128,0.115,0.085,0.08,0.079
0.003,0.048,0.045,-0.026,-0.021,0.046,0.019,0.052,0.053,0.036,0.034,0.044
-0.013,0.032,0.044,-0.01,-0.029,0.038,0.008,0.009,0.006,0.007,-0.002,0.027
-0.022,0.023,0.046,-0.001,-0.034,0.034,0.006,-0.033,-0.035,-0.015,-0.015,0.016
-0.027,0.014,0.041,0.006,-0.034,0.027,0.002,-0.057,-0.053,-0.039,-0.023,0.004
-0.034,0.006,0.04,0.014,-0.037,0.023,-0.002,-0.066,-0.06,-0.041,-0.032,-0.002
-0.045,-0.005,0.04,0.025,-0.042,0.017,-0.005,-0.068,-0.06,-0.04,-0.039,-0.009
-0.056,-0.016,0.04,0.036,-0.047,0.012,-0.009,-0.071,-0.06,-0.039,-0.04,-0.017
-0.055,-0.015,0.04,0.035,-0.047,0.012,-0.01,-0.069,-0.06,-0.045,-0.04,-0.025
-0.054,-0.015,0.04,0.035,-0.047,0.012,-0.01,-0.08,-0.06,-0.056,-0.04,-0.028
-0.069,-0.015,0.054,0.042,-0.061,0.019,-0.01,-0.087,-0.06,-0.052,-0.04,-0.025
-0.081,-0.015,0.066,0.048,-0.073,0.025,-0.01,-0.084,-0.055,-0.048,-0.04,-0.022
-0.076,-0.015,0.061,0.045,-0.068,0.023,-0.011,-0.09,-0.056,-0.046,-0.04,-0.02
-0.068,-0.01,0.058,0.039,-0.063,0.024,-0.016,-0.09,-0.053,-0.038,-0.04,-0.017
-0.065,-0.01,0.055,0.037,-0.06,0.022,-0.021,-0.091,-0.06,-0.044,-0.04,-0.014
-0.059,-0.009,0.05,0.034,-0.055,0.021,-0.026,-0.094,-0.08,-0.06,-0.04,-0.019
-0.054,-0.005,0.049,0.03,-0.051,0.022,-0.03,-0.097,-0.08,-0.061,-0.04,-0.02
-0.066,-0.005,0.061,0.035,-0.063,0.028,-0.035,-0.1,-0.08,-0.059,-0.044,-0.02
-0.073,-0.008,0.065,0.04,-0.069,0.029,-0.039,-0.103,-0.08,-0.061,-0.045,-0.024
-0.077,-0.018,0.059,0.047,-0.068,0.02,-0.04,-0.112,-0.08,-0.059,-0.046,-0.026
-0.085,-0.028,0.057,0.056,-0.071,0.015,-0.04,-0.124,-0.077,-0.063,-0.053,-0.023
-0.09,-0.038,0.052,0.063,-0.07,0.007,-0.04,-0.13,-0.076,-0.072,-0.059,-0.02
-0.096,-0.046,0.049,0.071,-0.072,0.001,-0.04,-0.13,-0.082,-0.07,-0.057,-0.02
-0.097,-0.052,0.045,0.074,-0.071,-0.003,-0.04,-0.13,-0.077,-0.063,-0.055,-0.02
-0.098,-0.059,0.039,0.079,-0.069,-0.009,-0.04,-0.13,-0.075,-0.059,-0.055,-0.02
-0.097,-0.061,0.036,0.078,-0.066,-0.012,-0.04,-0.13,-0.072,-0.053,-0.055,-0.02
-0.088,-0.057,0.031,0.072,-0.059,-0.012,-0.04,-0.128,-0.068,-0.046,-0.055,-0.024
-0.079,-0.053,0.026,0.066,-0.052,-0.013,-0.04,-0.124,-0.082,-0.052,-0.056,-0.025
-0.077,-0.05,0.027,0.063,-0.052,-0.011,-0.04,-0.126,-0.091,-0.065,-0.06,-0.025
-0.075,-0.044,0.031,0.06,-0.053,-0.006,-0.043,-0.123,-0.09,-0.065,-0.06,-0.03
-0.081,-0.048,0.033,0.064,-0.057,-0.008,-0.046,-0.136,-0.09,-0.065,-0.06,-0.03
-0.089,-0.052,0.036,0.07,-0.062,-0.008,-0.049,-0.155,-0.09,-0.065,-0.06,-0.031
-0.088,-0.05,0.039,0.069,-0.064,-0.005,-0.052,-0.155,-0.09,-0.067,-0.064,-0.035
-0.092,-0.05,0.042,0.071,-0.067,-0.004,-0.054,-0.155,-0.086,-0.071,-0.065,-0.034
-0.092,-0.046,0.045,0.068,-0.068,0.0,-0.056,-0.155,-0.085,-0.074,-0.067,-0.038
-0.091,-0.045,0.046,0.068,-0.068,0.001,-0.06,-0.155,-0.084,-0.077,-0.071,-0.04
-0.097,-0.045,0.052,0.071,-0.074,0.003,-0.06,-0.153,-0.089,-0.08,-0.069,-0.04
-0.087,-0.04,0.047,0.063,-0.066,0.003,-0.062,-0.147,-0.095,-0.078,-0.064,-0.037
-0.089,-0.033,0.056,0.061,-0.072,0.012,-0.065,-0.144,-0.087,-0.068,-0.061,-0.032
-0.086,-0.029,0.056,0.057,-0.071,0.013,-0.065,-0.139,-0.079,-0.062,-0.058,-0.03
-0.064,-0.019,0.045,0.042,-0.054,0.013,-0.054,-0.134,-0.071,-0.052,-0.053,-0.025
-0.082,-0.009,0.073,0.046,-0.078,0.032,-0.022,-0.12,-0.065,-0.047,-0.05,-0.022
-0.076,0.011,0.087,0.033,-0.082,0.049,-0.008,-0.096,-0.051,-0.037,-0.046,-0.019
-0.045,0.035,0.08,0.005,-0.063,0.057,0.01,-0.085,-0.049,-0.033,-0.047,-0.011
-0.012,0.056,0.067,-0.022,-0.04,0.061,0.02,-0.076,-0.05,-0.036,-0.05,0.001
-0.001,0.053,0.055,-0.026,-0.028,0.054,-0.039,-0.094,-0.053,-0.035,-0.05,0.007
-0.043,0.007,0.05,0.017,-0.046,0.029,-0.099,-0.133,-0.081,-0.043,-0.055,-0.004
-0.051,-0.008,0.042,0.029,-0.046,0.017,-0.115,-0.152,-0.084,-0.046,-0.054,-0.019
-0.059,-0.024,0.035,0.041,-0.047,0.006,-0.113,-0.181,-0.098,-0.071,-0.065,-0.03
-0.095,-0.065,0.03,0.08,-0.062,-0.017,-0.109,-0.195,-0.123,-0.097,-0.087,-0.046
-0.125,-0.103,0.023,0.114,-0.074,-0.04,-0.105,-0.194,-0.129,-0.103,-0.096,-0.066
-0.143,-0.116,0.028,0.129,-0.085,-0.044,-0.102,-0.202,-0.136,-0.11,-0.095,-0.072
-0.136,-0.115,0.021,0.125,-0.078,-0.047,-0.098,-0.193,-0.133,-0.107,-0.095,-0.07
-0.135,-0.115,0.02,0.125,-0.077,-0.047,-0.096,-0.196,-0.134,-0.106,-0.096,-0.068
-0.135,-0.114,0.022,0.124,-0.078,-0.046,-0.092,-0.188,-0.126,-0.103,-0.094,-0.063
-0.141,-0.118,0.023,0.13,-0.082,-0.047,-0.089,-0.189,-0.13,-0.108,-0.096,-0.064
-0.152,-0.104,0.048,0.128,-0.099,-0.028,-0.088,-0.185,-0.121,-0.101,-0.087,-0.057
-0.158,-0.102,0.056,0.129,-0.106,-0.023,-0.082,-0.18,-0.123,-0.109,-0.093,-0.061
-0.154,-0.072,0.082,0.113,-0.118,0.005,-0.087,-0.186,-0.115,-0.094,-0.081,-0.046
-0.131,-0.074,0.057,0.102,-0.093,-0.009,-0.063,-0.172,-0.117,-0.087,-0.09,-0.053
-0.165,-0.003,0.162,0.084,-0.163,0.079,-0.021,-0.098,-0.074,-0.044,-0.061,-0.035
-0.081,-0.015,0.066,0.048,-0.073,0.025,0.145,0.373,0.216,0.131,0.054,0.017
0.176,0.047,-0.128,-0.111,0.152,-0.04,0.027,0.273,0.509,0.434,0.299,0.198
0.665,0.43,-0.235,-0.547,0.449,0.098,-0.812,-0.481,0.978,1.034,0.884,0.696
0.997,0.368,-0.629,-0.682,0.813,-0.131,-1.426,-0.853,0.931,1.135,1.111,0.941
0.519,0.027,-0.492,-0.273,0.505,-0.232,-1.254,-1.333,-0.085,0.389,0.607,0.649
0.075,-0.132,-0.207,0.028,0.141,-0.169,-0.808,-1.221,-0.535,-0.117,0.115,0.261
0.011,-0.152,-0.163,0.071,0.087,-0.157,-0.405,-0.547,-0.334,-0.144,-0.064,0.056
-0.108,-0.114,-0.006,0.111,-0.051,-0.06,-0.14,-0.242,-0.197,-0.112,-0.09,-0.013
-0.15,-0.127,0.023,0.138,-0.086,-0.052,-0.028,-0.068,-0.121,-0.108,-0.102,-0.064
-0.16,-0.111,0.049,0.135,-0.104,-0.031,0.001,-0.027,-0.105,-0.103,-0.106,-0.077
-0.159,-0.113,0.046,0.135,-0.102,-0.033,0.023,0.003,-0.089,-0.098,-0.101,-0.081
-0.154,-0.107,0.048,0.131,-0.101,-0.029,0.031,0.035,-0.086,-0.094,-0.1,-0.08
-0.157,-0.101,0.056,0.129,-0.106,-0.022,0.037,0.059,-0.069,-0.089,-0.095,-0.079
-0.153,-0.1,0.052,0.126,-0.102,-0.024,0.047,0.09,-0.057,-0.082,-0.095,-0.081
-0.148,-0.093,0.056,0.12,-0.101,-0.018,0.052,0.12,-0.037,-0.068,-0.088,-0.079
-0.141,-0.094,0.047,0.118,-0.094,-0.023,0.078,0.173,-0.002,-0.057,-0.08,-0.078
-0.137,-0.085,0.052,0.111,-0.094,-0.016,0.099,0.218,0.023,-0.038,-0.072,-0.072
-0.134,-0.088,0.045,0.111,-0.089,-0.021,0.124,0.29,0.048,-0.028,-0.064,-0.069
-0.141,-0.096,0.045,0.118,-0.092,-0.026,0.153,0.367,0.078,-0.014,-0.058,-0.063
-0.134,-0.088,0.046,0.11,-0.09,-0.02,0.174,0.459,0.123,0.015,-0.051,-0.06
-0.121,-0.073,0.048,0.097,-0.084,-0.012,0.219,0.57,0.169,0.038,-0.032,-0.043
-0.102,-0.049,0.053,0.075,-0.077,0.002,0.274,0.696,0.243,0.09,0.002,-0.014
-0.068,-0.014,0.053,0.04,-0.06,0.019,0.324,0.812,0.32,0.143,0.037,0.007
-0.039,0.023,0.062,0.008,-0.051,0.042,0.36,0.908,0.385,0.185,0.073,0.038
-0.021,0.059,0.08,-0.019,-0.05,0.069,0.366,0.972,0.458,0.244,0.117,0.066
0.001,0.107,0.105,-0.054,-0.052,0.105,0.363,0.977,0.512,0.299,0.159,0.088
0.015,0.141,0.126,-0.078,-0.056,0.133,0.35,0.943,0.527,0.328,0.187,0.11
0.036,0.157,0.12,-0.097,-0.042,0.138,0.303,0.843,0.496,0.327,0.2,0.127
0.057,0.173,0.117,-0.115,-0.03,0.145,0.236,0.687,0.448,0.317,0.194,0.13
0.055,0.166,0.111,-0.111,-0.029,0.138,0.155,0.516,0.384,0.286,0.181,0.132
0.031,0.127,0.096,-0.079,-0.033,0.111,0.076,0.338,0.285,0.224,0.157,0.12
-0.022,0.062,0.084,-0.02,-0.053,0.073,0.017,0.181,0.184,0.151,0.099,0.074
-0.056,0.016,0.072,0.02,-0.064,0.044,-0.02,0.068,0.096,0.086,0.047,0.028
-0.068,-0.006,0.063,0.037,-0.066,0.028,-0.047,-0.014,0.027,0.04,0.002,-0.006
-0.09,-0.03,0.059,0.06,-0.074,0.014,-0.061,-0.065,-0.014,0.001,-0.042,-0.025
-0.111,-0.051,0.06,0.081,-0.086,0.005,-0.062,-0.086,-0.045,-0.029,-0.05,-0.036
-0.128,-0.068,0.06,0.098,-0.093,-0.004,-0.066,-0.099,-0.065,-0.038,-0.056,-0.048
-0.141,-0.081,0.06,0.111,-0.101,-0.01,-0.061,-0.106,-0.062,-0.029,-0.071,-0.055
-0.138,-0.079,0.059,0.109,-0.099,-0.01,-0.058,-0.105,-0.07,-0.039,-0.071,-0.053
-0.13,-0.074,0.056,0.102,-0.092,-0.009,-0.054,-0.101,-0.085,-0.052,-0.07,-0.049
-0.127,-0.072,0.055,0.099,-0.091,-0.008,-0.051,-0.099,-0.079,-0.044,-0.066,-0.05
-0.122,-0.067,0.055,0.094,-0.088,-0.006,-0.046,-0.095,-0.073,-0.041,-0.063,-0.046
-0.12,-0.065,0.055,0.092,-0.087,-0.005,-0.046,-0.096,-0.069,-0.037,-0.058,-0.044
-0.114,-0.06,0.054,0.087,-0.084,-0.003,-0.06,-0.11,-0.061,-0.031,-0.055,-0.045
-0.117,-0.057,0.061,0.087,-0.089,0.002,-0.065,-0.116,-0.062,-0.032,-0.055,-0.045
-0.119,-0.053,0.066,0.085,-0.092,0.006,-0.067,-0.115,-0.074,-0.035,-0.055,-0.045
-0.113,-0.048,0.065,0.08,-0.089,0.008,-0.071,-0.116,-0.076,-0.039,-0.055,-0.045
-0.109,-0.045,0.064,0.077,-0.086,0.009,-0.073,-0.114,-0.074,-0.041,-0.056,-0.044
-0.101,-0.041,0.06,0.071,-0.081,0.009,-0.076,-0.122,-0.076,-0.045,-0.064,-0.054
-0.097,-0.038,0.059,0.068,-0.078,0.01,-0.071,-0.136,-0.075,-0.045,-0.065,-0.061
-0.099,-0.033,0.066,0.066,-0.082,0.016,-0.07,-0.141,-0.076,-0.046,-0.065,-0.06
-0.12,-0.049,0.071,0.085,-0.096,0.011,-0.071,-0.139,-0.083,-0.051,-0.07,-0.058
-0.137,-0.071,0.066,0.104,-0.102,-0.002,-0.069,-0.142,-0.089,-0.049,-0.07,-0.055
-0.133,-0.069,0.063,0.101,-0.098,-0.003,-0.071,-0.153,-0.091,-0.053,-0.07,-0.055
-0.131,-0.071,0.06,0.101,-0.095,-0.006,-0.068,-0.162,-0.089,-0.055,-0.07,-0.052
-0.131,-0.076,0.055,0.103,-0.093,-0.01,-0.065,-0.165,-0.092,-0.055,-0.07,-0.049
-0.129,-0.074,0.055,0.101,-0.092,-0.01,-0.065,-0.165,-0.108,-0.059,-0.07,-0.046
-0.133,-0.078,0.055,0.105,-0.093,-0.011,-0.063,-0.165,-0.111,-0.062,-0.07,-0.044
-0.135,-0.08,0.055,0.107,-0.095,-0.012,-0.059,-0.165,-0.109,-0.065,-0.07,-0.039
-0.135,-0.08,0.055,0.107,-0.095,-0.012,-0.06,-0.165,-0.111,-0.068,-0.073,-0.043
-0.139,-0.083,0.055,0.111,-0.097,-0.014,-0.075,-0.164,-0.109,-0.07,-0.075,-0.051
-0.14,-0.086,0.054,0.112,-0.096,-0.016,-0.081,-0.17,-0.11,-0.07,-0.075,-0.05
-0.135,-0.084,0.051,0.11,-0.093,-0.016,-0.079,-0.178,-0.11,-0.07,-0.075,-0.05
-0.129,-0.081,0.048,0.104,-0.088,-0.016,-0.077,-0.175,-0.11,-0.07,-0.075,-0.05
-0.125,-0.08,0.045,0.102,-0.085,-0.017,-0.074,-0.17,-0.109,-0.07,-0.075,-0.05
-0.122,-0.079,0.042,0.1,-0.082,-0.018,-0.075,-0.168,-0.11,-0.07,-0.075,-0.049
-0.114,-0.074,0.039,0.094,-0.076,-0.017,-0.07,-0.163,-0.109,-0.07,-0.075,-0.044
-0.118,-0.076,0.043,0.097,-0.08,-0.016,-0.07,-0.16,-0.107,-0.064,-0.075,-0.041
-0.118,-0.073,0.045,0.095,-0.081,-0.014,-0.069,-0.156,-0.104,-0.059,-0.074,-0.038
-0.114,-0.069,0.045,0.091,-0.08,-0.011,-0.072,-0.153,-0.106,-0.053,-0.076,-0.033
-0.116,-0.071,0.044,0.093,-0.08,-0.013,-0.063,-0.147,-0.103,-0.048,-0.064,-0.03
-0.103,-0.046,0.058,0.074,-0.08,0.006,-0.026,-0.119,-0.074,-0.041,-0.037,-0.025
-0.093,-0.012,0.08,0.053,-0.086,0.034,0.001,-0.095,-0.057,-0.03,-0.029,-0.017
-0.098,-0.004,0.094,0.051,-0.095,0.045,0.005,-0.096,-0.061,-0.017,-0.026,-0.011
-0.084,0.002,0.086,0.041,-0.085,0.044,0.022,-0.101,-0.063,-0.01,-0.025,-0.004
-0.032,0.01,0.042,0.011,-0.037,0.026,0.009,-0.103,-0.064,-0.001,-0.025,0.0
-0.033,-0.019,0.015,0.025,-0.023,-0.002,-0.067,-0.128,-0.07,-0.005,-0.025,0.004
-0.072,-0.057,0.016,0.064,-0.044,-0.02,-0.094,-0.151,-0.073,-0.032,-0.024,0.0
-0.057,-0.06,-0.003,0.058,-0.027,-0.031,-0.087,-0.166,-0.085,-0.046,-0.028,-0.015
-0.082,-0.072,0.01,0.077,-0.046,-0.031,-0.092,-0.187,-0.104,-0.053,-0.046,-0.022
-0.138,-0.091,0.047,0.114,-0.093,-0.022,-0.088,-0.182,-0.114,-0.068,-0.067,-0.039
-0.143,-0.088,0.055,0.115,-0.099,-0.016,-0.091,-0.195,-0.133,-0.081,-0.081,-0.052
-0.139,-0.083,0.056,0.11,-0.097,-0.013,-0.087,-0.198,-0.128,-0.081,-0.081,-0.048
-0.136,-0.083,0.053,0.109,-0.094,-0.015,-0.081,-0.19,-0.131,-0.08,-0.08,-0.052
-0.132,-0.073,0.059,0.102,-0.095,-0.007,-0.077,-0.186,-0.129,-0.074,-0.074,-0.048
-0.128,-0.078,0.05,0.102,-0.088,-0.014,-0.069,-0.173,-0.13,-0.075,-0.075,-0.053
-0.135,-0.078,0.057,0.106,-0.096,-0.01,-0.067,-0.177,-0.13,-0.069,-0.068,-0.043
-0.137,-0.093,0.044,0.115,-0.09,-0.025,-0.057,-0.157,-0.117,-0.07,-0.073,-0.047
-0.128,-0.078,0.049,0.103,-0.088,-0.014,-0.055,-0.166,-0.127,-0.072,-0.075,-0.041
-0.111,-0.063,0.048,0.087,-0.079,-0.008,-0.034,-0.132,-0.102,-0.066,-0.079,-0.039
-0.147,-0.021,0.126,0.084,-0.136,0.052,-0.027,-0.145,-0.107,-0.056,-0.067,-0.04
-0.121,0.059,0.18,0.03,-0.151,0.12,0.093,0.164,0.104,0.099,0.05,0.04
0.058,0.031,-0.027,-0.044,0.042,0.002,0.168,0.416,0.401,0.315,0.205,0.126
0.43,0.334,-0.096,-0.381,0.262,0.119,-0.472,-0.251,0.762,0.798,0.659,0.499
0.974,0.493,-0.481,-0.733,0.727,0.007,-1.32,-0.702,1.048,1.185,1.088,0.896
0.841,0.123,-0.718,-0.482,0.779,-0.297,-1.424,-1.067,0.305,0.675,0.824,0.784
0.256,-0.087,-0.343,-0.084,0.299,-0.215,-1.008,-1.35,-0.489,0.009,0.289,0.419
0.063,-0.128,-0.191,0.032,0.127,-0.159,-0.543,-0.782,-0.428,-0.151,0.01,0.134
-0.053,-0.109,-0.056,0.081,0.002,-0.083,-0.201,-0.313,-0.239,-0.126,-0.058,0.031
-0.122,-0.099,0.023,0.111,-0.073,-0.038,-0.027,-0.112,-0.142,-0.099,-0.077,-0.025
-0.137,-0.095,0.041,0.116,-0.089,-0.027,0.036,-0.015,-0.106,-0.076,-0.075,-0.053
-0.153,-0.083,0.07,0.118,-0.111,-0.006,0.056,0.005,-0.085,-0.07,-0.074,-0.047
-0.145,-0.093,0.052,0.119,-0.098,-0.021,0.079,0.058,-0.07,-0.065,-0.076,-0.053
-0.169,-0.088,0.082,0.128,-0.126,-0.003,0.095,0.071,-0.06,-0.058,-0.074,-0.046
-0.152,-0.092,0.06,0.121,-0.106,-0.015,0.099,0.104,-0.041,-0.055,-0.071,-0.046
-0.139,-0.089,0.05,0.114,-0.095,-0.02,0.113,0.132,-0.031,-0.045,-0.061,-0.045
-0.138,-0.09,0.048,0.114,-0.093,-0.021,0.119,0.175,-0.006,-0.036,-0.054,-0.042
-0.127,-0.086,0.042,0.106,-0.084,-0.022,0.133,0.218,0.015,-0.022,-0.046,-0.034
-0.118,-0.077,0.042,0.098,-0.08,-0.017,0.158,0.273,0.043,-0.005,-0.039,-0.028
-0.105,-0.071,0.033,0.087,-0.069,-0.019,0.179,0.349,0.072,0.012,-0.024,-0.02
-0.102,-0.064,0.038,0.083,-0.07,-0.013,0.214,0.437,0.105,0.029,-0.006,-0.015
-0.09,-0.049,0.041,0.069,-0.065,-0.004,0.256,0.549,0.157,0.057,0.006,-0.008
-0.072,-0.028,0.044,0.049,-0.058,0.008,0.304,0.671,0.219,0.093,0.023,0.006
-0.06,0.004,0.063,0.028,-0.061,0.033,0.354,0.789,0.293,0.138,0.062,0.028
-0.028,0.049,0.077,-0.011,-0.053,0.063,0.401,0.894,0.365,0.186,0.093,0.054
-0.016,0.093,0.109,-0.039,-0.062,0.1,0.427,0.974,0.427,0.23,0.133,0.078
-0.002,0.134,0.136,-0.067,-0.069,0.135,0.423,1.006,0.49,0.285,0.183,0.112
0.046,0.172,0.127,-0.109,-0.041,0.149,0.417,0.993,0.527,0.329,0.215,0.139
0.081,0.2,0.119,-0.141,-0.019,0.159,0.397,0.931,0.521,0.329,0.245,0.168
0.084,0.195,0.111,-0.14,-0.014,0.153,0.336,0.805,0.485,0.317,0.243,0.182
0.074,0.177,0.104,-0.126,-0.015,0.14,0.248,0.63,0.421,0.302,0.226,0.171
0.064,0.156,0.092,-0.11,-0.014,0.124,0.168,0.445,0.329,0.26,0.207,0.163
0.028,0.107,0.079,-0.068,-0.026,0.093,0.099,0.275,0.22,0.193,0.151,0.132
-0.002,0.069,0.071,-0.034,-0.037,0.07,0.047,0.136,0.127,0.126,0.103,0.094
-0.024,0.038,0.062,-0.007,-0.044,0.05,0.026,0.049,0.06,0.079,0.066,0.064
-0.061,-0.007,0.054,0.034,-0.057,0.023,0.019,-0.008,0.005,0.032,0.025,0.027
-0.073,-0.025,0.048,0.049,-0.06,0.011,0.013,-0.056,-0.025,-0.003,0.005,0.006
-0.077,-0.037,0.04,0.057,-0.059,0.001,0.006,-0.079,-0.04,-0.012,-0.009,0.004
-0.09,-0.055,0.035,0.073,-0.062,-0.01,-0.001,-0.085,-0.057,-0.027,-0.02,0.001
-0.082,-0.055,0.027,0.068,-0.054,-0.014,-0.007,-0.095,-0.07,-0.037,-0.028,-0.002
-0.075,-0.055,0.021,0.065,-0.047,-0.017,-0.01,-0.096,-0.07,-0.035,-0.035,-0.005
-0.098,-0.055,0.043,0.076,-0.07,-0.006,-0.01,-0.094,-0.071,-0.035,-0.035,-0.004
-0.114,-0.055,0.059,0.084,-0.086,0.002,-0.01,-0.098,-0.074,-0.035,-0.035,0.0
-0.105,-0.053,0.052,0.078,-0.078,-0.001,-0.01,-0.1,-0.076,-0.035,-0.035,0.0
-0.107,-0.049,0.057,0.078,-0.082,0.003,-0.01,-0.1,-0.074,-0.035,-0.035,0.0
-0.1,-0.047,0.053,0.073,-0.076,0.003,-0.01,-0.104,-0.07,-0.031,-0.035,0.0
-0.085,-0.044,0.041,0.064,-0.063,-0.001,-0.01,-0.106,-0.068,-0.03,-0.031,0.0
-0.103,-0.041,0.062,0.072,-0.083,0.011,-0.01,-0.105,-0.065,-0.03,-0.03,-0.004
-0.108,-0.04,0.068,0.074,-0.088,0.013,-0.01,-0.11,-0.062,-0.03,-0.03,-0.005
-0.1,-0.045,0.055,0.072,-0.077,0.005,-0.01,-0.11,-0.059,-0.03,-0.026,-0.005
-0.097,-0.045,0.052,0.071,-0.074,0.003,-0.011,-0.114,-0.065,-0.032,-0.025,-0.01
-0.087,-0.046,0.041,0.066,-0.064,-0.002,-0.017,-0.116,-0.076,-0.035,-0.027,-0.01
-0.082,-0.046,0.036,0.063,-0.058,-0.005,-0.023,-0.117,-0.08,-0.038,-0.03,-0.011
-0.087,-0.042,0.045,0.065,-0.066,0.002,-0.028,-0.125,-0.082,-0.04,-0.033,-0.015
-0.09,-0.04,0.05,0.065,-0.07,0.005,-0.034,-0.13,-0.085,-0.044,-0.037,-0.015
-0.077,-0.036,0.041,0.056,-0.058,0.002,-0.039,-0.135,-0.089,-0.045,-0.04,-0.018
-0.075,-0.035,0.04,0.055,-0.057,0.002,-0.044,-0.139,-0.09,-0.045,-0.044,-0.02
-0.064,-0.031,0.033,0.047,-0.048,0.001,-0.045,-0.138,-0.094,-0.045,-0.046,-0.02
-0.06,-0.03,0.03,0.045,-0.045,0.0,-0.045,-0.133,-0.095,-0.045,-0.045,-0.016
-0.078,-0.024,0.054,0.051,-0.066,0.015,-0.045,-0.13,-0.095,-0.044,-0.045,-0.015
-0.086,-0.028,0.058,0.057,-0.072,0.015,-0.045,-0.146,-0.099,-0.046,-0.045,-0.015
-0.1,-0.052,0.048,0.076,-0.073,-0.002,-0.045,-0.156,-0.101,-0.054,-0.046,-0.01
-0.1,-0.056,0.043,0.078,-0.071,-0.006,-0.045,-0.158,-0.098,-0.056,-0.05,-0.01
-0.089,-0.054,0.035,0.071,-0.062,-0.009,-0.045,-0.161,-0.095,-0.06,-0.05,-0.011
-0.086,-0.056,0.03,0.071,-0.058,-0.013,-0.045,-0.158,-0.095,-0.059,-0.052,-0.015
-0.078,-0.053,0.025,0.065,-0.051,-0.014,-0.045,-0.155,-0.095,-0.055,-0.056,-0.018
-0.075,-0.05,0.025,0.062,-0.05,-0.012,-0.045,-0.155,-0.095,-0.055,-0.055,-0.022
-0.07,-0.045,0.025,0.057,-0.047,-0.01,-0.041,-0.152,-0.095,-0.055,-0.052,-0.025
-0.068,-0.043,0.025,0.055,-0.047,-0.009,-0.036,-0.149,-0.091,-0.055,-0.049,-0.022
-0.063,-0.038,0.025,0.05,-0.044,-0.006,-0.031,-0.15,-0.09,-0.055,-0.046,-0.017
-0.058,-0.034,0.023,0.046,-0.04,-0.005,-0.028,-0.146,-0.09,-0.055,-0.043,-0.015
-0.058,-0.04,0.018,0.049,-0.038,-0.01,-0.021,-0.145,-0.085,-0.055,-0.04,-0.01
-0.058,-0.042,0.017,0.05,-0.037,-0.013,-0.021,-0.143,-0.085,-0.055,-0.039,-0.007
-0.063,-0.051,0.012,0.057,-0.037,-0.019,-0.028,-0.139,-0.084,-0.055,-0.031,-0.003
-0.05,-0.041,0.009,0.046,-0.03,-0.016,-0.014,-0.138,-0.068,-0.053,-0.023,0.002
-0.051,-0.002,0.05,0.026,-0.051,0.024,0.007,-0.1,-0.053,-0.024,-0.015,0.009
-0.041,0.032,0.073,0.004,-0.057,0.052,0.038,-0.07,-0.042,0.0,-0.005,0.016
-0.008,0.047,0.054,-0.02,-0.031,0.05,0.062,-0.065,-0.031,0.0,0.004,0.02
0.01,0.06,0.05,-0.036,-0.02,0.055,0.066,-0.037,-0.037,0.005,0.023,0.041
0.028,0.058,0.031,-0.043,-0.002,0.044,0.032,-0.051,-0.036,0.005,0.024,0.055
0.044,0.026,-0.018,-0.035,0.031,0.004,-0.046,-0.111,-0.053,-0.011,0.005,0.041
0.024,-0.001,-0.026,-0.011,0.025,-0.013,-0.074,-0.143,-0.073,-0.021,-0.009,0.033
-0.024,-0.034,-0.01,0.029,-0.007,-0.022,-0.066,-0.163,-0.096,-0.047,-0.027,0.021
-0.055,-0.051,0.004,0.053,-0.03,-0.023,-0.067,-0.18,-0.122,-0.071,-0.041,0.002
-0.087,-0.068,0.02,0.077,-0.053,-0.024,-0.061,-0.183,-0.127,-0.079,-0.058,-0.011
-0.104,-0.082,0.023,0.093,-0.063,-0.03,-0.061,-0.185,-0.134,-0.09,-0.07,-0.015
-0.095,-0.077,0.018,0.086,-0.056,-0.03,-0.057,-0.177,-0.129,-0.089,-0.066,-0.019
-0.088,-0.074,0.015,0.08,-0.051,-0.029,-0.052,-0.18,-0.131,-0.092,-0.066,-0.025
-0.08,-0.065,0.015,0.072,-0.047,-0.024,-0.046,-0.171,-0.122,-0.087,-0.062,-0.027
-0.069,-0.065,0.004,0.067,-0.037,-0.03,-0.041,-0.172,-0.126,-0.093,-0.069,-0.031
-0.071,-0.05,0.021,0.061,-0.046,-0.014,-0.036,-0.17,-0.117,-0.084,-0.06,-0.017
-0.083,-0.065,0.018,0.074,-0.05,-0.024,-0.028,-0.161,-0.119,-0.086,-0.07,-0.019
-0.069,-0.038,0.031,0.054,-0.05,-0.003,-0.028,-0.158,-0.115,-0.076,-0.052,-0.003
-0.072,-0.047,0.025,0.06,-0.049,-0.011,0.001,-0.135,-0.104,-0.075,-0.056,-0.004
-0.127,0.013,0.141,0.057,-0.134,0.077,0.026,-0.117,-0.08,-0.035,-0.036,0.007
-0.047,0.081,0.128,-0.018,-0.088,0.105,0.175,0.278,0.185,0.144,0.094,0.07
0.177,0.096,-0.081,-0.137,0.129,0.007,0.074,0.264,0.43,0.374,0.284,0.208
0.66,0.428,-0.231,-0.544,0.445,0.098,-0.736,-0.421,0.788,0.856,0.764,0.619
1.15,0.394,-0.756,-0.771,0.953,-0.181,-1.407,-0.751,0.752,0.941,0.964,0.839
0.805,0.025,-0.78,-0.415,0.793,-0.378,-1.303,-1.189,-0.132,0.3,0.554,0.615
0.26,-0.076,-0.336,-0.092,0.299,-0.206,-0.837,-1.214,-0.542,-0.123,0.148,0.304
0.107,-0.088,-0.195,-0.009,0.151,-0.141,-0.384,-0.589,-0.354,-0.16,-0.018,0.093
-0.025,-0.058,-0.032,0.042,0.004,-0.045,-0.093,-0.247,-0.202,-0.121,-0.047,0.028
-0.079,-0.061,0.017,0.07,-0.048,-0.021,0.019,-0.085,-0.126,-0.113,-0.067,-0.015
-0.105,-0.054,0.051,0.079,-0.077,-0.001,0.071,-0.032,-0.111,-0.108,-0.069,-0.039
-0.114,-0.046,0.068,0.08,-0.091,0.01,0.102,-0.002,-0.087,-0.096,-0.07,-0.04
-0.094,-0.044,0.05,0.069,-0.072,0.003,0.103,0.033,-0.081,-0.093,-0.069,-0.041
-0.094,-0.04,0.054,0.067,-0.074,0.007,0.117,0.058,-0.063,-0.076,-0.063,-0.036
-0.091,-0.055,0.037,0.073,-0.064,-0.009,0.134,0.105,-0.039,-0.063,-0.063,-0.035
-0.083,-0.046,0.036,0.064,-0.059,-0.005,0.146,0.139,-0.017,-0.052,-0.058,-0.035
-0.071,-0.039,0.033,0.055,-0.052,-0.003,0.155,0.176,-0.001,-0.043,-0.058,-0.032
-0.067,-0.026,0.042,0.047,-0.054,0.008,0.178,0.22,0.016,-0.032,-0.053,-0.024
-0.066,-0.014,0.052,0.04,-0.059,0.018,0.202,0.293,0.051,-0.019,-0.039,-0.018
-0.058,-0.002,0.056,0.03,-0.056,0.026,0.214,0.366,0.083,0.002,-0.018,-0.011
-0.055,0.0,0.055,0.027,-0.055,0.028,0.248,0.459,0.126,0.025,-0.005,-0.005
-0.04,0.013,0.054,0.013,-0.048,0.033,0.298,0.58,0.186,0.056,0.018,0.002
-0.014,0.048,0.062,-0.017,-0.039,0.055,0.344,0.7,0.248,0.097,0.04,0.012
-0.012,0.068,0.079,-0.028,-0.046,0.073,0.392,0.811,0.309,0.138,0.066,0.03
0.004,0.096,0.092,-0.05,-0.045,0.094,0.435,0.914,0.38,0.184,0.103,0.057
0.034,0.139,0.105,-0.087,-0.035,0.122,0.452,0.983,0.445,0.233,0.137,0.089
0.082,0.192,0.11,-0.137,-0.014,0.151,0.446,1.005,0.487,0.271,0.177,0.116
0.114,0.22,0.106,-0.167,0.003,0.163,0.44,0.981,0.491,0.296,0.21,0.141
0.11,0.212,0.102,-0.161,0.004,0.156,0.413,0.896,0.475,0.307,0.217,0.16
0.12,0.217,0.097,-0.169,0.011,0.157,0.345,0.765,0.456,0.293,0.211,0.154
0.129,0.222,0.093,-0.176,0.018,0.157,0.26,0.594,0.393,0.254,0.205,0.141
0.104,0.192,0.088,-0.148,0.007,0.139,0.184,0.414,0.295,0.206,0.178,0.129
0.066,0.144,0.078,-0.106,-0.006,0.111,0.132,0.257,0.195,0.146,0.13,0.106
0.039,0.106,0.066,-0.072,-0.014,0.086,0.094,0.131,0.113,0.083,0.08,0.077
0.01,0.065,0.055,-0.037,-0.022,0.059,0.068,0.054,0.054,0.04,0.041,0.048
-0.016,0.03,0.046,-0.008,-0.031,0.038,0.054,-0.002,0.001,0.007,0.01,0.019
-0.036,0.009,0.044,0.013,-0.04,0.026,0.042,-0.038,-0.027,-0.02,-0.017,0.001
-0.045,0.001,0.046,0.022,-0.045,0.023,0.035,-0.06,-0.044,-0.036,-0.027,-0.003
-0.037,0.007,0.044,0.014,-0.041,0.026,0.035,-0.074,-0.053,-0.047,-0.032,-0.006
-0.031,0.015,0.046,0.008,-0.039,0.031,0.034,-0.075,-0.05,-0.046,-0.034,-0.01
-0.036,0.015,0.05,0.01,-0.043,0.032,0.03,-0.075,-0.05,-0.045,-0.031,-0.013
-0.034,0.015,0.049,0.009,-0.042,0.032,0.03,-0.075,-0.05,-0.045,-0.028,-0.017
-0.038,0.015,0.053,0.011,-0.046,0.034,0.027,-0.075,-0.05,-0.045,-0.025,-0.02
-0.039,0.015,0.054,0.012,-0.047,0.035,0.024,-0.075,-0.05,-0.045,-0.023,-0.023
-0.032,0.025,0.057,0.003,-0.045,0.041,0.025,-0.077,-0.05,-0.045,-0.018,-0.025
-0.02,0.026,0.046,-0.004,-0.033,0.036,0.025,-0.08,-0.05,-0.045,-0.031,-0.029
-0.021,0.025,0.045,-0.002,-0.034,0.035,0.025,-0.083,-0.05,-0.045,-0.047,-0.03
-0.042,0.024,0.066,0.009,-0.054,0.045,0.024,-0.086,-0.05,-0.045,-0.044,-0.033
-0.046,0.019,0.065,0.013,-0.055,0.042,0.021,-0.089,-0.051,-0.045,-0.045,-0.036
-0.044,0.02,0.064,0.011,-0.054,0.042,0.018,-0.09,-0.048,-0.046,-0.045,-0.035
-0.048,0.018,0.066,0.015,-0.057,0.041,0.015,-0.094,-0.061,-0.049,-0.045,-0.035
-0.05,0.014,0.065,0.018,-0.058,0.039,0.012,-0.101,-0.077,-0.052,-0.049,-0.035
-0.048,0.016,0.063,0.016,-0.056,0.039,0.01,-0.106,-0.074,-0.055,-0.05,-0.036
-0.044,0.014,0.059,0.015,-0.052,0.036,0.008,-0.113,-0.075,-0.057,-0.05,-0.04
-0.042,0.015,0.057,0.013,-0.05,0.036,0.005,-0.119,-0.075,-0.064,-0.05,-0.039
-0.039,0.015,0.054,0.012,-0.047,0.034,0.005,-0.12,-0.075,-0.07,-0.05,-0.046
-0.043,0.008,0.051,0.017,-0.047,0.029,0.005,-0.12,-0.079,-0.07,-0.051,-0.051
-0.048,0.001,0.049,0.024,-0.049,0.025,0.005,-0.121,-0.08,-0.07,-0.055,-0.049
-0.052,-0.006,0.046,0.029,-0.049,0.02,0.005,-0.129,-0.08,-0.07,-0.055,-0.054
-0.056,-0.013,0.043,0.034,-0.05,0.015,0.0,-0.13,-0.08,-0.07,-0.057,-0.055
-0.063,-0.023,0.04,0.043,-0.051,0.009,0.0,-0.13,-0.08,-0.067,-0.06,-0.055
-0.058,-0.02,0.038,0.039,-0.047,0.008,0.0,-0.135,-0.081,-0.065,-0.06,-0.06
-0.059,-0.025,0.034,0.042,-0.046,0.004,0.0,-0.134,-0.085,-0.065,-0.06,-0.06
-0.073,-0.036,0.038,0.054,-0.055,0.001,0.001,-0.136,-0.085,-0.065,-0.06,-0.063
-0.072,-0.028,0.044,0.05,-0.057,0.007,-0.003,-0.14,-0.085,-0.065,-0.06,-0.065
-0.064,-0.024,0.041,0.044,-0.052,0.008,-0.005,-0.14,-0.085,-0.066,-0.06,-0.065
-0.058,-0.018,0.04,0.038,-0.048,0.01,-0.005,-0.14,-0.089,-0.07,-0.06,-0.065
-0.052,-0.012,0.04,0.032,-0.046,0.014,-0.005,-0.14,-0.09,-0.07,-0.06,-0.065
-0.051,-0.012,0.039,0.032,-0.045,0.014,-0.005,-0.143,-0.09,-0.07,-0.06,-0.065
-0.061,-0.02,0.041,0.04,-0.05,0.01,-0.005,-0.145,-0.095,-0.07,-0.06,-0.065
-0.061,-0.024,0.037,0.042,-0.049,0.006,-0.005,-0.145,-0.095,-0.07,-0.06,-0.064
-0.06,-0.027,0.033,0.043,-0.046,0.003,-0.005,-0.145,-0.094,-0.069,-0.06,-0.061
-0.061,-0.035,0.027,0.048,-0.044,-0.004,-0.005,-0.145,-0.088,-0.063,-0.06,-0.058
-0.055,-0.031,0.024,0.042,-0.039,-0.003,-0.005,-0.144,-0.081,-0.06,-0.056,-0.055
-0.042,-0.024,0.018,0.033,-0.03,-0.002,-0.005,-0.147,-0.074,-0.055,-0.049,-0.052
-0.032,-0.017,0.014,0.024,-0.023,-0.001,0.0,-0.13,-0.068,-0.051,-0.043,-0.05
-0.029,0.02,0.049,0.004,-0.039,0.034,0.03,-0.091,-0.058,-0.043,-0.036,-0.048
-0.015,0.052,0.068,-0.019,-0.042,0.06,0.061,-0.073,-0.037,-0.031,-0.029,-0.044
0.001,0.054,0.053,-0.028,-0.026,0.053,0.073,-0.067,-0.03,-0.03,-0.025,-0.04
0.012,0.064,0.052,-0.038,-0.02,0.058,0.075,-0.057,-0.029,-0.031,-0.026,-0.038
0.018,0.053,0.035,-0.036,-0.009,0.043,0.039,-0.061,-0.022,-0.029,-0.025,-0.031
0.025,0.013,-0.012,-0.019,0.018,0.0,-0.004,-0.101,-0.038,-0.031,-0.025,-0.031
0.004,-0.023,-0.027,0.01,0.016,-0.025,-0.039,-0.138,-0.058,-0.033,-0.031,-0.029
-0.025,-0.046,-0.021,0.035,-0.001,-0.033,-0.052,-0.159,-0.076,-0.051,-0.045,-0.036
-0.038,-0.056,-0.018,0.047,-0.01,-0.037,-0.044,-0.172,-0.096,-0.087,-0.063,-0.066
-0.06,-0.076,-0.016,0.068,-0.022,-0.045,-0.043,-0.166,-0.104,-0.096,-0.073,-0.077
-0.065,-0.074,-0.009,0.069,-0.027,-0.042,-0.038,-0.183,-0.112,-0.095,-0.086,-0.084
-0.06,-0.068,-0.008,0.064,-0.026,-0.038,-0.035,-0.189,-0.107,-0.094,-0.091,-0.091
-0.082,-0.086,-0.004,0.085,-0.039,-0.045,-0.031,-0.186,-0.113,-0.096,-0.09,-0.09
-0.096,-0.093,0.002,0.095,-0.049,-0.045,-0.026,-0.183,-0.107,-0.093,-0.089,-0.093
-0.096,-0.098,-0.002,0.096,-0.047,-0.049,-0.019,-0.177,-0.113,-0.097,-0.092,-0.097
-0.1,-0.085,0.016,0.092,-0.058,-0.034,-0.017,-0.179,-0.104,-0.093,-0.086,-0.092
-0.093,-0.094,-0.001,0.094,-0.046,-0.047,-0.005,-0.165,-0.096,-0.095,-0.087,-0.092
-0.112,-0.078,0.034,0.095,-0.073,-0.022,-0.009,-0.178,-0.093,-0.096,-0.083,-0.08
-0.104,-0.082,0.022,0.093,-0.063,-0.03,-0.002,-0.148,-0.073,-0.09,-0.087,-0.08
-0.135,-0.007,0.128,0.071,-0.131,0.06,0.02,-0.136,-0.081,-0.064,-0.061,-0.066
-0.088,0.055,0.143,0.016,-0.116,0.099,0.156,0.242,0.159,0.098,0.049,-0.016
0.129,0.027,-0.102,-0.078,0.115,-0.038,0.187,0.422,0.441,0.337,0.224,0.097
0.577,0.367,-0.21,-0.472,0.393,0.078,-0.521,-0.236,0.814,0.835,0.707,0.516
1.098,0.445,-0.653,-0.771,0.875,-0.104,-1.306,-0.687,0.944,1.082,1.04,0.834
0.796,0.099,-0.696,-0.447,0.746,-0.298,-1.299,-1.171,0.101,0.499,0.69,0.653
0.199,-0.079,-0.278,-0.06,0.239,-0.179,-0.876,-1.311,-0.501,-0.05,0.195,0.294
0.054,-0.139,-0.193,0.043,0.124,-0.166,-0.441,-0.672,-0.36,-0.151,-0.033,0.048
-0.061,-0.111,-0.051,0.086,-0.005,-0.081,-0.123,-0.27,-0.187,-0.128,-0.082,-0.038
-0.107,-0.113,-0.006,0.11,-0.05,-0.059,0.023,-0.092,-0.09,-0.103,-0.093,-0.084
-0.103,-0.105,-0.002,0.104,-0.05,-0.053,0.066,-0.02,-0.077,-0.089,-0.095,-0.102
-0.13,-0.097,0.033,0.113,-0.081,-0.032,0.092,0.015,-0.058,-0.079,-0.09,-0.116
-0.128,-0.104,0.025,0.116,-0.077,-0.039,0.103,0.042,-0.032,-0.073,-0.087,-0.123
-0.126,-0.094,0.032,0.11,-0.079,-0.031,0.116,0.062,-0.021,-0.063,-0.083,-0.115
-0.117,-0.097,0.02,0.106,-0.068,-0.038,0.137,0.108,-0.008,-0.058,-0.08,-0.115
-0.117,-0.094,0.023,0.105,-0.069,-0.035,0.142,0.13,-0.003,-0.049,-0.076,-0.11
-0.11,-0.091,0.019,0.101,-0.064,-0.036,0.154,0.178,0.02,-0.043,-0.072,-0.11
-0.082,-0.08,0.002,0.081,-0.042,-0.039,0.16,0.214,0.043,-0.036,-0.062,-0.103
-0.057,-0.073,-0.016,0.065,-0.02,-0.044,0.178,0.277,0.079,-0.017,-0.053,-0.093
-0.065,-0.063,0.002,0.064,-0.033,-0.031,0.208,0.357,0.116,0.01,-0.042,-0.086
-0.082,-0.05,0.031,0.065,-0.056,-0.009,0.235,0.444,0.151,0.037,-0.033,-0.077
-0.082,-0.037,0.045,0.059,-0.064,0.004,0.276,0.558,0.203,0.059,-0.018,-0.068
-0.073,-0.018,0.055,0.045,-0.063,0.019,0.321,0.679,0.265,0.1,0.008,-0.058
-0.036,0.012,0.048,0.012,-0.042,0.03,0.373,0.801,0.338,0.149,0.034,-0.035
-0.005,0.051,0.056,-0.023,-0.031,0.053,0.412,0.899,0.405,0.19,0.064,-0.008
0.003,0.083,0.08,-0.043,-0.039,0.082,0.435,0.983,0.477,0.24,0.108,0.012
0.025,0.109,0.084,-0.067,-0.03,0.096,0.443,1.02,0.533,0.291,0.15,0.034
0.036,0.131,0.096,-0.084,-0.03,0.114,0.42,0.991,0.539,0.322,0.178,0.06
0.041,0.143,0.102,-0.093,-0.031,0.123,0.377,0.917,0.527,0.318,0.19,0.08
0.054,0.136,0.082,-0.096,-0.014,0.109,0.316,0.774,0.5,0.312,0.191,0.074
0.062,0.128,0.066,-0.095,-0.002,0.097,0.24,0.606,0.432,0.291,0.187,0.061
0.058,0.117,0.059,-0.087,-0.001,0.088,0.16,0.426,0.343,0.233,0.147,0.054
0.017,0.071,0.054,-0.045,-0.018,0.062,0.094,0.258,0.243,0.172,0.092,0.025
-0.026,0.021,0.047,0.002,-0.037,0.034,0.049,0.137,0.155,0.104,0.042,-0.014
-0.061,-0.018,0.043,0.039,-0.051,0.012,0.027,0.044,0.089,0.056,-0.001,-0.039
-0.095,-0.058,0.037,0.077,-0.066,-0.01,0.021,-0.017,0.032,0.015,-0.034,-0.064
-0.11,-0.079,0.031,0.094,-0.071,-0.024,0.014,-0.059,-0.003,-0.023,-0.064,-0.085
-0.118,-0.092,0.026,0.104,-0.072,-0.032,0.006,-0.082,-0.023,-0.038,-0.074,-0.098
-0.119,-0.095,0.024,0.106,-0.072,-0.035,-0.001,-0.091,-0.035,-0.054,-0.083,-0.107
-0.138,-0.102,0.036,0.12,-0.087,-0.033,-0.008,-0.093,-0.035,-0.061,-0.092,-0.11
-0.152,-0.121,0.031,0.136,-0.091,-0.045,-0.01,-0.09,-0.035,-0.06,-0.089,-0.11
-0.134,-0.117,0.017,0.125,-0.075,-0.05,-0.01,-0.09,-0.035,-0.058,-0.09,-0.111
-0.134,-0.113,0.021,0.123,-0.077,-0.046,-0.01,-0.09,-0.035,-0.054,-0.09,-0.11
-0.137,-0.11,0.027,0.123,-0.082,-0.041,-0.01,-0.09,-0.035,-0.056,-0.09,-0.11
-0.139,-0.105,0.034,0.122,-0.086,-0.035,-0.01,-0.091,-0.031,-0.051,-0.09,-0.108
-0.136,-0.103,0.033,0.119,-0.084,-0.035,-0.01,-0.094,-0.03,-0.05,-0.09,-0.105
-0.137,-0.096,0.042,0.116,-0.089,-0.027,-0.01,-0.097,-0.03,-0.05,-0.09,-0.105
-0.141,-0.092,0.05,0.116,-0.095,-0.021,-0.01,-0.1,-0.03,-0.046,-0.09,-0.109
-0.127,-0.086,0.042,0.106,-0.084,-0.022,-0.01,-0.103,-0.03,-0.044,-0.09,-0.116
-0.118,-0.08,0.038,0.098,-0.077,-0.021,-0.012,-0.106,-0.033,-0.047,-0.091,-0.12
-0.107,-0.076,0.031,0.091,-0.069,-0.022,-0.018,-0.107,-0.039,-0.05,-0.095,-0.12
-0.106,-0.08,0.026,0.093,-0.066,-0.026,-0.023,-0.117,-0.046,-0.051,-0.095,-0.12
-0.117,-0.095,0.021,0.106,-0.069,-0.037,-0.026,-0.132,-0.049,-0.054,-0.097,-0.12
-0.119,-0.102,0.018,0.11,-0.068,-0.042,-0.031,-0.137,-0.054,-0.056,-0.101,-0.12
-0.117,-0.103,0.014,0.11,-0.065,-0.044,-0.035,-0.143,-0.055,-0.054,-0.1,-0.12
-0.12,-0.108,0.011,0.114,-0.065,-0.048,-0.042,-0.148,-0.056,-0.056,-0.096,-0.116
-0.115,-0.11,0.005,0.112,-0.06,-0.052,-0.046,-0.146,-0.076,-0.064,-0.095,-0.115
-0.118,-0.111,0.008,0.114,-0.063,-0.051,-0.045,-0.145,-0.08,-0.065,-0.095,-0.115
-0.137,-0.109,0.028,0.123,-0.083,-0.04,-0.045,-0.145,-0.074,-0.065,-0.096,-0.11
-0.145,-0.114,0.032,0.129,-0.088,-0.041,-0.045,-0.145,-0.073,-0.065,-0.094,-0.11
-0.158,-0.131,0.027,0.144,-0.092,-0.052,-0.045,-0.145,-0.067,-0.065,-0.1,-0.111
-0.161,-0.136,0.025,0.148,-0.093,-0.055,-0.042,-0.147,-0.065,-0.064,-0.112,-0.117
-0.159,-0.138,0.021,0.148,-0.09,-0.058,-0.039,-0.158,-0.065,-0.059,-0.108,-0.122
-0.161,-0.141,0.02,0.151,-0.09,-0.061,-0.04,-0.16,-0.065,-0.061,-0.105,-0.12
-0.161,-0.144,0.017,0.152,-0.088,-0.063,-0.039,-0.16,-0.065,-0.057,-0.102,-0.119
-0.157,-0.146,0.011,0.151,-0.083,-0.067,-0.041,-0.16,-0.065,-0.055,-0.1,-0.121
-0.146,-0.139,0.006,0.142,-0.076,-0.066,-0.039,-0.16,-0.065,-0.055,-0.098,-0.119
-0.143,-0.14,0.003,0.141,-0.073,-0.068,-0.036,-0.16,-0.065,-0.051,-0.09,-0.121
-0.129,-0.133,-0.003,0.131,-0.063,-0.068,-0.033,-0.159,-0.064,-0.045,-0.085,-0.115
-0.13,-0.133,-0.004,0.132,-0.062,-0.068,-0.031,-0.161,-0.066,-0.039,-0.077,-0.107
-0.07,-0.07,0.0,0.07,-0.035,-0.035,-0.023,-0.136,-0.043,-0.033,-0.072,-0.099
0.062,0.065,0.003,-0.064,0.029,0.034,0.008,-0.099,-0.013,0.0,-0.049,-0.068
0.13,0.135,0.005,-0.133,0.062,0.07,0.036,-0.094,-0.007,0.018,-0.029,-0.053
0.126,0.135,0.009,-0.131,0.059,0.072,0.042,-0.092,0.0,0.014,-0.029,-0.055
0.088,0.097,0.009,-0.092,0.039,0.053,0.039,-0.088,0.004,0.014,-0.025,-0.058
0.082,0.103,0.021,-0.093,0.03,0.062,0.046,-0.087,0.023,0.019,-0.015,-0.059
0.05,0.092,0.041,-0.071,0.004,0.066,0.049,-0.081,0.036,0.023,-0.022,-0.063
-0.036,0.0,0.036,0.017,-0.036,0.018,0.038,-0.081,0.021,0.008,-0.059,-0.092
-0.059,-0.03,0.029,0.044,-0.044,0.0,0.023,-0.073,0.009,-0.006,-0.078,-0.103
-0.044,-0.031,0.013,0.037,-0.029,-0.008,-0.013,-0.083,-0.015,-0.014,-0.078,-0.102
-0.042,-0.059,-0.017,0.051,-0.012,-0.038,-0.064,-0.131,-0.041,-0.026,-0.084,-0.107
-0.058,-0.083,-0.026,0.071,-0.016,-0.054,-0.092,-0.158,-0.054,-0.038,-0.087,-0.109
-0.075,-0.105,-0.03,0.09,-0.022,-0.067,-0.09,-0.18,-0.07,-0.051,-0.094,-0.11
-0.084,-0.11,-0.026,0.097,-0.028,-0.068,-0.088,-0.197,-0.088,-0.067,-0.112,-0.128
-0.113,-0.136,-0.023,0.125,-0.045,-0.08,-0.084,-0.196,-0.096,-0.086,-0.127,-0.151
-0.142,-0.163,-0.021,0.152,-0.06,-0.091,-0.082,-0.2,-0.11,-0.095,-0.133,-0.164
-0.143,-0.158,-0.015,0.151,-0.064,-0.086,-0.079,-0.192,-0.11,-0.089,-0.134,-0.17
-0.155,-0.172,-0.017,0.164,-0.069,-0.094,-0.077,-0.196,-0.112,-0.092,-0.137,-0.166
-0.169,-0.162,0.007,0.165,-0.088,-0.077,-0.072,-0.196,-0.108,-0.087,-0.133,-0.161
-0.164,-0.151,0.013,0.158,-0.089,-0.069,-0.065,-0.192,-0.106,-0.087,-0.137,-0.16
-0.177,-0.147,0.03,0.162,-0.103,-0.059,-0.065,-0.2,-0.106,-0.084,-0.133,-0.153
-0.17,-0.153,0.017,0.161,-0.093,-0.068,-0.054,-0.181,-0.101,-0.083,-0.129,-0.152
-0.169,-0.148,0.021,0.158,-0.095,-0.063,-0.058,-0.194,-0.102,-0.082,-0.12,-0.14
-0.166,-0.147,0.02,0.156,-0.093,-0.063,-0.036,-0.165,-0.074,-0.075,-0.112,-0.132
-0.182,-0.089,0.092,0.135,-0.137,0.002,-0.025,-0.169,-0.082,-0.069,-0.109,-0.124
-0.157,-0.039,0.119,0.098,-0.138,0.04,0.108,0.193,0.141,0.086,-0.008,-0.069
0.045,-0.041,-0.086,-0.002,0.065,-0.064,0.182,0.436,0.443,0.322,0.166,0.028
0.461,0.311,-0.15,-0.386,0.306,0.08,-0.491,-0.253,0.828,0.831,0.643,0.425
0.963,0.465,-0.499,-0.713,0.731,-0.017,-1.33,-0.712,1.083,1.192,1.064,0.829
0.771,0.128,-0.643,-0.449,0.707,-0.257,-1.392,-1.122,0.287,0.65,0.76,0.694
0.193,-0.101,-0.294,-0.046,0.244,-0.197,-0.97,-1.354,-0.475,-0.011,0.21,0.305
0.028,-0.148,-0.176,0.06,0.102,-0.162,-0.522,-0.762,-0.392,-0.16,-0.058,0.029
-0.07,-0.11,-0.04,0.09,-0.015,-0.074,-0.189,-0.33,-0.207,-0.117,-0.113,-0.079
-0.15,-0.108,0.043,0.129,-0.096,-0.032,-0.022,-0.13,-0.113,-0.104,-0.123,-0.128
-0.158,-0.104,0.054,0.131,-0.106,-0.025,0.028,-0.051,-0.084,-0.097,-0.128,-0.151
-0.157,-0.096,0.061,0.126,-0.109,-0.017,0.041,-0.032,-0.065,-0.083,-0.125,-0.145
-0.144,-0.096,0.048,0.119,-0.095,-0.024,0.059,0.021,-0.051,-0.077,-0.12,-0.142
-0.157,-0.087,0.069,0.122,-0.113,-0.009,0.078,0.038,-0.035,-0.066,-0.112,-0.136
-0.152,-0.086,0.066,0.119,-0.109,-0.01,0.095,0.084,-0.011,-0.062,-0.106,-0.133
-0.147,-0.08,0.066,0.113,-0.106,-0.006,0.102,0.101,-0.001,-0.053,-0.099,-0.127
-0.134,-0.075,0.059,0.105,-0.096,-0.008,0.113,0.143,0.012,-0.038,-0.094,-0.124
-0.136,-0.08,0.056,0.107,-0.095,-0.012,0.134,0.197,0.028,-0.017,-0.086,-0.116
-0.161,-0.103,0.058,0.132,-0.11,-0.022,0.152,0.249,0.066,0.003,-0.079,-0.108
-0.158,-0.097,0.061,0.127,-0.109,-0.017,0.167,0.332,0.1,0.018,-0.073,-0.1
-0.15,-0.087,0.063,0.118,-0.107,-0.011,0.205,0.422,0.139,0.039,-0.059,-0.092
-0.146,-0.078,0.068,0.112,-0.107,-0.005,0.248,0.53,0.197,0.065,-0.031,-0.084
-0.118,-0.05,0.068,0.084,-0.092,0.009,0.288,0.651,0.252,0.106,-0.008,-0.071
-0.089,-0.015,0.074,0.052,-0.082,0.029,0.344,0.766,0.323,0.151,0.019,-0.059
-0.055,0.023,0.079,0.016,-0.067,0.051,0.392,0.874,0.403,0.197,0.059,-0.033
-0.027,0.068,0.096,-0.021,-0.061,0.082,0.425,0.95,0.465,0.253,0.089,-0.003
0.001,0.125,0.124,-0.063,-0.062,0.124,0.437,0.984,0.523,0.302,0.134,0.027
0.029,0.147,0.118,-0.088,-0.045,0.132,0.419,0.977,0.558,0.343,0.185,0.055
0.029,0.137,0.108,-0.083,-0.04,0.123,0.375,0.895,0.543,0.347,0.199,0.074
0.028,0.129,0.102,-0.079,-0.037,0.115,0.311,0.766,0.506,0.339,0.208,0.09
0.026,0.12,0.094,-0.073,-0.034,0.106,0.236,0.607,0.453,0.331,0.2,0.085
0.033,0.111,0.078,-0.073,-0.023,0.094,0.155,0.428,0.365,0.279,0.165,0.075
0.02,0.081,0.06,-0.051,-0.02,0.07,0.093,0.268,0.267,0.218,0.121,0.053
-0.026,0.032,0.058,-0.003,-0.042,0.045,0.052,0.136,0.179,0.155,0.07,0.012
-0.065,-0.011,0.054,0.038,-0.059,0.021,0.03,0.05,0.107,0.094,0.031,-0.022
-0.081,-0.031,0.051,0.056,-0.066,0.01,0.02,-0.009,0.059,0.054,-0.004,-0.047
-0.079,-0.033,0.047,0.056,-0.063,0.007,0.01,-0.051,0.022,0.031,-0.031,-0.071
-0.092,-0.05,0.043,0.071,-0.067,-0.003,0.0,-0.073,-0.004,0.007,-0.047,-0.079
-0.106,-0.065,0.041,0.086,-0.073,-0.012,-0.014,-0.082,-0.017,-0.009,-0.057,-0.082
-0.101,-0.064,0.037,0.082,-0.069,-0.013,-0.017,-0.087,-0.026,-0.01,-0.056,-0.084
-0.096,-0.061,0.035,0.078,-0.066,-0.012,-0.014,-0.09,-0.028,-0.01,-0.054,-0.079
-0.089,-0.058,0.031,0.073,-0.06,-0.013,-0.015,-0.09,-0.024,-0.01,-0.055,-0.08
-0.085,-0.055,0.03,0.07,-0.057,-0.012,-0.01,-0.091,-0.022,-0.01,-0.055,-0.08
-0.091,-0.054,0.038,0.072,-0.064,-0.008,-0.01,-0.09,-0.019,-0.009,-0.055,-0.08
-0.102,-0.049,0.053,0.075,-0.078,0.002,-0.012,-0.091,-0.016,-0.004,-0.058,-0.08
-0.111,-0.046,0.065,0.078,-0.088,0.01,-0.015,-0.09,-0.014,-0.001,-0.061,-0.076
-0.108,-0.043,0.065,0.075,-0.087,0.011,-0.018,-0.09,-0.011,0.002,-0.06,-0.075
-0.102,-0.038,0.063,0.07,-0.083,0.012,-0.02,-0.09,-0.01,0.006,-0.06,-0.075
-0.095,-0.035,0.06,0.065,-0.077,0.012,-0.024,-0.09,-0.01,0.01,-0.06,-0.075
-0.092,-0.032,0.06,0.062,-0.076,0.014,-0.025,-0.106,-0.011,0.006,-0.06,-0.075
-0.086,-0.029,0.057,0.057,-0.072,0.014,-0.029,-0.11,-0.009,-0.001,-0.06,-0.076
-0.081,-0.026,0.055,0.053,-0.067,0.014,-0.034,-0.12,-0.015,-0.005,-0.06,-0.08
-0.078,-0.023,0.055,0.05,-0.066,0.016,-0.038,-0.141,-0.028,-0.011,-0.06,-0.083
-0.072,-0.021,0.052,0.046,-0.062,0.015,-0.04,-0.14,-0.035,-0.016,-0.06,-0.087
-0.067,-0.018,0.049,0.043,-0.058,0.015,-0.04,-0.14,-0.04,-0.022,-0.06,-0.09
-0.067,-0.015,0.052,0.041,-0.059,0.018,-0.04,-0.143,-0.041,-0.025,-0.06,-0.087
-0.079,-0.015,0.064,0.047,-0.071,0.025,-0.04,-0.145,-0.044,-0.025,-0.06,-0.084
-0.081,-0.015,0.066,0.048,-0.073,0.025,-0.04,-0.145,-0.045,-0.028,-0.06,-0.081
-0.079,-0.015,0.064,0.046,-0.071,0.025,-0.04,-0.145,-0.048,-0.03,-0.06,-0.078
-0.081,-0.015,0.066,0.048,-0.073,0.025,-0.036,-0.145,-0.051,-0.03,-0.06,-0.075
-0.083,-0.018,0.065,0.05,-0.073,0.023,-0.035,-0.145,-0.052,-0.026,-0.061,-0.076
-0.087,-0.023,0.064,0.055,-0.076,0.02,-0.035,-0.15,-0.056,-0.025,-0.065,-0.085
-0.084,-0.025,0.058,0.054,-0.07,0.016,-0.035,-0.15,-0.053,-0.025,-0.065,-0.087
-0.079,-0.025,0.054,0.051,-0.066,0.014,-0.035,-0.151,-0.05,-0.02,-0.065,-0.084
-0.075,-0.025,0.05,0.05,-0.062,0.012,-0.036,-0.155,-0.05,-0.02,-0.065,-0.085
-0.069,-0.025,0.044,0.047,-0.056,0.009,-0.04,-0.155,-0.05,-0.02,-0.065,-0.085
-0.067,-0.025,0.042,0.046,-0.054,0.008,-0.04,-0.152,-0.05,-0.02,-0.065,-0.085
-0.058,-0.025,0.033,0.041,-0.045,0.004,-0.044,-0.149,-0.05,-0.02,-0.065,-0.084
-0.064,-0.022,0.043,0.042,-0.053,0.01,-0.045,-0.151,-0.05,-0.02,-0.065,-0.08
-0.072,-0.019,0.053,0.045,-0.063,0.017,-0.041,-0.146,-0.05,-0.02,-0.065,-0.08
-0.078,-0.021,0.057,0.049,-0.068,0.018,-0.04,-0.145,-0.05,-0.02,-0.066,-0.08
-0.101,-0.019,0.082,0.06,-0.092,0.031,-0.04,-0.145,-0.05,-0.016,-0.063,-0.079
-0.1,-0.021,0.079,0.06,-0.089,0.029,-0.04,-0.139,-0.05,-0.015,-0.061,-0.081
-0.099,-0.018,0.081,0.058,-0.09,0.031,-0.04,-0.133,-0.048,-0.013,-0.057,-0.075
-0.085,-0.004,0.08,0.044,-0.082,0.038,-0.037,-0.128,-0.036,-0.009,-0.055,-0.071
-0.053,0.026,0.078,0.014,-0.065,0.052,-0.018,-0.118,-0.021,-0.009,-0.049,-0.062
-0.029,0.062,0.091,-0.017,-0.06,0.077,0.008,-0.081,-0.009,0.016,-0.036,-0.054
-0.034,0.064,0.098,-0.015,-0.067,0.081,0.035,-0.066,0.006,0.033,-0.024,-0.04
-0.01,0.08,0.09,-0.036,-0.05,0.085,0.062,-0.074,0.018,0.039,0.001,-0.029
0.038,0.098,0.06,-0.069,-0.011,0.079,0.048,-0.07,0.036,0.051,0.011,-0.035
0.019,0.077,0.058,-0.048,-0.019,0.067,-0.009,-0.09,0.023,0.044,0.0,-0.022
0.05,0.059,0.009,-0.055,0.021,0.034,-0.062,-0.119,-0.021,0.03,-0.011,-0.042
-0.004,0.048,0.051,-0.023,-0.028,0.049,-0.077,-0.154,-0.028,0.018,-0.016,-0.014
0.037,0.027,-0.01,-0.032,0.023,0.009,-0.075,-0.163,-0.05,-0.002,-0.034,-0.054
-0.059,0.004,0.063,0.028,-0.061,0.033,-0.072,-0.184,-0.076,-0.027,-0.059,-0.049
-0.261,-0.018,0.242,0.139,-0.251,0.112,-0.064,-0.174,-0.074,-0.039,-0.066,-0.082
-0.049,-0.039,0.01,0.044,-0.03,-0.014,-0.057,-0.186,-0.076,-0.043,-0.064,-0.2
0.071,-0.047,-0.118,-0.012,0.095,-0.082,-0.052,-0.172,-0.074,-0.049,-0.067,-0.082
