0.036,-0.114,-0.15,0.039,0.094,-0.131,0.09,0.036,-0.033,0.021,-0.025,0.006
0.046,-0.104,-0.149,0.029,0.098,-0.127,0.09,0.038,-0.032,0.023,-0.023,0.004
0.046,-0.106,-0.152,0.03,0.1,-0.129,0.09,0.032,-0.051,0.017,-0.032,-0.016
0.048,-0.107,-0.156,0.03,0.102,-0.131,0.086,0.027,-0.047,0.012,-0.043,-0.01
0.051,-0.1,-0.151,0.025,0.101,-0.125,0.085,0.024,-0.046,0.008,-0.037,0.012
0.055,-0.09,-0.145,0.018,0.1,-0.117,0.086,0.019,-0.055,0.003,-0.036,0.015
0.066,-0.072,-0.138,0.003,0.102,-0.105,0.09,0.015,-0.058,0.001,-0.031,0.015
0.043,-0.096,-0.139,0.027,0.091,-0.117,0.093,0.021,-0.059,0.005,-0.03,0.013
0.035,-0.085,-0.12,0.025,0.078,-0.102,0.098,0.022,-0.052,0.017,-0.026,0.011
0.06,-0.06,-0.12,0.0,0.091,-0.09,0.109,0.041,-0.032,0.017,-0.014,0.007
0.063,-0.053,-0.116,-0.005,0.09,-0.084,0.138,0.081,-0.014,0.038,-0.006,0.023
0.058,-0.038,-0.096,-0.01,0.077,-0.066,0.147,0.099,0.004,0.067,0.009,0.044
0.099,-0.039,-0.139,-0.03,0.119,-0.089,0.103,0.09,0.01,0.055,0.018,0.034
0.18,0.03,-0.15,-0.104,0.165,-0.06,0.06,0.048,-0.017,0.054,0.024,0.036
0.17,0.026,-0.144,-0.098,0.156,-0.058,0.05,0.014,-0.048,0.041,0.007,0.027
0.118,-0.018,-0.136,-0.05,0.127,-0.076,0.047,0.001,-0.052,0.04,0.006,0.028
0.098,-0.039,-0.137,-0.029,0.118,-0.088,0.038,0.002,-0.055,0.021,-0.009,0.021
0.054,-0.073,-0.127,0.009,0.091,-0.1,0.038,-0.027,-0.076,0.013,-0.031,0.017
0.053,-0.083,-0.136,0.015,0.095,-0.109,0.058,-0.015,-0.079,0.014,-0.038,0.015
0.068,-0.078,-0.146,0.005,0.108,-0.112,0.079,-0.008,-0.081,-0.009,-0.039,0.002
0.074,-0.056,-0.13,-0.008,0.102,-0.093,0.071,-0.008,-0.055,0.02,-0.01,0.015
0.041,-0.082,-0.123,0.02,0.082,-0.102,0.084,0.032,-0.069,-0.011,-0.038,-0.019
0.045,0.011,-0.033,-0.028,0.039,-0.011,0.118,0.085,0.022,0.079,0.029,0.017
0.148,0.066,-0.082,-0.106,0.115,-0.008,0.112,0.182,0.385,0.359,0.18,0.1
0.424,0.589,0.165,-0.507,0.129,0.377,-0.377,-0.792,1.174,1.448,1.065,0.708
0.738,0.809,0.071,-0.774,0.333,0.44,-1.18,-2.052,1.243,1.856,1.579,1.158
0.42,0.073,-0.346,-0.246,0.383,-0.136,-1.008,-1.751,-0.078,0.332,0.444,0.437
-0.011,-0.031,-0.02,0.021,0.004,-0.025,-0.293,-0.76,-0.433,-0.23,-0.107,-0.009
0.04,0.025,-0.016,-0.032,0.028,0.004,-0.03,-0.132,-0.008,0.096,0.042,0.043
0.074,-0.069,-0.142,-0.003,0.108,-0.105,0.057,0.028,-0.03,0.034,-0.02,-0.001
0.054,-0.023,-0.077,-0.016,0.066,-0.049,0.091,0.078,0.033,0.058,-0.001,-0.001
0.039,-0.069,-0.108,0.015,0.073,-0.088,0.105,0.115,0.006,0.028,-0.042,-0.034
0.048,-0.036,-0.084,-0.006,0.067,-0.06,0.119,0.122,0.024,0.049,-0.018,-0.019
0.098,-0.061,-0.159,-0.018,0.129,-0.11,0.128,0.157,0.054,0.05,-0.015,-0.018
0.093,-0.061,-0.154,-0.016,0.123,-0.107,0.129,0.161,0.05,0.046,-0.008,-0.015
0.093,-0.058,-0.15,-0.017,0.121,-0.104,0.121,0.171,0.075,0.066,0.006,-0.006
0.096,-0.024,-0.12,-0.036,0.108,-0.072,0.122,0.166,0.07,0.06,0.005,-0.007
0.095,0.01,-0.085,-0.052,0.09,-0.037,0.113,0.19,0.095,0.082,0.022,0.004
0.073,-0.047,-0.119,-0.013,0.096,-0.083,0.124,0.198,0.108,0.098,0.022,0.008
0.093,-0.036,-0.128,-0.029,0.111,-0.081,0.131,0.228,0.134,0.113,0.033,0.019
0.175,0.036,-0.14,-0.105,0.158,-0.052,0.13,0.261,0.157,0.139,0.043,0.026
0.145,0.005,-0.14,-0.075,0.143,-0.067,0.128,0.278,0.19,0.16,0.055,0.031
0.125,-0.012,-0.137,-0.056,0.131,-0.075,0.124,0.315,0.224,0.176,0.078,0.049
0.167,0.045,-0.122,-0.105,0.144,-0.038,0.125,0.341,0.246,0.195,0.092,0.067
0.157,0.034,-0.123,-0.095,0.14,-0.044,0.128,0.401,0.299,0.225,0.103,0.065
0.195,0.063,-0.132,-0.129,0.163,-0.034,0.132,0.455,0.344,0.254,0.123,0.062
0.22,0.08,-0.14,-0.15,0.18,-0.03,0.135,0.511,0.392,0.297,0.159,0.091
0.233,0.067,-0.166,-0.15,0.2,-0.049,0.147,0.563,0.448,0.354,0.204,0.117
0.289,0.143,-0.146,-0.216,0.217,-0.001,0.144,0.588,0.496,0.392,0.228,0.137
0.331,0.172,-0.159,-0.251,0.244,0.007,0.131,0.627,0.533,0.43,0.266,0.175
0.326,0.159,-0.167,-0.242,0.246,-0.004,0.123,0.621,0.55,0.471,0.309,0.197
0.295,0.157,-0.137,-0.226,0.216,0.009,0.112,0.588,0.541,0.476,0.32,0.201
0.288,0.142,-0.146,-0.214,0.217,-0.002,0.107,0.527,0.491,0.439,0.3,0.2
0.283,0.148,-0.135,-0.215,0.209,0.006,0.098,0.429,0.425,0.383,0.252,0.172
0.233,0.108,-0.124,-0.17,0.178,-0.008,0.092,0.344,0.315,0.295,0.192,0.121
0.174,0.053,-0.12,-0.114,0.147,-0.033,0.082,0.253,0.201,0.2,0.124,0.077
0.141,0.022,-0.119,-0.082,0.13,-0.048,0.084,0.189,0.129,0.132,0.067,0.036
0.122,0.006,-0.116,-0.064,0.119,-0.054,0.119,0.152,0.065,0.076,0.029,0.007
0.108,-0.006,-0.114,-0.05,0.111,-0.06,0.124,0.114,0.026,0.031,0.007,-0.01
0.059,-0.054,-0.112,-0.002,0.086,-0.083,0.114,0.096,-0.008,0.016,-0.011,-0.039
0.046,-0.062,-0.108,0.008,0.077,-0.085,0.112,0.083,-0.042,0.013,-0.025,-0.056
0.053,-0.059,-0.112,0.003,0.083,-0.086,0.104,0.075,-0.052,0.001,-0.039,-0.056
0.02,-0.067,-0.087,0.024,0.054,-0.077,0.101,0.075,-0.055,-0.014,-0.056,-0.06
0.033,-0.063,-0.096,0.015,0.065,-0.079,0.096,0.075,-0.059,-0.035,-0.051,-0.062
0.066,-0.056,-0.122,-0.005,0.094,-0.089,0.093,0.075,-0.06,-0.046,-0.048,-0.066
0.082,-0.028,-0.11,-0.027,0.096,-0.068,0.09,0.075,-0.06,-0.045,-0.042,-0.063
0.051,-0.048,-0.099,-0.002,0.075,-0.073,0.083,0.074,-0.065,-0.045,-0.041,-0.059
0.035,-0.076,-0.11,0.021,0.073,-0.093,0.099,0.07,-0.065,-0.045,-0.069,-0.061
0.043,-0.056,-0.099,0.007,0.071,-0.077,0.108,0.069,-0.066,-0.045,-0.074,-0.056
0.023,-0.049,-0.072,0.013,0.048,-0.06,0.094,0.07,-0.071,-0.042,-0.062,-0.055
0.03,-0.033,-0.063,0.002,0.047,-0.048,0.085,0.069,-0.07,-0.037,-0.059,-0.055
0.03,-0.025,-0.055,-0.002,0.043,-0.04,0.088,0.07,-0.072,-0.031,-0.049,-0.05
0.053,-0.034,-0.087,-0.01,0.07,-0.06,0.095,0.067,-0.076,-0.029,-0.048,-0.051
0.067,-0.002,-0.069,-0.032,0.068,-0.035,0.088,0.061,-0.074,-0.021,-0.064,-0.048
0.062,0.008,-0.054,-0.035,0.058,-0.022,0.084,0.054,-0.079,-0.024,-0.066,-0.045
0.057,-0.014,-0.071,-0.021,0.064,-0.042,0.078,0.047,-0.086,-0.042,-0.06,-0.045
0.045,-0.015,-0.061,-0.015,0.053,-0.038,0.072,0.041,-0.09,-0.043,-0.06,-0.043
0.04,-0.013,-0.052,-0.013,0.046,-0.032,0.073,0.035,-0.102,-0.055,-0.054,-0.063
0.037,-0.003,-0.039,-0.017,0.038,-0.021,0.075,0.03,-0.107,-0.062,-0.057,-0.069
0.061,0.001,-0.06,-0.031,0.06,-0.029,0.087,0.027,-0.104,-0.055,-0.06,-0.059
0.082,0.01,-0.072,-0.046,0.077,-0.031,0.088,0.023,-0.106,-0.056,-0.057,-0.057
0.084,0.015,-0.069,-0.049,0.076,-0.027,0.08,0.02,-0.104,-0.05,-0.055,-0.05
0.062,-0.019,-0.081,-0.021,0.071,-0.05,0.077,0.015,-0.107,-0.052,-0.054,-0.044
0.037,-0.029,-0.066,-0.004,0.052,-0.047,0.07,0.018,-0.115,-0.061,-0.073,-0.058
-0.008,-0.025,-0.017,0.016,0.005,-0.021,0.066,0.024,-0.113,-0.058,-0.079,-0.063
-0.007,-0.027,-0.02,0.017,0.007,-0.023,0.072,0.03,-0.108,-0.054,-0.068,-0.053
0.028,-0.011,-0.039,-0.008,0.034,-0.025,0.082,0.035,-0.104,-0.049,-0.063,-0.048
0.044,-0.009,-0.053,-0.017,0.049,-0.03,0.095,0.039,-0.099,-0.044,-0.055,-0.041
0.067,0.027,-0.04,-0.047,0.053,-0.007,0.126,0.073,-0.096,-0.041,-0.05,-0.034
0.095,0.071,-0.024,-0.083,0.059,0.023,0.126,0.103,-0.094,-0.035,-0.041,-0.027
0.122,0.067,-0.055,-0.094,0.088,0.006,0.075,0.078,-0.095,-0.036,-0.037,-0.022
0.076,0.062,-0.014,-0.069,0.044,0.024,0.043,0.018,-0.104,-0.026,-0.027,-0.012
0.085,0.058,-0.027,-0.071,0.055,0.015,0.046,-0.019,-0.127,-0.03,-0.024,-0.01
0.14,0.051,-0.089,-0.095,0.114,-0.018,0.045,-0.028,-0.112,-0.03,-0.029,-0.004
0.098,0.023,-0.075,-0.06,0.086,-0.026,0.05,-0.025,-0.126,-0.058,-0.059,-0.022
0.05,0.03,-0.02,-0.04,0.035,0.005,0.051,-0.041,-0.152,-0.06,-0.059,-0.023
0.059,0.001,-0.058,-0.03,0.058,-0.028,0.047,-0.016,-0.144,-0.067,-0.067,-0.036
0.044,0.014,-0.03,-0.029,0.037,-0.008,0.045,-0.023,-0.148,-0.068,-0.061,-0.045
0.017,-0.012,-0.028,-0.002,0.023,-0.02,0.031,-0.013,-0.125,-0.055,-0.039,-0.035
0.028,0.002,-0.026,-0.014,0.027,-0.012,0.056,0.007,-0.146,-0.081,-0.07,-0.049
0.02,0.069,0.049,-0.044,-0.015,0.058,0.112,0.115,-0.009,0.046,0.014,0.0
0.14,0.136,-0.004,-0.139,0.071,0.066,0.042,0.073,0.448,0.448,0.281,0.146
0.499,0.783,0.284,-0.641,0.107,0.533,-0.614,-1.127,1.27,1.673,1.285,0.854
0.693,0.724,0.031,-0.709,0.331,0.377,-1.308,-2.104,1.037,1.669,1.462,1.069
0.332,0.082,-0.251,-0.207,0.291,-0.084,-0.92,-1.559,-0.341,0.039,0.213,0.265
-0.022,0.094,0.116,-0.036,-0.069,0.105,-0.249,-0.619,-0.417,-0.205,-0.092,-0.005
0.022,0.036,0.014,-0.029,0.004,0.025,-0.05,-0.082,-0.032,0.022,0.034,0.031
0.063,0.012,-0.051,-0.038,0.057,-0.019,0.044,0.037,-0.087,-0.042,-0.032,-0.017
0.025,-0.002,-0.027,-0.012,0.026,-0.014,0.074,0.08,-0.021,0.017,0.0,-0.015
0.03,-0.051,-0.081,0.011,0.056,-0.066,0.091,0.108,-0.055,-0.04,-0.047,-0.047
0.044,0.009,-0.035,-0.027,0.04,-0.013,0.103,0.121,-0.027,0.004,-0.015,-0.022
0.025,-0.013,-0.038,-0.005,0.031,-0.025,0.099,0.144,-0.03,-0.009,-0.026,-0.03
0.027,-0.042,-0.069,0.008,0.049,-0.055,0.117,0.177,-0.027,0.01,-0.015,-0.02
0.028,-0.004,-0.033,-0.012,0.03,-0.018,0.112,0.191,-0.003,0.018,-0.01,-0.016
0.017,0.006,-0.012,-0.011,0.015,-0.003,0.11,0.187,-0.002,0.018,-0.01,-0.014
0.005,-0.039,-0.044,0.018,0.025,-0.041,0.106,0.196,0.02,0.036,0.006,-0.004
-0.005,-0.036,-0.031,0.021,0.013,-0.033,0.101,0.194,0.037,0.037,0.01,-0.003
0.022,-0.025,-0.047,0.001,0.035,-0.036,0.1,0.218,0.07,0.065,0.025,0.005
0.064,0.012,-0.051,-0.038,0.057,-0.019,0.1,0.236,0.088,0.081,0.03,0.01
0.097,0.044,-0.053,-0.07,0.075,-0.004,0.1,0.262,0.111,0.101,0.036,0.014
0.076,0.018,-0.058,-0.047,0.067,-0.02,0.1,0.301,0.152,0.123,0.057,0.028
0.078,0.018,-0.06,-0.048,0.069,-0.021,0.1,0.343,0.175,0.14,0.07,0.041
0.106,0.052,-0.054,-0.079,0.08,-0.001,0.1,0.398,0.217,0.176,0.083,0.052
0.117,0.053,-0.064,-0.085,0.09,-0.005,0.109,0.463,0.281,0.218,0.113,0.069
0.169,0.087,-0.082,-0.128,0.125,0.003,0.112,0.521,0.326,0.256,0.137,0.085
0.181,0.118,-0.063,-0.149,0.122,0.027,0.107,0.565,0.376,0.297,0.178,0.114
0.208,0.133,-0.075,-0.17,0.141,0.029,0.105,0.604,0.421,0.34,0.217,0.14
0.268,0.186,-0.082,-0.227,0.175,0.052,0.101,0.603,0.45,0.379,0.248,0.166
0.256,0.187,-0.069,-0.221,0.162,0.059,0.1,0.591,0.469,0.4,0.278,0.189
0.228,0.167,-0.061,-0.197,0.144,0.053,0.096,0.562,0.45,0.395,0.279,0.19
0.209,0.161,-0.049,-0.185,0.129,0.056,0.089,0.478,0.395,0.356,0.264,0.18
0.174,0.132,-0.041,-0.153,0.107,0.045,0.084,0.383,0.307,0.286,0.212,0.15
0.105,0.1,-0.005,-0.102,0.055,0.047,0.079,0.278,0.194,0.193,0.128,0.086
0.091,0.064,-0.027,-0.077,0.059,0.018,0.073,0.193,0.108,0.112,0.074,0.038
0.082,0.036,-0.046,-0.059,0.064,-0.005,0.07,0.133,0.039,0.047,0.036,0.003
0.012,0.021,0.009,-0.016,0.001,0.015,0.065,0.083,-0.02,-0.006,-0.018,-0.034
-0.015,-0.026,-0.011,0.021,-0.001,-0.019,0.06,0.048,-0.053,-0.025,-0.048,-0.04
0.001,-0.024,-0.025,0.012,0.013,-0.024,0.063,-0.002,-0.09,-0.05,-0.061,-0.057
-0.032,-0.013,0.019,0.022,-0.026,0.003,0.066,-0.003,-0.1,-0.08,-0.077,-0.081
-0.096,-0.066,0.03,0.08,-0.063,-0.018,0.069,0.004,-0.107,-0.08,-0.072,-0.08
-0.064,-0.075,-0.011,0.069,-0.026,-0.043,0.072,-0.016,-0.13,-0.08,-0.07,-0.08
-0.054,-0.064,-0.01,0.059,-0.021,-0.037,0.075,-0.001,-0.121,-0.08,-0.064,-0.08
-0.072,-0.06,0.012,0.066,-0.041,-0.024,0.074,0.011,-0.119,-0.08,-0.067,-0.08
-0.036,-0.054,-0.019,0.045,-0.008,-0.036,0.069,0.015,-0.121,-0.078,-0.098,-0.078
-0.035,-0.049,-0.014,0.042,-0.01,-0.031,0.064,0.015,-0.12,-0.074,-0.101,-0.073
-0.039,-0.036,0.003,0.037,-0.021,-0.016,0.06,0.017,-0.123,-0.076,-0.096,-0.07
-0.071,-0.054,0.016,0.062,-0.043,-0.019,0.055,0.027,-0.12,-0.075,-0.095,-0.066
-0.072,-0.056,0.016,0.064,-0.044,-0.02,0.05,0.025,-0.12,-0.076,-0.09,-0.063
-0.065,-0.025,0.04,0.045,-0.052,0.007,0.053,0.019,-0.12,-0.074,-0.09,-0.059
-0.088,-0.032,0.056,0.06,-0.072,0.012,0.055,0.015,-0.12,-0.071,-0.085,-0.056
-0.045,-0.031,0.015,0.038,-0.03,-0.008,0.055,0.011,-0.119,-0.069,-0.085,-0.054
-0.06,-0.034,0.026,0.047,-0.043,-0.004,0.055,0.006,-0.129,-0.068,-0.085,-0.056
-0.076,-0.037,0.038,0.056,-0.057,0.0,0.055,0.002,-0.129,-0.063,-0.085,-0.053
-0.05,-0.024,0.026,0.037,-0.038,0.001,0.054,-0.004,-0.133,-0.07,-0.085,-0.061
-0.058,-0.019,0.039,0.038,-0.048,0.01,0.048,-0.009,-0.151,-0.085,-0.085,-0.077
-0.053,-0.011,0.042,0.032,-0.048,0.015,0.042,-0.014,-0.15,-0.085,-0.085,-0.073
-0.066,-0.04,0.026,0.053,-0.046,-0.007,0.038,-0.02,-0.149,-0.084,-0.085,-0.07
-0.075,-0.04,0.034,0.057,-0.054,-0.003,0.031,-0.025,-0.151,-0.086,-0.085,-0.068
-0.093,-0.025,0.068,0.059,-0.08,0.021,0.026,-0.03,-0.148,-0.084,-0.085,-0.064
-0.094,-0.023,0.071,0.058,-0.082,0.024,0.028,-0.03,-0.155,-0.088,-0.086,-0.068
-0.082,-0.012,0.07,0.047,-0.075,0.028,0.031,-0.031,-0.163,-0.09,-0.089,-0.07
-0.084,-0.029,0.055,0.056,-0.069,0.013,0.03,-0.036,-0.159,-0.09,-0.092,-0.073
-0.083,-0.033,0.05,0.057,-0.066,0.008,0.03,-0.034,-0.161,-0.091,-0.095,-0.076
-0.077,-0.043,0.034,0.06,-0.056,-0.004,0.031,-0.037,-0.159,-0.089,-0.098,-0.08
-0.074,-0.061,0.013,0.067,-0.043,-0.024,0.028,-0.047,-0.17,-0.095,-0.1,-0.08
-0.093,-0.046,0.047,0.069,-0.07,0.0,0.026,-0.042,-0.181,-0.103,-0.098,-0.074
-0.06,-0.027,0.033,0.044,-0.046,0.003,0.018,-0.033,-0.177,-0.094,-0.088,-0.068
-0.034,-0.026,0.007,0.03,-0.02,-0.009,0.032,-0.022,-0.169,-0.084,-0.081,-0.06
-0.047,-0.02,0.026,0.034,-0.036,0.003,0.049,-0.013,-0.14,-0.083,-0.073,-0.055
-0.046,-0.011,0.035,0.028,-0.04,0.012,0.037,0.01,-0.133,-0.084,-0.065,-0.046
-0.005,0.007,0.011,-0.001,-0.008,0.009,0.021,0.028,-0.135,-0.087,-0.072,-0.045
0.033,0.038,0.005,-0.035,0.013,0.021,-0.02,-0.032,-0.144,-0.085,-0.068,-0.037
0.023,0.01,-0.012,-0.016,0.017,-0.001,-0.053,-0.068,-0.165,-0.095,-0.079,-0.039
0.017,-0.04,-0.057,0.012,0.037,-0.048,-0.053,-0.083,-0.162,-0.085,-0.069,-0.03
-0.007,-0.092,-0.085,0.05,0.039,-0.089,-0.05,-0.088,-0.186,-0.106,-0.069,-0.03
-0.02,-0.061,-0.041,0.041,0.011,-0.051,-0.042,-0.098,-0.204,-0.111,-0.09,-0.057
-0.035,-0.049,-0.014,0.042,-0.01,-0.032,-0.042,-0.092,-0.195,-0.107,-0.099,-0.074
-0.028,-0.056,-0.028,0.043,0.0,-0.042,-0.025,-0.082,-0.206,-0.133,-0.122,-0.081
0.003,-0.024,-0.027,0.011,0.015,-0.025,-0.027,-0.094,-0.193,-0.103,-0.107,-0.064
-0.053,-0.083,-0.03,0.068,-0.011,-0.056,-0.003,-0.057,-0.207,-0.127,-0.146,-0.092
-0.08,0.006,0.086,0.036,-0.082,0.046,0.035,0.002,-0.124,-0.036,-0.064,-0.039
0.023,0.064,0.041,-0.045,-0.009,0.052,0.034,0.075,0.22,0.212,0.103,0.05
0.322,0.575,0.253,-0.449,0.034,0.414,-0.44,-0.929,0.96,1.228,0.914,0.615
0.677,0.812,0.135,-0.744,0.271,0.473,-1.315,-2.248,1.043,1.661,1.461,1.09
0.41,0.07,-0.339,-0.24,0.375,-0.134,-1.179,-1.896,-0.205,0.214,0.39,0.411
-0.07,-0.06,0.011,0.065,-0.04,-0.025,-0.401,-0.84,-0.585,-0.361,-0.2,-0.064
-0.057,0.007,0.063,0.025,-0.06,0.035,-0.115,-0.2,-0.117,-0.062,-0.046,-0.028
-0.008,-0.077,-0.069,0.043,0.031,-0.073,-0.019,-0.022,-0.115,-0.113,-0.103,-0.07
-0.038,-0.037,0.001,0.037,-0.019,-0.018,0.02,0.006,-0.086,-0.064,-0.066,-0.039
-0.02,-0.08,-0.06,0.05,0.02,-0.07,0.037,0.061,-0.086,-0.091,-0.089,-0.057
0.001,-0.029,-0.03,0.014,0.016,-0.029,0.051,0.077,-0.083,-0.064,-0.073,-0.046
-0.026,-0.078,-0.052,0.052,0.013,-0.065,0.06,0.111,-0.067,-0.06,-0.073,-0.045
-0.064,-0.092,-0.028,0.078,-0.018,-0.06,0.074,0.117,-0.074,-0.06,-0.072,-0.046
-0.049,-0.095,-0.045,0.073,-0.002,-0.07,0.062,0.127,-0.051,-0.044,-0.062,-0.044
-0.051,-0.099,-0.048,0.075,-0.001,-0.073,0.064,0.129,-0.053,-0.051,-0.067,-0.064
-0.043,-0.072,-0.029,0.058,-0.007,-0.05,0.056,0.139,-0.029,-0.031,-0.053,-0.058
-0.036,-0.094,-0.059,0.065,0.012,-0.076,0.056,0.164,-0.014,-0.027,-0.053,-0.053
-0.015,-0.065,-0.05,0.04,0.018,-0.057,0.061,0.183,0.007,-0.007,-0.044,-0.045
-0.029,-0.071,-0.042,0.05,0.007,-0.056,0.074,0.217,0.034,0.017,-0.038,-0.038
-0.031,-0.062,-0.031,0.047,0.001,-0.047,0.075,0.24,0.07,0.032,-0.028,-0.031
0.016,-0.037,-0.054,0.011,0.035,-0.045,0.086,0.271,0.101,0.063,-0.013,-0.024
0.025,-0.042,-0.067,0.009,0.046,-0.054,0.101,0.321,0.135,0.093,0.006,-0.017
0.05,-0.041,-0.09,-0.004,0.07,-0.065,0.101,0.376,0.178,0.099,0.035,-0.004
0.075,-0.035,-0.11,-0.02,0.093,-0.072,0.099,0.432,0.221,0.128,0.049,0.006
0.11,0.01,-0.1,-0.06,0.105,-0.045,0.098,0.498,0.285,0.179,0.077,0.031
0.137,0.03,-0.107,-0.083,0.122,-0.038,0.117,0.562,0.336,0.224,0.124,0.056
0.15,0.046,-0.104,-0.098,0.126,-0.028,0.114,0.602,0.38,0.255,0.151,0.079
0.193,0.073,-0.12,-0.133,0.156,-0.023,0.102,0.614,0.431,0.285,0.186,0.106
0.184,0.074,-0.11,-0.129,0.147,-0.017,0.098,0.609,0.442,0.311,0.218,0.125
0.175,0.082,-0.093,-0.129,0.134,-0.005,0.088,0.594,0.438,0.309,0.232,0.137
0.197,0.09,-0.107,-0.144,0.152,-0.008,0.076,0.528,0.411,0.297,0.219,0.128
0.152,0.048,-0.104,-0.099,0.127,-0.028,0.061,0.423,0.334,0.257,0.176,0.112
0.109,0.023,-0.087,-0.066,0.098,-0.032,0.051,0.31,0.22,0.166,0.118,0.072
0.084,0.005,-0.078,-0.044,0.081,-0.036,0.05,0.209,0.115,0.078,0.055,0.026
0.017,-0.051,-0.067,0.017,0.042,-0.059,0.05,0.142,0.042,0.022,0.016,0.003
-0.02,-0.07,-0.051,0.045,0.016,-0.06,0.05,0.093,-0.018,-0.03,-0.025,-0.028
-0.036,-0.104,-0.068,0.071,0.016,-0.086,0.05,0.049,-0.061,-0.075,-0.075,-0.069
-0.04,-0.119,-0.078,0.08,0.019,-0.098,0.051,0.025,-0.093,-0.095,-0.091,-0.087
-0.034,-0.101,-0.067,0.068,0.017,-0.084,0.06,0.02,-0.105,-0.109,-0.096,-0.088
-0.035,-0.111,-0.076,0.073,0.021,-0.093,0.062,0.003,-0.113,-0.117,-0.101,-0.091
-0.029,-0.133,-0.104,0.081,0.038,-0.119,0.059,-0.001,-0.128,-0.12,-0.1,-0.089
-0.031,-0.12,-0.089,0.075,0.03,-0.104,0.06,-0.002,-0.123,-0.114,-0.106,-0.091
-0.029,-0.084,-0.055,0.057,0.013,-0.069,0.06,-0.016,-0.124,-0.123,-0.104,-0.089
-0.04,-0.125,-0.085,0.083,0.023,-0.105,0.06,-0.001,-0.142,-0.153,-0.107,-0.09
-0.045,-0.154,-0.109,0.1,0.032,-0.131,0.061,0.011,-0.146,-0.156,-0.12,-0.103
-0.042,-0.145,-0.104,0.094,0.031,-0.124,0.065,0.017,-0.145,-0.154,-0.12,-0.101
-0.039,-0.144,-0.104,0.092,0.033,-0.124,0.067,0.028,-0.145,-0.156,-0.115,-0.091
-0.032,-0.14,-0.108,0.087,0.038,-0.123,0.07,0.026,-0.145,-0.155,-0.114,-0.087
-0.068,-0.158,-0.09,0.113,0.011,-0.124,0.073,0.021,-0.144,-0.154,-0.11,-0.078
-0.057,-0.139,-0.082,0.098,0.012,-0.11,0.076,0.015,-0.14,-0.15,-0.108,-0.077
-0.042,-0.116,-0.074,0.079,0.016,-0.095,0.071,0.014,-0.141,-0.148,-0.123,-0.088
-0.055,-0.123,-0.068,0.089,0.007,-0.095,0.07,0.005,-0.137,-0.144,-0.127,-0.091
-0.016,-0.118,-0.102,0.067,0.043,-0.11,0.07,0.01,-0.135,-0.143,-0.117,-0.086
-0.015,-0.121,-0.105,0.068,0.045,-0.113,0.065,0.023,-0.134,-0.137,-0.106,-0.085
-0.045,-0.134,-0.089,0.09,0.022,-0.111,0.065,0.008,-0.143,-0.145,-0.107,-0.08
-0.046,-0.135,-0.089,0.091,0.022,-0.112,0.064,-0.005,-0.157,-0.16,-0.121,-0.079
-0.05,-0.136,-0.086,0.093,0.018,-0.11,0.06,-0.011,-0.153,-0.154,-0.117,-0.093
-0.068,-0.133,-0.065,0.101,-0.001,-0.098,0.058,-0.016,-0.151,-0.149,-0.113,-0.095
-0.059,-0.142,-0.083,0.101,0.013,-0.112,0.055,-0.019,-0.147,-0.143,-0.11,-0.089
-0.055,-0.149,-0.094,0.103,0.02,-0.122,0.051,-0.026,-0.146,-0.137,-0.105,-0.087
-0.053,-0.127,-0.074,0.09,0.011,-0.1,0.05,-0.024,-0.141,-0.136,-0.103,-0.082
-0.045,-0.124,-0.079,0.084,0.018,-0.101,0.054,-0.021,-0.146,-0.145,-0.1,-0.08
-0.029,-0.117,-0.088,0.073,0.029,-0.102,0.056,-0.016,-0.16,-0.155,-0.097,-0.076
-0.02,-0.119,-0.099,0.069,0.04,-0.109,0.055,-0.014,-0.154,-0.148,-0.094,-0.075
-0.038,-0.131,-0.093,0.084,0.028,-0.112,0.066,-0.009,-0.147,-0.143,-0.091,-0.072
-0.018,-0.104,-0.086,0.061,0.035,-0.095,0.073,-0.007,-0.144,-0.137,-0.09,-0.07
-0.007,-0.09,-0.083,0.049,0.038,-0.086,0.088,0.007,-0.133,-0.132,-0.078,-0.065
-0.01,-0.084,-0.074,0.048,0.032,-0.079,0.108,0.039,-0.109,-0.116,-0.066,-0.037
0.003,-0.077,-0.08,0.037,0.042,-0.078,0.094,0.06,-0.093,-0.103,-0.071,-0.024
0.005,-0.078,-0.083,0.037,0.044,-0.08,0.054,0.049,-0.095,-0.108,-0.074,-0.027
0.004,-0.083,-0.087,0.04,0.046,-0.085,0.004,-0.015,-0.124,-0.115,-0.073,-0.021
0.013,-0.082,-0.095,0.035,0.055,-0.088,0.006,-0.045,-0.147,-0.127,-0.083,-0.024
0.025,-0.097,-0.122,0.036,0.074,-0.11,0.025,-0.041,-0.133,-0.12,-0.074,-0.014
0.025,-0.126,-0.15,0.05,0.088,-0.138,0.027,-0.036,-0.155,-0.139,-0.093,-0.032
-0.006,-0.128,-0.122,0.067,0.059,-0.124,0.029,-0.047,-0.153,-0.12,-0.085,-0.041
-0.05,-0.18,-0.13,0.115,0.041,-0.155,0.032,-0.031,-0.156,-0.139,-0.099,-0.057
-0.031,-0.123,-0.092,0.077,0.031,-0.107,0.042,-0.044,-0.152,-0.124,-0.079,-0.04
-0.025,-0.149,-0.124,0.087,0.05,-0.136,0.035,-0.012,-0.145,-0.13,-0.073,-0.045
-0.065,-0.154,-0.088,0.11,0.012,-0.121,0.068,0.014,-0.151,-0.131,-0.078,-0.041
-0.021,-0.076,-0.055,0.049,0.017,-0.065,0.12,0.163,0.022,0.007,-0.003,0.007
0.106,0.051,-0.056,-0.078,0.081,-0.002,0.009,0.063,0.535,0.501,0.322,0.181
0.475,0.701,0.226,-0.589,0.124,0.463,-0.68,-1.211,1.362,1.768,1.396,0.95
0.595,0.506,-0.089,-0.55,0.342,0.208,-1.216,-2.034,0.82,1.379,1.271,0.968
0.092,-0.14,-0.233,0.025,0.163,-0.186,-0.724,-1.395,-0.493,-0.18,0.029,0.154
-0.118,-0.047,0.071,0.082,-0.094,0.012,-0.181,-0.516,-0.342,-0.196,-0.115,-0.007
-0.046,-0.111,-0.066,0.079,0.01,-0.088,-0.027,-0.057,-0.066,-0.066,-0.063,-0.018
-0.048,-0.151,-0.103,0.1,0.028,-0.127,0.055,0.033,-0.103,-0.094,-0.092,-0.035
-0.016,-0.12,-0.105,0.068,0.045,-0.113,0.073,0.094,-0.032,-0.04,-0.05,-0.01
-0.019,-0.135,-0.116,0.077,0.049,-0.125,0.104,0.125,-0.072,-0.076,-0.076,-0.03
-0.016,-0.113,-0.097,0.065,0.04,-0.105,0.104,0.14,-0.032,-0.033,-0.043,-0.004
-0.02,-0.128,-0.108,0.074,0.044,-0.118,0.098,0.146,-0.052,-0.055,-0.065,-0.028
0.024,-0.1,-0.124,0.039,0.074,-0.112,0.099,0.152,-0.02,-0.032,-0.046,-0.033
0.014,-0.101,-0.114,0.044,0.064,-0.107,0.09,0.166,0.009,-0.04,-0.05,-0.026
-0.007,-0.127,-0.12,0.067,0.057,-0.124,0.093,0.163,0.016,-0.027,-0.043,-0.009
0.01,-0.134,-0.144,0.062,0.078,-0.139,0.118,0.182,0.045,-0.006,-0.036,0.0
-0.006,-0.123,-0.117,0.065,0.056,-0.12,0.125,0.213,0.059,0.02,-0.02,0.007
-0.007,-0.111,-0.104,0.059,0.049,-0.107,0.111,0.234,0.074,0.04,0.004,0.018
-0.002,-0.087,-0.085,0.044,0.042,-0.085,0.11,0.236,0.098,0.051,0.003,0.022
0.04,-0.096,-0.135,0.029,0.088,-0.116,0.099,0.274,0.146,0.094,0.025,0.029
0.068,-0.088,-0.156,0.011,0.112,-0.122,0.097,0.303,0.163,0.113,0.043,0.039
0.106,-0.047,-0.153,-0.029,0.13,-0.1,0.107,0.332,0.188,0.126,0.05,0.042
0.119,-0.04,-0.158,-0.039,0.139,-0.099,0.112,0.386,0.235,0.155,0.069,0.051
0.101,-0.009,-0.11,-0.046,0.106,-0.059,0.112,0.435,0.286,0.197,0.1,0.083
0.165,0.029,-0.136,-0.097,0.15,-0.053,0.11,0.489,0.339,0.241,0.133,0.103
0.171,0.007,-0.165,-0.089,0.168,-0.079,0.11,0.54,0.383,0.285,0.169,0.121
0.158,0.012,-0.146,-0.085,0.152,-0.067,0.11,0.561,0.425,0.334,0.213,0.15
0.208,0.058,-0.15,-0.133,0.179,-0.046,0.11,0.558,0.447,0.357,0.238,0.165
0.197,0.039,-0.158,-0.118,0.177,-0.059,0.109,0.555,0.462,0.369,0.256,0.19
0.201,0.052,-0.149,-0.126,0.175,-0.049,0.106,0.51,0.43,0.363,0.25,0.195
0.211,0.072,-0.139,-0.141,0.175,-0.033,0.103,0.429,0.366,0.319,0.212,0.168
0.144,0.042,-0.102,-0.093,0.122,-0.029,0.1,0.361,0.295,0.253,0.176,0.137
0.113,0.014,-0.099,-0.063,0.106,-0.042,0.098,0.289,0.186,0.162,0.118,0.095
0.083,-0.052,-0.135,-0.015,0.109,-0.093,0.093,0.207,0.09,0.075,0.05,0.055
0.041,-0.076,-0.118,0.018,0.08,-0.097,0.106,0.152,0.026,0.02,0.005,0.015
0.002,-0.113,-0.116,0.056,0.059,-0.114,0.117,0.109,-0.017,-0.018,-0.04,-0.003
-0.026,-0.133,-0.107,0.08,0.041,-0.12,0.112,0.077,-0.054,-0.061,-0.071,-0.012
-0.014,-0.113,-0.099,0.064,0.043,-0.106,0.11,0.06,-0.076,-0.083,-0.073,-0.023
-0.064,-0.149,-0.086,0.107,0.011,-0.117,0.106,0.044,-0.08,-0.084,-0.088,-0.029
-0.074,-0.151,-0.078,0.113,0.002,-0.114,0.104,0.044,-0.09,-0.088,-0.098,-0.04
-0.035,-0.148,-0.113,0.092,0.039,-0.13,0.102,0.046,-0.089,-0.098,-0.1,-0.033
-0.038,-0.152,-0.114,0.095,0.038,-0.133,0.097,0.044,-0.093,-0.105,-0.1,-0.035
-0.043,-0.148,-0.105,0.096,0.031,-0.126,0.094,0.045,-0.11,-0.098,-0.1,-0.051
-0.059,-0.15,-0.091,0.104,0.017,-0.12,0.091,0.045,-0.111,-0.095,-0.1,-0.05
-0.039,-0.142,-0.103,0.091,0.032,-0.122,0.085,0.042,-0.109,-0.091,-0.1,-0.05
-0.027,-0.141,-0.114,0.084,0.044,-0.127,0.087,0.039,-0.111,-0.084,-0.1,-0.05
-0.032,-0.136,-0.105,0.084,0.037,-0.121,0.091,0.04,-0.109,-0.09,-0.1,-0.049
-0.012,-0.132,-0.12,0.072,0.055,-0.126,0.09,0.036,-0.111,-0.098,-0.1,-0.053
-0.022,-0.131,-0.109,0.076,0.044,-0.12,0.089,0.035,-0.118,-0.095,-0.1,-0.055
-0.027,-0.128,-0.101,0.078,0.038,-0.114,0.085,0.035,-0.123,-0.095,-0.1,-0.055
-0.055,-0.141,-0.086,0.099,0.016,-0.114,0.085,0.03,-0.13,-0.095,-0.098,-0.055
-0.076,-0.151,-0.075,0.113,0.0,-0.113,0.083,0.026,-0.131,-0.095,-0.094,-0.055
-0.047,-0.143,-0.097,0.095,0.025,-0.12,0.077,0.024,-0.135,-0.107,-0.108,-0.054
-0.049,-0.141,-0.092,0.095,0.021,-0.116,0.073,0.019,-0.142,-0.111,-0.117,-0.051
-0.05,-0.134,-0.084,0.092,0.017,-0.109,0.069,0.016,-0.135,-0.109,-0.112,-0.05
-0.044,-0.143,-0.099,0.093,0.028,-0.121,0.064,0.012,-0.135,-0.11,-0.11,-0.049
-0.086,-0.165,-0.08,0.125,-0.003,-0.122,0.06,0.006,-0.13,-0.11,-0.106,-0.044
-0.103,-0.168,-0.065,0.136,-0.019,-0.116,0.06,0.001,-0.131,-0.11,-0.105,-0.046
-0.088,-0.156,-0.068,0.122,-0.01,-0.112,0.06,-0.004,-0.152,-0.118,-0.102,-0.042
-0.097,-0.163,-0.065,0.13,-0.016,-0.114,0.06,-0.01,-0.156,-0.123,-0.097,-0.036
-0.1,-0.185,-0.086,0.143,-0.006,-0.135,0.061,-0.015,-0.155,-0.12,-0.094,-0.055
-0.099,-0.186,-0.086,0.143,-0.006,-0.136,0.06,-0.004,-0.156,-0.121,-0.092,-0.059
-0.102,-0.185,-0.083,0.144,-0.009,-0.134,0.059,0.012,-0.155,-0.117,-0.085,-0.048
-0.099,-0.185,-0.086,0.142,-0.006,-0.136,0.058,0.017,-0.154,-0.114,-0.089,-0.043
-0.101,-0.185,-0.085,0.144,-0.007,-0.135,0.062,0.016,-0.145,-0.116,-0.094,-0.036
-0.097,-0.179,-0.082,0.138,-0.008,-0.13,0.078,0.013,-0.134,-0.106,-0.082,-0.028
-0.068,-0.151,-0.083,0.109,0.007,-0.116,0.105,0.042,-0.134,-0.104,-0.074,-0.022
-0.06,-0.126,-0.067,0.093,0.004,-0.096,0.117,0.067,-0.134,-0.104,-0.068,-0.013
-0.038,-0.117,-0.079,0.078,0.021,-0.098,0.088,0.063,-0.138,-0.106,-0.072,-0.011
-0.025,-0.1,-0.074,0.063,0.025,-0.087,0.034,0.007,-0.14,-0.108,-0.065,-0.008
-0.047,-0.101,-0.054,0.074,0.004,-0.078,0.003,-0.039,-0.14,-0.11,-0.065,-0.011
-0.015,-0.119,-0.104,0.067,0.044,-0.111,0.018,-0.048,-0.147,-0.112,-0.066,-0.01
-0.025,-0.153,-0.128,0.089,0.052,-0.14,0.006,-0.043,-0.145,-0.11,-0.061,-0.008
-0.049,-0.139,-0.089,0.094,0.02,-0.114,0.004,-0.039,-0.161,-0.125,-0.075,-0.024
-0.053,-0.126,-0.073,0.089,0.01,-0.099,0.032,-0.042,-0.153,-0.112,-0.074,-0.015
-0.086,-0.188,-0.102,0.137,0.008,-0.145,0.05,-0.025,-0.16,-0.127,-0.103,-0.028
-0.073,-0.165,-0.092,0.119,0.01,-0.129,0.046,-0.045,-0.149,-0.092,-0.075,-0.01
-0.093,-0.198,-0.105,0.146,0.006,-0.152,0.049,-0.006,-0.151,-0.112,-0.106,-0.032
-0.086,-0.106,-0.02,0.096,-0.033,-0.062,0.091,0.016,-0.126,-0.081,-0.059,-0.002
0.005,-0.05,-0.055,0.022,0.03,-0.052,0.112,0.149,0.139,0.088,0.054,0.049
0.181,0.325,0.144,-0.253,0.018,0.234,-0.201,-0.497,0.799,0.903,0.652,0.446
0.563,0.828,0.265,-0.695,0.149,0.546,-1.096,-1.953,1.295,1.848,1.556,1.136
0.487,0.209,-0.278,-0.348,0.383,-0.034,-1.303,-2.053,0.269,0.746,0.819,0.726
-0.036,-0.201,-0.166,0.119,0.065,-0.183,-0.531,-1.056,-0.6,-0.375,-0.139,0.044
-0.145,-0.092,0.053,0.119,-0.099,-0.019,-0.101,-0.283,-0.174,-0.093,-0.043,0.03
-0.058,-0.161,-0.104,0.11,0.023,-0.132,0.033,0.014,-0.077,-0.076,-0.07,0.005
-0.057,-0.125,-0.068,0.092,0.006,-0.097,0.08,0.039,-0.092,-0.086,-0.061,0.008
-0.056,-0.158,-0.101,0.107,0.023,-0.129,0.083,0.098,-0.058,-0.08,-0.062,0.003
-0.055,-0.145,-0.09,0.101,0.018,-0.117,0.125,0.112,-0.08,-0.089,-0.078,-0.01
-0.058,-0.153,-0.095,0.106,0.019,-0.124,0.115,0.118,-0.046,-0.061,-0.063,-0.014
-0.06,-0.157,-0.097,0.109,0.019,-0.127,0.123,0.149,-0.057,-0.073,-0.069,-0.016
-0.062,-0.141,-0.079,0.101,0.009,-0.11,0.118,0.165,-0.029,-0.048,-0.05,0.001
-0.07,-0.156,-0.086,0.113,0.008,-0.121,0.122,0.168,-0.026,-0.05,-0.054,0.002
-0.08,-0.141,-0.061,0.111,-0.009,-0.101,0.121,0.184,-0.001,-0.026,-0.04,0.015
-0.08,-0.15,-0.07,0.115,-0.005,-0.109,0.119,0.204,0.029,-0.019,-0.039,0.018
-0.018,-0.125,-0.107,0.072,0.045,-0.116,0.12,0.218,0.05,-0.011,-0.028,0.02
0.003,-0.106,-0.11,0.052,0.057,-0.108,0.115,0.246,0.072,0.01,-0.021,0.025
-0.016,-0.108,-0.092,0.063,0.038,-0.1,0.115,0.276,0.101,0.038,-0.013,0.046
-0.004,-0.082,-0.078,0.043,0.037,-0.08,0.116,0.3,0.121,0.057,-0.006,0.047
0.02,-0.077,-0.098,0.029,0.059,-0.087,0.139,0.355,0.162,0.081,0.013,0.055
0.038,-0.07,-0.109,0.016,0.074,-0.089,0.146,0.4,0.203,0.107,0.036,0.065
0.047,-0.05,-0.097,0.002,0.072,-0.073,0.155,0.464,0.236,0.137,0.045,0.068
0.071,-0.036,-0.106,-0.017,0.089,-0.071,0.173,0.545,0.293,0.179,0.08,0.103
0.123,-0.002,-0.125,-0.06,0.124,-0.064,0.167,0.595,0.338,0.216,0.114,0.117
0.169,0.021,-0.148,-0.095,0.159,-0.063,0.162,0.647,0.385,0.263,0.151,0.139
0.18,0.034,-0.145,-0.106,0.162,-0.055,0.156,0.681,0.425,0.302,0.187,0.171
0.203,0.061,-0.142,-0.132,0.172,-0.04,0.15,0.659,0.451,0.332,0.209,0.184
0.207,0.055,-0.152,-0.13,0.179,-0.048,0.145,0.622,0.463,0.342,0.23,0.204
0.175,0.073,-0.102,-0.124,0.138,-0.015,0.135,0.558,0.416,0.323,0.212,0.191
0.145,0.053,-0.092,-0.099,0.119,-0.019,0.125,0.453,0.349,0.287,0.166,0.16
0.124,0.014,-0.109,-0.068,0.116,-0.047,0.112,0.36,0.265,0.2,0.114,0.13
0.071,-0.016,-0.087,-0.027,0.079,-0.051,0.107,0.25,0.149,0.108,0.057,0.091
0.012,-0.059,-0.071,0.023,0.042,-0.065,0.11,0.166,0.061,0.041,0.001,0.048
-0.02,-0.06,-0.04,0.04,0.01,-0.05,0.11,0.111,0.008,-0.013,-0.058,0.0
-0.043,-0.099,-0.056,0.071,0.007,-0.077,0.113,0.072,-0.031,-0.042,-0.083,-0.005
-0.03,-0.11,-0.08,0.07,0.025,-0.095,0.116,0.052,-0.079,-0.078,-0.099,-0.017
-0.044,-0.12,-0.076,0.082,0.016,-0.098,0.114,0.04,-0.098,-0.108,-0.104,-0.046
-0.071,-0.121,-0.051,0.096,-0.01,-0.086,0.111,0.05,-0.111,-0.11,-0.108,-0.044
-0.057,-0.13,-0.073,0.094,0.008,-0.101,0.108,0.044,-0.127,-0.11,-0.128,-0.045
-0.054,-0.154,-0.1,0.104,0.023,-0.126,0.106,0.038,-0.121,-0.11,-0.123,-0.041
-0.057,-0.137,-0.08,0.097,0.012,-0.108,0.102,0.034,-0.118,-0.11,-0.12,-0.039
-0.064,-0.146,-0.083,0.105,0.01,-0.114,0.1,0.026,-0.115,-0.111,-0.118,-0.042
-0.075,-0.154,-0.079,0.114,0.003,-0.116,0.099,0.028,-0.109,-0.116,-0.113,-0.045
-0.072,-0.15,-0.078,0.112,0.003,-0.114,0.101,0.03,-0.111,-0.12,-0.117,-0.046
-0.064,-0.135,-0.071,0.1,0.004,-0.103,0.099,0.03,-0.134,-0.117,-0.12,-0.041
-0.058,-0.123,-0.065,0.091,0.004,-0.094,0.102,0.029,-0.143,-0.114,-0.121,-0.04
-0.063,-0.123,-0.06,0.093,-0.002,-0.091,0.115,0.025,-0.138,-0.111,-0.119,-0.039
-0.062,-0.118,-0.056,0.09,-0.003,-0.087,0.115,0.017,-0.138,-0.109,-0.117,-0.036
-0.064,-0.113,-0.05,0.089,-0.007,-0.081,0.11,0.011,-0.133,-0.104,-0.114,-0.034
-0.065,-0.115,-0.049,0.09,-0.008,-0.081,0.108,0.003,-0.137,-0.107,-0.117,-0.038
-0.062,-0.096,-0.034,0.079,-0.014,-0.065,0.105,-0.002,-0.144,-0.116,-0.124,-0.04
-0.066,-0.1,-0.034,0.083,-0.016,-0.067,0.104,-0.009,-0.148,-0.117,-0.128,-0.041
-0.069,-0.123,-0.054,0.097,-0.007,-0.088,0.099,-0.009,-0.139,-0.109,-0.117,-0.039
-0.104,-0.111,-0.007,0.107,-0.048,-0.059,0.096,-0.012,-0.144,-0.114,-0.117,-0.042
-0.097,-0.106,-0.009,0.102,-0.044,-0.057,0.092,-0.036,-0.175,-0.145,-0.146,-0.058
-0.098,-0.109,-0.011,0.103,-0.043,-0.06,0.089,-0.042,-0.178,-0.144,-0.144,-0.061
-0.112,-0.09,0.022,0.101,-0.067,-0.034,0.083,-0.038,-0.168,-0.133,-0.133,-0.059
-0.091,-0.108,-0.017,0.1,-0.036,-0.062,0.091,-0.041,-0.166,-0.12,-0.117,-0.06
-0.127,-0.129,-0.002,0.128,-0.062,-0.065,0.099,-0.039,-0.164,-0.124,-0.121,-0.06
-0.11,-0.087,0.023,0.098,-0.066,-0.032,0.09,-0.041,-0.165,-0.148,-0.148,-0.059
-0.063,-0.089,-0.026,0.076,-0.018,-0.057,0.082,-0.044,-0.165,-0.143,-0.141,-0.054
-0.062,-0.094,-0.031,0.078,-0.015,-0.062,0.075,-0.046,-0.165,-0.141,-0.139,-0.051
-0.058,-0.082,-0.025,0.07,-0.016,-0.053,0.067,-0.051,-0.163,-0.138,-0.135,-0.048
-0.057,-0.08,-0.023,0.069,-0.017,-0.051,0.065,-0.046,-0.16,-0.136,-0.131,-0.044
-0.056,-0.076,-0.021,0.066,-0.017,-0.048,0.067,-0.04,-0.157,-0.132,-0.127,-0.039
-0.062,-0.096,-0.034,0.079,-0.014,-0.065,0.062,-0.03,-0.154,-0.125,-0.119,-0.052
-0.061,-0.089,-0.028,0.075,-0.016,-0.058,0.071,-0.024,-0.151,-0.115,-0.109,-0.045
-0.063,-0.082,-0.02,0.073,-0.021,-0.05,0.095,-0.016,-0.15,-0.115,-0.103,-0.034
-0.032,-0.053,-0.021,0.043,-0.005,-0.037,0.122,0.019,-0.155,-0.121,-0.116,-0.047
0.017,-0.012,-0.03,-0.002,0.024,-0.021,0.112,0.037,-0.157,-0.098,-0.102,-0.036
0.02,-0.009,-0.029,-0.005,0.025,-0.018,0.06,0.015,-0.162,-0.087,-0.094,-0.026
-0.006,-0.014,-0.008,0.011,0.001,-0.011,0.018,-0.052,-0.163,-0.091,-0.093,-0.024
-0.015,-0.041,-0.026,0.028,0.006,-0.033,0.01,-0.084,-0.168,-0.121,-0.098,-0.027
0.025,-0.035,-0.06,0.005,0.043,-0.047,0.014,-0.095,-0.171,-0.123,-0.097,-0.023
0.038,-0.049,-0.087,0.006,0.063,-0.068,0.019,-0.089,-0.174,-0.127,-0.101,-0.026
-0.006,-0.06,-0.054,0.033,0.025,-0.057,0.024,-0.094,-0.182,-0.131,-0.109,-0.035
-0.037,-0.094,-0.057,0.066,0.011,-0.075,0.029,-0.077,-0.184,-0.139,-0.126,-0.053
-0.058,-0.091,-0.033,0.075,-0.012,-0.062,0.052,-0.078,-0.186,-0.134,-0.123,-0.05
-0.094,-0.071,0.023,0.082,-0.058,-0.024,0.026,-0.076,-0.174,-0.113,-0.102,-0.055
-0.113,-0.087,0.025,0.1,-0.069,-0.031,0.055,-0.032,-0.172,-0.138,-0.127,-0.077
-0.071,0.011,0.083,0.03,-0.077,0.047,0.082,0.032,-0.074,-0.043,-0.056,-0.009
0.042,0.09,0.048,-0.066,-0.003,0.069,0.041,0.031,0.295,0.266,0.139,0.099
0.377,0.678,0.301,-0.528,0.038,0.489,-0.505,-1.127,1.051,1.358,1.056,0.76
0.663,0.742,0.079,-0.703,0.292,0.411,-1.317,-2.3,0.885,1.473,1.351,1.065
0.279,-0.022,-0.301,-0.128,0.29,-0.161,-1.009,-1.754,-0.374,-0.01,0.19,0.302
-0.092,-0.027,0.065,0.059,-0.079,0.019,-0.273,-0.718,-0.493,-0.313,-0.198,-0.013
-0.022,0.026,0.049,-0.002,-0.036,0.037,-0.059,-0.164,-0.087,-0.063,-0.084,0.01
-0.055,-0.075,-0.02,0.065,-0.017,-0.047,0.034,-0.04,-0.139,-0.132,-0.146,-0.047
-0.052,-0.044,0.007,0.048,-0.029,-0.018,0.056,0.0,-0.102,-0.078,-0.098,-0.032
-0.048,-0.073,-0.026,0.06,-0.011,-0.049,0.07,0.048,-0.113,-0.108,-0.128,-0.075
-0.071,-0.05,0.021,0.061,-0.046,-0.014,0.082,0.059,-0.096,-0.08,-0.107,-0.056
-0.04,-0.066,-0.027,0.053,-0.006,-0.046,0.085,0.083,-0.087,-0.087,-0.114,-0.06
-0.023,-0.05,-0.027,0.037,0.002,-0.038,0.094,0.086,-0.089,-0.077,-0.102,-0.054
-0.029,-0.042,-0.013,0.036,-0.008,-0.027,0.093,0.104,-0.071,-0.07,-0.094,-0.05
-0.05,-0.042,0.008,0.046,-0.029,-0.016,0.105,0.111,-0.054,-0.065,-0.092,-0.051
-0.033,-0.026,0.007,0.029,-0.019,-0.009,0.106,0.128,-0.043,-0.05,-0.077,-0.044
-0.061,-0.024,0.036,0.042,-0.048,0.006,0.106,0.147,-0.034,-0.045,-0.072,-0.046
-0.065,-0.023,0.042,0.044,-0.053,0.009,0.101,0.166,-0.002,-0.027,-0.058,-0.037
-0.031,-0.008,0.023,0.019,-0.027,0.008,0.1,0.19,0.036,-0.007,-0.051,-0.028
0.003,0.025,0.022,-0.014,-0.009,0.023,0.094,0.201,0.063,0.004,-0.05,-0.018
0.036,0.052,0.016,-0.044,0.01,0.034,0.098,0.254,0.08,0.02,-0.047,-0.006
0.06,0.049,-0.011,-0.054,0.035,0.019,0.108,0.305,0.126,0.062,-0.021,0.009
0.102,0.045,-0.057,-0.073,0.08,-0.006,0.112,0.353,0.171,0.09,0.013,0.021
0.12,0.061,-0.059,-0.09,0.089,0.001,0.139,0.429,0.227,0.125,0.034,0.034
0.14,0.089,-0.051,-0.114,0.095,0.019,0.144,0.478,0.265,0.158,0.046,0.045
0.164,0.125,-0.039,-0.144,0.101,0.043,0.132,0.54,0.312,0.205,0.083,0.066
0.178,0.147,-0.032,-0.162,0.105,0.057,0.126,0.585,0.367,0.25,0.117,0.091
0.165,0.132,-0.033,-0.148,0.099,0.05,0.117,0.588,0.389,0.268,0.149,0.118
0.196,0.142,-0.053,-0.169,0.124,0.045,0.111,0.576,0.4,0.285,0.175,0.135
0.199,0.159,-0.04,-0.179,0.12,0.059,0.099,0.54,0.388,0.281,0.181,0.141
0.186,0.151,-0.035,-0.168,0.11,0.057,0.093,0.471,0.358,0.263,0.181,0.15
0.21,0.165,-0.045,-0.187,0.127,0.06,0.087,0.369,0.283,0.213,0.14,0.122
0.106,0.116,0.01,-0.112,0.048,0.063,0.081,0.262,0.186,0.138,0.083,0.071
0.056,0.076,0.02,-0.066,0.018,0.047,0.076,0.167,0.101,0.074,0.009,0.015
0.036,0.067,0.031,-0.052,0.002,0.049,0.071,0.086,-0.001,0.003,-0.066,-0.04
-0.044,0.012,0.055,0.016,-0.049,0.033,0.066,0.038,-0.051,-0.052,-0.091,-0.061
-0.051,-0.017,0.034,0.033,-0.042,0.008,0.061,0.01,-0.089,-0.087,-0.114,-0.077
-0.056,-0.047,0.009,0.051,-0.032,-0.019,0.057,-0.018,-0.124,-0.11,-0.141,-0.1
-0.101,-0.071,0.03,0.086,-0.065,-0.02,0.052,-0.029,-0.126,-0.114,-0.143,-0.1
-0.109,-0.037,0.072,0.073,-0.091,0.017,0.05,-0.059,-0.15,-0.129,-0.146,-0.099
-0.088,-0.04,0.048,0.064,-0.068,0.004,0.05,-0.075,-0.147,-0.129,-0.144,-0.103
-0.09,-0.067,0.023,0.078,-0.056,-0.022,0.051,-0.047,-0.153,-0.138,-0.156,-0.107
-0.083,-0.046,0.037,0.064,-0.06,-0.004,0.048,-0.043,-0.17,-0.146,-0.167,-0.112
-0.117,-0.052,0.065,0.084,-0.091,0.007,0.062,-0.038,-0.16,-0.145,-0.164,-0.114
-0.137,-0.064,0.073,0.1,-0.105,0.004,0.071,-0.034,-0.161,-0.162,-0.163,-0.111
-0.086,-0.057,0.029,0.071,-0.057,-0.014,0.062,-0.029,-0.156,-0.158,-0.159,-0.108
-0.061,-0.055,0.007,0.058,-0.033,-0.024,0.061,-0.025,-0.154,-0.154,-0.16,-0.105
-0.097,-0.052,0.045,0.074,-0.071,-0.003,0.053,-0.042,-0.17,-0.154,-0.172,-0.103
-0.106,-0.041,0.066,0.073,-0.086,0.012,0.053,-0.039,-0.176,-0.148,-0.176,-0.099
-0.094,-0.027,0.067,0.06,-0.08,0.019,0.04,-0.045,-0.174,-0.155,-0.175,-0.103
-0.103,-0.031,0.072,0.067,-0.087,0.02,0.033,-0.054,-0.176,-0.157,-0.172,-0.11
-0.114,-0.046,0.068,0.08,-0.091,0.011,0.051,-0.046,-0.174,-0.152,-0.17,-0.11
-0.125,-0.054,0.071,0.089,-0.098,0.008,0.045,-0.071,-0.176,-0.165,-0.17,-0.11
-0.109,-0.039,0.07,0.074,-0.089,0.015,0.04,-0.093,-0.169,-0.172,-0.165,-0.11
-0.13,-0.061,0.069,0.095,-0.099,0.004,0.037,-0.088,-0.174,-0.174,-0.165,-0.109
-0.162,-0.086,0.076,0.124,-0.119,-0.005,0.03,-0.093,-0.197,-0.177,-0.165,-0.111
-0.16,-0.075,0.085,0.117,-0.122,0.005,0.033,-0.095,-0.201,-0.181,-0.165,-0.114
-0.146,-0.065,0.08,0.105,-0.113,0.007,0.032,-0.095,-0.199,-0.184,-0.164,-0.117
-0.135,-0.063,0.071,0.099,-0.103,0.003,0.03,-0.098,-0.201,-0.19,-0.168,-0.12
-0.134,-0.041,0.093,0.087,-0.113,0.025,0.026,-0.103,-0.199,-0.187,-0.186,-0.118
-0.146,-0.051,0.095,0.098,-0.12,0.022,0.024,-0.104,-0.2,-0.174,-0.191,-0.114
-0.18,-0.085,0.095,0.132,-0.138,0.005,0.021,-0.099,-0.214,-0.203,-0.19,-0.116
-0.181,-0.073,0.108,0.126,-0.144,0.017,0.019,-0.1,-0.216,-0.232,-0.191,-0.115
-0.162,-0.062,0.1,0.112,-0.131,0.019,0.039,-0.099,-0.214,-0.245,-0.19,-0.115
-0.151,-0.052,0.1,0.102,-0.125,0.024,0.052,-0.1,-0.211,-0.254,-0.19,-0.115
-0.133,-0.037,0.095,0.085,-0.114,0.029,0.05,-0.099,-0.209,-0.246,-0.184,-0.108
-0.115,-0.02,0.095,0.067,-0.105,0.037,0.049,-0.095,-0.209,-0.237,-0.17,-0.098
-0.11,-0.023,0.088,0.066,-0.099,0.032,0.063,-0.071,-0.177,-0.239,-0.169,-0.09
-0.092,0.016,0.108,0.038,-0.1,0.062,0.083,-0.056,-0.163,-0.239,-0.169,-0.086
-0.073,0.046,0.118,0.013,-0.096,0.082,0.059,-0.038,-0.164,-0.241,-0.171,-0.091
-0.075,0.02,0.095,0.027,-0.085,0.057,0.002,-0.062,-0.17,-0.243,-0.169,-0.09
-0.077,0.01,0.087,0.033,-0.083,0.048,-0.03,-0.124,-0.203,-0.244,-0.169,-0.089
-0.084,-0.011,0.073,0.047,-0.078,0.03,-0.036,-0.127,-0.218,-0.249,-0.173,-0.092
-0.088,-0.006,0.082,0.047,-0.085,0.038,-0.046,-0.131,-0.221,-0.242,-0.159,-0.08
-0.104,-0.001,0.103,0.052,-0.103,0.051,-0.036,-0.152,-0.246,-0.265,-0.181,-0.096
-0.121,-0.043,0.078,0.082,-0.099,0.018,-0.025,-0.153,-0.248,-0.258,-0.186,-0.11
-0.171,-0.098,0.073,0.134,-0.121,-0.013,-0.008,-0.131,-0.257,-0.279,-0.206,-0.129
-0.161,-0.043,0.118,0.102,-0.139,0.037,-0.002,-0.148,-0.24,-0.242,-0.176,-0.112
-0.13,-0.081,0.049,0.106,-0.089,-0.016,0.007,-0.111,-0.237,-0.264,-0.199,-0.134
-0.183,-0.025,0.157,0.104,-0.17,0.066,0.037,-0.096,-0.206,-0.239,-0.176,-0.126
-0.128,0.005,0.133,0.061,-0.13,0.069,0.085,0.108,0.008,-0.083,-0.087,-0.074
0.074,0.258,0.185,-0.167,-0.056,0.222,-0.13,-0.24,0.66,0.642,0.435,0.27
0.47,0.872,0.402,-0.671,0.034,0.637,-0.916,-1.646,1.32,1.744,1.443,1.003
0.403,0.37,-0.033,-0.386,0.218,0.168,-1.21,-2.105,0.358,0.8,0.86,0.715
-0.124,-0.095,0.029,0.109,-0.076,-0.033,-0.6,-1.293,-0.67,-0.473,-0.226,-0.048
-0.159,0.094,0.254,0.032,-0.207,0.173,-0.185,-0.486,-0.306,-0.262,-0.16,-0.114
-0.113,-0.027,0.085,0.07,-0.099,0.029,-0.075,-0.142,-0.167,-0.227,-0.144,-0.123
-0.155,-0.026,0.129,0.09,-0.141,0.051,0.002,-0.087,-0.17,-0.217,-0.161,-0.121
-0.124,-0.042,0.082,0.083,-0.103,0.02,0.024,-0.025,-0.129,-0.207,-0.157,-0.116
-0.146,-0.061,0.085,0.103,-0.115,0.012,0.042,-0.01,-0.154,-0.223,-0.166,-0.125
-0.123,-0.047,0.076,0.085,-0.099,0.014,0.04,0.011,-0.12,-0.197,-0.143,-0.112
-0.118,-0.061,0.057,0.089,-0.088,-0.002,0.046,0.012,-0.135,-0.222,-0.154,-0.118
-0.106,-0.041,0.064,0.073,-0.085,0.011,0.047,0.028,-0.115,-0.189,-0.135,-0.106
-0.095,-0.048,0.047,0.071,-0.071,0.0,0.05,0.07,-0.102,-0.185,-0.14,-0.109
-0.138,-0.05,0.088,0.094,-0.113,0.019,0.048,0.078,-0.081,-0.169,-0.124,-0.101
-0.153,-0.04,0.112,0.096,-0.132,0.036,0.041,0.077,-0.074,-0.171,-0.12,-0.1
-0.117,-0.01,0.107,0.064,-0.112,0.048,0.037,0.084,-0.05,-0.153,-0.111,-0.093
-0.101,-0.012,0.089,0.056,-0.095,0.038,0.031,0.099,-0.024,-0.125,-0.103,-0.083
-0.08,-0.028,0.052,0.054,-0.066,0.012,0.024,0.119,-0.004,-0.113,-0.093,-0.076
-0.04,0.025,0.065,0.007,-0.053,0.045,0.022,0.147,0.025,-0.097,-0.077,-0.067
-0.015,0.053,0.068,-0.019,-0.042,0.06,0.034,0.177,0.066,-0.076,-0.066,-0.061
-0.006,0.039,0.045,-0.017,-0.026,0.042,0.036,0.227,0.104,-0.044,-0.048,-0.044
0.03,0.069,0.04,-0.05,-0.005,0.054,0.035,0.267,0.137,-0.005,-0.021,-0.019
0.045,0.094,0.049,-0.07,-0.002,0.071,0.036,0.315,0.188,0.031,0.011,0.001
0.016,0.091,0.075,-0.053,-0.03,0.082,0.035,0.374,0.25,0.086,0.052,0.032
0.047,0.113,0.067,-0.08,-0.01,0.09,0.034,0.406,0.291,0.129,0.08,0.052
0.066,0.141,0.075,-0.103,-0.004,0.107,0.02,0.436,0.32,0.161,0.11,0.068
0.066,0.139,0.073,-0.103,-0.004,0.106,0.007,0.423,0.342,0.197,0.145,0.096
0.104,0.181,0.078,-0.143,0.013,0.129,-0.008,0.398,0.332,0.194,0.135,0.103
0.133,0.194,0.062,-0.164,0.035,0.128,-0.013,0.374,0.323,0.196,0.123,0.106
0.121,0.171,0.05,-0.146,0.035,0.11,-0.006,0.299,0.278,0.162,0.114,0.086
0.054,0.147,0.093,-0.101,-0.02,0.12,-0.002,0.213,0.17,0.066,0.055,0.037
0.027,0.1,0.073,-0.064,-0.023,0.086,0.003,0.125,0.062,-0.026,-0.019,-0.009
-0.013,0.074,0.087,-0.031,-0.05,0.08,0.007,0.063,-0.018,-0.102,-0.079,-0.056
-0.077,0.037,0.114,0.02,-0.096,0.076,0.012,0.016,-0.087,-0.164,-0.132,-0.092
-0.082,0.016,0.098,0.033,-0.091,0.057,0.015,-0.021,-0.134,-0.201,-0.161,-0.116
-0.086,0.013,0.099,0.036,-0.093,0.056,0.015,-0.049,-0.163,-0.228,-0.18,-0.13
-0.082,0.006,0.088,0.038,-0.085,0.047,0.015,-0.083,-0.193,-0.251,-0.196,-0.137
-0.098,0.008,0.106,0.045,-0.102,0.057,0.016,-0.087,-0.2,-0.248,-0.188,-0.142
-0.129,-0.018,0.111,0.073,-0.12,0.046,0.011,-0.08,-0.203,-0.253,-0.196,-0.139
-0.118,-0.025,0.093,0.071,-0.105,0.034,0.007,-0.075,-0.211,-0.272,-0.217,-0.14
-0.119,-0.024,0.095,0.071,-0.107,0.035,0.002,-0.07,-0.21,-0.268,-0.209,-0.14
-0.141,-0.047,0.095,0.094,-0.118,0.024,0.001,-0.062,-0.209,-0.265,-0.205,-0.14
-0.139,-0.044,0.095,0.091,-0.116,0.026,0.015,-0.067,-0.205,-0.263,-0.202,-0.139
-0.136,-0.041,0.096,0.088,-0.116,0.027,0.015,-0.086,-0.205,-0.259,-0.195,-0.134
-0.132,-0.039,0.093,0.085,-0.112,0.027,0.01,-0.085,-0.207,-0.263,-0.199,-0.136
-0.112,-0.011,0.101,0.061,-0.107,0.045,0.008,-0.085,-0.214,-0.265,-0.201,-0.132
-0.104,0.001,0.105,0.051,-0.104,0.052,0.003,-0.085,-0.22,-0.265,-0.215,-0.129
-0.102,-0.004,0.098,0.053,-0.1,0.047,0.0,-0.085,-0.223,-0.265,-0.226,-0.131
-0.112,-0.013,0.099,0.063,-0.105,0.043,-0.003,-0.085,-0.228,-0.265,-0.218,-0.126
-0.11,-0.009,0.101,0.059,-0.106,0.046,-0.006,-0.085,-0.231,-0.266,-0.215,-0.126
-0.072,0.016,0.087,0.028,-0.08,0.051,-0.009,-0.096,-0.235,-0.264,-0.21,-0.118
-0.083,0.01,0.093,0.036,-0.088,0.051,-0.012,-0.105,-0.245,-0.269,-0.204,-0.128
-0.118,0.005,0.122,0.056,-0.12,0.063,-0.015,-0.11,-0.256,-0.28,-0.203,-0.151
-0.106,0.0,0.107,0.053,-0.107,0.054,-0.016,-0.113,-0.254,-0.28,-0.197,-0.15
-0.113,-0.008,0.104,0.06,-0.108,0.048,-0.02,-0.116,-0.255,-0.281,-0.197,-0.15
-0.101,-0.009,0.092,0.054,-0.096,0.041,-0.02,-0.114,-0.255,-0.285,-0.189,-0.15
-0.123,-0.04,0.083,0.081,-0.103,0.022,-0.021,-0.118,-0.251,-0.285,-0.194,-0.15
-0.163,-0.022,0.14,0.092,-0.151,0.059,-0.019,-0.134,-0.267,-0.283,-0.218,-0.148
-0.118,0.015,0.133,0.051,-0.125,0.074,-0.021,-0.136,-0.269,-0.278,-0.211,-0.142
-0.101,0.012,0.113,0.044,-0.107,0.063,-0.014,-0.133,-0.264,-0.276,-0.2,-0.138
-0.112,0.0,0.112,0.056,-0.113,0.056,-0.008,-0.131,-0.261,-0.272,-0.193,-0.134
-0.112,0.009,0.121,0.052,-0.117,0.065,-0.032,-0.128,-0.255,-0.267,-0.187,-0.128
-0.111,0.05,0.16,0.03,-0.136,0.105,-0.019,-0.13,-0.255,-0.265,-0.183,-0.125
-0.102,0.026,0.128,0.038,-0.115,0.077,0.003,-0.116,-0.243,-0.253,-0.175,-0.113
-0.092,0.036,0.128,0.028,-0.111,0.082,0.017,-0.098,-0.235,-0.241,-0.172,-0.101
-0.091,0.049,0.14,0.021,-0.116,0.094,0.026,-0.067,-0.207,-0.224,-0.164,-0.085
-0.068,0.041,0.109,0.013,-0.089,0.075,-0.018,-0.045,-0.196,-0.226,-0.165,-0.085
-0.041,0.119,0.16,-0.04,-0.101,0.14,-0.06,-0.113,-0.222,-0.24,-0.156,-0.105
-0.046,0.079,0.125,-0.017,-0.086,0.102,-0.067,-0.157,-0.242,-0.249,-0.159,-0.113
-0.015,0.063,0.078,-0.024,-0.046,0.07,-0.058,-0.154,-0.248,-0.242,-0.148,-0.108
-0.033,0.069,0.102,-0.019,-0.068,0.086,-0.067,-0.162,-0.247,-0.251,-0.157,-0.11
-0.121,0.018,0.139,0.051,-0.13,0.079,-0.076,-0.181,-0.269,-0.281,-0.189,-0.111
-0.108,0.038,0.146,0.035,-0.127,0.092,-0.072,-0.177,-0.26,-0.27,-0.179,-0.108
-0.131,-0.004,0.128,0.068,-0.13,0.061,-0.057,-0.166,-0.275,-0.282,-0.205,-0.129
-0.167,-0.006,0.16,0.086,-0.163,0.077,-0.054,-0.174,-0.26,-0.251,-0.174,-0.108
-0.136,-0.028,0.108,0.082,-0.122,0.04,-0.031,-0.129,-0.247,-0.276,-0.197,-0.129
-0.14,0.061,0.202,0.039,-0.171,0.131,0.022,-0.098,-0.213,-0.218,-0.155,-0.096
-0.056,0.09,0.146,-0.017,-0.101,0.118,0.03,0.055,0.061,-0.022,-0.041,-0.036
0.196,0.527,0.331,-0.362,-0.068,0.429,-0.349,-0.696,0.789,0.901,0.66,0.429
0.569,0.993,0.424,-0.781,0.072,0.708,-1.231,-2.105,1.2,1.741,1.48,1.065
0.405,0.28,-0.125,-0.342,0.265,0.077,-1.318,-2.077,0.055,0.473,0.599,0.557
-0.078,-0.017,0.061,0.048,-0.07,0.022,-0.556,-1.095,-0.694,-0.508,-0.271,-0.068
-0.126,0.135,0.261,-0.005,-0.194,0.197,-0.187,-0.377,-0.255,-0.228,-0.157,-0.064
-0.114,0.003,0.117,0.056,-0.116,0.06,-0.08,-0.123,-0.198,-0.242,-0.195,-0.095
-0.114,0.036,0.151,0.038,-0.133,0.093,-0.017,-0.079,-0.177,-0.201,-0.177,-0.081
-0.122,-0.013,0.109,0.067,-0.116,0.048,0.001,-0.027,-0.154,-0.204,-0.186,-0.085
-0.144,-0.012,0.132,0.077,-0.138,0.06,0.019,-0.017,-0.171,-0.204,-0.193,-0.095
-0.082,0.047,0.129,0.017,-0.106,0.088,0.015,0.008,-0.142,-0.185,-0.185,-0.098
-0.068,0.072,0.14,-0.002,-0.104,0.106,0.028,0.017,-0.159,-0.196,-0.187,-0.096
-0.064,0.07,0.134,-0.004,-0.099,0.102,0.028,0.031,-0.125,-0.175,-0.162,-0.087
-0.058,0.053,0.111,0.002,-0.085,0.082,0.036,0.039,-0.117,-0.18,-0.162,-0.088
-0.054,0.06,0.115,-0.003,-0.085,0.087,0.035,0.058,-0.091,-0.162,-0.146,-0.078
-0.071,0.05,0.122,0.011,-0.097,0.085,0.034,0.087,-0.073,-0.155,-0.144,-0.077
-0.076,0.058,0.134,0.009,-0.106,0.096,0.036,0.097,-0.053,-0.136,-0.135,-0.069
-0.052,0.081,0.133,-0.015,-0.092,0.107,0.034,0.119,-0.031,-0.131,-0.128,-0.065
-0.028,0.069,0.097,-0.021,-0.063,0.083,0.038,0.159,-0.003,-0.119,-0.118,-0.059
-0.001,0.115,0.116,-0.058,-0.059,0.115,0.04,0.182,0.023,-0.097,-0.104,-0.053
0.013,0.153,0.139,-0.083,-0.064,0.146,0.041,0.229,0.058,-0.06,-0.082,-0.048
0.032,0.143,0.111,-0.088,-0.04,0.127,0.039,0.295,0.106,-0.028,-0.063,-0.026
0.036,0.149,0.113,-0.092,-0.039,0.131,0.047,0.345,0.14,-0.002,-0.041,-0.001
0.047,0.156,0.108,-0.102,-0.031,0.132,0.06,0.416,0.201,0.046,0.003,0.014
0.065,0.172,0.107,-0.118,-0.021,0.139,0.056,0.474,0.263,0.095,0.035,0.036
0.091,0.196,0.105,-0.144,-0.007,0.15,0.05,0.508,0.303,0.139,0.07,0.059
0.143,0.249,0.106,-0.196,0.018,0.177,0.045,0.546,0.339,0.176,0.111,0.089
0.155,0.268,0.113,-0.211,0.02,0.19,0.038,0.541,0.341,0.196,0.137,0.113
0.157,0.256,0.099,-0.207,0.029,0.177,0.034,0.483,0.324,0.198,0.139,0.122
0.15,0.249,0.099,-0.2,0.026,0.174,0.023,0.418,0.293,0.185,0.119,0.127
0.122,0.201,0.079,-0.162,0.021,0.14,0.01,0.34,0.24,0.142,0.107,0.108
0.078,0.17,0.091,-0.124,-0.007,0.13,0.001,0.234,0.148,0.053,0.046,0.062
0.022,0.185,0.163,-0.104,-0.071,0.174,0.0,0.133,0.033,-0.043,-0.042,-0.004
-0.027,0.14,0.167,-0.057,-0.098,0.154,0.0,0.057,-0.037,-0.1,-0.088,-0.048
-0.062,0.094,0.155,-0.016,-0.109,0.124,0.0,0.001,-0.102,-0.156,-0.131,-0.072
-0.063,0.089,0.152,-0.013,-0.107,0.12,0.0,-0.039,-0.16,-0.191,-0.165,-0.097
-0.07,0.074,0.143,-0.002,-0.107,0.108,-0.001,-0.059,-0.169,-0.196,-0.164,-0.091
-0.084,0.048,0.132,0.018,-0.108,0.09,-0.01,-0.069,-0.179,-0.206,-0.169,-0.093
-0.075,0.074,0.149,0.001,-0.112,0.111,-0.012,-0.088,-0.204,-0.231,-0.196,-0.112
-0.072,0.076,0.148,-0.002,-0.111,0.112,-0.01,-0.091,-0.213,-0.237,-0.201,-0.108
-0.073,0.034,0.106,0.019,-0.09,0.07,-0.01,-0.09,-0.215,-0.233,-0.199,-0.106
-0.083,0.072,0.155,0.005,-0.119,0.113,-0.006,-0.108,-0.221,-0.251,-0.204,-0.115
-0.087,0.093,0.18,-0.004,-0.134,0.137,-0.004,-0.111,-0.215,-0.256,-0.205,-0.113
-0.101,0.065,0.165,0.018,-0.133,0.115,-0.007,-0.092,-0.206,-0.255,-0.205,-0.108
-0.091,0.079,0.17,0.005,-0.131,0.124,-0.012,-0.082,-0.203,-0.252,-0.2,-0.108
-0.055,0.104,0.159,-0.025,-0.107,0.131,-0.018,-0.091,-0.191,-0.249,-0.2,-0.098
-0.068,0.096,0.165,-0.014,-0.117,0.13,-0.024,-0.091,-0.201,-0.25,-0.199,-0.108
-0.102,0.079,0.181,0.011,-0.141,0.129,-0.022,-0.094,-0.226,-0.245,-0.195,-0.135
-0.104,0.081,0.185,0.011,-0.145,0.133,-0.02,-0.096,-0.22,-0.24,-0.195,-0.131
-0.036,0.122,0.158,-0.044,-0.097,0.14,-0.019,-0.09,-0.214,-0.235,-0.193,-0.124
-0.048,0.128,0.176,-0.04,-0.112,0.152,-0.017,-0.092,-0.213,-0.232,-0.188,-0.12
-0.084,0.104,0.188,-0.01,-0.136,0.145,-0.012,-0.088,-0.203,-0.225,-0.185,-0.112
-0.045,0.114,0.159,-0.034,-0.102,0.136,-0.023,-0.098,-0.216,-0.231,-0.182,-0.112
-0.056,0.104,0.159,-0.024,-0.108,0.131,-0.041,-0.12,-0.231,-0.246,-0.177,-0.115
-0.06,0.097,0.157,-0.019,-0.109,0.127,-0.04,-0.12,-0.23,-0.244,-0.175,-0.115
-0.07,0.083,0.153,-0.007,-0.111,0.117,-0.039,-0.123,-0.229,-0.246,-0.179,-0.117
-0.102,0.069,0.171,0.017,-0.137,0.12,-0.035,-0.126,-0.231,-0.25,-0.18,-0.121
-0.075,0.12,0.195,-0.023,-0.135,0.157,-0.036,-0.124,-0.229,-0.249,-0.18,-0.12
-0.062,0.12,0.182,-0.029,-0.123,0.151,-0.032,-0.126,-0.233,-0.253,-0.18,-0.117
-0.097,0.065,0.162,0.016,-0.129,0.113,-0.031,-0.124,-0.238,-0.255,-0.18,-0.112
-0.089,0.084,0.173,0.002,-0.131,0.128,-0.025,-0.126,-0.235,-0.256,-0.178,-0.11
-0.071,0.131,0.202,-0.031,-0.136,0.166,-0.028,-0.123,-0.243,-0.255,-0.174,-0.106
-0.081,0.127,0.208,-0.023,-0.145,0.167,-0.055,-0.126,-0.252,-0.255,-0.17,-0.101
-0.078,0.125,0.202,-0.024,-0.141,0.164,-0.048,-0.128,-0.248,-0.255,-0.167,-0.099
-0.087,0.12,0.206,-0.017,-0.146,0.162,-0.033,-0.131,-0.245,-0.245,-0.162,-0.093
-0.088,0.117,0.205,-0.015,-0.147,0.161,-0.029,-0.122,-0.246,-0.228,-0.16,-0.085
-0.048,0.155,0.203,-0.054,-0.126,0.179,-0.017,-0.069,-0.231,-0.219,-0.149,-0.08
-0.035,0.174,0.209,-0.07,-0.122,0.192,0.001,-0.053,-0.198,-0.212,-0.132,-0.071
-0.013,0.185,0.198,-0.086,-0.106,0.191,-0.011,-0.043,-0.168,-0.21,-0.138,-0.074
-0.026,0.187,0.213,-0.081,-0.12,0.2,-0.064,-0.081,-0.19,-0.212,-0.132,-0.074
-0.008,0.158,0.166,-0.075,-0.088,0.162,-0.086,-0.145,-0.228,-0.241,-0.137,-0.075
0.026,0.158,0.132,-0.092,-0.053,0.145,-0.083,-0.146,-0.23,-0.26,-0.135,-0.076
-0.012,0.136,0.147,-0.062,-0.08,0.141,-0.085,-0.145,-0.252,-0.267,-0.132,-0.072
-0.001,0.142,0.143,-0.071,-0.072,0.142,-0.072,-0.173,-0.267,-0.278,-0.154,-0.084
-0.024,0.141,0.165,-0.059,-0.095,0.153,-0.075,-0.158,-0.25,-0.271,-0.159,-0.093
-0.058,0.115,0.173,-0.028,-0.116,0.144,-0.062,-0.13,-0.255,-0.282,-0.177,-0.1
-0.066,0.134,0.2,-0.034,-0.133,0.167,-0.063,-0.156,-0.231,-0.244,-0.145,-0.078
-0.081,0.055,0.135,0.013,-0.108,0.095,-0.054,-0.109,-0.242,-0.276,-0.18,-0.097
-0.093,0.149,0.242,-0.028,-0.168,0.195,-0.008,-0.084,-0.187,-0.214,-0.115,-0.065
-0.041,0.172,0.213,-0.066,-0.128,0.193,0.011,0.056,0.078,-0.024,0.007,-0.014
0.224,0.603,0.379,-0.414,-0.077,0.491,-0.338,-0.686,0.781,0.864,0.689,0.455
0.598,1.024,0.426,-0.812,0.086,0.725,-1.23,-2.157,1.079,1.574,1.44,1.052
0.44,0.317,-0.123,-0.378,0.281,0.097,-1.324,-2.118,-0.078,0.307,0.54,0.523
-0.06,0.054,0.113,0.003,-0.087,0.083,-0.541,-1.054,-0.672,-0.52,-0.231,-0.07
-0.119,0.188,0.307,-0.035,-0.213,0.247,-0.181,-0.331,-0.242,-0.21,-0.096,-0.059
-0.069,0.08,0.15,-0.006,-0.11,0.115,-0.087,-0.093,-0.193,-0.232,-0.144,-0.089
-0.064,0.115,0.179,-0.026,-0.122,0.146,-0.039,-0.054,-0.162,-0.206,-0.115,-0.081
-0.053,0.095,0.148,-0.021,-0.101,0.121,-0.033,-0.011,-0.15,-0.215,-0.132,-0.091
-0.094,0.098,0.192,-0.002,-0.143,0.144,-0.015,0.003,-0.157,-0.212,-0.131,-0.084
-0.083,0.091,0.174,-0.005,-0.129,0.133,-0.016,0.028,-0.135,-0.206,-0.126,-0.076
-0.094,0.077,0.171,0.008,-0.133,0.124,-0.001,0.039,-0.13,-0.21,-0.127,-0.078
-0.104,0.083,0.186,0.01,-0.145,0.134,0.0,0.064,-0.097,-0.186,-0.108,-0.067
-0.07,0.096,0.166,-0.013,-0.118,0.131,0.009,0.071,-0.091,-0.184,-0.105,-0.068
-0.03,0.105,0.134,-0.038,-0.082,0.119,0.011,0.079,-0.076,-0.171,-0.083,-0.059
-0.048,0.134,0.182,-0.043,-0.115,0.158,0.016,0.099,-0.078,-0.157,-0.093,-0.056
-0.058,0.134,0.192,-0.038,-0.125,0.162,0.021,0.118,-0.044,-0.126,-0.072,-0.047
-0.053,0.11,0.164,-0.029,-0.109,0.137,0.024,0.136,-0.013,-0.126,-0.059,-0.041
-0.022,0.137,0.159,-0.058,-0.09,0.148,0.025,0.164,0.018,-0.099,-0.05,-0.034
0.051,0.185,0.134,-0.119,-0.042,0.159,0.026,0.201,0.043,-0.077,-0.04,-0.029
0.076,0.202,0.126,-0.139,-0.025,0.163,0.03,0.247,0.065,-0.057,-0.028,-0.024
0.091,0.195,0.104,-0.143,-0.007,0.149,0.03,0.302,0.111,-0.022,-0.013,-0.021
0.108,0.207,0.099,-0.158,0.004,0.153,0.028,0.351,0.157,0.013,0.001,-0.014
0.158,0.202,0.043,-0.18,0.057,0.122,0.025,0.418,0.207,0.052,0.042,0.01
0.185,0.22,0.034,-0.203,0.075,0.127,0.022,0.475,0.252,0.083,0.073,0.035
0.176,0.247,0.071,-0.212,0.053,0.159,0.019,0.522,0.306,0.135,0.108,0.064
0.209,0.257,0.049,-0.233,0.08,0.152,0.016,0.539,0.345,0.174,0.141,0.089
0.225,0.265,0.039,-0.245,0.093,0.151,0.014,0.524,0.36,0.192,0.163,0.113
0.217,0.255,0.037,-0.237,0.09,0.146,0.006,0.512,0.356,0.191,0.18,0.128
0.226,0.276,0.05,-0.251,0.088,0.163,-0.017,0.45,0.323,0.173,0.169,0.117
0.201,0.25,0.049,-0.226,0.076,0.149,-0.011,0.351,0.268,0.144,0.14,0.099
0.128,0.2,0.072,-0.164,0.028,0.136,0.008,0.241,0.166,0.075,0.09,0.056
0.095,0.194,0.098,-0.144,-0.002,0.146,0.001,0.149,0.067,-0.003,0.026,0.009
0.061,0.149,0.088,-0.106,-0.014,0.119,-0.002,0.085,-0.01,-0.071,-0.04,-0.027
0.009,0.112,0.104,-0.061,-0.048,0.108,-0.005,0.025,-0.076,-0.132,-0.086,-0.057
-0.028,0.084,0.113,-0.028,-0.071,0.098,-0.011,-0.016,-0.107,-0.158,-0.102,-0.067
-0.043,0.065,0.109,-0.011,-0.076,0.087,-0.007,-0.039,-0.131,-0.165,-0.112,-0.076
-0.035,0.065,0.1,-0.015,-0.068,0.082,-0.008,-0.062,-0.162,-0.196,-0.129,-0.092
-0.03,0.065,0.095,-0.018,-0.063,0.08,-0.01,-0.081,-0.181,-0.214,-0.142,-0.102
-0.022,0.064,0.086,-0.021,-0.055,0.075,-0.011,-0.082,-0.186,-0.208,-0.139,-0.099
-0.022,0.07,0.092,-0.025,-0.057,0.081,-0.015,-0.076,-0.181,-0.211,-0.14,-0.1
-0.032,0.084,0.116,-0.027,-0.074,0.1,-0.014,-0.072,-0.179,-0.209,-0.14,-0.1
-0.029,0.064,0.093,-0.018,-0.061,0.079,-0.011,-0.067,-0.175,-0.21,-0.139,-0.099
-0.024,0.066,0.09,-0.022,-0.057,0.078,-0.008,-0.063,-0.17,-0.225,-0.155,-0.098
-0.01,0.081,0.091,-0.036,-0.051,0.086,-0.006,-0.058,-0.173,-0.231,-0.161,-0.09
-0.007,0.077,0.084,-0.035,-0.046,0.081,-0.002,-0.055,-0.17,-0.229,-0.159,-0.09
-0.034,0.044,0.078,-0.005,-0.056,0.061,-0.001,-0.053,-0.171,-0.23,-0.16,-0.08
-0.025,0.04,0.066,-0.008,-0.046,0.053,0.009,-0.049,-0.168,-0.23,-0.16,-0.086
-0.018,0.095,0.113,-0.039,-0.066,0.104,0.015,-0.047,-0.165,-0.229,-0.159,-0.117
-0.034,0.073,0.106,-0.02,-0.07,0.089,0.008,-0.043,-0.165,-0.226,-0.156,-0.114
-0.019,0.054,0.073,-0.018,-0.046,0.063,0.005,-0.052,-0.164,-0.221,-0.154,-0.104
0.002,0.074,0.071,-0.038,-0.035,0.072,0.0,-0.064,-0.186,-0.219,-0.155,-0.1
-0.021,0.063,0.084,-0.021,-0.053,0.073,-0.005,-0.065,-0.191,-0.213,-0.149,-0.093
-0.041,0.064,0.105,-0.012,-0.073,0.084,-0.009,-0.08,-0.189,-0.211,-0.151,-0.096
-0.031,0.052,0.082,-0.011,-0.057,0.066,-0.013,-0.081,-0.19,-0.207,-0.147,-0.094
-0.039,0.059,0.098,-0.01,-0.069,0.078,-0.018,-0.076,-0.181,-0.204,-0.138,-0.095
-0.017,0.092,0.11,-0.038,-0.064,0.1,-0.019,-0.101,-0.203,-0.231,-0.159,-0.11
-0.023,0.072,0.095,-0.025,-0.059,0.084,-0.011,-0.109,-0.209,-0.24,-0.167,-0.117
-0.021,0.069,0.091,-0.024,-0.056,0.08,-0.003,-0.099,-0.198,-0.229,-0.16,-0.113
0.003,0.066,0.063,-0.035,-0.03,0.064,0.002,-0.095,-0.194,-0.227,-0.159,-0.111
-0.012,0.054,0.065,-0.021,-0.039,0.059,0.004,-0.089,-0.185,-0.219,-0.154,-0.11
0.004,0.08,0.076,-0.042,-0.036,0.077,-0.004,-0.081,-0.181,-0.213,-0.15,-0.103
-0.014,0.07,0.085,-0.028,-0.05,0.077,-0.002,-0.069,-0.173,-0.202,-0.147,-0.092
-0.02,0.087,0.107,-0.034,-0.064,0.097,0.02,-0.054,-0.162,-0.192,-0.138,-0.082
0.001,0.138,0.137,-0.07,-0.068,0.137,0.053,-0.033,-0.153,-0.183,-0.115,-0.073
0.002,0.152,0.15,-0.077,-0.075,0.151,0.066,-0.015,-0.144,-0.167,-0.102,-0.061
0.009,0.145,0.135,-0.077,-0.063,0.14,0.029,-0.022,-0.147,-0.161,-0.108,-0.055
0.006,0.149,0.143,-0.078,-0.069,0.146,-0.022,-0.052,-0.143,-0.15,-0.102,-0.052
0.033,0.141,0.108,-0.087,-0.038,0.124,-0.053,-0.079,-0.158,-0.168,-0.107,-0.059
0.048,0.142,0.094,-0.095,-0.023,0.118,-0.057,-0.106,-0.189,-0.181,-0.105,-0.058
0.031,0.113,0.083,-0.072,-0.026,0.098,-0.049,-0.094,-0.181,-0.189,-0.105,-0.062
-0.013,0.064,0.077,-0.026,-0.045,0.07,-0.039,-0.091,-0.185,-0.212,-0.12,-0.067
-0.027,0.052,0.08,-0.013,-0.054,0.066,-0.037,-0.091,-0.201,-0.198,-0.109,-0.065
-0.018,0.041,0.06,-0.012,-0.039,0.05,-0.024,-0.075,-0.217,-0.219,-0.129,-0.094
-0.025,0.059,0.084,-0.017,-0.055,0.072,-0.024,-0.091,-0.204,-0.172,-0.097,-0.073
-0.037,0.0,0.037,0.018,-0.037,0.018,-0.01,-0.052,-0.206,-0.205,-0.136,-0.099
-0.054,0.074,0.128,-0.01,-0.091,0.101,0.026,-0.022,-0.14,-0.15,-0.094,-0.065
0.012,0.081,0.068,-0.047,-0.029,0.074,0.051,0.166,0.109,0.027,-0.001,-0.02
0.261,0.46,0.199,-0.361,0.03,0.329,-0.262,-0.418,0.851,0.922,0.673,0.43
0.625,0.92,0.294,-0.772,0.165,0.607,-1.056,-1.8,1.302,1.815,1.547,1.106
0.453,0.309,-0.144,-0.381,0.299,0.082,-1.166,-1.974,0.123,0.541,0.669,0.603
-0.021,0.038,0.059,-0.008,-0.041,0.048,-0.509,-1.082,-0.625,-0.441,-0.203,-0.036
-0.047,0.138,0.185,-0.046,-0.116,0.162,-0.164,-0.327,-0.174,-0.142,-0.073,-0.016
-0.002,0.002,0.004,0.0,-0.003,0.003,-0.051,-0.057,-0.104,-0.179,-0.119,-0.054
-0.003,0.049,0.051,-0.023,-0.027,0.05,-0.001,-0.02,-0.1,-0.142,-0.087,-0.055
0.029,0.033,0.004,-0.032,0.013,0.018,0.011,0.045,-0.085,-0.149,-0.096,-0.061
0.018,0.042,0.024,-0.03,-0.003,0.033,0.032,0.074,-0.093,-0.145,-0.093,-0.057
0.015,0.013,-0.002,-0.014,0.008,0.005,0.027,0.082,-0.068,-0.129,-0.084,-0.051
0.006,0.016,0.011,-0.011,-0.003,0.013,0.036,0.09,-0.076,-0.138,-0.092,-0.054
0.001,0.053,0.052,-0.027,-0.026,0.052,0.034,0.122,-0.05,-0.112,-0.076,-0.045
0.002,0.038,0.036,-0.02,-0.017,0.036,0.037,0.127,-0.045,-0.115,-0.081,-0.046
0.009,0.044,0.035,-0.027,-0.013,0.039,0.035,0.132,-0.01,-0.079,-0.054,-0.038
0.02,0.033,0.013,-0.027,0.003,0.023,0.041,0.139,0.007,-0.059,-0.055,-0.036
0.023,0.04,0.017,-0.032,0.003,0.028,0.052,0.155,0.03,-0.043,-0.055,-0.03
0.032,0.075,0.043,-0.054,-0.005,0.059,0.049,0.182,0.057,-0.028,-0.049,-0.023
0.036,0.082,0.046,-0.059,-0.005,0.063,0.047,0.203,0.077,0.0,-0.014,-0.003
0.036,0.073,0.037,-0.055,-0.001,0.055,0.045,0.235,0.113,0.014,0.016,0.011
0.078,0.076,-0.001,-0.077,0.039,0.037,0.045,0.27,0.142,0.043,0.028,0.019
0.074,0.062,-0.012,-0.068,0.043,0.025,0.041,0.314,0.188,0.083,0.054,0.032
0.112,0.096,-0.016,-0.104,0.064,0.04,0.04,0.359,0.232,0.116,0.084,0.053
0.15,0.111,-0.039,-0.13,0.094,0.036,0.042,0.405,0.279,0.157,0.108,0.076
0.162,0.128,-0.034,-0.145,0.098,0.047,0.041,0.461,0.338,0.207,0.143,0.098
0.198,0.171,-0.027,-0.184,0.112,0.072,0.037,0.499,0.385,0.255,0.19,0.131
0.196,0.161,-0.035,-0.178,0.115,0.063,0.033,0.499,0.419,0.285,0.224,0.161
0.213,0.181,-0.032,-0.197,0.122,0.074,0.03,0.485,0.425,0.317,0.254,0.18
0.207,0.175,-0.031,-0.191,0.119,0.072,0.025,0.476,0.414,0.313,0.255,0.192
0.219,0.165,-0.054,-0.192,0.136,0.055,0.027,0.447,0.398,0.295,0.252,0.184
0.19,0.161,-0.028,-0.175,0.109,0.066,0.03,0.362,0.334,0.258,0.224,0.148
0.117,0.111,-0.006,-0.114,0.061,0.053,0.033,0.265,0.225,0.149,0.139,0.098
0.078,0.069,-0.009,-0.073,0.043,0.03,0.036,0.206,0.123,0.07,0.07,0.063
0.073,0.042,-0.031,-0.057,0.052,0.005,0.039,0.145,0.035,0.01,0.023,0.041
0.066,0.029,-0.037,-0.047,0.051,-0.004,0.044,0.084,-0.018,-0.061,-0.022,0.007
0.018,0.009,-0.009,-0.013,0.014,0.0,0.045,0.057,-0.053,-0.093,-0.055,-0.025
0.003,-0.011,-0.014,0.004,0.009,-0.012,0.045,0.043,-0.084,-0.118,-0.083,-0.044
-0.007,-0.011,-0.003,0.009,-0.002,-0.007,0.045,0.031,-0.095,-0.124,-0.088,-0.046
-0.016,-0.036,-0.02,0.026,0.002,-0.028,0.045,0.02,-0.097,-0.128,-0.084,-0.044
0.004,-0.055,-0.059,0.026,0.032,-0.057,0.045,0.018,-0.102,-0.135,-0.086,-0.046
0.011,-0.034,-0.045,0.011,0.029,-0.039,0.051,0.021,-0.119,-0.13,-0.081,-0.045
-0.015,-0.043,-0.028,0.03,0.007,-0.036,0.057,0.019,-0.116,-0.129,-0.08,-0.043
-0.026,-0.045,-0.019,0.035,-0.003,-0.031,0.06,0.021,-0.108,-0.125,-0.08,-0.035
-0.04,-0.045,-0.005,0.043,-0.017,-0.025,0.06,0.028,-0.105,-0.123,-0.075,-0.029
-0.07,-0.071,-0.001,0.07,-0.034,-0.036,0.06,0.025,-0.098,-0.12,-0.07,-0.022
-0.08,-0.056,0.024,0.068,-0.052,-0.016,0.06,0.028,-0.096,-0.118,-0.065,-0.016
-0.091,-0.049,0.042,0.07,-0.066,-0.003,0.06,0.048,-0.094,-0.115,-0.062,-0.01
-0.066,-0.036,0.03,0.051,-0.048,-0.003,0.06,0.047,-0.096,-0.115,-0.056,-0.005
-0.055,-0.025,0.03,0.04,-0.042,0.002,0.062,0.041,-0.095,-0.115,-0.055,-0.005
-0.066,-0.053,0.013,0.059,-0.04,-0.02,0.066,0.038,-0.095,-0.115,-0.055,-0.004
-0.071,-0.039,0.032,0.054,-0.051,-0.003,0.065,0.032,-0.095,-0.115,-0.055,-0.006
-0.068,-0.039,0.029,0.053,-0.048,-0.005,0.065,0.03,-0.096,-0.115,-0.055,-0.003
-0.081,-0.061,0.02,0.071,-0.05,-0.02,0.065,0.023,-0.11,-0.117,-0.054,-0.013
-0.1,-0.062,0.038,0.081,-0.069,-0.012,0.065,0.024,-0.115,-0.115,-0.066,-0.031
-0.061,-0.065,-0.004,0.063,-0.029,-0.034,0.065,-0.002,-0.117,-0.121,-0.068,-0.027
-0.077,-0.062,0.015,0.069,-0.046,-0.023,0.063,-0.026,-0.121,-0.127,-0.061,-0.02
-0.091,-0.063,0.028,0.076,-0.059,-0.017,0.059,-0.016,-0.12,-0.122,-0.057,-0.016
-0.097,-0.063,0.033,0.08,-0.065,-0.015,0.056,-0.008,-0.119,-0.12,-0.05,-0.01
-0.075,-0.05,0.025,0.062,-0.05,-0.012,0.053,-0.001,-0.114,-0.116,-0.045,-0.005
-0.063,-0.042,0.02,0.052,-0.041,-0.011,0.048,0.007,-0.116,-0.115,-0.04,0.002
-0.15,-0.057,0.092,0.103,-0.121,0.017,0.067,0.015,-0.109,-0.111,-0.033,0.01
-0.127,-0.033,0.094,0.08,-0.11,0.03,0.099,0.021,-0.084,-0.104,-0.029,0.014
-0.125,-0.026,0.099,0.076,-0.112,0.036,0.109,0.041,-0.089,-0.1,-0.021,0.029
-0.145,-0.054,0.091,0.099,-0.118,0.018,0.087,0.035,-0.082,-0.106,-0.021,0.039
-0.099,0.001,0.1,0.049,-0.1,0.05,0.044,-0.019,-0.078,-0.107,-0.02,0.051
-0.067,0.072,0.139,-0.003,-0.103,0.105,0.014,-0.051,-0.104,-0.109,-0.016,0.062
-0.044,0.045,0.09,-0.001,-0.067,0.067,0.017,-0.059,-0.111,-0.116,-0.017,0.053
-0.068,-0.033,0.035,0.05,-0.051,0.001,0.013,-0.053,-0.119,-0.11,-0.011,0.052
-0.108,-0.07,0.039,0.089,-0.073,-0.015,0.017,-0.042,-0.125,-0.118,-0.016,0.028
-0.132,-0.09,0.042,0.111,-0.087,-0.024,0.014,-0.047,-0.118,-0.103,-0.007,0.026
-0.13,-0.126,0.005,0.128,-0.067,-0.06,0.014,-0.024,-0.144,-0.133,-0.051,0.008
-0.139,-0.108,0.03,0.123,-0.084,-0.038,0.018,-0.041,-0.129,-0.108,-0.034,0.018
-0.102,-0.147,-0.045,0.125,-0.029,-0.095,0.007,-0.011,-0.122,-0.123,-0.04,0.004
-0.101,-0.066,0.035,0.084,-0.068,-0.015,0.052,-0.001,-0.119,-0.108,-0.011,0.004
-0.098,-0.047,0.051,0.072,-0.074,0.002,0.096,0.144,0.087,0.053,0.079,0.056
0.093,0.202,0.109,-0.147,-0.008,0.155,-0.106,-0.24,0.69,0.714,0.538,0.363
0.48,0.847,0.367,-0.663,0.056,0.607,-0.934,-1.712,1.341,1.834,1.539,1.098
0.505,0.395,-0.11,-0.45,0.308,0.142,-1.365,-2.191,0.53,1.071,1.111,0.907
-0.003,-0.193,-0.19,0.098,0.094,-0.191,-0.681,-1.262,-0.561,-0.294,0.002,0.142
-0.181,-0.055,0.126,0.117,-0.153,0.036,-0.166,-0.407,-0.245,-0.144,-0.032,0.058
-0.083,-0.117,-0.034,0.1,-0.024,-0.075,-0.023,-0.031,-0.031,-0.067,-0.012,0.049
-0.082,-0.128,-0.047,0.106,-0.017,-0.087,0.052,0.028,-0.069,-0.092,-0.018,0.031
-0.071,-0.129,-0.058,0.101,-0.006,-0.093,0.052,0.075,-0.024,-0.053,0.004,0.042
-0.097,-0.148,-0.051,0.123,-0.023,-0.099,0.092,0.097,-0.054,-0.078,-0.01,0.028
-0.09,-0.13,-0.04,0.11,-0.025,-0.085,0.081,0.103,-0.022,-0.042,0.024,0.037
-0.068,-0.13,-0.062,0.1,-0.003,-0.096,0.086,0.132,-0.039,-0.064,0.006,0.024
-0.092,-0.113,-0.021,0.103,-0.036,-0.067,0.085,0.141,-0.006,-0.04,0.014,0.035
-0.076,-0.118,-0.042,0.098,-0.017,-0.08,0.083,0.141,0.015,-0.04,0.001,0.033
-0.045,-0.106,-0.061,0.076,0.008,-0.083,0.085,0.164,0.035,-0.019,0.0,0.035
-0.052,-0.108,-0.056,0.08,0.002,-0.082,0.077,0.182,0.045,-0.007,0.019,0.04
-0.057,-0.099,-0.041,0.078,-0.008,-0.07,0.084,0.195,0.061,0.007,0.046,0.048
-0.052,-0.093,-0.041,0.073,-0.006,-0.067,0.088,0.228,0.097,0.031,0.058,0.044
-0.034,-0.104,-0.07,0.069,0.018,-0.086,0.092,0.256,0.117,0.038,0.071,0.063
-0.021,-0.086,-0.065,0.054,0.022,-0.075,0.085,0.284,0.156,0.072,0.093,0.062
-0.035,-0.088,-0.052,0.062,0.009,-0.07,0.085,0.337,0.19,0.102,0.109,0.046
-0.023,-0.065,-0.042,0.044,0.01,-0.053,0.115,0.394,0.234,0.127,0.118,0.083
0.031,-0.033,-0.063,0.001,0.047,-0.048,0.128,0.448,0.279,0.163,0.138,0.104
0.059,-0.034,-0.093,-0.012,0.076,-0.063,0.124,0.516,0.332,0.209,0.178,0.121
0.063,-0.017,-0.08,-0.023,0.072,-0.048,0.121,0.566,0.389,0.258,0.207,0.145
0.089,0.001,-0.088,-0.045,0.089,-0.043,0.113,0.616,0.435,0.3,0.25,0.173
0.139,0.035,-0.103,-0.087,0.121,-0.034,0.109,0.641,0.471,0.334,0.285,0.206
0.152,0.074,-0.078,-0.113,0.114,-0.002,0.102,0.627,0.501,0.364,0.309,0.219
0.135,0.057,-0.079,-0.096,0.107,-0.011,0.098,0.605,0.506,0.377,0.332,0.232
0.155,0.066,-0.09,-0.11,0.122,-0.012,0.092,0.534,0.47,0.359,0.323,0.227
0.136,0.073,-0.063,-0.104,0.099,0.005,0.088,0.434,0.406,0.314,0.297,0.205
0.096,0.031,-0.065,-0.063,0.08,-0.017,0.085,0.336,0.298,0.226,0.232,0.162
0.053,-0.002,-0.055,-0.025,0.054,-0.029,0.082,0.235,0.189,0.14,0.153,0.112
-0.012,-0.062,-0.05,0.037,0.02,-0.056,0.076,0.158,0.104,0.071,0.107,0.065
-0.034,-0.101,-0.068,0.067,0.017,-0.084,0.077,0.121,0.041,0.012,0.074,0.038
-0.093,-0.136,-0.042,0.115,-0.025,-0.089,0.09,0.065,-0.005,-0.01,0.034,0.034
-0.081,-0.128,-0.047,0.105,-0.017,-0.088,0.087,0.022,-0.027,-0.024,0.013,0.011
-0.068,-0.13,-0.062,0.099,-0.003,-0.096,0.081,0.034,-0.046,-0.048,0.008,0.002
-0.107,-0.163,-0.055,0.135,-0.025,-0.109,0.078,0.029,-0.059,-0.049,0.0,0.009
-0.085,-0.135,-0.05,0.11,-0.017,-0.092,0.071,-0.005,-0.069,-0.061,-0.006,-0.008
-0.118,-0.169,-0.051,0.144,-0.033,-0.11,0.071,-0.028,-0.097,-0.086,-0.012,-0.025
-0.096,-0.175,-0.079,0.136,-0.008,-0.126,0.077,-0.017,-0.093,-0.079,-0.018,-0.02
-0.077,-0.157,-0.08,0.117,0.002,-0.118,0.084,0.002,-0.088,-0.073,-0.02,-0.015
-0.085,-0.163,-0.078,0.124,-0.004,-0.12,0.085,0.012,-0.087,-0.07,-0.02,-0.012
-0.076,-0.157,-0.081,0.116,0.003,-0.119,0.085,0.018,-0.081,-0.059,-0.02,-0.005
-0.083,-0.164,-0.082,0.124,0.0,-0.123,0.089,0.034,-0.08,-0.07,-0.02,-0.009
-0.056,-0.141,-0.085,0.099,0.015,-0.113,0.091,0.035,-0.074,-0.089,-0.015,-0.027
-0.074,-0.161,-0.086,0.118,0.006,-0.123,0.089,0.028,-0.072,-0.08,-0.01,-0.032
-0.1,-0.172,-0.073,0.136,-0.013,-0.122,0.083,0.028,-0.067,-0.072,-0.006,-0.026
-0.097,-0.156,-0.059,0.126,-0.019,-0.107,0.075,0.021,-0.065,-0.064,-0.002,-0.024
-0.091,-0.16,-0.069,0.125,-0.011,-0.115,0.07,0.02,-0.071,-0.062,0.004,-0.019
-0.088,-0.161,-0.072,0.125,-0.008,-0.117,0.062,0.013,-0.077,-0.065,0.003,-0.016
-0.09,-0.176,-0.086,0.134,-0.002,-0.131,0.056,0.006,-0.081,-0.066,-0.001,-0.013
-0.09,-0.174,-0.084,0.132,-0.003,-0.129,0.059,-0.001,-0.079,-0.066,0.001,-0.008
-0.09,-0.17,-0.079,0.13,-0.006,-0.124,0.06,-0.008,-0.083,-0.067,-0.001,-0.005
-0.089,-0.168,-0.079,0.129,-0.004,-0.124,0.053,-0.017,-0.099,-0.08,-0.005,-0.002
-0.092,-0.164,-0.071,0.129,-0.01,-0.118,0.05,-0.017,-0.101,-0.081,-0.005,0.003
-0.078,-0.164,-0.086,0.122,0.004,-0.125,0.045,-0.012,-0.1,-0.08,-0.009,0.005
-0.089,-0.155,-0.067,0.122,-0.011,-0.111,0.04,-0.031,-0.101,-0.081,-0.011,0.0
-0.098,-0.152,-0.054,0.125,-0.022,-0.102,0.045,-0.036,-0.1,-0.079,-0.007,0.0
-0.083,-0.144,-0.061,0.114,-0.011,-0.102,0.05,-0.03,-0.099,-0.079,-0.001,0.0
-0.074,-0.141,-0.067,0.107,-0.003,-0.104,0.061,-0.031,-0.085,-0.067,0.006,0.002
-0.08,-0.129,-0.049,0.105,-0.015,-0.089,0.079,-0.024,-0.071,-0.055,0.012,0.009
-0.103,-0.115,-0.012,0.109,-0.045,-0.063,0.101,-0.026,-0.068,-0.054,0.019,0.013
-0.076,-0.099,-0.023,0.088,-0.026,-0.061,0.097,-0.019,-0.07,-0.054,0.026,0.022
-0.076,-0.065,0.012,0.07,-0.044,-0.026,0.057,-0.028,-0.073,-0.057,0.031,0.022
-0.088,-0.052,0.036,0.069,-0.062,-0.007,0.022,-0.07,-0.074,-0.053,0.041,0.035
-0.019,-0.008,0.012,0.013,-0.016,0.002,-0.012,-0.08,-0.078,-0.058,0.027,0.035
-0.005,-0.026,-0.021,0.016,0.008,-0.024,-0.026,-0.088,-0.086,-0.053,0.027,0.029
-0.058,-0.124,-0.066,0.092,0.004,-0.095,-0.016,-0.075,-0.107,-0.082,0.016,0.017
-0.065,-0.12,-0.055,0.093,-0.005,-0.087,-0.005,-0.072,-0.111,-0.094,0.01,0.006
-0.056,-0.173,-0.118,0.115,0.031,-0.145,-0.007,-0.066,-0.111,-0.087,0.004,0.004
-0.08,-0.2,-0.12,0.14,0.02,-0.16,0.009,-0.052,-0.131,-0.1,-0.018,-0.008
-0.067,-0.158,-0.091,0.113,0.012,-0.124,0.003,-0.063,-0.115,-0.063,0.012,0.009
-0.079,-0.178,-0.098,0.128,0.01,-0.138,0.027,-0.029,-0.116,-0.104,-0.021,-0.023
-0.122,-0.114,0.008,0.118,-0.064,-0.053,0.077,0.015,-0.025,-0.013,0.06,0.027
-0.037,-0.096,-0.059,0.067,0.011,-0.078,0.062,0.104,0.275,0.223,0.193,0.097
0.286,0.458,0.172,-0.373,0.057,0.315,-0.376,-0.816,1.008,1.205,0.978,0.641
0.636,0.736,0.099,-0.686,0.268,0.417,-1.236,-2.196,1.115,1.694,1.571,1.157
0.342,-0.016,-0.358,-0.162,0.35,-0.187,-1.15,-1.949,-0.132,0.266,0.515,0.5
-0.123,-0.203,-0.08,0.163,-0.021,-0.141,-0.383,-0.867,-0.515,-0.337,-0.097,0.005
-0.109,-0.108,0.0,0.109,-0.054,-0.054,-0.092,-0.203,-0.049,-0.005,0.069,0.047
-0.072,-0.153,-0.081,0.113,0.005,-0.117,0.009,-0.009,-0.035,-0.053,0.017,0.009
-0.098,-0.126,-0.028,0.112,-0.035,-0.077,0.051,0.031,-0.01,-0.004,0.055,0.032
-0.1,-0.202,-0.103,0.151,0.002,-0.153,0.066,0.072,-0.011,-0.03,0.029,0.012
-0.099,-0.179,-0.08,0.139,-0.009,-0.129,0.072,0.075,-0.013,-0.013,0.037,0.024
-0.096,-0.2,-0.104,0.148,0.005,-0.152,0.085,0.121,0.018,-0.013,0.036,-0.001
-0.119,-0.178,-0.058,0.149,-0.03,-0.118,0.106,0.127,0.017,-0.042,0.028,-0.02
-0.103,-0.148,-0.045,0.126,-0.029,-0.096,0.096,0.133,0.018,-0.013,0.034,0.013
-0.069,-0.148,-0.078,0.109,0.005,-0.113,0.103,0.146,0.026,0.0,0.028,0.023
-0.067,-0.116,-0.049,0.091,-0.009,-0.082,0.098,0.174,0.057,0.016,0.052,0.027
-0.077,-0.135,-0.059,0.106,-0.008,-0.096,0.101,0.193,0.07,0.021,0.053,0.025
-0.077,-0.136,-0.059,0.107,-0.008,-0.097,0.103,0.206,0.093,0.043,0.073,0.041
-0.052,-0.132,-0.08,0.093,0.014,-0.106,0.105,0.241,0.124,0.067,0.09,0.047
-0.053,-0.139,-0.086,0.096,0.017,-0.112,0.105,0.268,0.154,0.084,0.091,0.045
-0.048,-0.124,-0.077,0.086,0.015,-0.1,0.105,0.307,0.189,0.114,0.12,0.058
-0.032,-0.094,-0.063,0.063,0.016,-0.078,0.104,0.344,0.221,0.133,0.133,0.066
-0.003,-0.065,-0.062,0.034,0.03,-0.063,0.108,0.39,0.254,0.154,0.135,0.069
0.04,-0.058,-0.098,0.009,0.07,-0.078,0.125,0.469,0.312,0.204,0.172,0.094
0.074,-0.035,-0.11,-0.019,0.092,-0.072,0.124,0.536,0.373,0.25,0.213,0.121
0.133,0.014,-0.119,-0.073,0.126,-0.052,0.117,0.577,0.409,0.28,0.239,0.139
0.134,0.021,-0.113,-0.077,0.124,-0.046,0.114,0.625,0.452,0.324,0.278,0.167
0.139,0.035,-0.104,-0.087,0.122,-0.035,0.108,0.64,0.49,0.363,0.314,0.192
0.155,0.054,-0.1,-0.104,0.127,-0.023,0.105,0.633,0.504,0.379,0.332,0.215
0.166,0.074,-0.091,-0.12,0.128,-0.008,0.1,0.599,0.497,0.385,0.352,0.232
0.156,0.069,-0.088,-0.112,0.122,-0.009,0.096,0.51,0.449,0.357,0.334,0.213
0.106,0.033,-0.073,-0.069,0.089,-0.02,0.094,0.405,0.367,0.292,0.284,0.175
0.06,-0.004,-0.065,-0.028,0.062,-0.035,0.089,0.3,0.268,0.209,0.216,0.136
-0.012,-0.086,-0.074,0.049,0.031,-0.08,0.086,0.209,0.166,0.121,0.148,0.095
-0.042,-0.112,-0.07,0.077,0.014,-0.09,0.082,0.134,0.089,0.041,0.099,0.044
-0.048,-0.11,-0.062,0.079,0.007,-0.086,0.08,0.087,0.039,0.003,0.053,0.0
-0.067,-0.124,-0.056,0.096,-0.005,-0.09,0.08,0.051,-0.005,-0.015,0.033,-0.023
-0.076,-0.124,-0.048,0.1,-0.014,-0.086,0.08,0.028,-0.018,-0.032,0.029,-0.026
-0.089,-0.135,-0.046,0.112,-0.021,-0.09,0.08,0.023,-0.024,-0.041,0.023,-0.024
-0.084,-0.124,-0.04,0.104,-0.022,-0.081,0.08,0.017,-0.036,-0.048,0.018,-0.026
-0.085,-0.127,-0.042,0.106,-0.021,-0.084,0.075,0.014,-0.042,-0.054,0.012,-0.024
-0.102,-0.138,-0.037,0.12,-0.032,-0.087,0.075,0.008,-0.048,-0.061,0.007,-0.027
-0.087,-0.133,-0.046,0.11,-0.021,-0.089,0.075,0.005,-0.048,-0.057,-0.003,-0.022
-0.116,-0.14,-0.024,0.128,-0.046,-0.082,0.074,0.011,-0.059,-0.07,-0.012,-0.033
-0.15,-0.129,0.02,0.139,-0.085,-0.054,0.081,0.016,-0.071,-0.092,-0.011,-0.06
-0.133,-0.135,-0.002,0.134,-0.065,-0.068,0.085,0.023,-0.067,-0.088,-0.01,-0.06
-0.141,-0.149,-0.009,0.145,-0.066,-0.079,0.078,0.023,-0.063,-0.085,-0.008,-0.055
-0.121,-0.139,-0.018,0.13,-0.052,-0.078,0.074,0.019,-0.061,-0.083,-0.005,-0.054
-0.09,-0.14,-0.05,0.115,-0.02,-0.095,0.068,0.021,-0.054,-0.079,-0.005,-0.049
-0.086,-0.136,-0.05,0.111,-0.017,-0.093,0.061,0.016,-0.054,-0.079,-0.002,-0.052
-0.084,-0.133,-0.049,0.109,-0.017,-0.09,0.069,0.015,-0.065,-0.073,0.0,-0.055
-0.086,-0.134,-0.048,0.11,-0.019,-0.09,0.075,0.015,-0.078,-0.076,0.0,-0.055
-0.08,-0.121,-0.041,0.101,-0.019,-0.081,0.068,0.004,-0.073,-0.068,-0.009,-0.055
-0.085,-0.14,-0.054,0.113,-0.015,-0.097,0.065,-0.018,-0.076,-0.072,-0.021,-0.055
-0.084,-0.132,-0.048,0.109,-0.018,-0.09,0.06,-0.041,-0.095,-0.096,-0.033,-0.055
-0.064,-0.115,-0.051,0.09,-0.006,-0.083,0.056,-0.047,-0.092,-0.093,-0.038,-0.069
-0.056,-0.142,-0.086,0.099,0.015,-0.114,0.051,-0.05,-0.114,-0.115,-0.035,-0.077
-0.043,-0.128,-0.085,0.086,0.021,-0.107,0.045,-0.055,-0.129,-0.127,-0.035,-0.074
-0.038,-0.121,-0.083,0.08,0.023,-0.101,0.04,-0.059,-0.116,-0.114,-0.035,-0.076
-0.05,-0.129,-0.079,0.09,0.015,-0.104,0.035,-0.06,-0.119,-0.116,-0.035,-0.075
-0.048,-0.13,-0.082,0.089,0.017,-0.106,0.028,-0.06,-0.11,-0.107,-0.035,-0.075
-0.061,-0.136,-0.075,0.099,0.008,-0.105,0.026,-0.059,-0.113,-0.107,-0.04,-0.081
-0.05,-0.128,-0.078,0.089,0.014,-0.103,0.031,-0.061,-0.124,-0.111,-0.038,-0.084
-0.024,-0.12,-0.096,0.072,0.036,-0.108,0.03,-0.073,-0.121,-0.105,-0.031,-0.078
-0.041,-0.113,-0.071,0.077,0.015,-0.092,0.036,-0.067,-0.114,-0.099,-0.026,-0.075
-0.052,-0.108,-0.057,0.08,0.003,-0.082,0.034,-0.058,-0.109,-0.094,-0.022,-0.072
-0.063,-0.106,-0.043,0.084,-0.009,-0.074,0.044,-0.049,-0.105,-0.088,-0.013,-0.066
-0.047,-0.077,-0.03,0.062,-0.009,-0.053,0.08,-0.032,-0.105,-0.086,-0.013,-0.066
-0.015,-0.029,-0.014,0.022,0.0,-0.021,0.08,-0.052,-0.116,-0.083,-0.021,-0.058
-0.018,-0.019,-0.001,0.019,-0.008,-0.01,0.043,-0.066,-0.122,-0.086,-0.012,-0.062
-0.022,-0.006,0.016,0.014,-0.019,0.005,-0.004,-0.089,-0.119,-0.076,0.008,-0.057
-0.009,0.024,0.033,-0.008,-0.021,0.029,-0.036,-0.125,-0.12,-0.084,0.015,-0.06
0.005,0.022,0.017,-0.013,-0.006,0.019,-0.039,-0.139,-0.125,-0.081,0.023,-0.052
0.011,-0.044,-0.055,0.017,0.033,-0.049,-0.035,-0.128,-0.15,-0.087,0.004,-0.05
-0.006,-0.083,-0.077,0.045,0.036,-0.08,-0.027,-0.123,-0.152,-0.114,-0.021,-0.091
-0.02,-0.089,-0.068,0.055,0.024,-0.078,-0.025,-0.118,-0.147,-0.124,-0.029,-0.098
-0.025,-0.121,-0.096,0.073,0.036,-0.108,-0.014,-0.103,-0.176,-0.155,-0.054,-0.107
-0.029,-0.092,-0.063,0.061,0.017,-0.077,-0.015,-0.108,-0.151,-0.114,-0.021,-0.089
-0.039,-0.109,-0.069,0.074,0.015,-0.089,0.0,-0.072,-0.162,-0.142,-0.063,-0.115
-0.065,-0.048,0.018,0.056,-0.042,-0.015,0.033,-0.027,-0.087,-0.056,-0.007,-0.081
-0.014,-0.043,-0.028,0.028,0.007,-0.036,0.05,0.133,0.193,0.131,0.111,-0.02
0.278,0.4,0.123,-0.339,0.077,0.261,-0.306,-0.585,0.922,1.073,0.849,0.486
0.654,0.823,0.169,-0.739,0.242,0.496,-1.131,-2.001,1.21,1.786,1.597,1.085
0.399,0.153,-0.246,-0.275,0.322,-0.047,-1.163,-2.016,-0.019,0.429,0.624,0.494
-0.097,-0.133,-0.035,0.115,-0.031,-0.084,-0.446,-1.019,-0.583,-0.369,-0.144,-0.069
-0.073,-0.004,0.068,0.038,-0.07,0.032,-0.146,-0.304,-0.135,-0.081,-0.02,-0.044
-0.005,-0.109,-0.104,0.057,0.05,-0.106,-0.064,-0.063,-0.124,-0.112,-0.073,-0.089
-0.028,-0.107,-0.079,0.068,0.025,-0.093,-0.012,-0.031,-0.104,-0.072,-0.027,-0.076
-0.017,-0.122,-0.105,0.07,0.044,-0.113,0.004,0.008,-0.083,-0.116,-0.038,-0.104
-0.023,-0.098,-0.075,0.061,0.026,-0.086,0.036,0.027,-0.06,-0.101,-0.029,-0.098
-0.001,-0.083,-0.082,0.042,0.041,-0.082,0.033,0.054,-0.032,-0.088,-0.024,-0.093
0.008,-0.052,-0.06,0.022,0.034,-0.056,0.036,0.058,-0.043,-0.091,-0.029,-0.095
-0.006,-0.067,-0.061,0.037,0.028,-0.064,0.031,0.067,-0.019,-0.067,-0.015,-0.084
0.0,-0.074,-0.075,0.037,0.038,-0.074,0.029,0.069,-0.025,-0.073,-0.025,-0.088
0.007,-0.054,-0.061,0.024,0.034,-0.057,0.032,0.087,0.006,-0.042,-0.009,-0.076
-0.008,-0.063,-0.056,0.036,0.024,-0.059,0.039,0.108,0.013,-0.022,-0.005,-0.076
-0.017,-0.058,-0.041,0.038,0.012,-0.049,0.038,0.124,0.035,-0.002,0.009,-0.07
0.003,-0.056,-0.059,0.026,0.031,-0.057,0.054,0.151,0.07,0.004,0.018,-0.063
0.056,-0.004,-0.06,-0.026,0.058,-0.032,0.063,0.162,0.082,0.021,0.029,-0.078
0.08,0.029,-0.051,-0.054,0.065,-0.011,0.055,0.198,0.125,0.055,0.045,-0.062
0.089,0.008,-0.08,-0.048,0.084,-0.036,0.055,0.229,0.152,0.075,0.056,-0.029
0.108,0.013,-0.095,-0.06,0.101,-0.041,0.051,0.274,0.201,0.111,0.084,-0.02
0.136,0.042,-0.095,-0.089,0.115,-0.026,0.049,0.327,0.247,0.142,0.103,-0.011
0.139,0.037,-0.102,-0.088,0.121,-0.032,0.054,0.372,0.281,0.173,0.131,0.004
0.145,0.058,-0.087,-0.101,0.115,-0.014,0.055,0.429,0.35,0.234,0.179,0.031
0.193,0.121,-0.073,-0.157,0.133,0.024,0.032,0.442,0.388,0.27,0.203,0.052
0.199,0.133,-0.066,-0.166,0.132,0.033,0.027,0.466,0.424,0.307,0.242,0.084
0.174,0.119,-0.056,-0.146,0.114,0.031,0.018,0.477,0.444,0.335,0.279,0.104
0.198,0.146,-0.051,-0.172,0.124,0.047,0.013,0.448,0.44,0.338,0.283,0.09
0.183,0.144,-0.039,-0.163,0.111,0.052,0.006,0.388,0.407,0.321,0.268,0.088
0.144,0.107,-0.037,-0.126,0.09,0.035,-0.002,0.308,0.33,0.258,0.221,0.077
0.121,0.102,-0.019,-0.112,0.07,0.041,0.019,0.232,0.233,0.171,0.144,0.029
0.066,0.041,-0.026,-0.053,0.046,0.007,0.002,0.126,0.126,0.093,0.096,-0.009
0.061,0.028,-0.032,-0.044,0.046,-0.002,0.006,0.064,0.036,0.014,0.031,-0.058
0.013,0.021,0.008,-0.017,0.003,0.014,-0.005,0.033,-0.017,-0.043,-0.025,-0.09
0.004,-0.006,-0.01,0.001,0.007,-0.007,-0.015,0.017,-0.059,-0.088,-0.042,-0.112
-0.134,-0.145,-0.01,0.14,-0.062,-0.077,0.007,0.034,-0.093,-0.123,-0.089,-0.148
-0.334,-0.311,0.023,0.322,-0.178,-0.144,-0.005,0.043,-0.077,-0.109,-0.121,-0.148
