-0.016,-0.07,-0.055,0.043,0.019,-0.062,-0.092,-0.084,-0.143,-0.114,-0.105,-0.055
-0.009,-0.069,-0.06,0.039,0.026,-0.064,-0.066,-0.061,-0.121,-0.099,-0.103,-0.055
0.011,-0.065,-0.075,0.027,0.044,-0.07,-0.042,-0.027,-0.097,-0.082,-0.097,-0.055
0.011,-0.062,-0.073,0.026,0.042,-0.067,-0.035,-0.021,-0.095,-0.076,-0.094,-0.055
0.011,-0.057,-0.068,0.023,0.04,-0.063,-0.03,-0.014,-0.088,-0.067,-0.089,-0.055
0.012,-0.055,-0.067,0.022,0.04,-0.061,-0.026,-0.007,-0.083,-0.059,-0.085,-0.055
0.011,-0.049,-0.06,0.019,0.036,-0.054,-0.021,-0.001,-0.078,-0.053,-0.078,-0.05
0.016,-0.044,-0.06,0.014,0.038,-0.051,-0.017,0.005,-0.072,-0.046,-0.067,-0.045
0.028,-0.039,-0.067,0.006,0.048,-0.053,-0.013,0.011,-0.066,-0.039,-0.058,-0.041
0.027,-0.032,-0.06,0.003,0.044,-0.046,-0.01,0.017,-0.059,-0.033,-0.052,-0.036
0.03,-0.028,-0.058,-0.001,0.044,-0.042,-0.007,0.025,-0.053,-0.025,-0.048,-0.031
0.041,-0.022,-0.063,-0.01,0.052,-0.042,-0.002,0.03,-0.046,-0.02,-0.043,-0.028
0.036,-0.014,-0.051,-0.011,0.044,-0.032,0.001,0.04,-0.033,-0.013,-0.039,-0.023
0.035,-0.005,-0.041,-0.015,0.038,-0.023,0.004,0.061,-0.015,-0.003,-0.035,-0.02
0.023,0.001,-0.021,-0.012,0.022,-0.01,0.009,0.071,0.001,0.011,-0.023,-0.017
0.03,0.011,-0.02,-0.02,0.025,-0.005,0.011,0.087,0.017,0.034,-0.006,-0.012
0.057,0.015,-0.042,-0.036,0.049,-0.013,0.016,0.118,0.038,0.047,0.009,-0.01
0.065,0.034,-0.031,-0.049,0.048,0.001,0.019,0.145,0.059,0.07,0.02,0.0
0.084,0.063,-0.021,-0.073,0.052,0.021,0.023,0.183,0.099,0.101,0.046,0.014
0.095,0.078,-0.018,-0.086,0.056,0.03,0.029,0.22,0.136,0.13,0.073,0.032
0.102,0.094,-0.008,-0.097,0.054,0.043,0.035,0.254,0.166,0.164,0.093,0.057
0.099,0.101,0.002,-0.1,0.048,0.051,0.04,0.28,0.197,0.19,0.12,0.063
0.099,0.118,0.018,-0.109,0.04,0.068,0.04,0.275,0.193,0.211,0.128,0.059
0.093,0.123,0.03,-0.108,0.031,0.077,0.04,0.273,0.185,0.21,0.121,0.06
0.086,0.111,0.025,-0.099,0.03,0.068,0.04,0.263,0.177,0.198,0.114,0.06
0.088,0.104,0.016,-0.096,0.036,0.06,0.04,0.231,0.17,0.192,0.107,0.06
0.063,0.076,0.013,-0.07,0.025,0.044,0.038,0.188,0.158,0.17,0.101,0.06
0.058,0.059,0.0,-0.059,0.029,0.029,0.031,0.139,0.122,0.142,0.084,0.048
0.033,0.041,0.008,-0.037,0.012,0.024,0.026,0.101,0.089,0.125,0.062,0.028
0.018,0.028,0.01,-0.024,0.003,0.019,0.021,0.072,0.064,0.109,0.047,0.019
0.023,0.024,0.001,-0.024,0.011,0.012,0.015,0.053,0.055,0.098,0.033,0.013
0.022,0.007,-0.016,-0.014,0.019,-0.005,0.01,0.039,0.05,0.094,0.025,0.005
0.046,0.0,-0.046,-0.023,0.046,-0.023,0.005,0.028,0.042,0.089,0.022,-0.003
0.032,-0.004,-0.036,-0.013,0.034,-0.02,0.005,0.029,0.036,0.083,0.018,-0.009
0.025,-0.009,-0.034,-0.008,0.03,-0.021,0.004,0.03,0.031,0.077,0.015,-0.005
0.023,-0.014,-0.037,-0.004,0.03,-0.025,0.0,0.031,0.034,0.077,0.01,-0.005
0.015,-0.013,-0.028,-0.001,0.022,-0.021,0.0,0.035,0.037,0.089,0.014,-0.004
0.016,-0.007,-0.023,-0.004,0.02,-0.015,0.0,0.035,0.041,0.1,0.028,0.0
0.006,-0.003,-0.009,-0.001,0.008,-0.006,0.0,0.032,0.045,0.099,0.03,0.0
0.015,0.001,-0.014,-0.008,0.014,-0.006,0.0,0.029,0.05,0.102,0.03,0.0
0.021,0.007,-0.014,-0.014,0.017,-0.004,0.0,0.03,0.054,0.107,0.034,0.0
0.017,0.009,-0.008,-0.013,0.012,0.0,0.0,0.026,0.059,0.111,0.035,0.0
-0.007,0.006,0.013,0.0,-0.01,0.009,0.0,0.025,0.058,0.115,0.035,0.0
-0.001,0.003,0.004,-0.001,-0.003,0.004,0.006,0.025,0.054,0.115,0.035,0.0
0.024,0.0,-0.024,-0.012,0.024,-0.012,0.011,0.02,0.055,0.115,0.035,0.0
0.005,-0.002,-0.008,-0.001,0.007,-0.005,0.018,0.017,0.051,0.115,0.035,0.0
0.007,-0.006,-0.013,0.0,0.01,-0.009,0.018,0.013,0.05,0.115,0.035,0.0
0.016,-0.003,-0.019,-0.006,0.018,-0.011,0.014,0.01,0.05,0.115,0.035,0.0
0.008,0.004,-0.004,-0.006,0.006,0.0,0.016,0.005,0.057,0.117,0.035,0.0
0.022,0.0,-0.022,-0.011,0.022,-0.011,0.011,0.007,0.066,0.12,0.035,0.0
0.027,-0.005,-0.032,-0.011,0.03,-0.019,0.01,0.014,0.064,0.119,0.035,-0.003
0.017,-0.009,-0.026,-0.004,0.022,-0.018,0.01,0.015,0.066,0.124,0.035,-0.005
0.006,-0.014,-0.02,0.004,0.013,-0.016,0.005,0.015,0.07,0.125,0.035,-0.005
-0.025,-0.019,0.006,0.022,-0.016,-0.006,0.005,0.015,0.07,0.124,0.035,-0.005
-0.025,-0.02,0.005,0.023,-0.015,-0.007,0.004,0.015,0.072,0.133,0.04,-0.005
-0.027,-0.02,0.007,0.023,-0.017,-0.006,0.0,0.015,0.075,0.14,0.04,-0.005
-0.039,-0.02,0.018,0.029,-0.029,-0.001,0.0,0.015,0.075,0.142,0.04,-0.001
-0.036,-0.02,0.017,0.028,-0.027,-0.001,0.003,0.015,0.075,0.146,0.04,0.004
-0.034,-0.02,0.014,0.027,-0.024,-0.003,0.005,0.015,0.075,0.149,0.04,0.006
-0.031,-0.019,0.012,0.025,-0.021,-0.004,0.005,0.015,0.075,0.153,0.042,0.011
-0.024,-0.016,0.008,0.02,-0.015,-0.003,0.005,0.015,0.081,0.155,0.045,0.014
-0.019,-0.015,0.004,0.017,-0.011,-0.005,0.005,0.016,0.087,0.155,0.044,0.017
-0.019,-0.014,0.005,0.017,-0.012,-0.005,0.005,0.019,0.093,0.158,0.045,0.02
0.013,-0.009,-0.022,-0.002,0.018,-0.015,0.01,0.025,0.095,0.162,0.045,0.02
0.002,-0.012,-0.014,0.005,0.008,-0.013,0.013,0.026,0.095,0.158,0.045,0.024
0.003,-0.003,-0.006,0.0,0.005,-0.005,0.019,0.042,0.108,0.179,0.056,0.026
-0.004,0.024,0.028,-0.01,-0.016,0.026,0.038,0.056,0.135,0.202,0.068,0.024
-0.031,0.044,0.075,-0.007,-0.053,0.06,0.04,0.063,0.162,0.205,0.085,0.033
0.0,0.065,0.065,-0.033,-0.033,0.065,0.034,0.083,0.168,0.218,0.095,0.041
-0.007,0.087,0.094,-0.04,-0.051,0.09,0.028,0.067,0.173,0.228,0.103,0.05
-0.005,0.076,0.081,-0.036,-0.043,0.078,0.023,0.058,0.177,0.229,0.116,0.042
-0.002,0.067,0.068,-0.033,-0.035,0.067,0.017,0.039,0.157,0.221,0.109,0.034
-0.004,0.043,0.047,-0.02,-0.026,0.045,0.014,0.041,0.154,0.215,0.089,0.026
-0.029,-0.011,0.017,0.02,-0.023,0.003,0.017,0.029,0.13,0.189,0.066,0.015
-0.049,-0.038,0.011,0.044,-0.03,-0.014,0.011,0.021,0.12,0.179,0.065,0.012
-0.029,-0.069,-0.04,0.05,0.005,-0.054,0.021,0.026,0.112,0.171,0.051,-0.007
-0.033,-0.048,-0.015,0.041,-0.009,-0.031,0.008,0.0,0.113,0.178,0.055,-0.002
-0.03,-0.072,-0.042,0.051,0.006,-0.057,0.023,0.047,0.121,0.174,0.04,-0.03
-0.04,-0.048,-0.009,0.044,-0.015,-0.028,0.024,0.006,0.103,0.173,0.054,-0.01
0.041,-0.069,-0.109,0.015,0.075,-0.089,0.058,0.295,0.231,0.232,0.069,-0.017
0.135,0.14,0.004,-0.138,0.065,0.072,-0.033,0.064,0.328,0.457,0.31,0.175
0.116,0.634,0.519,-0.376,-0.202,0.576,-0.301,-0.694,0.497,0.88,0.788,0.608
-0.067,0.299,0.365,-0.116,-0.216,0.332,-0.313,-0.748,0.249,0.548,0.457,0.375
-0.209,-0.156,0.053,0.182,-0.13,-0.052,-0.328,-0.731,-0.327,-0.094,-0.109,-0.032
-0.111,-0.114,-0.003,0.113,-0.054,-0.058,-0.243,-0.361,-0.155,0.008,-0.056,-0.042
-0.062,-0.109,-0.047,0.086,-0.007,-0.078,-0.046,-0.008,0.075,0.144,0.01,-0.051
-0.047,-0.066,-0.018,0.057,-0.014,-0.042,-0.028,-0.017,0.084,0.16,0.027,-0.04
-0.03,-0.067,-0.037,0.049,0.004,-0.052,0.008,0.065,0.12,0.185,0.035,-0.039
-0.042,-0.063,-0.021,0.053,-0.01,-0.042,0.011,0.043,0.103,0.167,0.039,-0.036
-0.031,-0.057,-0.026,0.045,-0.002,-0.041,0.018,0.066,0.133,0.18,0.05,-0.03
-0.035,-0.06,-0.025,0.048,-0.005,-0.042,0.028,0.059,0.125,0.187,0.041,-0.031
-0.034,-0.051,-0.018,0.042,-0.007,-0.034,0.03,0.057,0.134,0.205,0.048,-0.024
-0.032,-0.055,-0.023,0.043,-0.005,-0.039,0.042,0.067,0.135,0.197,0.042,-0.025
-0.029,-0.045,-0.016,0.037,-0.007,-0.03,0.038,0.074,0.137,0.204,0.047,-0.019
-0.03,-0.046,-0.016,0.038,-0.006,-0.031,0.042,0.088,0.142,0.205,0.052,-0.019
-0.025,-0.04,-0.014,0.033,-0.006,-0.027,0.043,0.084,0.141,0.204,0.059,-0.014
-0.025,-0.036,-0.012,0.031,-0.006,-0.024,0.046,0.093,0.147,0.211,0.064,-0.008
-0.029,-0.034,-0.004,0.032,-0.012,-0.019,0.043,0.096,0.136,0.209,0.066,-0.005
-0.02,-0.02,0.0,0.02,-0.009,-0.01,0.04,0.104,0.154,0.214,0.075,0.001
-0.013,-0.007,0.006,0.009,-0.009,0.0,0.04,0.116,0.173,0.227,0.084,0.004
-0.004,0.007,0.011,-0.002,-0.008,0.009,0.04,0.13,0.178,0.241,0.091,0.01
0.004,0.022,0.018,-0.014,-0.007,0.02,0.04,0.147,0.196,0.251,0.097,0.02
-0.001,0.034,0.034,-0.017,-0.018,0.034,0.04,0.18,0.223,0.268,0.117,0.03
0.017,0.052,0.035,-0.035,-0.009,0.043,0.044,0.212,0.247,0.291,0.135,0.039
0.042,0.065,0.023,-0.054,0.01,0.043,0.045,0.245,0.277,0.321,0.154,0.053
0.047,0.09,0.043,-0.069,0.002,0.066,0.047,0.28,0.31,0.353,0.186,0.07
0.049,0.112,0.062,-0.08,-0.007,0.087,0.051,0.291,0.331,0.365,0.204,0.078
0.046,0.102,0.056,-0.074,-0.005,0.078,0.048,0.279,0.338,0.358,0.207,0.074
0.042,0.096,0.054,-0.07,-0.006,0.075,0.045,0.27,0.328,0.349,0.198,0.069
0.04,0.089,0.049,-0.064,-0.005,0.069,0.042,0.259,0.314,0.34,0.19,0.065
0.037,0.083,0.046,-0.061,-0.004,0.064,0.04,0.234,0.289,0.331,0.181,0.06
0.032,0.074,0.042,-0.053,-0.005,0.058,0.036,0.199,0.255,0.311,0.169,0.056
0.018,0.052,0.034,-0.035,-0.008,0.042,0.035,0.162,0.219,0.278,0.144,0.048
0.002,0.028,0.026,-0.015,-0.012,0.026,0.031,0.129,0.181,0.241,0.106,0.033
-0.012,0.009,0.02,0.002,-0.016,0.014,0.03,0.098,0.157,0.219,0.088,0.02
-0.014,0.002,0.017,0.006,-0.016,0.009,0.03,0.073,0.142,0.207,0.083,0.015
-0.016,-0.002,0.014,0.009,-0.014,0.005,0.025,0.062,0.122,0.194,0.075,0.013
-0.016,-0.006,0.009,0.011,-0.012,0.001,0.025,0.058,0.108,0.183,0.069,0.01
-0.017,-0.011,0.006,0.014,-0.011,-0.003,0.024,0.052,0.104,0.174,0.062,0.006
-0.018,-0.015,0.003,0.016,-0.01,-0.006,0.02,0.046,0.099,0.169,0.057,0.005
-0.006,-0.01,-0.004,0.008,-0.001,-0.007,0.02,0.041,0.093,0.164,0.053,0.001
-0.007,-0.005,0.002,0.006,-0.004,-0.001,0.02,0.04,0.087,0.158,0.048,0.0
-0.013,-0.001,0.012,0.007,-0.012,0.006,0.02,0.04,0.083,0.152,0.044,0.0
-0.018,0.004,0.022,0.007,-0.021,0.013,0.02,0.04,0.077,0.147,0.039,-0.005
-0.026,0.008,0.034,0.008,-0.03,0.021,0.016,0.04,0.072,0.141,0.036,-0.005
-0.018,0.013,0.031,0.002,-0.025,0.022,0.015,0.04,0.069,0.134,0.033,-0.006
-0.009,0.015,0.024,-0.003,-0.017,0.019,0.015,0.039,0.064,0.128,0.03,-0.01
-0.005,0.015,0.02,-0.005,-0.013,0.017,0.01,0.035,0.06,0.12,0.027,-0.012
0.002,0.015,0.012,-0.009,-0.005,0.013,0.01,0.035,0.054,0.115,0.025,-0.015
0.003,0.015,0.012,-0.009,-0.005,0.013,0.009,0.035,0.048,0.108,0.023,-0.019
-0.01,0.015,0.024,-0.003,-0.017,0.019,0.004,0.035,0.044,0.1,0.017,-0.02
-0.015,0.01,0.026,0.002,-0.021,0.018,-0.001,0.035,0.037,0.092,0.012,-0.023
-0.01,0.01,0.02,0.0,-0.015,0.015,-0.006,0.031,0.032,0.084,0.009,-0.025
-0.01,0.009,0.018,0.0,-0.014,0.014,-0.01,0.024,0.027,0.077,0.004,-0.025
-0.008,0.005,0.013,0.001,-0.011,0.009,-0.015,0.018,0.021,0.067,-0.001,-0.03
-0.005,0.005,0.01,0.0,-0.008,0.007,-0.015,0.011,0.014,0.058,-0.005,-0.03
-0.008,0.005,0.013,0.001,-0.011,0.009,-0.015,0.004,0.007,0.047,-0.009,-0.031
-0.017,0.005,0.022,0.005,-0.02,0.013,-0.015,-0.002,0.001,0.04,-0.012,-0.035
-0.019,0.005,0.024,0.007,-0.022,0.014,-0.015,-0.005,-0.005,0.035,-0.015,-0.034
-0.014,0.006,0.02,0.004,-0.017,0.012,-0.014,-0.005,-0.009,0.03,-0.02,-0.038
-0.016,0.004,0.02,0.006,-0.019,0.012,-0.016,-0.008,-0.011,0.027,-0.02,-0.04
-0.011,0.006,0.018,0.002,-0.015,0.012,-0.03,-0.01,-0.015,0.02,-0.02,-0.04
-0.006,0.008,0.014,-0.002,-0.01,0.011,-0.027,-0.01,-0.017,0.022,-0.021,-0.036
-0.004,0.012,0.016,-0.004,-0.01,0.013,-0.018,-0.005,-0.021,0.025,-0.019,-0.029
0.001,0.008,0.007,-0.004,-0.003,0.007,-0.009,0.003,-0.017,0.025,-0.021,-0.026
0.026,0.02,-0.006,-0.023,0.016,0.006,-0.003,0.01,-0.008,0.025,-0.019,-0.019
0.035,0.065,0.03,-0.05,0.002,0.047,0.008,0.02,0.004,0.025,-0.011,-0.014
0.003,0.085,0.082,-0.045,-0.04,0.083,0.026,0.025,0.027,0.032,0.007,-0.008
0.025,0.107,0.082,-0.067,-0.028,0.094,0.017,0.05,0.03,0.022,0.014,-0.005
0.032,0.13,0.097,-0.081,-0.033,0.113,-0.003,0.044,0.021,0.026,0.016,-0.005
0.015,0.126,0.111,-0.071,-0.049,0.118,-0.009,0.028,0.021,0.038,0.028,0.0
0.039,0.108,0.07,-0.074,-0.016,0.089,-0.011,0.014,0.012,0.022,0.013,-0.001
0.015,0.07,0.055,-0.043,-0.02,0.063,-0.016,-0.001,0.002,0.011,-0.005,-0.008
-0.015,0.013,0.028,0.001,-0.022,0.021,-0.015,-0.002,-0.033,-0.021,-0.034,-0.038
0.008,-0.008,-0.016,0.0,0.012,-0.012,-0.024,-0.033,-0.062,-0.044,-0.051,-0.048
0.01,-0.036,-0.046,0.013,0.028,-0.041,-0.018,-0.016,-0.069,-0.062,-0.071,-0.061
-0.014,-0.03,-0.016,0.022,0.001,-0.023,-0.033,-0.041,-0.084,-0.064,-0.067,-0.049
-0.009,-0.046,-0.036,0.028,0.013,-0.04,-0.023,0.007,-0.064,-0.068,-0.072,-0.065
-0.024,-0.044,-0.02,0.034,-0.002,-0.032,-0.021,-0.034,-0.09,-0.068,-0.073,-0.076
0.03,-0.031,-0.061,0.001,0.046,-0.046,0.009,0.148,-0.001,-0.018,-0.049,-0.068
0.15,0.054,-0.096,-0.102,0.122,-0.021,0.003,0.182,0.103,0.1,0.077,0.029
0.18,0.591,0.411,-0.386,-0.116,0.501,-0.303,-0.683,0.227,0.54,0.605,0.506
0.045,0.539,0.494,-0.293,-0.225,0.516,-0.434,-1.016,0.154,0.498,0.577,0.532
-0.157,-0.05,0.107,0.104,-0.132,0.028,-0.395,-0.87,-0.405,-0.202,-0.076,0.048
-0.126,-0.111,0.015,0.118,-0.07,-0.047,-0.324,-0.559,-0.448,-0.31,-0.2,-0.079
-0.028,-0.083,-0.055,0.056,0.013,-0.069,-0.116,-0.099,-0.159,-0.136,-0.129,-0.079
-0.032,-0.08,-0.049,0.056,0.009,-0.064,-0.06,-0.054,-0.136,-0.125,-0.113,-0.083
-0.021,-0.069,-0.048,0.045,0.014,-0.058,-0.038,-0.007,-0.093,-0.102,-0.092,-0.076
-0.02,-0.074,-0.054,0.047,0.017,-0.064,-0.024,-0.002,-0.103,-0.115,-0.103,-0.084
-0.014,-0.059,-0.046,0.037,0.017,-0.052,-0.027,-0.002,-0.099,-0.108,-0.089,-0.076
0.001,-0.064,-0.065,0.032,0.033,-0.064,-0.013,0.013,-0.094,-0.117,-0.095,-0.079
0.015,-0.049,-0.064,0.017,0.04,-0.056,-0.015,0.008,-0.098,-0.115,-0.087,-0.071
0.016,-0.048,-0.064,0.016,0.04,-0.056,-0.004,0.024,-0.091,-0.112,-0.087,-0.072
0.013,-0.038,-0.051,0.013,0.032,-0.044,-0.003,0.013,-0.092,-0.109,-0.083,-0.067
0.021,-0.033,-0.054,0.006,0.038,-0.043,0.005,0.016,-0.088,-0.104,-0.08,-0.065
0.037,-0.028,-0.065,-0.004,0.051,-0.046,0.009,0.016,-0.089,-0.103,-0.078,-0.063
0.016,-0.02,-0.037,0.002,0.027,-0.028,0.012,0.04,-0.084,-0.096,-0.074,-0.056
0.001,-0.015,-0.016,0.007,0.009,-0.015,0.019,0.045,-0.086,-0.095,-0.073,-0.052
0.028,-0.007,-0.035,-0.01,0.032,-0.021,0.018,0.061,-0.079,-0.086,-0.064,-0.046
0.032,-0.001,-0.033,-0.015,0.033,-0.017,0.016,0.087,-0.064,-0.073,-0.056,-0.04
0.042,0.009,-0.033,-0.025,0.037,-0.012,0.012,0.1,-0.049,-0.062,-0.048,-0.035
0.066,0.022,-0.044,-0.044,0.055,-0.01,0.01,0.117,-0.023,-0.046,-0.041,-0.026
0.043,0.032,-0.011,-0.038,0.027,0.01,0.007,0.151,0.003,-0.034,-0.029,-0.014
0.048,0.055,0.007,-0.052,0.02,0.031,0.004,0.188,0.02,-0.018,-0.008,-0.001
0.105,0.083,-0.022,-0.093,0.063,0.03,0.013,0.219,0.05,0.005,0.016,0.013
0.118,0.097,-0.022,-0.107,0.07,0.037,0.016,0.253,0.076,0.031,0.038,0.027
0.117,0.122,0.005,-0.12,0.056,0.063,0.035,0.278,0.098,0.058,0.057,0.041
0.089,0.132,0.043,-0.111,0.023,0.088,0.045,0.29,0.109,0.062,0.069,0.049
0.073,0.123,0.05,-0.098,0.012,0.086,0.032,0.281,0.095,0.05,0.073,0.043
0.115,0.119,0.004,-0.117,0.056,0.061,0.028,0.269,0.09,0.043,0.063,0.033
0.115,0.11,-0.006,-0.112,0.06,0.052,0.019,0.235,0.071,0.034,0.048,0.025
0.074,0.106,0.032,-0.09,0.021,0.069,0.012,0.176,0.031,0.018,0.028,0.015
0.056,0.09,0.034,-0.074,0.011,0.062,0.021,0.129,-0.002,-0.012,-0.001,0.006
0.03,0.049,0.019,-0.04,0.005,0.034,0.022,0.091,-0.04,-0.047,-0.03,-0.005
0.009,0.026,0.017,-0.018,-0.005,0.021,0.01,0.058,-0.069,-0.069,-0.047,-0.018
0.032,0.022,-0.01,-0.027,0.021,0.006,0.003,0.029,-0.087,-0.087,-0.052,-0.026
0.061,0.014,-0.048,-0.037,0.054,-0.017,-0.007,0.01,-0.117,-0.106,-0.063,-0.033
0.067,0.006,-0.061,-0.036,0.063,-0.027,-0.018,0.003,-0.127,-0.113,-0.07,-0.033
0.018,-0.002,-0.02,-0.008,0.019,-0.011,-0.026,-0.004,-0.124,-0.117,-0.07,-0.029
0.007,-0.003,-0.01,-0.002,0.009,-0.006,-0.028,-0.012,-0.125,-0.12,-0.074,-0.03
0.06,0.003,-0.057,-0.031,0.058,-0.027,-0.032,-0.02,-0.125,-0.124,-0.076,-0.03
0.058,0.007,-0.051,-0.033,0.055,-0.022,-0.035,-0.024,-0.125,-0.124,-0.072,-0.03
0.058,0.012,-0.046,-0.035,0.052,-0.017,-0.035,-0.018,-0.12,-0.119,-0.07,-0.029
0.07,0.016,-0.054,-0.043,0.061,-0.018,-0.035,-0.011,-0.115,-0.116,-0.067,-0.025
0.064,0.021,-0.043,-0.042,0.054,-0.011,-0.035,-0.01,-0.11,-0.113,-0.064,-0.025
0.062,0.024,-0.037,-0.043,0.049,-0.006,-0.035,-0.01,-0.107,-0.108,-0.061,-0.025
0.032,0.025,-0.007,-0.029,0.019,0.009,-0.035,-0.01,-0.1,-0.105,-0.06,-0.025
0.03,0.025,-0.005,-0.027,0.017,0.01,-0.034,-0.01,-0.109,-0.109,-0.067,-0.025
0.064,0.025,-0.039,-0.044,0.051,-0.007,-0.03,-0.01,-0.122,-0.116,-0.071,-0.027
0.067,0.025,-0.042,-0.046,0.054,-0.008,-0.025,-0.01,-0.119,-0.12,-0.069,-0.032
0.06,0.023,-0.037,-0.041,0.048,-0.007,-0.023,-0.01,-0.12,-0.12,-0.071,-0.037
0.06,0.016,-0.044,-0.038,0.052,-0.014,-0.018,-0.01,-0.12,-0.123,-0.074,-0.04
0.026,0.009,-0.017,-0.017,0.021,-0.004,-0.014,-0.01,-0.119,-0.132,-0.08,-0.036
0.017,0.003,-0.015,-0.01,0.016,-0.006,-0.026,-0.01,-0.129,-0.134,-0.077,-0.035
0.045,-0.004,-0.049,-0.02,0.047,-0.026,-0.031,-0.01,-0.136,-0.13,-0.075,-0.035
0.041,-0.01,-0.051,-0.016,0.046,-0.031,-0.025,-0.018,-0.135,-0.13,-0.075,-0.035
0.034,-0.015,-0.049,-0.01,0.042,-0.031,-0.023,-0.021,-0.133,-0.128,-0.071,-0.035
0.035,-0.015,-0.05,-0.01,0.043,-0.032,-0.018,-0.019,-0.129,-0.124,-0.07,-0.037
0.048,-0.015,-0.063,-0.016,0.056,-0.039,-0.014,-0.02,-0.13,-0.125,-0.07,-0.045
0.044,-0.017,-0.061,-0.013,0.053,-0.039,-0.023,-0.02,-0.126,-0.13,-0.08,-0.049
0.035,-0.022,-0.057,-0.006,0.046,-0.04,-0.032,-0.02,-0.125,-0.13,-0.086,-0.045
0.037,-0.028,-0.065,-0.004,0.051,-0.046,-0.029,-0.02,-0.125,-0.13,-0.084,-0.045
0.034,-0.031,-0.065,-0.001,0.049,-0.047,-0.026,-0.02,-0.12,-0.128,-0.085,-0.044
0.028,-0.037,-0.065,0.005,0.047,-0.051,-0.023,-0.02,-0.12,-0.124,-0.085,-0.04
0.025,-0.04,-0.065,0.008,0.045,-0.052,-0.02,-0.019,-0.121,-0.126,-0.085,-0.041
0.031,-0.036,-0.066,0.003,0.049,-0.051,-0.019,-0.02,-0.126,-0.121,-0.08,-0.038
0.033,-0.029,-0.063,-0.001,0.048,-0.046,-0.01,-0.018,-0.12,-0.115,-0.072,-0.032
0.041,-0.028,-0.069,-0.006,0.055,-0.048,0.001,-0.011,-0.112,-0.11,-0.066,-0.029
0.011,-0.017,-0.029,0.003,0.021,-0.023,0.009,0.003,-0.104,-0.103,-0.058,-0.024
0.017,0.013,-0.004,-0.015,0.01,0.005,0.027,0.023,-0.088,-0.1,-0.053,-0.02
0.044,0.035,-0.009,-0.039,0.027,0.012,0.045,0.039,-0.076,-0.099,-0.051,-0.015
0.016,0.042,0.026,-0.029,-0.005,0.034,0.039,0.042,-0.074,-0.1,-0.057,-0.014
0.028,0.057,0.028,-0.043,0.0,0.042,0.024,0.023,-0.077,-0.1,-0.057,-0.009
0.046,0.06,0.013,-0.053,0.016,0.036,0.017,0.02,-0.072,-0.099,-0.061,-0.008
0.024,0.039,0.015,-0.032,0.005,0.027,0.009,0.0,-0.08,-0.101,-0.066,-0.004
0.024,-0.009,-0.033,-0.007,0.028,-0.021,0.005,-0.002,-0.094,-0.104,-0.062,-0.009
0.02,-0.058,-0.077,0.019,0.049,-0.067,0.001,-0.015,-0.122,-0.131,-0.083,-0.036
-0.015,-0.083,-0.069,0.049,0.027,-0.076,-0.01,-0.032,-0.132,-0.146,-0.093,-0.053
-0.013,-0.112,-0.099,0.063,0.043,-0.105,-0.004,-0.031,-0.137,-0.161,-0.106,-0.072
-0.003,-0.089,-0.086,0.046,0.042,-0.087,-0.011,-0.042,-0.135,-0.151,-0.096,-0.057
-0.008,-0.106,-0.097,0.057,0.045,-0.101,0.003,0.006,-0.131,-0.164,-0.114,-0.074
0.01,-0.07,-0.08,0.03,0.045,-0.074,-0.005,-0.033,-0.145,-0.159,-0.1,-0.064
0.086,-0.096,-0.182,0.005,0.134,-0.139,0.047,0.239,-0.032,-0.099,-0.077,-0.071
0.186,0.122,-0.064,-0.154,0.125,0.029,-0.055,0.001,0.084,0.13,0.177,0.143
0.182,0.616,0.433,-0.399,-0.126,0.524,-0.362,-0.807,0.228,0.558,0.688,0.61
-0.003,0.277,0.28,-0.137,-0.142,0.278,-0.407,-0.93,-0.048,0.206,0.355,0.381
-0.173,-0.181,-0.008,0.177,-0.082,-0.095,-0.37,-0.823,-0.549,-0.4,-0.218,-0.055
-0.083,-0.14,-0.057,0.112,-0.013,-0.098,-0.24,-0.401,-0.386,-0.312,-0.188,-0.077
0.011,-0.136,-0.147,0.063,0.079,-0.141,-0.071,-0.064,-0.184,-0.216,-0.143,-0.091
-0.009,-0.117,-0.108,0.063,0.05,-0.112,-0.044,-0.056,-0.169,-0.186,-0.111,-0.082
0.001,-0.122,-0.122,0.061,0.062,-0.122,-0.014,0.011,-0.139,-0.161,-0.107,-0.085
0.004,-0.116,-0.119,0.056,0.062,-0.117,-0.015,-0.011,-0.154,-0.17,-0.11,-0.087
0.009,-0.11,-0.118,0.051,0.064,-0.114,-0.007,0.01,-0.133,-0.154,-0.099,-0.08
0.012,-0.111,-0.123,0.05,0.068,-0.117,-0.003,0.01,-0.137,-0.159,-0.104,-0.082
0.016,-0.1,-0.116,0.042,0.067,-0.108,0.0,0.015,-0.127,-0.147,-0.095,-0.078
0.025,-0.098,-0.123,0.037,0.074,-0.11,0.006,0.025,-0.123,-0.148,-0.095,-0.078
0.019,-0.088,-0.107,0.034,0.063,-0.097,0.016,0.023,-0.118,-0.145,-0.086,-0.073
0.019,-0.083,-0.102,0.032,0.061,-0.093,0.033,0.029,-0.111,-0.142,-0.083,-0.076
0.013,-0.076,-0.088,0.032,0.051,-0.082,0.029,0.04,-0.107,-0.14,-0.076,-0.067
0.011,-0.07,-0.081,0.03,0.046,-0.075,0.027,0.051,-0.101,-0.138,-0.071,-0.057
0.043,-0.062,-0.105,0.01,0.074,-0.083,0.024,0.059,-0.094,-0.126,-0.066,-0.048
0.053,-0.054,-0.107,0.001,0.08,-0.08,0.02,0.082,-0.081,-0.11,-0.059,-0.041
0.051,-0.046,-0.097,-0.003,0.075,-0.071,0.021,0.089,-0.069,-0.099,-0.053,-0.036
0.063,-0.039,-0.102,-0.012,0.083,-0.07,0.024,0.099,-0.048,-0.086,-0.046,-0.03
0.065,-0.031,-0.096,-0.017,0.081,-0.063,0.026,0.13,-0.027,-0.075,-0.039,-0.026
0.069,-0.014,-0.083,-0.028,0.077,-0.048,0.024,0.169,-0.009,-0.058,-0.024,-0.015
0.082,0.008,-0.074,-0.045,0.078,-0.033,0.028,0.198,0.015,-0.037,-0.007,0.001
0.095,0.028,-0.067,-0.061,0.081,-0.02,0.034,0.235,0.041,-0.02,0.013,0.013
0.106,0.044,-0.062,-0.075,0.084,-0.009,0.036,0.269,0.07,0.012,0.042,0.026
0.123,0.064,-0.06,-0.094,0.091,0.002,0.035,0.272,0.093,0.027,0.051,0.037
0.131,0.075,-0.057,-0.103,0.094,0.009,0.035,0.261,0.09,0.02,0.042,0.034
0.12,0.066,-0.055,-0.092,0.087,0.005,0.047,0.257,0.083,0.014,0.037,0.025
0.102,0.053,-0.049,-0.078,0.076,0.002,0.044,0.247,0.073,0.009,0.028,0.019
0.095,0.043,-0.052,-0.069,0.073,-0.004,0.032,0.217,0.048,0.003,0.021,0.011
0.063,0.029,-0.035,-0.046,0.049,-0.003,0.023,0.168,0.016,-0.025,0.013,0.004
0.052,0.015,-0.037,-0.034,0.044,-0.01,0.013,0.116,-0.027,-0.054,-0.008,-0.003
0.072,-0.001,-0.073,-0.035,0.072,-0.037,0.009,0.078,-0.062,-0.077,-0.024,-0.011
0.046,-0.03,-0.076,-0.007,0.061,-0.053,0.004,0.049,-0.09,-0.094,-0.041,-0.017
0.028,-0.046,-0.074,0.009,0.051,-0.06,-0.002,0.027,-0.106,-0.106,-0.053,-0.024
0.03,-0.046,-0.076,0.009,0.053,-0.061,-0.008,0.019,-0.111,-0.125,-0.059,-0.036
0.021,-0.052,-0.074,0.016,0.048,-0.062,-0.008,0.014,-0.122,-0.125,-0.06,-0.041
0.022,-0.054,-0.076,0.017,0.049,-0.065,-0.004,0.01,-0.124,-0.126,-0.06,-0.04
0.039,-0.05,-0.089,0.006,0.064,-0.069,-0.005,0.005,-0.121,-0.131,-0.065,-0.04
0.045,-0.05,-0.094,0.003,0.07,-0.072,-0.005,0.0,-0.12,-0.13,-0.065,-0.04
0.031,-0.05,-0.081,0.01,0.056,-0.065,-0.005,0.004,-0.119,-0.128,-0.065,-0.04
0.03,-0.05,-0.08,0.01,0.055,-0.065,-0.005,0.005,-0.116,-0.124,-0.065,-0.035
0.019,-0.05,-0.069,0.016,0.044,-0.06,0.0,0.005,-0.115,-0.122,-0.065,-0.035
0.018,-0.047,-0.065,0.015,0.041,-0.056,0.0,0.005,-0.115,-0.119,-0.065,-0.034
0.035,-0.045,-0.08,0.005,0.058,-0.062,0.0,0.005,-0.115,-0.116,-0.065,-0.03
0.027,-0.041,-0.069,0.007,0.048,-0.055,0.0,0.004,-0.115,-0.115,-0.065,-0.03
0.029,-0.04,-0.068,0.006,0.049,-0.054,0.0,0.0,-0.115,-0.12,-0.065,-0.032
0.044,-0.035,-0.079,-0.004,0.062,-0.057,0.0,0.0,-0.115,-0.125,-0.065,-0.035
0.029,-0.035,-0.065,0.003,0.047,-0.05,0.0,0.0,-0.115,-0.128,-0.065,-0.035
0.021,-0.04,-0.061,0.01,0.041,-0.05,0.0,0.0,-0.118,-0.133,-0.065,-0.039
0.044,-0.039,-0.083,-0.002,0.064,-0.06,0.0,0.0,-0.123,-0.135,-0.065,-0.04
0.026,-0.052,-0.078,0.013,0.052,-0.064,0.0,-0.003,-0.125,-0.135,-0.067,-0.04
0.021,-0.056,-0.077,0.018,0.049,-0.066,-0.001,-0.006,-0.125,-0.139,-0.07,-0.044
0.034,-0.055,-0.089,0.011,0.062,-0.072,-0.004,-0.009,-0.125,-0.14,-0.073,-0.047
0.019,-0.06,-0.079,0.02,0.049,-0.07,-0.007,-0.012,-0.125,-0.14,-0.075,-0.05
0.021,-0.06,-0.081,0.019,0.051,-0.071,-0.01,-0.014,-0.125,-0.145,-0.079,-0.053
0.024,-0.06,-0.084,0.019,0.054,-0.071,-0.013,-0.017,-0.125,-0.145,-0.08,-0.055
0.028,-0.06,-0.088,0.016,0.058,-0.074,-0.016,-0.02,-0.13,-0.146,-0.08,-0.055
0.03,-0.06,-0.09,0.015,0.06,-0.075,-0.013,-0.024,-0.131,-0.15,-0.085,-0.055
0.036,-0.06,-0.096,0.012,0.066,-0.077,-0.009,-0.025,-0.13,-0.15,-0.085,-0.055
0.031,-0.061,-0.091,0.015,0.061,-0.076,-0.007,-0.025,-0.128,-0.15,-0.086,-0.055
0.026,-0.058,-0.084,0.016,0.055,-0.071,-0.004,-0.029,-0.124,-0.15,-0.09,-0.055
0.005,-0.068,-0.074,0.032,0.04,-0.071,-0.001,-0.031,-0.125,-0.15,-0.089,-0.055
-0.007,-0.075,-0.067,0.041,0.03,-0.071,0.001,-0.028,-0.128,-0.15,-0.092,-0.06
0.028,-0.07,-0.098,0.021,0.063,-0.084,0.003,-0.025,-0.13,-0.15,-0.095,-0.06
0.022,-0.064,-0.085,0.022,0.054,-0.075,0.007,-0.025,-0.13,-0.15,-0.095,-0.061
0.008,-0.074,-0.082,0.033,0.045,-0.077,0.009,-0.025,-0.134,-0.15,-0.092,-0.065
-0.001,-0.095,-0.094,0.048,0.047,-0.094,0.013,-0.024,-0.136,-0.15,-0.09,-0.065
-0.005,-0.09,-0.085,0.048,0.04,-0.087,0.016,-0.025,-0.133,-0.151,-0.091,-0.063
0.004,-0.081,-0.085,0.039,0.044,-0.083,0.012,-0.021,-0.131,-0.149,-0.09,-0.056
0.004,-0.077,-0.08,0.037,0.042,-0.078,0.011,-0.02,-0.127,-0.151,-0.09,-0.051
0.012,-0.068,-0.079,0.028,0.046,-0.073,0.008,-0.018,-0.126,-0.146,-0.089,-0.046
0.015,-0.054,-0.07,0.02,0.043,-0.062,0.028,0.003,-0.113,-0.128,-0.08,-0.04
0.028,-0.027,-0.055,0.0,0.042,-0.041,0.048,0.023,-0.095,-0.12,-0.069,-0.036
0.04,0.002,-0.038,-0.02,0.039,-0.018,0.044,0.038,-0.093,-0.119,-0.068,-0.034
0.035,0.019,-0.017,-0.027,0.026,0.001,0.042,0.031,-0.099,-0.121,-0.072,-0.036
0.01,0.031,0.021,-0.021,-0.006,0.026,0.033,0.018,-0.099,-0.118,-0.068,-0.033
0.004,0.03,0.026,-0.017,-0.011,0.028,0.031,0.014,-0.104,-0.122,-0.072,-0.038
0.008,0.014,0.006,-0.011,0.001,0.01,0.022,-0.007,-0.104,-0.117,-0.067,-0.032
0.009,-0.041,-0.05,0.017,0.03,-0.046,0.021,-0.006,-0.112,-0.13,-0.074,-0.041
-0.007,-0.078,-0.07,0.043,0.032,-0.074,0.015,-0.035,-0.138,-0.159,-0.088,-0.055
-0.029,-0.109,-0.08,0.069,0.026,-0.094,0.013,-0.021,-0.146,-0.163,-0.104,-0.065
-0.016,-0.112,-0.096,0.064,0.04,-0.104,0.01,-0.038,-0.168,-0.17,-0.106,-0.068
-0.009,-0.11,-0.1,0.06,0.046,-0.105,0.0,-0.024,-0.151,-0.157,-0.09,-0.064
-0.014,-0.133,-0.119,0.073,0.053,-0.126,0.02,-0.031,-0.171,-0.176,-0.098,-0.083
0.005,-0.083,-0.087,0.039,0.046,-0.085,0.018,0.031,-0.126,-0.146,-0.071,-0.067
0.112,-0.085,-0.197,-0.013,0.155,-0.14,0.04,0.274,0.003,-0.065,-0.041,-0.051
0.198,0.341,0.143,-0.269,0.027,0.242,-0.166,-0.314,0.131,0.301,0.399,0.337
0.136,0.591,0.455,-0.363,-0.16,0.522,-0.399,-0.938,0.207,0.527,0.681,0.616
-0.079,0.037,0.116,0.021,-0.098,0.077,-0.39,-0.924,-0.28,-0.093,0.08,0.177
-0.163,-0.194,-0.032,0.178,-0.065,-0.112,-0.343,-0.708,-0.557,-0.431,-0.254,-0.093
-0.046,-0.136,-0.09,0.091,0.022,-0.113,-0.152,-0.22,-0.276,-0.255,-0.167,-0.088
-0.017,-0.132,-0.115,0.075,0.049,-0.123,-0.044,-0.069,-0.2,-0.219,-0.15,-0.1
-0.017,-0.111,-0.094,0.064,0.038,-0.102,-0.025,-0.039,-0.175,-0.187,-0.123,-0.084
-0.011,-0.12,-0.109,0.066,0.049,-0.115,0.005,0.004,-0.158,-0.189,-0.129,-0.091
-0.013,-0.103,-0.09,0.058,0.039,-0.096,-0.005,-0.016,-0.155,-0.185,-0.115,-0.082
-0.005,-0.106,-0.1,0.056,0.048,-0.103,0.01,0.011,-0.143,-0.179,-0.112,-0.083
-0.006,-0.096,-0.09,0.051,0.042,-0.092,0.007,0.0,-0.149,-0.179,-0.105,-0.079
-0.004,-0.093,-0.089,0.049,0.043,-0.09,0.016,0.018,-0.137,-0.171,-0.098,-0.08
-0.006,-0.088,-0.082,0.047,0.038,-0.085,0.019,0.014,-0.139,-0.17,-0.094,-0.076
-0.005,-0.083,-0.078,0.044,0.037,-0.08,0.02,0.023,-0.132,-0.161,-0.084,-0.074
-0.005,-0.08,-0.075,0.043,0.035,-0.077,0.02,0.025,-0.127,-0.159,-0.08,-0.075
-0.005,-0.073,-0.068,0.039,0.032,-0.07,0.019,0.025,-0.119,-0.15,-0.072,-0.067
-0.004,-0.071,-0.067,0.038,0.031,-0.069,0.02,0.039,-0.113,-0.147,-0.068,-0.061
-0.002,-0.064,-0.063,0.033,0.031,-0.063,0.021,0.05,-0.105,-0.14,-0.061,-0.054
-0.002,-0.063,-0.061,0.032,0.03,-0.062,0.026,0.068,-0.095,-0.13,-0.054,-0.047
0.002,-0.055,-0.057,0.027,0.029,-0.056,0.025,0.08,-0.085,-0.12,-0.047,-0.042
0.015,-0.04,-0.055,0.013,0.036,-0.047,0.025,0.1,-0.068,-0.103,-0.041,-0.035
0.036,-0.016,-0.053,-0.01,0.045,-0.034,0.025,0.125,-0.048,-0.084,-0.035,-0.025
0.05,0.007,-0.043,-0.028,0.046,-0.018,0.029,0.158,-0.022,-0.062,-0.026,-0.015
0.052,0.017,-0.035,-0.034,0.043,-0.009,0.036,0.198,0.005,-0.047,-0.009,0.002
0.065,0.039,-0.026,-0.052,0.045,0.007,0.042,0.234,0.032,-0.029,0.016,0.016
0.081,0.061,-0.02,-0.071,0.05,0.02,0.045,0.264,0.058,-0.007,0.033,0.023
0.099,0.079,-0.02,-0.089,0.059,0.029,0.045,0.265,0.058,0.004,0.039,0.033
0.099,0.087,-0.012,-0.093,0.056,0.037,0.045,0.251,0.048,0.013,0.035,0.039
0.101,0.074,-0.027,-0.087,0.063,0.023,0.045,0.241,0.04,0.008,0.027,0.03
0.115,0.063,-0.052,-0.089,0.083,0.006,0.045,0.228,0.031,-0.009,0.022,0.021
0.098,0.049,-0.049,-0.074,0.073,0.0,0.04,0.197,0.018,-0.027,0.014,0.013
0.077,0.027,-0.051,-0.052,0.064,-0.012,0.032,0.149,-0.019,-0.055,0.009,0.003
0.058,0.009,-0.05,-0.033,0.054,-0.02,0.026,0.102,-0.057,-0.08,-0.006,-0.007
0.042,-0.009,-0.05,-0.016,0.046,-0.029,0.018,0.059,-0.086,-0.104,-0.038,-0.022
0.025,-0.022,-0.047,-0.001,0.036,-0.034,0.011,0.024,-0.11,-0.124,-0.051,-0.034
0.003,-0.029,-0.033,0.013,0.018,-0.031,0.004,-0.003,-0.125,-0.13,-0.054,-0.043
0.016,-0.035,-0.051,0.01,0.034,-0.043,0.0,-0.013,-0.13,-0.141,-0.061,-0.041
0.038,-0.033,-0.07,-0.002,0.054,-0.051,0.0,-0.017,-0.13,-0.146,-0.065,-0.04
0.033,-0.029,-0.062,-0.002,0.048,-0.046,0.0,-0.024,-0.13,-0.141,-0.071,-0.04
0.024,-0.03,-0.055,0.003,0.04,-0.042,0.0,-0.022,-0.13,-0.139,-0.07,-0.036
0.022,-0.03,-0.051,0.004,0.036,-0.04,0.0,-0.017,-0.13,-0.134,-0.07,-0.034
0.009,-0.03,-0.039,0.011,0.024,-0.034,-0.004,-0.014,-0.126,-0.13,-0.07,-0.037
0.019,-0.03,-0.048,0.006,0.033,-0.039,-0.005,-0.011,-0.125,-0.13,-0.07,-0.04
0.03,-0.025,-0.056,-0.002,0.044,-0.04,-0.005,-0.006,-0.125,-0.13,-0.07,-0.04
0.007,-0.022,-0.029,0.008,0.018,-0.025,-0.005,-0.006,-0.12,-0.13,-0.07,-0.04
0.003,-0.018,-0.022,0.008,0.013,-0.02,-0.005,-0.011,-0.12,-0.13,-0.07,-0.04
0.004,-0.015,-0.018,0.006,0.011,-0.016,-0.006,-0.009,-0.121,-0.13,-0.07,-0.04
0.003,-0.01,-0.012,0.004,0.007,-0.011,-0.01,-0.013,-0.125,-0.13,-0.07,-0.036
-0.002,-0.012,-0.01,0.008,0.004,-0.011,-0.01,-0.016,-0.125,-0.135,-0.071,-0.035
-0.012,-0.016,-0.003,0.014,-0.004,-0.009,-0.01,-0.014,-0.127,-0.135,-0.075,-0.035
0.01,-0.015,-0.024,0.003,0.018,-0.019,-0.01,-0.02,-0.131,-0.137,-0.075,-0.031
0.023,-0.019,-0.042,-0.002,0.032,-0.03,-0.01,-0.025,-0.129,-0.14,-0.075,-0.029
0.02,-0.02,-0.04,0.0,0.03,-0.03,-0.014,-0.032,-0.134,-0.14,-0.075,-0.032
0.024,-0.02,-0.045,-0.001,0.034,-0.032,-0.015,-0.034,-0.135,-0.14,-0.075,-0.035
0.021,-0.024,-0.045,0.002,0.034,-0.035,-0.015,-0.03,-0.135,-0.14,-0.075,-0.035
0.019,-0.026,-0.045,0.004,0.032,-0.035,-0.019,-0.03,-0.135,-0.14,-0.075,-0.035
0.022,-0.024,-0.046,0.001,0.034,-0.035,-0.021,-0.03,-0.135,-0.139,-0.075,-0.035
0.014,-0.03,-0.044,0.008,0.03,-0.037,-0.019,-0.03,-0.135,-0.142,-0.075,-0.035
0.008,-0.04,-0.048,0.016,0.028,-0.044,-0.015,-0.03,-0.135,-0.145,-0.075,-0.035
0.01,-0.04,-0.05,0.015,0.03,-0.045,-0.015,-0.038,-0.135,-0.145,-0.073,-0.035
0.009,-0.04,-0.05,0.016,0.03,-0.045,-0.012,-0.041,-0.131,-0.145,-0.07,-0.035
0.004,-0.046,-0.05,0.021,0.028,-0.048,-0.01,-0.039,-0.129,-0.145,-0.067,-0.035
0.005,-0.044,-0.049,0.02,0.028,-0.046,-0.01,-0.04,-0.13,-0.144,-0.065,-0.035
0.009,-0.042,-0.051,0.017,0.03,-0.046,-0.007,-0.04,-0.13,-0.141,-0.061,-0.036
-0.013,-0.06,-0.048,0.036,0.018,-0.054,-0.004,-0.04,-0.13,-0.136,-0.06,-0.04
-0.007,-0.067,-0.06,0.037,0.027,-0.063,-0.001,-0.035,-0.129,-0.133,-0.064,-0.04
0.008,-0.063,-0.071,0.028,0.04,-0.067,0.002,-0.035,-0.125,-0.13,-0.066,-0.04
0.003,-0.066,-0.069,0.032,0.036,-0.067,0.005,-0.035,-0.125,-0.124,-0.069,-0.04
0.007,-0.064,-0.071,0.029,0.04,-0.067,0.006,-0.034,-0.125,-0.131,-0.07,-0.039
0.002,-0.067,-0.069,0.032,0.036,-0.067,0.013,-0.035,-0.125,-0.136,-0.063,-0.045
-0.002,-0.075,-0.073,0.038,0.035,-0.074,0.018,-0.033,-0.126,-0.128,-0.058,-0.049
-0.015,-0.077,-0.063,0.046,0.024,-0.07,0.023,-0.028,-0.117,-0.123,-0.052,-0.041
0.003,-0.067,-0.07,0.033,0.037,-0.068,0.029,-0.025,-0.103,-0.118,-0.046,-0.033
0.006,-0.046,-0.052,0.02,0.029,-0.049,0.033,-0.007,-0.089,-0.111,-0.041,-0.025
-0.004,-0.022,-0.018,0.013,0.008,-0.02,0.044,0.018,-0.068,-0.098,-0.036,-0.017
0.008,-0.002,-0.01,-0.003,0.009,-0.006,0.041,0.03,-0.054,-0.089,-0.03,-0.014
0.0,0.017,0.017,-0.009,-0.009,0.017,0.035,0.031,-0.056,-0.09,-0.025,-0.016
-0.019,0.029,0.048,-0.005,-0.034,0.038,0.026,0.015,-0.055,-0.084,-0.02,-0.014
-0.027,0.016,0.043,0.005,-0.035,0.029,0.02,0.015,-0.054,-0.084,-0.026,-0.016
-0.002,0.014,0.016,-0.007,-0.009,0.015,0.012,-0.004,-0.057,-0.079,-0.024,-0.014
-0.009,-0.021,-0.012,0.015,0.002,-0.016,0.005,-0.012,-0.053,-0.082,-0.032,-0.017
-0.009,-0.065,-0.056,0.038,0.024,-0.06,0.009,-0.035,-0.089,-0.114,-0.064,-0.032
-0.017,-0.094,-0.077,0.056,0.03,-0.085,0.018,-0.032,-0.097,-0.122,-0.075,-0.049
-0.03,-0.106,-0.076,0.068,0.023,-0.091,0.022,-0.045,-0.097,-0.124,-0.079,-0.059
0.004,-0.084,-0.088,0.04,0.047,-0.086,0.004,-0.05,-0.086,-0.114,-0.069,-0.049
-0.046,-0.135,-0.089,0.091,0.021,-0.112,0.023,-0.016,-0.089,-0.127,-0.078,-0.063
-0.057,-0.098,-0.041,0.078,-0.008,-0.069,0.019,-0.013,-0.073,-0.1,-0.063,-0.051
0.073,-0.11,-0.183,0.018,0.128,-0.146,0.065,0.276,0.042,-0.043,-0.041,-0.059
0.176,0.212,0.036,-0.194,0.07,0.124,-0.085,-0.127,0.153,0.255,0.309,0.235
0.154,0.617,0.463,-0.386,-0.155,0.54,-0.367,-0.864,0.304,0.608,0.713,0.602
-0.063,0.155,0.218,-0.047,-0.14,0.186,-0.37,-0.89,-0.079,0.12,0.247,0.279
-0.206,-0.203,0.003,0.204,-0.104,-0.1,-0.349,-0.762,-0.509,-0.366,-0.204,-0.062
-0.097,-0.15,-0.053,0.124,-0.022,-0.101,-0.194,-0.308,-0.263,-0.222,-0.132,-0.068
-0.032,-0.143,-0.111,0.088,0.04,-0.127,-0.039,-0.05,-0.123,-0.144,-0.111,-0.081
-0.051,-0.12,-0.069,0.086,0.009,-0.095,-0.025,-0.051,-0.097,-0.107,-0.087,-0.071
-0.031,-0.132,-0.101,0.082,0.035,-0.117,0.012,0.02,-0.063,-0.094,-0.085,-0.077
-0.023,-0.119,-0.097,0.071,0.037,-0.108,0.012,0.009,-0.077,-0.099,-0.082,-0.074
-0.031,-0.122,-0.091,0.077,0.03,-0.106,0.031,0.034,-0.058,-0.087,-0.074,-0.071
-0.021,-0.119,-0.098,0.07,0.038,-0.108,0.03,0.024,-0.065,-0.091,-0.074,-0.067
-0.028,-0.11,-0.082,0.069,0.027,-0.096,0.029,0.032,-0.053,-0.082,-0.064,-0.06
-0.033,-0.104,-0.071,0.069,0.019,-0.087,0.031,0.036,-0.053,-0.082,-0.061,-0.059
-0.028,-0.094,-0.066,0.061,0.019,-0.08,0.029,0.042,-0.046,-0.071,-0.05,-0.051
-0.017,-0.09,-0.074,0.054,0.029,-0.082,0.03,0.044,-0.041,-0.066,-0.044,-0.052
-0.021,-0.083,-0.062,0.052,0.021,-0.072,0.032,0.039,-0.039,-0.059,-0.036,-0.051
-0.054,-0.076,-0.022,0.065,-0.016,-0.048,0.046,0.039,-0.032,-0.052,-0.029,-0.045
-0.023,-0.064,-0.041,0.044,0.009,-0.052,0.045,0.052,-0.029,-0.048,-0.023,-0.04
0.007,-0.054,-0.061,0.024,0.034,-0.057,0.044,0.075,-0.018,-0.041,-0.015,-0.034
0.007,-0.041,-0.048,0.017,0.028,-0.044,0.04,0.082,0.004,-0.029,-0.01,-0.029
0.02,-0.03,-0.05,0.006,0.035,-0.04,0.04,0.097,0.017,-0.005,-0.001,-0.024
0.028,-0.013,-0.041,-0.007,0.035,-0.026,0.038,0.127,0.045,0.018,0.014,-0.013
0.043,0.007,-0.036,-0.025,0.039,-0.014,0.033,0.157,0.081,0.04,0.025,-0.001
0.03,0.027,-0.003,-0.028,0.016,0.011,0.049,0.194,0.107,0.069,0.054,0.012
0.016,0.05,0.034,-0.033,-0.01,0.042,0.062,0.232,0.142,0.094,0.085,0.033
0.014,0.059,0.045,-0.036,-0.016,0.052,0.058,0.258,0.176,0.127,0.108,0.05
0.061,0.085,0.024,-0.073,0.019,0.054,0.055,0.279,0.201,0.157,0.129,0.061
0.082,0.099,0.017,-0.091,0.032,0.058,0.054,0.267,0.201,0.163,0.136,0.062
0.03,0.087,0.058,-0.059,-0.014,0.072,0.048,0.258,0.198,0.159,0.14,0.054
0.017,0.08,0.063,-0.048,-0.024,0.071,0.056,0.244,0.203,0.146,0.138,0.048
0.016,0.071,0.055,-0.043,-0.02,0.063,0.07,0.206,0.192,0.136,0.128,0.041
0.003,0.058,0.055,-0.031,-0.026,0.056,0.063,0.171,0.157,0.122,0.105,0.034
-0.009,0.026,0.035,-0.009,-0.023,0.031,0.056,0.129,0.107,0.105,0.071,0.029
-0.038,0.002,0.04,0.018,-0.039,0.02,0.05,0.091,0.07,0.088,0.044,0.02
-0.036,-0.017,0.02,0.027,-0.028,0.001,0.042,0.061,0.058,0.07,0.033,0.01
-0.023,-0.037,-0.013,0.03,-0.005,-0.025,0.038,0.039,0.052,0.063,0.028,0.0
-0.043,-0.035,0.007,0.039,-0.024,-0.014,0.034,0.031,0.042,0.055,0.02,-0.009
-0.017,-0.035,-0.018,0.026,0.001,-0.026,0.032,0.024,0.036,0.049,0.012,-0.01
0.002,-0.034,-0.036,0.016,0.019,-0.035,0.029,0.018,0.035,0.039,0.006,-0.01
-0.028,-0.029,-0.002,0.028,-0.013,-0.015,0.026,0.011,0.035,0.04,0.012,-0.015
-0.035,-0.031,0.004,0.033,-0.02,-0.013,0.024,0.005,0.035,0.043,0.02,-0.015
-0.025,-0.027,-0.002,0.026,-0.011,-0.014,0.033,0.011,0.035,0.042,0.025,-0.016
-0.048,-0.021,0.027,0.034,-0.037,0.003,0.038,0.016,0.034,0.054,0.033,-0.02
-0.053,-0.016,0.036,0.034,-0.044,0.01,0.034,0.021,0.037,0.059,0.035,-0.02
-0.016,-0.011,0.006,0.013,-0.011,-0.002,0.035,0.027,0.044,0.06,0.035,-0.02
-0.032,-0.006,0.026,0.019,-0.029,0.01,0.031,0.033,0.053,0.061,0.038,-0.02
-0.052,0.001,0.053,0.025,-0.053,0.027,0.03,0.033,0.06,0.058,0.04,-0.02
-0.053,0.003,0.056,0.025,-0.055,0.029,0.03,0.028,0.06,0.056,0.04,-0.024
-0.045,0.009,0.054,0.018,-0.05,0.031,0.025,0.025,0.06,0.053,0.034,-0.029
-0.055,-0.011,0.044,0.033,-0.049,0.016,0.025,0.021,0.06,0.062,0.028,-0.032
-0.09,-0.042,0.049,0.066,-0.069,0.003,0.025,0.017,0.06,0.075,0.024,-0.038
-0.083,-0.039,0.043,0.061,-0.063,0.002,0.025,0.014,0.057,0.075,0.018,-0.039
-0.078,-0.041,0.036,0.059,-0.057,-0.002,0.026,0.011,0.054,0.076,0.012,-0.035
-0.079,-0.046,0.033,0.062,-0.056,-0.006,0.022,0.008,0.055,0.081,0.012,-0.033
-0.084,-0.045,0.039,0.064,-0.061,-0.003,0.02,0.005,0.051,0.079,0.023,-0.03
-0.085,-0.043,0.041,0.064,-0.063,-0.001,0.02,0.002,0.049,0.083,0.03,-0.027
-0.066,-0.039,0.027,0.052,-0.046,-0.006,0.016,0.0,0.051,0.085,0.03,-0.024
-0.067,-0.037,0.03,0.052,-0.048,-0.003,0.015,-0.003,0.054,0.084,0.031,-0.029
-0.075,-0.034,0.041,0.054,-0.058,0.004,0.015,-0.005,0.06,0.089,0.036,-0.03
-0.069,-0.031,0.039,0.05,-0.054,0.004,0.015,-0.005,0.063,0.09,0.034,-0.03
-0.06,-0.029,0.031,0.044,-0.045,0.001,0.015,-0.005,0.068,0.09,0.038,-0.03
-0.067,-0.026,0.041,0.046,-0.053,0.007,0.015,-0.005,0.07,0.094,0.04,-0.03
-0.059,-0.025,0.035,0.042,-0.046,0.005,0.015,-0.005,0.07,0.096,0.039,-0.029
-0.053,-0.026,0.027,0.039,-0.04,0.001,0.014,0.0,0.07,0.1,0.044,-0.024
-0.067,-0.024,0.043,0.046,-0.055,0.009,0.018,0.002,0.069,0.101,0.045,-0.019
-0.059,-0.03,0.028,0.044,-0.043,-0.001,0.027,0.007,0.082,0.108,0.046,-0.015
-0.075,-0.041,0.034,0.058,-0.054,-0.004,0.038,0.008,0.089,0.109,0.036,-0.01
-0.079,-0.019,0.06,0.049,-0.069,0.02,0.046,0.016,0.103,0.122,0.038,-0.005
-0.049,0.019,0.068,0.015,-0.059,0.043,0.053,0.039,0.132,0.148,0.062,-0.002
-0.052,0.035,0.086,0.008,-0.069,0.06,0.059,0.052,0.143,0.161,0.077,0.006
-0.04,0.052,0.093,-0.006,-0.067,0.072,0.056,0.06,0.155,0.175,0.082,0.009
-0.039,0.077,0.115,-0.019,-0.077,0.096,0.049,0.045,0.168,0.189,0.096,0.02
-0.054,0.079,0.133,-0.013,-0.093,0.106,0.046,0.043,0.173,0.194,0.104,0.025
-0.047,0.068,0.115,-0.011,-0.081,0.091,0.038,0.028,0.154,0.186,0.094,0.014
-0.037,0.028,0.065,0.004,-0.051,0.047,0.034,0.025,0.145,0.18,0.088,0.007
-0.054,-0.026,0.028,0.04,-0.041,0.001,0.037,0.021,0.133,0.154,0.067,-0.008
-0.082,-0.049,0.033,0.065,-0.057,-0.008,0.031,0.003,0.133,0.144,0.058,-0.008
-0.077,-0.078,-0.001,0.077,-0.037,-0.04,0.04,0.018,0.129,0.137,0.049,-0.025
-0.067,-0.048,0.02,0.057,-0.043,-0.014,0.028,-0.025,0.12,0.141,0.06,-0.019
-0.074,-0.083,-0.009,0.079,-0.033,-0.046,0.044,0.033,0.129,0.141,0.052,-0.04
-0.065,-0.072,-0.007,0.069,-0.028,-0.039,0.03,0.012,0.107,0.134,0.055,-0.033
-0.005,-0.08,-0.075,0.043,0.035,-0.077,0.081,0.244,0.223,0.19,0.069,-0.029
0.079,0.066,-0.013,-0.072,0.046,0.026,0.018,0.133,0.313,0.37,0.256,0.115
0.076,0.594,0.518,-0.335,-0.222,0.555,-0.281,-0.683,0.496,0.82,0.76,0.566
-0.098,0.358,0.456,-0.13,-0.277,0.406,-0.319,-0.848,0.326,0.595,0.531,0.416
-0.255,-0.157,0.097,0.206,-0.176,-0.03,-0.316,-0.769,-0.3,-0.103,-0.082,-0.029
-0.194,-0.137,0.057,0.165,-0.125,-0.04,-0.249,-0.446,-0.204,-0.062,-0.072,-0.059
-0.094,-0.118,-0.024,0.106,-0.035,-0.071,-0.045,-0.048,0.071,0.098,-0.006,-0.063
-0.077,-0.085,-0.008,0.082,-0.034,-0.046,0.019,-0.031,0.089,0.111,0.007,-0.055
-0.088,-0.084,0.004,0.086,-0.045,-0.04,0.046,0.036,0.128,0.136,0.025,-0.05
-0.105,-0.088,0.017,0.096,-0.06,-0.035,0.04,0.019,0.115,0.129,0.025,-0.049
-0.108,-0.078,0.031,0.093,-0.069,-0.023,0.046,0.034,0.141,0.148,0.044,-0.039
-0.095,-0.084,0.012,0.089,-0.053,-0.036,0.043,0.038,0.132,0.134,0.036,-0.043
-0.068,-0.077,-0.009,0.072,-0.029,-0.043,0.036,0.031,0.139,0.143,0.042,-0.038
-0.063,-0.076,-0.013,0.069,-0.025,-0.044,0.036,0.039,0.141,0.153,0.039,-0.038
-0.081,-0.06,0.021,0.071,-0.051,-0.019,0.03,0.035,0.14,0.163,0.04,-0.033
-0.085,-0.054,0.031,0.069,-0.057,-0.011,0.025,0.059,0.147,0.165,0.042,-0.035
-0.073,-0.042,0.031,0.057,-0.052,-0.005,0.031,0.06,0.147,0.17,0.05,-0.03
-0.076,-0.036,0.04,0.056,-0.058,0.002,0.051,0.069,0.151,0.178,0.056,-0.026
-0.083,-0.031,0.052,0.057,-0.067,0.01,0.05,0.077,0.156,0.18,0.063,-0.024
-0.074,-0.024,0.05,0.049,-0.061,0.013,0.05,0.086,0.179,0.188,0.065,-0.019
-0.071,-0.022,0.049,0.046,-0.06,0.014,0.049,0.092,0.187,0.191,0.076,-0.016
-0.06,-0.008,0.052,0.034,-0.056,0.022,0.058,0.118,0.189,0.204,0.091,-0.012
-0.043,0.003,0.046,0.02,-0.044,0.024,0.067,0.139,0.206,0.216,0.092,-0.004
-0.037,0.027,0.064,0.005,-0.051,0.045,0.062,0.154,0.233,0.238,0.112,0.003
-0.038,0.051,0.088,-0.007,-0.063,0.069,0.06,0.19,0.261,0.271,0.134,0.008
-0.025,0.057,0.082,-0.016,-0.054,0.069,0.057,0.224,0.292,0.293,0.161,0.03
0.008,0.087,0.079,-0.048,-0.036,0.083,0.054,0.256,0.32,0.321,0.192,0.057
0.026,0.104,0.078,-0.065,-0.026,0.091,0.062,0.264,0.343,0.34,0.211,0.067
0.03,0.101,0.071,-0.066,-0.021,0.086,0.075,0.255,0.342,0.335,0.219,0.074
0.01,0.099,0.089,-0.055,-0.039,0.094,0.075,0.247,0.328,0.326,0.213,0.08
-0.008,0.096,0.104,-0.044,-0.056,0.1,0.075,0.24,0.322,0.317,0.202,0.071
0.005,0.093,0.088,-0.049,-0.042,0.09,0.08,0.225,0.302,0.308,0.193,0.059
-0.019,0.071,0.09,-0.026,-0.055,0.08,0.08,0.185,0.272,0.298,0.179,0.046
-0.05,0.043,0.093,0.003,-0.072,0.068,0.079,0.14,0.245,0.276,0.151,0.029
-0.042,0.018,0.06,0.012,-0.052,0.039,0.07,0.101,0.216,0.234,0.126,0.015
-0.035,0.005,0.04,0.015,-0.037,0.022,0.061,0.065,0.182,0.203,0.113,0.005
-0.039,0.0,0.038,0.019,-0.038,0.019,0.053,0.047,0.157,0.192,0.102,-0.008
-0.042,-0.008,0.034,0.025,-0.037,0.012,0.043,0.041,0.14,0.18,0.093,-0.017
-0.043,-0.015,0.028,0.029,-0.035,0.006,0.036,0.034,0.132,0.17,0.082,-0.021
-0.069,-0.023,0.046,0.046,-0.057,0.011,0.035,0.026,0.126,0.16,0.075,-0.02
-0.084,-0.021,0.062,0.052,-0.073,0.02,0.035,0.018,0.118,0.15,0.07,-0.02
-0.069,-0.015,0.055,0.041,-0.061,0.02,0.03,0.017,0.11,0.141,0.065,-0.02
-0.063,-0.01,0.053,0.037,-0.058,0.021,0.03,0.02,0.105,0.135,0.061,-0.02
-0.053,-0.004,0.049,0.029,-0.051,0.022,0.029,0.02,0.105,0.13,0.056,-0.021
-0.041,0.001,0.042,0.02,-0.042,0.021,0.025,0.02,0.105,0.124,0.052,-0.019
-0.051,0.007,0.058,0.022,-0.055,0.032,0.025,0.02,0.105,0.119,0.05,-0.027
-0.063,0.01,0.073,0.027,-0.068,0.041,0.025,0.02,0.105,0.114,0.05,-0.036
-0.054,0.012,0.067,0.021,-0.061,0.039,0.025,0.015,0.105,0.107,0.05,-0.03
-0.05,0.015,0.065,0.017,-0.058,0.04,0.025,0.015,0.101,0.101,0.05,-0.025
-0.043,0.018,0.062,0.012,-0.053,0.04,0.022,0.014,0.095,0.094,0.05,-0.023
-0.038,0.021,0.059,0.009,-0.049,0.04,0.017,0.009,0.089,0.087,0.044,-0.014
-0.049,0.016,0.064,0.016,-0.057,0.04,0.014,0.01,0.083,0.081,0.039,-0.026
-0.055,0.01,0.065,0.022,-0.06,0.037,0.01,0.008,0.076,0.076,0.034,-0.043
-0.062,0.005,0.067,0.028,-0.065,0.036,0.007,0.001,0.069,0.069,0.028,-0.038
-0.071,-0.001,0.071,0.036,-0.071,0.035,0.003,-0.006,0.062,0.062,0.022,-0.035
-0.075,-0.007,0.068,0.041,-0.072,0.03,0.0,-0.013,0.054,0.056,0.017,-0.033
-0.074,-0.009,0.065,0.041,-0.07,0.028,0.0,-0.019,0.048,0.049,0.013,-0.029
-0.067,-0.004,0.063,0.035,-0.064,0.029,0.0,-0.025,0.04,0.044,0.007,-0.032
-0.061,-0.001,0.06,0.031,-0.06,0.029,0.0,-0.025,0.032,0.039,0.004,-0.039
-0.054,0.002,0.056,0.025,-0.055,0.029,0.0,-0.025,0.026,0.033,-0.002,-0.044
-0.049,0.006,0.055,0.021,-0.052,0.031,0.003,-0.025,0.018,0.03,-0.005,-0.041
-0.041,0.01,0.05,0.015,-0.046,0.03,0.007,-0.023,0.01,0.024,0.0,-0.037
-0.036,0.015,0.051,0.011,-0.044,0.032,0.008,-0.034,0.006,0.021,0.005,-0.034
-0.018,0.025,0.043,-0.004,-0.031,0.034,0.012,-0.034,0.014,0.015,0.009,-0.029
-0.014,0.036,0.05,-0.011,-0.032,0.042,0.014,-0.021,0.021,0.013,0.014,-0.026
-0.039,0.049,0.088,-0.006,-0.064,0.069,0.016,-0.007,0.034,0.03,0.019,-0.023
-0.027,0.087,0.114,-0.031,-0.071,0.1,0.033,0.003,0.055,0.042,0.022,-0.019
-0.011,0.111,0.122,-0.05,-0.067,0.116,0.034,0.024,0.064,0.037,0.027,-0.014
-0.016,0.115,0.131,-0.05,-0.074,0.123,0.016,0.024,0.055,0.028,0.029,-0.013
0.003,0.139,0.136,-0.071,-0.066,0.137,-0.001,0.003,0.049,0.024,0.025,-0.006
0.02,0.138,0.118,-0.079,-0.049,0.128,-0.004,-0.005,0.04,0.012,0.01,-0.007
0.002,0.109,0.107,-0.055,-0.053,0.107,-0.009,-0.029,0.032,0.01,0.005,-0.02
-0.018,0.048,0.067,-0.015,-0.042,0.057,-0.008,-0.024,0.021,-0.008,-0.011,-0.051
-0.032,0.023,0.055,0.004,-0.044,0.039,-0.015,-0.057,-0.017,-0.037,-0.024,-0.06
-0.039,0.002,0.041,0.018,-0.04,0.021,-0.015,-0.036,-0.019,-0.046,-0.041,-0.068
-0.042,-0.007,0.034,0.024,-0.038,0.013,-0.01,-0.054,-0.04,-0.058,-0.053,-0.076
-0.042,-0.012,0.029,0.027,-0.035,0.008,-0.003,-0.04,-0.023,-0.055,-0.044,-0.076
-0.056,-0.043,0.013,0.049,-0.034,-0.015,0.016,-0.043,-0.027,-0.072,-0.058,-0.097
-0.03,-0.004,0.026,0.017,-0.028,0.011,0.011,0.014,0.0,-0.02,-0.027,-0.072
0.083,-0.022,-0.104,-0.03,0.093,-0.063,0.042,0.272,0.119,0.035,0.003,-0.06
0.144,0.423,0.278,-0.284,-0.067,0.35,-0.192,-0.419,0.221,0.396,0.444,0.333
0.073,0.691,0.618,-0.382,-0.273,0.654,-0.435,-1.024,0.297,0.654,0.742,0.623
-0.129,0.12,0.249,0.004,-0.189,0.184,-0.41,-0.898,-0.183,0.001,0.126,0.176
-0.193,-0.12,0.073,0.156,-0.133,-0.024,-0.365,-0.735,-0.49,-0.369,-0.223,-0.103
-0.087,-0.07,0.017,0.078,-0.051,-0.026,-0.17,-0.237,-0.185,-0.177,-0.127,-0.097
-0.061,-0.068,-0.007,0.064,-0.026,-0.037,-0.06,-0.073,-0.1,-0.138,-0.113,-0.108
-0.054,-0.045,0.009,0.05,-0.031,-0.018,-0.04,-0.05,-0.084,-0.114,-0.083,-0.091
-0.041,-0.056,-0.015,0.049,-0.013,-0.035,-0.01,0.002,-0.071,-0.122,-0.093,-0.098
-0.034,-0.037,-0.004,0.036,-0.015,-0.02,-0.022,-0.025,-0.075,-0.12,-0.083,-0.087
-0.038,-0.041,-0.003,0.04,-0.018,-0.022,-0.008,0.007,-0.056,-0.118,-0.083,-0.088
-0.048,-0.031,0.017,0.039,-0.032,-0.007,-0.011,-0.01,-0.062,-0.123,-0.081,-0.084
-0.036,-0.029,0.008,0.033,-0.022,-0.01,-0.004,0.009,-0.052,-0.116,-0.076,-0.085
-0.036,-0.026,0.01,0.031,-0.023,-0.007,-0.001,0.004,-0.058,-0.117,-0.076,-0.081
-0.032,-0.021,0.011,0.026,-0.021,-0.005,0.0,0.013,-0.053,-0.114,-0.07,-0.079
-0.026,-0.018,0.007,0.022,-0.017,-0.005,0.001,0.018,-0.052,-0.114,-0.07,-0.08
-0.039,-0.014,0.025,0.026,-0.031,0.006,0.004,0.02,-0.05,-0.109,-0.065,-0.072
-0.036,-0.006,0.03,0.02,-0.033,0.012,0.006,0.027,-0.05,-0.111,-0.065,-0.066
-0.027,0.011,0.038,0.008,-0.033,0.025,0.005,0.03,-0.043,-0.105,-0.058,-0.059
-0.038,0.022,0.06,0.008,-0.049,0.041,0.011,0.048,-0.032,-0.095,-0.05,-0.052
-0.03,0.03,0.06,0.0,-0.045,0.045,0.014,0.063,-0.022,-0.085,-0.042,-0.046
-0.022,0.037,0.059,-0.008,-0.041,0.048,0.017,0.088,-0.008,-0.068,-0.034,-0.04
-0.006,0.055,0.062,-0.024,-0.034,0.058,0.022,0.111,0.013,-0.053,-0.027,-0.032
0.034,0.091,0.057,-0.062,-0.012,0.074,0.025,0.146,0.038,-0.039,-0.008,-0.024
0.04,0.105,0.066,-0.073,-0.014,0.085,0.025,0.186,0.07,-0.015,0.012,-0.008
0.051,0.124,0.073,-0.088,-0.011,0.098,0.025,0.22,0.101,0.012,0.033,0.005
0.068,0.152,0.085,-0.11,-0.009,0.118,0.025,0.247,0.125,0.033,0.054,0.015
0.058,0.158,0.1,-0.109,-0.021,0.129,0.025,0.242,0.138,0.041,0.066,0.023
0.06,0.153,0.094,-0.107,-0.017,0.123,0.025,0.235,0.137,0.035,0.064,0.018
0.056,0.143,0.087,-0.1,-0.016,0.115,0.024,0.231,0.128,0.027,0.052,0.012
0.053,0.136,0.083,-0.095,-0.015,0.109,0.018,0.201,0.104,0.018,0.041,0.006
0.046,0.124,0.078,-0.085,-0.016,0.101,0.011,0.157,0.068,-0.004,0.029,0.002
0.027,0.102,0.075,-0.065,-0.024,0.088,0.004,0.114,0.032,-0.035,0.008,-0.005
0.01,0.078,0.068,-0.044,-0.029,0.073,-0.003,0.069,-0.005,-0.064,-0.012,-0.015
0.001,0.059,0.057,-0.03,-0.028,0.058,-0.009,0.025,-0.04,-0.093,-0.032,-0.027
0.003,0.052,0.05,-0.028,-0.024,0.051,-0.014,-0.016,-0.07,-0.113,-0.052,-0.044
-0.003,0.047,0.05,-0.022,-0.027,0.048,-0.021,-0.03,-0.086,-0.122,-0.064,-0.051
-0.006,0.044,0.05,-0.019,-0.028,0.047,-0.025,-0.039,-0.099,-0.124,-0.068,-0.056
-0.012,0.038,0.05,-0.013,-0.031,0.044,-0.025,-0.052,-0.109,-0.136,-0.073,-0.061
-0.015,0.035,0.05,-0.01,-0.033,0.042,-0.027,-0.049,-0.106,-0.146,-0.082,-0.056
-0.011,0.04,0.05,-0.014,-0.031,0.045,-0.025,-0.05,-0.105,-0.145,-0.08,-0.055
-0.014,0.04,0.054,-0.014,-0.034,0.047,-0.025,-0.05,-0.105,-0.149,-0.075,-0.055
-0.016,0.04,0.056,-0.012,-0.036,0.047,-0.025,-0.05,-0.1,-0.151,-0.073,-0.05
-0.014,0.04,0.054,-0.013,-0.034,0.047,-0.025,-0.046,-0.099,-0.146,-0.068,-0.05
-0.014,0.042,0.056,-0.014,-0.036,0.049,-0.025,-0.045,-0.101,-0.146,-0.065,-0.049
-0.007,0.046,0.053,-0.02,-0.031,0.05,-0.033,-0.045,-0.109,-0.144,-0.068,-0.045
-0.015,0.044,0.059,-0.015,-0.038,0.052,-0.036,-0.04,-0.117,-0.141,-0.072,-0.045
-0.03,0.046,0.075,-0.008,-0.053,0.061,-0.034,-0.04,-0.12,-0.139,-0.075,-0.045
-0.017,0.058,0.075,-0.021,-0.046,0.066,-0.036,-0.041,-0.12,-0.142,-0.078,-0.045
-0.014,0.061,0.074,-0.024,-0.044,0.067,-0.035,-0.046,-0.119,-0.16,-0.082,-0.045
-0.016,0.06,0.075,-0.022,-0.046,0.067,-0.035,-0.049,-0.121,-0.167,-0.085,-0.048
-0.015,0.059,0.074,-0.022,-0.045,0.066,-0.038,-0.054,-0.119,-0.164,-0.085,-0.051
-0.021,0.054,0.075,-0.017,-0.049,0.065,-0.042,-0.057,-0.122,-0.166,-0.085,-0.05
-0.019,0.056,0.075,-0.019,-0.047,0.065,-0.045,-0.065,-0.133,-0.165,-0.085,-0.05
-0.022,0.052,0.075,-0.015,-0.049,0.063,-0.049,-0.076,-0.136,-0.164,-0.085,-0.051
-0.02,0.05,0.07,-0.015,-0.045,0.059,-0.049,-0.075,-0.139,-0.177,-0.089,-0.056
-0.013,0.05,0.063,-0.019,-0.038,0.056,-0.045,-0.075,-0.141,-0.186,-0.09,-0.06
-0.014,0.047,0.06,-0.017,-0.037,0.053,-0.045,-0.076,-0.142,-0.184,-0.09,-0.057
-0.007,0.044,0.051,-0.019,-0.029,0.047,-0.045,-0.074,-0.14,-0.185,-0.09,-0.055
-0.009,0.041,0.05,-0.016,-0.03,0.045,-0.045,-0.079,-0.14,-0.185,-0.091,-0.055
0.002,0.038,0.036,-0.021,-0.017,0.037,-0.045,-0.086,-0.14,-0.185,-0.095,-0.055
0.012,0.035,0.023,-0.024,-0.006,0.028,-0.041,-0.084,-0.139,-0.188,-0.095,-0.055
-0.014,0.036,0.05,-0.011,-0.032,0.043,-0.04,-0.088,-0.141,-0.19,-0.097,-0.056
-0.014,0.04,0.055,-0.013,-0.034,0.047,-0.04,-0.09,-0.14,-0.19,-0.101,-0.057
0.0,0.043,0.043,-0.022,-0.022,0.043,-0.035,-0.09,-0.141,-0.19,-0.1,-0.051
0.001,0.047,0.046,-0.025,-0.023,0.047,-0.035,-0.084,-0.137,-0.188,-0.096,-0.046
0.016,0.049,0.034,-0.033,-0.009,0.041,-0.034,-0.07,-0.135,-0.178,-0.095,-0.043
0.011,0.048,0.038,-0.03,-0.014,0.043,-0.017,-0.061,-0.133,-0.165,-0.093,-0.037
-0.006,0.073,0.079,-0.034,-0.043,0.076,0.0,-0.041,-0.112,-0.156,-0.081,-0.034
0.017,0.112,0.095,-0.064,-0.04,0.103,0.008,-0.04,-0.103,-0.151,-0.065,-0.028
0.024,0.116,0.091,-0.07,-0.034,0.103,0.014,-0.045,-0.106,-0.146,-0.063,-0.024
-0.004,0.128,0.133,-0.062,-0.068,0.13,0.001,-0.051,-0.11,-0.143,-0.065,-0.019
0.018,0.143,0.125,-0.081,-0.053,0.134,-0.009,-0.043,-0.11,-0.136,-0.066,-0.015
0.027,0.12,0.093,-0.074,-0.033,0.106,-0.012,-0.04,-0.116,-0.134,-0.072,-0.011
0.009,0.089,0.081,-0.049,-0.036,0.085,-0.017,-0.058,-0.115,-0.147,-0.069,-0.018
0.003,0.034,0.031,-0.019,-0.014,0.032,-0.018,-0.065,-0.137,-0.184,-0.095,-0.053
-0.025,0.011,0.036,0.006,-0.031,0.023,-0.026,-0.091,-0.164,-0.199,-0.107,-0.064
-0.013,-0.014,-0.002,0.014,-0.005,-0.008,-0.027,-0.079,-0.163,-0.202,-0.117,-0.077
-0.018,-0.004,0.014,0.011,-0.016,0.005,-0.049,-0.117,-0.17,-0.2,-0.118,-0.072
-0.014,-0.025,-0.012,0.02,-0.001,-0.018,-0.03,-0.082,-0.158,-0.197,-0.14,-0.086
0.002,-0.024,-0.026,0.011,0.014,-0.025,-0.029,-0.099,-0.169,-0.208,-0.146,-0.087
0.041,-0.008,-0.049,-0.016,0.045,-0.028,0.004,0.103,-0.081,-0.172,-0.112,-0.082
0.17,0.092,-0.078,-0.131,0.124,0.007,-0.012,0.104,0.017,-0.025,0.032,0.027
0.196,0.62,0.424,-0.408,-0.114,0.522,-0.312,-0.719,0.166,0.427,0.581,0.5
0.049,0.525,0.476,-0.287,-0.214,0.501,-0.471,-1.028,0.058,0.334,0.516,0.489
-0.146,-0.044,0.102,0.095,-0.124,0.029,-0.44,-0.918,-0.503,-0.362,-0.152,0.007
-0.141,-0.094,0.047,0.117,-0.094,-0.023,-0.31,-0.595,-0.502,-0.428,-0.245,-0.1
-0.035,-0.062,-0.026,0.049,-0.004,-0.044,-0.113,-0.158,-0.229,-0.273,-0.173,-0.099
-0.036,-0.042,-0.006,0.039,-0.015,-0.024,-0.065,-0.129,-0.21,-0.262,-0.147,-0.103
-0.016,-0.037,-0.021,0.026,0.003,-0.028,-0.046,-0.067,-0.168,-0.229,-0.126,-0.096
-0.023,-0.039,-0.015,0.031,-0.004,-0.026,-0.04,-0.068,-0.177,-0.239,-0.143,-0.104
-0.013,-0.026,-0.012,0.019,0.0,-0.019,-0.032,-0.068,-0.168,-0.223,-0.125,-0.095
0.026,-0.03,-0.056,0.002,0.041,-0.043,-0.023,-0.053,-0.165,-0.226,-0.134,-0.098
0.007,-0.018,-0.025,0.005,0.016,-0.021,-0.024,-0.061,-0.163,-0.218,-0.127,-0.093
-0.01,-0.017,-0.007,0.014,-0.002,-0.011,-0.017,-0.042,-0.156,-0.214,-0.127,-0.094
0.01,-0.006,-0.016,-0.002,0.014,-0.011,-0.016,-0.045,-0.156,-0.212,-0.121,-0.089
0.003,-0.002,-0.005,-0.001,0.004,-0.004,-0.01,-0.031,-0.147,-0.206,-0.118,-0.091
-0.017,0.006,0.023,0.005,-0.02,0.014,-0.008,-0.028,-0.146,-0.205,-0.115,-0.086
-0.006,0.011,0.018,-0.003,-0.012,0.014,-0.004,-0.019,-0.14,-0.2,-0.11,-0.076
-0.018,0.018,0.037,-0.001,-0.027,0.027,-0.005,-0.01,-0.136,-0.198,-0.108,-0.069
0.01,0.028,0.018,-0.02,-0.004,0.023,-0.001,0.0,-0.125,-0.188,-0.097,-0.061
0.045,0.026,-0.02,-0.035,0.032,0.003,0.001,0.021,-0.115,-0.182,-0.087,-0.054
0.063,0.044,-0.019,-0.054,0.041,0.013,0.0,0.038,-0.099,-0.168,-0.078,-0.046
0.058,0.06,0.001,-0.059,0.028,0.03,0.008,0.064,-0.072,-0.145,-0.064,-0.039
0.028,0.058,0.03,-0.043,-0.001,0.044,0.016,0.1,-0.043,-0.122,-0.05,-0.034
0.049,0.08,0.031,-0.065,0.009,0.055,0.026,0.131,-0.014,-0.098,-0.035,-0.019
0.089,0.103,0.013,-0.096,0.037,0.058,0.028,0.174,0.011,-0.077,-0.008,0.003
0.109,0.121,0.012,-0.116,0.049,0.066,0.022,0.207,0.034,-0.058,0.011,0.018
0.109,0.143,0.035,-0.126,0.037,0.089,0.017,0.226,0.047,-0.055,0.026,0.03
0.095,0.142,0.047,-0.119,0.024,0.094,0.014,0.222,0.044,-0.054,0.033,0.033
0.092,0.136,0.044,-0.115,0.024,0.09,0.008,0.208,0.035,-0.056,0.022,0.027
0.086,0.131,0.045,-0.109,0.02,0.088,0.006,0.203,0.034,-0.053,0.014,0.025
0.076,0.125,0.048,-0.101,0.013,0.086,0.01,0.175,0.014,-0.06,0.005,0.02
0.074,0.12,0.047,-0.097,0.014,0.083,0.005,0.124,-0.021,-0.083,-0.003,0.017
0.07,0.104,0.034,-0.087,0.018,0.069,-0.003,0.072,-0.052,-0.109,-0.027,0.013
0.052,0.08,0.028,-0.066,0.012,0.053,-0.01,0.029,-0.092,-0.138,-0.056,-0.001
0.028,0.049,0.021,-0.039,0.003,0.035,-0.018,-0.003,-0.118,-0.156,-0.069,-0.024
0.022,0.034,0.012,-0.028,0.004,0.023,-0.024,-0.042,-0.141,-0.176,-0.073,-0.039
0.025,0.032,0.007,-0.029,0.009,0.019,-0.03,-0.065,-0.152,-0.187,-0.082,-0.04
0.034,0.028,-0.006,-0.031,0.02,0.011,-0.03,-0.066,-0.159,-0.19,-0.095,-0.04
0.022,0.025,0.003,-0.024,0.009,0.014,-0.031,-0.07,-0.166,-0.197,-0.095,-0.04
0.002,0.02,0.018,-0.011,-0.008,0.018,-0.035,-0.068,-0.161,-0.2,-0.095,-0.04
0.008,0.023,0.015,-0.016,-0.003,0.018,-0.035,-0.064,-0.159,-0.205,-0.095,-0.04
0.011,0.025,0.014,-0.019,-0.002,0.019,-0.032,-0.062,-0.156,-0.201,-0.095,-0.04
0.015,0.026,0.011,-0.021,0.002,0.018,-0.03,-0.059,-0.153,-0.2,-0.093,-0.04
0.022,0.03,0.008,-0.026,0.007,0.019,-0.026,-0.056,-0.15,-0.2,-0.089,-0.04
0.01,0.03,0.02,-0.02,-0.005,0.025,-0.025,-0.055,-0.15,-0.195,-0.09,-0.04
0.009,0.035,0.026,-0.022,-0.009,0.03,-0.02,-0.055,-0.15,-0.195,-0.09,-0.04
0.033,0.035,0.002,-0.034,0.015,0.018,-0.022,-0.055,-0.15,-0.195,-0.09,-0.044
0.026,0.036,0.01,-0.031,0.007,0.023,-0.034,-0.055,-0.15,-0.195,-0.09,-0.045
0.013,0.04,0.027,-0.027,-0.007,0.033,-0.036,-0.055,-0.15,-0.195,-0.094,-0.045
0.023,0.04,0.017,-0.032,0.003,0.028,-0.034,-0.054,-0.15,-0.195,-0.095,-0.045
0.022,0.038,0.015,-0.031,0.003,0.026,-0.031,-0.058,-0.154,-0.195,-0.095,-0.045
0.025,0.034,0.01,-0.03,0.007,0.022,-0.029,-0.067,-0.161,-0.195,-0.095,-0.043
0.027,0.032,0.005,-0.03,0.011,0.018,-0.031,-0.071,-0.165,-0.198,-0.095,-0.04
0.02,0.029,0.009,-0.025,0.005,0.019,-0.029,-0.073,-0.165,-0.2,-0.095,-0.037
0.007,0.026,0.019,-0.017,-0.006,0.022,-0.03,-0.076,-0.165,-0.199,-0.095,-0.035
0.001,0.024,0.024,-0.013,-0.012,0.024,-0.03,-0.079,-0.165,-0.2,-0.095,-0.032
0.005,0.02,0.016,-0.013,-0.006,0.018,-0.03,-0.082,-0.165,-0.199,-0.095,-0.029
0.011,0.02,0.009,-0.016,0.001,0.014,-0.03,-0.084,-0.161,-0.201,-0.095,-0.034
0.017,0.019,0.002,-0.018,0.007,0.01,-0.027,-0.087,-0.16,-0.205,-0.095,-0.035
0.021,0.015,-0.006,-0.017,0.013,0.004,-0.024,-0.091,-0.16,-0.204,-0.095,-0.035
0.028,0.015,-0.012,-0.021,0.019,0.001,-0.021,-0.087,-0.16,-0.207,-0.095,-0.04
0.026,0.013,-0.013,-0.019,0.019,0.0,-0.019,-0.084,-0.16,-0.21,-0.095,-0.04
0.015,0.007,-0.007,-0.011,0.011,0.0,-0.014,-0.085,-0.16,-0.21,-0.095,-0.04
0.011,0.002,-0.009,-0.006,0.01,-0.003,-0.017,-0.081,-0.16,-0.206,-0.094,-0.04
-0.006,-0.001,0.005,0.004,-0.005,0.002,-0.02,-0.08,-0.16,-0.205,-0.097,-0.04
-0.019,-0.007,0.012,0.013,-0.015,0.002,-0.017,-0.08,-0.16,-0.205,-0.1,-0.04
-0.013,-0.01,0.003,0.011,-0.008,-0.003,-0.014,-0.075,-0.16,-0.2,-0.1,-0.04
-0.025,-0.018,0.007,0.021,-0.016,-0.005,-0.011,-0.075,-0.16,-0.2,-0.104,-0.04
-0.016,-0.023,-0.006,0.02,-0.005,-0.015,-0.008,-0.075,-0.156,-0.199,-0.106,-0.037
0.007,-0.016,-0.023,0.005,0.015,-0.019,-0.005,-0.075,-0.15,-0.192,-0.105,-0.032
0.026,-0.009,-0.035,-0.008,0.031,-0.022,-0.004,-0.075,-0.144,-0.185,-0.1,-0.03
0.033,-0.002,-0.034,-0.015,0.034,-0.018,0.003,-0.072,-0.139,-0.179,-0.092,-0.025
0.007,0.003,-0.004,-0.005,0.005,-0.001,0.008,-0.063,-0.133,-0.172,-0.086,-0.021
0.021,0.028,0.007,-0.025,0.006,0.018,0.023,-0.051,-0.123,-0.166,-0.079,-0.019
0.045,0.051,0.006,-0.048,0.02,0.028,0.029,-0.052,-0.11,-0.168,-0.076,-0.009
0.032,0.06,0.028,-0.046,0.002,0.044,0.017,-0.047,-0.101,-0.171,-0.081,-0.003
0.014,0.086,0.072,-0.05,-0.03,0.079,0.005,-0.055,-0.1,-0.17,-0.079,0.009
0.024,0.085,0.061,-0.055,-0.019,0.073,-0.005,-0.044,-0.094,-0.174,-0.08,0.005
0.026,0.066,0.04,-0.047,-0.007,0.053,-0.011,-0.056,-0.098,-0.176,-0.081,-0.005
0.025,0.017,-0.008,-0.021,0.016,0.005,-0.013,-0.066,-0.129,-0.173,-0.078,-0.014
0.015,-0.03,-0.045,0.008,0.03,-0.037,-0.017,-0.077,-0.16,-0.194,-0.091,-0.029
0.001,-0.041,-0.042,0.02,0.022,-0.041,-0.022,-0.087,-0.161,-0.207,-0.105,-0.032
0.012,-0.054,-0.066,0.021,0.039,-0.059,-0.017,-0.092,-0.174,-0.225,-0.123,-0.041
-0.003,-0.032,-0.029,0.018,0.014,-0.031,-0.028,-0.102,-0.168,-0.217,-0.105,-0.026
-0.001,-0.073,-0.073,0.037,0.036,-0.073,-0.012,-0.057,-0.171,-0.226,-0.125,-0.049
0.001,-0.041,-0.043,0.02,0.022,-0.042,-0.012,-0.081,-0.152,-0.195,-0.105,-0.032
0.085,-0.057,-0.142,-0.014,0.114,-0.099,0.036,0.2,-0.045,-0.146,-0.088,-0.048
0.201,0.193,-0.008,-0.197,0.104,0.093,-0.08,-0.085,0.056,0.094,0.197,0.186
0.193,0.658,0.465,-0.426,-0.136,0.561,-0.386,-0.863,0.218,0.508,0.687,0.625
0.0,0.276,0.276,-0.138,-0.139,0.276,-0.431,-0.946,-0.102,0.107,0.3,0.36
-0.166,-0.145,0.022,0.155,-0.094,-0.062,-0.382,-0.852,-0.58,-0.465,-0.229,-0.031
-0.062,-0.092,-0.03,0.077,-0.016,-0.06,-0.239,-0.421,-0.392,-0.362,-0.2,-0.056
-0.004,-0.087,-0.083,0.046,0.04,-0.085,-0.078,-0.105,-0.22,-0.267,-0.17,-0.071
-0.02,-0.065,-0.045,0.043,0.013,-0.055,-0.057,-0.106,-0.203,-0.249,-0.133,-0.055
-0.011,-0.073,-0.062,0.042,0.026,-0.067,-0.026,-0.032,-0.168,-0.232,-0.131,-0.06
-0.021,-0.064,-0.044,0.043,0.012,-0.054,-0.021,-0.057,-0.184,-0.23,-0.128,-0.054
-0.019,-0.061,-0.042,0.04,0.012,-0.051,-0.007,-0.03,-0.167,-0.218,-0.12,-0.052
-0.011,-0.06,-0.049,0.036,0.019,-0.055,-0.004,-0.034,-0.172,-0.223,-0.121,-0.051
0.012,-0.052,-0.064,0.02,0.038,-0.058,-0.007,-0.025,-0.163,-0.213,-0.11,-0.048
0.009,-0.05,-0.06,0.021,0.034,-0.055,-0.003,-0.016,-0.161,-0.213,-0.112,-0.052
0.005,-0.043,-0.048,0.019,0.027,-0.045,-0.007,-0.016,-0.155,-0.208,-0.104,-0.049
0.006,-0.041,-0.047,0.017,0.027,-0.044,-0.003,-0.002,-0.146,-0.203,-0.104,-0.05
-0.001,-0.035,-0.034,0.018,0.017,-0.034,-0.001,-0.003,-0.142,-0.197,-0.098,-0.045
0.01,-0.031,-0.042,0.011,0.026,-0.036,0.004,0.011,-0.133,-0.191,-0.095,-0.043
0.024,-0.024,-0.048,0.0,0.036,-0.036,0.006,0.011,-0.121,-0.187,-0.091,-0.041
0.019,-0.019,-0.038,0.0,0.029,-0.028,0.011,0.024,-0.106,-0.177,-0.082,-0.037
0.023,-0.003,-0.027,-0.01,0.025,-0.015,0.014,0.042,-0.092,-0.157,-0.076,-0.035
0.038,0.016,-0.023,-0.027,0.03,-0.003,0.017,0.062,-0.075,-0.142,-0.069,-0.032
0.048,0.023,-0.026,-0.035,0.037,-0.001,0.023,0.088,-0.058,-0.131,-0.054,-0.024
0.054,0.029,-0.025,-0.041,0.039,0.002,0.027,0.105,-0.039,-0.117,-0.037,-0.014
0.069,0.051,-0.018,-0.06,0.044,0.016,0.03,0.146,-0.016,-0.097,-0.018,-0.006
0.086,0.079,-0.007,-0.082,0.046,0.036,0.03,0.192,0.012,-0.068,0.003,0.012
0.098,0.099,0.001,-0.098,0.048,0.05,0.03,0.217,0.037,-0.058,0.017,0.031
0.099,0.113,0.013,-0.106,0.043,0.063,0.03,0.23,0.047,-0.06,0.033,0.037
0.093,0.125,0.032,-0.109,0.03,0.078,0.03,0.236,0.042,-0.061,0.042,0.04
0.095,0.124,0.029,-0.11,0.033,0.076,0.031,0.226,0.029,-0.064,0.034,0.033
0.096,0.116,0.019,-0.106,0.038,0.067,0.027,0.198,0.022,-0.066,0.021,0.022
0.099,0.114,0.015,-0.106,0.042,0.064,0.019,0.162,0.0,-0.063,0.011,0.015
0.088,0.091,0.003,-0.09,0.042,0.047,0.013,0.114,-0.039,-0.074,-0.003,0.005
0.046,0.051,0.005,-0.048,0.02,0.028,0.005,0.07,-0.062,-0.105,-0.019,-0.003
0.019,0.034,0.014,-0.027,0.002,0.024,-0.003,0.031,-0.089,-0.129,-0.036,-0.009
0.02,0.026,0.006,-0.023,0.007,0.016,-0.009,-0.011,-0.119,-0.158,-0.061,-0.016
0.016,0.014,-0.002,-0.015,0.009,0.006,-0.015,-0.037,-0.132,-0.167,-0.074,-0.022
0.021,0.007,-0.015,-0.014,0.018,-0.004,-0.015,-0.042,-0.136,-0.167,-0.071,-0.03
0.029,0.003,-0.026,-0.016,0.028,-0.011,-0.015,-0.046,-0.135,-0.171,-0.07,-0.034
0.021,0.0,-0.021,-0.011,0.021,-0.01,-0.015,-0.051,-0.135,-0.165,-0.07,-0.03
0.015,-0.004,-0.019,-0.005,0.017,-0.011,-0.015,-0.05,-0.135,-0.162,-0.07,-0.025
0.01,-0.004,-0.014,-0.003,0.013,-0.009,-0.015,-0.047,-0.135,-0.158,-0.07,-0.021
0.011,0.001,-0.01,-0.006,0.011,-0.005,-0.015,-0.044,-0.132,-0.155,-0.069,-0.016
0.012,0.004,-0.008,-0.008,0.01,-0.002,-0.015,-0.041,-0.129,-0.15,-0.064,-0.011
0.009,0.007,-0.002,-0.008,0.006,0.003,-0.015,-0.04,-0.126,-0.152,-0.061,-0.012
0.009,0.012,0.002,-0.011,0.003,0.007,-0.015,-0.04,-0.123,-0.156,-0.058,-0.016
0.008,0.015,0.007,-0.012,0.0,0.011,-0.014,-0.04,-0.12,-0.155,-0.053,-0.015
0.008,0.019,0.011,-0.013,-0.002,0.015,-0.011,-0.04,-0.12,-0.155,-0.05,-0.015
0.004,0.02,0.016,-0.013,-0.006,0.017,-0.008,-0.04,-0.12,-0.155,-0.054,-0.015
0.001,0.02,0.019,-0.011,-0.009,0.02,-0.006,-0.04,-0.12,-0.155,-0.055,-0.015
0.004,0.024,0.02,-0.014,-0.008,0.022,-0.002,-0.042,-0.12,-0.15,-0.055,-0.015
0.006,0.025,0.02,-0.016,-0.008,0.022,0.001,-0.048,-0.12,-0.15,-0.055,-0.015
0.003,0.024,0.02,-0.014,-0.009,0.022,-0.002,-0.051,-0.12,-0.149,-0.055,-0.015
-0.001,0.019,0.02,-0.009,-0.011,0.019,-0.005,-0.056,-0.12,-0.145,-0.054,-0.015
-0.005,0.013,0.018,-0.005,-0.012,0.015,-0.008,-0.06,-0.12,-0.145,-0.05,-0.015
-0.003,0.01,0.013,-0.004,-0.008,0.011,-0.011,-0.06,-0.12,-0.143,-0.05,-0.013
-0.006,0.005,0.01,0.0,-0.008,0.007,-0.014,-0.06,-0.12,-0.137,-0.05,-0.009
-0.006,0.0,0.006,0.002,-0.006,0.003,-0.015,-0.06,-0.12,-0.133,-0.05,-0.01
-0.006,-0.003,0.003,0.005,-0.004,0.0,-0.01,-0.06,-0.119,-0.128,-0.05,-0.01
-0.007,-0.009,-0.002,0.008,-0.003,-0.005,-0.01,-0.058,-0.114,-0.124,-0.046,-0.01
0.005,-0.013,-0.018,0.004,0.012,-0.016,-0.01,-0.054,-0.111,-0.119,-0.045,-0.009
0.003,-0.018,-0.021,0.007,0.012,-0.019,-0.01,-0.055,-0.108,-0.116,-0.045,-0.006
-0.003,-0.023,-0.019,0.013,0.008,-0.021,-0.01,-0.055,-0.103,-0.113,-0.04,-0.003
-0.006,-0.026,-0.021,0.016,0.008,-0.023,-0.008,-0.055,-0.1,-0.11,-0.04,0.0
-0.012,-0.031,-0.019,0.021,0.004,-0.025,-0.003,-0.055,-0.096,-0.107,-0.04,0.002
-0.015,-0.036,-0.02,0.026,0.003,-0.027,0.0,-0.05,-0.091,-0.105,-0.04,0.006
-0.029,-0.039,-0.01,0.034,-0.01,-0.024,0.003,-0.05,-0.086,-0.103,-0.04,0.003
-0.019,-0.045,-0.025,0.032,0.003,-0.035,0.008,-0.049,-0.082,-0.099,-0.04,-0.002
-0.012,-0.055,-0.043,0.034,0.016,-0.049,0.011,-0.045,-0.077,-0.097,-0.04,-0.008
-0.022,-0.06,-0.038,0.041,0.008,-0.049,0.014,-0.045,-0.073,-0.094,-0.04,-0.011
-0.019,-0.06,-0.041,0.039,0.011,-0.05,0.017,-0.043,-0.069,-0.091,-0.037,-0.017
-0.026,-0.065,-0.039,0.046,0.007,-0.052,0.02,-0.037,-0.063,-0.09,-0.035,-0.02
-0.023,-0.065,-0.041,0.044,0.01,-0.052,0.023,-0.032,-0.06,-0.084,-0.036,-0.015
-0.031,-0.069,-0.038,0.051,0.003,-0.053,0.025,-0.028,-0.054,-0.075,-0.035,-0.015
-0.038,-0.074,-0.036,0.056,-0.001,-0.055,0.027,-0.023,-0.051,-0.067,-0.035,-0.015
-0.012,-0.059,-0.046,0.036,0.017,-0.052,0.034,-0.021,-0.043,-0.059,-0.034,-0.015
-0.001,-0.036,-0.035,0.019,0.017,-0.035,0.045,-0.007,-0.022,-0.051,-0.018,-0.011
0.001,-0.004,-0.005,0.001,0.003,-0.004,0.047,0.008,-0.004,-0.035,-0.003,0.006
0.001,0.018,0.017,-0.009,-0.009,0.018,0.043,0.023,0.012,-0.016,0.009,0.022
-0.005,0.032,0.037,-0.014,-0.021,0.034,0.041,0.018,0.018,-0.006,0.017,0.036
-0.02,0.039,0.059,-0.009,-0.04,0.048,0.036,0.009,0.029,-0.004,0.014,0.046
-0.017,0.023,0.041,-0.003,-0.029,0.032,0.037,0.005,0.034,-0.007,0.004,0.037
0.007,0.021,0.014,-0.014,-0.004,0.018,0.031,-0.011,0.018,-0.003,0.002,0.031
0.0,-0.025,-0.026,0.013,0.013,-0.025,0.028,-0.004,0.0,-0.017,-0.01,0.019
-0.027,-0.072,-0.045,0.05,0.009,-0.059,0.019,-0.039,-0.026,-0.034,-0.012,0.015
-0.041,-0.1,-0.059,0.071,0.009,-0.079,0.018,-0.02,-0.026,-0.043,-0.029,0.004
-0.056,-0.098,-0.042,0.077,-0.007,-0.07,0.009,-0.042,-0.036,-0.049,-0.04,-0.004
-0.051,-0.1,-0.05,0.076,0.0,-0.075,0.004,-0.016,-0.022,-0.038,-0.026,-0.008
-0.031,-0.117,-0.086,0.074,0.028,-0.101,0.02,-0.032,-0.036,-0.054,-0.04,-0.023
-0.015,-0.081,-0.066,0.048,0.026,-0.073,0.035,0.05,0.023,-0.006,0.0,-0.016
0.083,-0.076,-0.159,-0.003,0.121,-0.118,0.07,0.277,0.143,0.077,0.064,0.014
0.166,0.363,0.197,-0.265,-0.016,0.28,-0.16,-0.372,0.281,0.464,0.516,0.41
0.078,0.551,0.473,-0.315,-0.198,0.512,-0.379,-0.898,0.353,0.653,0.733,0.615
-0.139,-0.011,0.128,0.075,-0.133,0.058,-0.35,-0.858,-0.18,-0.005,0.109,0.176
-0.183,-0.203,-0.02,0.193,-0.081,-0.111,-0.314,-0.676,-0.429,-0.291,-0.157,-0.039
-0.071,-0.14,-0.069,0.106,-0.001,-0.104,-0.127,-0.183,-0.115,-0.096,-0.054,-0.024
-0.081,-0.139,-0.058,0.11,-0.011,-0.098,-0.006,-0.048,-0.048,-0.069,-0.038,-0.034
-0.055,-0.116,-0.062,0.086,0.004,-0.088,0.001,-0.021,-0.01,-0.027,-0.005,-0.019
-0.02,-0.118,-0.098,0.069,0.04,-0.108,0.038,0.003,0.002,-0.025,-0.019,-0.025
-0.031,-0.101,-0.069,0.066,0.019,-0.085,0.048,-0.01,0.001,-0.017,-0.006,-0.014
-0.014,-0.103,-0.089,0.058,0.038,-0.096,0.052,0.015,0.017,-0.01,-0.008,-0.015
-0.027,-0.094,-0.067,0.061,0.021,-0.08,0.05,0.004,0.015,-0.009,-0.005,-0.009
-0.006,-0.092,-0.086,0.049,0.04,-0.089,0.056,0.029,0.029,0.002,0.0,-0.01
-0.019,-0.087,-0.068,0.053,0.025,-0.077,0.055,0.031,0.027,0.005,0.004,-0.008
-0.043,-0.081,-0.038,0.062,-0.002,-0.06,0.055,0.037,0.031,0.018,0.011,-0.004
-0.017,-0.075,-0.058,0.046,0.021,-0.066,0.055,0.032,0.032,0.022,0.014,-0.006
-0.011,-0.065,-0.054,0.039,0.022,-0.06,0.055,0.057,0.046,0.037,0.022,0.0
-0.012,-0.058,-0.047,0.035,0.018,-0.052,0.055,0.075,0.057,0.061,0.025,0.01
-0.004,-0.05,-0.046,0.028,0.021,-0.048,0.055,0.067,0.063,0.059,0.035,0.02
0.005,-0.041,-0.046,0.018,0.025,-0.043,0.055,0.082,0.071,0.063,0.045,0.029
-0.01,-0.028,-0.018,0.019,0.004,-0.023,0.054,0.098,0.095,0.086,0.056,0.036
0.006,-0.018,-0.023,0.006,0.015,-0.02,0.057,0.112,0.118,0.104,0.073,0.041
0.008,-0.007,-0.016,0.0,0.012,-0.011,0.056,0.141,0.136,0.123,0.083,0.047
0.012,0.002,-0.01,-0.007,0.011,-0.004,0.055,0.174,0.166,0.141,0.101,0.053
0.032,0.023,-0.008,-0.027,0.02,0.007,0.055,0.208,0.197,0.181,0.126,0.063
0.041,0.048,0.007,-0.044,0.017,0.027,0.058,0.24,0.233,0.211,0.147,0.08
0.081,0.065,-0.016,-0.073,0.048,0.024,0.073,0.266,0.27,0.241,0.181,0.104
0.072,0.073,0.001,-0.072,0.035,0.037,0.075,0.278,0.296,0.264,0.199,0.112
0.049,0.068,0.018,-0.059,0.015,0.043,0.075,0.273,0.296,0.25,0.192,0.104
0.021,0.063,0.042,-0.042,-0.011,0.053,0.074,0.27,0.288,0.247,0.188,0.101
0.022,0.06,0.038,-0.041,-0.008,0.049,0.069,0.25,0.277,0.238,0.181,0.096
0.056,0.043,-0.013,-0.049,0.034,0.015,0.07,0.203,0.259,0.233,0.177,0.092
0.016,0.016,0.0,-0.016,0.008,0.008,0.07,0.155,0.234,0.223,0.164,0.086
-0.024,0.001,0.024,0.011,-0.024,0.013,0.07,0.116,0.195,0.186,0.141,0.07
-0.015,-0.018,-0.003,0.016,-0.006,-0.01,0.07,0.088,0.168,0.168,0.124,0.054
-0.009,-0.043,-0.034,0.026,0.013,-0.038,0.067,0.067,0.155,0.164,0.107,0.044
-0.011,-0.058,-0.047,0.035,0.018,-0.052,0.062,0.052,0.141,0.157,0.096,0.039
-0.019,-0.062,-0.043,0.041,0.012,-0.052,0.059,0.045,0.125,0.153,0.093,0.034
-0.021,-0.059,-0.038,0.04,0.009,-0.048,0.055,0.037,0.109,0.147,0.089,0.028
-0.024,-0.061,-0.037,0.043,0.007,-0.049,0.051,0.031,0.108,0.145,0.086,0.023
-0.03,-0.058,-0.029,0.044,0.0,-0.043,0.05,0.021,0.113,0.145,0.081,0.017
-0.03,-0.064,-0.034,0.047,0.002,-0.049,0.05,0.018,0.115,0.142,0.081,0.015
-0.024,-0.073,-0.049,0.049,0.013,-0.061,0.062,0.033,0.118,0.139,0.095,0.015
-0.017,-0.052,-0.035,0.035,0.01,-0.044,0.064,0.036,0.121,0.14,0.101,0.015
-0.051,-0.044,0.007,0.047,-0.029,-0.018,0.056,0.034,0.124,0.151,0.1,0.015
-0.041,-0.046,-0.005,0.044,-0.018,-0.025,0.055,0.036,0.127,0.157,0.1,0.016
-0.008,-0.042,-0.034,0.025,0.013,-0.037,0.048,0.034,0.141,0.15,0.1,0.02
-0.027,-0.041,-0.013,0.034,-0.007,-0.027,0.045,0.035,0.15,0.15,0.1,0.02
-0.01,-0.039,-0.029,0.024,0.01,-0.034,0.054,0.047,0.149,0.161,0.096,0.02
-0.017,-0.045,-0.028,0.032,0.006,-0.037,0.056,0.049,0.15,0.166,0.095,0.02
-0.056,-0.047,0.008,0.051,-0.032,-0.019,0.05,0.042,0.15,0.164,0.095,0.02
-0.052,-0.06,-0.008,0.056,-0.022,-0.034,0.048,0.039,0.15,0.162,0.09,0.02
-0.035,-0.077,-0.042,0.056,0.004,-0.059,0.043,0.033,0.147,0.159,0.09,0.02
-0.033,-0.074,-0.041,0.053,0.005,-0.057,0.039,0.029,0.143,0.16,0.091,0.02
-0.057,-0.078,-0.021,0.067,-0.018,-0.049,0.059,0.025,0.14,0.172,0.095,0.02
-0.058,-0.081,-0.023,0.069,-0.017,-0.051,0.067,0.025,0.137,0.176,0.095,0.02
-0.016,-0.08,-0.063,0.048,0.023,-0.071,0.061,0.024,0.132,0.174,0.095,0.021
-0.031,-0.077,-0.046,0.054,0.008,-0.061,0.06,0.02,0.13,0.175,0.095,0.02
-0.071,-0.074,-0.003,0.073,-0.034,-0.039,0.056,0.02,0.141,0.175,0.091,0.02
-0.041,-0.075,-0.034,0.058,-0.003,-0.054,0.054,0.022,0.146,0.175,0.09,0.02
-0.048,-0.07,-0.022,0.059,-0.013,-0.046,0.051,0.025,0.144,0.18,0.085,0.02
-0.045,-0.07,-0.025,0.057,-0.01,-0.048,0.048,0.025,0.145,0.184,0.087,0.021
-0.042,-0.07,-0.028,0.056,-0.007,-0.049,0.045,0.025,0.145,0.186,0.099,0.022
-0.056,-0.069,-0.014,0.063,-0.021,-0.041,0.043,0.025,0.144,0.19,0.101,0.02
-0.045,-0.079,-0.034,0.062,-0.006,-0.056,0.039,0.024,0.151,0.192,0.099,0.016
-0.053,-0.08,-0.028,0.067,-0.012,-0.054,0.041,0.026,0.166,0.195,0.097,0.014
-0.011,-0.073,-0.061,0.042,0.025,-0.067,0.039,0.025,0.169,0.194,0.094,0.01
-0.013,-0.07,-0.058,0.042,0.023,-0.063,0.04,0.025,0.174,0.195,0.096,0.01
-0.014,-0.064,-0.05,0.04,0.018,-0.057,0.055,0.026,0.176,0.195,0.101,0.016
0.002,-0.061,-0.064,0.03,0.033,-0.062,0.054,0.023,0.172,0.199,0.104,0.023
-0.044,-0.048,-0.004,0.046,-0.02,-0.026,0.073,0.055,0.206,0.227,0.124,0.033
-0.065,-0.018,0.047,0.041,-0.055,0.014,0.081,0.074,0.226,0.243,0.141,0.043
-0.038,-0.001,0.037,0.019,-0.037,0.018,0.07,0.068,0.23,0.259,0.152,0.052
-0.012,0.007,0.019,0.002,-0.016,0.013,0.071,0.061,0.246,0.276,0.163,0.068
-0.02,0.026,0.045,-0.003,-0.033,0.035,0.062,0.052,0.246,0.276,0.161,0.072
-0.034,0.034,0.068,-0.001,-0.051,0.051,0.062,0.05,0.235,0.264,0.148,0.058
-0.042,0.007,0.049,0.017,-0.045,0.028,0.053,0.032,0.224,0.255,0.141,0.052
-0.043,-0.071,-0.027,0.057,-0.007,-0.049,0.057,0.047,0.217,0.245,0.129,0.038
-0.039,-0.106,-0.067,0.073,0.015,-0.086,0.047,0.028,0.204,0.237,0.122,0.032
-0.067,-0.131,-0.064,0.099,-0.001,-0.097,0.05,0.053,0.218,0.237,0.119,0.021
-0.08,-0.132,-0.052,0.107,-0.014,-0.092,0.044,0.03,0.197,0.224,0.109,0.012
-0.058,-0.133,-0.075,0.096,0.009,-0.103,0.042,0.056,0.216,0.233,0.112,0.009
-0.066,-0.157,-0.091,0.112,0.013,-0.124,0.064,0.039,0.191,0.21,0.093,-0.012
-0.026,-0.117,-0.091,0.071,0.033,-0.103,0.07,0.112,0.232,0.238,0.106,-0.001
0.074,-0.119,-0.193,0.023,0.133,-0.155,0.119,0.346,0.36,0.333,0.173,0.035
0.115,0.328,0.213,-0.222,-0.049,0.27,-0.121,-0.33,0.471,0.704,0.599,0.416
0.019,0.514,0.495,-0.267,-0.238,0.504,-0.304,-0.822,0.562,0.894,0.798,0.606
-0.185,-0.072,0.113,0.128,-0.149,0.021,-0.277,-0.742,0.016,0.227,0.185,0.159
-0.207,-0.238,-0.031,0.223,-0.088,-0.134,-0.271,-0.624,-0.27,-0.083,-0.082,-0.039
-0.089,-0.174,-0.085,0.132,-0.002,-0.129,-0.075,-0.136,0.073,0.142,0.04,-0.015
-0.062,-0.183,-0.12,0.123,0.029,-0.151,0.015,0.013,0.149,0.179,0.062,-0.033
-0.055,-0.156,-0.101,0.106,0.023,-0.128,0.036,0.044,0.178,0.216,0.105,-0.014
-0.079,-0.167,-0.089,0.123,0.005,-0.128,0.075,0.082,0.189,0.208,0.09,-0.025
-0.07,-0.146,-0.077,0.108,0.004,-0.111,0.079,0.064,0.194,0.209,0.096,-0.017
-0.03,-0.15,-0.12,0.09,0.045,-0.135,0.09,0.085,0.206,0.212,0.09,-0.022
-0.037,-0.142,-0.106,0.089,0.035,-0.123,0.077,0.066,0.193,0.207,0.088,-0.02
-0.034,-0.142,-0.108,0.088,0.037,-0.124,0.081,0.091,0.2,0.211,0.094,-0.02
-0.038,-0.139,-0.1,0.088,0.031,-0.119,0.074,0.083,0.191,0.201,0.093,-0.021
-0.036,-0.134,-0.098,0.085,0.032,-0.116,0.074,0.086,0.197,0.207,0.097,-0.019
-0.032,-0.135,-0.103,0.083,0.036,-0.118,0.071,0.082,0.194,0.2,0.094,-0.017
-0.036,-0.127,-0.092,0.082,0.028,-0.109,0.067,0.077,0.195,0.2,0.096,-0.009
-0.036,-0.119,-0.083,0.077,0.024,-0.101,0.064,0.088,0.195,0.2,0.094,-0.006
-0.029,-0.106,-0.078,0.067,0.025,-0.092,0.078,0.101,0.201,0.205,0.106,0.001
-0.012,-0.094,-0.082,0.053,0.036,-0.088,0.087,0.128,0.216,0.228,0.117,0.006
-0.008,-0.081,-0.073,0.044,0.033,-0.077,0.083,0.142,0.227,0.236,0.122,0.011
0.002,-0.066,-0.068,0.032,0.035,-0.067,0.09,0.148,0.238,0.239,0.129,0.017
-0.001,-0.057,-0.055,0.029,0.027,-0.056,0.09,0.174,0.258,0.257,0.142,0.024
0.001,-0.053,-0.054,0.026,0.028,-0.053,0.091,0.209,0.279,0.27,0.158,0.037
0.017,-0.039,-0.056,0.011,0.037,-0.048,0.094,0.243,0.31,0.293,0.181,0.052
0.02,-0.015,-0.035,-0.002,0.028,-0.025,0.1,0.278,0.336,0.318,0.203,0.068
0.063,0.015,-0.048,-0.039,0.055,-0.016,0.097,0.295,0.357,0.332,0.222,0.079
0.082,0.033,-0.049,-0.057,0.066,-0.008,0.095,0.294,0.372,0.333,0.231,0.086
0.075,0.032,-0.043,-0.053,0.058,-0.005,0.095,0.285,0.364,0.322,0.234,0.089
0.066,0.024,-0.042,-0.045,0.054,-0.009,0.094,0.281,0.357,0.315,0.228,0.08
0.052,0.018,-0.034,-0.034,0.043,-0.008,0.11,0.265,0.337,0.309,0.216,0.07
0.048,0.011,-0.037,-0.029,0.042,-0.012,0.11,0.225,0.3,0.286,0.198,0.061
0.003,-0.01,-0.013,0.003,0.009,-0.011,0.098,0.18,0.26,0.245,0.167,0.047
0.0,-0.034,-0.034,0.017,0.017,-0.034,0.091,0.14,0.211,0.204,0.133,0.033
-0.005,-0.068,-0.063,0.037,0.029,-0.065,0.08,0.099,0.173,0.172,0.108,0.02
-0.027,-0.087,-0.06,0.057,0.017,-0.073,0.076,0.072,0.152,0.155,0.096,0.011
-0.005,-0.091,-0.086,0.049,0.04,-0.088,0.073,0.057,0.137,0.138,0.085,0.004
-0.013,-0.101,-0.087,0.057,0.037,-0.094,0.07,0.043,0.122,0.123,0.076,-0.003
-0.025,-0.099,-0.074,0.063,0.024,-0.086,0.067,0.038,0.105,0.112,0.068,-0.011
-0.026,-0.1,-0.075,0.063,0.025,-0.087,0.065,0.035,0.091,0.099,0.06,-0.018
-0.04,-0.1,-0.06,0.07,0.01,-0.08,0.063,0.032,0.09,0.093,0.053,-0.017
-0.041,-0.101,-0.059,0.071,0.009,-0.08,0.059,0.027,0.09,0.087,0.046,-0.015
-0.031,-0.096,-0.065,0.064,0.017,-0.08,0.06,0.025,0.09,0.082,0.045,-0.015
-0.027,-0.081,-0.054,0.054,0.014,-0.068,0.056,0.03,0.09,0.076,0.045,-0.01
-0.007,-0.068,-0.061,0.038,0.028,-0.065,0.055,0.03,0.09,0.071,0.04,-0.009
-0.006,-0.06,-0.053,0.033,0.023,-0.056,0.055,0.027,0.085,0.065,0.04,-0.012
-0.01,-0.057,-0.047,0.034,0.019,-0.052,0.05,0.025,0.075,0.055,0.039,-0.015
-0.001,-0.053,-0.052,0.027,0.026,-0.052,0.046,0.025,0.067,0.047,0.034,-0.018
-0.002,-0.05,-0.048,0.026,0.023,-0.049,0.044,0.025,0.057,0.037,0.029,-0.02
0.007,-0.044,-0.052,0.018,0.03,-0.047,0.039,0.025,0.049,0.029,0.024,-0.024
-0.001,-0.046,-0.045,0.024,0.022,-0.045,0.036,0.025,0.044,0.021,0.02,-0.025
-0.02,-0.061,-0.041,0.041,0.01,-0.051,0.032,0.019,0.039,0.014,0.015,-0.029
-0.025,-0.059,-0.034,0.042,0.005,-0.046,0.03,0.012,0.036,0.008,0.012,-0.03
-0.024,-0.055,-0.031,0.04,0.004,-0.042,0.03,0.006,0.028,-0.002,0.006,-0.03
-0.031,-0.053,-0.022,0.042,-0.005,-0.037,0.027,-0.001,0.013,-0.013,0.002,-0.035
-0.026,-0.049,-0.023,0.038,-0.002,-0.036,0.024,-0.007,0.0,-0.024,-0.003,-0.035
-0.012,-0.05,-0.038,0.031,0.013,-0.044,0.026,-0.013,-0.007,-0.035,-0.007,-0.036
-0.012,-0.05,-0.038,0.031,0.013,-0.043,0.028,-0.017,-0.011,-0.041,-0.012,-0.04
-0.019,-0.05,-0.032,0.035,0.006,-0.041,0.032,-0.023,-0.016,-0.044,-0.015,-0.039
-0.022,-0.05,-0.028,0.036,0.003,-0.039,0.028,-0.026,-0.02,-0.049,-0.015,-0.043
0.004,-0.05,-0.054,0.023,0.029,-0.051,0.031,-0.031,-0.025,-0.05,-0.017,-0.045
-0.002,-0.05,-0.048,0.026,0.023,-0.049,0.029,-0.035,-0.022,-0.051,-0.02,-0.045
-0.008,-0.044,-0.036,0.027,0.014,-0.04,0.032,-0.028,-0.017,-0.058,-0.02,-0.042
0.004,-0.037,-0.042,0.017,0.023,-0.039,0.038,-0.02,-0.015,-0.057,-0.016,-0.036
0.006,-0.031,-0.037,0.012,0.022,-0.034,0.029,-0.012,-0.01,-0.051,-0.009,-0.032
0.022,-0.024,-0.046,0.001,0.034,-0.035,0.043,-0.004,-0.007,-0.048,-0.003,-0.027
-0.013,-0.015,-0.001,0.014,-0.006,-0.008,0.024,0.003,-0.003,-0.042,0.004,-0.023
-0.022,0.017,0.039,0.002,-0.03,0.027,0.058,0.012,0.003,-0.041,0.011,-0.018
-0.004,0.048,0.052,-0.022,-0.028,0.049,0.033,0.022,0.017,-0.045,0.014,-0.015
-0.009,0.052,0.061,-0.022,-0.035,0.056,0.047,0.02,0.016,-0.047,0.008,-0.015
-0.02,0.057,0.077,-0.019,-0.049,0.067,0.031,0.013,0.01,-0.051,0.0,-0.01
-0.015,0.055,0.07,-0.021,-0.043,0.062,0.009,0.009,0.005,-0.053,-0.005,-0.01
0.013,0.031,0.018,-0.022,-0.003,0.024,0.226,-0.001,-0.005,-0.056,-0.014,-0.016
-0.008,-0.01,-0.002,0.009,-0.003,-0.006,0.011,-0.009,-0.02,-0.067,-0.016,-0.035
-0.001,-0.063,-0.061,0.032,0.03,-0.062,-0.149,-0.038,-0.061,-0.088,-0.035,-0.048
-0.046,-0.086,-0.04,0.066,-0.003,-0.063,-0.069,-0.054,-0.011,-0.113,-0.039,-0.021
-0.082,-0.075,0.007,0.078,-0.044,-0.033,-0.121,-0.05,0.023,-0.123,-0.013,0.0
-0.048,-0.065,-0.017,0.057,-0.015,-0.041,-0.085,-0.037,-0.01,-0.118,0.001,-0.001
-0.06,-0.057,0.003,0.059,-0.031,-0.027,-0.113,-0.034,0.006,-0.122,0.009,0.001
