-0.004,-0.22,-0.216,0.113,0.106,-0.217,0.215,0.13,0.065,0.024,0.021,0.01
-0.001,-0.219,-0.218,0.11,0.109,-0.218,0.215,0.132,0.068,0.027,0.026,0.011
-0.002,-0.215,-0.212,0.109,0.105,-0.213,0.215,0.136,0.082,0.047,0.034,0.015
-0.004,-0.212,-0.207,0.108,0.102,-0.209,0.214,0.141,0.099,0.057,0.041,0.018
-0.004,-0.207,-0.203,0.106,0.1,-0.205,0.216,0.143,0.105,0.061,0.039,0.023
-0.006,-0.204,-0.199,0.105,0.097,-0.201,0.213,0.15,0.115,0.07,0.044,0.026
-0.002,-0.196,-0.194,0.099,0.097,-0.195,0.232,0.162,0.136,0.08,0.058,0.03
0.007,-0.183,-0.189,0.088,0.098,-0.186,0.244,0.17,0.163,0.091,0.063,0.038
0.01,-0.172,-0.182,0.081,0.097,-0.177,0.235,0.185,0.191,0.117,0.08,0.047
0.018,-0.157,-0.176,0.07,0.098,-0.166,0.232,0.199,0.233,0.145,0.091,0.056
0.03,-0.139,-0.169,0.055,0.1,-0.154,0.224,0.229,0.285,0.182,0.112,0.082
0.049,-0.113,-0.163,0.032,0.106,-0.138,0.221,0.265,0.349,0.23,0.154,0.109
0.082,-0.076,-0.157,-0.003,0.119,-0.116,0.207,0.292,0.422,0.289,0.202,0.14
0.115,-0.036,-0.151,-0.039,0.133,-0.093,0.193,0.326,0.487,0.35,0.251,0.176
0.135,-0.009,-0.144,-0.063,0.14,-0.076,0.196,0.335,0.537,0.395,0.284,0.201
0.133,-0.004,-0.138,-0.064,0.136,-0.071,0.194,0.325,0.543,0.421,0.307,0.221
0.129,-0.002,-0.131,-0.063,0.13,-0.066,0.195,0.317,0.527,0.409,0.304,0.225
0.126,0.001,-0.125,-0.063,0.125,-0.061,0.194,0.308,0.513,0.394,0.295,0.226
0.102,-0.018,-0.12,-0.042,0.112,-0.069,0.219,0.297,0.454,0.36,0.281,0.208
0.061,-0.056,-0.116,-0.002,0.089,-0.086,0.259,0.271,0.359,0.29,0.229,0.163
0.017,-0.097,-0.114,0.04,0.066,-0.105,0.266,0.229,0.257,0.215,0.168,0.12
-0.021,-0.13,-0.109,0.075,0.044,-0.119,0.265,0.18,0.166,0.146,0.121,0.083
-0.047,-0.153,-0.106,0.1,0.03,-0.129,0.263,0.133,0.103,0.097,0.085,0.062
-0.07,-0.172,-0.102,0.121,0.016,-0.136,0.259,0.105,0.052,0.069,0.064,0.054
-0.083,-0.182,-0.1,0.132,0.009,-0.141,0.26,0.095,0.026,0.054,0.055,0.051
-0.085,-0.184,-0.1,0.135,0.008,-0.142,0.263,0.087,0.021,0.046,0.049,0.048
-0.089,-0.185,-0.097,0.137,0.004,-0.141,0.271,0.077,0.012,0.037,0.042,0.043
-0.09,-0.185,-0.094,0.138,0.003,-0.14,0.275,0.069,0.004,0.028,0.036,0.04
-0.091,-0.185,-0.094,0.138,0.002,-0.14,0.279,0.065,0.002,0.024,0.03,0.036
-0.079,-0.185,-0.106,0.132,0.014,-0.145,0.284,0.065,0.005,0.025,0.035,0.035
-0.074,-0.182,-0.108,0.128,0.017,-0.144,0.285,0.062,0.008,0.025,0.035,0.035
-0.078,-0.179,-0.101,0.129,0.011,-0.139,0.285,0.059,0.011,0.025,0.036,0.035
-0.08,-0.176,-0.096,0.128,0.008,-0.136,0.285,0.06,0.014,0.024,0.04,0.035
-0.083,-0.173,-0.09,0.128,0.004,-0.131,0.285,0.056,0.015,0.026,0.039,0.036
-0.086,-0.17,-0.084,0.128,-0.001,-0.127,0.284,0.054,0.021,0.03,0.043,0.04
-0.088,-0.169,-0.081,0.128,-0.003,-0.124,0.279,0.055,0.031,0.034,0.045,0.04
-0.087,-0.165,-0.078,0.126,-0.004,-0.121,0.28,0.055,0.033,0.034,0.045,0.04
-0.09,-0.165,-0.075,0.128,-0.007,-0.12,0.278,0.055,0.029,0.03,0.045,0.04
-0.09,-0.163,-0.073,0.127,-0.008,-0.118,0.274,0.053,0.027,0.03,0.045,0.04
-0.091,-0.159,-0.068,0.125,-0.012,-0.113,0.276,0.05,0.024,0.03,0.045,0.037
-0.077,-0.161,-0.084,0.119,0.003,-0.122,0.273,0.047,0.021,0.03,0.04,0.034
-0.062,-0.159,-0.097,0.111,0.018,-0.127,0.285,0.045,0.019,0.03,0.036,0.031
-0.074,-0.163,-0.09,0.119,0.008,-0.126,0.296,0.041,0.015,0.026,0.034,0.028
-0.083,-0.171,-0.088,0.127,0.002,-0.129,0.295,0.039,0.007,0.024,0.029,0.025
-0.086,-0.17,-0.084,0.128,-0.001,-0.126,0.287,0.04,0.001,0.025,0.026,0.024
-0.092,-0.17,-0.078,0.131,-0.007,-0.124,0.24,0.04,-0.006,0.024,0.025,0.02
-0.084,-0.17,-0.087,0.127,0.001,-0.128,0.217,0.04,-0.012,0.026,0.025,0.02
-0.073,-0.169,-0.096,0.122,0.011,-0.132,0.214,0.04,-0.018,0.023,0.025,0.018
-0.081,-0.172,-0.09,0.126,0.005,-0.131,0.204,0.04,-0.02,0.018,0.025,0.014
-0.087,-0.175,-0.087,0.131,0.001,-0.131,0.201,0.039,-0.023,0.01,0.025,0.015
-0.091,-0.176,-0.084,0.134,-0.003,-0.13,0.188,0.035,-0.025,0.004,0.025,0.011
-0.101,-0.179,-0.078,0.14,-0.012,-0.128,0.21,0.035,-0.025,-0.002,0.031,0.01
-0.095,-0.18,-0.085,0.138,-0.005,-0.133,0.23,0.033,-0.025,-0.01,0.032,0.01
-0.08,-0.176,-0.096,0.128,0.009,-0.136,0.241,0.029,-0.025,0.006,0.028,0.01
-0.079,-0.173,-0.094,0.127,0.008,-0.134,0.263,0.03,-0.025,0.018,0.026,0.01
-0.08,-0.17,-0.09,0.125,0.005,-0.13,0.259,0.033,-0.026,0.013,0.022,0.011
-0.075,-0.167,-0.091,0.121,0.008,-0.129,0.26,0.038,-0.022,0.015,0.02,0.016
-0.085,-0.163,-0.079,0.124,-0.003,-0.121,0.261,0.042,-0.013,0.015,0.022,0.02
-0.087,-0.139,-0.053,0.113,-0.017,-0.096,0.254,0.046,-0.006,0.015,0.03,0.025
-0.077,-0.121,-0.043,0.1,-0.017,-0.081,0.248,0.05,0.002,0.021,0.045,0.03
-0.072,-0.119,-0.047,0.096,-0.013,-0.083,0.24,0.045,0.009,0.038,0.053,0.034
-0.075,-0.116,-0.041,0.096,-0.016,-0.078,0.235,0.038,0.004,0.047,0.059,0.035
-0.072,-0.113,-0.041,0.093,-0.015,-0.077,0.222,0.03,-0.005,0.044,0.061,0.035
-0.072,-0.11,-0.038,0.091,-0.017,-0.074,0.211,0.025,-0.009,0.037,0.054,0.034
-0.075,-0.111,-0.036,0.093,-0.019,-0.073,0.197,0.014,-0.021,0.031,0.054,0.028
-0.035,-0.117,-0.082,0.076,0.024,-0.099,0.176,0.01,-0.023,0.028,0.049,0.021
-0.04,-0.133,-0.093,0.086,0.027,-0.113,0.171,0.004,-0.035,0.016,0.041,0.014
-0.074,-0.163,-0.089,0.119,0.008,-0.126,0.166,0.004,-0.036,0.001,0.029,0.008
-0.087,-0.189,-0.102,0.139,0.007,-0.145,0.168,0.007,-0.045,-0.023,0.015,0.0
-0.118,-0.196,-0.079,0.157,-0.019,-0.137,0.147,-0.009,-0.052,-0.021,0.011,-0.002
-0.122,-0.212,-0.09,0.167,-0.016,-0.151,0.117,0.013,-0.038,-0.048,-0.005,-0.01
-0.147,-0.196,-0.05,0.172,-0.048,-0.123,0.102,-0.028,-0.052,-0.033,-0.003,-0.01
-0.122,-0.225,-0.103,0.173,-0.009,-0.164,0.13,0.057,-0.006,-0.027,-0.04,-0.022
-0.1,-0.284,-0.183,0.192,0.042,-0.233,0.252,0.276,0.125,-0.004,-0.059,-0.055
-0.007,-0.067,-0.06,0.037,0.026,-0.063,0.181,0.344,0.491,0.278,0.169,0.094
0.217,0.479,0.263,-0.348,-0.023,0.371,-0.344,-0.369,0.607,1.076,0.946,0.609
0.171,0.722,0.552,-0.447,-0.191,0.637,-0.75,-1.444,-0.07,1.543,1.413,0.91
-0.109,0.26,0.369,-0.076,-0.239,0.314,-0.589,-1.5,-1.122,0.158,0.464,0.454
-0.324,-0.192,0.132,0.258,-0.228,-0.03,-0.291,-1.09,-1.466,-0.987,-0.429,-0.079
-0.348,-0.263,0.086,0.305,-0.216,-0.088,-0.11,-0.649,-0.835,-0.591,-0.359,-0.175
-0.258,-0.225,0.033,0.242,-0.145,-0.096,-0.048,-0.268,-0.386,-0.325,-0.203,-0.115
-0.196,-0.2,-0.004,0.199,-0.096,-0.102,-0.031,-0.129,-0.191,-0.181,-0.117,-0.074
-0.154,-0.195,-0.041,0.175,-0.056,-0.118,-0.006,0.004,-0.023,-0.064,-0.055,-0.039
-0.117,-0.181,-0.064,0.149,-0.026,-0.122,0.033,0.038,0.025,-0.024,-0.017,-0.015
-0.096,-0.174,-0.078,0.135,-0.009,-0.125,0.09,0.091,0.074,0.014,0.004,-0.011
-0.099,-0.168,-0.068,0.134,-0.015,-0.118,0.081,0.104,0.071,0.01,0.004,-0.005
-0.102,-0.165,-0.062,0.134,-0.019,-0.113,0.063,0.095,0.082,0.046,0.013,0.001
-0.106,-0.162,-0.056,0.134,-0.025,-0.108,0.065,0.104,0.085,0.045,0.016,0.006
-0.107,-0.157,-0.049,0.132,-0.029,-0.103,0.064,0.106,0.094,0.052,0.023,0.011
-0.114,-0.155,-0.041,0.135,-0.036,-0.098,0.066,0.13,0.114,0.056,0.029,0.019
-0.093,-0.144,-0.051,0.119,-0.021,-0.097,0.064,0.128,0.131,0.066,0.043,0.03
-0.071,-0.13,-0.058,0.101,-0.006,-0.094,0.066,0.135,0.147,0.078,0.053,0.03
-0.07,-0.117,-0.047,0.094,-0.011,-0.082,0.061,0.157,0.169,0.103,0.062,0.031
-0.064,-0.104,-0.04,0.084,-0.011,-0.072,0.049,0.176,0.205,0.129,0.076,0.042
-0.061,-0.093,-0.032,0.077,-0.014,-0.062,0.037,0.189,0.248,0.156,0.102,0.061
-0.025,-0.072,-0.048,0.048,0.012,-0.06,0.025,0.211,0.302,0.2,0.124,0.082
0.0,-0.045,-0.045,0.023,0.022,-0.045,0.015,0.24,0.367,0.251,0.161,0.105
0.012,-0.015,-0.027,0.002,0.019,-0.021,0.002,0.269,0.448,0.324,0.221,0.151
0.041,0.015,-0.026,-0.027,0.033,-0.005,-0.008,0.289,0.497,0.375,0.255,0.178
0.066,0.044,-0.022,-0.055,0.044,0.011,-0.025,0.295,0.519,0.411,0.287,0.2
0.081,0.061,-0.02,-0.071,0.05,0.02,-0.035,0.288,0.526,0.429,0.303,0.222
0.069,0.049,-0.02,-0.059,0.045,0.014,-0.037,0.273,0.5,0.422,0.294,0.212
0.058,0.039,-0.02,-0.049,0.039,0.009,-0.018,0.259,0.448,0.393,0.287,0.202
0.031,0.011,-0.02,-0.021,0.026,-0.004,0.034,0.233,0.377,0.329,0.25,0.172
-0.01,-0.029,-0.019,0.02,0.005,-0.024,0.046,0.2,0.282,0.248,0.189,0.127
-0.034,-0.049,-0.015,0.042,-0.009,-0.032,0.054,0.168,0.18,0.167,0.124,0.085
-0.064,-0.074,-0.01,0.069,-0.027,-0.041,0.072,0.139,0.106,0.109,0.077,0.051
-0.09,-0.095,-0.006,0.093,-0.042,-0.05,0.076,0.114,0.055,0.062,0.056,0.034
-0.11,-0.111,-0.001,0.111,-0.054,-0.056,0.099,0.092,0.014,0.03,0.044,0.023
-0.124,-0.12,0.004,0.121,-0.064,-0.057,0.107,0.082,-0.013,0.017,0.032,0.018
-0.124,-0.121,0.003,0.123,-0.063,-0.059,0.104,0.076,-0.033,0.009,0.021,0.01
-0.123,-0.127,-0.004,0.126,-0.059,-0.065,0.106,0.069,-0.04,0.005,0.009,0.002
-0.121,-0.13,-0.009,0.125,-0.056,-0.069,0.104,0.062,-0.042,-0.001,0.005,-0.004
-0.115,-0.13,-0.015,0.123,-0.05,-0.072,0.105,0.056,-0.046,-0.007,0.005,-0.005
-0.11,-0.13,-0.019,0.12,-0.046,-0.074,0.112,0.058,-0.045,-0.009,0.002,-0.005
-0.115,-0.13,-0.015,0.123,-0.05,-0.072,0.12,0.061,-0.041,-0.003,0.0,-0.005
-0.122,-0.13,-0.008,0.126,-0.057,-0.069,0.12,0.059,-0.04,0.003,0.0,-0.005
-0.122,-0.126,-0.004,0.124,-0.059,-0.065,0.12,0.062,-0.038,0.007,0.004,-0.006
-0.122,-0.119,0.002,0.12,-0.062,-0.058,0.12,0.065,-0.031,0.014,0.005,-0.002
-0.12,-0.112,0.008,0.116,-0.064,-0.052,0.12,0.065,-0.024,0.019,0.005,0.0
-0.114,-0.106,0.008,0.11,-0.061,-0.049,0.12,0.069,-0.018,0.02,0.009,0.0
-0.101,-0.098,0.002,0.099,-0.051,-0.048,0.116,0.07,-0.011,0.021,0.01,0.0
-0.093,-0.096,-0.003,0.095,-0.045,-0.049,0.115,0.066,-0.006,0.026,0.008,0.0
-0.094,-0.1,-0.006,0.098,-0.044,-0.053,0.116,0.065,-0.012,0.024,0.005,0.0
-0.091,-0.103,-0.012,0.097,-0.039,-0.058,0.114,0.065,-0.02,0.021,0.002,-0.005
-0.093,-0.107,-0.014,0.1,-0.039,-0.06,0.116,0.06,-0.028,0.018,0.0,-0.005
-0.082,-0.11,-0.028,0.096,-0.027,-0.069,0.112,0.06,-0.036,0.015,-0.004,-0.006
-0.072,-0.113,-0.041,0.093,-0.015,-0.077,0.106,0.059,-0.04,0.014,-0.005,-0.01
-0.077,-0.117,-0.04,0.097,-0.018,-0.078,0.1,0.055,-0.04,0.009,-0.008,-0.01
-0.08,-0.12,-0.04,0.1,-0.02,-0.08,0.058,0.055,-0.04,0.006,-0.012,-0.012
-0.086,-0.123,-0.037,0.105,-0.024,-0.08,0.0,0.052,-0.04,0.003,-0.015,-0.015
-0.092,-0.127,-0.034,0.11,-0.028,-0.08,-0.027,0.05,-0.04,-0.002,-0.019,-0.018
-0.095,-0.13,-0.035,0.113,-0.03,-0.082,-0.029,0.05,-0.04,-0.005,-0.019,-0.021
-0.072,-0.126,-0.054,0.1,-0.009,-0.09,-0.016,0.053,-0.045,-0.009,-0.015,-0.024
-0.062,-0.125,-0.062,0.093,0.001,-0.093,-0.008,0.056,-0.053,-0.01,-0.015,-0.025
-0.07,-0.125,-0.055,0.098,-0.007,-0.09,0.008,0.055,-0.053,-0.01,-0.015,-0.02
-0.065,-0.12,-0.055,0.093,-0.005,-0.087,0.055,0.055,-0.049,-0.014,-0.015,-0.02
-0.07,-0.12,-0.05,0.095,-0.01,-0.085,0.041,0.055,-0.05,-0.016,-0.015,-0.019
-0.069,-0.12,-0.051,0.094,-0.009,-0.085,-0.009,0.054,-0.05,-0.014,-0.012,-0.015
-0.068,-0.11,-0.042,0.089,-0.013,-0.076,-0.022,0.049,-0.05,-0.007,-0.006,-0.016
-0.071,-0.105,-0.034,0.088,-0.018,-0.069,-0.038,0.058,-0.05,0.002,-0.002,-0.013
-0.069,-0.087,-0.017,0.078,-0.026,-0.052,-0.033,0.076,-0.043,0.009,0.003,-0.006
-0.079,-0.061,0.018,0.07,-0.048,-0.021,-0.047,0.08,-0.031,0.014,0.008,-0.001
-0.085,-0.059,0.026,0.072,-0.056,-0.016,-0.076,0.085,-0.027,0.019,0.011,0.004
-0.074,-0.061,0.013,0.067,-0.043,-0.024,-0.073,0.081,-0.031,0.022,0.01,0.01
-0.071,-0.059,0.012,0.064,-0.041,-0.023,-0.081,0.05,-0.035,0.028,0.01,0.015
-0.058,-0.061,-0.003,0.06,-0.028,-0.031,-0.065,0.045,-0.029,0.029,0.01,0.009
-0.03,-0.059,-0.029,0.044,0.0,-0.044,-0.055,0.038,-0.031,0.019,0.009,0.002
-0.026,-0.066,-0.04,0.046,0.007,-0.052,-0.03,0.035,-0.034,0.013,0.012,-0.004
-0.028,-0.088,-0.06,0.058,0.016,-0.074,-0.028,0.032,-0.063,0.001,0.001,-0.012
-0.039,-0.11,-0.072,0.075,0.017,-0.091,-0.11,0.021,-0.08,-0.005,-0.012,-0.015
-0.068,-0.147,-0.078,0.108,0.005,-0.112,-0.138,0.036,-0.078,-0.028,-0.033,-0.029
-0.084,-0.153,-0.069,0.119,-0.007,-0.111,-0.147,0.019,-0.096,-0.034,-0.035,-0.034
-0.063,-0.158,-0.095,0.111,0.017,-0.127,-0.151,0.047,-0.089,-0.044,-0.044,-0.037
-0.062,-0.152,-0.09,0.107,0.014,-0.121,-0.152,0.017,-0.097,-0.031,-0.037,-0.033
-0.061,-0.161,-0.1,0.111,0.02,-0.13,-0.114,0.064,-0.05,-0.017,-0.042,-0.041
-0.077,-0.231,-0.155,0.154,0.039,-0.193,0.014,0.267,0.058,-0.027,-0.095,-0.086
0.011,-0.065,-0.075,0.027,0.043,-0.07,0.001,0.387,0.396,0.217,0.079,0.031
0.233,0.465,0.232,-0.349,0.0,0.348,-0.424,-0.223,0.562,0.953,0.802,0.514
0.202,0.769,0.567,-0.486,-0.182,0.668,-0.754,-1.331,-0.052,1.485,1.35,0.869
-0.04,0.35,0.39,-0.155,-0.215,0.37,-0.511,-1.475,-1.078,0.297,0.521,0.47
-0.275,-0.138,0.137,0.206,-0.206,-0.001,-0.27,-1.095,-1.523,-0.964,-0.448,-0.087
-0.326,-0.219,0.107,0.272,-0.216,-0.055,-0.179,-0.691,-0.951,-0.659,-0.428,-0.204
-0.218,-0.177,0.041,0.197,-0.13,-0.067,-0.117,-0.272,-0.451,-0.334,-0.253,-0.152
-0.139,-0.134,0.004,0.136,-0.071,-0.065,-0.116,-0.121,-0.255,-0.196,-0.149,-0.095
-0.075,-0.122,-0.048,0.099,-0.013,-0.085,-0.097,0.01,-0.059,-0.063,-0.092,-0.047
-0.063,-0.118,-0.055,0.091,-0.004,-0.086,-0.084,0.066,-0.01,-0.032,-0.058,-0.022
-0.058,-0.111,-0.053,0.085,-0.002,-0.081,-0.069,0.09,0.043,0.016,-0.029,-0.019
-0.047,-0.107,-0.06,0.077,0.007,-0.083,-0.062,0.104,0.052,0.01,-0.032,-0.021
-0.041,-0.1,-0.059,0.071,0.009,-0.079,-0.055,0.106,0.065,0.032,-0.018,-0.014
-0.035,-0.095,-0.06,0.065,0.013,-0.077,-0.093,0.119,0.077,0.035,-0.016,-0.016
-0.033,-0.087,-0.054,0.06,0.011,-0.07,-0.104,0.12,0.077,0.048,-0.006,-0.014
-0.028,-0.081,-0.054,0.055,0.013,-0.067,-0.093,0.128,0.093,0.055,-0.002,-0.005
-0.025,-0.074,-0.049,0.049,0.012,-0.061,-0.075,0.13,0.107,0.061,0.004,0.005
-0.013,-0.066,-0.052,0.04,0.02,-0.059,-0.037,0.136,0.126,0.075,0.01,0.015
-0.003,-0.054,-0.051,0.029,0.024,-0.052,-0.02,0.156,0.148,0.088,0.026,0.024
0.0,-0.046,-0.046,0.023,0.023,-0.046,-0.024,0.176,0.181,0.116,0.051,0.037
0.006,-0.038,-0.044,0.017,0.025,-0.041,-0.107,0.19,0.217,0.146,0.072,0.055
0.033,-0.006,-0.039,-0.014,0.036,-0.022,-0.167,0.215,0.276,0.193,0.1,0.078
0.065,0.029,-0.036,-0.046,0.05,-0.003,-0.205,0.246,0.346,0.246,0.137,0.107
0.096,0.063,-0.033,-0.079,0.064,0.015,-0.241,0.276,0.418,0.311,0.182,0.141
0.123,0.095,-0.028,-0.108,0.075,0.033,-0.248,0.296,0.481,0.371,0.229,0.172
0.142,0.119,-0.022,-0.13,0.082,0.048,-0.264,0.306,0.506,0.403,0.265,0.202
0.163,0.145,-0.019,-0.154,0.091,0.063,-0.252,0.304,0.519,0.421,0.281,0.216
0.161,0.148,-0.013,-0.154,0.087,0.067,-0.239,0.297,0.509,0.417,0.288,0.211
0.139,0.128,-0.01,-0.133,0.074,0.059,-0.222,0.296,0.458,0.394,0.275,0.205
0.112,0.097,-0.016,-0.104,0.064,0.04,-0.161,0.271,0.378,0.335,0.228,0.178
0.08,0.059,-0.021,-0.069,0.05,0.018,-0.097,0.231,0.274,0.259,0.168,0.132
0.048,0.021,-0.027,-0.034,0.037,-0.003,-0.055,0.19,0.175,0.179,0.107,0.086
0.019,-0.014,-0.033,-0.002,0.026,-0.023,0.034,0.145,0.097,0.107,0.054,0.051
-0.002,-0.035,-0.033,0.019,0.016,-0.034,0.119,0.109,0.034,0.064,0.019,0.034
-0.017,-0.045,-0.028,0.031,0.006,-0.036,0.143,0.087,-0.002,0.04,0.001,0.024
-0.028,-0.053,-0.025,0.041,-0.001,-0.039,0.156,0.073,-0.012,0.03,-0.012,0.018
-0.03,-0.052,-0.022,0.041,-0.004,-0.037,0.173,0.065,-0.025,0.018,-0.02,0.01
-0.03,-0.047,-0.017,0.039,-0.006,-0.032,0.16,0.057,-0.034,0.007,-0.023,0.002
-0.03,-0.045,-0.014,0.038,-0.007,-0.029,0.106,0.048,-0.045,0.001,-0.027,-0.003
-0.03,-0.04,-0.01,0.035,-0.01,-0.025,0.075,0.047,-0.058,-0.006,-0.035,-0.001
-0.026,-0.037,-0.01,0.031,-0.008,-0.023,0.045,0.05,-0.055,-0.012,-0.039,0.001
-0.024,-0.033,-0.01,0.029,-0.007,-0.021,0.019,0.05,-0.052,-0.02,-0.036,0.0
-0.019,-0.03,-0.01,0.024,-0.005,-0.02,0.022,0.05,-0.049,-0.025,-0.033,0.0
-0.021,-0.03,-0.009,0.026,-0.006,-0.02,0.018,0.05,-0.045,-0.019,-0.03,-0.001
-0.014,-0.028,-0.013,0.021,0.0,-0.02,0.017,0.049,-0.041,-0.014,-0.028,0.003
0.002,-0.025,-0.027,0.011,0.015,-0.025,0.014,0.045,-0.04,-0.009,-0.024,0.005
0.0,-0.025,-0.025,0.013,0.013,-0.025,0.017,0.045,-0.04,-0.003,-0.028,0.005
0.005,-0.021,-0.026,0.009,0.016,-0.023,0.029,0.045,-0.04,0.003,-0.031,0.005
0.003,-0.02,-0.023,0.009,0.013,-0.021,0.044,0.045,-0.041,0.003,-0.03,0.005
0.012,-0.02,-0.032,0.004,0.022,-0.026,0.055,0.045,-0.04,-0.004,-0.03,0.005
0.04,-0.02,-0.06,-0.01,0.05,-0.04,0.055,0.043,-0.041,-0.009,-0.03,0.0
0.04,-0.02,-0.06,-0.01,0.05,-0.04,0.083,0.036,-0.038,-0.014,-0.031,-0.005
0.038,-0.021,-0.06,-0.008,0.049,-0.04,0.068,0.029,-0.047,-0.02,-0.029,-0.009
0.035,-0.025,-0.061,-0.005,0.048,-0.042,0.005,0.022,-0.06,-0.025,-0.036,-0.014
0.034,-0.025,-0.059,-0.005,0.047,-0.042,-0.013,0.016,-0.062,-0.029,-0.046,-0.018
0.038,-0.025,-0.063,-0.006,0.051,-0.043,-0.017,0.01,-0.073,-0.031,-0.045,-0.023
0.044,-0.025,-0.069,-0.009,0.057,-0.047,-0.019,0.005,-0.08,-0.035,-0.045,-0.025
0.05,-0.025,-0.075,-0.012,0.063,-0.05,-0.022,0.005,-0.082,-0.037,-0.045,-0.025
0.045,-0.025,-0.07,-0.01,0.058,-0.047,-0.023,0.005,-0.087,-0.045,-0.045,-0.025
0.045,-0.025,-0.07,-0.01,0.058,-0.047,-0.032,0.005,-0.09,-0.049,-0.048,-0.025
0.044,-0.025,-0.069,-0.009,0.057,-0.046,-0.045,0.005,-0.095,-0.045,-0.052,-0.025
0.04,-0.025,-0.065,-0.007,0.053,-0.045,-0.038,0.005,-0.095,-0.045,-0.055,-0.03
0.039,-0.025,-0.064,-0.006,0.052,-0.045,-0.033,0.005,-0.098,-0.045,-0.059,-0.03
0.045,-0.024,-0.069,-0.01,0.058,-0.046,-0.028,0.005,-0.101,-0.045,-0.059,-0.03
0.061,-0.02,-0.08,-0.021,0.071,-0.05,-0.022,0.005,-0.097,-0.045,-0.054,-0.03
0.065,-0.015,-0.08,-0.025,0.073,-0.047,-0.014,0.005,-0.093,-0.043,-0.055,-0.028
0.066,-0.014,-0.08,-0.026,0.073,-0.046,-0.008,0.005,-0.087,-0.036,-0.053,-0.022
0.073,-0.007,-0.081,-0.033,0.077,-0.044,-0.001,0.012,-0.084,-0.032,-0.05,-0.018
0.055,-0.007,-0.062,-0.023,0.059,-0.034,0.012,0.022,-0.078,-0.026,-0.051,-0.014
0.049,0.01,-0.038,-0.029,0.043,-0.014,0.029,0.03,-0.074,-0.019,-0.045,-0.009
0.074,0.047,-0.027,-0.06,0.05,0.01,0.045,0.039,-0.064,-0.015,-0.037,-0.004
0.069,0.05,-0.019,-0.059,0.044,0.015,0.053,0.047,-0.049,-0.015,-0.031,0.0
0.047,0.043,-0.004,-0.045,0.025,0.019,0.055,0.052,-0.04,-0.015,-0.025,0.0
0.052,0.04,-0.012,-0.046,0.032,0.014,0.021,0.039,-0.04,-0.016,-0.025,0.001
0.074,0.035,-0.039,-0.054,0.056,-0.002,-0.018,0.018,-0.052,-0.014,-0.024,0.005
0.067,0.03,-0.037,-0.048,0.052,-0.003,-0.012,0.013,-0.067,-0.016,-0.026,0.005
0.049,0.026,-0.023,-0.037,0.036,0.002,0.01,-0.004,-0.073,-0.016,-0.024,0.002
0.062,0.016,-0.046,-0.039,0.053,-0.014,0.017,-0.003,-0.073,-0.034,-0.025,-0.01
0.067,0.009,-0.059,-0.038,0.063,-0.025,0.007,-0.01,-0.083,-0.04,-0.035,-0.021
0.048,-0.014,-0.062,-0.017,0.055,-0.038,0.004,-0.001,-0.077,-0.048,-0.056,-0.033
0.019,-0.04,-0.059,0.011,0.039,-0.049,-0.003,-0.007,-0.104,-0.068,-0.07,-0.041
0.016,-0.045,-0.061,0.015,0.038,-0.052,-0.005,-0.008,-0.095,-0.058,-0.067,-0.038
0.027,-0.058,-0.084,0.016,0.056,-0.071,0.008,0.005,-0.1,-0.075,-0.075,-0.047
0.019,-0.037,-0.055,0.009,0.037,-0.046,0.001,-0.026,-0.096,-0.051,-0.063,-0.04
0.003,-0.092,-0.095,0.045,0.049,-0.093,0.084,0.122,-0.028,-0.082,-0.101,-0.062
0.005,-0.109,-0.113,0.052,0.059,-0.111,0.196,0.353,0.162,-0.008,-0.103,-0.077
0.183,0.23,0.047,-0.207,0.067,0.139,-0.015,0.252,0.555,0.421,0.286,0.194
0.351,0.769,0.418,-0.56,-0.034,0.593,-0.538,-0.795,0.466,1.313,1.131,0.731
0.21,0.778,0.568,-0.494,-0.179,0.673,-0.714,-1.662,-0.35,1.286,1.172,0.798
-0.095,0.186,0.28,-0.046,-0.188,0.233,-0.418,-1.433,-1.364,-0.396,-0.002,0.196
-0.278,-0.127,0.151,0.202,-0.214,0.012,-0.157,-1.035,-1.403,-0.997,-0.549,-0.194
-0.242,-0.105,0.138,0.174,-0.19,0.016,-0.015,-0.542,-0.679,-0.486,-0.335,-0.183
-0.153,-0.066,0.088,0.109,-0.12,0.011,0.035,-0.224,-0.377,-0.318,-0.224,-0.136
-0.089,-0.034,0.055,0.061,-0.072,0.011,0.032,-0.083,-0.167,-0.152,-0.13,-0.086
-0.057,-0.025,0.032,0.041,-0.045,0.003,0.056,0.042,-0.048,-0.089,-0.078,-0.048
-0.054,-0.021,0.034,0.037,-0.044,0.006,0.08,0.059,-0.014,-0.048,-0.044,-0.026
-0.046,-0.033,0.013,0.039,-0.029,-0.009,0.075,0.105,0.042,-0.034,-0.032,-0.022
-0.008,-0.015,-0.007,0.011,0.0,-0.011,0.063,0.104,0.027,-0.023,-0.025,-0.02
0.019,-0.008,-0.027,-0.005,0.023,-0.017,0.063,0.119,0.049,-0.002,-0.016,-0.015
0.012,-0.006,-0.017,-0.003,0.015,-0.011,0.058,0.135,0.06,-0.005,-0.012,-0.012
0.011,0.001,-0.009,-0.006,0.01,-0.004,0.054,0.135,0.074,0.015,-0.003,-0.008
0.01,0.003,-0.007,-0.006,0.008,-0.002,0.051,0.134,0.086,0.029,0.0,-0.004
0.006,0.013,0.008,-0.01,-0.001,0.01,0.047,0.143,0.102,0.045,0.007,0.001
0.011,0.02,0.009,-0.016,0.001,0.014,0.042,0.159,0.131,0.048,0.007,0.003
0.032,0.044,0.012,-0.039,0.01,0.028,0.035,0.171,0.161,0.071,0.023,0.013
0.037,0.051,0.015,-0.044,0.011,0.033,0.03,0.184,0.191,0.095,0.04,0.032
0.049,0.06,0.01,-0.055,0.019,0.035,0.025,0.215,0.238,0.13,0.066,0.052
0.064,0.095,0.03,-0.08,0.017,0.062,0.014,0.244,0.302,0.179,0.104,0.068
0.095,0.119,0.024,-0.107,0.035,0.071,-0.01,0.278,0.375,0.239,0.145,0.101
0.14,0.15,0.01,-0.145,0.065,0.08,-0.04,0.314,0.443,0.298,0.196,0.136
0.142,0.187,0.045,-0.165,0.048,0.116,-0.057,0.324,0.494,0.343,0.23,0.158
0.149,0.212,0.063,-0.181,0.043,0.137,-0.063,0.338,0.53,0.38,0.26,0.189
0.16,0.214,0.054,-0.187,0.053,0.134,-0.063,0.331,0.528,0.377,0.278,0.192
0.157,0.208,0.05,-0.183,0.053,0.129,-0.053,0.317,0.493,0.369,0.268,0.176
0.15,0.197,0.047,-0.174,0.051,0.122,-0.031,0.299,0.441,0.341,0.232,0.165
0.119,0.158,0.039,-0.139,0.04,0.099,-0.024,0.257,0.349,0.267,0.182,0.128
0.072,0.116,0.044,-0.094,0.014,0.08,-0.016,0.208,0.239,0.188,0.133,0.08
0.028,0.088,0.06,-0.059,-0.016,0.074,0.012,0.157,0.138,0.119,0.085,0.039
0.008,0.061,0.053,-0.035,-0.022,0.057,0.033,0.127,0.068,0.064,0.046,0.017
0.001,0.046,0.045,-0.024,-0.022,0.046,0.033,0.106,0.031,0.018,0.022,0.011
0.001,0.041,0.04,-0.021,-0.02,0.04,0.042,0.078,-0.01,-0.012,0.007,0.004
0.005,0.036,0.031,-0.021,-0.013,0.033,0.065,0.063,-0.038,-0.021,-0.008,-0.003
-0.003,0.033,0.036,-0.015,-0.02,0.034,0.065,0.059,-0.051,-0.027,-0.014,-0.009
-0.015,0.027,0.041,-0.006,-0.028,0.034,0.066,0.054,-0.058,-0.035,-0.019,-0.014
-0.012,0.026,0.039,-0.007,-0.026,0.032,0.07,0.048,-0.063,-0.043,-0.024,-0.019
-0.004,0.03,0.035,-0.014,-0.019,0.032,0.07,0.042,-0.072,-0.049,-0.03,-0.025
-0.004,0.029,0.034,-0.013,-0.019,0.031,0.068,0.042,-0.071,-0.045,-0.034,-0.029
0.005,0.032,0.028,-0.019,-0.012,0.03,0.064,0.046,-0.066,-0.045,-0.031,-0.03
0.001,0.035,0.035,-0.018,-0.017,0.035,0.065,0.049,-0.064,-0.044,-0.028,-0.03
-0.016,0.035,0.051,-0.009,-0.034,0.042,0.064,0.053,-0.059,-0.039,-0.025,-0.03
-0.012,0.035,0.047,-0.012,-0.03,0.041,0.066,0.055,-0.056,-0.041,-0.022,-0.03
-0.008,0.035,0.043,-0.014,-0.026,0.039,0.063,0.05,-0.053,-0.037,-0.02,-0.03
-0.005,0.035,0.04,-0.015,-0.023,0.037,0.079,0.05,-0.049,-0.035,-0.018,-0.03
-0.001,0.035,0.035,-0.018,-0.018,0.035,0.089,0.05,-0.045,-0.035,-0.015,-0.03
0.002,0.035,0.033,-0.019,-0.016,0.034,0.114,0.049,-0.042,-0.031,-0.015,-0.03
0.006,0.034,0.027,-0.02,-0.011,0.03,0.165,0.05,-0.037,-0.03,-0.016,-0.03
0.007,0.03,0.023,-0.019,-0.008,0.026,0.183,0.047,-0.035,-0.03,-0.014,-0.03
0.011,0.03,0.019,-0.021,-0.004,0.024,0.188,0.044,-0.04,-0.03,-0.017,-0.031
0.016,0.03,0.014,-0.024,0.001,0.021,0.192,0.045,-0.039,-0.029,-0.019,-0.034
0.02,0.03,0.01,-0.025,0.005,0.02,0.196,0.041,-0.046,-0.036,-0.027,-0.038
0.014,0.03,0.016,-0.022,-0.001,0.023,0.195,0.04,-0.056,-0.049,-0.035,-0.041
0.004,0.03,0.026,-0.017,-0.011,0.028,0.191,0.04,-0.058,-0.053,-0.04,-0.045
0.002,0.03,0.028,-0.016,-0.013,0.029,0.189,0.035,-0.061,-0.056,-0.049,-0.043
0.005,0.03,0.025,-0.018,-0.01,0.027,0.185,0.035,-0.06,-0.059,-0.051,-0.039
0.008,0.03,0.021,-0.019,-0.007,0.026,0.185,0.034,-0.06,-0.062,-0.055,-0.04
0.011,0.03,0.019,-0.021,-0.004,0.025,0.185,0.03,-0.06,-0.065,-0.054,-0.04
0.014,0.029,0.015,-0.022,-0.001,0.022,0.185,0.03,-0.06,-0.066,-0.05,-0.04
0.007,0.023,0.016,-0.015,-0.005,0.019,0.185,0.03,-0.06,-0.07,-0.048,-0.04
-0.004,0.016,0.019,-0.006,-0.012,0.017,0.185,0.03,-0.06,-0.07,-0.045,-0.035
-0.011,0.009,0.02,0.001,-0.016,0.015,0.184,0.029,-0.06,-0.072,-0.042,-0.035
-0.017,0.003,0.02,0.007,-0.019,0.011,0.189,0.03,-0.06,-0.076,-0.04,-0.035
-0.025,-0.005,0.02,0.015,-0.022,0.007,0.192,0.03,-0.06,-0.075,-0.046,-0.035
-0.017,0.007,0.024,0.004,-0.02,0.015,0.199,0.031,-0.055,-0.072,-0.044,-0.036
0.01,0.044,0.034,-0.027,-0.012,0.038,0.207,0.04,-0.047,-0.063,-0.037,-0.033
0.011,0.065,0.054,-0.038,-0.022,0.059,0.204,0.051,-0.038,-0.058,-0.033,-0.028
0.016,0.075,0.059,-0.046,-0.022,0.067,0.205,0.056,-0.035,-0.054,-0.026,-0.022
0.036,0.086,0.049,-0.061,-0.007,0.067,0.176,0.051,-0.032,-0.05,-0.021,-0.019
0.041,0.086,0.045,-0.064,-0.003,0.066,0.145,0.034,-0.03,-0.048,-0.024,-0.013
0.04,0.08,0.04,-0.06,0.0,0.06,0.073,0.022,-0.027,-0.042,-0.025,-0.01
0.041,0.074,0.032,-0.058,0.004,0.053,-0.056,0.021,-0.024,-0.042,-0.026,-0.015
0.042,0.069,0.027,-0.056,0.008,0.048,-0.115,0.014,-0.031,-0.041,-0.023,-0.023
0.02,0.034,0.014,-0.027,0.003,0.024,-0.118,0.018,-0.037,-0.055,-0.029,-0.03
-0.004,0.008,0.012,-0.002,-0.008,0.01,-0.125,0.005,-0.061,-0.067,-0.036,-0.035
-0.01,-0.01,-0.001,0.01,-0.004,-0.006,-0.093,0.016,-0.062,-0.082,-0.059,-0.049
-0.023,-0.024,-0.001,0.024,-0.011,-0.012,-0.03,0.009,-0.062,-0.098,-0.073,-0.065
-0.02,-0.031,-0.01,0.026,-0.005,-0.02,0.027,0.019,-0.05,-0.099,-0.075,-0.071
-0.015,-0.032,-0.017,0.024,0.001,-0.024,0.061,0.015,-0.054,-0.103,-0.077,-0.068
-0.01,-0.022,-0.011,0.016,0.0,-0.016,0.074,0.006,-0.047,-0.085,-0.068,-0.078
-0.001,-0.093,-0.092,0.047,0.046,-0.092,0.172,0.187,0.03,-0.099,-0.106,-0.099
0.032,-0.057,-0.089,0.013,0.061,-0.073,0.24,0.39,0.288,0.034,-0.045,-0.061
0.221,0.377,0.156,-0.299,0.032,0.266,-0.071,0.103,0.6,0.578,0.478,0.288
0.321,0.853,0.532,-0.587,-0.106,0.692,-0.521,-0.954,0.259,1.404,1.28,0.784
0.111,0.668,0.557,-0.39,-0.223,0.612,-0.534,-1.517,-0.74,0.858,0.95,0.65
-0.151,0.142,0.293,0.004,-0.222,0.217,-0.245,-1.217,-1.478,-0.767,-0.235,0.045
-0.271,-0.09,0.181,0.181,-0.226,0.045,0.003,-0.805,-1.168,-0.922,-0.529,-0.256
-0.212,-0.089,0.124,0.15,-0.168,0.017,0.133,-0.365,-0.548,-0.456,-0.322,-0.225
-0.108,-0.04,0.069,0.074,-0.088,0.014,0.176,-0.167,-0.3,-0.334,-0.221,-0.156
-0.059,-0.034,0.025,0.046,-0.041,-0.005,0.191,-0.042,-0.094,-0.174,-0.139,-0.122
-0.028,-0.024,0.005,0.026,-0.016,-0.009,0.191,0.048,-0.009,-0.124,-0.1,-0.082
-0.016,-0.018,-0.002,0.017,-0.007,-0.01,0.203,0.07,0.032,-0.066,-0.069,-0.061
-0.002,-0.014,-0.012,0.008,0.005,-0.013,0.198,0.099,0.068,-0.056,-0.067,-0.058
0.014,-0.004,-0.018,-0.005,0.017,-0.011,0.201,0.096,0.065,-0.046,-0.056,-0.054
0.024,-0.001,-0.024,-0.011,0.024,-0.012,0.156,0.111,0.076,-0.033,-0.051,-0.051
0.028,0.009,-0.019,-0.019,0.024,-0.005,0.042,0.112,0.079,-0.028,-0.044,-0.046
0.033,0.013,-0.02,-0.023,0.026,-0.003,-0.01,0.122,0.095,-0.013,-0.037,-0.044
0.038,0.02,-0.018,-0.029,0.028,0.001,-0.024,0.118,0.119,-0.01,-0.033,-0.038
0.041,0.028,-0.013,-0.034,0.027,0.007,-0.052,0.126,0.141,0.003,-0.027,-0.031
0.051,0.033,-0.017,-0.041,0.034,0.008,-0.063,0.141,0.153,0.015,-0.026,-0.024
0.049,0.042,-0.007,-0.045,0.027,0.017,-0.077,0.14,0.175,0.041,-0.013,-0.018
0.038,0.048,0.01,-0.043,0.014,0.029,-0.092,0.161,0.216,0.067,0.009,-0.008
0.058,0.065,0.008,-0.062,0.025,0.036,-0.106,0.179,0.264,0.107,0.041,0.012
0.079,0.097,0.018,-0.088,0.03,0.057,-0.189,0.199,0.328,0.169,0.073,0.033
0.104,0.132,0.027,-0.119,0.038,0.079,-0.272,0.226,0.396,0.225,0.116,0.065
0.146,0.165,0.018,-0.156,0.064,0.091,-0.278,0.244,0.453,0.279,0.165,0.101
0.177,0.195,0.017,-0.186,0.08,0.106,-0.281,0.254,0.501,0.328,0.199,0.125
0.183,0.222,0.039,-0.203,0.072,0.13,-0.349,0.256,0.504,0.349,0.224,0.147
0.169,0.216,0.047,-0.193,0.061,0.131,-0.436,0.255,0.488,0.353,0.225,0.143
0.164,0.204,0.039,-0.184,0.062,0.121,-0.429,0.255,0.46,0.336,0.219,0.128
0.148,0.186,0.039,-0.167,0.054,0.112,-0.314,0.255,0.391,0.273,0.192,0.113
0.108,0.14,0.033,-0.125,0.037,0.086,-0.193,0.228,0.3,0.195,0.131,0.076
0.074,0.104,0.03,-0.089,0.022,0.067,-0.144,0.181,0.202,0.118,0.063,0.035
0.049,0.075,0.026,-0.062,0.011,0.05,-0.112,0.133,0.116,0.045,0.008,-0.005
0.015,0.04,0.025,-0.028,-0.005,0.032,-0.097,0.095,0.053,-0.01,-0.022,-0.034
0.0,0.024,0.025,-0.012,-0.013,0.024,-0.079,0.073,0.006,-0.036,-0.051,-0.052
0.005,0.025,0.02,-0.015,-0.008,0.022,-0.08,0.053,-0.023,-0.058,-0.07,-0.062
0.005,0.025,0.02,-0.015,-0.008,0.022,-0.148,0.045,-0.038,-0.079,-0.072,-0.064
0.004,0.025,0.021,-0.015,-0.009,0.023,-0.187,0.04,-0.053,-0.08,-0.074,-0.069
0.0,0.025,0.025,-0.013,-0.013,0.025,-0.19,0.035,-0.062,-0.08,-0.078,-0.073
0.002,0.027,0.025,-0.015,-0.012,0.026,-0.184,0.032,-0.061,-0.08,-0.08,-0.075
0.006,0.031,0.025,-0.019,-0.009,0.027,-0.171,0.025,-0.058,-0.08,-0.08,-0.075
0.004,0.03,0.025,-0.017,-0.01,0.027,-0.125,0.027,-0.056,-0.079,-0.083,-0.075
0.006,0.03,0.025,-0.018,-0.01,0.027,-0.067,0.03,-0.052,-0.075,-0.086,-0.075
0.004,0.029,0.025,-0.017,-0.01,0.027,-0.051,0.03,-0.05,-0.073,-0.084,-0.075
0.006,0.031,0.025,-0.019,-0.01,0.027,-0.048,0.034,-0.048,-0.07,-0.081,-0.075
0.009,0.034,0.025,-0.022,-0.008,0.029,-0.045,0.035,-0.043,-0.067,-0.076,-0.072
0.01,0.036,0.026,-0.024,-0.008,0.031,-0.043,0.034,-0.037,-0.064,-0.074,-0.069
0.01,0.04,0.03,-0.025,-0.01,0.035,-0.039,0.031,-0.034,-0.069,-0.07,-0.066
0.008,0.038,0.03,-0.023,-0.012,0.034,-0.043,0.03,-0.029,-0.07,-0.065,-0.063
0.008,0.034,0.026,-0.021,-0.01,0.03,-0.045,0.03,-0.025,-0.07,-0.067,-0.06
0.011,0.035,0.024,-0.024,-0.007,0.03,-0.045,0.03,-0.03,-0.075,-0.071,-0.061
0.014,0.035,0.021,-0.024,-0.004,0.027,-0.049,0.03,-0.034,-0.075,-0.07,-0.066
0.017,0.035,0.019,-0.026,-0.002,0.027,-0.05,0.027,-0.038,-0.076,-0.07,-0.064
0.02,0.035,0.015,-0.028,0.002,0.025,-0.05,0.024,-0.048,-0.081,-0.07,-0.068
0.016,0.03,0.015,-0.023,0.0,0.022,-0.044,0.025,-0.056,-0.085,-0.07,-0.071
0.003,0.03,0.027,-0.017,-0.012,0.028,-0.039,0.025,-0.062,-0.089,-0.075,-0.069
-0.002,0.029,0.031,-0.013,-0.017,0.03,-0.033,0.025,-0.068,-0.093,-0.075,-0.074
-0.005,0.024,0.03,-0.01,-0.018,0.026,-0.028,0.024,-0.07,-0.096,-0.076,-0.075
-0.001,0.026,0.027,-0.013,-0.014,0.026,-0.022,0.02,-0.071,-0.1,-0.08,-0.075
-0.002,0.022,0.025,-0.011,-0.014,0.023,-0.017,0.02,-0.075,-0.103,-0.08,-0.08
-0.005,0.019,0.025,-0.007,-0.015,0.022,-0.014,0.02,-0.075,-0.107,-0.082,-0.08
0.0,0.02,0.02,-0.01,-0.01,0.02,-0.015,0.02,-0.08,-0.11,-0.085,-0.08
-0.001,0.016,0.017,-0.008,-0.009,0.016,-0.016,0.019,-0.089,-0.11,-0.088,-0.08
0.002,0.015,0.013,-0.009,-0.006,0.014,-0.013,0.023,-0.087,-0.11,-0.091,-0.08
0.005,0.015,0.01,-0.01,-0.003,0.012,-0.064,0.025,-0.081,-0.11,-0.094,-0.08
0.015,0.02,0.004,-0.018,0.005,0.012,-0.126,0.027,-0.074,-0.111,-0.096,-0.08
0.01,0.019,0.009,-0.015,0.001,0.013,-0.137,0.031,-0.068,-0.106,-0.086,-0.08
0.006,0.027,0.02,-0.017,-0.007,0.024,-0.141,0.031,-0.059,-0.097,-0.073,-0.077
0.028,0.069,0.041,-0.049,-0.007,0.055,-0.139,0.035,-0.056,-0.089,-0.062,-0.071
0.026,0.089,0.063,-0.058,-0.019,0.076,-0.14,0.038,-0.076,-0.081,-0.06,-0.066
0.027,0.091,0.064,-0.059,-0.019,0.077,-0.141,0.046,-0.082,-0.076,-0.06,-0.063
0.038,0.095,0.057,-0.066,-0.01,0.076,-0.165,0.047,-0.078,-0.081,-0.057,-0.057
0.029,0.085,0.056,-0.057,-0.014,0.07,-0.215,0.03,-0.087,-0.08,-0.054,-0.056
0.028,0.072,0.044,-0.051,-0.008,0.058,-0.229,0.024,-0.082,-0.079,-0.056,-0.06
0.031,0.06,0.029,-0.046,0.001,0.045,-0.228,0.011,-0.089,-0.082,-0.061,-0.063
0.03,0.05,0.019,-0.04,0.005,0.034,-0.242,0.005,-0.087,-0.076,-0.067,-0.067
0.022,0.033,0.01,-0.028,0.006,0.021,-0.242,0.001,-0.102,-0.098,-0.074,-0.07
0.0,0.014,0.014,-0.007,-0.008,0.014,-0.237,-0.008,-0.121,-0.108,-0.081,-0.076
-0.005,-0.004,0.001,0.004,-0.003,-0.002,-0.227,-0.003,-0.123,-0.131,-0.105,-0.091
-0.01,0.0,0.009,0.004,-0.009,0.005,-0.224,-0.022,-0.137,-0.136,-0.104,-0.091
-0.005,-0.013,-0.008,0.009,0.002,-0.011,-0.214,-0.006,-0.128,-0.144,-0.117,-0.098
0.0,-0.009,-0.009,0.005,0.004,-0.009,-0.211,-0.033,-0.142,-0.139,-0.113,-0.097
-0.004,-0.026,-0.023,0.015,0.01,-0.024,-0.198,0.032,-0.103,-0.136,-0.122,-0.104
-0.007,-0.103,-0.096,0.055,0.044,-0.099,-0.073,0.24,0.003,-0.148,-0.17,-0.151
0.081,0.063,-0.018,-0.072,0.05,0.022,-0.096,0.365,0.341,0.103,0.002,-0.039
0.287,0.577,0.29,-0.433,-0.001,0.433,-0.554,-0.25,0.526,0.82,0.704,0.43
0.277,0.909,0.632,-0.593,-0.177,0.77,-0.969,-1.419,-0.053,1.407,1.298,0.802
0.037,0.509,0.472,-0.273,-0.218,0.491,-0.831,-1.588,-1.087,0.274,0.517,0.432
-0.185,-0.011,0.173,0.098,-0.179,0.081,-0.508,-1.167,-1.585,-1.064,-0.495,-0.138
-0.243,-0.091,0.153,0.167,-0.198,0.03,-0.33,-0.749,-1.028,-0.793,-0.496,-0.267
-0.16,-0.047,0.113,0.103,-0.136,0.032,-0.258,-0.317,-0.497,-0.443,-0.31,-0.213
-0.082,-0.013,0.069,0.047,-0.075,0.028,-0.248,-0.153,-0.292,-0.304,-0.208,-0.155
-0.042,-0.003,0.04,0.022,-0.041,0.018,-0.227,-0.013,-0.097,-0.174,-0.143,-0.115
-0.03,-0.001,0.029,0.015,-0.03,0.014,-0.223,0.032,-0.051,-0.146,-0.114,-0.097
-0.018,0.006,0.024,0.005,-0.022,0.015,-0.225,0.057,-0.014,-0.092,-0.088,-0.089
-0.01,0.008,0.018,0.001,-0.014,0.013,-0.228,0.088,-0.003,-0.091,-0.088,-0.086
0.003,0.016,0.013,-0.01,-0.005,0.015,-0.23,0.085,0.009,-0.071,-0.073,-0.078
0.014,0.021,0.007,-0.018,0.003,0.014,-0.232,0.096,0.031,-0.073,-0.069,-0.074
0.022,0.021,-0.001,-0.022,0.011,0.01,-0.237,0.103,0.047,-0.064,-0.06,-0.068
0.036,0.013,-0.023,-0.024,0.029,-0.005,-0.248,0.115,0.055,-0.059,-0.056,-0.061
0.052,0.027,-0.025,-0.039,0.038,0.001,-0.271,0.122,0.068,-0.045,-0.05,-0.051
0.058,0.044,-0.014,-0.051,0.036,0.015,-0.271,0.137,0.096,-0.018,-0.045,-0.043
0.06,0.049,-0.011,-0.054,0.035,0.018,-0.276,0.144,0.121,0.002,-0.034,-0.035
0.063,0.065,0.002,-0.064,0.03,0.033,-0.278,0.161,0.161,0.023,-0.009,-0.025
0.058,0.08,0.022,-0.07,0.018,0.051,-0.285,0.181,0.205,0.045,0.015,-0.014
0.076,0.102,0.025,-0.089,0.025,0.063,-0.296,0.207,0.266,0.088,0.042,0.012
0.11,0.128,0.018,-0.12,0.046,0.073,-0.31,0.226,0.337,0.14,0.077,0.038
0.153,0.16,0.007,-0.157,0.072,0.083,-0.342,0.249,0.406,0.198,0.123,0.07
0.155,0.196,0.041,-0.175,0.057,0.118,-0.361,0.293,0.483,0.262,0.172,0.108
0.16,0.231,0.071,-0.196,0.045,0.15,-0.383,0.305,0.528,0.303,0.21,0.132
0.186,0.247,0.061,-0.217,0.062,0.153,-0.386,0.295,0.534,0.324,0.229,0.15
0.173,0.234,0.062,-0.204,0.055,0.148,-0.379,0.285,0.526,0.327,0.226,0.152
0.166,0.223,0.057,-0.195,0.054,0.14,-0.379,0.275,0.477,0.294,0.215,0.138
0.141,0.196,0.055,-0.169,0.043,0.125,-0.345,0.256,0.396,0.237,0.179,0.108
0.095,0.15,0.055,-0.123,0.019,0.103,-0.313,0.216,0.292,0.16,0.115,0.064
0.055,0.109,0.055,-0.082,0.0,0.082,-0.292,0.171,0.19,0.074,0.06,0.017
0.028,0.083,0.055,-0.056,-0.014,0.069,-0.284,0.119,0.111,0.012,0.019,-0.019
0.022,0.072,0.05,-0.047,-0.014,0.061,-0.286,0.072,0.05,-0.031,-0.016,-0.042
0.009,0.059,0.05,-0.034,-0.021,0.054,-0.282,0.051,0.007,-0.062,-0.044,-0.055
0.006,0.055,0.049,-0.031,-0.022,0.052,-0.28,0.041,-0.022,-0.08,-0.058,-0.065
0.009,0.053,0.044,-0.031,-0.018,0.048,-0.28,0.031,-0.033,-0.09,-0.061,-0.071
0.004,0.049,0.046,-0.027,-0.021,0.047,-0.283,0.026,-0.039,-0.095,-0.063,-0.07
0.005,0.047,0.042,-0.026,-0.019,0.044,-0.291,0.021,-0.041,-0.104,-0.068,-0.07
0.008,0.044,0.036,-0.026,-0.015,0.04,-0.294,0.018,-0.051,-0.107,-0.076,-0.07
0.02,0.049,0.029,-0.035,-0.004,0.039,-0.289,0.012,-0.06,-0.104,-0.076,-0.07
0.027,0.05,0.023,-0.039,0.002,0.036,-0.285,0.011,-0.052,-0.105,-0.072,-0.067
0.034,0.05,0.016,-0.042,0.009,0.033,-0.283,0.018,-0.046,-0.105,-0.07,-0.064
0.041,0.05,0.009,-0.046,0.016,0.03,-0.278,0.022,-0.039,-0.105,-0.066,-0.066
0.009,0.05,0.04,-0.03,-0.016,0.045,-0.275,0.029,-0.033,-0.104,-0.065,-0.065
-0.009,0.05,0.059,-0.021,-0.034,0.054,-0.275,0.034,-0.028,-0.101,-0.062,-0.066
0.0,0.05,0.05,-0.025,-0.025,0.05,-0.275,0.032,-0.025,-0.098,-0.056,-0.064
0.0,0.05,0.05,-0.025,-0.025,0.05,-0.275,0.026,-0.026,-0.096,-0.051,-0.06
0.006,0.05,0.043,-0.029,-0.018,0.046,-0.275,0.022,-0.021,-0.092,-0.048,-0.06
0.008,0.05,0.041,-0.029,-0.016,0.046,-0.274,0.017,-0.02,-0.09,-0.042,-0.058
0.013,0.05,0.037,-0.032,-0.012,0.043,-0.276,0.013,-0.021,-0.092,-0.041,-0.055
0.017,0.046,0.029,-0.032,-0.006,0.037,-0.284,0.008,-0.025,-0.096,-0.047,-0.055
0.022,0.044,0.023,-0.033,-0.001,0.033,-0.285,0.005,-0.03,-0.099,-0.054,-0.058
0.03,0.045,0.015,-0.038,0.007,0.03,-0.285,0.006,-0.033,-0.103,-0.055,-0.063
0.037,0.045,0.008,-0.041,0.014,0.026,-0.285,0.002,-0.038,-0.106,-0.055,-0.066
0.045,0.045,0.0,-0.046,0.022,0.022,-0.285,0.0,-0.041,-0.11,-0.055,-0.071
0.02,0.044,0.023,-0.032,-0.002,0.033,-0.285,0.0,-0.046,-0.119,-0.055,-0.074
0.002,0.04,0.038,-0.021,-0.018,0.039,-0.281,-0.003,-0.049,-0.117,-0.067,-0.079
0.01,0.04,0.03,-0.025,-0.01,0.035,-0.279,-0.006,-0.051,-0.115,-0.071,-0.08
0.008,0.038,0.03,-0.023,-0.011,0.034,-0.276,-0.009,-0.047,-0.114,-0.069,-0.08
0.011,0.034,0.024,-0.023,-0.007,0.029,-0.272,-0.012,-0.046,-0.117,-0.07,-0.084
0.014,0.035,0.021,-0.025,-0.004,0.028,-0.271,-0.015,-0.057,-0.133,-0.07,-0.085
0.021,0.038,0.017,-0.03,0.002,0.027,-0.267,-0.014,-0.061,-0.136,-0.069,-0.084
0.026,0.041,0.015,-0.034,0.005,0.028,-0.267,-0.01,-0.059,-0.134,-0.076,-0.08
0.024,0.039,0.015,-0.032,0.005,0.027,-0.26,-0.008,-0.062,-0.135,-0.079,-0.08
0.026,0.04,0.015,-0.033,0.005,0.027,-0.261,-0.005,-0.07,-0.135,-0.072,-0.078
0.024,0.039,0.015,-0.032,0.004,0.027,-0.255,-0.001,-0.069,-0.135,-0.068,-0.075
0.028,0.042,0.014,-0.035,0.007,0.027,-0.255,0.0,-0.064,-0.128,-0.061,-0.076
0.017,0.073,0.056,-0.045,-0.019,0.064,-0.252,0.005,-0.055,-0.122,-0.056,-0.071
0.011,0.093,0.081,-0.052,-0.035,0.087,-0.236,0.016,-0.038,-0.117,-0.051,-0.066
0.019,0.088,0.069,-0.054,-0.025,0.078,-0.25,0.025,-0.028,-0.11,-0.049,-0.061
0.02,0.085,0.065,-0.053,-0.023,0.075,-0.139,0.033,-0.023,-0.11,-0.05,-0.058
0.025,0.081,0.057,-0.053,-0.016,0.069,-0.016,0.001,-0.027,-0.109,-0.05,-0.052
0.028,0.078,0.049,-0.053,-0.011,0.063,0.013,-0.032,-0.038,-0.105,-0.05,-0.051
0.033,0.074,0.041,-0.054,-0.004,0.057,0.038,-0.04,-0.053,-0.106,-0.051,-0.056
0.036,0.067,0.031,-0.052,0.002,0.049,0.039,-0.043,-0.052,-0.104,-0.057,-0.054
0.029,0.047,0.018,-0.038,0.005,0.032,-0.058,-0.043,-0.064,-0.124,-0.066,-0.063
0.013,0.022,0.009,-0.018,0.002,0.015,-0.195,-0.046,-0.075,-0.129,-0.075,-0.077
-0.003,0.0,0.003,0.001,-0.003,0.001,-0.24,-0.032,-0.083,-0.149,-0.097,-0.092
-0.015,0.005,0.02,0.005,-0.017,0.012,-0.255,-0.051,-0.093,-0.153,-0.092,-0.097
-0.004,-0.008,-0.004,0.006,0.0,-0.005,-0.281,-0.022,-0.082,-0.165,-0.098,-0.102
-0.002,-0.006,-0.003,0.004,0.001,-0.004,-0.262,-0.05,-0.098,-0.165,-0.094,-0.103
-0.006,-0.018,-0.012,0.012,0.003,-0.014,-0.058,-0.014,-0.052,-0.162,-0.097,-0.107
-0.016,-0.096,-0.08,0.056,0.033,-0.088,0.17,0.189,0.017,-0.185,-0.158,-0.153
0.064,0.042,-0.022,-0.053,0.043,0.01,0.206,0.348,0.355,0.045,-0.01,-0.068
0.301,0.551,0.25,-0.426,0.025,0.4,-0.258,-0.185,0.626,0.755,0.681,0.4
0.328,0.922,0.594,-0.626,-0.133,0.758,-0.892,-1.385,0.192,1.502,1.348,0.821
0.076,0.559,0.482,-0.318,-0.203,0.52,-0.847,-1.669,-0.839,0.477,0.651,0.498
-0.181,0.025,0.206,0.078,-0.193,0.115,-0.553,-1.267,-1.535,-1.021,-0.425,-0.104
-0.249,-0.084,0.166,0.166,-0.207,0.041,-0.395,-0.832,-1.029,-0.825,-0.475,-0.289
-0.153,-0.048,0.105,0.1,-0.129,0.028,-0.164,-0.376,-0.472,-0.455,-0.283,-0.221
-0.084,-0.021,0.063,0.052,-0.073,0.021,0.013,-0.188,-0.269,-0.331,-0.194,-0.164
-0.048,-0.011,0.037,0.029,-0.042,0.013,-0.066,-0.041,-0.064,-0.185,-0.125,-0.125
-0.028,-0.005,0.023,0.016,-0.025,0.009,-0.188,0.01,-0.028,-0.147,-0.092,-0.093
-0.005,0.003,0.008,0.0,-0.006,0.005,-0.192,0.037,0.029,-0.105,-0.064,-0.088
0.018,0.008,-0.01,-0.013,0.014,-0.001,-0.233,0.056,0.042,-0.111,-0.064,-0.085
0.036,0.017,-0.019,-0.026,0.027,-0.001,-0.149,0.063,0.054,-0.087,-0.048,-0.081
0.054,0.02,-0.034,-0.037,0.044,-0.007,0.047,0.084,0.073,-0.088,-0.046,-0.078
0.057,0.028,-0.029,-0.042,0.043,0.0,0.11,0.082,0.076,-0.076,-0.039,-0.074
0.056,0.033,-0.023,-0.045,0.039,0.005,-0.037,0.094,0.089,-0.068,-0.034,-0.069
0.054,0.039,-0.015,-0.047,0.035,0.011,-0.166,0.093,0.104,-0.063,-0.029,-0.06
0.056,0.046,-0.01,-0.051,0.033,0.018,-0.195,0.102,0.12,-0.059,-0.023,-0.055
0.049,0.05,0.001,-0.049,0.024,0.025,-0.222,0.115,0.147,-0.038,-0.012,-0.047
0.047,0.067,0.02,-0.057,0.013,0.043,-0.052,0.141,0.176,0.004,-0.001,-0.038
0.059,0.079,0.019,-0.069,0.02,0.049,0.08,0.161,0.21,0.036,0.019,-0.018
0.075,0.095,0.021,-0.085,0.027,0.058,-0.071,0.181,0.276,0.075,0.051,0.003
0.102,0.121,0.019,-0.111,0.041,0.07,-0.226,0.212,0.346,0.121,0.079,0.021
0.128,0.149,0.021,-0.138,0.053,0.084,-0.268,0.232,0.415,0.181,0.126,0.056
0.155,0.186,0.031,-0.171,0.062,0.108,-0.324,0.253,0.481,0.24,0.177,0.09
0.186,0.212,0.026,-0.199,0.079,0.119,-0.273,0.271,0.521,0.288,0.217,0.121
0.187,0.234,0.047,-0.21,0.07,0.14,-0.114,0.273,0.515,0.312,0.235,0.139
0.173,0.235,0.062,-0.204,0.056,0.148,-0.015,0.263,0.507,0.318,0.236,0.129
0.164,0.217,0.052,-0.191,0.056,0.134,-0.039,0.25,0.475,0.295,0.227,0.121
0.139,0.188,0.049,-0.164,0.045,0.118,-0.182,0.234,0.388,0.235,0.184,0.101
0.093,0.135,0.042,-0.115,0.025,0.089,-0.211,0.205,0.294,0.165,0.119,0.059
0.056,0.093,0.038,-0.075,0.009,0.065,-0.206,0.163,0.197,0.088,0.059,0.024
0.038,0.072,0.035,-0.055,0.001,0.053,-0.149,0.119,0.106,0.012,0.02,-0.009
0.025,0.06,0.035,-0.043,-0.005,0.048,0.041,0.081,0.045,-0.044,-0.011,-0.042
0.019,0.054,0.035,-0.037,-0.008,0.044,0.105,0.059,0.008,-0.069,-0.036,-0.06
0.012,0.047,0.035,-0.03,-0.012,0.041,-0.049,0.047,-0.017,-0.088,-0.051,-0.066
0.004,0.039,0.035,-0.022,-0.016,0.037,-0.176,0.036,-0.033,-0.097,-0.065,-0.071
0.002,0.032,0.03,-0.017,-0.014,0.031,-0.192,0.031,-0.044,-0.104,-0.071,-0.074
0.003,0.033,0.03,-0.018,-0.014,0.031,-0.219,0.026,-0.051,-0.11,-0.07,-0.079
0.007,0.035,0.029,-0.021,-0.011,0.032,-0.053,0.023,-0.055,-0.104,-0.07,-0.079
0.01,0.035,0.025,-0.023,-0.008,0.03,0.1,0.017,-0.055,-0.108,-0.07,-0.074
0.01,0.035,0.025,-0.023,-0.008,0.03,-0.049,0.016,-0.055,-0.111,-0.067,-0.079
0.01,0.035,0.025,-0.023,-0.008,0.03,-0.16,0.02,-0.055,-0.11,-0.062,-0.082
0.009,0.034,0.025,-0.022,-0.008,0.029,-0.185,0.02,-0.055,-0.109,-0.059,-0.078
0.004,0.029,0.025,-0.017,-0.011,0.027,-0.213,0.024,-0.051,-0.104,-0.055,-0.076
-0.001,0.024,0.025,-0.012,-0.014,0.024,-0.09,0.025,-0.044,-0.106,-0.052,-0.072
-0.005,0.019,0.025,-0.007,-0.015,0.021,0.094,0.025,-0.038,-0.103,-0.048,-0.069
-0.011,0.016,0.026,-0.003,-0.019,0.021,0.067,0.025,-0.03,-0.099,-0.045,-0.072
-0.019,0.009,0.028,0.005,-0.023,0.018,-0.113,0.025,-0.027,-0.101,-0.045,-0.076
-0.02,0.022,0.042,-0.001,-0.031,0.032,-0.182,0.025,-0.03,-0.096,-0.045,-0.075
-0.004,0.045,0.049,-0.021,-0.027,0.047,-0.208,0.025,-0.033,-0.095,-0.045,-0.075
0.004,0.044,0.04,-0.025,-0.018,0.042,-0.091,0.024,-0.035,-0.095,-0.045,-0.075
0.004,0.038,0.034,-0.021,-0.016,0.036,0.075,0.019,-0.039,-0.095,-0.049,-0.075
0.008,0.035,0.027,-0.022,-0.01,0.031,-0.051,0.016,-0.04,-0.096,-0.05,-0.079
0.009,0.03,0.021,-0.019,-0.006,0.025,-0.167,0.013,-0.043,-0.094,-0.05,-0.08
0.009,0.026,0.016,-0.018,-0.004,0.021,-0.184,0.008,-0.051,-0.101,-0.05,-0.08
0.007,0.021,0.014,-0.015,-0.004,0.017,-0.226,0.005,-0.055,-0.112,-0.05,-0.08
0.009,0.02,0.011,-0.014,-0.001,0.015,-0.11,0.002,-0.055,-0.114,-0.051,-0.08
0.012,0.02,0.009,-0.016,0.002,0.014,0.077,-0.003,-0.055,-0.119,-0.055,-0.08
0.015,0.02,0.005,-0.018,0.005,0.012,0.064,-0.006,-0.055,-0.12,-0.058,-0.08
0.014,0.02,0.006,-0.018,0.004,0.013,-0.108,-0.009,-0.058,-0.12,-0.062,-0.08
-0.002,0.02,0.022,-0.009,-0.012,0.021,-0.188,-0.014,-0.061,-0.125,-0.065,-0.08
-0.011,0.02,0.031,-0.005,-0.021,0.026,-0.187,-0.014,-0.064,-0.125,-0.062,-0.08
-0.009,0.02,0.029,-0.005,-0.019,0.025,-0.163,-0.008,-0.067,-0.124,-0.059,-0.08
-0.013,0.019,0.032,-0.004,-0.022,0.025,-0.008,-0.002,-0.07,-0.118,-0.056,-0.08
-0.016,0.021,0.036,-0.003,-0.026,0.028,0.055,0.003,-0.069,-0.111,-0.054,-0.081
-0.015,0.018,0.032,-0.002,-0.024,0.024,-0.114,0.01,-0.062,-0.105,-0.051,-0.078
-0.007,0.04,0.047,-0.017,-0.027,0.043,-0.193,0.013,-0.058,-0.097,-0.049,-0.071
0.007,0.066,0.059,-0.037,-0.027,0.063,-0.196,0.022,-0.051,-0.091,-0.05,-0.066
0.015,0.066,0.05,-0.041,-0.018,0.058,-0.177,0.027,-0.047,-0.085,-0.049,-0.061
0.03,0.074,0.044,-0.052,-0.007,0.059,0.011,0.033,-0.04,-0.085,-0.05,-0.054
0.044,0.08,0.035,-0.062,0.004,0.057,-0.044,0.01,-0.045,-0.085,-0.05,-0.051
0.04,0.07,0.03,-0.056,0.005,0.05,-0.245,-0.038,-0.056,-0.08,-0.049,-0.054
0.038,0.059,0.021,-0.049,0.008,0.04,-0.259,-0.045,-0.06,-0.081,-0.054,-0.055
0.033,0.051,0.018,-0.042,0.007,0.034,-0.277,-0.047,-0.064,-0.079,-0.054,-0.058
0.024,0.033,0.009,-0.028,0.007,0.02,-0.077,-0.042,-0.064,-0.091,-0.061,-0.06
0.006,0.013,0.007,-0.01,-0.001,0.01,-0.041,-0.05,-0.078,-0.097,-0.059,-0.066
-0.015,-0.017,-0.002,0.016,-0.006,-0.009,-0.197,-0.04,-0.084,-0.12,-0.077,-0.082
-0.031,-0.035,-0.005,0.033,-0.013,-0.02,-0.222,-0.047,-0.1,-0.136,-0.094,-0.087
-0.029,-0.04,-0.01,0.035,-0.01,-0.025,-0.229,-0.036,-0.089,-0.137,-0.094,-0.089
-0.021,-0.044,-0.022,0.033,0.001,-0.033,-0.008,-0.04,-0.101,-0.146,-0.097,-0.096
-0.021,-0.03,-0.009,0.026,-0.006,-0.02,-0.046,-0.049,-0.092,-0.13,-0.079,-0.09
-0.012,-0.094,-0.082,0.053,0.035,-0.087,-0.138,0.116,-0.011,-0.152,-0.129,-0.124
0.01,-0.071,-0.08,0.031,0.045,-0.075,-0.092,0.304,0.221,-0.025,-0.091,-0.113
0.195,0.349,0.154,-0.272,0.02,0.251,-0.364,0.061,0.55,0.495,0.421,0.236
0.296,0.847,0.551,-0.572,-0.128,0.699,-0.621,-0.973,0.264,1.362,1.251,0.747
0.093,0.708,0.615,-0.401,-0.261,0.661,-0.771,-1.585,-0.723,0.908,0.996,0.655
-0.146,0.172,0.318,-0.014,-0.232,0.245,-0.618,-1.3,-1.514,-0.743,-0.2,0.047
-0.273,-0.079,0.194,0.176,-0.233,0.057,-0.409,-0.895,-1.25,-0.969,-0.545,-0.265
-0.214,-0.071,0.143,0.142,-0.178,0.036,-0.23,-0.461,-0.607,-0.505,-0.339,-0.241
-0.12,-0.031,0.089,0.076,-0.104,0.029,-0.022,-0.238,-0.355,-0.368,-0.235,-0.178
-0.086,-0.035,0.051,0.061,-0.068,0.007,-0.152,-0.108,-0.156,-0.201,-0.155,-0.134
-0.052,-0.028,0.024,0.04,-0.038,-0.002,-0.237,-0.025,-0.05,-0.155,-0.119,-0.108
-0.042,-0.02,0.022,0.031,-0.032,0.001,-0.246,0.002,-0.006,-0.1,-0.08,-0.095
-0.033,-0.016,0.018,0.025,-0.025,0.001,-0.093,0.052,0.021,-0.091,-0.078,-0.089
-0.024,-0.006,0.019,0.015,-0.021,0.006,-0.035,0.053,0.025,-0.081,-0.07,-0.083
-0.013,-0.003,0.011,0.008,-0.012,0.004,-0.192,0.06,0.039,-0.067,-0.065,-0.08
-0.005,0.005,0.01,0.0,-0.008,0.007,-0.248,0.06,0.048,-0.064,-0.061,-0.075
0.003,0.008,0.005,-0.006,-0.001,0.006,-0.2,0.064,0.061,-0.05,-0.052,-0.07
0.011,0.013,0.002,-0.012,0.005,0.007,-0.045,0.066,0.07,-0.046,-0.043,-0.066
0.019,0.017,-0.001,-0.018,0.01,0.008,-0.126,0.063,0.096,-0.018,-0.032,-0.056
0.035,0.022,-0.013,-0.028,0.024,0.004,-0.272,0.072,0.116,0.001,-0.022,-0.05
0.052,0.034,-0.018,-0.043,0.034,0.008,-0.273,0.088,0.151,0.016,-0.004,-0.032
0.056,0.046,-0.01,-0.051,0.033,0.017,-0.141,0.097,0.189,0.045,0.019,-0.013
0.066,0.059,-0.007,-0.062,0.036,0.026,-0.173,0.113,0.235,0.085,0.051,0.001
0.091,0.088,-0.003,-0.089,0.046,0.042,-0.325,0.139,0.294,0.133,0.075,0.03
0.116,0.119,0.003,-0.118,0.057,0.06,-0.353,0.171,0.367,0.196,0.116,0.063
0.141,0.147,0.006,-0.144,0.067,0.076,-0.301,0.2,0.435,0.258,0.167,0.095
0.154,0.177,0.023,-0.165,0.065,0.099,-0.262,0.208,0.476,0.305,0.205,0.128
0.166,0.198,0.032,-0.182,0.067,0.114,-0.363,0.199,0.496,0.33,0.233,0.154
0.162,0.191,0.029,-0.177,0.066,0.11,-0.454,0.193,0.474,0.329,0.241,0.153
0.147,0.177,0.03,-0.162,0.058,0.103,-0.365,0.185,0.445,0.314,0.236,0.138
0.144,0.169,0.025,-0.157,0.059,0.096,-0.179,0.177,0.387,0.262,0.2,0.123
0.109,0.135,0.025,-0.123,0.042,0.08,-0.242,0.172,0.292,0.188,0.142,0.084
0.067,0.091,0.024,-0.079,0.021,0.057,-0.333,0.136,0.201,0.111,0.078,0.039
0.041,0.06,0.019,-0.051,0.011,0.039,-0.276,0.084,0.112,0.041,0.026,0.002
0.029,0.043,0.014,-0.036,0.007,0.028,-0.185,0.046,0.04,-0.007,-0.008,-0.024
0.03,0.039,0.009,-0.035,0.01,0.024,-0.192,0.026,0.004,-0.051,-0.042,-0.042
0.028,0.034,0.006,-0.031,0.01,0.02,-0.298,0.018,-0.023,-0.068,-0.056,-0.055
0.03,0.028,-0.002,-0.029,0.015,0.013,-0.282,0.009,-0.052,-0.085,-0.059,-0.055
0.007,0.023,0.015,-0.015,-0.004,0.019,-0.226,0.001,-0.057,-0.098,-0.065,-0.055
-0.016,0.017,0.033,-0.001,-0.025,0.025,-0.217,-0.007,-0.053,-0.093,-0.065,-0.055
-0.015,0.014,0.029,0.001,-0.022,0.021,-0.275,-0.015,-0.057,-0.096,-0.065,-0.055
-0.021,0.01,0.031,0.006,-0.026,0.02,-0.274,-0.021,-0.065,-0.095,-0.065,-0.054
-0.022,0.007,0.029,0.008,-0.026,0.018,-0.12,-0.031,-0.062,-0.095,-0.065,-0.05
-0.029,0.002,0.031,0.013,-0.03,0.016,-0.126,-0.033,-0.053,-0.09,-0.063,-0.05
-0.028,0.0,0.029,0.014,-0.028,0.014,-0.241,-0.024,-0.048,-0.082,-0.057,-0.05
-0.017,0.005,0.021,0.006,-0.019,0.013,-0.256,-0.016,-0.041,-0.076,-0.052,-0.05
-0.009,0.005,0.014,0.002,-0.012,0.009,-0.097,-0.008,-0.035,-0.069,-0.049,-0.05
-0.001,0.006,0.007,-0.003,-0.004,0.006,0.003,-0.001,-0.031,-0.062,-0.044,-0.047
0.011,0.011,0.0,-0.01,0.005,0.005,-0.053,-0.005,-0.028,-0.062,-0.04,-0.044
0.02,0.01,-0.01,-0.014,0.015,-0.001,-0.091,-0.005,-0.025,-0.066,-0.045,-0.041
-0.001,0.008,0.01,-0.004,-0.006,0.009,-0.026,-0.005,-0.023,-0.065,-0.045,-0.038
-0.028,0.004,0.031,0.012,-0.03,0.017,0.15,-0.005,-0.02,-0.065,-0.045,-0.035
-0.013,0.007,0.02,0.003,-0.017,0.013,0.098,-0.005,-0.022,-0.065,-0.045,-0.036
0.034,0.023,-0.011,-0.028,0.022,0.006,-0.018,-0.008,-0.034,-0.064,-0.044,-0.041
0.025,0.02,-0.005,-0.023,0.015,0.008,-0.048,-0.01,-0.046,-0.061,-0.048,-0.039
-0.009,0.012,0.021,-0.002,-0.015,0.016,0.058,-0.013,-0.053,-0.059,-0.05,-0.043
0.002,0.006,0.004,-0.004,-0.001,0.005,0.118,-0.016,-0.055,-0.064,-0.051,-0.045
0.018,-0.003,-0.021,-0.007,0.019,-0.012,0.001,-0.019,-0.055,-0.065,-0.055,-0.045
0.022,-0.009,-0.032,-0.007,0.027,-0.02,-0.065,-0.02,-0.055,-0.071,-0.055,-0.049
0.009,-0.015,-0.024,0.003,0.017,-0.02,0.029,-0.015,-0.062,-0.086,-0.059,-0.05
0.0,-0.015,-0.015,0.008,0.008,-0.015,0.131,-0.016,-0.073,-0.093,-0.063,-0.05
-0.004,-0.015,-0.011,0.01,0.004,-0.013,0.025,-0.013,-0.075,-0.093,-0.065,-0.054
-0.015,-0.015,0.0,0.015,-0.007,-0.007,-0.064,-0.011,-0.075,-0.09,-0.07,-0.055
0.0,-0.015,-0.016,0.007,0.009,-0.015,-0.032,-0.008,-0.085,-0.087,-0.07,-0.053
0.025,-0.013,-0.038,-0.006,0.032,-0.025,0.12,-0.017,-0.091,-0.084,-0.07,-0.05
0.024,-0.01,-0.033,-0.007,0.028,-0.021,0.089,-0.031,-0.089,-0.08,-0.07,-0.047
0.021,-0.01,-0.032,-0.006,0.027,-0.021,-0.078,-0.03,-0.09,-0.08,-0.07,-0.045
0.021,-0.007,-0.028,-0.007,0.025,-0.017,-0.042,-0.03,-0.09,-0.085,-0.076,-0.041
0.021,-0.004,-0.025,-0.008,0.024,-0.015,0.087,-0.027,-0.089,-0.086,-0.073,-0.04
0.018,-0.006,-0.024,-0.005,0.021,-0.015,0.073,-0.024,-0.098,-0.083,-0.068,-0.036
0.023,0.013,-0.01,-0.018,0.016,0.002,-0.069,-0.025,-0.097,-0.073,-0.064,-0.03
0.035,0.037,0.002,-0.036,0.016,0.019,-0.001,-0.016,-0.08,-0.062,-0.058,-0.025
0.014,0.04,0.026,-0.027,-0.006,0.033,0.126,-0.002,-0.067,-0.064,-0.055,-0.019
0.005,0.052,0.047,-0.029,-0.021,0.049,0.066,0.007,-0.05,-0.065,-0.05,-0.013
0.017,0.05,0.033,-0.033,-0.009,0.041,-0.06,0.024,-0.035,-0.065,-0.047,-0.011
0.046,0.036,-0.011,-0.041,0.028,0.012,-0.087,-0.007,-0.049,-0.066,-0.043,-0.015
0.074,0.03,-0.045,-0.051,0.059,-0.007,0.044,-0.051,-0.08,-0.064,-0.04,-0.015
0.065,0.019,-0.046,-0.041,0.055,-0.013,0.029,-0.055,-0.083,-0.069,-0.035,-0.017
0.06,0.017,-0.043,-0.038,0.051,-0.013,-0.111,-0.06,-0.073,-0.068,-0.038,-0.021
0.05,0.002,-0.048,-0.025,0.049,-0.023,-0.102,-0.057,-0.103,-0.074,-0.063,-0.019
0.018,-0.022,-0.041,0.003,0.03,-0.031,0.041,-0.07,-0.122,-0.071,-0.071,-0.029
0.005,-0.046,-0.051,0.021,0.028,-0.048,0.054,-0.057,-0.122,-0.09,-0.088,-0.05
0.006,-0.05,-0.056,0.022,0.031,-0.052,-0.082,-0.07,-0.137,-0.087,-0.089,-0.049
0.006,-0.057,-0.063,0.025,0.035,-0.059,0.001,-0.045,-0.119,-0.079,-0.09,-0.052
0.004,-0.056,-0.06,0.026,0.032,-0.057,0.152,-0.061,-0.136,-0.08,-0.092,-0.056
0.005,-0.049,-0.054,0.022,0.03,-0.051,0.095,-0.04,-0.104,-0.055,-0.083,-0.053
-0.009,-0.128,-0.119,0.069,0.056,-0.123,0.166,0.156,-0.036,-0.086,-0.139,-0.095
0.051,-0.029,-0.08,-0.011,0.065,-0.054,0.35,0.327,0.268,0.074,-0.037,-0.039
0.266,0.447,0.181,-0.357,0.042,0.314,-0.01,-0.094,0.57,0.708,0.584,0.386
0.312,0.863,0.551,-0.588,-0.12,0.707,-0.587,-1.306,0.176,1.516,1.301,0.841
0.084,0.571,0.488,-0.328,-0.202,0.529,-0.502,-1.717,-0.832,0.702,0.757,0.594
-0.176,-0.008,0.168,0.092,-0.172,0.08,-0.023,-1.301,-1.576,-0.892,-0.368,-0.016
-0.266,-0.139,0.127,0.202,-0.196,-0.006,0.175,-0.901,-1.157,-0.837,-0.508,-0.228
-0.17,-0.085,0.085,0.127,-0.127,0.0,0.129,-0.432,-0.549,-0.418,-0.304,-0.182
-0.081,-0.063,0.018,0.072,-0.049,-0.022,0.155,-0.218,-0.333,-0.292,-0.208,-0.133
-0.03,-0.045,-0.015,0.037,-0.007,-0.03,0.301,-0.085,-0.126,-0.136,-0.133,-0.086
-0.021,-0.041,-0.019,0.031,-0.001,-0.03,0.294,-0.012,-0.068,-0.109,-0.106,-0.055
-0.004,-0.031,-0.027,0.018,0.012,-0.029,0.197,0.008,-0.018,-0.056,-0.07,-0.038
0.028,-0.027,-0.055,-0.001,0.042,-0.041,0.277,0.038,0.002,-0.057,-0.073,-0.033
0.029,-0.018,-0.047,-0.005,0.038,-0.033,0.343,0.045,0.009,-0.038,-0.06,-0.026
0.036,-0.015,-0.051,-0.01,0.044,-0.033,0.241,0.064,0.02,-0.033,-0.057,-0.019
0.032,-0.012,-0.045,-0.01,0.039,-0.028,0.217,0.067,0.021,-0.025,-0.049,-0.013
0.035,-0.01,-0.045,-0.012,0.04,-0.027,0.332,0.078,0.044,-0.013,-0.043,-0.007
0.04,-0.006,-0.046,-0.016,0.043,-0.026,0.304,0.078,0.06,-0.007,-0.036,-0.002
0.038,-0.006,-0.044,-0.016,0.042,-0.025,0.199,0.097,0.082,0.009,-0.026,0.001
0.049,0.003,-0.046,-0.025,0.047,-0.021,0.263,0.111,0.101,0.026,-0.02,0.007
0.063,0.019,-0.044,-0.041,0.053,-0.012,0.342,0.114,0.134,0.053,-0.002,0.01
0.085,0.039,-0.046,-0.061,0.065,-0.004,0.217,0.132,0.179,0.08,0.016,0.028
0.099,0.062,-0.037,-0.08,0.068,0.012,0.177,0.159,0.233,0.127,0.047,0.053
0.105,0.085,-0.02,-0.095,0.063,0.032,0.278,0.191,0.293,0.174,0.08,0.069
0.134,0.12,-0.014,-0.126,0.074,0.053,0.177,0.219,0.365,0.234,0.123,0.105
0.17,0.153,-0.017,-0.161,0.093,0.068,0.086,0.243,0.428,0.295,0.171,0.138
0.185,0.182,-0.003,-0.184,0.094,0.089,0.171,0.263,0.473,0.345,0.208,0.168
0.179,0.199,0.02,-0.189,0.079,0.109,0.171,0.265,0.484,0.377,0.245,0.194
0.166,0.187,0.021,-0.176,0.073,0.103,0.067,0.253,0.474,0.375,0.251,0.197
0.156,0.176,0.02,-0.166,0.068,0.097,0.108,0.247,0.452,0.361,0.234,0.188
0.142,0.163,0.021,-0.153,0.061,0.092,0.231,0.232,0.373,0.306,0.197,0.157
0.104,0.123,0.02,-0.113,0.042,0.071,0.179,0.196,0.273,0.225,0.138,0.114
0.06,0.08,0.021,-0.07,0.019,0.05,0.139,0.145,0.169,0.145,0.079,0.067
0.032,0.048,0.016,-0.04,0.008,0.032,0.292,0.093,0.077,0.078,0.026,0.027
0.012,0.021,0.01,-0.017,0.001,0.015,0.278,0.049,0.027,0.029,-0.007,0.005
0.001,0.006,0.005,-0.004,-0.003,0.005,0.167,0.023,-0.024,-0.017,-0.031,-0.005
0.001,0.0,-0.001,0.0,0.001,0.0,0.263,0.01,-0.057,-0.036,-0.044,-0.013
0.001,-0.005,-0.006,0.002,0.004,-0.006,0.292,-0.003,-0.066,-0.043,-0.052,-0.022
0.001,-0.01,-0.011,0.005,0.006,-0.011,0.19,-0.009,-0.081,-0.049,-0.066,-0.031
0.007,-0.017,-0.024,0.005,0.015,-0.02,0.162,-0.014,-0.08,-0.052,-0.065,-0.035
0.008,-0.019,-0.027,0.006,0.018,-0.023,0.28,-0.019,-0.079,-0.054,-0.065,-0.038
0.004,-0.015,-0.019,0.005,0.012,-0.016,0.341,-0.025,-0.084,-0.06,-0.065,-0.04
0.0,-0.015,-0.016,0.008,0.008,-0.015,0.22,-0.029,-0.085,-0.068,-0.065,-0.044
-0.004,-0.013,-0.009,0.008,0.003,-0.011,0.171,-0.025,-0.079,-0.063,-0.063,-0.045
-0.006,-0.009,-0.003,0.008,-0.001,-0.006,0.274,-0.017,-0.073,-0.057,-0.059,-0.041
-0.01,-0.011,-0.001,0.01,-0.004,-0.006,0.301,-0.011,-0.068,-0.054,-0.057,-0.036
0.0,-0.006,-0.006,0.003,0.003,-0.006,0.194,-0.004,-0.062,-0.048,-0.054,-0.031
0.017,-0.005,-0.022,-0.006,0.02,-0.014,0.166,0.003,-0.06,-0.045,-0.051,-0.028
0.023,-0.005,-0.027,-0.009,0.026,-0.016,0.277,0.003,-0.057,-0.045,-0.049,-0.022
0.023,-0.001,-0.024,-0.011,0.024,-0.012,0.292,-0.001,-0.054,-0.045,-0.046,-0.021
0.026,0.0,-0.025,-0.013,0.025,-0.012,0.18,0.0,-0.051,-0.045,-0.045,-0.025
0.019,-0.001,-0.02,-0.009,0.019,-0.01,0.182,0.0,-0.05,-0.045,-0.045,-0.027
0.011,-0.01,-0.02,-0.001,0.016,-0.015,0.288,0.0,-0.056,-0.045,-0.045,-0.03
0.001,-0.018,-0.019,0.009,0.01,-0.018,0.254,0.0,-0.059,-0.048,-0.045,-0.034
-0.015,-0.027,-0.012,0.021,-0.001,-0.02,0.133,-0.005,-0.053,-0.05,-0.047,-0.035
-0.02,-0.027,-0.008,0.024,-0.005,-0.017,0.204,-0.01,-0.057,-0.05,-0.053,-0.039
-0.022,-0.022,0.0,0.022,-0.011,-0.011,0.297,-0.014,-0.072,-0.057,-0.062,-0.04
-0.012,-0.019,-0.008,0.016,-0.002,-0.013,0.226,-0.019,-0.077,-0.068,-0.065,-0.04
0.007,-0.016,-0.023,0.004,0.016,-0.019,0.131,-0.023,-0.073,-0.074,-0.068,-0.044
0.009,-0.011,-0.02,0.001,0.015,-0.015,0.197,-0.028,-0.079,-0.077,-0.071,-0.046
0.003,-0.011,-0.014,0.004,0.008,-0.012,0.317,-0.03,-0.089,-0.079,-0.07,-0.043
0.011,-0.017,-0.028,0.003,0.02,-0.022,0.211,-0.03,-0.09,-0.083,-0.07,-0.04
0.022,-0.02,-0.042,-0.001,0.032,-0.031,0.124,-0.033,-0.09,-0.085,-0.07,-0.04
0.014,-0.025,-0.039,0.006,0.027,-0.032,0.239,-0.036,-0.09,-0.087,-0.07,-0.04
0.006,-0.03,-0.035,0.012,0.021,-0.032,0.282,-0.034,-0.092,-0.09,-0.07,-0.04
0.007,-0.027,-0.034,0.01,0.021,-0.03,0.146,-0.031,-0.099,-0.09,-0.068,-0.04
0.005,-0.023,-0.029,0.009,0.017,-0.026,0.127,-0.03,-0.096,-0.093,-0.064,-0.04
0.01,-0.022,-0.031,0.006,0.021,-0.026,0.267,-0.029,-0.095,-0.096,-0.062,-0.04
0.021,-0.018,-0.039,-0.002,0.03,-0.028,0.235,-0.024,-0.095,-0.095,-0.059,-0.04
0.01,-0.016,-0.026,0.004,0.018,-0.02,0.121,-0.025,-0.089,-0.089,-0.056,-0.04
0.004,-0.013,-0.018,0.005,0.011,-0.015,0.155,-0.021,-0.09,-0.076,-0.054,-0.04
0.024,0.001,-0.023,-0.012,0.023,-0.011,0.291,-0.005,-0.086,-0.073,-0.051,-0.04
0.029,0.018,-0.011,-0.023,0.02,0.003,0.242,0.006,-0.067,-0.075,-0.05,-0.04
0.025,0.027,0.002,-0.026,0.011,0.014,0.161,0.021,-0.061,-0.075,-0.05,-0.04
0.025,0.014,-0.011,-0.019,0.017,0.001,0.242,0.022,-0.057,-0.075,-0.05,-0.04
0.038,-0.001,-0.039,-0.018,0.038,-0.02,0.186,-0.026,-0.073,-0.075,-0.05,-0.039
0.051,-0.01,-0.06,-0.021,0.056,-0.035,0.062,-0.045,-0.096,-0.075,-0.05,-0.04
0.038,-0.018,-0.057,-0.01,0.048,-0.037,0.098,-0.046,-0.101,-0.071,-0.05,-0.043
0.025,-0.027,-0.052,0.001,0.039,-0.039,0.209,-0.051,-0.102,-0.069,-0.049,-0.046
0.012,-0.037,-0.049,0.013,0.031,-0.043,0.167,-0.05,-0.109,-0.071,-0.051,-0.05
0.0,-0.043,-0.043,0.022,0.021,-0.043,0.098,-0.064,-0.114,-0.077,-0.062,-0.05
-0.014,-0.063,-0.049,0.039,0.017,-0.056,0.108,-0.058,-0.13,-0.111,-0.087,-0.062
-0.024,-0.062,-0.038,0.043,0.007,-0.049,0.1,-0.075,-0.146,-0.105,-0.088,-0.06
-0.023,-0.069,-0.046,0.046,0.012,-0.057,0.021,-0.052,-0.134,-0.114,-0.1,-0.062
-0.028,-0.06,-0.032,0.044,0.003,-0.045,-0.146,-0.082,-0.148,-0.109,-0.092,-0.058
-0.016,-0.071,-0.055,0.044,0.019,-0.062,-0.095,-0.033,-0.111,-0.105,-0.095,-0.065
-0.042,-0.138,-0.096,0.09,0.027,-0.117,0.183,0.181,-0.003,-0.107,-0.151,-0.119
0.049,0.016,-0.033,-0.032,0.041,-0.008,0.102,0.324,0.331,0.125,0.014,-0.015
0.285,0.538,0.253,-0.411,0.016,0.395,-0.504,-0.268,0.552,0.866,0.738,0.473
0.293,0.864,0.571,-0.578,-0.14,0.717,-0.872,-1.41,0.071,1.568,1.369,0.871
0.053,0.483,0.431,-0.268,-0.19,0.457,-0.614,-1.613,-0.972,0.43,0.603,0.507
-0.199,-0.008,0.191,0.103,-0.195,0.091,-0.339,-1.221,-1.555,-0.987,-0.433,-0.077
-0.261,-0.14,0.121,0.2,-0.191,-0.009,-0.289,-0.79,-1.019,-0.743,-0.461,-0.232
-0.171,-0.101,0.069,0.136,-0.12,-0.016,-0.103,-0.371,-0.501,-0.42,-0.288,-0.185
-0.107,-0.068,0.04,0.088,-0.073,-0.014,0.136,-0.206,-0.309,-0.286,-0.205,-0.134
-0.066,-0.068,-0.002,0.067,-0.032,-0.034,0.121,-0.067,-0.113,-0.144,-0.142,-0.093
-0.042,-0.055,-0.013,0.049,-0.014,-0.034,0.039,-0.018,-0.06,-0.113,-0.105,-0.068
-0.015,-0.052,-0.037,0.034,0.011,-0.044,0.152,0.021,-0.016,-0.062,-0.08,-0.058
0.003,-0.044,-0.047,0.021,0.025,-0.045,0.268,0.036,-0.005,-0.064,-0.079,-0.056
0.001,-0.038,-0.039,0.018,0.02,-0.038,0.207,0.035,0.015,-0.038,-0.062,-0.052
0.007,-0.033,-0.039,0.013,0.023,-0.035,0.104,0.051,0.034,-0.035,-0.059,-0.048
0.004,-0.029,-0.032,0.013,0.018,-0.03,0.153,0.055,0.047,-0.023,-0.048,-0.045
0.004,-0.027,-0.03,0.011,0.018,-0.028,0.286,0.074,0.058,-0.015,-0.041,-0.04
0.013,-0.021,-0.034,0.005,0.024,-0.028,0.237,0.073,0.063,-0.007,-0.034,-0.03
0.015,-0.021,-0.036,0.003,0.025,-0.028,0.114,0.086,0.092,0.007,-0.025,-0.02
0.027,-0.008,-0.035,-0.009,0.031,-0.021,0.125,0.097,0.12,0.016,-0.015,-0.01
0.045,0.012,-0.033,-0.028,0.039,-0.01,0.239,0.107,0.148,0.039,0.001,0.003
0.059,0.03,-0.029,-0.045,0.044,0.0,0.214,0.122,0.193,0.068,0.023,0.014
0.07,0.04,-0.031,-0.055,0.05,0.004,0.052,0.139,0.253,0.113,0.051,0.031
0.088,0.061,-0.026,-0.074,0.057,0.018,0.081,0.164,0.323,0.171,0.088,0.054
0.116,0.096,-0.02,-0.106,0.067,0.038,0.154,0.191,0.404,0.239,0.141,0.088
0.134,0.119,-0.015,-0.126,0.074,0.052,0.09,0.213,0.467,0.295,0.182,0.124
0.156,0.147,-0.009,-0.151,0.083,0.069,-0.035,0.216,0.511,0.337,0.217,0.148
0.173,0.17,-0.003,-0.172,0.088,0.083,0.001,0.207,0.53,0.362,0.254,0.169
0.169,0.168,-0.001,-0.168,0.085,0.083,0.139,0.202,0.519,0.357,0.259,0.167
0.154,0.148,-0.006,-0.15,0.079,0.071,0.011,0.193,0.473,0.33,0.243,0.151
0.125,0.116,-0.009,-0.121,0.067,0.053,-0.152,0.189,0.387,0.267,0.195,0.131
0.087,0.075,-0.012,-0.081,0.05,0.031,-0.085,0.175,0.293,0.184,0.128,0.089
0.054,0.037,-0.017,-0.045,0.035,0.01,0.075,0.131,0.193,0.105,0.077,0.05
0.027,0.007,-0.02,-0.017,0.023,-0.006,0.031,0.084,0.113,0.033,0.031,0.012
0.007,-0.018,-0.024,0.006,0.016,-0.021,-0.117,0.047,0.056,-0.017,-0.01,-0.017
-0.002,-0.038,-0.035,0.02,0.017,-0.036,-0.006,0.017,0.012,-0.051,-0.04,-0.027
-0.006,-0.046,-0.04,0.026,0.018,-0.043,0.074,0.005,-0.017,-0.066,-0.048,-0.039
-0.005,-0.044,-0.04,0.025,0.018,-0.042,-0.06,0.002,-0.035,-0.07,-0.065,-0.046
-0.005,-0.045,-0.04,0.025,0.018,-0.042,-0.111,-0.002,-0.034,-0.07,-0.082,-0.045
-0.008,-0.048,-0.04,0.028,0.016,-0.044,0.042,-0.005,-0.046,-0.079,-0.079,-0.045
-0.013,-0.053,-0.04,0.033,0.014,-0.047,0.183,-0.01,-0.057,-0.093,-0.08,-0.045
-0.018,-0.054,-0.036,0.036,0.009,-0.045,0.121,-0.008,-0.059,-0.095,-0.08,-0.045
-0.02,-0.05,-0.03,0.035,0.005,-0.04,0.096,-0.005,-0.058,-0.095,-0.08,-0.045
-0.025,-0.05,-0.025,0.038,0.0,-0.037,0.242,-0.005,-0.052,-0.095,-0.077,-0.045
-0.028,-0.048,-0.019,0.038,-0.004,-0.033,0.258,-0.001,-0.05,-0.095,-0.071,-0.045
-0.031,-0.044,-0.013,0.038,-0.008,-0.029,0.128,0.001,-0.046,-0.095,-0.067,-0.045
-0.035,-0.046,-0.011,0.04,-0.012,-0.028,0.145,-0.001,-0.041,-0.093,-0.062,-0.046
-0.021,-0.041,-0.02,0.031,0.0,-0.031,0.264,-0.005,-0.04,-0.088,-0.057,-0.043
-0.011,-0.04,-0.029,0.026,0.009,-0.034,0.229,-0.01,-0.04,-0.082,-0.055,-0.04
-0.009,-0.04,-0.031,0.024,0.011,-0.035,0.099,-0.014,-0.04,-0.079,-0.055,-0.037
-0.001,-0.035,-0.034,0.019,0.017,-0.035,0.107,-0.019,-0.04,-0.074,-0.055,-0.035
0.002,-0.035,-0.037,0.017,0.02,-0.036,0.218,-0.024,-0.04,-0.07,-0.055,-0.031
0.004,-0.036,-0.04,0.016,0.022,-0.037,0.148,-0.023,-0.04,-0.075,-0.055,-0.03
-0.004,-0.045,-0.041,0.025,0.019,-0.043,-0.027,-0.019,-0.043,-0.08,-0.054,-0.034
-0.007,-0.052,-0.045,0.03,0.02,-0.048,0.009,-0.02,-0.046,-0.083,-0.06,-0.035
-0.009,-0.058,-0.049,0.034,0.021,-0.053,0.122,-0.02,-0.045,-0.088,-0.069,-0.035
-0.02,-0.07,-0.05,0.045,0.015,-0.06,0.046,-0.02,-0.045,-0.09,-0.07,-0.035
-0.02,-0.07,-0.049,0.045,0.014,-0.06,-0.09,-0.02,-0.045,-0.093,-0.07,-0.035
-0.009,-0.071,-0.062,0.04,0.027,-0.067,0.003,-0.015,-0.044,-0.096,-0.07,-0.036
-0.009,-0.075,-0.066,0.043,0.029,-0.071,0.115,-0.015,-0.054,-0.099,-0.076,-0.045
-0.015,-0.075,-0.06,0.045,0.023,-0.067,0.012,-0.015,-0.061,-0.1,-0.081,-0.051
-0.012,-0.073,-0.061,0.042,0.024,-0.066,-0.14,-0.015,-0.059,-0.1,-0.083,-0.05
-0.016,-0.069,-0.054,0.043,0.019,-0.061,-0.153,-0.015,-0.06,-0.1,-0.086,-0.05
-0.013,-0.07,-0.057,0.042,0.022,-0.063,-0.099,-0.017,-0.06,-0.102,-0.085,-0.05
-0.03,-0.07,-0.04,0.05,0.005,-0.055,-0.253,-0.025,-0.06,-0.11,-0.085,-0.05
-0.027,-0.07,-0.043,0.048,0.008,-0.056,-0.294,-0.03,-0.057,-0.114,-0.085,-0.049
0.002,-0.07,-0.072,0.034,0.037,-0.071,-0.14,-0.025,-0.052,-0.111,-0.084,-0.044
-0.003,-0.063,-0.06,0.034,0.029,-0.061,-0.249,-0.017,-0.05,-0.108,-0.094,-0.039
0.007,-0.055,-0.062,0.024,0.035,-0.058,-0.336,-0.01,-0.046,-0.105,-0.097,-0.035
-0.004,-0.047,-0.043,0.026,0.02,-0.045,-0.18,-0.004,-0.04,-0.1,-0.086,-0.03
-0.018,-0.038,-0.021,0.028,0.002,-0.029,-0.071,0.004,-0.041,-0.102,-0.078,-0.025
-0.008,-0.037,-0.029,0.023,0.011,-0.033,-0.118,0.023,-0.044,-0.105,-0.071,-0.028
-0.022,-0.041,-0.02,0.032,-0.001,-0.03,-0.152,0.037,-0.046,-0.105,-0.07,-0.031
-0.001,-0.046,-0.045,0.024,0.023,-0.045,-0.122,0.025,-0.048,-0.105,-0.07,-0.029
0.029,-0.054,-0.083,0.013,0.056,-0.068,-0.244,0.001,-0.052,-0.105,-0.07,-0.03
0.011,-0.073,-0.083,0.031,0.047,-0.078,-0.341,-0.004,-0.047,-0.104,-0.07,-0.03
-0.006,-0.085,-0.079,0.046,0.037,-0.082,-0.192,-0.015,-0.053,-0.101,-0.071,-0.03
-0.012,-0.085,-0.073,0.049,0.031,-0.079,-0.103,-0.022,-0.047,-0.099,-0.075,-0.03
-0.012,-0.085,-0.073,0.049,0.031,-0.079,-0.173,-0.029,-0.055,-0.101,-0.075,-0.029
-0.027,-0.087,-0.061,0.057,0.017,-0.074,-0.077,-0.05,-0.083,-0.109,-0.085,-0.044
-0.039,-0.105,-0.066,0.072,0.014,-0.085,0.014,-0.037,-0.084,-0.14,-0.106,-0.057
-0.053,-0.103,-0.05,0.078,-0.001,-0.076,-0.11,-0.051,-0.099,-0.126,-0.096,-0.057
-0.051,-0.108,-0.057,0.079,0.004,-0.082,-0.077,-0.025,-0.09,-0.134,-0.101,-0.067
-0.05,-0.102,-0.052,0.076,0.001,-0.077,0.032,-0.051,-0.099,-0.127,-0.093,-0.066
-0.055,-0.117,-0.062,0.086,0.003,-0.089,-0.039,-0.01,-0.067,-0.119,-0.093,-0.07
-0.046,-0.186,-0.141,0.116,0.048,-0.163,0.02,0.188,0.037,-0.138,-0.147,-0.11
0.031,-0.038,-0.068,0.004,0.049,-0.053,0.137,0.308,0.362,0.09,0.006,-0.013
0.247,0.481,0.234,-0.365,0.006,0.358,-0.307,-0.219,0.593,0.801,0.698,0.452
0.241,0.818,0.577,-0.53,-0.168,0.698,-0.826,-1.303,0.03,1.444,1.32,0.836
-0.008,0.447,0.454,-0.22,-0.231,0.45,-0.697,-1.533,-1.011,0.349,0.575,0.484
-0.217,-0.046,0.171,0.131,-0.194,0.062,-0.479,-1.15,-1.507,-1.018,-0.464,-0.082
-0.276,-0.169,0.107,0.223,-0.192,-0.031,-0.414,-0.748,-0.997,-0.78,-0.497,-0.242
-0.196,-0.132,0.065,0.164,-0.13,-0.033,-0.245,-0.349,-0.472,-0.438,-0.317,-0.193
-0.15,-0.103,0.047,0.126,-0.098,-0.028,-0.205,-0.184,-0.273,-0.297,-0.225,-0.129
-0.1,-0.101,-0.001,0.1,-0.049,-0.051,-0.336,-0.048,-0.074,-0.158,-0.162,-0.09
-0.053,-0.088,-0.035,0.071,-0.009,-0.061,-0.261,0.002,-0.024,-0.122,-0.13,-0.069
-0.038,-0.083,-0.045,0.061,0.004,-0.064,-0.147,0.036,0.018,-0.074,-0.107,-0.067
-0.028,-0.076,-0.048,0.053,0.01,-0.062,-0.286,0.055,0.045,-0.08,-0.11,-0.064
-0.011,-0.071,-0.06,0.041,0.025,-0.065,-0.287,0.045,0.05,-0.06,-0.096,-0.059
0.002,-0.066,-0.068,0.033,0.035,-0.067,-0.061,0.07,0.052,-0.059,-0.095,-0.057
0.0,-0.059,-0.059,0.03,0.03,-0.059,-0.053,0.075,0.048,-0.048,-0.084,-0.051
0.005,-0.056,-0.061,0.025,0.034,-0.058,-0.131,0.079,0.063,-0.043,-0.076,-0.044
0.005,-0.049,-0.054,0.022,0.03,-0.051,0.012,0.081,0.081,-0.036,-0.068,-0.034
0.013,-0.044,-0.057,0.016,0.035,-0.05,0.005,0.085,0.107,-0.019,-0.058,-0.027
0.027,-0.038,-0.065,0.006,0.046,-0.051,-0.111,0.095,0.128,0.008,-0.044,-0.013
0.029,-0.031,-0.06,0.001,0.045,-0.046,0.034,0.126,0.156,0.035,-0.022,0.007
0.03,-0.024,-0.054,-0.003,0.042,-0.039,-0.043,0.145,0.197,0.062,-0.002,0.022
0.052,0.003,-0.049,-0.027,0.05,-0.023,-0.106,0.158,0.246,0.103,0.025,0.04
0.071,0.031,-0.04,-0.051,0.055,-0.005,-0.012,0.189,0.313,0.15,0.06,0.065
0.086,0.055,-0.03,-0.07,0.058,0.012,-0.158,0.215,0.386,0.22,0.106,0.094
0.112,0.093,-0.019,-0.102,0.066,0.036,-0.083,0.237,0.449,0.282,0.155,0.133
0.138,0.126,-0.012,-0.132,0.074,0.057,-0.108,0.246,0.486,0.325,0.195,0.165
0.155,0.146,-0.009,-0.15,0.082,0.068,-0.205,0.24,0.481,0.351,0.216,0.185
0.164,0.153,-0.011,-0.158,0.087,0.071,-0.012,0.234,0.474,0.348,0.207,0.183
0.149,0.14,-0.009,-0.144,0.079,0.065,0.003,0.229,0.447,0.321,0.198,0.166
0.106,0.093,-0.012,-0.099,0.059,0.04,-0.121,0.222,0.371,0.26,0.16,0.148
0.072,0.049,-0.023,-0.06,0.047,0.013,-0.029,0.196,0.275,0.178,0.094,0.103
0.04,0.015,-0.026,-0.027,0.033,-0.005,0.145,0.155,0.173,0.098,0.044,0.054
0.016,-0.02,-0.036,0.002,0.027,-0.028,0.181,0.115,0.084,0.03,-0.009,0.017
0.003,-0.038,-0.041,0.018,0.022,-0.039,0.188,0.074,0.024,-0.017,-0.047,-0.004
-0.018,-0.051,-0.033,0.035,0.008,-0.042,0.074,0.047,-0.017,-0.051,-0.072,-0.012
-0.028,-0.06,-0.033,0.044,0.003,-0.046,0.011,0.033,-0.043,-0.069,-0.086,-0.026
-0.036,-0.063,-0.027,0.05,-0.004,-0.045,0.165,0.02,-0.055,-0.075,-0.093,-0.034
-0.042,-0.066,-0.024,0.054,-0.008,-0.045,0.153,0.014,-0.061,-0.083,-0.096,-0.035
-0.028,-0.065,-0.036,0.046,0.005,-0.05,-0.016,0.016,-0.066,-0.092,-0.095,-0.035
-0.025,-0.065,-0.04,0.045,0.008,-0.052,-0.007,0.012,-0.073,-0.1,-0.105,-0.039
-0.03,-0.065,-0.034,0.048,0.002,-0.05,0.163,0.01,-0.072,-0.099,-0.108,-0.04
-0.033,-0.065,-0.032,0.049,0.0,-0.048,0.11,0.01,-0.07,-0.101,-0.105,-0.039
-0.037,-0.065,-0.027,0.051,-0.005,-0.046,-0.049,0.014,-0.07,-0.105,-0.105,-0.034
-0.036,-0.06,-0.024,0.049,-0.006,-0.042,0.062,0.021,-0.065,-0.105,-0.105,-0.031
-0.039,-0.06,-0.021,0.05,-0.009,-0.04,0.152,0.026,-0.065,-0.103,-0.105,-0.028
-0.04,-0.059,-0.018,0.05,-0.011,-0.039,0.165,0.03,-0.064,-0.096,-0.105,-0.023
-0.04,-0.054,-0.015,0.048,-0.012,-0.035,0.035,0.029,-0.06,-0.089,-0.102,-0.02
-0.042,-0.056,-0.014,0.049,-0.014,-0.034,-0.049,0.032,-0.058,-0.083,-0.096,-0.016
-0.045,-0.052,-0.007,0.049,-0.018,-0.03,0.196,0.035,-0.055,-0.075,-0.091,-0.015
-0.031,-0.05,-0.019,0.04,-0.006,-0.034,0.31,0.035,-0.052,-0.071,-0.088,-0.015
-0.009,-0.05,-0.041,0.03,0.016,-0.046,0.321,0.031,-0.05,-0.074,-0.082,-0.015
-0.006,-0.046,-0.04,0.026,0.017,-0.043,0.196,0.025,-0.054,-0.077,-0.081,-0.015
-0.008,-0.044,-0.036,0.027,0.014,-0.04,0.127,0.02,-0.056,-0.081,-0.085,-0.016
-0.011,-0.045,-0.035,0.029,0.012,-0.04,0.299,0.014,-0.062,-0.084,-0.087,-0.022
-0.021,-0.051,-0.031,0.036,0.005,-0.041,0.334,0.009,-0.069,-0.088,-0.09,-0.028
-0.029,-0.057,-0.028,0.043,0.0,-0.042,0.339,0.003,-0.072,-0.092,-0.093,-0.034
-0.021,-0.06,-0.039,0.041,0.009,-0.049,0.37,0.0,-0.077,-0.097,-0.099,-0.032
-0.017,-0.06,-0.044,0.039,0.014,-0.052,0.243,-0.003,-0.08,-0.1,-0.102,-0.029
-0.025,-0.059,-0.035,0.042,0.005,-0.047,0.135,-0.005,-0.082,-0.095,-0.106,-0.03
-0.031,-0.063,-0.032,0.047,0.001,-0.047,0.266,-0.009,-0.085,-0.095,-0.11,-0.03
-0.041,-0.065,-0.024,0.054,-0.008,-0.045,0.336,-0.01,-0.088,-0.095,-0.109,-0.03
-0.045,-0.065,-0.02,0.055,-0.012,-0.042,0.343,-0.006,-0.092,-0.095,-0.112,-0.031
-0.026,-0.065,-0.039,0.046,0.007,-0.052,0.371,-0.004,-0.097,-0.094,-0.115,-0.035
-0.019,-0.065,-0.046,0.042,0.014,-0.055,0.349,-0.005,-0.1,-0.099,-0.115,-0.035
-0.027,-0.065,-0.038,0.046,0.006,-0.051,0.371,-0.005,-0.1,-0.114,-0.115,-0.039
-0.025,-0.063,-0.038,0.044,0.007,-0.05,0.24,-0.005,-0.1,-0.115,-0.115,-0.04
-0.027,-0.058,-0.032,0.043,0.002,-0.044,0.162,-0.004,-0.1,-0.114,-0.115,-0.036
-0.026,-0.055,-0.029,0.04,0.003,-0.042,0.288,0.008,-0.1,-0.115,-0.115,-0.035
-0.011,-0.052,-0.041,0.032,0.015,-0.046,0.327,0.012,-0.101,-0.115,-0.115,-0.035
-0.004,-0.047,-0.043,0.026,0.02,-0.045,0.353,0.009,-0.1,-0.115,-0.114,-0.035
-0.012,-0.045,-0.033,0.029,0.011,-0.039,0.357,0.007,-0.1,-0.107,-0.106,-0.035
-0.022,-0.05,-0.028,0.036,0.003,-0.038,0.367,0.006,-0.098,-0.102,-0.097,-0.035
-0.029,-0.05,-0.021,0.04,-0.004,-0.035,0.283,0.031,-0.072,-0.092,-0.09,-0.035
-0.043,-0.051,-0.008,0.047,-0.017,-0.029,0.17,0.054,-0.057,-0.077,-0.081,-0.035
-0.038,-0.056,-0.017,0.047,-0.01,-0.036,0.275,0.076,-0.065,-0.081,-0.084,-0.035
-0.004,-0.054,-0.05,0.029,0.023,-0.052,0.332,0.076,-0.066,-0.084,-0.09,-0.035
0.02,-0.059,-0.079,0.02,0.05,-0.069,0.29,0.034,-0.075,-0.095,-0.098,-0.035
0.016,-0.069,-0.085,0.026,0.051,-0.076,0.295,0.007,-0.102,-0.118,-0.114,-0.039
0.009,-0.063,-0.072,0.027,0.041,-0.067,0.249,-0.012,-0.106,-0.117,-0.114,-0.041
0.01,-0.064,-0.074,0.027,0.042,-0.069,-0.015,-0.017,-0.105,-0.123,-0.119,-0.046
0.004,-0.057,-0.061,0.027,0.033,-0.059,-0.09,-0.035,-0.113,-0.122,-0.119,-0.048
-0.011,-0.077,-0.066,0.044,0.027,-0.071,0.082,-0.033,-0.106,-0.127,-0.123,-0.052
-0.036,-0.09,-0.054,0.063,0.009,-0.072,0.102,-0.046,-0.122,-0.128,-0.124,-0.055
-0.039,-0.089,-0.05,0.064,0.005,-0.069,0.124,-0.036,-0.115,-0.129,-0.125,-0.058
-0.052,-0.094,-0.041,0.073,-0.005,-0.067,0.119,-0.04,-0.131,-0.142,-0.131,-0.064
-0.059,-0.082,-0.023,0.071,-0.018,-0.052,0.118,-0.037,-0.109,-0.125,-0.125,-0.059
-0.054,-0.159,-0.105,0.107,0.026,-0.132,0.194,0.141,-0.051,-0.161,-0.163,-0.1
-0.026,-0.114,-0.087,0.07,0.03,-0.1,0.181,0.339,0.196,-0.026,-0.111,-0.081
0.176,0.308,0.131,-0.242,0.022,0.219,-0.043,0.058,0.552,0.523,0.395,0.283
0.288,0.796,0.508,-0.542,-0.11,0.651,-0.421,-1.096,0.31,1.417,1.218,0.791
0.089,0.617,0.528,-0.353,-0.22,0.572,-0.456,-1.708,-0.629,0.945,0.924,0.678
-0.191,0.01,0.2,0.09,-0.196,0.105,-0.1,-1.356,-1.517,-0.743,-0.269,0.064
-0.306,-0.183,0.122,0.244,-0.214,-0.03,0.044,-0.951,-1.284,-0.954,-0.569,-0.226
-0.232,-0.135,0.097,0.184,-0.164,-0.019,0.011,-0.477,-0.624,-0.485,-0.354,-0.192
-0.15,-0.104,0.046,0.127,-0.098,-0.029,0.128,-0.224,-0.379,-0.346,-0.258,-0.129
-0.099,-0.082,0.018,0.09,-0.058,-0.032,0.221,-0.085,-0.17,-0.184,-0.17,-0.086
-0.079,-0.078,0.002,0.078,-0.04,-0.038,0.238,0.006,-0.089,-0.138,-0.136,-0.067
-0.069,-0.067,0.002,0.068,-0.035,-0.033,0.254,0.025,-0.053,-0.09,-0.101,-0.058
-0.055,-0.064,-0.009,0.06,-0.023,-0.036,0.266,0.058,-0.03,-0.091,-0.099,-0.053
-0.046,-0.055,-0.009,0.051,-0.019,-0.031,0.123,0.054,-0.027,-0.072,-0.094,-0.045
-0.034,-0.05,-0.016,0.043,-0.009,-0.033,0.029,0.072,-0.008,-0.061,-0.088,-0.04
-0.027,-0.045,-0.019,0.036,-0.004,-0.031,0.159,0.071,-0.006,-0.052,-0.086,-0.033
-0.009,-0.045,-0.036,0.027,0.014,-0.04,0.223,0.087,0.011,-0.038,-0.077,-0.028
-0.005,-0.045,-0.04,0.025,0.018,-0.042,0.228,0.101,0.026,-0.036,-0.071,-0.021
-0.011,-0.044,-0.034,0.028,0.012,-0.039,0.229,0.108,0.048,-0.02,-0.06,-0.014
-0.013,-0.046,-0.033,0.03,0.01,-0.039,0.191,0.127,0.067,-0.005,-0.048,-0.008
-0.014,-0.041,-0.027,0.028,0.007,-0.033,-0.039,0.142,0.1,0.027,-0.032,0.001
-0.005,-0.029,-0.025,0.017,0.01,-0.027,-0.165,0.163,0.138,0.048,-0.019,0.016
0.015,-0.004,-0.019,-0.005,0.017,-0.012,-0.039,0.195,0.192,0.091,0.003,0.038
0.034,0.021,-0.014,-0.027,0.023,0.003,-0.031,0.221,0.253,0.138,0.037,0.056
0.064,0.056,-0.008,-0.06,0.036,0.024,-0.042,0.249,0.323,0.194,0.082,0.088
0.098,0.096,-0.002,-0.097,0.05,0.046,-0.051,0.279,0.398,0.264,0.136,0.126
0.12,0.123,0.003,-0.122,0.058,0.063,-0.245,0.294,0.447,0.312,0.182,0.155
0.133,0.148,0.016,-0.141,0.058,0.082,-0.314,0.294,0.461,0.352,0.219,0.182
0.117,0.144,0.027,-0.13,0.044,0.085,-0.094,0.283,0.45,0.354,0.233,0.188
0.104,0.127,0.024,-0.116,0.04,0.075,0.042,0.276,0.437,0.332,0.223,0.185
0.096,0.108,0.012,-0.102,0.042,0.06,0.083,0.263,0.373,0.291,0.196,0.163
0.068,0.072,0.003,-0.07,0.032,0.037,0.165,0.24,0.272,0.214,0.143,0.12
0.033,0.03,-0.003,-0.031,0.017,0.013,0.176,0.193,0.163,0.13,0.083,0.074
0.0,-0.007,-0.007,0.003,0.004,-0.007,0.073,0.139,0.058,0.05,0.026,0.028
-0.015,-0.027,-0.012,0.021,-0.002,-0.019,0.141,0.101,-0.005,-0.001,-0.018,-0.001
-0.034,-0.051,-0.016,0.043,-0.009,-0.033,0.307,0.065,-0.05,-0.038,-0.046,-0.013
-0.045,-0.066,-0.021,0.055,-0.012,-0.043,0.319,0.049,-0.082,-0.061,-0.058,-0.021
-0.042,-0.067,-0.024,0.055,-0.009,-0.045,0.349,0.045,-0.092,-0.069,-0.063,-0.03
-0.046,-0.071,-0.025,0.059,-0.01,-0.048,0.353,0.04,-0.102,-0.081,-0.068,-0.039
-0.049,-0.074,-0.025,0.062,-0.012,-0.049,0.361,0.037,-0.113,-0.085,-0.071,-0.04
-0.052,-0.077,-0.025,0.065,-0.013,-0.051,0.295,0.031,-0.119,-0.087,-0.075,-0.04
-0.057,-0.082,-0.025,0.07,-0.016,-0.053,0.153,0.032,-0.12,-0.09,-0.074,-0.04
-0.059,-0.084,-0.025,0.072,-0.017,-0.055,0.258,0.037,-0.12,-0.095,-0.079,-0.04
-0.056,-0.081,-0.025,0.069,-0.015,-0.053,0.379,0.04,-0.12,-0.095,-0.084,-0.04
-0.053,-0.078,-0.025,0.066,-0.014,-0.051,0.377,0.044,-0.12,-0.09,-0.079,-0.038
-0.05,-0.076,-0.025,0.063,-0.012,-0.051,0.406,0.047,-0.12,-0.088,-0.073,-0.033
-0.048,-0.072,-0.025,0.061,-0.011,-0.048,0.391,0.051,-0.119,-0.083,-0.07,-0.03
-0.044,-0.069,-0.026,0.057,-0.009,-0.047,0.428,0.055,-0.106,-0.08,-0.065,-0.027
-0.044,-0.073,-0.029,0.058,-0.007,-0.05,0.363,0.053,-0.091,-0.076,-0.06,-0.022
-0.044,-0.075,-0.032,0.06,-0.005,-0.053,0.195,0.049,-0.088,-0.075,-0.064,-0.02
-0.04,-0.075,-0.035,0.058,-0.002,-0.055,0.283,0.05,-0.091,-0.075,-0.066,-0.025
-0.038,-0.075,-0.037,0.057,0.0,-0.056,0.375,0.046,-0.09,-0.071,-0.065,-0.025
-0.034,-0.075,-0.041,0.054,0.004,-0.057,0.373,0.045,-0.09,-0.069,-0.065,-0.026
-0.038,-0.075,-0.037,0.057,0.0,-0.056,0.394,0.045,-0.09,-0.072,-0.065,-0.031
-0.04,-0.075,-0.035,0.058,-0.002,-0.055,0.394,0.04,-0.091,-0.074,-0.065,-0.029
-0.045,-0.081,-0.035,0.063,-0.005,-0.058,0.399,0.037,-0.096,-0.078,-0.065,-0.033
-0.053,-0.088,-0.035,0.071,-0.009,-0.061,0.38,0.033,-0.099,-0.08,-0.065,-0.035
-0.062,-0.098,-0.036,0.08,-0.013,-0.066,0.246,0.03,-0.104,-0.084,-0.065,-0.035
-0.071,-0.105,-0.034,0.088,-0.018,-0.069,0.174,0.025,-0.105,-0.09,-0.069,-0.039
-0.062,-0.105,-0.043,0.084,-0.009,-0.073,0.308,0.025,-0.106,-0.09,-0.078,-0.04
-0.064,-0.105,-0.041,0.085,-0.011,-0.073,0.32,0.025,-0.11,-0.09,-0.084,-0.04
-0.058,-0.105,-0.047,0.082,-0.005,-0.076,0.256,0.025,-0.109,-0.09,-0.089,-0.04
-0.043,-0.105,-0.062,0.074,0.01,-0.083,0.258,0.025,-0.112,-0.09,-0.09,-0.04
-0.051,-0.108,-0.056,0.08,0.003,-0.081,0.235,0.025,-0.116,-0.09,-0.089,-0.04
-0.057,-0.11,-0.053,0.084,-0.002,-0.082,0.25,0.025,-0.114,-0.094,-0.091,-0.04
-0.06,-0.11,-0.049,0.085,-0.005,-0.08,0.186,0.025,-0.119,-0.095,-0.089,-0.04
-0.064,-0.11,-0.046,0.087,-0.009,-0.077,-0.001,0.025,-0.12,-0.096,-0.091,-0.04
-0.067,-0.11,-0.043,0.089,-0.012,-0.076,0.019,0.026,-0.121,-0.1,-0.083,-0.04
-0.048,-0.104,-0.056,0.076,0.004,-0.08,0.18,0.024,-0.124,-0.1,-0.087,-0.04
-0.035,-0.098,-0.063,0.066,0.015,-0.08,0.297,0.026,-0.126,-0.096,-0.084,-0.04
-0.039,-0.091,-0.052,0.065,0.007,-0.071,0.36,0.022,-0.123,-0.089,-0.084,-0.04
-0.039,-0.084,-0.045,0.062,0.003,-0.065,0.374,0.02,-0.116,-0.083,-0.089,-0.04
-0.04,-0.078,-0.037,0.059,-0.001,-0.057,0.419,0.038,-0.098,-0.075,-0.083,-0.034
-0.045,-0.076,-0.03,0.061,-0.007,-0.053,0.286,0.061,-0.072,-0.071,-0.12,-0.029
-0.059,-0.086,-0.027,0.073,-0.016,-0.056,0.247,0.077,-0.064,-0.076,-0.131,-0.023
-0.031,-0.089,-0.058,0.061,0.014,-0.073,0.367,0.081,-0.06,-0.081,-0.256,-0.019
-0.021,-0.123,-0.101,0.072,0.04,-0.112,0.349,0.065,-0.07,-0.084,-0.212,-0.011
0.002,-0.109,-0.112,0.054,0.057,-0.11,0.348,-0.019,-0.102,-0.094,0.004,-0.014
0.083,-0.024,-0.107,-0.029,0.095,-0.065,0.28,-0.054,-0.112,-0.091,0.003,-0.031
0.11,0.005,-0.105,-0.057,0.107,-0.049,0.206,-0.006,-0.102,-0.079,-0.004,-0.025
