-0.019,-0.075,-0.056,0.047,0.019,-0.065,0.1,-0.25,-0.141,-0.12,0.08,0.145
-0.025,-0.076,-0.052,0.051,0.014,-0.064,0.099,-0.249,-0.139,-0.119,0.079,0.145
-0.037,-0.08,-0.043,0.059,0.003,-0.061,0.096,-0.251,-0.148,-0.121,0.074,0.142
-0.037,-0.086,-0.05,0.062,0.007,-0.068,0.093,-0.25,-0.161,-0.119,0.071,0.138
-0.066,-0.088,-0.022,0.077,-0.022,-0.055,0.089,-0.251,-0.163,-0.119,0.066,0.136
-0.058,-0.078,-0.02,0.069,-0.019,-0.049,0.084,-0.276,-0.186,-0.139,0.065,0.134
-0.025,-0.071,-0.046,0.048,0.011,-0.059,0.086,-0.271,-0.181,-0.137,0.071,0.136
-0.03,-0.063,-0.033,0.047,0.002,-0.048,0.084,-0.284,-0.195,-0.131,0.077,0.133
-0.02,-0.055,-0.035,0.038,0.007,-0.044,0.085,-0.275,-0.183,-0.127,0.083,0.142
-0.025,-0.049,-0.025,0.037,0.0,-0.037,0.106,-0.247,-0.163,-0.122,0.085,0.164
-0.013,-0.035,-0.022,0.024,0.005,-0.028,0.116,-0.253,-0.187,-0.121,0.086,0.166
0.031,-0.031,-0.062,0.0,0.046,-0.046,0.073,-0.252,-0.182,-0.124,0.084,0.164
0.038,-0.017,-0.055,-0.011,0.047,-0.036,0.034,-0.28,-0.191,-0.131,0.085,0.161
0.025,-0.036,-0.061,0.006,0.044,-0.048,0.036,-0.284,-0.182,-0.126,0.086,0.159
-0.006,-0.053,-0.047,0.03,0.021,-0.05,0.033,-0.302,-0.201,-0.143,0.08,0.16
-0.007,-0.061,-0.055,0.034,0.024,-0.058,0.041,-0.286,-0.174,-0.128,0.066,0.143
-0.034,-0.085,-0.051,0.059,0.009,-0.068,0.037,-0.315,-0.218,-0.181,0.05,0.13
-0.058,-0.131,-0.073,0.095,0.008,-0.102,0.043,-0.289,-0.208,-0.171,0.062,0.129
-0.062,-0.142,-0.08,0.102,0.009,-0.111,0.043,-0.293,-0.215,-0.186,0.042,0.119
-0.084,-0.121,-0.038,0.103,-0.022,-0.079,0.051,-0.284,-0.201,-0.157,0.061,0.122
-0.081,-0.116,-0.035,0.099,-0.023,-0.075,0.074,-0.271,-0.197,-0.174,0.022,0.109
-0.187,0.172,0.359,0.007,-0.273,0.265,0.212,-0.314,-0.345,-0.328,-0.017,0.083
-0.013,0.295,0.308,-0.141,-0.161,0.301,0.374,0.592,0.552,0.328,0.411,0.316
0.627,0.686,0.059,-0.657,0.284,0.373,-0.108,0.865,1.791,2.037,1.808,1.279
0.964,0.838,-0.126,-0.901,0.545,0.356,-0.484,0.074,2.158,3.307,2.63,1.767
0.439,-0.041,-0.48,-0.199,0.46,-0.261,-0.048,-0.611,0.669,1.476,1.045,0.764
-0.214,-0.27,-0.056,0.242,-0.079,-0.163,0.206,-1.198,-1.079,-0.767,-0.326,-0.03
-0.293,-0.22,0.072,0.256,-0.182,-0.074,0.027,-0.965,-0.851,-0.661,-0.299,-0.086
-0.172,-0.264,-0.092,0.218,-0.04,-0.178,-0.035,-0.629,-0.531,-0.477,-0.237,-0.056
-0.08,-0.119,-0.039,0.1,-0.02,-0.079,0.067,-0.386,-0.324,-0.318,-0.081,0.015
-0.102,-0.12,-0.017,0.111,-0.042,-0.068,0.103,-0.202,-0.133,-0.187,-0.024,0.047
-0.104,-0.063,0.041,0.083,-0.072,-0.011,0.131,-0.191,-0.142,-0.183,0.008,0.088
-0.051,-0.065,-0.014,0.058,-0.018,-0.039,0.134,-0.114,-0.058,-0.114,0.045,0.092
-0.082,-0.049,0.032,0.065,-0.057,-0.008,0.11,-0.119,-0.08,-0.144,0.037,0.087
-0.065,-0.038,0.027,0.051,-0.046,-0.005,0.119,-0.077,-0.02,-0.092,0.061,0.094
-0.041,-0.032,0.009,0.037,-0.025,-0.011,0.113,-0.054,0.005,-0.076,0.067,0.108
-0.046,-0.01,0.036,0.028,-0.041,0.013,0.116,-0.026,0.035,-0.052,0.075,0.115
-0.053,-0.006,0.047,0.03,-0.05,0.02,0.115,0.018,0.079,-0.024,0.091,0.126
-0.032,0.022,0.054,0.005,-0.043,0.037,0.113,0.068,0.14,0.034,0.135,0.148
0.001,0.04,0.039,-0.021,-0.019,0.039,0.109,0.134,0.222,0.091,0.156,0.16
0.008,0.066,0.058,-0.038,-0.025,0.062,0.105,0.212,0.312,0.161,0.19,0.179
0.03,0.099,0.068,-0.065,-0.019,0.083,0.102,0.313,0.439,0.266,0.255,0.213
0.075,0.136,0.061,-0.106,0.007,0.098,0.097,0.411,0.569,0.378,0.332,0.268
0.118,0.172,0.054,-0.145,0.032,0.113,0.095,0.483,0.671,0.481,0.408,0.316
0.145,0.191,0.046,-0.168,0.049,0.118,0.09,0.513,0.723,0.538,0.448,0.346
0.146,0.185,0.039,-0.165,0.053,0.112,0.09,0.501,0.718,0.542,0.443,0.338
0.126,0.158,0.033,-0.142,0.046,0.095,0.089,0.448,0.662,0.516,0.432,0.326
0.098,0.127,0.029,-0.112,0.034,0.078,0.084,0.379,0.575,0.458,0.403,0.319
0.062,0.089,0.027,-0.076,0.017,0.058,0.086,0.277,0.437,0.345,0.333,0.28
0.031,0.055,0.024,-0.043,0.003,0.039,0.083,0.156,0.282,0.21,0.242,0.222
-0.001,0.02,0.021,-0.009,-0.011,0.02,0.076,0.043,0.148,0.095,0.16,0.174
-0.026,-0.006,0.02,0.016,-0.023,0.007,0.071,-0.049,0.027,0.01,0.108,0.14
-0.043,-0.03,0.013,0.036,-0.028,-0.008,0.066,-0.112,-0.053,-0.051,0.075,0.109
-0.058,-0.053,0.005,0.055,-0.032,-0.024,0.059,-0.166,-0.108,-0.102,0.04,0.088
-0.067,-0.067,-0.001,0.067,-0.033,-0.033,0.056,-0.194,-0.138,-0.131,0.017,0.075
-0.071,-0.08,-0.01,0.076,-0.031,-0.045,0.059,-0.211,-0.157,-0.147,-0.001,0.063
-0.061,-0.076,-0.015,0.068,-0.022,-0.045,0.062,-0.217,-0.176,-0.165,-0.03,0.06
-0.058,-0.084,-0.026,0.071,-0.015,-0.055,0.065,-0.211,-0.174,-0.164,-0.036,0.057
-0.058,-0.089,-0.03,0.074,-0.014,-0.059,0.067,-0.211,-0.171,-0.159,-0.027,0.054
-0.054,-0.077,-0.023,0.066,-0.015,-0.05,0.071,-0.203,-0.163,-0.155,-0.021,0.051
-0.054,-0.074,-0.019,0.064,-0.017,-0.046,0.067,-0.19,-0.148,-0.151,-0.014,0.049
-0.053,-0.065,-0.013,0.059,-0.02,-0.039,0.059,-0.181,-0.136,-0.143,-0.008,0.05
-0.052,-0.06,-0.007,0.056,-0.022,-0.033,0.053,-0.173,-0.125,-0.128,-0.001,0.049
-0.053,-0.056,-0.003,0.055,-0.025,-0.029,0.045,-0.17,-0.116,-0.117,0.006,0.052
-0.06,-0.053,0.007,0.056,-0.033,-0.023,0.037,-0.17,-0.115,-0.115,0.012,0.055
-0.064,-0.051,0.013,0.057,-0.038,-0.019,0.031,-0.17,-0.115,-0.115,0.019,0.055
-0.058,-0.047,0.011,0.053,-0.035,-0.017,0.025,-0.17,-0.111,-0.115,0.024,0.055
-0.053,-0.046,0.008,0.049,-0.03,-0.019,0.022,-0.17,-0.109,-0.115,0.021,0.055
-0.048,-0.042,0.006,0.044,-0.027,-0.018,0.019,-0.171,-0.112,-0.115,0.016,0.055
-0.042,-0.04,0.002,0.041,-0.022,-0.019,0.014,-0.18,-0.115,-0.119,0.014,0.053
-0.039,-0.04,0.0,0.04,-0.02,-0.02,0.011,-0.198,-0.134,-0.13,0.009,0.049
-0.042,-0.04,0.002,0.041,-0.022,-0.019,0.007,-0.207,-0.154,-0.137,0.006,0.051
-0.053,-0.04,0.013,0.046,-0.033,-0.013,0.004,-0.217,-0.16,-0.144,0.002,0.046
-0.062,-0.04,0.022,0.051,-0.042,-0.009,0.005,-0.229,-0.17,-0.156,-0.004,0.045
-0.074,-0.053,0.021,0.063,-0.047,-0.016,0.005,-0.236,-0.179,-0.16,-0.012,0.044
-0.079,-0.059,0.02,0.069,-0.049,-0.02,0.006,-0.239,-0.182,-0.162,-0.018,0.04
-0.069,-0.05,0.019,0.059,-0.044,-0.015,0.005,-0.233,-0.185,-0.165,-0.025,0.04
-0.057,-0.041,0.015,0.049,-0.036,-0.013,0.005,-0.229,-0.19,-0.166,-0.029,0.039
-0.049,-0.035,0.014,0.042,-0.031,-0.01,0.005,-0.222,-0.187,-0.165,-0.025,0.041
-0.044,-0.024,0.02,0.034,-0.032,-0.002,0.004,-0.222,-0.186,-0.166,-0.023,0.038
-0.046,-0.01,0.036,0.028,-0.04,0.012,0.009,-0.212,-0.175,-0.156,-0.018,0.048
-0.057,0.015,0.073,0.021,-0.065,0.044,0.014,-0.222,-0.18,-0.159,-0.018,0.047
-0.038,0.007,0.045,0.015,-0.042,0.026,0.027,-0.219,-0.164,-0.144,-0.007,0.045
-0.016,-0.007,0.009,0.011,-0.012,0.0,-0.013,-0.23,-0.162,-0.132,0.011,0.08
-0.016,0.015,0.031,0.0,-0.024,0.023,-0.057,-0.263,-0.195,-0.158,0.018,0.084
-0.02,-0.02,-0.001,0.02,-0.009,-0.011,-0.047,-0.238,-0.174,-0.177,0.006,0.071
-0.025,-0.055,-0.03,0.04,0.003,-0.042,-0.038,-0.232,-0.167,-0.178,0.005,0.07
-0.036,-0.078,-0.041,0.057,0.003,-0.06,-0.028,-0.219,-0.163,-0.165,-0.006,0.059
-0.062,-0.075,-0.013,0.069,-0.025,-0.043,-0.028,-0.259,-0.212,-0.2,-0.049,0.042
-0.067,-0.104,-0.038,0.086,-0.014,-0.07,-0.018,-0.241,-0.187,-0.185,-0.059,0.015
-0.09,-0.086,0.004,0.088,-0.046,-0.041,-0.021,-0.289,-0.239,-0.232,-0.077,0.014
-0.078,-0.108,-0.03,0.093,-0.024,-0.069,-0.002,-0.24,-0.177,-0.172,-0.047,0.018
-0.141,-0.01,0.131,0.075,-0.136,0.06,0.04,-0.293,-0.267,-0.268,-0.106,-0.008
-0.185,0.27,0.454,-0.043,-0.319,0.362,0.223,-0.05,-0.137,-0.242,-0.069,0.002
0.127,0.417,0.29,-0.272,-0.081,0.353,0.222,0.829,0.988,0.791,0.711,0.485
0.636,0.956,0.321,-0.796,0.157,0.638,-0.37,0.485,1.735,2.435,2.18,1.501
0.715,0.652,-0.062,-0.683,0.388,0.295,-0.462,-0.346,1.313,2.605,2.133,1.415
0.101,-0.15,-0.251,0.025,0.176,-0.2,0.009,-0.849,-0.303,0.287,0.272,0.273
-0.289,-0.13,0.159,0.209,-0.224,0.014,0.039,-1.074,-1.078,-0.899,-0.449,-0.178
-0.224,-0.239,-0.015,0.232,-0.104,-0.127,-0.085,-0.721,-0.617,-0.529,-0.304,-0.173
-0.171,-0.182,-0.01,0.176,-0.08,-0.095,-0.037,-0.473,-0.431,-0.447,-0.252,-0.119
-0.125,-0.075,0.05,0.099,-0.087,-0.012,0.028,-0.227,-0.183,-0.24,-0.117,-0.045
-0.105,-0.077,0.027,0.091,-0.066,-0.025,0.049,-0.144,-0.126,-0.221,-0.115,-0.03
-0.077,-0.026,0.05,0.051,-0.063,0.012,0.061,-0.121,-0.092,-0.173,-0.056,0.003
-0.1,-0.048,0.052,0.074,-0.076,0.002,0.06,-0.072,-0.044,-0.146,-0.056,0.002
-0.117,-0.023,0.095,0.07,-0.106,0.036,0.059,-0.067,-0.04,-0.138,-0.048,0.016
-0.102,-0.032,0.071,0.067,-0.086,0.019,0.061,-0.02,0.01,-0.087,-0.022,0.022
-0.092,-0.006,0.086,0.049,-0.089,0.039,0.059,-0.015,0.025,-0.092,-0.001,0.029
-0.072,0.005,0.077,0.033,-0.074,0.041,0.063,0.021,0.074,-0.048,0.023,0.038
-0.068,0.014,0.082,0.027,-0.075,0.048,0.069,0.067,0.109,-0.016,0.028,0.047
-0.032,0.038,0.07,-0.003,-0.051,0.054,0.075,0.12,0.178,0.036,0.061,0.067
-0.022,0.062,0.083,-0.02,-0.053,0.072,0.07,0.184,0.259,0.095,0.102,0.087
-0.008,0.102,0.11,-0.048,-0.059,0.106,0.066,0.274,0.366,0.181,0.149,0.109
0.027,0.129,0.102,-0.078,-0.038,0.115,0.064,0.374,0.484,0.273,0.203,0.143
0.054,0.16,0.106,-0.108,-0.026,0.133,0.059,0.462,0.599,0.374,0.279,0.192
0.092,0.197,0.104,-0.145,-0.006,0.15,0.056,0.516,0.683,0.466,0.345,0.241
0.082,0.197,0.116,-0.14,-0.018,0.156,0.053,0.517,0.706,0.505,0.379,0.264
0.085,0.19,0.104,-0.138,-0.01,0.147,0.048,0.498,0.686,0.5,0.37,0.264
0.098,0.186,0.088,-0.142,0.005,0.137,0.042,0.463,0.635,0.465,0.353,0.268
0.072,0.161,0.089,-0.117,-0.009,0.125,0.039,0.384,0.536,0.389,0.322,0.243
0.04,0.123,0.083,-0.082,-0.021,0.102,0.033,0.27,0.39,0.267,0.239,0.19
0.005,0.087,0.082,-0.046,-0.039,0.084,0.031,0.167,0.252,0.151,0.165,0.144
-0.029,0.045,0.074,-0.008,-0.051,0.059,0.035,0.07,0.132,0.061,0.113,0.098
-0.036,0.009,0.045,0.014,-0.041,0.026,0.03,-0.016,0.028,-0.021,0.056,0.054
-0.035,-0.007,0.029,0.021,-0.032,0.011,0.022,-0.077,-0.039,-0.087,0.006,0.019
-0.053,-0.028,0.026,0.04,-0.039,-0.001,0.016,-0.124,-0.084,-0.129,-0.027,0.004
-0.054,-0.034,0.02,0.044,-0.036,-0.007,0.007,-0.15,-0.115,-0.156,-0.049,0.0
-0.063,-0.045,0.017,0.054,-0.039,-0.014,0.002,-0.163,-0.136,-0.172,-0.065,-0.008
-0.073,-0.063,0.01,0.068,-0.041,-0.026,0.005,-0.16,-0.14,-0.181,-0.074,-0.016
-0.069,-0.055,0.014,0.062,-0.041,-0.02,0.012,-0.153,-0.132,-0.188,-0.076,-0.021
-0.087,-0.056,0.031,0.071,-0.059,-0.012,0.016,-0.148,-0.129,-0.187,-0.077,-0.038
-0.095,-0.065,0.029,0.08,-0.062,-0.018,0.022,-0.141,-0.124,-0.178,-0.073,-0.045
-0.081,-0.063,0.019,0.072,-0.05,-0.022,0.028,-0.123,-0.109,-0.17,-0.067,-0.037
-0.072,-0.058,0.013,0.065,-0.042,-0.022,0.027,-0.109,-0.088,-0.161,-0.064,-0.033
-0.057,-0.055,0.002,0.056,-0.029,-0.026,0.019,-0.111,-0.083,-0.149,-0.058,-0.026
-0.053,-0.046,0.007,0.049,-0.029,-0.019,0.013,-0.108,-0.077,-0.135,-0.055,-0.021
-0.07,-0.031,0.039,0.05,-0.054,0.004,0.005,-0.106,-0.075,-0.123,-0.055,-0.016
-0.065,-0.013,0.052,0.039,-0.058,0.019,-0.003,-0.104,-0.068,-0.119,-0.055,-0.015
-0.059,-0.01,0.049,0.035,-0.054,0.019,-0.009,-0.108,-0.066,-0.121,-0.055,-0.015
-0.072,-0.021,0.051,0.047,-0.061,0.014,-0.014,-0.117,-0.079,-0.119,-0.055,-0.011
-0.074,-0.025,0.049,0.05,-0.061,0.012,-0.017,-0.126,-0.088,-0.121,-0.055,-0.01
-0.076,-0.025,0.051,0.05,-0.063,0.012,-0.02,-0.145,-0.106,-0.138,-0.057,-0.011
-0.072,-0.025,0.047,0.048,-0.059,0.011,-0.023,-0.153,-0.117,-0.151,-0.06,-0.017
-0.069,-0.025,0.044,0.047,-0.056,0.01,-0.025,-0.162,-0.131,-0.157,-0.06,-0.023
-0.07,-0.025,0.046,0.047,-0.058,0.01,-0.027,-0.166,-0.145,-0.164,-0.06,-0.027
-0.066,-0.026,0.041,0.046,-0.053,0.007,-0.031,-0.176,-0.158,-0.169,-0.07,-0.034
-0.069,-0.029,0.04,0.049,-0.055,0.005,-0.03,-0.194,-0.167,-0.18,-0.084,-0.039
-0.072,-0.033,0.04,0.052,-0.056,0.003,-0.03,-0.197,-0.164,-0.185,-0.087,-0.037
-0.074,-0.039,0.035,0.056,-0.054,-0.002,-0.03,-0.2,-0.169,-0.184,-0.085,-0.034
-0.071,-0.041,0.03,0.056,-0.051,-0.005,-0.031,-0.203,-0.17,-0.188,-0.084,-0.035
-0.063,-0.038,0.025,0.05,-0.044,-0.006,-0.035,-0.206,-0.17,-0.19,-0.08,-0.035
-0.072,-0.049,0.023,0.06,-0.047,-0.013,-0.035,-0.21,-0.176,-0.19,-0.08,-0.035
-0.07,-0.056,0.014,0.063,-0.041,-0.021,-0.038,-0.21,-0.184,-0.187,-0.093,-0.037
-0.077,-0.05,0.026,0.063,-0.052,-0.012,-0.04,-0.204,-0.183,-0.185,-0.102,-0.041
-0.09,-0.048,0.042,0.069,-0.066,-0.003,-0.038,-0.198,-0.18,-0.186,-0.105,-0.045
-0.082,-0.043,0.039,0.063,-0.06,-0.002,-0.032,-0.19,-0.175,-0.184,-0.101,-0.042
-0.081,-0.04,0.04,0.061,-0.061,0.0,-0.029,-0.185,-0.173,-0.186,-0.094,-0.036
-0.073,-0.034,0.04,0.053,-0.056,0.003,-0.024,-0.177,-0.169,-0.183,-0.088,-0.031
-0.083,-0.022,0.061,0.053,-0.072,0.019,-0.02,-0.171,-0.158,-0.179,-0.085,-0.028
-0.076,-0.008,0.068,0.042,-0.072,0.03,-0.008,-0.172,-0.142,-0.174,-0.08,-0.022
-0.051,-0.005,0.046,0.028,-0.048,0.021,-0.014,-0.165,-0.126,-0.167,-0.078,-0.02
-0.033,0.007,0.04,0.013,-0.037,0.024,-0.068,-0.206,-0.154,-0.169,-0.074,-0.02
-0.006,-0.004,0.003,0.005,-0.005,-0.001,-0.079,-0.216,-0.149,-0.153,-0.067,-0.02
-0.01,-0.02,-0.01,0.015,0.0,-0.015,-0.071,-0.226,-0.163,-0.173,-0.078,-0.021
-0.004,-0.029,-0.024,0.017,0.01,-0.026,-0.064,-0.214,-0.145,-0.154,-0.072,-0.017
-0.047,-0.051,-0.004,0.049,-0.021,-0.027,-0.058,-0.224,-0.177,-0.191,-0.114,-0.042
-0.078,-0.082,-0.004,0.08,-0.036,-0.043,-0.053,-0.221,-0.18,-0.199,-0.122,-0.07
-0.065,-0.108,-0.044,0.086,-0.01,-0.076,-0.047,-0.209,-0.176,-0.205,-0.128,-0.071
-0.073,-0.061,0.013,0.067,-0.043,-0.024,-0.047,-0.226,-0.216,-0.221,-0.125,-0.069
-0.069,-0.089,-0.02,0.079,-0.025,-0.054,-0.012,-0.166,-0.152,-0.179,-0.116,-0.085
-0.184,0.162,0.346,0.011,-0.266,0.254,0.092,-0.246,-0.291,-0.337,-0.193,-0.099
-0.085,0.34,0.426,-0.128,-0.256,0.383,0.255,0.466,0.393,0.144,0.125,0.065
0.444,0.668,0.224,-0.556,0.11,0.446,-0.096,0.832,1.417,1.549,1.357,0.921
0.814,0.997,0.183,-0.906,0.315,0.59,-0.565,-0.028,1.591,2.791,2.395,1.602
0.459,0.187,-0.272,-0.323,0.366,-0.042,-0.246,-0.608,0.552,1.568,1.181,0.793
-0.145,-0.197,-0.053,0.171,-0.046,-0.125,0.078,-1.009,-0.905,-0.614,-0.367,-0.123
-0.284,-0.157,0.127,0.22,-0.205,-0.015,-0.05,-0.903,-0.858,-0.717,-0.44,-0.261
-0.203,-0.261,-0.058,0.232,-0.072,-0.159,-0.117,-0.548,-0.483,-0.464,-0.361,-0.235
-0.135,-0.11,0.025,0.123,-0.08,-0.043,-0.033,-0.311,-0.298,-0.332,-0.234,-0.138
-0.105,-0.097,0.007,0.101,-0.056,-0.045,0.003,-0.116,-0.099,-0.172,-0.164,-0.108
-0.118,-0.036,0.083,0.077,-0.1,0.024,0.018,-0.099,-0.103,-0.186,-0.158,-0.089
-0.106,-0.029,0.078,0.067,-0.092,0.024,0.039,-0.043,-0.035,-0.114,-0.11,-0.069
-0.089,-0.02,0.069,0.054,-0.079,0.024,0.032,-0.039,-0.042,-0.129,-0.121,-0.068
-0.077,-0.003,0.074,0.04,-0.076,0.035,0.038,-0.019,-0.003,-0.082,-0.087,-0.054
-0.063,-0.005,0.058,0.034,-0.06,0.026,0.039,0.012,0.022,-0.077,-0.085,-0.054
-0.05,0.014,0.064,0.018,-0.057,0.039,0.041,0.05,0.068,-0.025,-0.051,-0.04
-0.047,0.024,0.071,0.011,-0.059,0.048,0.038,0.077,0.1,0.008,-0.03,-0.035
-0.038,0.053,0.09,-0.008,-0.064,0.071,0.033,0.119,0.145,0.028,-0.017,-0.017
-0.034,0.048,0.082,-0.008,-0.058,0.065,0.03,0.192,0.231,0.095,0.008,0.014
-0.008,0.078,0.086,-0.036,-0.047,0.082,0.026,0.263,0.311,0.154,0.053,0.033
0.042,0.121,0.079,-0.081,-0.019,0.1,0.023,0.357,0.426,0.246,0.112,0.062
0.079,0.152,0.073,-0.116,0.002,0.112,0.019,0.45,0.542,0.344,0.17,0.097
0.114,0.183,0.069,-0.149,0.022,0.126,0.016,0.529,0.653,0.447,0.244,0.14
0.15,0.212,0.062,-0.181,0.044,0.137,0.011,0.567,0.708,0.52,0.299,0.182
0.161,0.219,0.058,-0.191,0.052,0.138,0.009,0.573,0.719,0.533,0.305,0.191
0.145,0.197,0.052,-0.171,0.046,0.124,0.005,0.537,0.69,0.518,0.292,0.179
0.129,0.178,0.048,-0.154,0.04,0.113,0.0,0.463,0.611,0.47,0.273,0.169
0.101,0.146,0.045,-0.124,0.028,0.095,0.003,0.376,0.504,0.388,0.225,0.151
0.062,0.104,0.042,-0.083,0.01,0.073,0.005,0.266,0.36,0.273,0.161,0.103
0.029,0.067,0.037,-0.048,-0.004,0.052,0.008,0.157,0.219,0.153,0.086,0.054
0.0,0.034,0.034,-0.017,-0.018,0.034,0.01,0.057,0.102,0.061,0.012,0.008
-0.022,0.008,0.03,0.007,-0.026,0.018,0.004,-0.033,0.005,-0.028,-0.055,-0.04
-0.036,-0.012,0.023,0.024,-0.029,0.005,-0.001,-0.089,-0.061,-0.082,-0.088,-0.051
-0.051,-0.033,0.018,0.042,-0.034,-0.007,-0.006,-0.123,-0.1,-0.103,-0.095,-0.053
-0.057,-0.045,0.012,0.051,-0.034,-0.016,-0.012,-0.14,-0.121,-0.126,-0.119,-0.07
-0.055,-0.047,0.007,0.051,-0.031,-0.02,-0.018,-0.137,-0.134,-0.134,-0.127,-0.08
-0.073,-0.068,0.005,0.07,-0.038,-0.032,-0.018,-0.133,-0.137,-0.145,-0.129,-0.088
-0.082,-0.08,0.002,0.081,-0.041,-0.039,-0.013,-0.13,-0.129,-0.147,-0.141,-0.094
-0.072,-0.073,-0.001,0.073,-0.035,-0.037,-0.01,-0.126,-0.121,-0.139,-0.14,-0.091
-0.063,-0.068,-0.005,0.066,-0.029,-0.036,-0.007,-0.122,-0.113,-0.136,-0.133,-0.085
-0.058,-0.062,-0.005,0.061,-0.026,-0.033,-0.002,-0.113,-0.107,-0.129,-0.128,-0.08
-0.057,-0.057,-0.001,0.057,-0.028,-0.029,0.0,-0.103,-0.087,-0.124,-0.122,-0.075
-0.053,-0.049,0.004,0.05,-0.028,-0.022,-0.005,-0.093,-0.066,-0.119,-0.118,-0.068
-0.049,-0.043,0.006,0.045,-0.027,-0.018,-0.009,-0.094,-0.065,-0.114,-0.112,-0.066
-0.047,-0.036,0.011,0.041,-0.029,-0.012,-0.011,-0.095,-0.066,-0.111,-0.109,-0.07
-0.044,-0.03,0.014,0.037,-0.029,-0.008,-0.016,-0.099,-0.065,-0.107,-0.104,-0.07
-0.049,-0.03,0.019,0.039,-0.034,-0.005,-0.019,-0.101,-0.066,-0.104,-0.1,-0.07
-0.061,-0.03,0.031,0.045,-0.046,0.001,-0.023,-0.102,-0.072,-0.099,-0.105,-0.07
-0.06,-0.03,0.03,0.045,-0.045,0.0,-0.025,-0.117,-0.082,-0.105,-0.105,-0.07
-0.053,-0.03,0.023,0.041,-0.038,-0.003,-0.025,-0.125,-0.096,-0.115,-0.105,-0.073
-0.052,-0.032,0.019,0.042,-0.035,-0.006,-0.025,-0.149,-0.116,-0.114,-0.105,-0.076
-0.052,-0.039,0.012,0.045,-0.032,-0.013,-0.025,-0.169,-0.124,-0.126,-0.105,-0.079
-0.053,-0.045,0.008,0.048,-0.03,-0.018,-0.03,-0.169,-0.134,-0.137,-0.125,-0.082
-0.054,-0.052,0.002,0.053,-0.028,-0.024,-0.035,-0.176,-0.148,-0.14,-0.137,-0.084
-0.055,-0.056,-0.001,0.055,-0.027,-0.028,-0.038,-0.17,-0.151,-0.144,-0.137,-0.086
-0.055,-0.054,0.001,0.055,-0.028,-0.026,-0.042,-0.182,-0.154,-0.149,-0.142,-0.089
-0.054,-0.055,-0.001,0.055,-0.026,-0.028,-0.046,-0.193,-0.156,-0.156,-0.145,-0.09
-0.056,-0.055,0.001,0.055,-0.028,-0.026,-0.049,-0.186,-0.165,-0.162,-0.141,-0.093
-0.052,-0.055,-0.003,0.054,-0.024,-0.029,-0.053,-0.186,-0.171,-0.165,-0.14,-0.096
-0.047,-0.065,-0.018,0.056,-0.015,-0.041,-0.055,-0.18,-0.169,-0.165,-0.14,-0.095
-0.055,-0.067,-0.012,0.061,-0.021,-0.039,-0.05,-0.181,-0.17,-0.167,-0.135,-0.095
-0.066,-0.064,0.001,0.065,-0.033,-0.031,-0.05,-0.169,-0.17,-0.17,-0.135,-0.095
-0.071,-0.065,0.007,0.068,-0.039,-0.029,-0.049,-0.143,-0.171,-0.171,-0.137,-0.094
-0.062,-0.06,0.002,0.061,-0.032,-0.028,-0.044,-0.133,-0.166,-0.167,-0.143,-0.091
-0.052,-0.061,-0.008,0.057,-0.022,-0.034,-0.045,-0.133,-0.166,-0.16,-0.142,-0.088
-0.051,-0.057,-0.006,0.054,-0.022,-0.031,-0.047,-0.126,-0.164,-0.155,-0.134,-0.085
-0.038,-0.044,-0.005,0.042,-0.016,-0.024,-0.051,-0.128,-0.166,-0.149,-0.13,-0.082
-0.031,-0.033,-0.003,0.032,-0.014,-0.018,-0.049,-0.109,-0.163,-0.143,-0.123,-0.079
-0.04,-0.018,0.021,0.029,-0.03,0.002,-0.05,-0.074,-0.139,-0.138,-0.119,-0.077
-0.057,-0.02,0.037,0.038,-0.047,0.009,-0.05,-0.08,-0.122,-0.136,-0.115,-0.072
-0.055,-0.049,0.007,0.052,-0.031,-0.021,-0.05,-0.078,-0.111,-0.132,-0.114,-0.07
-0.034,-0.042,-0.009,0.038,-0.012,-0.025,-0.077,-0.107,-0.144,-0.14,-0.117,-0.065
-0.011,-0.046,-0.035,0.028,0.012,-0.04,-0.079,-0.112,-0.14,-0.128,-0.112,-0.061
0.008,-0.05,-0.058,0.022,0.033,-0.054,-0.071,-0.119,-0.151,-0.143,-0.12,-0.062
0.005,-0.045,-0.049,0.02,0.027,-0.047,-0.061,-0.112,-0.133,-0.126,-0.105,-0.062
-0.041,-0.076,-0.035,0.059,-0.003,-0.055,-0.054,-0.114,-0.149,-0.152,-0.132,-0.084
-0.064,-0.096,-0.033,0.08,-0.015,-0.064,-0.052,-0.122,-0.186,-0.174,-0.151,-0.1
-0.048,-0.12,-0.072,0.084,0.013,-0.096,-0.054,-0.096,-0.165,-0.168,-0.156,-0.11
-0.05,-0.079,-0.029,0.065,-0.01,-0.054,-0.058,-0.136,-0.196,-0.193,-0.162,-0.108
-0.061,-0.122,-0.061,0.092,0.0,-0.091,-0.021,-0.065,-0.119,-0.14,-0.149,-0.112
-0.173,0.093,0.267,0.04,-0.22,0.18,0.065,-0.156,-0.277,-0.293,-0.204,-0.124
-0.103,0.294,0.397,-0.096,-0.25,0.345,0.265,0.488,0.282,0.067,0.027,-0.015
0.412,0.557,0.144,-0.485,0.134,0.35,-0.016,1.04,1.384,1.382,1.127,0.739
0.872,0.973,0.101,-0.922,0.385,0.536,-0.554,0.267,1.811,2.862,2.353,1.567
0.608,0.257,-0.351,-0.432,0.479,-0.047,-0.303,-0.392,0.958,2.024,1.418,0.912
-0.077,-0.225,-0.149,0.151,0.036,-0.187,0.104,-0.9,-0.734,-0.382,-0.282,-0.108
-0.285,-0.168,0.117,0.226,-0.201,-0.025,0.003,-0.876,-0.914,-0.75,-0.502,-0.301
-0.19,-0.306,-0.116,0.248,-0.037,-0.211,-0.127,-0.492,-0.499,-0.452,-0.405,-0.289
-0.142,-0.15,-0.008,0.146,-0.066,-0.079,-0.036,-0.256,-0.335,-0.354,-0.295,-0.202
-0.091,-0.121,-0.03,0.106,-0.031,-0.075,0.02,-0.029,-0.098,-0.174,-0.204,-0.157
-0.076,-0.078,-0.002,0.077,-0.037,-0.039,0.031,0.0,-0.084,-0.196,-0.187,-0.136
-0.056,-0.053,0.003,0.054,-0.029,-0.025,0.051,0.071,-0.01,-0.103,-0.135,-0.11
-0.082,-0.059,0.023,0.07,-0.052,-0.017,0.034,0.077,-0.033,-0.105,-0.148,-0.111
-0.091,-0.031,0.059,0.061,-0.075,0.014,0.037,0.099,-0.002,-0.066,-0.115,-0.095
-0.069,-0.035,0.033,0.052,-0.051,-0.001,0.029,0.136,0.039,-0.054,-0.116,-0.093
-0.061,-0.007,0.054,0.034,-0.057,0.023,0.026,0.156,0.065,-0.031,-0.097,-0.078
-0.043,-0.004,0.039,0.023,-0.041,0.018,0.034,0.2,0.112,0.008,-0.076,-0.071
-0.033,0.015,0.048,0.008,-0.04,0.031,0.035,0.24,0.158,0.041,-0.047,-0.058
-0.022,0.031,0.054,-0.005,-0.038,0.042,0.035,0.307,0.232,0.087,-0.009,-0.036
0.002,0.061,0.059,-0.032,-0.028,0.06,0.035,0.383,0.312,0.135,0.027,-0.013
0.035,0.089,0.055,-0.063,-0.01,0.072,0.035,0.485,0.431,0.239,0.086,0.018
0.062,0.113,0.051,-0.087,0.005,0.081,0.035,0.585,0.557,0.34,0.152,0.062
0.102,0.151,0.05,-0.127,0.026,0.1,0.029,0.672,0.665,0.44,0.219,0.107
0.134,0.179,0.045,-0.157,0.044,0.112,0.024,0.716,0.738,0.518,0.279,0.143
0.135,0.18,0.045,-0.158,0.045,0.112,0.019,0.713,0.751,0.527,0.288,0.159
0.141,0.181,0.04,-0.161,0.05,0.11,0.013,0.695,0.724,0.514,0.274,0.151
0.132,0.166,0.035,-0.149,0.048,0.1,0.007,0.634,0.663,0.484,0.258,0.148
0.094,0.124,0.03,-0.109,0.032,0.077,0.002,0.535,0.547,0.397,0.212,0.126
0.06,0.086,0.026,-0.073,0.017,0.056,0.0,0.424,0.403,0.284,0.144,0.073
0.024,0.046,0.021,-0.035,0.001,0.033,-0.003,0.305,0.261,0.171,0.073,0.02
-0.013,0.005,0.017,0.004,-0.015,0.011,-0.006,0.2,0.137,0.076,0.013,-0.016
-0.039,-0.024,0.015,0.03,-0.026,-0.004,-0.009,0.108,0.037,-0.002,-0.044,-0.04
-0.051,-0.039,0.011,0.045,-0.031,-0.014,-0.011,0.04,-0.038,-0.066,-0.085,-0.072
-0.061,-0.051,0.01,0.056,-0.035,-0.021,-0.014,0.001,-0.086,-0.108,-0.124,-0.097
-0.077,-0.076,0.001,0.077,-0.039,-0.038,-0.019,-0.022,-0.106,-0.118,-0.143,-0.1
-0.085,-0.095,-0.01,0.09,-0.037,-0.052,-0.018,-0.038,-0.122,-0.128,-0.139,-0.1
-0.071,-0.094,-0.023,0.083,-0.023,-0.059,-0.015,-0.042,-0.123,-0.148,-0.145,-0.108
-0.068,-0.096,-0.028,0.082,-0.02,-0.061,-0.015,-0.032,-0.115,-0.148,-0.145,-0.111
-0.075,-0.099,-0.024,0.088,-0.025,-0.061,-0.011,-0.026,-0.112,-0.14,-0.141,-0.109
-0.075,-0.1,-0.026,0.088,-0.024,-0.063,-0.01,-0.019,-0.104,-0.132,-0.135,-0.11
-0.078,-0.099,-0.02,0.089,-0.029,-0.059,-0.01,-0.004,-0.101,-0.124,-0.13,-0.11
-0.069,-0.09,-0.021,0.08,-0.024,-0.056,-0.01,0.011,-0.083,-0.117,-0.125,-0.11
-0.063,-0.08,-0.017,0.072,-0.023,-0.048,-0.01,0.018,-0.066,-0.109,-0.118,-0.106
-0.048,-0.07,-0.023,0.059,-0.012,-0.046,-0.01,0.028,-0.065,-0.101,-0.114,-0.101
-0.026,-0.061,-0.035,0.044,0.005,-0.048,-0.01,0.033,-0.065,-0.093,-0.109,-0.096
-0.035,-0.06,-0.025,0.048,-0.005,-0.042,-0.01,0.023,-0.065,-0.086,-0.106,-0.093
-0.041,-0.06,-0.019,0.05,-0.011,-0.039,-0.012,0.011,-0.065,-0.09,-0.103,-0.087
-0.042,-0.055,-0.013,0.049,-0.014,-0.034,-0.019,0.0,-0.065,-0.09,-0.098,-0.086
-0.05,-0.055,-0.005,0.053,-0.022,-0.03,-0.026,-0.012,-0.072,-0.093,-0.095,-0.091
-0.061,-0.056,0.005,0.059,-0.033,-0.025,-0.032,-0.03,-0.088,-0.112,-0.099,-0.095
-0.07,-0.062,0.008,0.066,-0.039,-0.027,-0.039,-0.043,-0.103,-0.121,-0.113,-0.1
-0.058,-0.069,-0.011,0.063,-0.023,-0.04,-0.045,-0.067,-0.126,-0.143,-0.121,-0.1
-0.048,-0.074,-0.026,0.061,-0.011,-0.05,-0.045,-0.082,-0.142,-0.163,-0.12,-0.1
-0.056,-0.081,-0.025,0.069,-0.015,-0.053,-0.045,-0.08,-0.139,-0.158,-0.119,-0.1
-0.062,-0.086,-0.025,0.075,-0.018,-0.055,-0.045,-0.085,-0.141,-0.163,-0.123,-0.1
-0.065,-0.09,-0.025,0.078,-0.02,-0.057,-0.045,-0.085,-0.153,-0.165,-0.138,-0.1
-0.065,-0.09,-0.025,0.078,-0.02,-0.057,-0.042,-0.085,-0.161,-0.164,-0.141,-0.101
-0.069,-0.09,-0.021,0.079,-0.024,-0.055,-0.04,-0.085,-0.16,-0.169,-0.139,-0.105
-0.07,-0.09,-0.02,0.08,-0.025,-0.055,-0.04,-0.086,-0.158,-0.17,-0.141,-0.108
-0.075,-0.09,-0.015,0.083,-0.03,-0.052,-0.036,-0.094,-0.155,-0.17,-0.139,-0.112
-0.079,-0.094,-0.015,0.087,-0.032,-0.054,-0.035,-0.095,-0.155,-0.169,-0.142,-0.113
-0.087,-0.095,-0.008,0.091,-0.039,-0.051,-0.035,-0.094,-0.159,-0.165,-0.145,-0.124
-0.082,-0.095,-0.013,0.089,-0.034,-0.054,-0.035,-0.097,-0.16,-0.165,-0.145,-0.129
-0.059,-0.099,-0.04,0.079,-0.009,-0.07,-0.035,-0.099,-0.163,-0.165,-0.145,-0.12
-0.055,-0.101,-0.046,0.078,-0.005,-0.073,-0.035,-0.103,-0.165,-0.165,-0.145,-0.114
-0.056,-0.098,-0.042,0.077,-0.007,-0.07,-0.035,-0.105,-0.166,-0.165,-0.145,-0.107
-0.071,-0.096,-0.025,0.083,-0.022,-0.06,-0.035,-0.109,-0.171,-0.162,-0.142,-0.101
-0.054,-0.092,-0.038,0.074,-0.008,-0.065,-0.032,-0.11,-0.17,-0.16,-0.14,-0.097
-0.035,-0.09,-0.055,0.063,0.01,-0.073,-0.026,-0.107,-0.171,-0.161,-0.137,-0.093
-0.048,-0.085,-0.037,0.067,-0.005,-0.061,-0.021,-0.101,-0.169,-0.16,-0.133,-0.089
-0.055,-0.086,-0.032,0.071,-0.011,-0.059,-0.016,-0.097,-0.17,-0.16,-0.13,-0.086
-0.052,-0.07,-0.018,0.061,-0.016,-0.044,-0.01,-0.095,-0.164,-0.159,-0.128,-0.08
-0.021,-0.032,-0.011,0.027,-0.004,-0.022,-0.005,-0.08,-0.145,-0.149,-0.125,-0.082
-0.025,-0.026,-0.001,0.026,-0.012,-0.013,-0.001,-0.075,-0.14,-0.145,-0.125,-0.084
-0.038,-0.052,-0.013,0.045,-0.012,-0.032,-0.019,-0.05,-0.11,-0.14,-0.128,-0.08
-0.021,-0.045,-0.024,0.033,0.002,-0.034,-0.065,-0.079,-0.137,-0.15,-0.132,-0.081
-0.001,-0.032,-0.032,0.017,0.016,-0.032,-0.084,-0.103,-0.153,-0.145,-0.128,-0.076
0.002,-0.063,-0.065,0.03,0.034,-0.064,-0.073,-0.096,-0.145,-0.154,-0.137,-0.077
-0.002,-0.071,-0.07,0.037,0.034,-0.07,-0.061,-0.107,-0.141,-0.154,-0.133,-0.07
-0.017,-0.096,-0.078,0.057,0.031,-0.087,-0.05,-0.089,-0.136,-0.153,-0.137,-0.089
-0.061,-0.111,-0.05,0.086,-0.005,-0.08,-0.051,-0.117,-0.192,-0.185,-0.143,-0.112
-0.058,-0.137,-0.079,0.098,0.011,-0.108,-0.042,-0.073,-0.151,-0.164,-0.145,-0.118
-0.071,-0.104,-0.032,0.088,-0.019,-0.068,-0.046,-0.119,-0.207,-0.211,-0.161,-0.112
-0.064,-0.137,-0.072,0.101,0.004,-0.104,-0.033,-0.051,-0.134,-0.154,-0.141,-0.12
-0.137,-0.002,0.135,0.069,-0.136,0.067,0.036,-0.115,-0.24,-0.263,-0.185,-0.142
-0.169,0.259,0.429,-0.046,-0.299,0.344,0.251,0.27,0.051,-0.106,-0.072,-0.089
0.254,0.433,0.178,-0.344,0.038,0.305,0.134,1.064,1.138,0.958,0.766,0.472
0.802,0.96,0.157,-0.881,0.322,0.558,-0.464,0.477,1.742,2.551,2.186,1.461
0.746,0.51,-0.235,-0.628,0.49,0.138,-0.426,-0.306,1.298,2.52,1.89,1.203
0.078,-0.216,-0.294,0.069,0.186,-0.254,0.056,-0.784,-0.375,0.124,0.04,0.062
-0.281,-0.152,0.13,0.216,-0.205,-0.011,0.045,-0.952,-1.033,-0.845,-0.538,-0.311
-0.22,-0.301,-0.081,0.26,-0.069,-0.191,-0.132,-0.568,-0.568,-0.491,-0.414,-0.306
-0.158,-0.219,-0.061,0.189,-0.048,-0.14,-0.074,-0.309,-0.39,-0.411,-0.326,-0.236
-0.092,-0.121,-0.029,0.106,-0.031,-0.075,0.005,-0.049,-0.137,-0.198,-0.194,-0.166
-0.075,-0.13,-0.054,0.102,-0.01,-0.092,0.024,0.03,-0.108,-0.207,-0.189,-0.15
-0.064,-0.088,-0.024,0.076,-0.02,-0.056,0.054,0.078,-0.043,-0.131,-0.129,-0.117
-0.057,-0.096,-0.039,0.077,-0.009,-0.067,0.049,0.097,-0.004,-0.112,-0.131,-0.121
-0.052,-0.052,0.0,0.053,-0.026,-0.026,0.05,0.106,0.01,-0.098,-0.109,-0.107
-0.045,-0.054,-0.009,0.049,-0.018,-0.031,0.051,0.146,0.044,-0.065,-0.102,-0.107
-0.042,-0.032,0.01,0.037,-0.026,-0.011,0.049,0.155,0.05,-0.063,-0.095,-0.1
-0.032,-0.025,0.008,0.028,-0.02,-0.008,0.053,0.204,0.108,-0.012,-0.065,-0.083
-0.028,-0.012,0.016,0.02,-0.022,0.002,0.054,0.238,0.146,0.016,-0.038,-0.063
-0.02,0.002,0.022,0.009,-0.021,0.012,0.058,0.305,0.22,0.072,-0.008,-0.048
-0.011,0.014,0.025,-0.002,-0.018,0.019,0.06,0.375,0.291,0.114,0.013,-0.039
0.015,0.048,0.033,-0.031,-0.009,0.04,0.057,0.47,0.399,0.195,0.061,-0.003
0.042,0.076,0.034,-0.059,0.004,0.055,0.051,0.572,0.52,0.299,0.131,0.04
0.085,0.123,0.038,-0.104,0.023,0.08,0.047,0.665,0.638,0.398,0.203,0.084
0.13,0.163,0.033,-0.146,0.048,0.097,0.042,0.733,0.732,0.496,0.268,0.128
0.148,0.176,0.027,-0.162,0.06,0.101,0.038,0.743,0.762,0.538,0.298,0.152
0.152,0.175,0.023,-0.164,0.064,0.099,0.034,0.73,0.749,0.533,0.301,0.159
0.137,0.153,0.016,-0.145,0.06,0.084,0.029,0.679,0.693,0.506,0.292,0.145
0.118,0.129,0.011,-0.124,0.053,0.07,0.023,0.585,0.598,0.432,0.246,0.111
0.09,0.096,0.006,-0.093,0.042,0.051,0.02,0.472,0.461,0.328,0.18,0.069
0.056,0.055,-0.001,-0.055,0.028,0.027,0.015,0.354,0.312,0.217,0.11,0.032
0.033,0.026,-0.008,-0.029,0.02,0.009,0.011,0.239,0.182,0.103,0.033,-0.01
0.004,-0.01,-0.014,0.003,0.009,-0.012,0.005,0.145,0.074,0.02,-0.03,-0.046
-0.025,-0.047,-0.021,0.036,-0.002,-0.034,-0.003,0.069,-0.004,-0.042,-0.07,-0.066
-0.036,-0.061,-0.025,0.049,-0.005,-0.043,-0.009,0.012,-0.064,-0.094,-0.095,-0.093
-0.058,-0.083,-0.025,0.071,-0.016,-0.054,-0.017,-0.012,-0.105,-0.125,-0.117,-0.111
-0.072,-0.096,-0.024,0.084,-0.023,-0.06,-0.025,-0.028,-0.124,-0.144,-0.131,-0.115
-0.066,-0.098,-0.032,0.082,-0.017,-0.065,-0.028,-0.044,-0.13,-0.15,-0.132,-0.12
-0.06,-0.106,-0.046,0.084,-0.007,-0.076,-0.023,-0.044,-0.123,-0.155,-0.136,-0.123
-0.051,-0.101,-0.05,0.076,0.0,-0.076,-0.017,-0.03,-0.115,-0.151,-0.131,-0.125
-0.048,-0.098,-0.05,0.073,0.001,-0.074,-0.012,-0.018,-0.11,-0.142,-0.124,-0.125
-0.045,-0.095,-0.05,0.07,0.003,-0.072,-0.006,-0.003,-0.1,-0.134,-0.118,-0.125
-0.04,-0.09,-0.05,0.065,0.005,-0.07,-0.001,0.01,-0.091,-0.126,-0.11,-0.125
-0.038,-0.088,-0.05,0.063,0.006,-0.069,0.0,0.023,-0.077,-0.119,-0.105,-0.124
-0.034,-0.081,-0.047,0.058,0.007,-0.063,0.002,0.042,-0.06,-0.113,-0.098,-0.118
-0.03,-0.074,-0.044,0.053,0.007,-0.059,0.006,0.04,-0.06,-0.109,-0.095,-0.112
-0.027,-0.068,-0.041,0.047,0.008,-0.054,0.004,0.032,-0.063,-0.104,-0.095,-0.106
-0.022,-0.06,-0.038,0.041,0.008,-0.049,-0.002,0.026,-0.067,-0.101,-0.095,-0.101
-0.021,-0.056,-0.035,0.039,0.008,-0.045,-0.009,0.014,-0.07,-0.094,-0.096,-0.103
-0.035,-0.07,-0.035,0.053,0.0,-0.052,-0.016,0.0,-0.071,-0.099,-0.094,-0.106
-0.042,-0.077,-0.035,0.06,-0.003,-0.056,-0.023,-0.014,-0.086,-0.121,-0.1,-0.109
-0.039,-0.073,-0.035,0.057,-0.001,-0.054,-0.029,-0.03,-0.105,-0.128,-0.109,-0.112
-0.045,-0.08,-0.035,0.063,-0.005,-0.057,-0.034,-0.046,-0.123,-0.137,-0.109,-0.115
-0.044,-0.079,-0.035,0.062,-0.005,-0.057,-0.035,-0.058,-0.132,-0.147,-0.123,-0.115
-0.047,-0.082,-0.035,0.065,-0.006,-0.058,-0.035,-0.066,-0.133,-0.149,-0.132,-0.115
-0.058,-0.098,-0.04,0.078,-0.009,-0.069,-0.035,-0.069,-0.136,-0.151,-0.132,-0.115
-0.06,-0.101,-0.04,0.081,-0.01,-0.071,-0.035,-0.075,-0.145,-0.149,-0.136,-0.115
-0.059,-0.099,-0.04,0.079,-0.01,-0.07,-0.034,-0.074,-0.155,-0.15,-0.139,-0.115
-0.063,-0.101,-0.038,0.082,-0.012,-0.069,-0.03,-0.08,-0.159,-0.153,-0.14,-0.115
-0.065,-0.099,-0.034,0.083,-0.016,-0.066,-0.03,-0.096,-0.16,-0.159,-0.136,-0.115
-0.066,-0.102,-0.036,0.084,-0.015,-0.068,-0.028,-0.095,-0.161,-0.162,-0.133,-0.115
-0.068,-0.105,-0.037,0.086,-0.015,-0.07,-0.025,-0.095,-0.158,-0.167,-0.13,-0.115
-0.061,-0.105,-0.044,0.083,-0.008,-0.075,-0.025,-0.095,-0.169,-0.17,-0.127,-0.115
-0.063,-0.104,-0.042,0.084,-0.01,-0.073,-0.029,-0.095,-0.181,-0.17,-0.125,-0.114
-0.063,-0.11,-0.048,0.087,-0.007,-0.079,-0.03,-0.097,-0.18,-0.17,-0.127,-0.116
-0.051,-0.118,-0.066,0.085,0.008,-0.092,-0.03,-0.102,-0.18,-0.17,-0.132,-0.12
-0.055,-0.115,-0.06,0.085,0.003,-0.087,-0.035,-0.105,-0.18,-0.17,-0.135,-0.12
-0.06,-0.115,-0.055,0.088,-0.002,-0.085,-0.036,-0.101,-0.18,-0.167,-0.138,-0.12
-0.063,-0.116,-0.053,0.09,-0.005,-0.084,-0.033,-0.099,-0.177,-0.165,-0.135,-0.121
-0.07,-0.114,-0.044,0.093,-0.013,-0.079,-0.028,-0.1,-0.174,-0.166,-0.132,-0.12
-0.066,-0.116,-0.051,0.092,-0.007,-0.084,-0.022,-0.099,-0.17,-0.164,-0.129,-0.116
-0.043,-0.102,-0.059,0.073,0.008,-0.08,-0.018,-0.1,-0.166,-0.165,-0.126,-0.109
-0.039,-0.068,-0.029,0.054,-0.005,-0.048,-0.01,-0.098,-0.164,-0.164,-0.124,-0.102
-0.065,-0.066,0.0,0.066,-0.032,-0.033,-0.007,-0.086,-0.157,-0.156,-0.119,-0.096
-0.046,-0.064,-0.017,0.055,-0.014,-0.04,-0.009,-0.085,-0.159,-0.153,-0.114,-0.088
-0.007,-0.066,-0.059,0.037,0.027,-0.062,-0.022,-0.08,-0.148,-0.141,-0.108,-0.086
-0.012,-0.065,-0.053,0.039,0.021,-0.059,-0.061,-0.104,-0.153,-0.142,-0.105,-0.09
-0.008,-0.063,-0.055,0.036,0.024,-0.059,-0.072,-0.112,-0.14,-0.126,-0.094,-0.089
0.013,-0.092,-0.104,0.04,0.059,-0.098,-0.067,-0.117,-0.153,-0.134,-0.101,-0.091
0.005,-0.098,-0.103,0.046,0.054,-0.1,-0.065,-0.117,-0.16,-0.143,-0.103,-0.087
-0.021,-0.108,-0.086,0.065,0.033,-0.097,-0.061,-0.108,-0.164,-0.168,-0.129,-0.107
-0.035,-0.123,-0.088,0.079,0.027,-0.105,-0.053,-0.129,-0.191,-0.183,-0.154,-0.129
-0.047,-0.166,-0.119,0.107,0.036,-0.143,-0.045,-0.093,-0.151,-0.161,-0.158,-0.137
-0.054,-0.135,-0.082,0.095,0.014,-0.108,-0.04,-0.138,-0.207,-0.199,-0.16,-0.134
-0.039,-0.168,-0.13,0.104,0.046,-0.149,-0.005,-0.061,-0.121,-0.138,-0.137,-0.134
-0.147,0.009,0.156,0.069,-0.152,0.083,0.067,-0.142,-0.258,-0.269,-0.171,-0.141
-0.126,0.251,0.377,-0.063,-0.252,0.314,0.285,0.395,0.165,-0.015,0.001,-0.068
0.355,0.474,0.119,-0.415,0.118,0.296,0.071,1.085,1.266,1.145,0.945,0.597
0.882,0.957,0.075,-0.919,0.403,0.515,-0.514,0.338,1.757,2.691,2.282,1.524
0.715,0.371,-0.344,-0.543,0.529,0.014,-0.341,-0.394,1.165,2.315,1.672,1.052
0.013,-0.255,-0.268,0.121,0.141,-0.261,0.129,-0.871,-0.56,-0.124,-0.121,-0.058
-0.279,-0.2,0.079,0.24,-0.179,-0.06,0.061,-0.957,-1.022,-0.813,-0.483,-0.314
-0.195,-0.333,-0.138,0.264,-0.028,-0.235,-0.13,-0.572,-0.543,-0.48,-0.384,-0.29
-0.119,-0.209,-0.09,0.164,-0.014,-0.149,-0.051,-0.306,-0.385,-0.407,-0.304,-0.232
-0.063,-0.147,-0.084,0.106,0.011,-0.115,0.036,-0.038,-0.118,-0.18,-0.179,-0.164
-0.067,-0.125,-0.059,0.096,-0.004,-0.092,0.039,0.015,-0.103,-0.187,-0.182,-0.137
-0.058,-0.093,-0.035,0.076,-0.012,-0.064,0.055,0.073,-0.038,-0.128,-0.119,-0.111
-0.048,-0.1,-0.053,0.074,0.003,-0.076,0.051,0.089,-0.019,-0.122,-0.117,-0.117
-0.038,-0.066,-0.028,0.052,-0.005,-0.046,0.057,0.103,0.004,-0.081,-0.089,-0.104
-0.025,-0.069,-0.044,0.047,0.01,-0.056,0.055,0.144,0.04,-0.063,-0.087,-0.103
-0.02,-0.045,-0.025,0.032,0.003,-0.035,0.054,0.151,0.05,-0.059,-0.073,-0.096
-0.017,-0.045,-0.028,0.031,0.005,-0.036,0.06,0.198,0.112,-0.015,-0.05,-0.089
-0.016,-0.031,-0.016,0.024,0.0,-0.023,0.065,0.241,0.157,0.018,-0.026,-0.074
-0.002,-0.013,-0.011,0.008,0.005,-0.012,0.065,0.301,0.225,0.072,0.003,-0.052
0.017,0.012,-0.005,-0.014,0.011,0.003,0.077,0.374,0.303,0.118,0.028,-0.029
0.04,0.043,0.003,-0.042,0.018,0.023,0.08,0.47,0.41,0.195,0.075,0.004
0.071,0.075,0.003,-0.073,0.034,0.039,0.071,0.58,0.537,0.297,0.136,0.038
0.11,0.119,0.008,-0.115,0.051,0.063,0.069,0.675,0.658,0.405,0.212,0.084
0.139,0.149,0.01,-0.144,0.065,0.079,0.063,0.746,0.745,0.495,0.277,0.139
0.144,0.148,0.005,-0.146,0.069,0.076,0.06,0.753,0.782,0.538,0.312,0.162
0.166,0.144,-0.022,-0.155,0.094,0.061,0.056,0.737,0.762,0.535,0.303,0.155
0.182,0.131,-0.052,-0.156,0.117,0.039,0.053,0.7,0.703,0.498,0.288,0.151
0.143,0.086,-0.057,-0.114,0.1,0.014,0.051,0.593,0.593,0.416,0.244,0.127
0.11,0.051,-0.059,-0.08,0.084,-0.003,0.047,0.478,0.454,0.314,0.175,0.082
0.075,0.022,-0.053,-0.048,0.064,-0.015,0.045,0.358,0.31,0.201,0.112,0.037
0.028,-0.023,-0.052,-0.003,0.04,-0.037,0.042,0.236,0.162,0.089,0.035,-0.012
-0.013,-0.06,-0.046,0.037,0.017,-0.053,0.033,0.139,0.059,0.004,-0.021,-0.052
-0.032,-0.079,-0.047,0.056,0.007,-0.063,0.022,0.061,-0.02,-0.058,-0.057,-0.074
-0.022,-0.093,-0.072,0.058,0.025,-0.082,0.015,0.005,-0.089,-0.116,-0.102,-0.104
-0.031,-0.107,-0.076,0.07,0.022,-0.091,0.011,-0.026,-0.109,-0.138,-0.123,-0.122
-0.045,-0.12,-0.075,0.083,0.016,-0.097,0.009,-0.039,-0.123,-0.139,-0.117,-0.122
-0.048,-0.129,-0.081,0.088,0.017,-0.105,0.005,-0.036,-0.136,-0.16,-0.13,-0.125
-0.052,-0.131,-0.079,0.091,0.014,-0.105,0.0,-0.03,-0.128,-0.163,-0.141,-0.133
-0.052,-0.134,-0.083,0.093,0.016,-0.109,0.002,-0.024,-0.12,-0.155,-0.134,-0.135
-0.049,-0.134,-0.085,0.092,0.018,-0.11,0.007,-0.019,-0.112,-0.147,-0.13,-0.128
-0.042,-0.127,-0.085,0.085,0.022,-0.106,0.01,-0.003,-0.098,-0.139,-0.124,-0.125
-0.04,-0.121,-0.081,0.081,0.021,-0.101,0.013,0.014,-0.082,-0.133,-0.119,-0.12
-0.034,-0.114,-0.08,0.074,0.023,-0.097,0.018,0.02,-0.076,-0.126,-0.114,-0.115
-0.027,-0.107,-0.08,0.067,0.026,-0.093,0.02,0.025,-0.069,-0.12,-0.108,-0.112
-0.033,-0.108,-0.075,0.071,0.021,-0.091,0.015,0.032,-0.063,-0.112,-0.101,-0.109
-0.035,-0.111,-0.075,0.074,0.02,-0.092,0.01,0.034,-0.056,-0.107,-0.094,-0.106
-0.036,-0.11,-0.074,0.073,0.019,-0.091,0.006,0.025,-0.05,-0.109,-0.088,-0.103
-0.041,-0.11,-0.07,0.075,0.015,-0.09,0.001,0.015,-0.06,-0.111,-0.081,-0.1
-0.04,-0.11,-0.07,0.075,0.015,-0.09,-0.003,0.002,-0.078,-0.109,-0.084,-0.101
-0.041,-0.111,-0.071,0.076,0.015,-0.091,-0.008,-0.012,-0.089,-0.117,-0.095,-0.106
-0.046,-0.115,-0.069,0.081,0.012,-0.091,-0.01,-0.026,-0.107,-0.131,-0.103,-0.105
-0.043,-0.115,-0.072,0.079,0.015,-0.093,-0.01,-0.039,-0.126,-0.137,-0.109,-0.105
-0.051,-0.114,-0.062,0.083,0.006,-0.088,-0.014,-0.051,-0.134,-0.142,-0.114,-0.105
-0.051,-0.123,-0.071,0.087,0.01,-0.097,-0.015,-0.072,-0.141,-0.153,-0.115,-0.105
-0.026,-0.127,-0.101,0.077,0.038,-0.114,-0.015,-0.076,-0.146,-0.154,-0.114,-0.105
-0.024,-0.124,-0.1,0.074,0.039,-0.111,-0.02,-0.075,-0.152,-0.159,-0.117,-0.104
-0.026,-0.126,-0.099,0.076,0.037,-0.112,-0.02,-0.08,-0.159,-0.17,-0.12,-0.119
-0.024,-0.124,-0.101,0.074,0.039,-0.112,-0.02,-0.08,-0.163,-0.169,-0.122,-0.126
-0.027,-0.126,-0.099,0.076,0.037,-0.112,-0.02,-0.081,-0.165,-0.171,-0.125,-0.124
-0.02,-0.123,-0.103,0.072,0.042,-0.113,-0.019,-0.087,-0.165,-0.175,-0.128,-0.125
-0.015,-0.12,-0.105,0.068,0.045,-0.112,-0.023,-0.094,-0.165,-0.175,-0.131,-0.125
-0.02,-0.124,-0.105,0.072,0.043,-0.114,-0.025,-0.091,-0.165,-0.172,-0.125,-0.125
-0.021,-0.126,-0.105,0.074,0.043,-0.115,-0.025,-0.088,-0.165,-0.17,-0.12,-0.12
-0.02,-0.124,-0.105,0.073,0.043,-0.115,-0.028,-0.084,-0.179,-0.17,-0.114,-0.12
-0.025,-0.125,-0.101,0.075,0.038,-0.112,-0.031,-0.082,-0.192,-0.167,-0.11,-0.119
-0.033,-0.13,-0.096,0.082,0.032,-0.113,-0.029,-0.076,-0.189,-0.165,-0.103,-0.115
-0.036,-0.129,-0.093,0.083,0.029,-0.111,-0.025,-0.077,-0.186,-0.167,-0.103,-0.116
-0.032,-0.121,-0.089,0.077,0.029,-0.105,-0.018,-0.1,-0.183,-0.175,-0.122,-0.113
-0.032,-0.116,-0.085,0.075,0.027,-0.101,-0.015,-0.097,-0.179,-0.169,-0.117,-0.108
-0.023,-0.111,-0.089,0.068,0.033,-0.1,-0.007,-0.092,-0.178,-0.161,-0.1,-0.105
-0.019,-0.104,-0.085,0.062,0.033,-0.094,-0.002,-0.082,-0.16,-0.152,-0.091,-0.102
-0.042,-0.098,-0.056,0.07,0.007,-0.077,0.002,-0.073,-0.15,-0.147,-0.089,-0.097
-0.016,-0.084,-0.068,0.05,0.026,-0.076,0.014,-0.059,-0.149,-0.149,-0.085,-0.094
0.03,-0.085,-0.115,0.028,0.073,-0.1,-0.031,-0.055,-0.148,-0.149,-0.084,-0.101
0.031,-0.08,-0.11,0.025,0.071,-0.095,-0.072,-0.103,-0.158,-0.154,-0.079,-0.098
0.028,-0.096,-0.124,0.034,0.076,-0.11,-0.06,-0.099,-0.147,-0.15,-0.08,-0.103
0.008,-0.112,-0.12,0.052,0.064,-0.116,-0.057,-0.115,-0.164,-0.162,-0.095,-0.104
0.0,-0.13,-0.13,0.066,0.065,-0.13,-0.045,-0.1,-0.135,-0.147,-0.098,-0.105
-0.021,-0.143,-0.122,0.083,0.051,-0.132,-0.041,-0.12,-0.18,-0.187,-0.12,-0.108
-0.037,-0.161,-0.124,0.099,0.044,-0.142,-0.029,-0.097,-0.169,-0.167,-0.122,-0.115
-0.034,-0.166,-0.132,0.101,0.049,-0.149,-0.02,-0.1,-0.18,-0.19,-0.14,-0.121
-0.041,-0.147,-0.106,0.094,0.033,-0.126,-0.005,-0.101,-0.171,-0.176,-0.114,-0.101
-0.079,-0.165,-0.087,0.122,0.004,-0.126,0.02,-0.065,-0.151,-0.176,-0.139,-0.129
-0.185,0.117,0.302,0.034,-0.244,0.21,0.17,-0.043,-0.218,-0.266,-0.156,-0.139
0.022,0.276,0.254,-0.149,-0.116,0.265,0.304,0.832,0.638,0.358,0.27,0.105
0.635,0.684,0.049,-0.66,0.293,0.366,-0.197,0.922,1.573,1.818,1.573,1.054
0.96,0.851,-0.109,-0.906,0.534,0.371,-0.542,-0.026,1.759,2.959,2.377,1.559
0.462,-0.025,-0.488,-0.218,0.475,-0.256,-0.058,-0.606,0.505,1.344,0.877,0.545
-0.178,-0.257,-0.079,0.217,-0.049,-0.167,0.226,-1.039,-1.007,-0.732,-0.455,-0.251
-0.275,-0.264,0.011,0.269,-0.143,-0.126,0.003,-0.814,-0.798,-0.64,-0.424,-0.318
-0.192,-0.348,-0.155,0.27,-0.018,-0.251,-0.085,-0.461,-0.485,-0.474,-0.37,-0.295
-0.123,-0.171,-0.048,0.147,-0.037,-0.109,0.039,-0.187,-0.267,-0.317,-0.23,-0.195
-0.077,-0.167,-0.09,0.122,0.007,-0.128,0.07,0.005,-0.086,-0.19,-0.177,-0.171
-0.069,-0.107,-0.038,0.088,-0.015,-0.072,0.073,0.036,-0.078,-0.187,-0.138,-0.149
-0.053,-0.105,-0.053,0.08,0.0,-0.079,0.078,0.101,0.002,-0.106,-0.112,-0.143
-0.047,-0.089,-0.042,0.068,-0.002,-0.065,0.072,0.094,-0.012,-0.12,-0.112,-0.129
-0.036,-0.074,-0.038,0.055,0.002,-0.056,0.078,0.133,0.04,-0.077,-0.078,-0.11
-0.031,-0.072,-0.041,0.052,0.005,-0.057,0.073,0.142,0.047,-0.079,-0.081,-0.106
-0.023,-0.053,-0.03,0.038,0.004,-0.041,0.077,0.176,0.094,-0.027,-0.053,-0.094
-0.012,-0.049,-0.037,0.03,0.013,-0.042,0.074,0.216,0.135,-0.001,-0.041,-0.08
0.007,-0.018,-0.025,0.006,0.016,-0.022,0.075,0.267,0.187,0.031,-0.01,-0.057
0.027,0.0,-0.027,-0.013,0.027,-0.013,0.075,0.341,0.272,0.091,0.023,-0.037
0.046,0.025,-0.021,-0.036,0.033,0.002,0.075,0.42,0.357,0.15,0.052,-0.019
0.07,0.053,-0.017,-0.061,0.043,0.018,0.076,0.527,0.479,0.243,0.111,0.009
0.106,0.09,-0.016,-0.097,0.061,0.037,0.07,0.631,0.6,0.337,0.171,0.056
0.143,0.137,-0.006,-0.14,0.074,0.065,0.062,0.717,0.713,0.44,0.24,0.104
0.158,0.153,-0.006,-0.155,0.082,0.073,0.056,0.77,0.796,0.531,0.317,0.147
0.17,0.139,-0.032,-0.154,0.101,0.053,0.049,0.772,0.804,0.565,0.341,0.16
0.174,0.128,-0.046,-0.151,0.11,0.041,0.045,0.725,0.765,0.544,0.322,0.153
0.168,0.115,-0.053,-0.141,0.11,0.031,0.045,0.654,0.691,0.484,0.283,0.143
0.139,0.084,-0.055,-0.111,0.096,0.014,0.045,0.555,0.556,0.39,0.222,0.105
0.111,0.054,-0.057,-0.082,0.084,-0.001,0.045,0.423,0.408,0.281,0.163,0.06
0.084,0.015,-0.069,-0.049,0.077,-0.027,0.046,0.293,0.262,0.163,0.087,0.019
0.042,-0.029,-0.071,-0.006,0.057,-0.05,0.039,0.178,0.123,0.052,0.004,-0.031
0.01,-0.058,-0.068,0.024,0.04,-0.063,0.027,0.087,0.025,-0.024,-0.04,-0.061
-0.022,-0.088,-0.067,0.056,0.023,-0.078,0.015,0.022,-0.043,-0.082,-0.069,-0.085
-0.033,-0.096,-0.063,0.065,0.016,-0.079,0.006,-0.022,-0.094,-0.123,-0.106,-0.115
-0.033,-0.101,-0.068,0.067,0.018,-0.084,0.005,-0.05,-0.132,-0.145,-0.118,-0.123
-0.034,-0.118,-0.084,0.076,0.025,-0.101,0.005,-0.066,-0.149,-0.152,-0.113,-0.129
-0.038,-0.121,-0.082,0.079,0.022,-0.101,0.005,-0.064,-0.145,-0.165,-0.129,-0.135
-0.043,-0.118,-0.075,0.081,0.016,-0.097,0.005,-0.055,-0.14,-0.172,-0.14,-0.13
-0.042,-0.115,-0.073,0.079,0.016,-0.094,0.005,-0.047,-0.134,-0.164,-0.129,-0.125
-0.045,-0.112,-0.067,0.079,0.011,-0.089,0.005,-0.039,-0.129,-0.163,-0.122,-0.12
-0.046,-0.11,-0.064,0.079,0.009,-0.087,0.005,-0.033,-0.123,-0.155,-0.114,-0.116
-0.049,-0.107,-0.059,0.078,0.005,-0.083,0.005,-0.028,-0.102,-0.142,-0.107,-0.111
-0.048,-0.101,-0.054,0.075,0.003,-0.077,0.005,-0.023,-0.093,-0.128,-0.105,-0.107
-0.047,-0.096,-0.05,0.071,0.002,-0.072,0.005,-0.019,-0.096,-0.12,-0.101,-0.105
-0.046,-0.091,-0.045,0.069,0.0,-0.068,0.004,-0.014,-0.094,-0.12,-0.099,-0.102
-0.044,-0.084,-0.04,0.065,-0.002,-0.062,-0.001,-0.01,-0.096,-0.12,-0.095,-0.099
-0.037,-0.081,-0.044,0.059,0.004,-0.062,-0.004,-0.017,-0.095,-0.12,-0.095,-0.095
-0.029,-0.084,-0.056,0.057,0.014,-0.07,-0.007,-0.027,-0.095,-0.12,-0.1,-0.095
-0.025,-0.085,-0.06,0.055,0.018,-0.072,-0.012,-0.033,-0.11,-0.122,-0.102,-0.099
-0.026,-0.088,-0.062,0.057,0.018,-0.075,-0.015,-0.05,-0.128,-0.134,-0.106,-0.102
-0.025,-0.091,-0.065,0.059,0.02,-0.078,-0.018,-0.065,-0.141,-0.139,-0.109,-0.105
-0.021,-0.089,-0.068,0.055,0.024,-0.078,-0.021,-0.075,-0.146,-0.144,-0.113,-0.108
-0.02,-0.091,-0.071,0.056,0.025,-0.081,-0.024,-0.084,-0.159,-0.157,-0.115,-0.11
-0.022,-0.087,-0.066,0.055,0.022,-0.076,-0.027,-0.084,-0.177,-0.165,-0.116,-0.112
-0.032,-0.097,-0.065,0.065,0.017,-0.081,-0.03,-0.096,-0.183,-0.169,-0.119,-0.12
-0.042,-0.106,-0.065,0.074,0.012,-0.086,-0.03,-0.107,-0.191,-0.173,-0.123,-0.124
-0.044,-0.104,-0.06,0.074,0.008,-0.082,-0.03,-0.107,-0.195,-0.182,-0.13,-0.121
-0.045,-0.105,-0.06,0.075,0.008,-0.082,-0.03,-0.111,-0.199,-0.186,-0.13,-0.118
-0.047,-0.105,-0.058,0.076,0.006,-0.081,-0.03,-0.114,-0.204,-0.188,-0.13,-0.115
-0.05,-0.105,-0.055,0.078,0.003,-0.08,-0.03,-0.116,-0.205,-0.193,-0.13,-0.112
-0.047,-0.102,-0.055,0.075,0.004,-0.078,-0.042,-0.124,-0.217,-0.195,-0.13,-0.11
-0.044,-0.1,-0.055,0.073,0.005,-0.077,-0.046,-0.125,-0.222,-0.191,-0.131,-0.108
-0.046,-0.1,-0.055,0.074,0.004,-0.077,-0.041,-0.125,-0.216,-0.187,-0.125,-0.105
-0.045,-0.1,-0.055,0.073,0.005,-0.077,-0.04,-0.13,-0.215,-0.184,-0.119,-0.105
-0.048,-0.1,-0.052,0.074,0.002,-0.076,-0.035,-0.128,-0.209,-0.179,-0.114,-0.105
-0.055,-0.098,-0.043,0.077,-0.006,-0.07,-0.036,-0.131,-0.212,-0.176,-0.108,-0.105
-0.018,-0.059,-0.041,0.039,0.012,-0.049,-0.027,-0.114,-0.197,-0.173,-0.101,-0.105
-0.008,-0.028,-0.02,0.018,0.006,-0.024,-0.022,-0.105,-0.186,-0.177,-0.103,-0.1
-0.025,-0.064,-0.039,0.045,0.007,-0.051,-0.012,-0.085,-0.172,-0.173,-0.104,-0.093
0.009,-0.074,-0.083,0.033,0.046,-0.078,-0.02,-0.084,-0.166,-0.176,-0.106,-0.089
0.028,-0.039,-0.067,0.006,0.047,-0.052,-0.072,-0.142,-0.191,-0.176,-0.104,-0.081
0.023,-0.065,-0.088,0.022,0.055,-0.076,-0.083,-0.14,-0.184,-0.171,-0.105,-0.081
0.03,-0.076,-0.106,0.023,0.068,-0.091,-0.068,-0.153,-0.197,-0.176,-0.1,-0.078
0.031,-0.094,-0.125,0.032,0.078,-0.109,-0.056,-0.134,-0.17,-0.154,-0.101,-0.082
-0.026,-0.12,-0.095,0.073,0.035,-0.107,-0.053,-0.156,-0.229,-0.209,-0.141,-0.109
-0.037,-0.14,-0.103,0.089,0.033,-0.121,-0.044,-0.129,-0.217,-0.193,-0.143,-0.124
-0.048,-0.136,-0.087,0.092,0.02,-0.111,-0.042,-0.139,-0.234,-0.218,-0.153,-0.129
-0.044,-0.129,-0.085,0.087,0.021,-0.107,-0.034,-0.132,-0.213,-0.188,-0.136,-0.13
-0.064,-0.115,-0.051,0.09,-0.006,-0.083,0.008,-0.099,-0.214,-0.215,-0.16,-0.14
-0.191,0.171,0.361,0.01,-0.276,0.266,0.185,-0.01,-0.223,-0.264,-0.144,-0.135
0.067,0.304,0.237,-0.186,-0.085,0.27,0.28,0.888,0.709,0.448,0.34,0.162
0.699,0.752,0.054,-0.725,0.322,0.403,-0.268,0.856,1.608,1.965,1.7,1.151
0.962,0.826,-0.136,-0.894,0.549,0.345,-0.547,-0.116,1.703,2.959,2.334,1.526
0.385,-0.058,-0.444,-0.163,0.415,-0.251,-0.016,-0.679,0.304,1.111,0.699,0.457
-0.243,-0.231,0.012,0.237,-0.127,-0.109,0.219,-1.073,-1.108,-0.803,-0.493,-0.269
-0.261,-0.249,0.011,0.255,-0.136,-0.119,-0.012,-0.822,-0.804,-0.612,-0.419,-0.298
-0.173,-0.303,-0.13,0.238,-0.022,-0.216,-0.091,-0.486,-0.527,-0.486,-0.384,-0.274
-0.12,-0.144,-0.024,0.132,-0.048,-0.084,0.015,-0.208,-0.292,-0.304,-0.233,-0.193
-0.076,-0.141,-0.065,0.109,-0.005,-0.103,0.041,-0.027,-0.137,-0.202,-0.195,-0.158
-0.071,-0.092,-0.02,0.082,-0.025,-0.056,0.046,-0.008,-0.129,-0.188,-0.148,-0.123
-0.062,-0.1,-0.039,0.081,-0.011,-0.069,0.054,0.051,-0.045,-0.12,-0.118,-0.118
-0.057,-0.075,-0.018,0.066,-0.019,-0.046,0.046,0.064,-0.056,-0.128,-0.12,-0.112
-0.049,-0.065,-0.016,0.057,-0.016,-0.04,0.053,0.103,0.006,-0.072,-0.089,-0.102
-0.049,-0.061,-0.012,0.055,-0.018,-0.036,0.047,0.119,0.014,-0.076,-0.087,-0.09
-0.037,-0.054,-0.017,0.046,-0.009,-0.036,0.053,0.159,0.055,-0.035,-0.057,-0.067
-0.015,-0.044,-0.03,0.03,0.008,-0.037,0.062,0.192,0.096,-0.015,-0.047,-0.062
0.015,-0.006,-0.021,-0.005,0.018,-0.013,0.058,0.242,0.147,0.029,-0.018,-0.047
0.035,0.007,-0.028,-0.02,0.031,-0.011,0.052,0.315,0.229,0.093,0.012,-0.026
0.054,0.033,-0.021,-0.044,0.037,0.006,0.048,0.402,0.323,0.157,0.049,0.003
0.096,0.076,-0.02,-0.086,0.058,0.027,0.041,0.502,0.438,0.242,0.105,0.035
0.137,0.12,-0.017,-0.128,0.077,0.051,0.036,0.605,0.559,0.339,0.166,0.07
0.162,0.148,-0.014,-0.155,0.088,0.067,0.031,0.698,0.685,0.459,0.253,0.133
0.17,0.158,-0.012,-0.164,0.091,0.073,0.029,0.726,0.745,0.532,0.307,0.173
0.17,0.162,-0.008,-0.166,0.089,0.077,0.026,0.715,0.737,0.535,0.31,0.165
0.18,0.157,-0.023,-0.168,0.102,0.067,0.023,0.699,0.711,0.512,0.295,0.161
0.164,0.127,-0.037,-0.146,0.101,0.045,0.02,0.624,0.633,0.465,0.269,0.155
0.133,0.083,-0.05,-0.108,0.091,0.017,0.02,0.501,0.496,0.371,0.223,0.127
0.11,0.049,-0.062,-0.079,0.086,-0.006,0.031,0.378,0.344,0.241,0.141,0.082
0.054,0.009,-0.045,-0.032,0.049,-0.017,0.031,0.25,0.193,0.126,0.07,0.033
0.007,-0.031,-0.037,0.012,0.022,-0.034,0.022,0.132,0.06,0.026,-0.002,-0.018
-0.017,-0.05,-0.033,0.033,0.009,-0.041,0.016,0.04,-0.033,-0.051,-0.058,-0.061
-0.044,-0.068,-0.024,0.056,-0.01,-0.046,0.008,-0.025,-0.1,-0.101,-0.082,-0.086
-0.052,-0.1,-0.048,0.076,-0.002,-0.074,0.001,-0.065,-0.145,-0.137,-0.106,-0.088
-0.053,-0.117,-0.063,0.085,0.005,-0.089,-0.006,-0.088,-0.168,-0.151,-0.119,-0.09
-0.058,-0.114,-0.056,0.086,0.0,-0.085,-0.01,-0.1,-0.186,-0.164,-0.133,-0.103
-0.057,-0.112,-0.055,0.085,-0.001,-0.083,-0.009,-0.094,-0.184,-0.169,-0.132,-0.106
-0.057,-0.109,-0.052,0.083,-0.002,-0.08,-0.013,-0.084,-0.175,-0.162,-0.129,-0.104
-0.058,-0.106,-0.048,0.082,-0.005,-0.077,-0.015,-0.076,-0.17,-0.156,-0.131,-0.101
-0.04,-0.103,-0.063,0.072,0.011,-0.082,-0.015,-0.067,-0.161,-0.149,-0.125,-0.1
-0.027,-0.1,-0.074,0.064,0.023,-0.087,-0.012,-0.058,-0.143,-0.143,-0.126,-0.099
-0.047,-0.099,-0.052,0.073,0.003,-0.075,-0.007,-0.05,-0.128,-0.136,-0.124,-0.094
-0.051,-0.093,-0.042,0.072,-0.004,-0.067,-0.004,-0.051,-0.125,-0.139,-0.118,-0.089
-0.049,-0.086,-0.036,0.068,-0.006,-0.061,-0.001,-0.05,-0.117,-0.14,-0.111,-0.085
-0.051,-0.079,-0.028,0.066,-0.011,-0.054,0.004,-0.05,-0.115,-0.14,-0.104,-0.08
-0.049,-0.072,-0.024,0.061,-0.012,-0.048,0.004,-0.05,-0.116,-0.14,-0.097,-0.075
-0.053,-0.066,-0.014,0.06,-0.019,-0.04,-0.001,-0.05,-0.114,-0.141,-0.091,-0.078
-0.038,-0.068,-0.03,0.053,-0.003,-0.049,-0.006,-0.067,-0.129,-0.139,-0.094,-0.084
-0.023,-0.071,-0.048,0.047,0.013,-0.059,-0.01,-0.082,-0.144,-0.134,-0.106,-0.087
-0.026,-0.069,-0.043,0.048,0.009,-0.056,-0.015,-0.088,-0.151,-0.146,-0.114,-0.092
-0.03,-0.071,-0.041,0.05,0.006,-0.056,-0.019,-0.097,-0.17,-0.155,-0.115,-0.095
-0.03,-0.069,-0.039,0.05,0.004,-0.054,-0.024,-0.112,-0.182,-0.171,-0.115,-0.095
-0.039,-0.073,-0.034,0.057,-0.002,-0.053,-0.025,-0.119,-0.187,-0.183,-0.114,-0.097
-0.049,-0.085,-0.036,0.068,-0.006,-0.06,-0.025,-0.122,-0.194,-0.178,-0.123,-0.1
-0.051,-0.085,-0.034,0.068,-0.008,-0.059,-0.025,-0.124,-0.197,-0.181,-0.13,-0.1
-0.05,-0.086,-0.036,0.068,-0.006,-0.061,-0.026,-0.129,-0.202,-0.18,-0.132,-0.096
-0.042,-0.09,-0.049,0.066,0.004,-0.07,-0.039,-0.152,-0.212,-0.185,-0.135,-0.095
-0.039,-0.09,-0.051,0.064,0.006,-0.07,-0.04,-0.156,-0.223,-0.19,-0.14,-0.095
-0.038,-0.088,-0.05,0.063,0.006,-0.069,-0.035,-0.154,-0.225,-0.19,-0.149,-0.095
-0.033,-0.083,-0.05,0.058,0.009,-0.066,-0.034,-0.156,-0.227,-0.194,-0.15,-0.095
-0.03,-0.081,-0.051,0.055,0.01,-0.066,-0.029,-0.155,-0.231,-0.196,-0.151,-0.097
-0.029,-0.077,-0.048,0.053,0.01,-0.062,-0.029,-0.154,-0.23,-0.198,-0.15,-0.103
-0.027,-0.071,-0.045,0.05,0.009,-0.058,-0.02,-0.149,-0.224,-0.194,-0.142,-0.1
-0.025,-0.071,-0.046,0.048,0.01,-0.058,-0.013,-0.143,-0.218,-0.184,-0.136,-0.095
-0.013,-0.051,-0.038,0.032,0.012,-0.044,-0.005,-0.142,-0.214,-0.178,-0.129,-0.093
-0.015,-0.032,-0.017,0.024,0.001,-0.024,0.003,-0.141,-0.207,-0.167,-0.122,-0.088
-0.044,-0.028,0.016,0.036,-0.03,-0.006,0.001,-0.149,-0.213,-0.167,-0.117,-0.085
-0.032,-0.049,-0.016,0.041,-0.008,-0.033,-0.002,-0.148,-0.207,-0.162,-0.109,-0.081
-0.024,-0.069,-0.046,0.047,0.012,-0.057,-0.043,-0.154,-0.212,-0.168,-0.112,-0.08
-0.025,-0.06,-0.035,0.042,0.006,-0.047,-0.067,-0.157,-0.21,-0.162,-0.107,-0.074
0.001,-0.071,-0.072,0.036,0.037,-0.072,-0.055,-0.15,-0.207,-0.166,-0.113,-0.076
0.016,-0.056,-0.072,0.02,0.045,-0.064,-0.051,-0.165,-0.212,-0.166,-0.106,-0.067
0.011,-0.075,-0.086,0.032,0.049,-0.08,-0.039,-0.14,-0.196,-0.157,-0.118,-0.076
-0.034,-0.092,-0.058,0.063,0.012,-0.075,-0.036,-0.182,-0.256,-0.212,-0.159,-0.113
-0.043,-0.122,-0.079,0.083,0.018,-0.1,-0.023,-0.143,-0.211,-0.181,-0.155,-0.128
-0.048,-0.099,-0.052,0.074,0.002,-0.075,-0.017,-0.181,-0.258,-0.224,-0.169,-0.124
-0.055,-0.11,-0.056,0.082,0.001,-0.083,-0.004,-0.135,-0.197,-0.171,-0.147,-0.124
-0.116,-0.047,0.069,0.082,-0.093,0.011,0.034,-0.158,-0.267,-0.24,-0.175,-0.13
-0.19,0.247,0.437,-0.029,-0.313,0.341,0.239,0.085,-0.13,-0.188,-0.108,-0.107
0.168,0.385,0.217,-0.277,-0.025,0.301,0.229,1.006,0.932,0.701,0.54,0.324
0.804,0.894,0.09,-0.849,0.357,0.491,-0.381,0.633,1.693,2.305,1.974,1.359
0.91,0.706,-0.204,-0.808,0.557,0.251,-0.471,-0.289,1.551,2.833,2.142,1.403
0.233,-0.14,-0.373,-0.046,0.303,-0.256,0.087,-0.816,-0.099,0.568,0.304,0.226
-0.283,-0.169,0.114,0.226,-0.198,-0.028,0.18,-1.114,-1.172,-0.878,-0.541,-0.304
-0.238,-0.254,-0.016,0.246,-0.11,-0.134,-0.071,-0.766,-0.714,-0.552,-0.42,-0.288
-0.161,-0.24,-0.079,0.2,-0.04,-0.159,-0.09,-0.463,-0.516,-0.483,-0.389,-0.248
-0.113,-0.11,0.003,0.112,-0.058,-0.053,0.014,-0.174,-0.251,-0.259,-0.228,-0.17
-0.079,-0.111,-0.032,0.095,-0.024,-0.071,0.034,-0.046,-0.155,-0.216,-0.21,-0.15
-0.058,-0.047,0.011,0.053,-0.034,-0.018,0.05,-0.013,-0.123,-0.177,-0.161,-0.121
-0.04,-0.054,-0.014,0.047,-0.013,-0.034,0.057,0.04,-0.065,-0.139,-0.147,-0.116
-0.04,-0.026,0.014,0.032,-0.027,-0.006,0.059,0.049,-0.06,-0.139,-0.124,-0.102
-0.032,-0.027,0.005,0.029,-0.018,-0.01,0.062,0.09,-0.01,-0.085,-0.103,-0.098
-0.034,-0.016,0.019,0.025,-0.026,0.001,0.058,0.101,-0.009,-0.083,-0.105,-0.089
-0.03,-0.002,0.029,0.016,-0.03,0.013,0.061,0.139,0.045,-0.042,-0.084,-0.081
-0.018,0.015,0.033,0.001,-0.026,0.024,0.059,0.173,0.078,-0.016,-0.071,-0.063
-0.002,0.037,0.039,-0.018,-0.021,0.038,0.057,0.233,0.146,0.041,-0.035,-0.036
0.005,0.047,0.043,-0.026,-0.019,0.045,0.053,0.303,0.224,0.088,-0.004,-0.029
0.024,0.074,0.051,-0.049,-0.014,0.062,0.051,0.4,0.326,0.159,0.047,0.005
0.069,0.114,0.044,-0.092,0.012,0.079,0.048,0.512,0.454,0.262,0.106,0.041
0.116,0.156,0.04,-0.136,0.038,0.098,0.045,0.612,0.576,0.367,0.17,0.076
0.151,0.186,0.036,-0.169,0.057,0.111,0.043,0.692,0.682,0.469,0.242,0.13
0.175,0.206,0.031,-0.19,0.071,0.118,0.04,0.719,0.728,0.523,0.287,0.166
0.189,0.216,0.027,-0.203,0.081,0.121,0.038,0.71,0.721,0.517,0.287,0.166
0.176,0.198,0.022,-0.188,0.076,0.11,0.035,0.669,0.682,0.506,0.279,0.154
0.144,0.161,0.016,-0.153,0.064,0.088,0.032,0.586,0.591,0.446,0.249,0.138
0.11,0.121,0.011,-0.116,0.049,0.066,0.03,0.468,0.448,0.333,0.182,0.1
0.073,0.079,0.006,-0.077,0.033,0.042,0.027,0.33,0.291,0.218,0.109,0.054
0.041,0.041,0.0,-0.041,0.02,0.02,0.021,0.203,0.143,0.101,0.025,0.009
0.01,0.005,-0.005,-0.007,0.007,0.0,0.016,0.095,0.022,0.014,-0.037,-0.027
-0.006,-0.016,-0.01,0.011,0.003,-0.013,0.013,0.012,-0.072,-0.061,-0.076,-0.061
-0.011,-0.025,-0.014,0.018,0.002,-0.02,0.007,-0.049,-0.138,-0.115,-0.109,-0.089
-0.03,-0.049,-0.019,0.04,-0.005,-0.034,0.006,-0.09,-0.171,-0.138,-0.13,-0.097
-0.047,-0.064,-0.018,0.056,-0.014,-0.041,0.01,-0.111,-0.194,-0.161,-0.15,-0.111
-0.053,-0.068,-0.015,0.061,-0.019,-0.041,0.01,-0.119,-0.203,-0.171,-0.156,-0.117
-0.056,-0.068,-0.012,0.062,-0.022,-0.039,0.01,-0.113,-0.195,-0.174,-0.153,-0.113
-0.052,-0.062,-0.01,0.057,-0.021,-0.035,0.01,-0.103,-0.186,-0.172,-0.15,-0.128
-0.055,-0.06,-0.005,0.058,-0.025,-0.032,0.01,-0.097,-0.18,-0.165,-0.147,-0.139
-0.049,-0.055,-0.006,0.053,-0.021,-0.031,0.007,-0.088,-0.171,-0.16,-0.145,-0.127
-0.032,-0.052,-0.02,0.042,-0.006,-0.036,0.004,-0.068,-0.153,-0.155,-0.143,-0.118
-0.029,-0.049,-0.02,0.039,-0.004,-0.034,0.005,-0.058,-0.145,-0.151,-0.136,-0.111
-0.029,-0.045,-0.015,0.037,-0.006,-0.03,0.005,-0.061,-0.144,-0.144,-0.129,-0.104
-0.027,-0.041,-0.014,0.034,-0.006,-0.027,0.005,-0.06,-0.141,-0.141,-0.123,-0.098
-0.029,-0.038,-0.009,0.034,-0.01,-0.023,0.004,-0.061,-0.137,-0.136,-0.115,-0.09
-0.03,-0.033,-0.004,0.032,-0.013,-0.019,-0.001,-0.06,-0.135,-0.132,-0.111,-0.085
-0.03,-0.03,0.0,0.03,-0.015,-0.015,-0.004,-0.061,-0.136,-0.129,-0.109,-0.085
-0.038,-0.034,0.005,0.036,-0.021,-0.014,-0.007,-0.075,-0.145,-0.132,-0.114,-0.085
-0.046,-0.035,0.01,0.04,-0.027,-0.012,-0.012,-0.09,-0.171,-0.157,-0.121,-0.086
-0.04,-0.035,0.005,0.037,-0.022,-0.015,-0.015,-0.101,-0.182,-0.161,-0.119,-0.084
-0.038,-0.035,0.003,0.036,-0.02,-0.016,-0.019,-0.114,-0.188,-0.161,-0.126,-0.09
-0.047,-0.035,0.012,0.041,-0.029,-0.011,-0.025,-0.128,-0.204,-0.174,-0.139,-0.1
-0.048,-0.034,0.014,0.04,-0.03,-0.01,-0.03,-0.14,-0.214,-0.176,-0.143,-0.102
-0.039,-0.03,0.01,0.035,-0.024,-0.01,-0.035,-0.149,-0.215,-0.185,-0.148,-0.105
-0.04,-0.03,0.01,0.035,-0.025,-0.01,-0.042,-0.151,-0.215,-0.194,-0.151,-0.107
-0.04,-0.03,0.01,0.035,-0.025,-0.01,-0.044,-0.157,-0.223,-0.195,-0.155,-0.11
-0.04,-0.03,0.01,0.035,-0.025,-0.01,-0.04,-0.164,-0.228,-0.195,-0.158,-0.108
-0.04,-0.03,0.01,0.035,-0.025,-0.01,-0.04,-0.168,-0.233,-0.194,-0.162,-0.104
-0.032,-0.026,0.006,0.029,-0.019,-0.01,-0.04,-0.172,-0.236,-0.198,-0.166,-0.106
-0.04,-0.02,0.02,0.029,-0.03,0.0,-0.04,-0.168,-0.235,-0.201,-0.162,-0.105
-0.043,-0.015,0.027,0.029,-0.035,0.006,-0.04,-0.173,-0.236,-0.195,-0.161,-0.106
-0.032,-0.009,0.023,0.02,-0.027,0.007,-0.036,-0.175,-0.233,-0.187,-0.157,-0.104
-0.024,-0.004,0.02,0.014,-0.022,0.008,-0.024,-0.168,-0.239,-0.181,-0.155,-0.101
-0.018,0.002,0.02,0.008,-0.019,0.011,-0.016,-0.164,-0.239,-0.173,-0.154,-0.096
-0.017,0.017,0.034,0.0,-0.026,0.025,-0.003,-0.153,-0.221,-0.17,-0.148,-0.094
-0.017,0.028,0.045,-0.005,-0.032,0.036,0.012,-0.154,-0.228,-0.177,-0.141,-0.089
-0.008,0.018,0.026,-0.006,-0.017,0.022,-0.003,-0.129,-0.221,-0.172,-0.133,-0.085
-0.011,0.012,0.024,-0.001,-0.018,0.018,-0.06,-0.16,-0.232,-0.179,-0.129,-0.087
-0.004,0.008,0.012,-0.002,-0.009,0.01,-0.086,-0.191,-0.227,-0.171,-0.118,-0.09
0.016,-0.006,-0.021,-0.005,0.019,-0.013,-0.074,-0.187,-0.23,-0.179,-0.129,-0.095
0.025,-0.009,-0.034,-0.007,0.029,-0.021,-0.066,-0.199,-0.228,-0.169,-0.119,-0.095
0.005,-0.037,-0.042,0.017,0.024,-0.039,-0.054,-0.184,-0.214,-0.18,-0.14,-0.104
-0.023,-0.04,-0.017,0.031,-0.002,-0.028,-0.051,-0.211,-0.275,-0.226,-0.17,-0.114
-0.026,-0.073,-0.047,0.049,0.011,-0.06,-0.041,-0.164,-0.241,-0.196,-0.168,-0.124
-0.028,-0.03,-0.002,0.03,-0.013,-0.015,-0.044,-0.212,-0.299,-0.242,-0.18,-0.117
-0.005,-0.055,-0.051,0.03,0.024,-0.053,-0.028,-0.142,-0.229,-0.179,-0.166,-0.123
-0.132,0.049,0.181,0.041,-0.157,0.115,0.05,-0.196,-0.319,-0.279,-0.206,-0.135
-0.142,0.318,0.46,-0.088,-0.301,0.388,0.274,0.24,0.021,-0.101,-0.067,-0.078
0.272,0.49,0.218,-0.381,0.026,0.354,0.117,1.058,1.126,0.971,0.775,0.496
0.851,1.002,0.151,-0.927,0.349,0.576,-0.507,0.39,1.756,2.594,2.194,1.499
0.846,0.549,-0.297,-0.697,0.571,0.126,-0.387,-0.454,1.317,2.548,1.847,1.2
0.068,-0.226,-0.294,0.079,0.181,-0.26,0.166,-0.951,-0.472,0.067,-0.026,0.033
-0.327,-0.163,0.163,0.245,-0.245,0.0,0.129,-1.113,-1.151,-0.888,-0.546,-0.323
-0.234,-0.261,-0.027,0.247,-0.103,-0.143,-0.106,-0.704,-0.656,-0.522,-0.426,-0.316
-0.146,-0.168,-0.022,0.157,-0.062,-0.095,-0.07,-0.435,-0.492,-0.46,-0.361,-0.243
-0.091,-0.073,0.018,0.081,-0.054,-0.027,0.017,-0.146,-0.209,-0.234,-0.225,-0.171
-0.09,-0.053,0.036,0.071,-0.063,-0.008,0.035,-0.066,-0.176,-0.243,-0.214,-0.153
-0.066,0.006,0.072,0.03,-0.069,0.039,0.055,-0.025,-0.117,-0.17,-0.16,-0.111
-0.061,-0.012,0.049,0.037,-0.055,0.018,0.048,0.026,-0.084,-0.148,-0.171,-0.113
-0.045,0.024,0.069,0.011,-0.058,0.046,0.051,0.025,-0.074,-0.127,-0.138,-0.096
-0.033,0.02,0.053,0.007,-0.043,0.036,0.05,0.057,-0.03,-0.096,-0.123,-0.093
-0.033,0.034,0.068,-0.001,-0.051,0.051,0.061,0.085,-0.017,-0.09,-0.105,-0.082
-0.033,0.031,0.064,0.0,-0.048,0.047,0.064,0.129,0.044,-0.041,-0.079,-0.072
-0.024,0.041,0.065,-0.009,-0.045,0.052,0.055,0.162,0.079,-0.018,-0.074,-0.063
-0.001,0.065,0.066,-0.033,-0.034,0.065,0.052,0.228,0.151,0.045,-0.047,-0.05
0.015,0.091,0.075,-0.053,-0.03,0.083,0.044,0.303,0.232,0.092,-0.013,-0.034
0.053,0.136,0.083,-0.094,-0.015,0.109,0.041,0.4,0.338,0.17,0.041,0.007
0.087,0.161,0.074,-0.124,0.006,0.117,0.034,0.513,0.471,0.276,0.113,0.051
0.122,0.198,0.076,-0.161,0.023,0.137,0.027,0.609,0.596,0.377,0.182,0.096
0.151,0.244,0.093,-0.198,0.029,0.168,0.021,0.677,0.686,0.469,0.241,0.134
0.158,0.245,0.087,-0.202,0.035,0.166,0.014,0.698,0.717,0.52,0.282,0.16
0.194,0.235,0.041,-0.214,0.076,0.138,0.007,0.678,0.702,0.525,0.288,0.168
0.198,0.224,0.026,-0.211,0.086,0.124,0.007,0.629,0.657,0.488,0.265,0.152
0.139,0.176,0.037,-0.158,0.051,0.106,0.017,0.527,0.551,0.413,0.225,0.131
0.105,0.137,0.032,-0.121,0.036,0.084,0.024,0.403,0.407,0.312,0.163,0.1
0.086,0.116,0.03,-0.101,0.028,0.073,0.018,0.273,0.248,0.178,0.075,0.036
0.048,0.075,0.027,-0.062,0.011,0.05,0.011,0.143,0.099,0.067,0.012,-0.015
0.014,0.038,0.024,-0.026,-0.006,0.031,0.004,0.044,-0.012,-0.014,-0.039,-0.034
-0.005,0.017,0.022,-0.006,-0.014,0.019,-0.004,-0.041,-0.1,-0.084,-0.095,-0.072
-0.023,-0.009,0.014,0.016,-0.018,0.002,-0.012,-0.095,-0.156,-0.124,-0.116,-0.091
-0.034,-0.024,0.011,0.029,-0.022,-0.006,-0.013,-0.121,-0.185,-0.163,-0.127,-0.101
-0.041,-0.037,0.004,0.039,-0.022,-0.017,-0.009,-0.14,-0.206,-0.177,-0.141,-0.111
-0.054,-0.055,-0.001,0.054,-0.026,-0.028,-0.01,-0.139,-0.21,-0.181,-0.152,-0.109
-0.047,-0.052,-0.004,0.05,-0.021,-0.028,-0.006,-0.134,-0.205,-0.19,-0.156,-0.111
-0.047,-0.046,0.001,0.046,-0.023,-0.022,-0.005,-0.132,-0.197,-0.185,-0.154,-0.109
-0.043,-0.043,0.0,0.043,-0.021,-0.021,-0.005,-0.122,-0.191,-0.18,-0.155,-0.11
-0.025,-0.037,-0.012,0.031,-0.006,-0.025,0.0,-0.109,-0.183,-0.172,-0.155,-0.11
-0.034,-0.034,0.001,0.034,-0.017,-0.016,0.0,-0.095,-0.162,-0.166,-0.155,-0.11
-0.034,-0.029,0.005,0.031,-0.02,-0.012,0.001,-0.09,-0.15,-0.159,-0.148,-0.11
-0.014,-0.024,-0.01,0.019,-0.002,-0.016,0.005,-0.091,-0.15,-0.15,-0.141,-0.107
-0.008,-0.02,-0.012,0.014,0.002,-0.015,0.005,-0.088,-0.15,-0.14,-0.134,-0.102
-0.009,-0.015,-0.006,0.012,-0.001,-0.011,0.003,-0.085,-0.15,-0.138,-0.13,-0.099
-0.012,-0.01,0.001,0.011,-0.006,-0.004,-0.003,-0.084,-0.15,-0.142,-0.13,-0.096
-0.021,-0.013,0.007,0.017,-0.014,-0.003,-0.007,-0.097,-0.152,-0.145,-0.13,-0.091
-0.03,-0.016,0.014,0.023,-0.021,-0.001,-0.011,-0.108,-0.153,-0.148,-0.13,-0.091
-0.04,-0.015,0.025,0.027,-0.032,0.005,-0.016,-0.118,-0.171,-0.152,-0.13,-0.095
-0.042,-0.015,0.027,0.028,-0.034,0.006,-0.021,-0.131,-0.189,-0.154,-0.13,-0.095
-0.039,-0.016,0.022,0.027,-0.03,0.003,-0.024,-0.145,-0.194,-0.163,-0.131,-0.095
-0.048,-0.027,0.021,0.038,-0.034,-0.003,-0.025,-0.163,-0.205,-0.174,-0.129,-0.095
-0.057,-0.04,0.017,0.048,-0.037,-0.012,-0.025,-0.166,-0.215,-0.176,-0.134,-0.095
-0.057,-0.042,0.015,0.049,-0.036,-0.013,-0.025,-0.179,-0.225,-0.183,-0.145,-0.099
-0.052,-0.038,0.014,0.044,-0.033,-0.011,-0.025,-0.187,-0.234,-0.189,-0.145,-0.1
-0.05,-0.034,0.016,0.041,-0.033,-0.009,-0.023,-0.187,-0.234,-0.193,-0.148,-0.1
-0.06,-0.032,0.028,0.046,-0.044,-0.002,-0.02,-0.192,-0.236,-0.194,-0.151,-0.105
-0.056,-0.025,0.031,0.04,-0.043,0.003,-0.02,-0.193,-0.24,-0.191,-0.148,-0.106
-0.058,-0.029,0.029,0.044,-0.043,0.0,-0.02,-0.196,-0.241,-0.188,-0.143,-0.104
-0.066,-0.035,0.031,0.051,-0.049,-0.002,-0.02,-0.187,-0.239,-0.185,-0.137,-0.098
-0.059,-0.03,0.029,0.044,-0.044,-0.001,-0.02,-0.179,-0.229,-0.181,-0.134,-0.091
-0.053,-0.022,0.031,0.037,-0.042,0.004,-0.019,-0.173,-0.224,-0.181,-0.129,-0.084
-0.035,0.008,0.043,0.013,-0.039,0.026,-0.027,-0.163,-0.21,-0.175,-0.124,-0.077
-0.017,0.029,0.046,-0.007,-0.032,0.037,-0.035,-0.155,-0.209,-0.177,-0.126,-0.071
-0.013,0.018,0.031,-0.003,-0.022,0.024,-0.017,-0.114,-0.199,-0.173,-0.123,-0.065
-0.003,0.015,0.018,-0.006,-0.011,0.016,-0.045,-0.115,-0.202,-0.177,-0.127,-0.066
0.015,0.012,-0.004,-0.014,0.009,0.004,-0.082,-0.134,-0.227,-0.174,-0.122,-0.064
0.028,-0.002,-0.03,-0.013,0.028,-0.015,-0.074,-0.124,-0.234,-0.174,-0.127,-0.067
0.033,0.006,-0.027,-0.02,0.03,-0.01,-0.067,-0.139,-0.24,-0.188,-0.124,-0.063
-0.004,-0.044,-0.04,0.025,0.018,-0.042,-0.056,-0.116,-0.215,-0.178,-0.124,-0.069
-0.05,-0.051,-0.001,0.051,-0.024,-0.025,-0.05,-0.148,-0.268,-0.219,-0.152,-0.094
-0.031,-0.077,-0.046,0.054,0.008,-0.061,-0.034,-0.109,-0.237,-0.211,-0.157,-0.111
-0.05,-0.059,-0.009,0.055,-0.02,-0.034,-0.035,-0.142,-0.278,-0.257,-0.167,-0.112
-0.037,-0.057,-0.02,0.048,-0.008,-0.038,-0.019,-0.082,-0.219,-0.21,-0.138,-0.111
-0.099,-0.01,0.089,0.055,-0.094,0.039,0.021,-0.122,-0.281,-0.275,-0.193,-0.127
-0.194,0.291,0.485,-0.049,-0.34,0.388,0.241,0.115,-0.148,-0.21,-0.129,-0.105
0.18,0.432,0.252,-0.307,-0.037,0.342,0.237,1.045,0.916,0.69,0.543,0.331
0.809,0.937,0.127,-0.873,0.341,0.532,-0.382,0.703,1.733,2.337,1.995,1.373
0.914,0.739,-0.175,-0.827,0.544,0.282,-0.473,-0.208,1.589,2.874,2.172,1.421
0.247,-0.125,-0.372,-0.06,0.31,-0.248,0.074,-0.762,-0.104,0.572,0.31,0.249
-0.289,-0.136,0.153,0.212,-0.221,0.009,0.182,-1.078,-1.191,-0.907,-0.553,-0.296
-0.255,-0.222,0.034,0.239,-0.144,-0.093,-0.051,-0.733,-0.734,-0.58,-0.424,-0.306
-0.165,-0.208,-0.043,0.186,-0.061,-0.125,-0.071,-0.426,-0.525,-0.498,-0.38,-0.249
-0.111,-0.062,0.049,0.086,-0.079,-0.007,0.032,-0.141,-0.257,-0.274,-0.224,-0.159
-0.075,-0.065,0.01,0.07,-0.042,-0.027,0.055,-0.013,-0.163,-0.231,-0.213,-0.142
-0.054,-0.008,0.046,0.031,-0.05,0.019,0.074,0.026,-0.136,-0.19,-0.156,-0.101
-0.043,-0.023,0.02,0.033,-0.031,-0.002,0.067,0.066,-0.079,-0.149,-0.148,-0.101
-0.053,0.004,0.057,0.025,-0.055,0.03,0.063,0.068,-0.071,-0.149,-0.136,-0.089
-0.041,0.006,0.047,0.018,-0.045,0.026,0.063,0.107,-0.021,-0.106,-0.116,-0.084
-0.033,0.014,0.047,0.009,-0.04,0.03,0.054,0.123,-0.028,-0.108,-0.111,-0.079
-0.024,0.036,0.059,-0.006,-0.042,0.047,0.058,0.163,0.026,-0.059,-0.083,-0.067
-0.013,0.052,0.065,-0.02,-0.039,0.058,0.06,0.193,0.065,-0.027,-0.072,-0.058
-0.006,0.06,0.066,-0.027,-0.036,0.063,0.058,0.26,0.136,0.022,-0.043,-0.042
0.019,0.076,0.057,-0.048,-0.019,0.067,0.054,0.335,0.219,0.075,-0.006,-0.022
0.048,0.111,0.064,-0.08,-0.008,0.087,0.051,0.426,0.322,0.152,0.043,0.012
0.068,0.14,0.072,-0.104,-0.003,0.106,0.046,0.53,0.447,0.244,0.096,0.048
0.111,0.179,0.068,-0.145,0.021,0.123,0.043,0.629,0.572,0.359,0.173,0.093
0.156,0.217,0.06,-0.187,0.048,0.138,0.04,0.708,0.679,0.465,0.254,0.149
0.162,0.216,0.053,-0.189,0.054,0.134,0.04,0.743,0.726,0.518,0.294,0.182
0.16,0.206,0.046,-0.183,0.057,0.125,0.04,0.728,0.723,0.517,0.289,0.18
0.163,0.203,0.039,-0.183,0.062,0.121,0.04,0.672,0.672,0.491,0.276,0.17
0.14,0.171,0.031,-0.156,0.054,0.1,0.04,0.595,0.582,0.438,0.254,0.15
0.106,0.13,0.024,-0.118,0.04,0.077,0.036,0.478,0.441,0.326,0.183,0.107
0.072,0.089,0.017,-0.081,0.027,0.053,0.035,0.338,0.276,0.196,0.088,0.058
0.047,0.056,0.009,-0.052,0.019,0.032,0.035,0.217,0.14,0.083,0.023,0.016
0.028,0.03,0.003,-0.029,0.012,0.016,0.03,0.108,0.015,-0.011,-0.032,-0.02
-0.003,0.0,0.003,0.001,-0.003,0.001,0.03,0.026,-0.083,-0.081,-0.085,-0.057
-0.032,-0.023,0.008,0.027,-0.02,-0.007,0.029,-0.029,-0.137,-0.129,-0.106,-0.081
-0.047,-0.038,0.009,0.043,-0.028,-0.015,0.025,-0.07,-0.175,-0.156,-0.132,-0.089
-0.046,-0.041,0.004,0.043,-0.025,-0.018,0.023,-0.094,-0.199,-0.177,-0.153,-0.09
-0.039,-0.039,0.001,0.039,-0.02,-0.019,0.02,-0.1,-0.206,-0.185,-0.15,-0.1
-0.042,-0.044,-0.002,0.043,-0.02,-0.023,0.017,-0.095,-0.201,-0.185,-0.151,-0.107
-0.039,-0.046,-0.007,0.043,-0.016,-0.026,0.014,-0.087,-0.197,-0.199,-0.149,-0.102
-0.035,-0.045,-0.01,0.04,-0.012,-0.027,0.019,-0.06,-0.194,-0.199,-0.145,-0.101
-0.04,-0.044,-0.004,0.042,-0.018,-0.024,0.02,-0.034,-0.178,-0.185,-0.145,-0.097
-0.05,-0.04,0.01,0.045,-0.03,-0.015,0.02,-0.026,-0.163,-0.173,-0.144,-0.095
-0.066,-0.041,0.026,0.053,-0.046,-0.007,0.019,-0.014,-0.151,-0.158,-0.138,-0.093
-0.068,-0.038,0.031,0.053,-0.049,-0.003,0.014,-0.007,-0.142,-0.145,-0.13,-0.088
-0.058,-0.029,0.03,0.044,-0.044,0.0,0.016,-0.012,-0.145,-0.14,-0.125,-0.085
-0.052,-0.021,0.03,0.036,-0.041,0.004,0.013,-0.018,-0.148,-0.138,-0.117,-0.082
-0.042,-0.013,0.03,0.028,-0.036,0.008,0.009,-0.023,-0.15,-0.135,-0.112,-0.077
-0.037,-0.006,0.03,0.022,-0.033,0.012,0.01,-0.029,-0.154,-0.132,-0.113,-0.075
-0.036,-0.01,0.026,0.022,-0.031,0.008,0.006,-0.033,-0.154,-0.129,-0.118,-0.08
-0.035,-0.015,0.019,0.025,-0.027,0.002,0.005,-0.042,-0.167,-0.14,-0.119,-0.08
-0.031,-0.019,0.012,0.025,-0.022,-0.003,0.005,-0.056,-0.175,-0.157,-0.114,-0.079
-0.031,-0.024,0.007,0.027,-0.018,-0.009,0.0,-0.065,-0.185,-0.163,-0.125,-0.083
-0.026,-0.028,-0.002,0.027,-0.012,-0.015,0.0,-0.075,-0.204,-0.166,-0.13,-0.085
-0.033,-0.037,-0.003,0.035,-0.015,-0.02,-0.001,-0.084,-0.211,-0.168,-0.132,-0.085
-0.044,-0.041,0.003,0.042,-0.024,-0.019,-0.005,-0.091,-0.223,-0.172,-0.145,-0.085
-0.05,-0.038,0.012,0.043,-0.031,-0.013,-0.005,-0.098,-0.23,-0.183,-0.145,-0.085
-0.061,-0.035,0.026,0.047,-0.043,-0.004,-0.007,-0.101,-0.232,-0.187,-0.145,-0.085
-0.062,-0.032,0.029,0.047,-0.045,-0.001,-0.01,-0.098,-0.235,-0.185,-0.146,-0.081
-0.051,-0.029,0.022,0.04,-0.037,-0.003,-0.011,-0.103,-0.238,-0.186,-0.143,-0.076
-0.049,-0.034,0.015,0.041,-0.031,-0.01,-0.005,-0.104,-0.239,-0.184,-0.138,-0.073
-0.062,-0.034,0.028,0.047,-0.045,-0.003,0.004,-0.107,-0.238,-0.186,-0.135,-0.07
-0.044,0.001,0.044,0.021,-0.044,0.023,0.017,-0.102,-0.233,-0.18,-0.131,-0.064
-0.036,0.022,0.058,0.007,-0.047,0.04,0.021,-0.098,-0.232,-0.174,-0.128,-0.068
-0.024,0.02,0.045,0.002,-0.035,0.032,0.015,-0.093,-0.229,-0.17,-0.123,-0.067
0.009,0.018,0.009,-0.014,0.0,0.013,-0.018,-0.082,-0.223,-0.174,-0.122,-0.066
0.011,0.023,0.013,-0.017,-0.001,0.018,-0.066,-0.114,-0.23,-0.178,-0.119,-0.06
0.022,0.014,-0.008,-0.018,0.015,0.003,-0.066,-0.116,-0.222,-0.169,-0.12,-0.06
0.018,-0.009,-0.028,-0.004,0.023,-0.019,-0.057,-0.128,-0.242,-0.184,-0.121,-0.055
0.011,-0.046,-0.058,0.018,0.035,-0.052,-0.047,-0.113,-0.215,-0.161,-0.117,-0.054
-0.024,-0.046,-0.022,0.035,-0.001,-0.034,-0.043,-0.137,-0.251,-0.207,-0.153,-0.086
-0.044,-0.069,-0.025,0.057,-0.009,-0.047,-0.032,-0.114,-0.228,-0.196,-0.156,-0.101
-0.059,-0.075,-0.016,0.068,-0.022,-0.045,-0.033,-0.124,-0.247,-0.225,-0.17,-0.102
-0.061,-0.06,0.001,0.061,-0.031,-0.029,-0.019,-0.109,-0.235,-0.214,-0.146,-0.095
-0.067,-0.055,0.012,0.061,-0.04,-0.021,0.009,-0.093,-0.231,-0.216,-0.174,-0.116
-0.19,0.231,0.421,-0.021,-0.306,0.326,0.173,-0.061,-0.306,-0.311,-0.198,-0.131
0.029,0.379,0.349,-0.204,-0.16,0.364,0.3,0.849,0.62,0.385,0.284,0.157
0.655,0.814,0.159,-0.735,0.248,0.486,-0.221,0.957,1.681,2.02,1.699,1.156
0.944,0.915,-0.029,-0.93,0.487,0.443,-0.552,0.059,1.856,3.137,2.449,1.612
0.421,0.045,-0.375,-0.233,0.398,-0.165,-0.084,-0.547,0.417,1.292,0.811,0.552
-0.207,-0.154,0.053,0.18,-0.13,-0.05,0.162,-1.005,-1.104,-0.792,-0.509,-0.231
-0.253,-0.157,0.095,0.205,-0.174,-0.031,-0.037,-0.776,-0.838,-0.648,-0.446,-0.283
-0.151,-0.221,-0.069,0.186,-0.041,-0.145,-0.098,-0.449,-0.541,-0.489,-0.401,-0.256
-0.118,-0.084,0.034,0.101,-0.076,-0.024,0.006,-0.187,-0.313,-0.31,-0.252,-0.163
-0.089,-0.07,0.019,0.079,-0.053,-0.026,0.039,-0.016,-0.155,-0.211,-0.207,-0.146
-0.073,0.002,0.075,0.036,-0.074,0.038,0.047,-0.005,-0.161,-0.213,-0.171,-0.107
-0.065,-0.002,0.064,0.033,-0.065,0.031,0.046,0.075,-0.072,-0.13,-0.141,-0.093
-0.059,0.013,0.072,0.023,-0.066,0.042,0.043,0.065,-0.082,-0.141,-0.15,-0.09
-0.049,0.022,0.072,0.013,-0.061,0.047,0.047,0.093,-0.029,-0.089,-0.115,-0.079
-0.043,0.022,0.065,0.01,-0.054,0.043,0.043,0.122,-0.027,-0.093,-0.104,-0.072
-0.027,0.048,0.075,-0.011,-0.051,0.061,0.047,0.153,0.01,-0.053,-0.079,-0.055
-0.026,0.06,0.086,-0.017,-0.056,0.073,0.049,0.195,0.059,-0.024,-0.073,-0.048
-0.018,0.072,0.09,-0.028,-0.054,0.081,0.055,0.246,0.117,0.023,-0.042,-0.027
-0.004,0.072,0.076,-0.034,-0.04,0.073,0.053,0.319,0.199,0.078,-0.008,-0.002
0.02,0.109,0.089,-0.065,-0.035,0.099,0.048,0.404,0.29,0.147,0.039,0.032
0.053,0.161,0.108,-0.107,-0.027,0.134,0.042,0.5,0.404,0.24,0.097,0.057
0.08,0.181,0.101,-0.131,-0.011,0.141,0.039,0.609,0.533,0.346,0.16,0.096
0.119,0.212,0.093,-0.166,0.012,0.152,0.033,0.694,0.657,0.457,0.239,0.155
0.152,0.238,0.087,-0.195,0.032,0.162,0.03,0.729,0.714,0.52,0.291,0.186
0.162,0.241,0.078,-0.202,0.042,0.159,0.035,0.723,0.708,0.53,0.287,0.194
0.149,0.222,0.073,-0.186,0.038,0.147,0.035,0.676,0.674,0.505,0.278,0.194
0.135,0.193,0.058,-0.164,0.039,0.125,0.035,0.602,0.582,0.45,0.25,0.182
0.107,0.156,0.05,-0.132,0.028,0.103,0.035,0.491,0.444,0.347,0.184,0.147
0.077,0.11,0.034,-0.094,0.021,0.072,0.035,0.367,0.305,0.234,0.128,0.097
0.049,0.088,0.039,-0.069,0.005,0.063,0.032,0.246,0.145,0.11,0.045,0.033
-0.003,0.061,0.064,-0.029,-0.034,0.062,0.023,0.13,0.009,0.002,-0.034,-0.019
-0.032,0.02,0.052,0.005,-0.042,0.036,0.012,0.051,-0.075,-0.062,-0.078,-0.039
-0.045,0.002,0.047,0.022,-0.046,0.024,0.005,-0.001,-0.135,-0.11,-0.109,-0.051
-0.06,-0.009,0.051,0.034,-0.055,0.021,0.002,-0.045,-0.174,-0.138,-0.122,-0.064
-0.072,-0.03,0.042,0.051,-0.057,0.006,-0.002,-0.062,-0.189,-0.153,-0.136,-0.075
-0.073,-0.037,0.036,0.055,-0.054,0.0,-0.005,-0.064,-0.196,-0.172,-0.148,-0.079
-0.057,-0.032,0.026,0.044,-0.041,-0.002,-0.01,-0.073,-0.209,-0.183,-0.151,-0.086
-0.05,-0.03,0.019,0.04,-0.034,-0.005,-0.008,-0.063,-0.212,-0.176,-0.15,-0.088
-0.031,-0.026,0.005,0.028,-0.018,-0.01,-0.004,-0.051,-0.199,-0.171,-0.15,-0.084
-0.033,-0.025,0.007,0.029,-0.019,-0.009,-0.005,-0.034,-0.188,-0.165,-0.15,-0.082
-0.049,-0.02,0.029,0.035,-0.039,0.004,-0.005,-0.013,-0.173,-0.16,-0.15,-0.079
-0.041,-0.01,0.03,0.025,-0.035,0.01,-0.005,-0.01,-0.154,-0.15,-0.146,-0.076
-0.036,0.0,0.036,0.018,-0.036,0.018,-0.006,-0.01,-0.149,-0.133,-0.135,-0.074
-0.037,0.006,0.043,0.016,-0.041,0.024,-0.009,-0.01,-0.151,-0.128,-0.125,-0.07
-0.042,0.004,0.046,0.019,-0.045,0.025,-0.011,-0.01,-0.15,-0.13,-0.115,-0.062
-0.034,0.016,0.05,0.009,-0.042,0.033,-0.008,-0.01,-0.151,-0.13,-0.11,-0.057
-0.025,0.02,0.045,0.002,-0.035,0.033,-0.018,-0.016,-0.15,-0.134,-0.11,-0.055
-0.032,0.013,0.045,0.009,-0.039,0.029,-0.031,-0.028,-0.151,-0.135,-0.11,-0.052
-0.035,0.01,0.045,0.012,-0.04,0.027,-0.03,-0.039,-0.168,-0.136,-0.11,-0.049
-0.04,0.005,0.045,0.017,-0.043,0.025,-0.03,-0.05,-0.181,-0.134,-0.11,-0.045
-0.045,0.001,0.045,0.021,-0.045,0.023,-0.03,-0.06,-0.189,-0.14,-0.113,-0.046
-0.047,-0.004,0.043,0.025,-0.044,0.019,-0.03,-0.07,-0.205,-0.158,-0.119,-0.058
-0.042,-0.005,0.037,0.024,-0.039,0.016,-0.032,-0.083,-0.218,-0.162,-0.125,-0.067
-0.038,-0.005,0.032,0.021,-0.035,0.013,-0.039,-0.091,-0.225,-0.174,-0.125,-0.069
-0.038,-0.01,0.029,0.024,-0.033,0.009,-0.045,-0.094,-0.227,-0.181,-0.125,-0.065
-0.034,-0.011,0.024,0.022,-0.029,0.006,-0.04,-0.097,-0.232,-0.182,-0.131,-0.061
-0.029,-0.009,0.02,0.019,-0.024,0.006,-0.041,-0.1,-0.235,-0.187,-0.131,-0.058
-0.026,-0.001,0.026,0.013,-0.026,0.012,-0.038,-0.096,-0.229,-0.181,-0.13,-0.053
-0.018,0.011,0.029,0.004,-0.024,0.02,-0.035,-0.09,-0.221,-0.174,-0.126,-0.05
0.003,0.019,0.017,-0.011,-0.007,0.018,-0.036,-0.089,-0.217,-0.17,-0.125,-0.046
-0.006,0.031,0.037,-0.013,-0.022,0.034,-0.032,-0.079,-0.207,-0.161,-0.124,-0.04
-0.028,0.047,0.075,-0.01,-0.052,0.06,-0.025,-0.083,-0.205,-0.163,-0.121,-0.035
-0.015,0.044,0.059,-0.015,-0.037,0.051,-0.014,-0.064,-0.199,-0.157,-0.115,-0.029
0.001,0.044,0.044,-0.023,-0.022,0.044,-0.052,-0.085,-0.214,-0.163,-0.115,-0.024
0.016,0.048,0.032,-0.032,-0.008,0.039,-0.084,-0.115,-0.216,-0.158,-0.108,-0.02
0.025,0.037,0.012,-0.032,0.006,0.024,-0.073,-0.112,-0.21,-0.16,-0.106,-0.029
0.024,0.029,0.005,-0.027,0.009,0.017,-0.067,-0.122,-0.231,-0.168,-0.112,-0.028
0.006,-0.007,-0.012,0.0,0.009,-0.01,-0.056,-0.103,-0.234,-0.164,-0.126,-0.035
-0.032,-0.009,0.023,0.02,-0.027,0.008,-0.053,-0.133,-0.272,-0.198,-0.137,-0.061
-0.041,-0.062,-0.021,0.052,-0.01,-0.041,-0.042,-0.091,-0.229,-0.171,-0.135,-0.077
-0.054,-0.046,0.008,0.05,-0.03,-0.019,-0.047,-0.136,-0.287,-0.221,-0.159,-0.08
-0.032,-0.054,-0.022,0.043,-0.004,-0.038,-0.027,-0.068,-0.218,-0.171,-0.14,-0.082
-0.103,0.06,0.163,0.021,-0.133,0.112,0.031,-0.146,-0.323,-0.279,-0.194,-0.091
-0.165,0.332,0.497,-0.084,-0.331,0.414,0.236,0.176,-0.115,-0.184,-0.105,-0.051
0.239,0.495,0.256,-0.368,-0.009,0.376,0.167,1.073,1.044,0.895,0.728,0.488
0.835,1.036,0.201,-0.936,0.316,0.618,-0.443,0.611,1.822,2.616,2.196,1.513
0.845,0.659,-0.186,-0.752,0.516,0.236,-0.47,-0.219,1.474,2.778,2.046,1.356
0.185,-0.146,-0.331,-0.019,0.259,-0.238,0.022,-0.769,-0.303,0.293,0.151,0.183
-0.239,-0.112,0.127,0.175,-0.183,0.008,0.044,-1.011,-1.157,-0.894,-0.526,-0.251
-0.196,-0.225,-0.029,0.211,-0.084,-0.126,-0.119,-0.614,-0.661,-0.516,-0.387,-0.242
-0.136,-0.156,-0.021,0.146,-0.057,-0.088,-0.075,-0.34,-0.487,-0.448,-0.339,-0.189
-0.082,-0.042,0.04,0.062,-0.061,-0.001,-0.002,-0.075,-0.227,-0.227,-0.186,-0.112
-0.065,-0.038,0.027,0.051,-0.046,-0.005,0.024,0.001,-0.174,-0.216,-0.184,-0.099
-0.059,0.015,0.074,0.021,-0.066,0.044,0.039,0.033,-0.129,-0.16,-0.145,-0.068
-0.043,-0.003,0.04,0.023,-0.042,0.018,0.033,0.086,-0.083,-0.138,-0.131,-0.067
-0.037,0.026,0.063,0.005,-0.051,0.045,0.036,0.092,-0.084,-0.132,-0.104,-0.054
-0.022,0.021,0.043,0.001,-0.033,0.032,0.035,0.136,-0.026,-0.096,-0.093,-0.048
-0.017,0.035,0.052,-0.009,-0.035,0.043,0.035,0.147,-0.018,-0.099,-0.088,-0.042
-0.018,0.039,0.057,-0.011,-0.038,0.048,0.039,0.185,0.032,-0.048,-0.056,-0.022
-0.014,0.053,0.067,-0.019,-0.04,0.059,0.043,0.226,0.074,-0.02,-0.037,-0.004
-0.003,0.082,0.084,-0.039,-0.044,0.083,0.045,0.287,0.143,0.037,-0.008,0.013
0.024,0.116,0.092,-0.07,-0.034,0.104,0.038,0.362,0.222,0.089,0.019,0.02
0.051,0.16,0.109,-0.105,-0.029,0.134,0.034,0.453,0.322,0.159,0.059,0.043
0.075,0.194,0.119,-0.135,-0.022,0.156,0.029,0.559,0.449,0.261,0.121,0.087
0.125,0.236,0.11,-0.181,0.007,0.173,0.025,0.661,0.574,0.368,0.189,0.13
0.163,0.267,0.104,-0.215,0.029,0.185,0.021,0.722,0.668,0.466,0.262,0.18
0.183,0.281,0.098,-0.233,0.043,0.189,0.016,0.744,0.706,0.517,0.301,0.201
0.187,0.278,0.091,-0.232,0.048,0.184,0.015,0.723,0.688,0.514,0.292,0.191
0.167,0.254,0.086,-0.211,0.041,0.17,0.015,0.668,0.626,0.483,0.282,0.187
0.133,0.218,0.085,-0.176,0.024,0.151,0.01,0.579,0.526,0.408,0.249,0.177
0.082,0.165,0.083,-0.124,-0.001,0.124,0.01,0.455,0.385,0.299,0.183,0.139
0.048,0.128,0.08,-0.088,-0.016,0.103,0.009,0.325,0.221,0.171,0.095,0.09
0.036,0.114,0.079,-0.075,-0.022,0.096,0.002,0.202,0.082,0.06,0.023,0.05
0.013,0.081,0.068,-0.047,-0.028,0.074,-0.002,0.103,-0.026,-0.02,-0.028,0.009
-0.006,0.051,0.056,-0.023,-0.031,0.053,-0.008,0.026,-0.111,-0.092,-0.07,-0.023
-0.009,0.036,0.045,-0.014,-0.027,0.04,-0.014,-0.024,-0.168,-0.138,-0.102,-0.042
-0.011,0.024,0.036,-0.007,-0.024,0.03,-0.019,-0.054,-0.195,-0.156,-0.124,-0.056
-0.017,0.017,0.034,-0.001,-0.026,0.026,-0.025,-0.076,-0.205,-0.169,-0.129,-0.064
-0.023,0.008,0.031,0.008,-0.027,0.019,-0.025,-0.073,-0.21,-0.181,-0.133,-0.065
-0.024,0.004,0.028,0.01,-0.026,0.016,-0.02,-0.067,-0.209,-0.181,-0.13,-0.065
-0.02,0.006,0.026,0.006,-0.023,0.016,-0.018,-0.067,-0.202,-0.176,-0.129,-0.069
-0.021,0.004,0.024,0.008,-0.023,0.014,-0.013,-0.05,-0.2,-0.172,-0.131,-0.07
-0.03,0.008,0.038,0.01,-0.035,0.023,-0.01,-0.044,-0.192,-0.168,-0.129,-0.069
-0.022,0.023,0.045,-0.001,-0.034,0.034,-0.007,-0.065,-0.181,-0.163,-0.131,-0.063
-0.019,0.029,0.048,-0.006,-0.034,0.038,-0.004,-0.074,-0.155,-0.153,-0.125,-0.057
-0.015,0.032,0.047,-0.009,-0.031,0.039,-0.001,-0.065,-0.156,-0.14,-0.115,-0.051
-0.009,0.037,0.046,-0.014,-0.028,0.041,0.0,-0.058,-0.145,-0.128,-0.105,-0.046
