-0.262,0.505,0.767,-0.121,-0.515,0.635,-0.11,-0.425,-0.368,0.19,-0.135,-0.239
-0.304,0.503,0.808,-0.1,-0.557,0.655,-0.114,-0.425,-0.371,0.189,-0.144,-0.242
-0.303,0.51,0.813,-0.104,-0.558,0.661,-0.12,-0.425,-0.39,0.185,-0.16,-0.261
-0.294,0.522,0.816,-0.114,-0.555,0.669,-0.119,-0.425,-0.389,0.182,-0.161,-0.268
-0.308,0.513,0.821,-0.103,-0.565,0.667,-0.121,-0.425,-0.385,0.177,-0.181,-0.269
-0.287,0.521,0.809,-0.117,-0.548,0.665,-0.118,-0.424,-0.384,0.175,-0.192,-0.275
-0.277,0.548,0.824,-0.136,-0.551,0.686,-0.125,-0.434,-0.379,0.168,-0.195,-0.275
-0.315,0.556,0.871,-0.121,-0.593,0.713,-0.125,-0.445,-0.381,0.157,-0.219,-0.286
-0.299,0.582,0.88,-0.142,-0.59,0.731,-0.137,-0.449,-0.387,0.148,-0.239,-0.297
-0.264,0.606,0.87,-0.171,-0.567,0.737,-0.157,-0.45,-0.393,0.137,-0.256,-0.303
-0.272,0.605,0.877,-0.166,-0.575,0.74,-0.155,-0.447,-0.398,0.129,-0.272,-0.317
-0.288,0.604,0.892,-0.159,-0.59,0.748,-0.154,-0.444,-0.399,0.122,-0.274,-0.321
-0.291,0.606,0.897,-0.158,-0.594,0.751,-0.15,-0.458,-0.395,0.115,-0.298,-0.329
-0.291,0.602,0.892,-0.156,-0.592,0.747,-0.149,-0.465,-0.395,0.107,-0.318,-0.337
-0.296,0.596,0.892,-0.15,-0.594,0.744,-0.157,-0.457,-0.395,0.102,-0.317,-0.339
-0.299,0.588,0.887,-0.145,-0.593,0.738,-0.161,-0.455,-0.394,0.104,-0.332,-0.349
-0.309,0.582,0.892,-0.136,-0.601,0.737,-0.16,-0.449,-0.395,0.107,-0.342,-0.348
-0.319,0.576,0.895,-0.129,-0.607,0.735,-0.158,-0.445,-0.391,0.111,-0.34,-0.343
-0.31,0.568,0.878,-0.129,-0.594,0.723,-0.154,-0.44,-0.388,0.114,-0.34,-0.34
-0.287,0.578,0.865,-0.145,-0.577,0.721,-0.156,-0.429,-0.382,0.116,-0.337,-0.336
-0.29,0.572,0.861,-0.141,-0.576,0.717,-0.147,-0.421,-0.363,0.113,-0.335,-0.332
-0.273,0.597,0.87,-0.162,-0.571,0.733,-0.132,-0.409,-0.343,0.13,-0.335,-0.329
-0.237,0.622,0.86,-0.193,-0.549,0.74,-0.135,-0.393,-0.332,0.151,-0.338,-0.324
-0.234,0.596,0.83,-0.181,-0.533,0.713,-0.134,-0.373,-0.318,0.152,-0.334,-0.311
-0.204,0.6,0.804,-0.198,-0.505,0.702,-0.135,-0.368,-0.295,0.172,-0.335,-0.308
-0.174,0.596,0.77,-0.211,-0.472,0.683,-0.134,-0.359,-0.281,0.187,-0.334,-0.311
-0.19,0.56,0.751,-0.185,-0.471,0.655,-0.137,-0.358,-0.289,0.177,-0.335,-0.316
-0.233,0.514,0.746,-0.141,-0.49,0.63,-0.156,-0.407,-0.328,0.152,-0.373,-0.338
-0.262,0.476,0.738,-0.107,-0.5,0.607,-0.153,-0.423,-0.358,0.113,-0.404,-0.357
-0.274,0.455,0.729,-0.091,-0.502,0.591,-0.151,-0.419,-0.354,0.106,-0.409,-0.365
-0.267,0.422,0.689,-0.078,-0.478,0.555,-0.146,-0.417,-0.354,0.103,-0.428,-0.381
-0.254,0.412,0.667,-0.079,-0.461,0.539,-0.142,-0.415,-0.353,0.092,-0.432,-0.383
-0.26,0.414,0.674,-0.077,-0.467,0.544,-0.14,-0.415,-0.345,0.096,-0.439,-0.388
-0.261,0.401,0.662,-0.07,-0.462,0.532,-0.133,-0.411,-0.356,0.076,-0.472,-0.415
-0.26,0.412,0.673,-0.076,-0.467,0.542,-0.138,-0.405,-0.334,0.091,-0.455,-0.403
-0.266,0.387,0.653,-0.061,-0.459,0.52,-0.13,-0.394,-0.35,0.067,-0.476,-0.418
-0.268,0.418,0.687,-0.075,-0.478,0.552,-0.142,-0.398,-0.324,0.09,-0.459,-0.401
-0.272,0.386,0.658,-0.057,-0.466,0.522,-0.127,-0.371,-0.341,0.061,-0.48,-0.418
-0.293,0.448,0.742,-0.078,-0.518,0.595,-0.124,-0.359,-0.295,0.1,-0.452,-0.398
-0.436,0.572,1.007,-0.068,-0.722,0.789,0.074,-0.216,-0.152,0.187,-0.388,-0.371
-0.209,0.552,0.76,-0.172,-0.485,0.656,0.035,0.016,-0.122,0.248,-0.335,-0.299
0.743,0.766,0.023,-0.754,0.36,0.394,-0.631,0.014,0.073,0.673,0.039,0.134
1.032,0.591,-0.441,-0.811,0.736,0.075,-0.839,-0.663,-0.366,0.299,-0.214,0.026
0.328,0.262,-0.066,-0.295,0.196,0.098,-0.544,-1.36,-0.929,-0.381,-0.746,-0.444
-0.163,0.265,0.428,-0.051,-0.295,0.346,-0.323,-1.145,-0.768,-0.306,-0.746,-0.539
-0.308,0.215,0.523,0.047,-0.416,0.369,-0.186,-0.772,-0.641,-0.235,-0.729,-0.578
-0.309,0.262,0.571,0.024,-0.44,0.416,-0.13,-0.5,-0.467,-0.094,-0.627,-0.526
-0.259,0.338,0.596,-0.04,-0.428,0.467,-0.096,-0.328,-0.352,-0.003,-0.567,-0.482
-0.238,0.407,0.646,-0.085,-0.442,0.526,-0.109,-0.299,-0.323,0.024,-0.552,-0.459
-0.228,0.419,0.647,-0.096,-0.438,0.532,-0.1,-0.245,-0.283,0.063,-0.531,-0.445
-0.222,0.412,0.634,-0.095,-0.428,0.523,-0.099,-0.254,-0.287,0.047,-0.534,-0.447
-0.195,0.438,0.633,-0.121,-0.414,0.535,-0.101,-0.237,-0.264,0.061,-0.518,-0.432
-0.197,0.421,0.619,-0.112,-0.408,0.52,-0.093,-0.235,-0.264,0.056,-0.524,-0.432
-0.201,0.417,0.618,-0.108,-0.41,0.517,-0.094,-0.225,-0.249,0.062,-0.514,-0.421
-0.205,0.403,0.608,-0.099,-0.406,0.505,-0.087,-0.214,-0.245,0.06,-0.513,-0.419
-0.211,0.399,0.611,-0.094,-0.411,0.505,-0.086,-0.204,-0.238,0.065,-0.509,-0.414
-0.209,0.399,0.608,-0.095,-0.409,0.503,-0.08,-0.181,-0.23,0.065,-0.509,-0.41
-0.213,0.391,0.604,-0.089,-0.409,0.498,-0.081,-0.171,-0.225,0.064,-0.512,-0.405
-0.187,0.417,0.605,-0.115,-0.396,0.511,-0.106,-0.159,-0.218,0.066,-0.51,-0.4
-0.174,0.43,0.604,-0.129,-0.389,0.517,-0.117,-0.148,-0.211,0.064,-0.51,-0.395
-0.171,0.434,0.605,-0.132,-0.388,0.519,-0.117,-0.129,-0.199,0.069,-0.506,-0.39
-0.133,0.472,0.605,-0.17,-0.369,0.538,-0.121,-0.103,-0.191,0.072,-0.505,-0.384
-0.107,0.498,0.605,-0.196,-0.357,0.551,-0.123,-0.077,-0.177,0.092,-0.501,-0.379
-0.096,0.509,0.605,-0.207,-0.351,0.557,-0.126,-0.057,-0.158,0.109,-0.484,-0.372
-0.053,0.551,0.604,-0.249,-0.329,0.577,-0.123,-0.037,-0.137,0.124,-0.458,-0.351
0.002,0.602,0.6,-0.302,-0.299,0.601,-0.136,-0.013,-0.113,0.163,-0.425,-0.319
0.036,0.63,0.595,-0.333,-0.28,0.612,-0.146,0.011,-0.087,0.186,-0.398,-0.282
0.063,0.654,0.591,-0.359,-0.265,0.623,-0.163,0.028,-0.07,0.197,-0.377,-0.256
0.088,0.673,0.586,-0.381,-0.249,0.629,-0.178,0.024,-0.056,0.21,-0.361,-0.241
0.104,0.687,0.582,-0.396,-0.239,0.634,-0.173,0.012,-0.052,0.206,-0.359,-0.239
0.101,0.68,0.579,-0.39,-0.24,0.63,-0.176,0.003,-0.059,0.195,-0.36,-0.235
0.084,0.663,0.579,-0.374,-0.248,0.62,-0.174,-0.023,-0.058,0.186,-0.359,-0.236
0.061,0.636,0.575,-0.349,-0.257,0.605,-0.177,-0.066,-0.081,0.167,-0.38,-0.268
0.01,0.584,0.574,-0.297,-0.282,0.579,-0.161,-0.106,-0.109,0.131,-0.411,-0.304
-0.059,0.538,0.597,-0.24,-0.328,0.567,-0.131,-0.144,-0.131,0.088,-0.438,-0.337
-0.114,0.488,0.602,-0.187,-0.358,0.545,-0.132,-0.19,-0.173,0.044,-0.482,-0.375
-0.152,0.437,0.589,-0.142,-0.371,0.513,-0.13,-0.219,-0.197,0.006,-0.514,-0.408
-0.161,0.419,0.58,-0.129,-0.371,0.5,-0.125,-0.233,-0.211,-0.014,-0.522,-0.425
-0.163,0.404,0.567,-0.121,-0.366,0.485,-0.123,-0.246,-0.221,-0.023,-0.53,-0.432
-0.172,0.376,0.548,-0.102,-0.36,0.462,-0.118,-0.244,-0.221,-0.036,-0.538,-0.434
-0.172,0.348,0.52,-0.089,-0.346,0.434,-0.116,-0.232,-0.216,-0.036,-0.533,-0.426
-0.169,0.311,0.48,-0.071,-0.325,0.395,-0.109,-0.223,-0.206,-0.03,-0.527,-0.418
-0.165,0.264,0.429,-0.05,-0.297,0.346,-0.095,-0.212,-0.198,-0.025,-0.522,-0.41
-0.187,0.217,0.405,-0.015,-0.296,0.311,-0.08,-0.202,-0.19,-0.019,-0.516,-0.402
-0.185,0.174,0.359,0.005,-0.272,0.267,-0.066,-0.193,-0.182,-0.014,-0.511,-0.396
-0.17,0.136,0.306,0.017,-0.238,0.221,-0.056,-0.18,-0.176,-0.01,-0.504,-0.389
-0.181,0.116,0.297,0.032,-0.239,0.207,-0.055,-0.168,-0.169,-0.01,-0.491,-0.385
-0.179,0.105,0.284,0.036,-0.232,0.195,-0.054,-0.165,-0.163,-0.01,-0.48,-0.379
-0.184,0.096,0.279,0.044,-0.232,0.187,-0.05,-0.162,-0.156,-0.01,-0.472,-0.374
-0.189,0.091,0.281,0.049,-0.235,0.186,-0.049,-0.159,-0.149,-0.01,-0.467,-0.369
-0.189,0.086,0.275,0.051,-0.233,0.181,-0.051,-0.156,-0.142,-0.01,-0.462,-0.363
-0.187,0.082,0.269,0.052,-0.228,0.175,-0.055,-0.155,-0.136,-0.013,-0.456,-0.355
-0.185,0.077,0.262,0.053,-0.223,0.169,-0.055,-0.16,-0.131,-0.016,-0.451,-0.349
-0.182,0.073,0.256,0.054,-0.22,0.164,-0.06,-0.16,-0.13,-0.019,-0.446,-0.342
-0.181,0.068,0.249,0.057,-0.215,0.158,-0.06,-0.16,-0.13,-0.022,-0.444,-0.336
-0.183,0.061,0.243,0.061,-0.213,0.152,-0.059,-0.16,-0.13,-0.025,-0.441,-0.338
-0.186,0.054,0.24,0.066,-0.213,0.147,-0.072,-0.159,-0.13,-0.025,-0.438,-0.34
-0.192,0.048,0.24,0.072,-0.216,0.143,-0.076,-0.162,-0.128,-0.025,-0.435,-0.34
-0.2,0.04,0.24,0.08,-0.22,0.14,-0.075,-0.172,-0.125,-0.025,-0.433,-0.34
-0.193,0.047,0.24,0.073,-0.216,0.143,-0.075,-0.17,-0.124,-0.024,-0.43,-0.34
-0.17,0.065,0.234,0.052,-0.203,0.149,-0.075,-0.162,-0.126,-0.03,-0.427,-0.339
-0.157,0.064,0.221,0.046,-0.19,0.143,-0.074,-0.156,-0.124,-0.029,-0.426,-0.333
-0.146,0.066,0.212,0.04,-0.179,0.138,-0.07,-0.148,-0.126,-0.024,-0.419,-0.327
-0.135,0.064,0.199,0.035,-0.168,0.131,-0.07,-0.143,-0.113,-0.021,-0.422,-0.321
-0.123,0.068,0.19,0.027,-0.157,0.129,-0.067,-0.136,-0.083,-0.015,-0.404,-0.315
-0.092,0.088,0.18,0.002,-0.136,0.134,-0.062,-0.132,-0.08,-0.006,-0.369,-0.315
-0.082,0.087,0.168,-0.003,-0.125,0.127,-0.052,-0.122,-0.078,-0.003,-0.371,-0.315
-0.13,0.055,0.185,0.037,-0.158,0.12,-0.073,-0.147,-0.094,-0.029,-0.394,-0.314
-0.176,0.011,0.187,0.082,-0.182,0.098,-0.102,-0.194,-0.13,-0.058,-0.413,-0.316
-0.185,-0.004,0.18,0.094,-0.182,0.088,-0.096,-0.192,-0.121,-0.056,-0.402,-0.314
-0.19,-0.016,0.174,0.103,-0.182,0.079,-0.087,-0.182,-0.124,-0.071,-0.403,-0.328
-0.196,-0.019,0.177,0.107,-0.186,0.079,-0.087,-0.181,-0.116,-0.066,-0.391,-0.324
-0.208,-0.036,0.173,0.122,-0.19,0.068,-0.076,-0.167,-0.116,-0.07,-0.391,-0.326
-0.206,-0.036,0.17,0.121,-0.188,0.066,-0.084,-0.17,-0.115,-0.063,-0.383,-0.32
-0.218,-0.045,0.172,0.131,-0.195,0.063,-0.077,-0.154,-0.106,-0.058,-0.376,-0.316
-0.203,-0.038,0.166,0.12,-0.184,0.064,-0.081,-0.161,-0.118,-0.066,-0.38,-0.32
-0.21,-0.022,0.188,0.115,-0.199,0.083,-0.082,-0.147,-0.097,-0.041,-0.36,-0.303
-0.207,-0.047,0.161,0.127,-0.184,0.057,-0.06,-0.145,-0.108,-0.075,-0.371,-0.304
-0.262,0.085,0.347,0.088,-0.305,0.216,0.015,-0.102,0.037,0.048,-0.264,-0.234
-0.379,0.058,0.437,0.16,-0.408,0.247,0.219,0.132,0.082,0.049,-0.269,-0.266
0.285,0.141,-0.144,-0.213,0.214,-0.002,-0.15,0.368,0.263,0.376,0.018,0.039
1.09,0.163,-0.926,-0.626,1.008,-0.381,-0.706,0.106,0.248,0.551,0.205,0.336
0.743,-0.244,-0.987,-0.249,0.865,-0.615,-0.586,-0.816,-0.504,-0.249,-0.377,-0.096
0.065,-0.344,-0.409,0.14,0.237,-0.377,-0.313,-1.091,-0.644,-0.489,-0.577,-0.347
-0.204,-0.365,-0.161,0.284,-0.021,-0.263,-0.131,-0.657,-0.405,-0.337,-0.505,-0.358
-0.247,-0.407,-0.161,0.327,-0.043,-0.284,-0.044,-0.361,-0.284,-0.25,-0.454,-0.355
-0.204,-0.329,-0.125,0.266,-0.039,-0.226,0.001,-0.094,-0.093,-0.08,-0.317,-0.278
-0.182,-0.284,-0.102,0.233,-0.04,-0.193,0.044,-0.013,-0.043,-0.065,-0.291,-0.247
-0.165,-0.254,-0.089,0.21,-0.038,-0.171,0.048,0.022,0.016,0.002,-0.234,-0.199
-0.151,-0.256,-0.105,0.203,-0.023,-0.18,0.054,0.054,0.033,0.006,-0.225,-0.199
-0.137,-0.237,-0.099,0.187,-0.019,-0.168,0.046,0.05,0.046,0.012,-0.21,-0.191
-0.112,-0.236,-0.124,0.174,0.006,-0.18,0.045,0.061,0.048,0.03,-0.198,-0.185
-0.105,-0.222,-0.117,0.164,0.006,-0.17,0.041,0.069,0.062,0.037,-0.194,-0.181
-0.096,-0.22,-0.124,0.158,0.014,-0.172,0.036,0.079,0.068,0.044,-0.184,-0.174
-0.088,-0.201,-0.114,0.145,0.013,-0.157,0.036,0.071,0.063,0.037,-0.18,-0.166
-0.09,-0.18,-0.089,0.135,0.0,-0.134,0.052,0.093,0.066,0.043,-0.156,-0.148
-0.092,-0.239,-0.147,0.165,0.028,-0.193,0.066,0.113,0.065,0.038,-0.138,-0.138
-0.082,-0.267,-0.185,0.175,0.052,-0.226,0.078,0.142,0.092,0.043,-0.119,-0.124
-0.052,-0.272,-0.219,0.162,0.084,-0.245,0.087,0.174,0.11,0.066,-0.097,-0.113
-0.045,-0.279,-0.234,0.162,0.094,-0.256,0.084,0.191,0.124,0.077,-0.081,-0.1
-0.01,-0.267,-0.256,0.139,0.123,-0.261,0.086,0.221,0.136,0.079,-0.073,-0.084
0.03,-0.26,-0.29,0.115,0.16,-0.275,0.085,0.261,0.165,0.104,-0.049,-0.056
0.035,-0.253,-0.289,0.109,0.162,-0.271,0.085,0.279,0.181,0.127,-0.017,-0.025
0.076,-0.232,-0.308,0.078,0.192,-0.269,0.078,0.31,0.206,0.155,0.008,0.005
0.123,-0.19,-0.313,0.033,0.219,-0.251,0.07,0.346,0.241,0.191,0.045,0.046
0.163,-0.175,-0.338,0.007,0.251,-0.256,0.061,0.346,0.256,0.223,0.094,0.08
0.197,-0.152,-0.349,-0.022,0.273,-0.25,0.043,0.355,0.284,0.258,0.136,0.115
0.23,-0.112,-0.342,-0.059,0.286,-0.227,0.038,0.358,0.299,0.278,0.166,0.154
0.239,-0.109,-0.348,-0.065,0.294,-0.228,0.041,0.343,0.296,0.277,0.184,0.166
0.237,-0.111,-0.348,-0.063,0.293,-0.23,0.043,0.329,0.287,0.268,0.196,0.159
0.245,-0.107,-0.352,-0.069,0.298,-0.229,0.046,0.303,0.278,0.264,0.191,0.159
0.197,-0.141,-0.338,-0.028,0.268,-0.239,0.046,0.27,0.263,0.246,0.164,0.143
0.103,-0.205,-0.308,0.051,0.206,-0.256,0.053,0.232,0.232,0.203,0.127,0.095
0.028,-0.259,-0.286,0.116,0.157,-0.272,0.065,0.188,0.196,0.16,0.084,0.048
0.0,-0.305,-0.305,0.153,0.152,-0.305,0.077,0.145,0.162,0.121,0.049,0.019
-0.037,-0.356,-0.319,0.197,0.141,-0.337,0.085,0.114,0.138,0.088,0.034,0.007
-0.064,-0.373,-0.309,0.218,0.123,-0.341,0.089,0.102,0.122,0.059,0.023,0.0
-0.082,-0.393,-0.311,0.237,0.114,-0.352,0.09,0.096,0.111,0.041,0.015,-0.009
-0.12,-0.425,-0.305,0.273,0.093,-0.365,0.09,0.089,0.1,0.034,0.012,-0.026
-0.12,-0.425,-0.304,0.273,0.092,-0.364,0.089,0.083,0.095,0.028,0.008,-0.036
-0.097,-0.425,-0.328,0.261,0.116,-0.376,0.085,0.076,0.09,0.021,0.005,-0.034
-0.09,-0.425,-0.335,0.258,0.123,-0.38,0.085,0.071,0.084,0.014,0.0,-0.035
-0.099,-0.424,-0.326,0.262,0.114,-0.375,0.083,0.07,0.079,0.008,0.002,-0.035
-0.1,-0.424,-0.325,0.262,0.113,-0.375,0.079,0.07,0.073,0.005,0.006,-0.035
-0.099,-0.417,-0.317,0.258,0.109,-0.367,0.08,0.07,0.07,0.005,0.005,-0.033
-0.095,-0.411,-0.316,0.254,0.11,-0.363,0.08,0.07,0.07,0.003,0.008,-0.028
-0.083,-0.404,-0.321,0.244,0.119,-0.362,0.08,0.069,0.068,0.0,0.011,-0.025
-0.081,-0.397,-0.316,0.239,0.118,-0.357,0.079,0.065,0.064,0.0,0.009,-0.022
-0.08,-0.391,-0.311,0.236,0.116,-0.351,0.076,0.065,0.065,0.004,0.018,-0.017
-0.083,-0.388,-0.305,0.236,0.111,-0.347,0.073,0.065,0.077,0.005,0.024,-0.014
-0.085,-0.385,-0.3,0.235,0.108,-0.342,0.07,0.065,0.081,0.005,0.026,-0.011
-0.087,-0.382,-0.294,0.235,0.104,-0.338,0.067,0.065,0.079,0.009,0.04,-0.006
-0.076,-0.378,-0.302,0.227,0.113,-0.34,0.065,0.062,0.077,0.01,0.047,-0.004
-0.057,-0.368,-0.311,0.212,0.127,-0.339,0.063,0.058,0.075,0.008,0.048,0.0
-0.06,-0.355,-0.295,0.208,0.118,-0.325,0.058,0.055,0.075,0.005,0.054,0.005
-0.057,-0.346,-0.289,0.201,0.116,-0.317,0.055,0.051,0.071,0.005,0.054,0.005
-0.054,-0.345,-0.291,0.199,0.119,-0.317,0.052,0.049,0.068,0.005,0.051,0.005
-0.06,-0.344,-0.283,0.202,0.112,-0.313,0.047,0.043,0.065,0.005,0.05,0.005
-0.062,-0.332,-0.27,0.198,0.104,-0.301,0.044,0.037,0.062,0.005,0.05,0.005
-0.056,-0.32,-0.264,0.189,0.104,-0.292,0.041,0.032,0.06,0.001,0.05,0.005
-0.045,-0.31,-0.266,0.178,0.111,-0.288,0.038,0.026,0.06,0.0,0.05,0.006
-0.044,-0.305,-0.26,0.175,0.108,-0.282,0.036,0.021,0.06,0.0,0.052,0.009
-0.045,-0.3,-0.255,0.173,0.105,-0.277,0.032,0.016,0.06,0.0,0.055,0.012
-0.039,-0.294,-0.255,0.167,0.108,-0.274,0.03,0.014,0.06,0.0,0.055,0.014
-0.034,-0.289,-0.255,0.162,0.111,-0.272,0.027,0.011,0.06,0.0,0.061,0.018
-0.032,-0.283,-0.251,0.158,0.11,-0.266,0.025,0.009,0.061,0.0,0.068,0.02
-0.036,-0.281,-0.244,0.159,0.104,-0.262,0.025,0.005,0.064,0.0,0.071,0.023
-0.037,-0.277,-0.24,0.157,0.102,-0.258,0.022,0.006,0.065,0.0,0.075,0.025
-0.041,-0.275,-0.234,0.158,0.097,-0.254,0.019,0.02,0.065,0.0,0.081,0.026
-0.043,-0.271,-0.229,0.157,0.093,-0.25,0.022,0.026,0.065,0.0,0.087,0.03
-0.045,-0.268,-0.223,0.157,0.089,-0.246,0.034,0.025,0.065,-0.004,0.093,0.03
-0.073,-0.293,-0.22,0.183,0.073,-0.256,0.035,0.025,0.063,-0.005,0.095,0.035
-0.087,-0.302,-0.215,0.195,0.064,-0.258,0.03,0.025,0.058,-0.005,0.103,0.035
-0.083,-0.295,-0.213,0.189,0.066,-0.254,0.029,0.025,0.055,-0.005,0.112,0.036
-0.086,-0.294,-0.208,0.19,0.061,-0.251,0.025,0.029,0.052,-0.005,0.116,0.041
-0.086,-0.291,-0.205,0.189,0.059,-0.247,0.025,0.03,0.047,-0.004,0.117,0.039
-0.07,-0.289,-0.219,0.18,0.075,-0.254,0.04,0.03,0.046,0.0,0.122,0.043
-0.078,-0.291,-0.214,0.185,0.068,-0.252,0.052,0.035,0.052,0.0,0.132,0.045
-0.085,-0.282,-0.197,0.183,0.056,-0.239,0.05,0.035,0.063,0.0,0.136,0.046
-0.05,-0.238,-0.188,0.144,0.07,-0.213,0.05,0.036,0.067,0.0,0.152,0.062
-0.044,-0.22,-0.176,0.133,0.066,-0.198,0.055,0.041,0.077,-0.001,0.156,0.071
-0.044,-0.213,-0.169,0.128,0.062,-0.19,0.054,0.043,0.097,0.011,0.166,0.077
-0.023,-0.177,-0.154,0.1,0.066,-0.165,0.042,0.048,0.109,0.029,0.197,0.094
0.001,-0.154,-0.155,0.077,0.078,-0.154,0.026,0.048,0.111,0.035,0.211,0.106
0.009,-0.166,-0.175,0.079,0.093,-0.17,0.01,0.025,0.092,0.025,0.197,0.099
-0.012,-0.204,-0.191,0.108,0.09,-0.197,0.005,0.004,0.073,0.009,0.174,0.084
-0.052,-0.245,-0.192,0.149,0.07,-0.218,0.005,-0.003,0.05,-0.012,0.164,0.065
-0.092,-0.271,-0.179,0.182,0.044,-0.224,0.011,-0.014,0.037,-0.021,0.165,0.055
-0.098,-0.277,-0.179,0.188,0.041,-0.228,0.019,-0.017,0.016,-0.046,0.152,0.043
-0.109,-0.274,-0.165,0.192,0.028,-0.219,0.006,-0.017,0.012,-0.046,0.153,0.045
-0.111,-0.278,-0.166,0.195,0.028,-0.222,0.006,-0.027,0.006,-0.058,0.143,0.033
-0.102,-0.23,-0.128,0.166,0.013,-0.179,-0.008,-0.042,0.002,-0.057,0.15,0.031
-0.094,-0.193,-0.1,0.144,0.003,-0.146,-0.008,-0.028,0.005,-0.049,0.153,0.027
-0.065,-0.181,-0.116,0.123,0.026,-0.148,-0.027,-0.043,-0.015,-0.074,0.142,0.019
-0.059,-0.136,-0.077,0.098,0.009,-0.106,-0.018,-0.029,0.013,-0.049,0.165,0.036
-0.076,-0.145,-0.068,0.111,-0.004,-0.106,-0.005,-0.039,-0.018,-0.089,0.123,0.008
-0.16,0.009,0.169,0.075,-0.164,0.089,0.051,0.006,0.119,0.028,0.223,0.081
-0.231,0.048,0.279,0.092,-0.255,0.163,0.242,0.251,0.186,0.052,0.242,0.072
0.415,0.172,-0.243,-0.294,0.329,-0.036,-0.156,0.413,0.32,0.35,0.504,0.352
1.237,0.299,-0.938,-0.768,1.087,-0.319,-0.732,0.11,0.32,0.558,0.716,0.657
0.95,-0.077,-1.027,-0.436,0.989,-0.552,-0.641,-0.776,-0.424,-0.229,0.137,0.24
0.283,-0.216,-0.498,-0.033,0.391,-0.357,-0.373,-1.054,-0.638,-0.545,-0.117,-0.046
-0.05,-0.275,-0.224,0.163,0.087,-0.249,-0.168,-0.608,-0.398,-0.396,-0.06,-0.078
-0.128,-0.325,-0.197,0.227,0.035,-0.261,-0.04,-0.277,-0.243,-0.296,-0.008,-0.075
-0.062,-0.239,-0.177,0.151,0.058,-0.208,0.035,-0.011,-0.05,-0.116,0.127,0.004
-0.046,-0.237,-0.19,0.142,0.072,-0.213,0.072,0.066,0.003,-0.083,0.169,0.043
-0.031,-0.211,-0.18,0.121,0.075,-0.195,0.066,0.108,0.074,-0.02,0.229,0.087
-0.035,-0.236,-0.201,0.136,0.083,-0.219,0.075,0.128,0.072,-0.011,0.225,0.082
-0.027,-0.227,-0.2,0.127,0.087,-0.213,0.091,0.13,0.099,0.012,0.248,0.107
-0.035,-0.233,-0.199,0.134,0.082,-0.216,0.097,0.163,0.111,0.026,0.251,0.116
-0.045,-0.247,-0.202,0.146,0.078,-0.224,0.094,0.163,0.099,0.025,0.252,0.114
-0.026,-0.224,-0.197,0.125,0.086,-0.21,0.096,0.167,0.11,0.038,0.267,0.115
-0.024,-0.226,-0.202,0.125,0.089,-0.214,0.095,0.163,0.101,0.032,0.266,0.119
-0.018,-0.229,-0.211,0.123,0.097,-0.22,0.094,0.185,0.118,0.038,0.293,0.141
-0.015,-0.233,-0.218,0.124,0.102,-0.226,0.087,0.191,0.129,0.033,0.295,0.143
0.011,-0.226,-0.237,0.107,0.125,-0.231,0.098,0.212,0.139,0.038,0.301,0.148
0.022,-0.218,-0.239,0.098,0.131,-0.229,0.113,0.231,0.143,0.055,0.304,0.151
0.022,-0.211,-0.233,0.095,0.128,-0.222,0.121,0.257,0.156,0.063,0.322,0.168
0.022,-0.21,-0.232,0.094,0.127,-0.221,0.133,0.286,0.161,0.059,0.34,0.176
0.017,-0.208,-0.225,0.096,0.121,-0.216,0.128,0.296,0.168,0.077,0.337,0.179
0.08,-0.145,-0.225,0.033,0.153,-0.185,0.121,0.341,0.206,0.117,0.378,0.223
0.138,-0.086,-0.224,-0.026,0.181,-0.155,0.114,0.37,0.229,0.136,0.399,0.244
0.174,-0.053,-0.227,-0.06,0.201,-0.139,0.09,0.382,0.24,0.157,0.409,0.254
0.236,0.023,-0.213,-0.129,0.224,-0.095,0.068,0.389,0.259,0.188,0.442,0.285
0.273,0.085,-0.188,-0.178,0.23,-0.052,0.056,0.38,0.271,0.203,0.465,0.311
0.297,0.122,-0.174,-0.209,0.235,-0.026,0.037,0.375,0.275,0.225,0.487,0.333
0.331,0.161,-0.17,-0.245,0.25,-0.004,0.033,0.367,0.277,0.242,0.498,0.343
0.335,0.182,-0.152,-0.258,0.243,0.015,0.036,0.361,0.273,0.244,0.504,0.343
0.305,0.183,-0.123,-0.244,0.214,0.03,0.034,0.341,0.265,0.234,0.499,0.336
0.287,0.148,-0.14,-0.217,0.213,0.004,0.036,0.306,0.254,0.212,0.486,0.322
0.246,0.101,-0.146,-0.173,0.196,-0.022,0.035,0.258,0.225,0.181,0.467,0.309
0.18,0.043,-0.136,-0.111,0.158,-0.047,0.054,0.214,0.202,0.151,0.433,0.283
0.112,-0.021,-0.133,-0.046,0.123,-0.077,0.083,0.179,0.181,0.125,0.401,0.246
0.06,-0.064,-0.125,0.002,0.093,-0.094,0.085,0.141,0.149,0.09,0.372,0.217
0.045,-0.103,-0.148,0.03,0.096,-0.125,0.084,0.121,0.13,0.068,0.353,0.198
0.026,-0.128,-0.154,0.051,0.09,-0.14,0.096,0.113,0.119,0.052,0.343,0.189
0.019,-0.125,-0.145,0.053,0.082,-0.135,0.095,0.102,0.108,0.037,0.337,0.183
0.017,-0.123,-0.14,0.053,0.079,-0.131,0.083,0.093,0.097,0.033,0.331,0.176
0.016,-0.119,-0.135,0.051,0.076,-0.127,0.077,0.089,0.093,0.027,0.325,0.175
0.01,-0.115,-0.125,0.053,0.068,-0.12,0.078,0.087,0.087,0.024,0.325,0.175
0.006,-0.126,-0.132,0.06,0.069,-0.129,0.082,0.084,0.084,0.018,0.323,0.175
0.003,-0.15,-0.153,0.074,0.078,-0.151,0.084,0.08,0.079,0.015,0.32,0.175
-0.005,-0.164,-0.159,0.085,0.078,-0.162,0.088,0.08,0.074,0.02,0.319,0.175
0.016,-0.166,-0.181,0.076,0.099,-0.174,0.095,0.084,0.086,0.02,0.322,0.175
-0.011,-0.199,-0.187,0.105,0.088,-0.193,0.095,0.087,0.091,0.02,0.325,0.175
-0.036,-0.218,-0.183,0.127,0.074,-0.2,0.095,0.091,0.089,0.02,0.324,0.175
-0.028,-0.216,-0.187,0.122,0.08,-0.201,0.095,0.095,0.087,0.02,0.328,0.175
-0.039,-0.222,-0.183,0.131,0.072,-0.202,0.094,0.093,0.084,0.02,0.33,0.175
-0.037,-0.223,-0.186,0.13,0.075,-0.204,0.098,0.086,0.085,0.02,0.33,0.175
-0.033,-0.227,-0.194,0.13,0.081,-0.21,0.095,0.081,0.08,0.02,0.336,0.181
-0.025,-0.214,-0.189,0.12,0.082,-0.202,0.089,0.076,0.08,0.019,0.342,0.187
-0.01,-0.191,-0.182,0.101,0.086,-0.186,0.084,0.07,0.08,0.036,0.349,0.191
-0.009,-0.183,-0.173,0.096,0.082,-0.178,0.078,0.065,0.08,0.042,0.355,0.195
-0.008,-0.175,-0.167,0.092,0.08,-0.171,0.072,0.06,0.08,0.035,0.354,0.195
-0.007,-0.169,-0.163,0.088,0.078,-0.166,0.067,0.057,0.078,0.035,0.355,0.195
-0.004,-0.162,-0.159,0.083,0.078,-0.16,0.064,0.053,0.073,0.03,0.354,0.194
-0.002,-0.156,-0.153,0.079,0.076,-0.154,0.061,0.05,0.071,0.031,0.355,0.195
-0.021,-0.17,-0.149,0.095,0.065,-0.159,0.058,0.045,0.066,0.034,0.354,0.194
-0.004,-0.159,-0.155,0.082,0.076,-0.157,0.053,0.046,0.063,0.038,0.353,0.193
0.02,-0.125,-0.145,0.053,0.082,-0.135,0.052,0.045,0.06,0.041,0.348,0.188
0.019,-0.085,-0.103,0.033,0.061,-0.094,0.048,0.044,0.059,0.043,0.344,0.184
0.041,-0.034,-0.074,-0.003,0.058,-0.054,0.056,0.07,0.082,0.052,0.368,0.205
0.062,-0.014,-0.076,-0.023,0.069,-0.044,0.063,0.078,0.088,0.053,0.37,0.205
0.067,-0.01,-0.077,-0.029,0.072,-0.043,0.037,0.041,0.066,0.038,0.351,0.186
0.04,-0.043,-0.083,0.002,0.061,-0.062,0.023,-0.017,0.02,-0.009,0.337,0.171
-0.018,-0.067,-0.049,0.043,0.016,-0.058,0.01,-0.049,0.016,-0.007,0.332,0.157
-0.045,-0.063,-0.018,0.055,-0.013,-0.04,0.001,-0.042,0.03,0.0,0.326,0.143
-0.049,-0.061,-0.012,0.055,-0.018,-0.037,-0.006,-0.048,0.018,-0.037,0.319,0.143
-0.046,-0.055,-0.009,0.05,-0.018,-0.031,-0.005,-0.042,0.019,-0.036,0.318,0.148
-0.048,-0.06,-0.012,0.054,-0.017,-0.035,-0.004,-0.047,0.001,-0.04,0.304,0.141
-0.045,-0.044,0.001,0.045,-0.023,-0.021,-0.008,-0.042,0.009,-0.019,0.319,0.158
-0.036,-0.05,-0.014,0.043,-0.011,-0.032,0.0,-0.036,-0.016,-0.035,0.297,0.139
-0.033,-0.013,0.02,0.023,-0.026,0.004,-0.014,-0.039,0.017,-0.002,0.325,0.166
-0.03,-0.028,0.002,0.028,-0.016,-0.013,0.02,-0.02,0.002,-0.029,0.299,0.146
-0.053,0.073,0.127,-0.01,-0.09,0.099,0.039,-0.015,0.066,0.044,0.373,0.192
-0.218,0.138,0.357,0.04,-0.288,0.247,0.233,0.164,0.21,0.137,0.438,0.226
0.079,0.088,0.009,-0.083,0.035,0.048,0.14,0.399,0.248,0.235,0.52,0.318
1.092,0.235,-0.857,-0.663,0.974,-0.311,-0.499,0.373,0.377,0.603,0.852,0.736
1.239,-0.04,-1.279,-0.599,1.259,-0.659,-0.629,-0.353,-0.142,0.108,0.498,0.541
0.445,-0.32,-0.765,-0.062,0.605,-0.542,-0.337,-1.011,-0.614,-0.456,0.117,0.124
-0.004,-0.305,-0.301,0.155,0.148,-0.303,-0.123,-0.736,-0.392,-0.314,0.157,0.079
-0.122,-0.341,-0.219,0.231,0.049,-0.28,0.02,-0.359,-0.249,-0.231,0.145,0.042
-0.095,-0.229,-0.134,0.162,0.02,-0.181,0.066,-0.084,-0.075,-0.061,0.288,0.132
-0.042,-0.141,-0.099,0.091,0.029,-0.12,0.075,0.056,0.012,0.001,0.322,0.169
-0.025,-0.078,-0.053,0.051,0.014,-0.065,0.058,0.071,0.037,0.027,0.341,0.172
-0.022,-0.037,-0.015,0.03,-0.003,-0.026,0.058,0.107,0.066,0.051,0.355,0.179
-0.026,-0.012,0.014,0.019,-0.02,0.001,0.048,0.092,0.048,0.036,0.345,0.17
-0.005,0.03,0.035,-0.013,-0.02,0.032,0.046,0.105,0.061,0.053,0.356,0.179
-0.007,0.037,0.044,-0.015,-0.026,0.041,0.051,0.097,0.049,0.039,0.341,0.171
-0.019,0.044,0.063,-0.013,-0.041,0.053,0.049,0.101,0.052,0.044,0.348,0.177
-0.023,0.063,0.086,-0.02,-0.055,0.074,0.051,0.1,0.049,0.038,0.338,0.174
-0.004,0.088,0.092,-0.042,-0.048,0.09,0.049,0.102,0.05,0.042,0.341,0.174
0.032,0.123,0.09,-0.078,-0.029,0.106,0.05,0.111,0.051,0.05,0.353,0.192
0.049,0.146,0.097,-0.098,-0.024,0.121,0.046,0.119,0.049,0.055,0.354,0.201
0.061,0.154,0.093,-0.108,-0.016,0.123,0.044,0.132,0.066,0.062,0.357,0.2
0.084,0.172,0.089,-0.129,-0.003,0.13,0.046,0.152,0.075,0.076,0.361,0.199
0.106,0.188,0.082,-0.148,0.012,0.135,0.044,0.176,0.081,0.084,0.372,0.221
0.126,0.204,0.078,-0.165,0.024,0.141,0.046,0.194,0.098,0.098,0.387,0.25
0.155,0.227,0.071,-0.191,0.042,0.149,0.044,0.222,0.112,0.12,0.406,0.261
0.196,0.262,0.066,-0.229,0.065,0.164,0.03,0.25,0.127,0.143,0.43,0.279
0.212,0.293,0.081,-0.253,0.066,0.186,0.013,0.269,0.154,0.174,0.451,0.305
0.258,0.337,0.079,-0.298,0.089,0.208,-0.001,0.289,0.182,0.213,0.482,0.35
0.311,0.378,0.067,-0.344,0.122,0.222,-0.008,0.3,0.199,0.246,0.512,0.383
0.332,0.386,0.053,-0.359,0.139,0.219,-0.019,0.301,0.224,0.268,0.546,0.4
0.353,0.389,0.036,-0.371,0.158,0.213,-0.023,0.303,0.242,0.299,0.568,0.423
0.346,0.378,0.032,-0.362,0.157,0.205,-0.019,0.291,0.234,0.306,0.557,0.419
0.338,0.364,0.026,-0.351,0.156,0.194,-0.011,0.273,0.227,0.301,0.549,0.409
0.322,0.344,0.021,-0.333,0.15,0.182,-0.009,0.252,0.222,0.287,0.542,0.402
0.274,0.288,0.014,-0.281,0.129,0.151,0.011,0.216,0.196,0.243,0.516,0.376
0.211,0.223,0.012,-0.217,0.099,0.117,0.045,0.168,0.159,0.199,0.474,0.334
0.151,0.17,0.019,-0.16,0.066,0.094,0.051,0.126,0.13,0.164,0.435,0.296
0.113,0.12,0.008,-0.117,0.052,0.064,0.061,0.098,0.102,0.141,0.407,0.264
0.087,0.079,-0.008,-0.083,0.047,0.035,0.066,0.08,0.083,0.125,0.388,0.238
0.072,0.058,-0.014,-0.064,0.043,0.021,0.064,0.064,0.076,0.107,0.379,0.227
0.07,0.054,-0.016,-0.062,0.043,0.019,0.065,0.054,0.069,0.096,0.372,0.22
0.062,0.048,-0.014,-0.055,0.038,0.017,0.065,0.055,0.063,0.094,0.366,0.21
0.059,0.043,-0.016,-0.051,0.038,0.013,0.065,0.055,0.055,0.091,0.359,0.206
0.05,0.036,-0.013,-0.042,0.031,0.011,0.065,0.055,0.052,0.088,0.352,0.203
0.06,0.037,-0.023,-0.048,0.041,0.007,0.091,0.055,0.06,0.086,0.346,0.2
0.082,0.041,-0.041,-0.061,0.062,0.0,0.103,0.057,0.057,0.083,0.339,0.197
0.078,0.039,-0.039,-0.059,0.059,0.0,0.101,0.061,0.051,0.08,0.332,0.194
0.082,0.041,-0.041,-0.062,0.062,0.0,0.108,0.059,0.048,0.079,0.332,0.197
0.077,0.038,-0.039,-0.057,0.058,-0.001,0.108,0.064,0.042,0.081,0.335,0.2
0.081,0.043,-0.038,-0.062,0.059,0.003,0.112,0.065,0.041,0.079,0.334,0.2
0.055,0.001,-0.054,-0.028,0.055,-0.026,0.098,0.065,0.048,0.081,0.335,0.2
0.044,-0.039,-0.084,-0.002,0.064,-0.061,0.096,0.072,0.054,0.082,0.335,0.2
0.065,-0.043,-0.108,-0.011,0.086,-0.075,0.122,0.081,0.068,0.094,0.335,0.205
0.031,-0.083,-0.114,0.026,0.073,-0.098,0.125,0.088,0.079,0.119,0.341,0.213
0.041,-0.095,-0.137,0.027,0.089,-0.116,0.119,0.088,0.08,0.122,0.343,0.216
0.055,-0.081,-0.136,0.013,0.096,-0.108,0.117,0.083,0.08,0.12,0.338,0.215
0.049,-0.076,-0.125,0.014,0.087,-0.1,0.112,0.077,0.08,0.12,0.334,0.215
0.069,-0.068,-0.137,0.0,0.104,-0.102,0.11,0.074,0.08,0.116,0.332,0.213
0.076,-0.058,-0.133,-0.009,0.105,-0.095,0.104,0.068,0.079,0.114,0.326,0.209
0.056,-0.095,-0.15,0.019,0.103,-0.122,0.097,0.066,0.082,0.116,0.326,0.21
0.041,-0.123,-0.163,0.041,0.102,-0.143,0.091,0.074,0.08,0.127,0.335,0.215
0.038,-0.09,-0.128,0.026,0.083,-0.109,0.084,0.063,0.071,0.126,0.328,0.208
0.03,-0.063,-0.093,0.017,0.062,-0.078,0.078,0.047,0.063,0.115,0.317,0.199
0.035,-0.032,-0.067,-0.002,0.052,-0.05,0.072,0.039,0.054,0.111,0.308,0.19
0.044,-0.005,-0.049,-0.019,0.047,-0.027,0.068,0.033,0.05,0.108,0.297,0.18
0.038,-0.005,-0.043,-0.017,0.041,-0.024,0.063,0.029,0.051,0.106,0.29,0.175
0.03,-0.008,-0.037,-0.011,0.034,-0.022,0.058,0.022,0.047,0.102,0.28,0.171
0.023,-0.009,-0.032,-0.006,0.027,-0.021,0.055,0.017,0.045,0.1,0.272,0.169
0.006,-0.021,-0.027,0.008,0.017,-0.024,0.046,0.016,0.044,0.102,0.267,0.164
0.0,-0.018,-0.018,0.009,0.01,-0.018,0.061,0.023,0.049,0.106,0.262,0.161
0.02,-0.007,-0.027,-0.007,0.024,-0.016,0.077,0.027,0.05,0.103,0.258,0.159
0.04,0.008,-0.033,-0.024,0.036,-0.012,0.075,0.033,0.057,0.11,0.254,0.161
0.038,0.011,-0.027,-0.024,0.032,-0.008,0.075,0.036,0.057,0.109,0.249,0.159
0.053,0.036,-0.017,-0.044,0.035,0.009,0.075,0.042,0.064,0.111,0.262,0.161
0.098,0.084,-0.014,-0.091,0.056,0.034,0.087,0.068,0.086,0.134,0.28,0.179
0.102,0.079,-0.022,-0.09,0.062,0.028,0.074,0.058,0.083,0.125,0.276,0.171
0.098,0.062,-0.035,-0.08,0.066,0.013,0.053,0.006,0.054,0.103,0.239,0.152
0.08,0.053,-0.026,-0.066,0.053,0.013,0.04,-0.039,0.012,0.089,0.198,0.136
0.02,0.062,0.042,-0.041,-0.011,0.052,0.031,-0.041,0.014,0.08,0.196,0.124
-0.009,0.053,0.062,-0.022,-0.036,0.057,0.038,-0.036,0.002,0.07,0.186,0.117
0.011,0.059,0.048,-0.036,-0.019,0.053,0.031,-0.036,-0.013,0.08,0.191,0.121
0.013,0.023,0.01,-0.018,0.001,0.016,0.046,-0.028,-0.006,0.066,0.178,0.11
0.005,-0.008,-0.013,0.002,0.009,-0.01,0.049,-0.034,0.017,0.074,0.183,0.115
-0.004,-0.029,-0.026,0.017,0.011,-0.027,0.051,-0.018,0.023,0.069,0.183,0.107
-0.004,-0.048,-0.044,0.026,0.02,-0.045,0.058,-0.018,0.026,0.073,0.185,0.12
0.019,-0.048,-0.066,0.015,0.042,-0.056,0.073,0.004,0.05,0.099,0.2,0.138
0.012,-0.057,-0.07,0.023,0.041,-0.063,0.068,-0.005,0.029,0.076,0.179,0.112
-0.094,0.082,0.176,0.006,-0.135,0.129,0.181,0.08,0.195,0.216,0.282,0.187
-0.149,0.049,0.198,0.049,-0.173,0.123,0.348,0.322,0.234,0.223,0.273,0.173
0.585,0.182,-0.403,-0.383,0.494,-0.111,-0.142,0.433,0.337,0.516,0.53,0.471
1.346,0.244,-1.102,-0.795,1.224,-0.428,-0.67,0.035,0.199,0.537,0.582,0.657
0.888,-0.102,-0.99,-0.392,0.939,-0.546,-0.51,-0.847,-0.515,-0.247,-0.023,0.187
0.2,-0.156,-0.356,-0.022,0.278,-0.256,-0.247,-1.014,-0.593,-0.417,-0.187,-0.046
-0.054,-0.153,-0.099,0.104,0.022,-0.125,-0.081,-0.577,-0.373,-0.275,-0.132,-0.074
-0.086,-0.113,-0.028,0.1,-0.029,-0.07,0.018,-0.276,-0.232,-0.176,-0.084,-0.056
-0.036,-0.005,0.032,0.02,-0.034,0.013,0.058,-0.049,-0.069,-0.031,0.021,0.005
-0.043,0.042,0.085,0.0,-0.064,0.063,0.074,-0.007,-0.053,-0.016,0.037,0.022
-0.013,0.093,0.106,-0.041,-0.06,0.099,0.077,0.045,0.006,0.033,0.065,0.049
-0.018,0.106,0.123,-0.044,-0.071,0.114,0.076,0.064,0.008,0.033,0.044,0.036
-0.026,0.122,0.149,-0.048,-0.088,0.135,0.066,0.055,0.009,0.042,0.045,0.042
-0.014,0.117,0.131,-0.052,-0.072,0.124,0.066,0.065,0.012,0.04,0.035,0.039
-0.012,0.126,0.138,-0.057,-0.075,0.131,0.059,0.056,0.007,0.039,0.026,0.039
-0.018,0.135,0.154,-0.059,-0.087,0.144,0.056,0.063,0.013,0.042,0.022,0.041
-0.018,0.14,0.159,-0.061,-0.089,0.149,0.051,0.064,0.01,0.039,0.013,0.036
0.004,0.152,0.148,-0.078,-0.072,0.15,0.045,0.083,0.019,0.047,0.017,0.036
0.01,0.152,0.143,-0.081,-0.067,0.147,0.066,0.088,0.018,0.046,0.012,0.034
0.02,0.156,0.136,-0.088,-0.058,0.146,0.082,0.103,0.026,0.051,0.011,0.032
0.025,0.155,0.13,-0.09,-0.053,0.142,0.079,0.121,0.023,0.053,0.01,0.029
0.034,0.16,0.125,-0.097,-0.046,0.142,0.08,0.139,0.031,0.056,0.012,0.03
0.039,0.16,0.122,-0.1,-0.041,0.141,0.08,0.163,0.051,0.058,0.023,0.037
0.044,0.16,0.117,-0.102,-0.037,0.138,0.081,0.182,0.051,0.063,0.031,0.048
0.089,0.194,0.105,-0.142,-0.008,0.149,0.074,0.218,0.079,0.095,0.044,0.072
0.122,0.215,0.094,-0.169,0.014,0.154,0.061,0.247,0.105,0.114,0.053,0.09
0.158,0.241,0.082,-0.2,0.038,0.161,0.05,0.27,0.125,0.138,0.076,0.121
0.209,0.289,0.08,-0.249,0.064,0.184,0.037,0.294,0.161,0.186,0.119,0.166
0.23,0.309,0.08,-0.27,0.075,0.194,0.019,0.296,0.183,0.207,0.136,0.181
0.242,0.325,0.082,-0.284,0.08,0.203,-0.003,0.293,0.187,0.226,0.148,0.207
0.244,0.33,0.086,-0.288,0.079,0.208,-0.02,0.291,0.177,0.239,0.153,0.219
0.242,0.326,0.084,-0.285,0.078,0.205,-0.021,0.283,0.169,0.237,0.142,0.203
0.223,0.312,0.089,-0.267,0.066,0.2,-0.014,0.252,0.16,0.227,0.133,0.194
0.188,0.278,0.089,-0.233,0.049,0.183,-0.009,0.205,0.151,0.198,0.101,0.16
0.17,0.262,0.092,-0.216,0.039,0.177,-0.003,0.152,0.122,0.151,0.051,0.112
0.117,0.251,0.134,-0.184,-0.009,0.192,0.003,0.092,0.07,0.094,-0.003,0.063
0.049,0.239,0.191,-0.144,-0.071,0.215,0.009,0.038,0.02,0.037,-0.062,0.013
0.021,0.233,0.212,-0.127,-0.096,0.222,0.006,-0.01,-0.019,-0.012,-0.11,-0.029
-0.001,0.225,0.227,-0.112,-0.114,0.226,0.005,-0.036,-0.045,-0.036,-0.13,-0.055
-0.018,0.22,0.238,-0.101,-0.128,0.228,0.005,-0.054,-0.067,-0.063,-0.161,-0.074
-0.014,0.21,0.224,-0.098,-0.119,0.216,0.005,-0.061,-0.071,-0.086,-0.19,-0.087
-0.012,0.204,0.216,-0.097,-0.114,0.21,0.004,-0.053,-0.07,-0.084,-0.19,-0.085
-0.01,0.186,0.196,-0.088,-0.103,0.191,0.006,-0.05,-0.069,-0.086,-0.194,-0.085
-0.01,0.153,0.163,-0.072,-0.087,0.158,0.026,-0.045,-0.065,-0.085,-0.197,-0.086
-0.025,0.118,0.144,-0.047,-0.085,0.131,0.039,-0.04,-0.065,-0.085,-0.199,-0.084
-0.036,0.092,0.128,-0.028,-0.082,0.109,0.038,-0.036,-0.063,-0.084,-0.202,-0.087
-0.039,0.076,0.115,-0.019,-0.077,0.095,0.037,-0.035,-0.059,-0.079,-0.205,-0.089
-0.049,0.062,0.111,-0.007,-0.08,0.086,0.047,-0.035,-0.057,-0.081,-0.205,-0.093
-0.038,0.066,0.104,-0.014,-0.071,0.085,0.057,-0.035,-0.054,-0.077,-0.205,-0.095
-0.035,0.063,0.098,-0.014,-0.067,0.08,0.06,-0.035,-0.051,-0.075,-0.205,-0.091
-0.027,0.068,0.094,-0.021,-0.061,0.081,0.06,-0.036,-0.049,-0.075,-0.205,-0.09
-0.031,0.045,0.076,-0.007,-0.054,0.06,0.062,-0.04,-0.046,-0.071,-0.202,-0.09
-0.071,-0.001,0.069,0.036,-0.07,0.034,0.066,-0.04,-0.043,-0.066,-0.197,-0.085
-0.05,0.023,0.074,0.013,-0.062,0.048,0.065,-0.04,-0.041,-0.061,-0.194,-0.085
-0.045,0.044,0.089,0.0,-0.067,0.066,0.062,-0.04,-0.037,-0.058,-0.191,-0.087
-0.038,0.032,0.07,0.002,-0.054,0.051,0.057,-0.04,-0.035,-0.052,-0.186,-0.09
-0.009,0.027,0.036,-0.009,-0.023,0.031,0.054,-0.044,-0.035,-0.051,-0.185,-0.093
-0.029,0.019,0.048,0.004,-0.039,0.033,0.051,-0.046,-0.035,-0.055,-0.193,-0.095
-0.032,0.011,0.043,0.01,-0.038,0.026,0.046,-0.049,-0.035,-0.055,-0.197,-0.099
-0.033,0.027,0.06,0.002,-0.047,0.044,0.044,-0.051,-0.035,-0.059,-0.214,-0.1
-0.024,0.078,0.103,-0.027,-0.064,0.09,0.036,-0.06,-0.045,-0.071,-0.233,-0.104
-0.023,0.096,0.118,-0.037,-0.071,0.107,0.029,-0.075,-0.06,-0.086,-0.246,-0.115
-0.055,0.082,0.137,-0.014,-0.096,0.109,0.022,-0.084,-0.07,-0.096,-0.263,-0.121
-0.027,0.104,0.131,-0.039,-0.079,0.117,0.014,-0.086,-0.075,-0.094,-0.265,-0.126
-0.014,0.126,0.14,-0.056,-0.078,0.133,0.008,-0.091,-0.078,-0.099,-0.268,-0.129
-0.061,0.123,0.184,-0.031,-0.123,0.153,-0.001,-0.104,-0.083,-0.121,-0.281,-0.137
-0.051,0.161,0.213,-0.055,-0.132,0.187,-0.009,-0.115,-0.086,-0.134,-0.291,-0.146
-0.035,0.196,0.231,-0.081,-0.133,0.214,-0.022,-0.119,-0.091,-0.138,-0.29,-0.144
-0.044,0.206,0.25,-0.081,-0.147,0.228,-0.038,-0.114,-0.095,-0.144,-0.294,-0.152
-0.052,0.22,0.271,-0.084,-0.162,0.246,-0.041,-0.126,-0.105,-0.151,-0.306,-0.164
-0.037,0.233,0.27,-0.098,-0.153,0.251,-0.044,-0.135,-0.112,-0.154,-0.309,-0.161
-0.021,0.249,0.27,-0.115,-0.145,0.259,-0.047,-0.125,-0.104,-0.146,-0.303,-0.154
-0.04,0.23,0.27,-0.096,-0.155,0.25,-0.05,-0.12,-0.097,-0.139,-0.297,-0.147
-0.055,0.187,0.243,-0.066,-0.149,0.215,-0.048,-0.112,-0.091,-0.133,-0.291,-0.141
-0.066,0.14,0.207,-0.037,-0.137,0.173,-0.028,-0.105,-0.081,-0.125,-0.285,-0.134
-0.055,0.1,0.155,-0.022,-0.106,0.127,-0.01,-0.096,-0.068,-0.115,-0.275,-0.126
-0.043,0.083,0.126,-0.02,-0.085,0.104,-0.003,-0.088,-0.057,-0.105,-0.265,-0.118
-0.041,0.086,0.127,-0.023,-0.085,0.107,0.005,-0.079,-0.047,-0.095,-0.255,-0.11
-0.035,0.084,0.119,-0.025,-0.077,0.101,0.01,-0.071,-0.038,-0.085,-0.247,-0.103
-0.026,0.085,0.111,-0.03,-0.069,0.098,0.028,-0.058,-0.016,-0.075,-0.241,-0.095
0.0,0.106,0.106,-0.053,-0.053,0.106,0.043,-0.037,0.013,-0.065,-0.234,-0.087
0.02,0.114,0.094,-0.067,-0.038,0.104,0.028,-0.028,0.021,-0.055,-0.229,-0.08
0.014,0.118,0.104,-0.066,-0.045,0.111,0.02,-0.021,0.032,-0.045,-0.212,-0.062
0.028,0.118,0.09,-0.073,-0.031,0.104,0.002,-0.018,0.037,-0.028,-0.19,-0.058
0.059,0.114,0.055,-0.087,0.002,0.084,0.003,-0.008,0.049,-0.019,-0.17,-0.064
0.022,0.073,0.051,-0.048,-0.015,0.062,0.019,-0.033,0.039,-0.04,-0.19,-0.068
-0.018,0.024,0.041,-0.003,-0.03,0.032,-0.008,-0.085,-0.011,-0.071,-0.224,-0.071
-0.011,0.015,0.027,-0.002,-0.019,0.021,0.002,-0.084,-0.028,-0.076,-0.225,-0.076
-0.016,0.003,0.019,0.006,-0.018,0.011,0.017,-0.082,-0.025,-0.068,-0.224,-0.08
-0.034,-0.04,-0.006,0.037,-0.014,-0.022,0.014,-0.078,-0.023,-0.085,-0.233,-0.082
-0.042,-0.07,-0.028,0.057,-0.007,-0.049,0.017,-0.076,-0.023,-0.105,-0.244,-0.088
-0.032,-0.051,-0.019,0.042,-0.006,-0.035,0.009,-0.075,-0.016,-0.094,-0.236,-0.08
-0.04,-0.059,-0.019,0.05,-0.01,-0.038,0.013,-0.078,-0.024,-0.112,-0.252,-0.091
-0.026,-0.033,-0.007,0.03,-0.009,-0.02,0.006,-0.086,-0.007,-0.098,-0.237,-0.077
-0.025,-0.016,0.009,0.02,-0.017,-0.003,0.009,-0.079,-0.04,-0.114,-0.26,-0.097
-0.04,0.043,0.083,-0.002,-0.062,0.063,-0.013,-0.101,-0.039,-0.11,-0.261,-0.099
-0.027,0.069,0.096,-0.022,-0.061,0.082,-0.007,-0.071,-0.035,-0.11,-0.263,-0.094
-0.037,0.115,0.153,-0.039,-0.095,0.134,-0.017,-0.09,-0.03,-0.087,-0.253,-0.085
-0.19,0.263,0.453,-0.037,-0.322,0.357,0.136,0.04,0.129,0.002,-0.164,-0.06
-0.038,0.267,0.305,-0.115,-0.172,0.286,0.158,0.283,0.16,0.044,-0.133,-0.026
0.879,0.488,-0.391,-0.683,0.635,0.048,-0.487,0.233,0.364,0.506,0.26,0.427
1.239,0.38,-0.859,-0.809,1.049,-0.239,-0.791,-0.389,0.032,0.28,0.143,0.459
0.602,-0.002,-0.604,-0.3,0.602,-0.303,-0.53,-1.103,-0.673,-0.52,-0.475,-0.063
0.136,-0.007,-0.143,-0.064,0.14,-0.075,-0.302,-0.949,-0.571,-0.523,-0.526,-0.216
-0.039,-0.04,-0.001,0.039,-0.018,-0.02,-0.112,-0.515,-0.373,-0.413,-0.486,-0.249
-0.081,0.003,0.084,0.039,-0.083,0.043,-0.042,-0.231,-0.214,-0.278,-0.4,-0.214
-0.033,0.093,0.126,-0.03,-0.08,0.109,-0.018,-0.061,-0.089,-0.179,-0.331,-0.155
-0.011,0.161,0.172,-0.076,-0.092,0.166,-0.011,-0.039,-0.066,-0.17,-0.306,-0.137
-0.021,0.179,0.2,-0.079,-0.111,0.19,-0.005,-0.004,-0.02,-0.123,-0.262,-0.123
-0.026,0.174,0.2,-0.075,-0.113,0.187,-0.004,-0.014,-0.035,-0.136,-0.274,-0.13
-0.014,0.187,0.201,-0.086,-0.108,0.193,-0.017,-0.004,-0.017,-0.115,-0.254,-0.118
-0.001,0.145,0.147,-0.072,-0.074,0.146,-0.007,-0.003,-0.022,-0.118,-0.254,-0.12
0.005,0.137,0.132,-0.071,-0.064,0.134,0.007,0.025,-0.002,-0.096,-0.235,-0.097
-0.012,0.094,0.106,-0.041,-0.059,0.099,0.017,0.052,0.017,-0.079,-0.223,-0.08
0.014,0.081,0.067,-0.048,-0.027,0.074,0.028,0.068,0.032,-0.073,-0.21,-0.071
0.017,0.055,0.037,-0.036,-0.01,0.046,0.037,0.089,0.043,-0.062,-0.193,-0.059
0.012,0.0,-0.012,-0.006,0.012,-0.006,0.049,0.109,0.058,-0.041,-0.184,-0.043
0.03,-0.006,-0.036,-0.012,0.033,-0.02,0.065,0.144,0.083,-0.019,-0.172,-0.024
0.04,-0.018,-0.058,-0.011,0.049,-0.038,0.067,0.161,0.09,-0.013,-0.165,-0.017
0.04,-0.029,-0.069,-0.005,0.055,-0.049,0.063,0.179,0.11,-0.006,-0.155,-0.012
0.049,-0.005,-0.054,-0.022,0.052,-0.03,0.069,0.208,0.125,0.002,-0.139,-0.003
0.085,0.032,-0.053,-0.058,0.069,-0.01,0.071,0.241,0.139,0.015,-0.117,0.006
0.133,0.068,-0.065,-0.101,0.099,0.002,0.067,0.262,0.155,0.036,-0.098,0.03
0.175,0.105,-0.069,-0.14,0.122,0.018,0.062,0.283,0.17,0.049,-0.086,0.047
0.202,0.143,-0.059,-0.172,0.13,0.042,0.042,0.303,0.19,0.075,-0.068,0.065
0.261,0.203,-0.058,-0.232,0.159,0.073,0.025,0.325,0.208,0.113,-0.036,0.101
0.275,0.227,-0.048,-0.251,0.162,0.089,0.014,0.325,0.219,0.123,-0.011,0.117
0.298,0.251,-0.047,-0.274,0.172,0.102,0.002,0.311,0.218,0.141,0.006,0.135
0.335,0.281,-0.054,-0.307,0.194,0.113,-0.001,0.303,0.211,0.144,0.018,0.144
0.313,0.265,-0.047,-0.289,0.18,0.108,-0.004,0.283,0.201,0.134,0.022,0.137
0.296,0.252,-0.044,-0.274,0.17,0.104,-0.008,0.25,0.193,0.132,0.018,0.136
0.26,0.233,-0.027,-0.247,0.143,0.103,-0.01,0.199,0.183,0.108,-0.006,0.116
0.213,0.202,-0.011,-0.208,0.112,0.095,-0.005,0.148,0.161,0.074,-0.043,0.084
0.147,0.16,0.013,-0.154,0.067,0.086,0.003,0.104,0.131,0.035,-0.078,0.056
0.075,0.119,0.044,-0.097,0.015,0.081,0.008,0.058,0.097,-0.003,-0.117,0.019
0.06,0.113,0.053,-0.087,0.003,0.083,0.017,0.029,0.073,-0.032,-0.148,-0.013
0.061,0.119,0.059,-0.09,0.001,0.089,0.017,0.004,0.045,-0.054,-0.166,-0.032
0.04,0.118,0.077,-0.079,-0.018,0.097,0.009,-0.017,0.008,-0.079,-0.184,-0.052
0.018,0.14,0.123,-0.079,-0.053,0.131,0.003,-0.034,-0.006,-0.099,-0.2,-0.066
0.012,0.16,0.148,-0.086,-0.068,0.154,-0.005,-0.055,-0.014,-0.117,-0.212,-0.076
-0.002,0.165,0.167,-0.082,-0.085,0.166,-0.013,-0.06,-0.023,-0.135,-0.227,-0.081
-0.01,0.184,0.194,-0.087,-0.102,0.189,-0.018,-0.064,-0.032,-0.142,-0.234,-0.08
0.0,0.199,0.2,-0.099,-0.1,0.199,-0.016,-0.064,-0.041,-0.152,-0.24,-0.079
-0.012,0.194,0.205,-0.091,-0.109,0.199,-0.011,-0.056,-0.042,-0.158,-0.25,-0.075
0.009,0.173,0.164,-0.091,-0.078,0.168,-0.009,-0.052,-0.039,-0.153,-0.242,-0.075
0.017,0.154,0.136,-0.085,-0.06,0.145,-0.004,-0.046,-0.036,-0.152,-0.236,-0.073
0.003,0.141,0.138,-0.073,-0.068,0.14,-0.001,-0.04,-0.033,-0.148,-0.229,-0.067
0.001,0.13,0.129,-0.065,-0.065,0.13,0.003,-0.036,-0.03,-0.145,-0.222,-0.063
-0.015,0.114,0.129,-0.05,-0.072,0.121,0.007,-0.034,-0.029,-0.144,-0.217,-0.059
-0.013,0.104,0.117,-0.046,-0.065,0.11,0.011,-0.036,-0.017,-0.132,-0.204,-0.054
-0.024,0.073,0.098,-0.025,-0.061,0.085,0.017,-0.029,-0.006,-0.121,-0.193,-0.05
-0.011,0.02,0.031,-0.005,-0.021,0.025,0.027,-0.008,0.013,-0.101,-0.172,-0.033
-0.004,-0.048,-0.045,0.026,0.021,-0.046,0.057,0.019,0.039,-0.068,-0.147,-0.005
0.009,-0.098,-0.107,0.045,0.058,-0.102,0.075,0.041,0.063,-0.05,-0.128,0.021
0.013,-0.141,-0.155,0.065,0.084,-0.148,0.085,0.047,0.085,-0.037,-0.101,0.042
-0.026,-0.226,-0.201,0.126,0.088,-0.213,0.094,0.052,0.095,-0.023,-0.077,0.062
-0.002,-0.26,-0.258,0.131,0.128,-0.258,0.113,0.075,0.117,-0.011,-0.064,0.082
0.003,-0.286,-0.288,0.142,0.146,-0.287,0.133,0.095,0.134,0.0,-0.052,0.089
-0.006,-0.336,-0.33,0.171,0.162,-0.332,0.129,0.098,0.139,0.008,-0.044,0.102
-0.007,-0.363,-0.355,0.186,0.174,-0.359,0.142,0.104,0.144,0.014,-0.039,0.118
-0.013,-0.383,-0.37,0.199,0.179,-0.376,0.147,0.105,0.146,0.021,-0.034,0.12
-0.004,-0.388,-0.384,0.196,0.19,-0.385,0.14,0.105,0.149,0.027,-0.028,0.12
-0.006,-0.384,-0.378,0.195,0.186,-0.38,0.14,0.11,0.152,0.035,-0.022,0.125
-0.01,-0.401,-0.391,0.205,0.191,-0.396,0.134,0.11,0.155,0.046,-0.017,0.128
-0.007,-0.417,-0.411,0.212,0.202,-0.414,0.136,0.11,0.155,0.05,-0.011,0.134
0.012,-0.383,-0.394,0.186,0.204,-0.388,0.135,0.103,0.155,0.05,-0.006,0.141
0.022,-0.357,-0.379,0.168,0.2,-0.368,0.135,0.113,0.154,0.05,-0.001,0.139
0.051,-0.329,-0.379,0.139,0.215,-0.354,0.141,0.131,0.164,0.05,0.006,0.143
0.093,-0.282,-0.375,0.095,0.234,-0.328,0.146,0.136,0.177,0.05,0.01,0.145
0.094,-0.279,-0.372,0.093,0.233,-0.325,0.131,0.12,0.163,0.034,0.001,0.134
0.053,-0.318,-0.371,0.132,0.212,-0.344,0.084,0.072,0.131,0.023,-0.017,0.128
0.02,-0.344,-0.364,0.162,0.192,-0.354,0.078,0.06,0.105,0.013,-0.034,0.119
-0.006,-0.332,-0.326,0.169,0.16,-0.328,0.092,0.059,0.099,0.001,-0.035,0.112
-0.022,-0.329,-0.307,0.176,0.143,-0.318,0.085,0.051,0.097,-0.004,-0.034,0.108
-0.019,-0.324,-0.306,0.172,0.144,-0.315,0.085,0.044,0.085,-0.021,-0.036,0.098
-0.018,-0.314,-0.296,0.167,0.139,-0.305,0.077,0.036,0.089,-0.013,-0.041,0.099
-0.028,-0.313,-0.286,0.171,0.13,-0.3,0.079,0.03,0.072,-0.028,-0.068,0.085
-0.043,-0.263,-0.221,0.153,0.089,-0.242,0.068,0.02,0.08,-0.03,-0.052,0.086
-0.047,-0.237,-0.191,0.142,0.072,-0.214,0.064,0.025,0.06,-0.07,-0.071,0.055
-0.038,-0.183,-0.145,0.111,0.054,-0.164,0.042,0.011,0.066,-0.059,-0.074,0.053
-0.032,-0.17,-0.138,0.102,0.053,-0.154,0.044,0.026,0.054,-0.053,-0.085,0.035
-0.042,-0.099,-0.057,0.071,0.008,-0.078,0.045,0.0,0.059,-0.044,-0.058,0.053
-0.17,0.062,0.232,0.054,-0.201,0.146,0.189,0.106,0.215,0.063,0.018,0.123
-0.03,0.072,0.102,-0.021,-0.066,0.087,0.245,0.352,0.245,0.088,0.035,0.123
0.858,0.225,-0.633,-0.541,0.746,-0.204,-0.362,0.396,0.378,0.448,0.366,0.494
1.308,0.085,-1.222,-0.696,1.265,-0.568,-0.717,-0.205,0.011,0.197,0.199,0.485
0.692,-0.21,-0.903,-0.241,0.798,-0.556,-0.456,-0.996,-0.6,-0.522,-0.354,0.011
0.092,-0.195,-0.286,0.052,0.189,-0.24,-0.237,-0.911,-0.504,-0.515,-0.393,-0.115
-0.117,-0.185,-0.068,0.151,-0.024,-0.126,-0.11,-0.515,-0.365,-0.44,-0.373,-0.183
-0.086,-0.057,0.029,0.071,-0.057,-0.014,-0.05,-0.232,-0.204,-0.309,-0.283,-0.142
-0.023,0.08,0.103,-0.029,-0.064,0.092,-0.017,-0.055,-0.093,-0.202,-0.213,-0.088
-0.026,0.15,0.176,-0.062,-0.101,0.163,-0.027,-0.053,-0.089,-0.196,-0.207,-0.087
-0.025,0.192,0.217,-0.083,-0.122,0.204,-0.041,-0.026,-0.048,-0.168,-0.189,-0.073
-0.025,0.226,0.25,-0.101,-0.137,0.238,-0.047,-0.036,-0.068,-0.189,-0.2,-0.086
-0.013,0.262,0.275,-0.125,-0.144,0.268,-0.052,-0.024,-0.055,-0.174,-0.185,-0.076
-0.018,0.293,0.311,-0.137,-0.165,0.302,-0.049,-0.022,-0.066,-0.184,-0.188,-0.082
-0.023,0.32,0.342,-0.149,-0.183,0.331,-0.062,-0.019,-0.065,-0.178,-0.185,-0.082
-0.022,0.312,0.334,-0.145,-0.178,0.323,-0.061,-0.007,-0.063,-0.175,-0.195,-0.086
-0.02,0.325,0.344,-0.153,-0.182,0.334,-0.055,-0.005,-0.063,-0.168,-0.2,-0.078
0.001,0.345,0.344,-0.173,-0.172,0.344,-0.05,0.006,-0.057,-0.16,-0.199,-0.074
0.027,0.363,0.336,-0.195,-0.155,0.349,-0.044,0.01,-0.063,-0.155,-0.202,-0.068
0.026,0.335,0.309,-0.181,-0.142,0.322,-0.039,0.026,-0.053,-0.147,-0.193,-0.062
0.023,0.286,0.263,-0.155,-0.12,0.274,-0.034,0.059,-0.029,-0.142,-0.169,-0.057
0.061,0.27,0.209,-0.166,-0.074,0.24,-0.029,0.098,-0.001,-0.123,-0.141,-0.037
0.107,0.269,0.162,-0.188,-0.027,0.215,-0.026,0.128,0.025,-0.103,-0.118,-0.013
0.128,0.272,0.145,-0.2,-0.009,0.208,-0.022,0.157,0.046,-0.08,-0.098,0.008
0.137,0.274,0.137,-0.206,-0.001,0.205,-0.019,0.193,0.071,-0.054,-0.068,0.025
0.148,0.277,0.128,-0.213,0.009,0.203,-0.014,0.223,0.1,-0.014,-0.034,0.056
0.173,0.29,0.118,-0.232,0.027,0.204,-0.023,0.245,0.124,0.02,-0.001,0.096
0.234,0.331,0.097,-0.283,0.068,0.214,-0.038,0.265,0.155,0.05,0.032,0.13
0.277,0.359,0.082,-0.318,0.097,0.22,-0.051,0.267,0.174,0.079,0.064,0.162
0.299,0.369,0.07,-0.334,0.114,0.219,-0.066,0.258,0.181,0.095,0.085,0.184
0.32,0.381,0.061,-0.351,0.129,0.221,-0.066,0.25,0.19,0.108,0.101,0.199
0.316,0.374,0.058,-0.345,0.129,0.216,-0.055,0.243,0.179,0.103,0.112,0.211
0.301,0.358,0.056,-0.33,0.122,0.207,-0.045,0.226,0.165,0.093,0.089,0.202
0.261,0.309,0.048,-0.285,0.106,0.178,-0.035,0.185,0.149,0.076,0.062,0.166
0.188,0.248,0.06,-0.218,0.064,0.154,-0.025,0.125,0.11,0.035,0.034,0.124
0.111,0.197,0.086,-0.154,0.012,0.141,-0.017,0.07,0.074,-0.013,-0.005,0.086
0.071,0.151,0.08,-0.111,-0.005,0.115,-0.008,0.037,0.046,-0.057,-0.042,0.048
0.049,0.124,0.074,-0.087,-0.013,0.099,-0.001,0.018,0.021,-0.085,-0.072,0.025
0.014,0.087,0.073,-0.051,-0.03,0.08,0.0,0.004,0.008,-0.107,-0.092,0.015
0.006,0.069,0.063,-0.038,-0.029,0.065,0.001,-0.004,-0.002,-0.119,-0.105,0.007
0.004,0.078,0.074,-0.041,-0.036,0.076,0.007,-0.013,-0.008,-0.12,-0.105,-0.001
-0.02,0.07,0.09,-0.025,-0.055,0.08,-0.002,-0.022,-0.024,-0.128,-0.108,-0.015
-0.027,0.056,0.083,-0.015,-0.055,0.069,-0.016,-0.022,-0.041,-0.14,-0.11,-0.026
-0.028,0.05,0.078,-0.012,-0.053,0.064,-0.01,-0.019,-0.04,-0.146,-0.112,-0.025
-0.023,0.049,0.072,-0.014,-0.047,0.06,-0.005,-0.016,-0.04,-0.144,-0.123,-0.025
-0.018,0.05,0.068,-0.016,-0.043,0.058,-0.002,-0.014,-0.04,-0.147,-0.129,-0.026
-0.02,0.043,0.063,-0.012,-0.042,0.053,0.005,-0.009,-0.04,-0.158,-0.131,-0.024
-0.014,0.046,0.061,-0.016,-0.038,0.053,0.002,-0.013,-0.042,-0.163,-0.129,-0.029
-0.047,0.045,0.092,0.0,-0.069,0.068,-0.007,-0.031,-0.049,-0.167,-0.135,-0.042
-0.054,0.078,0.132,-0.013,-0.093,0.105,-0.018,-0.053,-0.064,-0.169,-0.145,-0.049
-0.016,0.155,0.171,-0.07,-0.094,0.163,-0.027,-0.068,-0.074,-0.19,-0.154,-0.057
-0.026,0.192,0.218,-0.083,-0.122,0.205,-0.044,-0.083,-0.092,-0.207,-0.166,-0.066
-0.041,0.215,0.256,-0.087,-0.149,0.236,-0.066,-0.098,-0.101,-0.208,-0.173,-0.073
-0.029,0.241,0.27,-0.106,-0.15,0.256,-0.075,-0.107,-0.105,-0.217,-0.175,-0.075
-0.018,0.273,0.291,-0.128,-0.155,0.282,-0.092,-0.117,-0.114,-0.221,-0.175,-0.076
-0.019,0.293,0.313,-0.138,-0.166,0.303,-0.106,-0.122,-0.117,-0.224,-0.179,-0.08
-0.022,0.299,0.321,-0.139,-0.171,0.309,-0.105,-0.128,-0.128,-0.229,-0.18,-0.08
-0.015,0.334,0.349,-0.16,-0.182,0.341,-0.11,-0.133,-0.134,-0.233,-0.18,-0.086
-0.003,0.349,0.352,-0.173,-0.178,0.35,-0.109,-0.136,-0.137,-0.238,-0.185,-0.092
0.0,0.345,0.345,-0.173,-0.172,0.345,-0.112,-0.145,-0.142,-0.24,-0.192,-0.098
-0.012,0.354,0.365,-0.171,-0.188,0.36,-0.116,-0.15,-0.144,-0.24,-0.204,-0.105
-0.007,0.363,0.37,-0.178,-0.189,0.366,-0.114,-0.154,-0.146,-0.24,-0.202,-0.105
-0.001,0.363,0.364,-0.181,-0.183,0.363,-0.116,-0.166,-0.144,-0.24,-0.196,-0.105
-0.007,0.355,0.362,-0.174,-0.185,0.358,-0.113,-0.17,-0.146,-0.24,-0.193,-0.108
-0.004,0.353,0.357,-0.175,-0.181,0.354,-0.126,-0.17,-0.144,-0.239,-0.187,-0.11
-0.007,0.347,0.354,-0.171,-0.181,0.351,-0.137,-0.17,-0.147,-0.244,-0.183,-0.11
-0.027,0.343,0.37,-0.158,-0.199,0.356,-0.134,-0.17,-0.158,-0.245,-0.18,-0.11
-0.037,0.358,0.396,-0.161,-0.217,0.377,-0.133,-0.17,-0.161,-0.245,-0.177,-0.11
-0.022,0.372,0.395,-0.175,-0.209,0.383,-0.129,-0.166,-0.16,-0.25,-0.174,-0.11
-0.025,0.369,0.394,-0.173,-0.209,0.381,-0.13,-0.165,-0.16,-0.25,-0.172,-0.114
-0.028,0.369,0.397,-0.171,-0.212,0.383,-0.127,-0.165,-0.16,-0.25,-0.169,-0.115
-0.019,0.366,0.385,-0.174,-0.203,0.376,-0.119,-0.166,-0.158,-0.249,-0.177,-0.114
-0.044,0.363,0.407,-0.159,-0.226,0.384,-0.141,-0.186,-0.167,-0.258,-0.19,-0.118
-0.052,0.37,0.422,-0.159,-0.238,0.396,-0.157,-0.197,-0.176,-0.267,-0.19,-0.12
-0.047,0.373,0.42,-0.163,-0.234,0.396,-0.149,-0.194,-0.174,-0.262,-0.19,-0.12
-0.055,0.37,0.425,-0.158,-0.24,0.397,-0.148,-0.196,-0.175,-0.26,-0.19,-0.12
-0.066,0.359,0.425,-0.147,-0.246,0.392,-0.143,-0.194,-0.175,-0.256,-0.19,-0.12
-0.048,0.37,0.418,-0.161,-0.233,0.394,-0.14,-0.195,-0.175,-0.254,-0.19,-0.12
-0.014,0.399,0.412,-0.193,-0.213,0.405,-0.14,-0.191,-0.171,-0.252,-0.189,-0.12
-0.044,0.375,0.419,-0.166,-0.232,0.397,-0.139,-0.184,-0.164,-0.247,-0.191,-0.12
-0.029,0.406,0.435,-0.189,-0.232,0.42,-0.142,-0.18,-0.158,-0.244,-0.177,-0.117
0.0,0.485,0.485,-0.243,-0.243,0.485,-0.144,-0.172,-0.151,-0.239,-0.151,-0.098
-0.003,0.485,0.488,-0.241,-0.246,0.486,-0.145,-0.171,-0.143,-0.234,-0.149,-0.09
0.04,0.5,0.46,-0.27,-0.21,0.479,-0.143,-0.169,-0.144,-0.229,-0.153,-0.091
0.06,0.522,0.462,-0.291,-0.201,0.491,-0.158,-0.17,-0.161,-0.225,-0.154,-0.089
0.08,0.519,0.439,-0.3,-0.18,0.479,-0.184,-0.17,-0.16,-0.219,-0.159,-0.092
0.059,0.518,0.459,-0.288,-0.201,0.489,-0.185,-0.178,-0.161,-0.23,-0.158,-0.086
-0.002,0.476,0.478,-0.237,-0.241,0.477,-0.203,-0.241,-0.204,-0.271,-0.177,-0.105
-0.033,0.453,0.486,-0.211,-0.26,0.47,-0.211,-0.273,-0.231,-0.3,-0.201,-0.131
-0.06,0.464,0.525,-0.202,-0.293,0.494,-0.184,-0.266,-0.232,-0.301,-0.201,-0.129
-0.052,0.468,0.519,-0.208,-0.286,0.493,-0.179,-0.263,-0.226,-0.296,-0.196,-0.135
-0.048,0.458,0.506,-0.205,-0.278,0.482,-0.19,-0.26,-0.237,-0.307,-0.21,-0.153
-0.045,0.465,0.51,-0.21,-0.277,0.487,-0.207,-0.255,-0.241,-0.302,-0.205,-0.151
-0.04,0.45,0.49,-0.205,-0.266,0.47,-0.197,-0.255,-0.244,-0.31,-0.207,-0.154
-0.039,0.461,0.5,-0.211,-0.27,0.48,-0.198,-0.274,-0.232,-0.297,-0.191,-0.141
-0.054,0.446,0.5,-0.196,-0.277,0.472,-0.188,-0.256,-0.232,-0.302,-0.193,-0.144
-0.058,0.441,0.499,-0.192,-0.279,0.47,-0.188,-0.264,-0.229,-0.296,-0.182,-0.136
-0.022,0.456,0.478,-0.217,-0.25,0.467,-0.186,-0.234,-0.213,-0.288,-0.175,-0.128
-0.041,0.446,0.486,-0.203,-0.264,0.466,-0.185,-0.229,-0.217,-0.29,-0.19,-0.139
-0.171,0.583,0.754,-0.206,-0.462,0.668,-0.049,-0.123,-0.056,-0.155,-0.08,-0.086
-0.133,0.574,0.708,-0.221,-0.421,0.641,0.065,0.111,-0.026,-0.133,-0.065,-0.075
0.718,0.725,0.008,-0.722,0.355,0.366,-0.513,0.104,0.102,0.214,0.252,0.292
1.353,0.755,-0.598,-1.054,0.975,0.078,-0.955,-0.391,-0.07,0.192,0.304,0.468
0.823,0.359,-0.464,-0.591,0.643,-0.053,-0.718,-1.151,-0.754,-0.578,-0.291,-0.014
0.19,0.25,0.061,-0.22,0.064,0.155,-0.47,-1.162,-0.777,-0.714,-0.435,-0.242
-0.068,0.225,0.293,-0.079,-0.18,0.259,-0.281,-0.697,-0.551,-0.569,-0.377,-0.264
-0.1,0.249,0.349,-0.075,-0.224,0.299,-0.179,-0.377,-0.396,-0.447,-0.306,-0.237
-0.068,0.333,0.401,-0.133,-0.235,0.367,-0.146,-0.185,-0.251,-0.319,-0.205,-0.164
-0.048,0.381,0.429,-0.167,-0.239,0.405,-0.142,-0.165,-0.233,-0.303,-0.184,-0.153
-0.059,0.407,0.467,-0.174,-0.263,0.437,-0.142,-0.121,-0.175,-0.245,-0.143,-0.129
-0.077,0.383,0.46,-0.153,-0.269,0.421,-0.132,-0.114,-0.181,-0.251,-0.151,-0.133
-0.044,0.409,0.453,-0.183,-0.249,0.43,-0.133,-0.104,-0.169,-0.237,-0.139,-0.123
-0.039,0.416,0.455,-0.189,-0.248,0.435,-0.131,-0.089,-0.166,-0.232,-0.138,-0.122
-0.028,0.412,0.44,-0.192,-0.234,0.426,-0.137,-0.086,-0.161,-0.228,-0.133,-0.116
-0.041,0.413,0.455,-0.186,-0.248,0.434,-0.133,-0.074,-0.153,-0.216,-0.129,-0.112
-0.034,0.405,0.439,-0.186,-0.236,0.421,-0.136,-0.075,-0.162,-0.227,-0.138,-0.111
-0.02,0.416,0.436,-0.198,-0.228,0.425,-0.134,-0.066,-0.16,-0.242,-0.139,-0.109
-0.036,0.46,0.495,-0.212,-0.266,0.478,-0.137,-0.065,-0.172,-0.248,-0.146,-0.122
-0.014,0.518,0.532,-0.253,-0.273,0.525,-0.147,-0.059,-0.174,-0.242,-0.147,-0.132
-0.016,0.564,0.58,-0.274,-0.298,0.572,-0.162,-0.054,-0.183,-0.254,-0.154,-0.146
-0.009,0.59,0.599,-0.291,-0.304,0.594,-0.185,-0.065,-0.19,-0.263,-0.161,-0.149
0.033,0.645,0.612,-0.34,-0.29,0.628,-0.19,-0.048,-0.175,-0.252,-0.154,-0.14
0.045,0.685,0.64,-0.365,-0.298,0.662,-0.192,-0.006,-0.161,-0.243,-0.148,-0.134
0.075,0.707,0.632,-0.391,-0.279,0.669,-0.199,0.011,-0.147,-0.229,-0.128,-0.128
0.132,0.765,0.633,-0.448,-0.251,0.698,-0.198,0.031,-0.132,-0.2,-0.104,-0.113
0.145,0.787,0.642,-0.466,-0.248,0.714,-0.211,0.051,-0.114,-0.17,-0.08,-0.081
0.176,0.796,0.619,-0.486,-0.221,0.707,-0.23,0.075,-0.089,-0.139,-0.039,-0.039
0.252,0.831,0.579,-0.542,-0.164,0.705,-0.231,0.105,-0.06,-0.105,-0.004,-0.004
0.268,0.836,0.568,-0.552,-0.15,0.701,-0.228,0.106,-0.053,-0.083,0.025,0.02
0.278,0.824,0.546,-0.551,-0.135,0.685,-0.234,0.09,-0.056,-0.069,0.041,0.039
0.285,0.82,0.535,-0.553,-0.125,0.677,-0.245,0.074,-0.055,-0.062,0.049,0.04
0.24,0.795,0.555,-0.518,-0.158,0.675,-0.239,0.051,-0.062,-0.067,0.046,0.042
0.195,0.749,0.554,-0.473,-0.18,0.651,-0.231,0.019,-0.058,-0.068,0.032,0.041
0.146,0.702,0.556,-0.424,-0.205,0.629,-0.212,-0.018,-0.066,-0.083,0.017,0.015
0.095,0.655,0.56,-0.375,-0.233,0.607,-0.188,-0.061,-0.087,-0.108,-0.001,-0.01
0.045,0.605,0.559,-0.325,-0.257,0.582,-0.181,-0.106,-0.12,-0.144,-0.031,-0.04
0.011,0.569,0.558,-0.291,-0.274,0.563,-0.174,-0.134,-0.148,-0.172,-0.072,-0.067
-0.022,0.53,0.552,-0.254,-0.287,0.541,-0.167,-0.148,-0.154,-0.187,-0.089,-0.079
-0.068,0.481,0.549,-0.207,-0.308,0.515,-0.161,-0.159,-0.174,-0.207,-0.1,-0.1
-0.078,0.465,0.543,-0.194,-0.311,0.504,-0.154,-0.163,-0.182,-0.216,-0.107,-0.106
-0.08,0.459,0.539,-0.189,-0.31,0.499,-0.151,-0.165,-0.178,-0.225,-0.104,-0.104
-0.082,0.452,0.534,-0.186,-0.308,0.493,-0.148,-0.165,-0.182,-0.225,-0.109,-0.109
-0.083,0.445,0.528,-0.181,-0.306,0.486,-0.145,-0.169,-0.183,-0.224,-0.11,-0.11
-0.087,0.437,0.524,-0.175,-0.306,0.48,-0.142,-0.171,-0.187,-0.226,-0.109,-0.11
-0.086,0.431,0.517,-0.173,-0.301,0.474,-0.14,-0.169,-0.189,-0.224,-0.106,-0.115
-0.091,0.421,0.513,-0.165,-0.302,0.467,-0.14,-0.17,-0.192,-0.225,-0.103,-0.12
-0.09,0.418,0.508,-0.164,-0.299,0.463,-0.14,-0.17,-0.196,-0.225,-0.101,-0.124
-0.117,0.402,0.519,-0.142,-0.318,0.46,-0.14,-0.171,-0.192,-0.225,-0.097,-0.123
-0.112,0.414,0.526,-0.152,-0.319,0.47,-0.14,-0.175,-0.19,-0.225,-0.095,-0.118
-0.081,0.439,0.519,-0.179,-0.3,0.478,-0.14,-0.175,-0.19,-0.225,-0.092,-0.115
-0.086,0.433,0.518,-0.174,-0.303,0.475,-0.14,-0.176,-0.187,-0.224,-0.09,-0.112
-0.076,0.436,0.512,-0.18,-0.294,0.473,-0.144,-0.18,-0.184,-0.221,-0.09,-0.107
-0.077,0.434,0.511,-0.178,-0.295,0.472,-0.147,-0.18,-0.186,-0.218,-0.09,-0.104
-0.069,0.435,0.503,-0.183,-0.287,0.469,-0.15,-0.182,-0.189,-0.215,-0.09,-0.1
-0.075,0.431,0.506,-0.178,-0.291,0.469,-0.155,-0.186,-0.191,-0.212,-0.091,-0.1
-0.092,0.429,0.521,-0.168,-0.307,0.475,-0.155,-0.184,-0.195,-0.21,-0.094,-0.099
-0.086,0.43,0.517,-0.172,-0.302,0.473,-0.155,-0.193,-0.192,-0.207,-0.095,-0.095
-0.091,0.424,0.515,-0.167,-0.303,0.469,-0.155,-0.197,-0.189,-0.204,-0.095,-0.095
-0.081,0.427,0.508,-0.173,-0.295,0.467,-0.155,-0.195,-0.19,-0.205,-0.095,-0.095
-0.106,0.419,0.526,-0.157,-0.316,0.472,-0.163,-0.208,-0.19,-0.205,-0.095,-0.095
-0.112,0.43,0.542,-0.159,-0.327,0.485,-0.166,-0.211,-0.19,-0.205,-0.093,-0.095
-0.091,0.44,0.532,-0.175,-0.312,0.486,-0.164,-0.209,-0.191,-0.204,-0.089,-0.095
-0.101,0.429,0.53,-0.164,-0.316,0.479,-0.166,-0.21,-0.2,-0.201,-0.091,-0.095
-0.093,0.431,0.524,-0.169,-0.309,0.477,-0.164,-0.21,-0.2,-0.199,-0.086,-0.094
-0.092,0.428,0.52,-0.168,-0.306,0.474,-0.166,-0.21,-0.2,-0.201,-0.085,-0.09
-0.089,0.427,0.516,-0.169,-0.303,0.471,-0.169,-0.204,-0.201,-0.199,-0.085,-0.083
-0.093,0.422,0.515,-0.165,-0.305,0.469,-0.17,-0.199,-0.199,-0.201,-0.078,-0.079
-0.081,0.433,0.513,-0.176,-0.297,0.473,-0.167,-0.192,-0.202,-0.196,-0.067,-0.072
-0.048,0.456,0.503,-0.204,-0.276,0.479,-0.146,-0.191,-0.178,-0.177,-0.057,-0.067
-0.024,0.466,0.49,-0.221,-0.257,0.478,-0.137,-0.196,-0.16,-0.163,-0.048,-0.063
-0.01,0.472,0.482,-0.231,-0.247,0.477,-0.127,-0.198,-0.157,-0.152,-0.036,-0.05
-0.029,0.422,0.451,-0.197,-0.241,0.437,-0.146,-0.201,-0.167,-0.166,-0.045,-0.06
-0.051,0.365,0.416,-0.157,-0.234,0.39,-0.169,-0.203,-0.196,-0.193,-0.063,-0.084
-0.097,0.345,0.442,-0.124,-0.27,0.394,-0.157,-0.206,-0.196,-0.189,-0.063,-0.083
-0.125,0.305,0.43,-0.09,-0.277,0.367,-0.147,-0.204,-0.193,-0.188,-0.07,-0.089
-0.113,0.281,0.394,-0.084,-0.254,0.337,-0.138,-0.206,-0.199,-0.194,-0.079,-0.098
-0.111,0.287,0.399,-0.088,-0.255,0.343,-0.135,-0.205,-0.19,-0.184,-0.07,-0.091
-0.107,0.27,0.378,-0.082,-0.243,0.324,-0.13,-0.204,-0.199,-0.196,-0.082,-0.1
-0.103,0.284,0.387,-0.091,-0.246,0.335,-0.132,-0.202,-0.182,-0.175,-0.066,-0.089
-0.1,0.259,0.359,-0.08,-0.229,0.309,-0.122,-0.192,-0.192,-0.19,-0.084,-0.101
-0.101,0.283,0.384,-0.091,-0.242,0.333,-0.129,-0.197,-0.177,-0.17,-0.06,-0.086
-0.119,0.265,0.384,-0.073,-0.252,0.324,-0.115,-0.179,-0.181,-0.177,-0.058,-0.08
-0.117,0.297,0.414,-0.09,-0.266,0.356,-0.108,-0.181,-0.139,-0.149,-0.034,-0.042
-0.261,0.426,0.686,-0.083,-0.474,0.556,0.052,-0.045,0.002,-0.028,0.056,0.018
-0.161,0.367,0.528,-0.103,-0.345,0.447,0.096,0.191,0.004,-0.008,0.061,0.02
0.796,0.542,-0.254,-0.669,0.525,0.144,-0.518,0.243,0.17,0.359,0.4,0.405
1.265,0.431,-0.834,-0.848,1.049,-0.201,-0.843,-0.345,-0.178,0.113,0.256,0.405
0.585,0.076,-0.509,-0.33,0.547,-0.216,-0.56,-1.136,-0.777,-0.593,-0.304,-0.078
0.057,0.118,0.061,-0.088,-0.002,0.089,-0.317,-1.018,-0.643,-0.551,-0.323,-0.183
-0.094,0.105,0.2,-0.006,-0.147,0.152,-0.178,-0.617,-0.488,-0.446,-0.274,-0.217
-0.133,0.108,0.24,0.013,-0.187,0.174,-0.12,-0.348,-0.339,-0.32,-0.186,-0.181
-0.109,0.173,0.282,-0.032,-0.196,0.228,-0.077,-0.148,-0.212,-0.209,-0.114,-0.117
-0.103,0.219,0.322,-0.058,-0.213,0.27,-0.075,-0.122,-0.19,-0.185,-0.093,-0.095
-0.088,0.254,0.341,-0.083,-0.215,0.297,-0.073,-0.072,-0.136,-0.134,-0.062,-0.068
-0.092,0.263,0.355,-0.086,-0.224,0.309,-0.064,-0.073,-0.144,-0.147,-0.071,-0.075
-0.08,0.275,0.355,-0.098,-0.217,0.315,-0.065,-0.061,-0.129,-0.132,-0.056,-0.062
-0.079,0.268,0.347,-0.094,-0.213,0.307,-0.054,-0.055,-0.13,-0.137,-0.059,-0.064
-0.079,0.271,0.349,-0.096,-0.214,0.31,-0.059,-0.051,-0.123,-0.13,-0.05,-0.055
-0.071,0.27,0.341,-0.1,-0.206,0.305,-0.065,-0.039,-0.119,-0.129,-0.047,-0.055
-0.085,0.268,0.353,-0.092,-0.219,0.31,-0.062,-0.029,-0.116,-0.124,-0.045,-0.056
-0.07,0.282,0.352,-0.106,-0.211,0.317,-0.055,-0.011,-0.106,-0.111,-0.044,-0.054
-0.051,0.289,0.34,-0.12,-0.195,0.315,-0.054,-0.001,-0.102,-0.104,-0.046,-0.056
-0.041,0.3,0.34,-0.129,-0.191,0.32,-0.045,0.018,-0.094,-0.091,-0.044,-0.054
-0.046,0.292,0.337,-0.123,-0.192,0.314,-0.051,0.021,-0.086,-0.083,-0.046,-0.055
-0.023,0.311,0.334,-0.145,-0.179,0.323,-0.07,0.047,-0.072,-0.075,-0.027,-0.046
0.024,0.358,0.334,-0.191,-0.156,0.346,-0.07,0.082,-0.058,-0.066,-0.002,-0.033
0.014,0.339,0.325,-0.176,-0.156,0.332,-0.07,0.098,-0.043,-0.049,0.003,-0.02
0.052,0.367,0.315,-0.21,-0.132,0.341,-0.076,0.12,-0.023,-0.025,0.024,0.011
0.107,0.412,0.305,-0.26,-0.099,0.358,-0.074,0.147,0.002,0.002,0.056,0.037
0.138,0.432,0.295,-0.285,-0.079,0.363,-0.081,0.172,0.022,0.032,0.082,0.064
0.182,0.467,0.285,-0.325,-0.052,0.376,-0.107,0.188,0.046,0.067,0.12,0.1
0.21,0.484,0.274,-0.348,-0.032,0.379,-0.116,0.188,0.065,0.097,0.141,0.125
0.251,0.512,0.261,-0.382,-0.005,0.387,-0.126,0.178,0.075,0.111,0.163,0.148
0.261,0.505,0.244,-0.383,0.008,0.375,-0.133,0.17,0.084,0.115,0.175,0.157
0.251,0.489,0.238,-0.37,0.006,0.363,-0.12,0.161,0.072,0.105,0.162,0.144
0.245,0.474,0.229,-0.36,0.008,0.352,-0.115,0.148,0.063,0.101,0.157,0.136
0.196,0.434,0.238,-0.315,-0.021,0.336,-0.097,0.11,0.049,0.086,0.139,0.123
0.12,0.38,0.26,-0.25,-0.07,0.32,-0.068,0.065,0.014,0.04,0.101,0.083
0.059,0.319,0.26,-0.189,-0.101,0.289,-0.05,0.023,-0.01,0.006,0.063,0.042
0.014,0.279,0.266,-0.147,-0.126,0.272,-0.036,-0.028,-0.041,-0.03,0.039,0.018
-0.023,0.216,0.24,-0.097,-0.132,0.228,-0.026,-0.042,-0.067,-0.057,0.03,0.008
-0.038,0.148,0.185,-0.055,-0.112,0.166,-0.023,-0.04,-0.064,-0.055,0.025,0.006
-0.055,0.104,0.159,-0.025,-0.107,0.131,-0.019,-0.039,-0.065,-0.053,0.017,0.002
-0.091,0.068,0.159,0.011,-0.125,0.113,-0.013,-0.036,-0.066,-0.051,0.011,-0.002
-0.088,0.072,0.16,0.008,-0.124,0.116,-0.007,-0.033,-0.063,-0.048,0.005,-0.004
-0.061,0.092,0.153,-0.016,-0.108,0.123,-0.002,-0.04,-0.07,-0.057,-0.003,-0.012
-0.059,0.096,0.154,-0.019,-0.107,0.125,0.004,-0.06,-0.079,-0.074,-0.011,-0.027
-0.053,0.094,0.147,-0.021,-0.1,0.12,0.009,-0.06,-0.082,-0.086,-0.025,-0.04
-0.056,0.096,0.152,-0.02,-0.105,0.123,0.006,-0.06,-0.078,-0.079,-0.022,-0.041
-0.074,0.093,0.167,-0.01,-0.12,0.13,-0.003,-0.06,-0.092,-0.085,-0.029,-0.055
-0.069,0.089,0.159,-0.01,-0.114,0.124,-0.011,-0.06,-0.109,-0.105,-0.047,-0.07
-0.066,0.083,0.149,-0.009,-0.108,0.116,-0.019,-0.058,-0.1,-0.099,-0.04,-0.062
-0.058,0.083,0.141,-0.013,-0.1,0.112,-0.024,-0.048,-0.091,-0.092,-0.036,-0.055
-0.07,0.058,0.128,0.005,-0.099,0.093,-0.007,-0.043,-0.085,-0.089,-0.033,-0.05
-0.094,0.007,0.101,0.043,-0.098,0.054,0.009,-0.035,-0.074,-0.078,-0.024,-0.039
-0.078,-0.023,0.055,0.05,-0.066,0.015,0.018,-0.031,-0.052,-0.046,0.005,-0.017
-0.071,-0.059,0.012,0.065,-0.041,-0.024,0.031,-0.028,-0.04,-0.028,0.022,-0.004
-0.071,-0.078,-0.007,0.075,-0.032,-0.042,0.03,-0.025,-0.039,-0.032,0.019,-0.006
-0.052,-0.074,-0.021,0.063,-0.015,-0.047,0.03,-0.022,-0.035,-0.027,0.021,-0.003
-0.043,-0.076,-0.032,0.059,-0.005,-0.053,0.03,-0.019,-0.033,-0.026,0.019,0.0
-0.048,-0.075,-0.027,0.062,-0.01,-0.051,0.03,-0.022,-0.029,-0.023,0.02,0.001
-0.049,-0.074,-0.025,0.062,-0.011,-0.05,0.029,-0.033,-0.032,-0.032,0.018,-0.003
-0.06,-0.081,-0.021,0.071,-0.019,-0.051,0.021,-0.04,-0.04,-0.046,0.013,-0.009
-0.079,-0.099,-0.02,0.089,-0.029,-0.059,0.014,-0.038,-0.044,-0.044,0.01,-0.014
-0.077,-0.103,-0.025,0.09,-0.026,-0.063,0.007,-0.051,-0.046,-0.048,0.007,-0.019
-0.074,-0.099,-0.025,0.087,-0.024,-0.062,-0.001,-0.062,-0.044,-0.051,0.002,-0.026
-0.072,-0.097,-0.025,0.085,-0.023,-0.061,-0.008,-0.059,-0.046,-0.05,0.0,-0.029
-0.069,-0.094,-0.025,0.082,-0.021,-0.06,-0.011,-0.058,-0.051,-0.05,0.0,-0.026
-0.066,-0.09,-0.024,0.078,-0.021,-0.057,-0.01,-0.054,-0.05,-0.05,0.0,-0.025
-0.065,-0.091,-0.025,0.079,-0.02,-0.058,-0.01,-0.055,-0.05,-0.049,0.0,-0.025
-0.071,-0.095,-0.025,0.083,-0.023,-0.06,-0.01,-0.059,-0.05,-0.046,0.0,-0.025
-0.071,-0.096,-0.025,0.084,-0.023,-0.061,-0.01,-0.06,-0.05,-0.043,0.0,-0.025
-0.083,-0.108,-0.025,0.096,-0.029,-0.066,-0.009,-0.06,-0.05,-0.041,0.002,-0.027
-0.087,-0.112,-0.024,0.1,-0.032,-0.067,-0.001,-0.06,-0.045,-0.037,0.006,-0.03
-0.08,-0.107,-0.027,0.094,-0.027,-0.066,0.006,-0.06,-0.045,-0.035,0.005,-0.03
-0.105,-0.124,-0.019,0.115,-0.042,-0.071,0.013,-0.059,-0.044,-0.032,0.006,-0.034
-0.109,-0.143,-0.034,0.126,-0.037,-0.088,0.015,-0.054,-0.039,-0.03,0.009,-0.036
-0.086,-0.138,-0.052,0.112,-0.017,-0.095,0.015,-0.048,-0.04,-0.03,0.012,-0.034
-0.092,-0.142,-0.05,0.117,-0.021,-0.096,0.015,-0.045,-0.038,-0.027,0.014,-0.03
-0.09,-0.139,-0.049,0.114,-0.021,-0.094,0.015,-0.039,-0.032,-0.024,0.018,-0.021
-0.081,-0.14,-0.059,0.111,-0.011,-0.099,0.016,-0.037,-0.03,-0.026,0.02,-0.017
-0.069,-0.141,-0.072,0.105,0.001,-0.106,0.022,-0.029,-0.022,-0.017,0.021,-0.008
-0.069,-0.125,-0.056,0.097,-0.006,-0.09,0.03,-0.021,-0.021,-0.009,0.019,-0.004
-0.081,-0.176,-0.095,0.128,0.007,-0.135,0.046,-0.009,0.004,0.007,0.039,0.008
-0.077,-0.217,-0.14,0.147,0.032,-0.178,0.082,0.017,0.042,0.044,0.074,0.043
-0.074,-0.241,-0.166,0.158,0.046,-0.203,0.107,0.041,0.055,0.062,0.093,0.063
-0.055,-0.281,-0.225,0.168,0.085,-0.253,0.115,0.067,0.077,0.077,0.111,0.075
-0.043,-0.3,-0.256,0.172,0.107,-0.278,0.115,0.067,0.09,0.096,0.138,0.096
0.004,-0.288,-0.291,0.142,0.148,-0.289,0.11,0.089,0.124,0.126,0.165,0.126
0.003,-0.318,-0.322,0.158,0.163,-0.32,0.109,0.089,0.11,0.112,0.153,0.116
-0.06,-0.412,-0.352,0.237,0.146,-0.381,0.102,0.04,0.058,0.066,0.135,0.088
-0.059,-0.425,-0.366,0.242,0.154,-0.395,0.096,0.027,0.062,0.059,0.124,0.077
-0.085,-0.407,-0.322,0.247,0.118,-0.364,0.088,0.01,0.05,0.037,0.09,0.057
-0.127,-0.409,-0.282,0.268,0.078,-0.346,0.083,0.0,0.022,0.016,0.064,0.03
-0.129,-0.396,-0.267,0.263,0.069,-0.331,0.076,-0.01,0.0,0.006,0.049,0.001
-0.134,-0.387,-0.253,0.261,0.059,-0.319,0.069,-0.02,-0.006,0.0,0.045,-0.008
-0.142,-0.377,-0.234,0.26,0.046,-0.305,0.067,-0.033,-0.027,-0.021,0.033,-0.022
-0.133,-0.332,-0.2,0.233,0.034,-0.266,0.056,-0.036,-0.016,-0.018,0.049,-0.018
-0.146,-0.336,-0.19,0.241,0.022,-0.263,0.058,-0.021,-0.036,-0.047,0.03,-0.039
-0.141,-0.314,-0.173,0.228,0.016,-0.243,0.045,-0.027,-0.019,-0.016,0.05,-0.025
-0.122,-0.336,-0.215,0.229,0.047,-0.275,0.063,-0.002,-0.015,-0.004,0.03,-0.019
-0.142,-0.3,-0.158,0.221,0.008,-0.229,0.073,0.0,0.029,0.039,0.057,0.016
-0.293,-0.234,0.059,0.263,-0.176,-0.087,0.265,0.15,0.165,0.106,0.119,0.028
-0.089,-0.224,-0.136,0.157,0.024,-0.18,0.271,0.398,0.2,0.169,0.166,0.08
0.829,0.007,-0.822,-0.417,0.825,-0.407,-0.383,0.45,0.458,0.667,0.604,0.563
1.121,-0.206,-1.327,-0.458,1.224,-0.766,-0.655,-0.18,0.054,0.354,0.396,0.521
0.514,-0.521,-1.034,0.004,0.774,-0.777,-0.356,-0.94,-0.598,-0.401,-0.175,0.037
-0.001,-0.568,-0.568,0.285,0.284,-0.568,-0.108,-0.753,-0.446,-0.351,-0.169,-0.072
-0.209,-0.705,-0.496,0.457,0.144,-0.6,0.037,-0.371,-0.296,-0.263,-0.153,-0.124
-0.174,-0.651,-0.477,0.413,0.152,-0.564,0.108,-0.1,-0.123,-0.111,-0.048,-0.059
-0.128,-0.598,-0.47,0.363,0.171,-0.534,0.17,0.106,0.01,-0.002,0.039,0.004
-0.094,-0.565,-0.471,0.33,0.189,-0.518,0.174,0.145,0.056,0.03,0.076,0.035
-0.077,-0.545,-0.467,0.311,0.195,-0.506,0.181,0.203,0.109,0.087,0.114,0.076
-0.084,-0.556,-0.472,0.32,0.194,-0.513,0.185,0.181,0.097,0.074,0.107,0.069
-0.069,-0.537,-0.468,0.303,0.2,-0.503,0.185,0.206,0.134,0.109,0.13,0.088
-0.074,-0.543,-0.469,0.309,0.197,-0.506,0.193,0.223,0.139,0.114,0.127,0.085
-0.085,-0.575,-0.49,0.33,0.203,-0.532,0.191,0.216,0.154,0.13,0.143,0.094
-0.091,-0.594,-0.503,0.343,0.206,-0.548,0.208,0.24,0.165,0.132,0.154,0.109
-0.073,-0.589,-0.516,0.331,0.222,-0.552,0.223,0.25,0.168,0.129,0.152,0.109
-0.069,-0.605,-0.536,0.338,0.234,-0.57,0.229,0.269,0.182,0.155,0.169,0.131
-0.056,-0.6,-0.544,0.328,0.244,-0.572,0.234,0.296,0.193,0.173,0.189,0.152
-0.035,-0.593,-0.558,0.314,0.262,-0.575,0.235,0.306,0.205,0.18,0.194,0.152
-0.022,-0.589,-0.567,0.306,0.272,-0.578,0.235,0.321,0.215,0.184,0.199,0.158
-0.006,-0.583,-0.576,0.295,0.285,-0.579,0.234,0.354,0.231,0.205,0.214,0.168
0.003,-0.582,-0.585,0.29,0.294,-0.583,0.23,0.378,0.254,0.21,0.227,0.17
0.028,-0.567,-0.595,0.27,0.312,-0.581,0.228,0.404,0.269,0.223,0.243,0.181
0.073,-0.538,-0.611,0.233,0.342,-0.574,0.225,0.437,0.288,0.263,0.273,0.217
0.115,-0.517,-0.632,0.202,0.373,-0.574,0.222,0.465,0.32,0.287,0.299,0.241
0.141,-0.491,-0.633,0.175,0.387,-0.562,0.22,0.487,0.345,0.318,0.329,0.267
0.192,-0.459,-0.652,0.134,0.422,-0.555,0.217,0.501,0.37,0.356,0.372,0.312
0.222,-0.462,-0.683,0.12,0.453,-0.572,0.214,0.513,0.396,0.386,0.401,0.344
0.227,-0.481,-0.708,0.128,0.468,-0.594,0.215,0.512,0.419,0.415,0.427,0.372
0.249,-0.496,-0.744,0.124,0.497,-0.62,0.21,0.505,0.426,0.433,0.445,0.401
0.249,-0.5,-0.748,0.126,0.499,-0.624,0.21,0.501,0.415,0.428,0.435,0.399
0.239,-0.503,-0.742,0.132,0.491,-0.622,0.211,0.481,0.403,0.42,0.423,0.39
0.205,-0.532,-0.737,0.164,0.471,-0.634,0.208,0.446,0.393,0.408,0.413,0.378
0.149,-0.581,-0.731,0.216,0.44,-0.656,0.219,0.401,0.372,0.371,0.391,0.341
0.088,-0.638,-0.726,0.276,0.407,-0.682,0.235,0.364,0.345,0.337,0.359,0.307
0.063,-0.658,-0.72,0.298,0.392,-0.689,0.247,0.335,0.315,0.304,0.326,0.276
0.043,-0.672,-0.715,0.315,0.379,-0.693,0.248,0.3,0.286,0.266,0.296,0.244
0.004,-0.705,-0.709,0.35,0.357,-0.707,0.24,0.271,0.26,0.242,0.27,0.218
-0.014,-0.716,-0.702,0.366,0.344,-0.708,0.235,0.247,0.236,0.22,0.247,0.195
-0.041,-0.704,-0.663,0.373,0.311,-0.683,0.23,0.229,0.223,0.197,0.23,0.172
-0.053,-0.675,-0.622,0.364,0.285,-0.648,0.223,0.214,0.209,0.172,0.216,0.153
-0.047,-0.644,-0.597,0.346,0.275,-0.62,0.215,0.2,0.187,0.145,0.197,0.137
-0.036,-0.606,-0.57,0.321,0.267,-0.588,0.206,0.186,0.169,0.118,0.178,0.119
-0.026,-0.566,-0.54,0.297,0.257,-0.553,0.192,0.171,0.16,0.102,0.165,0.09
-0.044,-0.546,-0.502,0.296,0.229,-0.524,0.178,0.158,0.142,0.095,0.152,0.072
-0.054,-0.53,-0.477,0.292,0.212,-0.503,0.165,0.145,0.113,0.09,0.132,0.066
-0.027,-0.476,-0.449,0.252,0.211,-0.463,0.149,0.131,0.105,0.078,0.119,0.055
-0.028,-0.417,-0.389,0.222,0.181,-0.403,0.127,0.115,0.098,0.058,0.121,0.042
-0.024,-0.376,-0.352,0.2,0.164,-0.363,0.113,0.098,0.083,0.053,0.118,0.028
0.013,-0.343,-0.356,0.165,0.185,-0.349,0.108,0.089,0.081,0.056,0.115,0.03
0.011,-0.348,-0.359,0.169,0.185,-0.353,0.1,0.09,0.078,0.053,0.114,0.038
-0.002,-0.363,-0.361,0.182,0.18,-0.361,0.095,0.09,0.083,0.06,0.119,0.04
0.005,-0.369,-0.374,0.182,0.19,-0.371,0.086,0.09,0.1,0.07,0.129,0.04
-0.006,-0.398,-0.392,0.202,0.194,-0.395,0.09,0.09,0.1,0.07,0.133,0.04
-0.011,-0.408,-0.396,0.21,0.193,-0.402,0.097,0.087,0.095,0.07,0.134,0.055
-0.022,-0.409,-0.387,0.215,0.183,-0.398,0.095,0.085,0.094,0.07,0.137,0.061
-0.022,-0.416,-0.394,0.219,0.187,-0.404,0.095,0.081,0.089,0.07,0.139,0.059
-0.001,-0.413,-0.412,0.207,0.206,-0.412,0.092,0.08,0.091,0.07,0.141,0.061
-0.005,-0.419,-0.414,0.212,0.205,-0.416,0.089,0.075,0.095,0.07,0.143,0.059
-0.02,-0.424,-0.404,0.222,0.192,-0.413,0.09,0.076,0.098,0.07,0.146,0.061
-0.02,-0.43,-0.41,0.226,0.195,-0.42,0.097,0.093,0.102,0.069,0.143,0.054
0.024,-0.413,-0.438,0.194,0.231,-0.425,0.107,0.094,0.105,0.076,0.152,0.059
-0.005,-0.445,-0.44,0.225,0.218,-0.442,0.115,0.089,0.102,0.081,0.177,0.087
-0.041,-0.474,-0.433,0.258,0.196,-0.453,0.114,0.09,0.099,0.08,0.178,0.089
0.002,-0.431,-0.433,0.215,0.218,-0.432,0.111,0.09,0.096,0.079,0.168,0.081
-0.006,-0.432,-0.426,0.219,0.211,-0.429,0.108,0.09,0.093,0.075,0.164,0.079
-0.013,-0.44,-0.427,0.227,0.207,-0.433,0.105,0.09,0.09,0.075,0.155,0.073
-0.038,-0.444,-0.407,0.241,0.185,-0.425,0.104,0.083,0.09,0.075,0.151,0.07
-0.057,-0.421,-0.364,0.239,0.153,-0.392,0.088,0.067,0.09,0.075,0.154,0.065
-0.032,-0.361,-0.329,0.197,0.148,-0.344,0.07,0.057,0.09,0.075,0.155,0.065
-0.023,-0.324,-0.301,0.174,0.139,-0.312,0.07,0.053,0.09,0.075,0.155,0.064
0.015,-0.283,-0.297,0.134,0.156,-0.29,0.07,0.067,0.09,0.075,0.154,0.059
0.042,-0.268,-0.31,0.113,0.177,-0.289,0.065,0.088,0.091,0.076,0.156,0.061
0.044,-0.261,-0.305,0.109,0.175,-0.282,0.066,0.094,0.085,0.074,0.151,0.056
0.04,-0.261,-0.301,0.111,0.17,-0.281,0.062,0.066,0.085,0.073,0.148,0.056
-0.013,-0.31,-0.297,0.162,0.142,-0.303,0.061,0.03,0.078,0.058,0.147,0.05
-0.051,-0.342,-0.291,0.197,0.12,-0.317,0.058,0.029,0.076,0.048,0.152,0.05
-0.059,-0.406,-0.346,0.233,0.144,-0.376,0.065,0.032,0.073,0.04,0.149,0.045
-0.064,-0.463,-0.399,0.264,0.168,-0.431,0.082,0.027,0.066,0.037,0.149,0.044
-0.083,-0.463,-0.379,0.273,0.148,-0.421,0.084,0.033,0.069,0.039,0.153,0.048
-0.11,-0.463,-0.353,0.287,0.122,-0.408,0.078,0.026,0.058,0.025,0.146,0.039
-0.089,-0.449,-0.361,0.269,0.136,-0.404,0.075,0.026,0.074,0.04,0.165,0.053
-0.087,-0.474,-0.387,0.281,0.15,-0.431,0.073,0.025,0.053,0.019,0.146,0.033
-0.095,-0.454,-0.359,0.275,0.133,-0.406,0.068,0.038,0.079,0.059,0.178,0.062
-0.086,-0.483,-0.397,0.285,0.155,-0.439,0.093,0.07,0.05,0.036,0.146,0.05
-0.118,-0.396,-0.278,0.257,0.08,-0.337,0.122,0.078,0.128,0.115,0.209,0.109
-0.266,-0.303,-0.037,0.285,-0.114,-0.17,0.342,0.274,0.29,0.216,0.292,0.147
0.046,-0.307,-0.353,0.131,0.2,-0.33,0.232,0.502,0.329,0.318,0.377,0.241
1.02,-0.148,-1.168,-0.436,1.094,-0.657,-0.428,0.415,0.462,0.683,0.723,0.658
1.143,-0.436,-1.579,-0.353,1.361,-1.007,-0.582,-0.327,-0.075,0.181,0.366,0.455
0.401,-0.717,-1.118,0.158,0.76,-0.917,-0.29,-0.956,-0.562,-0.416,-0.101,0.016
-0.005,-0.682,-0.677,0.344,0.336,-0.679,-0.084,-0.671,-0.352,-0.292,-0.055,-0.042
-0.135,-0.742,-0.608,0.438,0.236,-0.675,0.051,-0.285,-0.213,-0.205,-0.026,-0.059
-0.118,-0.691,-0.573,0.405,0.227,-0.632,0.137,0.005,-0.009,-0.023,0.116,0.02
-0.04,-0.654,-0.615,0.347,0.287,-0.634,0.187,0.167,0.1,0.066,0.179,0.068
-0.038,-0.655,-0.616,0.347,0.289,-0.635,0.198,0.207,0.147,0.108,0.228,0.115
-0.051,-0.666,-0.615,0.359,0.283,-0.64,0.196,0.256,0.195,0.154,0.259,0.137
-0.023,-0.664,-0.641,0.344,0.309,-0.652,0.199,0.245,0.189,0.149,0.258,0.143
-0.03,-0.664,-0.634,0.347,0.302,-0.649,0.228,0.271,0.222,0.178,0.279,0.153
-0.033,-0.688,-0.655,0.36,0.312,-0.671,0.231,0.269,0.217,0.171,0.275,0.15
-0.013,-0.688,-0.676,0.351,0.332,-0.682,0.229,0.293,0.221,0.177,0.305,0.18
-0.026,-0.709,-0.683,0.368,0.329,-0.696,0.23,0.304,0.22,0.174,0.305,0.183
-0.023,-0.737,-0.714,0.38,0.345,-0.725,0.231,0.296,0.219,0.175,0.309,0.187
-0.024,-0.737,-0.713,0.381,0.345,-0.724,0.238,0.321,0.237,0.192,0.311,0.192
-0.017,-0.745,-0.729,0.381,0.356,-0.737,0.235,0.336,0.252,0.199,0.309,0.193
0.003,-0.759,-0.761,0.378,0.382,-0.76,0.232,0.355,0.264,0.217,0.316,0.199
0.021,-0.747,-0.768,0.363,0.395,-0.758,0.229,0.369,0.271,0.227,0.325,0.198
0.045,-0.743,-0.788,0.35,0.416,-0.765,0.239,0.392,0.283,0.231,0.347,0.212
0.066,-0.732,-0.798,0.334,0.432,-0.765,0.239,0.428,0.3,0.242,0.357,0.228
0.073,-0.718,-0.79,0.323,0.432,-0.754,0.235,0.454,0.314,0.261,0.372,0.238
0.094,-0.704,-0.798,0.306,0.446,-0.751,0.232,0.478,0.333,0.29,0.394,0.258
0.125,-0.68,-0.804,0.278,0.465,-0.742,0.227,0.502,0.365,0.319,0.427,0.289
0.167,-0.656,-0.823,0.245,0.495,-0.739,0.225,0.526,0.394,0.353,0.465,0.328
0.216,-0.639,-0.855,0.212,0.536,-0.746,0.218,0.544,0.409,0.382,0.492,0.358
0.232,-0.633,-0.865,0.2,0.549,-0.748,0.208,0.558,0.441,0.409,0.521,0.394
0.263,-0.636,-0.9,0.187,0.582,-0.768,0.199,0.56,0.456,0.435,0.54,0.414
0.29,-0.632,-0.922,0.172,0.606,-0.777,0.192,0.549,0.454,0.443,0.557,0.416
0.293,-0.637,-0.93,0.172,0.612,-0.783,0.179,0.541,0.458,0.438,0.561,0.409
0.281,-0.645,-0.926,0.182,0.604,-0.785,0.193,0.517,0.443,0.435,0.559,0.394
0.226,-0.694,-0.92,0.234,0.573,-0.807,0.212,0.467,0.416,0.412,0.537,0.385
0.149,-0.775,-0.924,0.313,0.537,-0.849,0.216,0.405,0.383,0.372,0.493,0.35
0.101,-0.803,-0.905,0.351,0.503,-0.854,0.242,0.365,0.354,0.336,0.455,0.313
0.053,-0.851,-0.904,0.4,0.479,-0.878,0.255,0.338,0.329,0.289,0.419,0.287
0.016,-0.889,-0.905,0.437,0.461,-0.897,0.253,0.307,0.306,0.254,0.393,0.256
0.008,-0.889,-0.897,0.44,0.453,-0.893,0.249,0.29,0.292,0.242,0.383,0.235
-0.017,-0.904,-0.887,0.461,0.435,-0.896,0.246,0.276,0.28,0.232,0.374,0.227
-0.023,-0.903,-0.88,0.463,0.429,-0.892,0.24,0.266,0.27,0.222,0.366,0.219
-0.033,-0.907,-0.874,0.47,0.421,-0.89,0.242,0.261,0.26,0.212,0.357,0.207
-0.038,-0.908,-0.87,0.473,0.416,-0.889,0.252,0.257,0.25,0.203,0.351,0.197
-0.04,-0.885,-0.845,0.463,0.402,-0.864,0.24,0.253,0.239,0.189,0.338,0.176
-0.071,-0.861,-0.79,0.466,0.36,-0.825,0.227,0.24,0.224,0.167,0.31,0.144
-0.053,-0.825,-0.771,0.439,0.359,-0.798,0.216,0.222,0.207,0.153,0.292,0.132
-0.017,-0.776,-0.759,0.397,0.371,-0.767,0.205,0.211,0.196,0.149,0.289,0.129
-0.026,-0.762,-0.736,0.395,0.355,-0.749,0.2,0.204,0.191,0.144,0.283,0.124
-0.024,-0.759,-0.735,0.392,0.355,-0.746,0.195,0.198,0.186,0.138,0.278,0.121
-0.026,-0.753,-0.727,0.39,0.351,-0.74,0.189,0.19,0.183,0.132,0.272,0.114
-0.036,-0.751,-0.715,0.394,0.34,-0.733,0.183,0.184,0.176,0.132,0.271,0.115
-0.055,-0.743,-0.688,0.399,0.317,-0.715,0.179,0.178,0.175,0.136,0.278,0.115
-0.084,-0.751,-0.668,0.418,0.292,-0.709,0.172,0.175,0.166,0.134,0.28,0.115
-0.061,-0.751,-0.69,0.406,0.314,-0.72,0.168,0.173,0.176,0.136,0.287,0.132
-0.065,-0.771,-0.706,0.418,0.321,-0.738,0.159,0.168,0.204,0.148,0.301,0.14
-0.029,-0.776,-0.747,0.403,0.359,-0.761,0.171,0.192,0.214,0.16,0.309,0.149
-0.003,-0.779,-0.776,0.392,0.387,-0.777,0.201,0.217,0.229,0.174,0.319,0.157
-0.018,-0.798,-0.78,0.408,0.381,-0.789,0.197,0.208,0.228,0.175,0.32,0.153
0.005,-0.795,-0.8,0.395,0.403,-0.797,0.194,0.206,0.223,0.171,0.32,0.165
-0.045,-0.845,-0.8,0.445,0.378,-0.822,0.191,0.199,0.221,0.168,0.32,0.171
-0.067,-0.864,-0.797,0.466,0.365,-0.83,0.186,0.193,0.216,0.165,0.32,0.169
-0.064,-0.87,-0.806,0.467,0.371,-0.837,0.185,0.19,0.215,0.165,0.319,0.17
-0.073,-0.897,-0.824,0.486,0.376,-0.86,0.165,0.174,0.203,0.155,0.312,0.17
-0.046,-0.871,-0.825,0.459,0.39,-0.848,0.189,0.193,0.222,0.174,0.334,0.175
-0.032,-0.855,-0.823,0.444,0.396,-0.839,0.207,0.206,0.239,0.188,0.347,0.175
-0.066,-0.892,-0.825,0.479,0.38,-0.858,0.194,0.195,0.232,0.18,0.34,0.175
-0.09,-0.913,-0.823,0.502,0.367,-0.867,0.193,0.192,0.232,0.179,0.339,0.175
-0.073,-0.903,-0.83,0.488,0.379,-0.866,0.185,0.185,0.228,0.174,0.334,0.172
