-0.036,-0.035,0.001,0.035,-0.018,-0.017,0.04,0.016,-0.08,-0.065,-0.025,-0.025
-0.047,-0.035,0.012,0.041,-0.029,-0.012,0.04,0.021,-0.079,-0.064,-0.025,-0.025
-0.051,-0.035,0.017,0.043,-0.033,-0.009,0.04,0.028,-0.075,-0.06,-0.025,-0.025
-0.05,-0.035,0.014,0.042,-0.032,-0.01,0.04,0.034,-0.072,-0.057,-0.025,-0.025
-0.049,-0.035,0.014,0.042,-0.031,-0.01,0.04,0.03,-0.067,-0.052,-0.025,-0.025
-0.044,-0.035,0.009,0.04,-0.026,-0.013,0.04,0.025,-0.065,-0.05,-0.026,-0.025
-0.051,-0.04,0.011,0.045,-0.031,-0.014,0.04,0.021,-0.071,-0.055,-0.029,-0.03
-0.041,-0.04,0.001,0.041,-0.021,-0.019,0.04,0.016,-0.078,-0.054,-0.03,-0.03
-0.036,-0.041,-0.006,0.039,-0.015,-0.023,0.04,0.011,-0.087,-0.061,-0.034,-0.034
-0.047,-0.045,0.002,0.046,-0.024,-0.021,0.04,0.007,-0.096,-0.071,-0.035,-0.035
-0.049,-0.045,0.004,0.047,-0.026,-0.021,0.04,0.001,-0.099,-0.07,-0.037,-0.037
-0.054,-0.043,0.011,0.048,-0.032,-0.016,0.038,-0.004,-0.104,-0.069,-0.042,-0.041
-0.043,-0.04,0.003,0.041,-0.023,-0.018,0.034,-0.009,-0.108,-0.078,-0.046,-0.039
-0.033,-0.04,-0.007,0.037,-0.013,-0.024,0.032,-0.015,-0.11,-0.089,-0.049,-0.044
-0.035,-0.04,-0.005,0.038,-0.015,-0.022,0.029,-0.02,-0.113,-0.091,-0.052,-0.045
-0.035,-0.04,-0.005,0.038,-0.015,-0.022,0.025,-0.025,-0.116,-0.094,-0.055,-0.045
-0.037,-0.04,-0.003,0.039,-0.017,-0.021,0.025,-0.024,-0.119,-0.097,-0.057,-0.05
-0.035,-0.034,0.001,0.035,-0.018,-0.016,0.029,-0.027,-0.12,-0.1,-0.061,-0.049
-0.028,-0.029,-0.001,0.028,-0.013,-0.014,0.033,-0.03,-0.12,-0.099,-0.058,-0.052
-0.031,-0.024,0.007,0.027,-0.018,-0.009,0.035,-0.031,-0.12,-0.093,-0.051,-0.055
-0.044,-0.018,0.027,0.031,-0.035,0.004,0.04,-0.026,-0.12,-0.087,-0.045,-0.056
-0.033,-0.013,0.02,0.023,-0.026,0.003,0.039,-0.011,-0.114,-0.081,-0.038,-0.052
-0.043,-0.006,0.037,0.024,-0.04,0.016,0.043,0.001,-0.091,-0.075,-0.03,-0.039
-0.053,0.011,0.064,0.02,-0.058,0.037,0.063,0.023,-0.08,-0.068,-0.025,-0.028
-0.032,0.042,0.074,-0.005,-0.053,0.058,0.055,0.007,-0.077,-0.059,-0.017,-0.016
-0.046,0.059,0.105,-0.007,-0.075,0.082,0.019,-0.028,-0.072,-0.058,-0.011,-0.01
-0.045,0.064,0.109,-0.01,-0.077,0.087,-0.012,-0.029,-0.071,-0.058,-0.001,0.002
-0.03,0.077,0.107,-0.024,-0.069,0.092,-0.023,-0.034,-0.063,-0.062,0.006,0.001
-0.013,0.058,0.071,-0.022,-0.042,0.064,-0.015,-0.036,-0.072,-0.058,0.006,-0.013
-0.031,0.009,0.04,0.01,-0.035,0.024,-0.005,-0.039,-0.094,-0.067,-0.018,-0.026
-0.068,-0.025,0.042,0.046,-0.055,0.008,0.007,-0.041,-0.111,-0.087,-0.05,-0.049
-0.075,-0.035,0.04,0.055,-0.057,0.003,0.019,-0.039,-0.129,-0.097,-0.067,-0.059
-0.07,-0.062,0.008,0.065,-0.038,-0.026,0.02,-0.046,-0.135,-0.118,-0.09,-0.071
-0.06,-0.054,0.006,0.057,-0.033,-0.024,0.019,-0.055,-0.132,-0.109,-0.074,-0.06
-0.041,-0.066,-0.026,0.054,-0.008,-0.046,0.021,-0.057,-0.141,-0.122,-0.099,-0.081
-0.051,-0.055,-0.004,0.054,-0.024,-0.029,0.019,-0.047,-0.134,-0.094,-0.069,-0.059
-0.077,-0.06,0.017,0.068,-0.047,-0.022,0.02,-0.059,-0.149,-0.116,-0.099,-0.08
0.01,-0.102,-0.112,0.047,0.061,-0.107,0.007,0.08,-0.036,-0.047,-0.095,-0.103
0.102,0.04,-0.062,-0.071,0.082,-0.011,0.053,0.383,0.395,0.246,0.057,-0.001
0.248,0.573,0.325,-0.411,-0.039,0.449,-0.095,-0.037,0.543,0.849,0.737,0.561
0.125,1.153,1.028,-0.639,-0.452,1.09,-0.495,-1.154,-0.32,0.842,1.37,1.251
-0.232,0.63,0.862,-0.199,-0.548,0.746,-0.47,-1.321,-1.128,-0.378,0.386,0.583
-0.206,-0.052,0.154,0.129,-0.18,0.05,-0.179,-0.608,-0.716,-0.583,-0.29,-0.149
-0.088,-0.013,0.074,0.051,-0.081,0.03,-0.069,-0.184,-0.214,-0.124,-0.057,-0.055
-0.081,-0.053,0.028,0.067,-0.055,-0.012,-0.009,-0.057,-0.159,-0.159,-0.115,-0.103
-0.087,-0.06,0.027,0.074,-0.057,-0.016,0.007,-0.029,-0.11,-0.081,-0.058,-0.076
-0.081,-0.054,0.027,0.068,-0.054,-0.014,0.014,-0.01,-0.112,-0.107,-0.079,-0.078
-0.058,-0.058,0.0,0.058,-0.029,-0.029,0.022,0.005,-0.091,-0.092,-0.071,-0.08
-0.055,-0.041,0.013,0.048,-0.034,-0.014,0.022,0.015,-0.081,-0.075,-0.061,-0.064
-0.021,-0.05,-0.029,0.035,0.004,-0.039,0.021,0.03,-0.071,-0.071,-0.073,-0.077
-0.005,-0.034,-0.029,0.02,0.012,-0.031,0.019,0.039,-0.055,-0.052,-0.054,-0.063
-0.032,-0.038,-0.006,0.035,-0.012,-0.022,0.021,0.047,-0.047,-0.06,-0.063,-0.071
-0.038,-0.028,0.011,0.033,-0.024,-0.008,0.019,0.042,-0.036,-0.04,-0.046,-0.061
-0.014,-0.024,-0.01,0.019,-0.002,-0.017,0.021,0.055,-0.029,-0.037,-0.051,-0.066
-0.041,-0.019,0.022,0.03,-0.031,0.001,0.013,0.055,-0.021,-0.02,-0.041,-0.049
-0.041,-0.009,0.031,0.025,-0.036,0.011,0.006,0.062,0.0,-0.008,-0.039,-0.037
0.0,0.001,0.001,-0.001,-0.001,0.001,-0.001,0.078,0.029,0.009,-0.028,-0.024
0.006,0.02,0.014,-0.013,-0.004,0.017,-0.009,0.088,0.049,0.043,-0.007,-0.01
0.012,0.041,0.03,-0.026,-0.009,0.035,-0.016,0.109,0.077,0.073,0.012,-0.001
0.012,0.058,0.047,-0.035,-0.018,0.052,-0.023,0.126,0.11,0.103,0.044,0.029
0.04,0.074,0.035,-0.057,0.002,0.054,-0.034,0.146,0.148,0.143,0.069,0.05
0.078,0.102,0.025,-0.09,0.026,0.063,-0.064,0.164,0.186,0.188,0.108,0.086
0.076,0.15,0.074,-0.113,0.001,0.112,-0.085,0.178,0.23,0.246,0.167,0.138
0.086,0.193,0.107,-0.14,-0.011,0.15,-0.105,0.186,0.265,0.295,0.218,0.188
0.135,0.229,0.094,-0.183,0.02,0.162,-0.133,0.191,0.276,0.342,0.269,0.24
0.159,0.264,0.106,-0.212,0.026,0.185,-0.142,0.179,0.265,0.359,0.307,0.276
0.135,0.285,0.15,-0.211,-0.007,0.217,-0.133,0.166,0.253,0.346,0.32,0.292
0.108,0.27,0.161,-0.189,-0.027,0.215,-0.118,0.148,0.234,0.31,0.294,0.262
0.078,0.218,0.139,-0.148,-0.031,0.178,-0.086,0.12,0.168,0.225,0.229,0.201
0.049,0.162,0.113,-0.105,-0.032,0.137,-0.048,0.09,0.097,0.14,0.153,0.127
0.012,0.108,0.096,-0.06,-0.042,0.101,-0.028,0.055,0.042,0.069,0.085,0.064
-0.027,0.057,0.084,-0.015,-0.056,0.07,-0.001,0.035,-0.007,0.02,0.036,0.026
-0.039,0.034,0.073,0.002,-0.056,0.053,0.02,0.025,-0.047,-0.019,0.006,-0.009
-0.046,0.022,0.068,0.012,-0.058,0.045,0.02,0.012,-0.07,-0.056,-0.019,-0.036
-0.051,0.01,0.061,0.02,-0.056,0.035,0.02,0.003,-0.082,-0.061,-0.03,-0.046
-0.038,0.005,0.044,0.016,-0.041,0.024,0.019,0.0,-0.091,-0.063,-0.029,-0.044
-0.034,0.0,0.034,0.017,-0.034,0.017,0.021,0.0,-0.088,-0.066,-0.032,-0.048
-0.041,-0.006,0.036,0.023,-0.038,0.015,0.026,0.0,-0.099,-0.059,-0.035,-0.05
-0.046,-0.011,0.034,0.028,-0.04,0.011,0.025,0.0,-0.106,-0.061,-0.035,-0.05
-0.052,-0.017,0.036,0.034,-0.044,0.009,0.025,0.0,-0.1,-0.058,-0.032,-0.047
-0.054,-0.02,0.034,0.037,-0.044,0.006,0.025,0.004,-0.098,-0.055,-0.03,-0.044
-0.059,-0.02,0.039,0.039,-0.049,0.009,0.025,0.009,-0.093,-0.055,-0.03,-0.045
-0.07,-0.02,0.05,0.045,-0.06,0.015,0.025,0.011,-0.09,-0.055,-0.03,-0.045
-0.07,-0.02,0.05,0.045,-0.06,0.015,0.025,0.015,-0.087,-0.055,-0.03,-0.045
-0.07,-0.02,0.05,0.045,-0.06,0.015,0.025,0.02,-0.081,-0.055,-0.031,-0.045
-0.07,-0.02,0.05,0.045,-0.06,0.015,0.025,0.018,-0.076,-0.055,-0.035,-0.045
-0.07,-0.02,0.05,0.045,-0.06,0.015,0.024,0.012,-0.073,-0.055,-0.035,-0.045
-0.07,-0.02,0.05,0.045,-0.06,0.015,0.028,0.008,-0.066,-0.055,-0.035,-0.045
-0.065,-0.02,0.045,0.042,-0.055,0.012,0.035,0.003,-0.067,-0.061,-0.035,-0.045
-0.062,-0.02,0.041,0.041,-0.051,0.011,0.035,-0.001,-0.077,-0.067,-0.034,-0.045
-0.059,-0.02,0.039,0.039,-0.049,0.009,0.035,-0.005,-0.084,-0.073,-0.038,-0.048
-0.054,-0.02,0.034,0.037,-0.044,0.007,0.035,-0.011,-0.094,-0.075,-0.041,-0.057
-0.051,-0.02,0.031,0.035,-0.041,0.005,0.035,-0.018,-0.097,-0.075,-0.04,-0.059
-0.048,-0.02,0.028,0.034,-0.038,0.003,0.033,-0.023,-0.108,-0.079,-0.044,-0.055
-0.043,-0.02,0.023,0.031,-0.033,0.001,0.029,-0.025,-0.111,-0.08,-0.045,-0.055
-0.04,-0.02,0.02,0.03,-0.03,0.0,0.027,-0.025,-0.109,-0.08,-0.045,-0.052
-0.04,-0.024,0.017,0.032,-0.028,-0.004,0.024,-0.025,-0.111,-0.085,-0.05,-0.05
-0.038,-0.025,0.012,0.031,-0.024,-0.006,0.021,-0.031,-0.109,-0.085,-0.05,-0.049
-0.036,-0.027,0.009,0.032,-0.022,-0.008,0.02,-0.035,-0.112,-0.085,-0.05,-0.058
-0.049,-0.031,0.018,0.04,-0.034,-0.006,0.02,-0.035,-0.115,-0.085,-0.05,-0.062
-0.051,-0.028,0.023,0.039,-0.037,-0.002,0.02,-0.035,-0.115,-0.085,-0.05,-0.059
-0.043,-0.025,0.017,0.034,-0.03,-0.004,0.02,-0.035,-0.115,-0.083,-0.048,-0.06
-0.038,-0.025,0.014,0.031,-0.025,-0.005,0.02,-0.035,-0.115,-0.079,-0.044,-0.055
-0.034,-0.025,0.008,0.029,-0.021,-0.008,0.02,-0.035,-0.116,-0.08,-0.045,-0.055
-0.031,-0.025,0.006,0.027,-0.018,-0.009,0.021,-0.028,-0.11,-0.08,-0.042,-0.054
-0.031,-0.026,0.004,0.028,-0.017,-0.011,0.031,-0.017,-0.102,-0.08,-0.04,-0.049
-0.015,-0.013,0.002,0.014,-0.008,-0.005,0.033,-0.008,-0.096,-0.08,-0.04,-0.045
-0.005,0.023,0.028,-0.01,-0.016,0.025,0.047,0.004,-0.089,-0.073,-0.033,-0.04
-0.053,0.029,0.082,0.012,-0.068,0.055,0.064,0.017,-0.084,-0.062,-0.025,-0.036
-0.064,0.043,0.107,0.01,-0.086,0.075,0.043,0.014,-0.078,-0.057,-0.016,-0.03
-0.023,0.075,0.098,-0.026,-0.061,0.087,0.014,0.002,-0.075,-0.061,-0.004,-0.02
-0.024,0.078,0.102,-0.027,-0.063,0.089,-0.011,-0.007,-0.07,-0.062,0.006,-0.011
-0.02,0.077,0.097,-0.029,-0.059,0.087,-0.023,-0.019,-0.065,-0.068,0.007,-0.017
-0.005,0.054,0.059,-0.025,-0.032,0.056,-0.016,-0.032,-0.069,-0.068,0.007,-0.013
-0.03,0.003,0.033,0.013,-0.031,0.017,-0.004,-0.04,-0.086,-0.071,-0.023,-0.027
-0.062,-0.036,0.026,0.049,-0.043,-0.005,0.01,-0.044,-0.11,-0.08,-0.047,-0.059
-0.086,-0.05,0.036,0.068,-0.061,-0.007,0.017,-0.049,-0.122,-0.091,-0.047,-0.062
-0.074,-0.063,0.011,0.069,-0.042,-0.026,0.016,-0.048,-0.127,-0.095,-0.067,-0.073
-0.072,-0.05,0.021,0.061,-0.047,-0.014,0.013,-0.045,-0.122,-0.077,-0.056,-0.062
-0.066,-0.074,-0.007,0.07,-0.029,-0.04,0.018,-0.045,-0.129,-0.093,-0.078,-0.084
-0.054,-0.054,0.0,0.054,-0.026,-0.027,0.011,-0.043,-0.12,-0.06,-0.049,-0.064
-0.065,-0.083,-0.018,0.074,-0.023,-0.05,0.02,-0.051,-0.13,-0.092,-0.081,-0.089
0.012,-0.118,-0.129,0.053,0.071,-0.123,0.028,0.111,0.003,-0.023,-0.074,-0.105
0.109,0.053,-0.056,-0.081,0.083,-0.002,0.066,0.418,0.461,0.307,0.101,0.02
0.259,0.633,0.374,-0.446,-0.058,0.504,-0.117,-0.108,0.539,0.929,0.851,0.658
0.087,1.165,1.078,-0.626,-0.496,1.122,-0.513,-1.234,-0.389,0.783,1.372,1.272
-0.268,0.528,0.796,-0.13,-0.532,0.662,-0.43,-1.27,-1.093,-0.421,0.301,0.492
-0.174,-0.06,0.115,0.117,-0.144,0.027,-0.145,-0.536,-0.619,-0.495,-0.266,-0.151
-0.072,-0.006,0.065,0.038,-0.068,0.03,-0.061,-0.147,-0.168,-0.087,-0.037,-0.045
-0.084,-0.087,-0.004,0.085,-0.04,-0.045,-0.004,-0.048,-0.132,-0.131,-0.11,-0.105
-0.06,-0.069,-0.009,0.065,-0.026,-0.039,0.009,-0.019,-0.078,-0.048,-0.049,-0.067
-0.045,-0.079,-0.034,0.062,-0.005,-0.056,0.03,0.006,-0.076,-0.078,-0.073,-0.08
-0.02,-0.073,-0.053,0.047,0.016,-0.063,0.04,0.01,-0.057,-0.049,-0.058,-0.075
-0.03,-0.062,-0.032,0.046,0.002,-0.047,0.039,0.015,-0.051,-0.048,-0.052,-0.067
-0.023,-0.068,-0.045,0.046,0.011,-0.056,0.04,0.022,-0.041,-0.044,-0.056,-0.072
-0.024,-0.052,-0.028,0.039,0.002,-0.039,0.033,0.025,-0.028,-0.031,-0.04,-0.058
-0.025,-0.058,-0.033,0.042,0.004,-0.045,0.036,0.041,-0.024,-0.036,-0.047,-0.064
-0.007,-0.045,-0.038,0.026,0.016,-0.041,0.032,0.05,-0.012,-0.019,-0.032,-0.052
0.006,-0.047,-0.053,0.021,0.03,-0.049,0.026,0.049,0.0,-0.025,-0.036,-0.054
0.003,-0.038,-0.042,0.018,0.023,-0.04,0.019,0.057,0.02,-0.005,-0.026,-0.043
0.003,-0.037,-0.04,0.017,0.022,-0.038,0.013,0.072,0.034,0.007,-0.024,-0.037
0.008,-0.027,-0.036,0.01,0.022,-0.031,0.006,0.085,0.044,0.028,-0.012,-0.027
0.021,-0.007,-0.028,-0.007,0.024,-0.018,0.0,0.096,0.063,0.05,0.003,-0.022
0.046,0.009,-0.038,-0.028,0.042,-0.014,-0.006,0.113,0.101,0.078,0.023,0.001
0.043,0.018,-0.025,-0.03,0.034,-0.004,-0.016,0.134,0.131,0.114,0.051,0.023
0.058,0.038,-0.02,-0.048,0.038,0.009,-0.018,0.148,0.168,0.151,0.086,0.049
0.092,0.077,-0.016,-0.084,0.054,0.03,-0.034,0.166,0.21,0.201,0.123,0.09
0.108,0.117,0.01,-0.112,0.049,0.063,-0.058,0.172,0.241,0.249,0.172,0.129
0.139,0.167,0.028,-0.154,0.056,0.097,-0.078,0.183,0.279,0.297,0.232,0.189
0.15,0.206,0.056,-0.178,0.046,0.131,-0.102,0.185,0.299,0.335,0.27,0.237
0.149,0.245,0.096,-0.198,0.026,0.171,-0.117,0.169,0.306,0.359,0.306,0.273
0.158,0.263,0.105,-0.21,0.026,0.184,-0.124,0.161,0.291,0.35,0.316,0.296
0.143,0.239,0.096,-0.191,0.023,0.167,-0.101,0.148,0.246,0.304,0.282,0.268
0.105,0.198,0.093,-0.152,0.006,0.145,-0.055,0.124,0.195,0.233,0.227,0.196
0.051,0.134,0.082,-0.093,-0.016,0.108,-0.023,0.092,0.126,0.145,0.151,0.121
0.006,0.075,0.069,-0.041,-0.032,0.071,-0.002,0.064,0.066,0.072,0.087,0.06
-0.022,0.031,0.053,-0.005,-0.038,0.042,0.017,0.049,0.021,0.017,0.031,0.011
-0.035,-0.002,0.033,0.018,-0.034,0.016,0.036,0.041,-0.024,-0.02,-0.011,-0.021
-0.028,-0.02,0.008,0.024,-0.017,-0.006,0.05,0.032,-0.046,-0.04,-0.034,-0.04
-0.02,-0.03,-0.01,0.025,-0.005,-0.02,0.05,0.023,-0.062,-0.061,-0.053,-0.06
-0.031,-0.04,-0.009,0.036,-0.011,-0.025,0.05,0.016,-0.07,-0.071,-0.056,-0.066
-0.049,-0.045,0.004,0.047,-0.026,-0.02,0.051,0.015,-0.061,-0.07,-0.054,-0.064
-0.062,-0.045,0.017,0.053,-0.039,-0.014,0.049,0.015,-0.058,-0.068,-0.056,-0.065
-0.06,-0.045,0.015,0.052,-0.037,-0.015,0.052,0.015,-0.051,-0.064,-0.054,-0.065
-0.06,-0.045,0.015,0.052,-0.037,-0.015,0.056,0.015,-0.046,-0.065,-0.056,-0.065
-0.058,-0.045,0.014,0.051,-0.035,-0.015,0.055,0.016,-0.061,-0.065,-0.059,-0.06
-0.05,-0.042,0.008,0.046,-0.029,-0.017,0.055,0.025,-0.065,-0.065,-0.06,-0.06
-0.051,-0.039,0.012,0.045,-0.032,-0.013,0.056,0.031,-0.056,-0.065,-0.06,-0.059
-0.037,-0.036,0.001,0.036,-0.019,-0.017,0.054,0.03,-0.055,-0.065,-0.06,-0.055
-0.021,-0.034,-0.012,0.028,-0.004,-0.023,0.057,0.03,-0.048,-0.065,-0.06,-0.055
-0.019,-0.029,-0.01,0.024,-0.004,-0.02,0.067,0.03,-0.046,-0.067,-0.062,-0.057
-0.023,-0.033,-0.01,0.028,-0.006,-0.022,0.066,0.03,-0.049,-0.07,-0.067,-0.064
-0.037,-0.045,-0.008,0.041,-0.014,-0.026,0.062,0.029,-0.053,-0.071,-0.071,-0.071
-0.041,-0.045,-0.005,0.043,-0.018,-0.025,0.06,0.024,-0.056,-0.075,-0.075,-0.074
-0.04,-0.045,-0.005,0.043,-0.017,-0.025,0.056,0.019,-0.059,-0.075,-0.075,-0.077
-0.03,-0.045,-0.015,0.038,-0.007,-0.03,0.055,0.014,-0.063,-0.078,-0.075,-0.079
-0.022,-0.045,-0.022,0.033,0.0,-0.033,0.059,0.01,-0.065,-0.084,-0.077,-0.083
-0.03,-0.046,-0.017,0.038,-0.006,-0.031,0.061,0.005,-0.068,-0.087,-0.084,-0.085
-0.036,-0.051,-0.015,0.044,-0.01,-0.033,0.059,0.002,-0.071,-0.092,-0.091,-0.087
-0.044,-0.056,-0.011,0.05,-0.016,-0.033,0.06,-0.001,-0.077,-0.095,-0.094,-0.09
-0.05,-0.059,-0.01,0.055,-0.02,-0.034,0.059,-0.004,-0.081,-0.098,-0.097,-0.09
-0.053,-0.064,-0.01,0.058,-0.021,-0.037,0.062,-0.007,-0.083,-0.102,-0.099,-0.09
-0.056,-0.065,-0.01,0.061,-0.022,-0.037,0.065,-0.01,-0.086,-0.105,-0.103,-0.09
-0.054,-0.065,-0.01,0.06,-0.022,-0.037,0.065,-0.01,-0.089,-0.102,-0.105,-0.09
-0.055,-0.065,-0.01,0.06,-0.022,-0.037,0.065,-0.01,-0.09,-0.099,-0.105,-0.09
-0.055,-0.065,-0.01,0.06,-0.022,-0.037,0.065,-0.01,-0.085,-0.1,-0.105,-0.09
-0.055,-0.063,-0.009,0.059,-0.023,-0.035,0.066,-0.01,-0.08,-0.1,-0.105,-0.09
-0.055,-0.06,-0.005,0.058,-0.025,-0.032,0.064,-0.01,-0.076,-0.101,-0.105,-0.09
-0.051,-0.053,-0.002,0.052,-0.024,-0.027,0.067,-0.01,-0.071,-0.099,-0.105,-0.091
-0.055,-0.054,0.001,0.055,-0.028,-0.026,0.063,-0.003,-0.066,-0.093,-0.105,-0.087
-0.037,-0.032,0.005,0.034,-0.021,-0.013,0.071,0.02,-0.062,-0.085,-0.098,-0.078
-0.021,-0.006,0.014,0.013,-0.017,0.004,0.099,0.048,-0.048,-0.08,-0.087,-0.07
-0.038,0.01,0.048,0.014,-0.043,0.028,0.097,0.032,-0.04,-0.072,-0.077,-0.06
-0.035,0.042,0.078,-0.004,-0.057,0.06,0.063,0.008,-0.041,-0.067,-0.064,-0.056
-0.025,0.048,0.074,-0.012,-0.05,0.061,0.038,0.005,-0.038,-0.067,-0.053,-0.054
-0.01,0.053,0.063,-0.022,-0.036,0.058,0.042,0.002,-0.036,-0.075,-0.039,-0.056
-0.016,0.035,0.051,-0.01,-0.033,0.043,0.047,-0.001,-0.032,-0.077,-0.036,-0.053
-0.046,-0.021,0.025,0.033,-0.035,0.002,0.05,-0.005,-0.049,-0.081,-0.076,-0.065
-0.044,-0.066,-0.022,0.055,-0.01,-0.044,0.055,-0.005,-0.068,-0.097,-0.113,-0.094
-0.055,-0.071,-0.016,0.063,-0.019,-0.043,0.055,-0.011,-0.078,-0.106,-0.108,-0.092
-0.057,-0.097,-0.041,0.077,-0.008,-0.068,0.061,-0.008,-0.085,-0.118,-0.129,-0.11
-0.065,-0.098,-0.034,0.082,-0.015,-0.065,0.06,-0.013,-0.085,-0.109,-0.114,-0.104
-0.068,-0.11,-0.042,0.089,-0.012,-0.076,0.067,-0.007,-0.085,-0.123,-0.137,-0.122
-0.055,-0.103,-0.048,0.079,-0.003,-0.075,0.065,-0.012,-0.085,-0.106,-0.119,-0.11
-0.071,-0.099,-0.028,0.085,-0.021,-0.064,0.073,-0.006,-0.088,-0.12,-0.135,-0.114
-0.005,-0.158,-0.153,0.082,0.075,-0.155,0.076,0.097,-0.019,-0.066,-0.146,-0.143
0.072,-0.051,-0.123,-0.01,0.098,-0.087,0.118,0.389,0.383,0.199,-0.032,-0.071
0.213,0.392,0.18,-0.302,0.016,0.285,0.041,0.27,0.721,0.817,0.569,0.395
0.136,1.074,0.938,-0.605,-0.401,1.006,-0.367,-0.772,-0.068,0.962,1.367,1.167
-0.214,0.714,0.928,-0.25,-0.572,0.821,-0.41,-1.157,-1.054,-0.253,0.501,0.639
-0.237,-0.101,0.136,0.169,-0.186,0.018,-0.102,-0.552,-0.776,-0.676,-0.392,-0.216
-0.135,-0.116,0.019,0.126,-0.077,-0.049,-0.017,-0.176,-0.23,-0.173,-0.145,-0.116
-0.094,-0.125,-0.031,0.11,-0.031,-0.078,0.043,-0.025,-0.121,-0.156,-0.171,-0.12
-0.05,-0.131,-0.081,0.091,0.016,-0.106,0.066,0.017,-0.072,-0.095,-0.135,-0.114
-0.053,-0.116,-0.063,0.085,0.005,-0.089,0.062,0.039,-0.054,-0.085,-0.132,-0.102
-0.042,-0.135,-0.093,0.089,0.026,-0.114,0.073,0.055,-0.033,-0.082,-0.143,-0.12
-0.038,-0.112,-0.074,0.076,0.018,-0.092,0.066,0.053,-0.022,-0.061,-0.118,-0.1
-0.028,-0.122,-0.094,0.075,0.033,-0.107,0.067,0.065,-0.014,-0.069,-0.137,-0.119
-0.023,-0.102,-0.079,0.063,0.029,-0.09,0.063,0.067,-0.001,-0.046,-0.112,-0.102
-0.016,-0.104,-0.088,0.061,0.036,-0.096,0.066,0.084,0.006,-0.049,-0.121,-0.107
-0.009,-0.092,-0.084,0.051,0.038,-0.088,0.064,0.082,0.018,-0.026,-0.103,-0.093
-0.004,-0.089,-0.085,0.047,0.04,-0.087,0.065,0.09,0.027,-0.021,-0.103,-0.09
0.005,-0.081,-0.086,0.038,0.046,-0.083,0.061,0.092,0.041,-0.004,-0.09,-0.083
0.015,-0.069,-0.084,0.028,0.049,-0.076,0.054,0.096,0.054,0.011,-0.078,-0.074
0.026,-0.061,-0.087,0.018,0.056,-0.073,0.048,0.105,0.065,0.022,-0.068,-0.066
0.033,-0.05,-0.083,0.009,0.058,-0.066,0.041,0.113,0.09,0.05,-0.052,-0.053
0.043,-0.044,-0.087,0.001,0.065,-0.065,0.034,0.136,0.123,0.082,-0.034,-0.029
0.044,-0.029,-0.073,-0.007,0.059,-0.051,0.028,0.147,0.145,0.113,-0.003,0.003
0.054,0.001,-0.054,-0.027,0.054,-0.026,0.014,0.159,0.182,0.155,0.033,0.026
0.077,0.036,-0.041,-0.056,0.058,-0.003,-0.002,0.176,0.218,0.204,0.074,0.062
0.116,0.078,-0.038,-0.096,0.077,0.019,-0.021,0.183,0.254,0.258,0.126,0.115
0.138,0.116,-0.022,-0.127,0.08,0.046,-0.052,0.18,0.289,0.304,0.185,0.165
0.146,0.156,0.01,-0.151,0.068,0.083,-0.078,0.167,0.301,0.344,0.23,0.211
0.175,0.201,0.026,-0.189,0.075,0.113,-0.102,0.156,0.296,0.351,0.262,0.245
0.158,0.212,0.054,-0.185,0.052,0.133,-0.117,0.144,0.282,0.339,0.277,0.262
0.14,0.199,0.06,-0.17,0.04,0.129,-0.093,0.136,0.256,0.316,0.255,0.242
0.115,0.166,0.051,-0.141,0.032,0.108,-0.052,0.129,0.199,0.241,0.197,0.18
0.064,0.112,0.048,-0.088,0.008,0.08,-0.023,0.124,0.137,0.151,0.12,0.106
0.045,0.055,0.01,-0.05,0.017,0.032,0.009,0.108,0.074,0.073,0.048,0.041
0.024,0.006,-0.019,-0.014,0.021,-0.006,0.046,0.078,0.018,0.017,-0.006,-0.007
-0.018,-0.023,-0.005,0.021,-0.006,-0.014,0.071,0.064,-0.016,-0.016,-0.044,-0.04
-0.049,-0.046,0.004,0.047,-0.026,-0.021,0.076,0.055,-0.038,-0.044,-0.072,-0.06
-0.045,-0.057,-0.012,0.051,-0.016,-0.034,0.074,0.045,-0.05,-0.058,-0.081,-0.07
-0.027,-0.059,-0.031,0.043,0.002,-0.045,0.075,0.045,-0.055,-0.066,-0.079,-0.071
-0.011,-0.057,-0.046,0.034,0.018,-0.051,0.076,0.044,-0.055,-0.07,-0.08,-0.069
-0.015,-0.054,-0.039,0.035,0.012,-0.046,0.08,0.04,-0.052,-0.066,-0.08,-0.07
-0.019,-0.055,-0.036,0.038,0.009,-0.046,0.08,0.04,-0.046,-0.065,-0.08,-0.07
-0.024,-0.055,-0.031,0.04,0.004,-0.042,0.08,0.041,-0.042,-0.065,-0.08,-0.07
-0.028,-0.055,-0.027,0.042,0.0,-0.041,0.08,0.045,-0.037,-0.06,-0.08,-0.07
-0.035,-0.056,-0.021,0.046,-0.006,-0.039,0.08,0.045,-0.033,-0.06,-0.08,-0.07
-0.058,-0.06,-0.003,0.059,-0.028,-0.031,0.077,0.045,-0.028,-0.059,-0.08,-0.07
-0.029,-0.063,-0.034,0.047,0.003,-0.048,0.073,0.053,-0.025,-0.054,-0.08,-0.07
-0.013,-0.067,-0.054,0.04,0.021,-0.06,0.069,0.056,-0.025,-0.051,-0.08,-0.07
-0.021,-0.07,-0.049,0.045,0.014,-0.059,0.066,0.055,-0.022,-0.048,-0.076,-0.068
-0.025,-0.074,-0.049,0.049,0.013,-0.061,0.061,0.053,-0.02,-0.044,-0.075,-0.065
-0.019,-0.075,-0.056,0.047,0.019,-0.065,0.06,0.049,-0.019,-0.039,-0.075,-0.065
-0.004,-0.075,-0.071,0.04,0.034,-0.073,0.078,0.051,-0.035,-0.048,-0.071,-0.065
-0.01,-0.08,-0.07,0.045,0.03,-0.075,0.078,0.046,-0.041,-0.059,-0.069,-0.065
-0.011,-0.079,-0.069,0.045,0.029,-0.074,0.07,0.04,-0.041,-0.062,-0.072,-0.065
-0.017,-0.082,-0.064,0.05,0.024,-0.072,0.069,0.035,-0.063,-0.066,-0.075,-0.06
-0.021,-0.087,-0.066,0.055,0.023,-0.076,0.061,0.029,-0.066,-0.072,-0.076,-0.06
-0.022,-0.086,-0.064,0.054,0.022,-0.075,0.06,0.024,-0.065,-0.079,-0.079,-0.06
0.001,-0.084,-0.085,0.041,0.044,-0.084,0.05,0.018,-0.07,-0.08,-0.081,-0.06
-0.02,-0.082,-0.062,0.051,0.021,-0.071,0.051,0.015,-0.07,-0.08,-0.076,-0.06
-0.033,-0.078,-0.045,0.056,0.006,-0.061,0.071,0.014,-0.069,-0.08,-0.075,-0.062
-0.022,-0.089,-0.067,0.056,0.022,-0.077,0.07,0.016,-0.064,-0.08,-0.074,-0.066
-0.052,-0.105,-0.053,0.079,0.001,-0.079,0.058,0.014,-0.066,-0.079,-0.071,-0.065
-0.051,-0.102,-0.051,0.077,0.0,-0.076,0.056,0.015,-0.064,-0.073,-0.069,-0.065
-0.037,-0.097,-0.06,0.067,0.012,-0.078,0.042,0.012,-0.071,-0.066,-0.072,-0.065
-0.031,-0.093,-0.062,0.062,0.016,-0.077,0.045,0.006,-0.082,-0.06,-0.082,-0.06
-0.027,-0.088,-0.061,0.058,0.017,-0.075,0.065,0.013,-0.068,-0.052,-0.076,-0.053
-0.021,-0.074,-0.053,0.048,0.016,-0.064,0.062,0.013,-0.054,-0.046,-0.064,-0.046
-0.045,-0.052,-0.008,0.048,-0.018,-0.03,0.095,0.047,-0.05,-0.048,-0.056,-0.04
-0.034,-0.029,0.005,0.031,-0.019,-0.012,0.119,0.062,-0.05,-0.052,-0.044,-0.032
-0.032,-0.01,0.022,0.021,-0.027,0.006,0.069,0.031,-0.05,-0.055,-0.036,-0.026
-0.023,-0.004,0.018,0.014,-0.02,0.007,0.012,0.03,-0.053,-0.055,-0.024,-0.02
0.017,0.025,0.008,-0.021,0.004,0.016,0.026,0.024,-0.057,-0.056,-0.015,-0.013
0.016,0.021,0.005,-0.019,0.005,0.013,0.047,0.018,-0.06,-0.063,-0.01,-0.005
0.003,-0.026,-0.029,0.012,0.016,-0.027,0.025,0.008,-0.063,-0.055,-0.01,-0.004
-0.019,-0.076,-0.057,0.048,0.019,-0.066,0.019,-0.001,-0.067,-0.076,-0.056,-0.048
-0.035,-0.09,-0.055,0.063,0.01,-0.072,0.047,-0.008,-0.074,-0.091,-0.064,-0.066
-0.035,-0.105,-0.07,0.07,0.018,-0.087,0.071,-0.026,-0.087,-0.101,-0.083,-0.079
-0.044,-0.128,-0.085,0.086,0.021,-0.106,0.06,-0.035,-0.091,-0.097,-0.084,-0.08
-0.062,-0.127,-0.064,0.095,0.001,-0.095,0.062,-0.033,-0.089,-0.101,-0.083,-0.077
-0.046,-0.138,-0.092,0.092,0.023,-0.115,0.061,-0.021,-0.091,-0.103,-0.095,-0.087
-0.072,-0.115,-0.042,0.094,-0.015,-0.078,0.066,-0.031,-0.099,-0.091,-0.076,-0.067
-0.017,-0.161,-0.144,0.09,0.063,-0.152,0.065,0.025,-0.075,-0.091,-0.115,-0.113
0.074,-0.124,-0.198,0.025,0.136,-0.16,0.067,0.285,0.219,0.095,-0.041,-0.08
0.188,0.201,0.013,-0.195,0.087,0.107,0.054,0.315,0.616,0.566,0.329,0.205
0.243,0.915,0.673,-0.579,-0.215,0.793,-0.301,-0.592,0.202,1.052,1.248,1.018
-0.076,0.962,1.038,-0.443,-0.557,1.0,-0.548,-1.345,-0.877,0.227,1.015,1.047
-0.246,0.083,0.329,0.081,-0.288,0.206,-0.287,-0.882,-0.995,-0.708,-0.188,0.052
-0.128,-0.159,-0.031,0.144,-0.048,-0.095,-0.066,-0.282,-0.326,-0.278,-0.179,-0.134
-0.078,-0.111,-0.033,0.095,-0.022,-0.072,0.023,-0.067,-0.114,-0.11,-0.061,-0.065
-0.058,-0.162,-0.105,0.11,0.024,-0.133,0.05,-0.007,-0.082,-0.124,-0.107,-0.11
-0.047,-0.129,-0.081,0.088,0.018,-0.105,0.035,0.015,-0.04,-0.056,-0.054,-0.059
-0.048,-0.157,-0.11,0.103,0.032,-0.133,0.063,0.054,-0.034,-0.09,-0.094,-0.088
-0.042,-0.137,-0.094,0.09,0.027,-0.115,0.065,0.047,-0.009,-0.05,-0.05,-0.057
-0.034,-0.15,-0.115,0.092,0.041,-0.132,0.065,0.053,-0.01,-0.067,-0.07,-0.068
-0.039,-0.144,-0.105,0.092,0.033,-0.124,0.065,0.059,0.008,-0.036,-0.046,-0.053
-0.038,-0.14,-0.102,0.089,0.032,-0.121,0.065,0.069,0.013,-0.036,-0.049,-0.051
-0.019,-0.131,-0.112,0.076,0.047,-0.122,0.064,0.074,0.026,-0.025,-0.04,-0.046
0.031,-0.117,-0.148,0.044,0.09,-0.133,0.056,0.09,0.038,-0.013,-0.028,-0.039
0.023,-0.117,-0.14,0.047,0.082,-0.128,0.049,0.111,0.065,0.003,-0.022,-0.035
-0.021,-0.109,-0.088,0.065,0.034,-0.098,0.042,0.115,0.069,0.019,-0.008,-0.021
-0.006,-0.101,-0.095,0.054,0.044,-0.098,0.034,0.117,0.071,0.031,-0.003,-0.013
-0.002,-0.089,-0.087,0.046,0.042,-0.088,0.027,0.126,0.109,0.055,0.006,-0.002
0.009,-0.074,-0.083,0.032,0.047,-0.078,0.028,0.144,0.126,0.071,0.023,0.0
0.043,-0.05,-0.093,0.004,0.069,-0.072,0.022,0.157,0.16,0.115,0.05,0.018
0.059,-0.018,-0.078,-0.02,0.069,-0.048,0.018,0.181,0.196,0.154,0.079,0.049
0.086,0.02,-0.066,-0.053,0.076,-0.023,0.002,0.198,0.232,0.195,0.118,0.084
0.106,0.05,-0.056,-0.078,0.08,-0.003,-0.025,0.214,0.277,0.252,0.163,0.125
0.116,0.094,-0.023,-0.105,0.069,0.035,-0.042,0.229,0.321,0.305,0.222,0.184
0.155,0.138,-0.017,-0.146,0.085,0.06,-0.068,0.222,0.35,0.353,0.271,0.23
0.153,0.166,0.013,-0.16,0.07,0.089,-0.089,0.216,0.358,0.372,0.314,0.274
0.148,0.198,0.05,-0.173,0.049,0.123,-0.1,0.208,0.354,0.372,0.337,0.305
0.146,0.199,0.053,-0.173,0.047,0.126,-0.094,0.179,0.307,0.356,0.324,0.288
0.105,0.167,0.061,-0.136,0.022,0.114,-0.077,0.151,0.254,0.293,0.286,0.258
0.088,0.115,0.026,-0.102,0.031,0.07,-0.048,0.134,0.183,0.201,0.209,0.189
0.04,0.05,0.01,-0.046,0.015,0.03,-0.004,0.11,0.103,0.114,0.132,0.108
-0.006,-0.005,0.001,0.005,-0.004,-0.002,0.025,0.083,0.045,0.052,0.082,0.054
0.003,-0.045,-0.048,0.021,0.026,-0.046,0.037,0.062,0.003,0.003,0.039,0.016
0.0,-0.066,-0.066,0.033,0.033,-0.065,0.047,0.05,-0.017,-0.02,0.015,0.0
-0.007,-0.076,-0.069,0.042,0.031,-0.072,0.052,0.043,-0.042,-0.028,0.011,-0.005
-0.003,-0.089,-0.087,0.046,0.042,-0.088,0.067,0.035,-0.05,-0.044,0.004,-0.007
-0.006,-0.09,-0.084,0.049,0.039,-0.087,0.068,0.027,-0.044,-0.047,-0.001,-0.01
-0.005,-0.09,-0.084,0.048,0.04,-0.087,0.06,0.028,-0.046,-0.044,-0.007,-0.014
-0.011,-0.09,-0.079,0.051,0.034,-0.084,0.059,0.031,-0.044,-0.045,-0.019,-0.015
-0.009,-0.09,-0.081,0.05,0.036,-0.086,0.051,0.03,-0.046,-0.045,-0.021,-0.019
-0.015,-0.089,-0.074,0.052,0.03,-0.081,0.052,0.035,-0.045,-0.046,-0.017,-0.02
-0.039,-0.085,-0.046,0.062,0.004,-0.066,0.063,0.035,-0.042,-0.044,-0.015,-0.02
-0.003,-0.083,-0.079,0.043,0.038,-0.081,0.065,0.035,-0.039,-0.04,-0.011,-0.024
0.009,-0.08,-0.089,0.036,0.049,-0.084,0.065,0.034,-0.036,-0.041,-0.01,-0.026
0.0,-0.077,-0.076,0.039,0.038,-0.076,0.065,0.035,-0.034,-0.037,-0.014,-0.023
0.017,-0.074,-0.09,0.029,0.054,-0.082,0.065,0.048,-0.029,-0.035,-0.016,-0.02
-0.006,-0.086,-0.08,0.047,0.037,-0.083,0.065,0.045,-0.032,-0.035,-0.015,-0.02
-0.005,-0.096,-0.091,0.051,0.043,-0.093,0.065,0.037,-0.035,-0.039,-0.015,-0.02
0.0,-0.094,-0.094,0.048,0.047,-0.094,0.065,0.031,-0.038,-0.041,-0.015,-0.02
-0.008,-0.095,-0.087,0.052,0.04,-0.091,0.061,0.024,-0.04,-0.04,-0.016,-0.02
-0.011,-0.095,-0.084,0.053,0.037,-0.089,0.056,0.019,-0.044,-0.057,-0.025,-0.02
-0.03,-0.095,-0.065,0.063,0.018,-0.08,0.051,0.014,-0.05,-0.066,-0.031,-0.02
-0.01,-0.095,-0.085,0.053,0.038,-0.09,0.048,0.009,-0.049,-0.067,-0.029,-0.02
-0.004,-0.095,-0.091,0.049,0.044,-0.093,0.041,0.005,-0.061,-0.071,-0.033,-0.02
-0.014,-0.095,-0.081,0.055,0.034,-0.088,0.042,0.0,-0.072,-0.073,-0.035,-0.02
0.002,-0.094,-0.096,0.046,0.05,-0.095,0.054,-0.004,-0.072,-0.077,-0.035,-0.02
-0.012,-0.097,-0.084,0.055,0.037,-0.09,0.051,-0.009,-0.077,-0.079,-0.035,-0.02
-0.038,-0.1,-0.062,0.069,0.012,-0.081,0.044,-0.01,-0.079,-0.084,-0.035,-0.02
-0.023,-0.1,-0.077,0.062,0.027,-0.089,0.041,-0.01,-0.084,-0.084,-0.035,-0.02
-0.006,-0.104,-0.098,0.055,0.046,-0.101,0.032,-0.014,-0.085,-0.08,-0.035,-0.02
-0.024,-0.105,-0.081,0.065,0.029,-0.093,0.033,-0.015,-0.085,-0.08,-0.034,-0.02
-0.012,-0.101,-0.089,0.057,0.039,-0.095,0.043,-0.015,-0.085,-0.08,-0.037,-0.024
-0.014,-0.099,-0.086,0.057,0.036,-0.092,0.047,-0.016,-0.085,-0.08,-0.04,-0.025
-0.036,-0.1,-0.064,0.068,0.014,-0.082,0.043,-0.014,-0.084,-0.08,-0.04,-0.025
-0.018,-0.099,-0.081,0.059,0.031,-0.09,0.042,-0.02,-0.08,-0.082,-0.04,-0.03
-0.022,-0.101,-0.078,0.062,0.028,-0.089,0.038,-0.029,-0.081,-0.081,-0.04,-0.031
-0.03,-0.099,-0.069,0.065,0.02,-0.084,0.043,-0.016,-0.079,-0.077,-0.041,-0.029
0.001,-0.084,-0.085,0.041,0.044,-0.084,0.053,-0.008,-0.081,-0.075,-0.035,-0.021
0.012,-0.059,-0.07,0.023,0.041,-0.064,0.05,0.006,-0.069,-0.07,-0.026,-0.009
-0.023,-0.037,-0.013,0.03,-0.005,-0.025,0.081,0.04,-0.042,-0.062,-0.018,-0.001
-0.018,-0.026,-0.008,0.022,-0.005,-0.016,0.094,0.039,-0.034,-0.054,-0.009,0.013
-0.031,-0.011,0.02,0.021,-0.025,0.004,0.059,0.022,-0.033,-0.046,0.003,0.03
-0.007,0.003,0.009,0.002,-0.008,0.006,0.022,0.016,-0.029,-0.035,0.015,0.04
0.057,0.026,-0.031,-0.041,0.044,-0.002,0.008,0.01,-0.028,-0.035,0.024,0.042
0.028,0.016,-0.012,-0.022,0.02,0.001,0.014,0.004,-0.022,-0.035,0.026,0.028
-0.011,-0.032,-0.021,0.022,0.006,-0.026,0.006,-0.003,-0.038,-0.035,0.002,0.023
-0.013,-0.08,-0.068,0.047,0.028,-0.073,0.018,-0.009,-0.069,-0.064,-0.03,0.0
0.002,-0.094,-0.096,0.046,0.049,-0.095,0.043,-0.016,-0.071,-0.07,-0.025,-0.019
-0.017,-0.104,-0.086,0.061,0.034,-0.094,0.044,-0.022,-0.085,-0.092,-0.054,-0.043
-0.048,-0.119,-0.071,0.084,0.012,-0.095,0.034,-0.03,-0.086,-0.094,-0.053,-0.04
-0.034,-0.115,-0.081,0.075,0.023,-0.098,0.035,-0.038,-0.083,-0.1,-0.058,-0.033
-0.006,-0.134,-0.127,0.07,0.061,-0.13,0.025,-0.034,-0.084,-0.094,-0.066,-0.042
-0.054,-0.118,-0.063,0.086,0.005,-0.09,0.026,-0.037,-0.074,-0.074,-0.051,-0.014
-0.009,-0.159,-0.151,0.084,0.071,-0.155,0.045,0.002,-0.074,-0.081,-0.09,-0.062
0.077,-0.125,-0.201,0.024,0.139,-0.163,0.066,0.292,0.219,0.103,-0.008,-0.038
0.193,0.208,0.015,-0.201,0.089,0.112,0.042,0.334,0.615,0.571,0.36,0.254
0.261,0.915,0.654,-0.588,-0.197,0.784,-0.301,-0.636,0.21,1.057,1.263,1.072
-0.085,0.95,1.035,-0.433,-0.56,0.992,-0.532,-1.402,-0.836,0.239,1.028,1.095
-0.251,0.096,0.348,0.077,-0.299,0.222,-0.286,-0.928,-0.969,-0.674,-0.136,0.095
-0.12,-0.142,-0.022,0.131,-0.048,-0.082,-0.08,-0.292,-0.317,-0.248,-0.142,-0.089
-0.065,-0.099,-0.034,0.082,-0.015,-0.066,-0.001,-0.074,-0.107,-0.084,-0.038,-0.023
-0.016,-0.143,-0.127,0.079,0.056,-0.135,0.038,-0.016,-0.076,-0.088,-0.066,-0.07
-0.013,-0.104,-0.091,0.059,0.039,-0.097,0.032,0.011,-0.039,-0.036,-0.016,-0.021
-0.029,-0.132,-0.103,0.081,0.037,-0.117,0.031,0.03,-0.04,-0.075,-0.056,-0.052
-0.005,-0.11,-0.105,0.058,0.05,-0.107,0.026,0.031,-0.014,-0.035,-0.018,-0.022
0.016,-0.119,-0.134,0.052,0.076,-0.126,0.022,0.052,-0.015,-0.059,-0.041,-0.035
-0.003,-0.114,-0.111,0.059,0.054,-0.112,0.022,0.062,0.001,-0.037,-0.022,-0.022
0.009,-0.11,-0.119,0.051,0.064,-0.114,0.039,0.065,0.002,-0.039,-0.027,-0.022
0.012,-0.103,-0.116,0.046,0.064,-0.109,0.039,0.073,0.012,-0.018,-0.02,-0.019
-0.015,-0.092,-0.077,0.054,0.031,-0.084,0.033,0.078,0.024,-0.007,-0.017,-0.012
0.015,-0.088,-0.103,0.036,0.06,-0.095,0.032,0.086,0.034,-0.003,-0.015,-0.01
0.039,-0.077,-0.117,0.019,0.078,-0.097,0.026,0.091,0.049,0.014,-0.009,0.004
0.025,-0.066,-0.092,0.021,0.059,-0.079,0.024,0.097,0.064,0.025,-0.004,0.007
0.035,-0.051,-0.086,0.008,0.061,-0.068,0.018,0.105,0.082,0.05,0.018,0.023
0.037,-0.038,-0.075,0.001,0.056,-0.056,0.012,0.116,0.103,0.071,0.032,0.041
0.042,-0.022,-0.064,-0.01,0.054,-0.043,0.007,0.137,0.142,0.102,0.057,0.056
0.052,-0.011,-0.064,-0.02,0.058,-0.037,-0.003,0.157,0.177,0.134,0.083,0.078
0.077,0.028,-0.049,-0.052,0.063,-0.011,-0.02,0.175,0.212,0.179,0.12,0.11
0.099,0.076,-0.024,-0.087,0.061,0.025,-0.041,0.196,0.259,0.234,0.165,0.152
0.114,0.113,-0.001,-0.113,0.058,0.055,-0.063,0.197,0.298,0.283,0.217,0.201
0.147,0.159,0.012,-0.153,0.067,0.085,-0.087,0.189,0.327,0.33,0.27,0.253
0.165,0.197,0.032,-0.181,0.067,0.114,-0.109,0.183,0.342,0.359,0.316,0.301
0.183,0.222,0.04,-0.203,0.071,0.131,-0.115,0.176,0.336,0.373,0.346,0.331
0.163,0.229,0.066,-0.196,0.048,0.147,-0.112,0.169,0.312,0.361,0.336,0.331
0.125,0.202,0.077,-0.164,0.024,0.139,-0.09,0.154,0.263,0.293,0.301,0.287
0.093,0.143,0.05,-0.119,0.021,0.096,-0.05,0.132,0.188,0.21,0.23,0.22
0.046,0.082,0.036,-0.064,0.005,0.059,-0.017,0.103,0.118,0.13,0.153,0.15
0.014,0.033,0.018,-0.024,-0.002,0.025,0.007,0.074,0.068,0.062,0.099,0.089
-0.011,-0.012,-0.002,0.012,-0.004,-0.007,0.018,0.053,0.026,0.02,0.053,0.047
-0.015,-0.038,-0.023,0.027,0.005,-0.031,0.033,0.038,-0.003,-0.013,0.024,0.031
-0.012,-0.045,-0.033,0.028,0.011,-0.039,0.046,0.025,-0.019,-0.031,0.017,0.027
-0.026,-0.055,-0.029,0.041,0.002,-0.042,0.045,0.019,-0.032,-0.039,0.013,0.019
-0.03,-0.061,-0.031,0.045,0.0,-0.046,0.045,0.02,-0.036,-0.045,0.009,0.013
-0.03,-0.06,-0.03,0.045,0.0,-0.045,0.045,0.02,-0.035,-0.049,0.004,0.006
-0.03,-0.06,-0.03,0.045,0.0,-0.045,0.045,0.02,-0.035,-0.05,0.0,0.001
-0.03,-0.06,-0.03,0.045,0.0,-0.045,0.043,0.02,-0.035,-0.05,0.0,0.0
-0.035,-0.06,-0.025,0.048,-0.005,-0.042,0.039,0.024,-0.036,-0.05,0.0,0.0
-0.034,-0.056,-0.022,0.045,-0.006,-0.039,0.041,0.025,-0.032,-0.05,0.0,-0.004
-0.037,-0.055,-0.018,0.046,-0.009,-0.036,0.036,0.027,-0.03,-0.048,0.0,-0.005
-0.04,-0.055,-0.015,0.048,-0.012,-0.035,0.035,0.031,-0.03,-0.045,0.0,-0.005
-0.045,-0.055,-0.01,0.05,-0.017,-0.032,0.035,0.028,-0.03,-0.045,-0.002,-0.005
-0.042,-0.055,-0.012,0.049,-0.014,-0.033,0.03,0.025,-0.03,-0.041,-0.006,-0.005
-0.034,-0.056,-0.023,0.045,-0.005,-0.039,0.03,0.025,-0.031,-0.04,-0.005,-0.005
-0.046,-0.06,-0.015,0.053,-0.016,-0.037,0.03,0.025,-0.035,-0.041,-0.005,-0.005
-0.034,-0.06,-0.026,0.047,-0.004,-0.043,0.03,0.025,-0.035,-0.046,-0.005,-0.005
-0.018,-0.06,-0.042,0.039,0.012,-0.051,0.031,0.025,-0.035,-0.053,-0.005,-0.008
-0.022,-0.06,-0.038,0.041,0.008,-0.049,0.027,0.021,-0.037,-0.057,-0.012,-0.011
-0.018,-0.06,-0.042,0.039,0.012,-0.051,0.025,0.014,-0.044,-0.062,-0.023,-0.014
-0.019,-0.064,-0.045,0.042,0.013,-0.054,0.025,0.008,-0.05,-0.065,-0.032,-0.017
-0.02,-0.065,-0.046,0.043,0.013,-0.055,0.025,0.001,-0.055,-0.07,-0.036,-0.019
-0.022,-0.065,-0.043,0.044,0.011,-0.053,0.025,-0.006,-0.06,-0.07,-0.035,-0.022
-0.026,-0.065,-0.039,0.045,0.007,-0.052,0.025,-0.012,-0.063,-0.072,-0.039,-0.025
-0.025,-0.065,-0.04,0.045,0.008,-0.052,0.031,-0.015,-0.068,-0.076,-0.04,-0.028
-0.029,-0.065,-0.036,0.047,0.004,-0.05,0.031,-0.017,-0.07,-0.079,-0.04,-0.03
-0.03,-0.065,-0.035,0.048,0.003,-0.05,0.026,-0.02,-0.07,-0.083,-0.046,-0.033
-0.029,-0.065,-0.035,0.048,0.003,-0.05,0.024,-0.023,-0.073,-0.085,-0.052,-0.037
-0.025,-0.065,-0.04,0.045,0.008,-0.052,0.02,-0.025,-0.076,-0.085,-0.058,-0.042
-0.02,-0.065,-0.045,0.043,0.013,-0.055,0.015,-0.028,-0.074,-0.085,-0.06,-0.045
-0.02,-0.065,-0.045,0.043,0.013,-0.055,0.018,-0.03,-0.071,-0.085,-0.06,-0.045
-0.022,-0.069,-0.046,0.046,0.012,-0.057,0.031,-0.03,-0.07,-0.085,-0.064,-0.047
-0.023,-0.073,-0.05,0.048,0.014,-0.061,0.031,-0.03,-0.07,-0.085,-0.065,-0.05
-0.028,-0.078,-0.05,0.053,0.012,-0.064,0.024,-0.031,-0.07,-0.087,-0.065,-0.05
-0.032,-0.079,-0.047,0.056,0.007,-0.063,0.024,-0.029,-0.07,-0.086,-0.07,-0.047
-0.031,-0.071,-0.04,0.051,0.005,-0.055,0.013,-0.021,-0.072,-0.085,-0.079,-0.044
-0.028,-0.059,-0.031,0.044,0.002,-0.045,0.024,-0.008,-0.069,-0.082,-0.078,-0.04
-0.024,-0.052,-0.028,0.038,0.003,-0.04,0.052,-0.001,-0.059,-0.08,-0.068,-0.037
-0.019,-0.03,-0.011,0.025,-0.004,-0.02,0.057,0.014,-0.052,-0.078,-0.056,-0.033
0.005,0.001,-0.004,-0.003,0.004,-0.002,0.072,0.027,-0.046,-0.069,-0.051,-0.026
-0.005,0.022,0.027,-0.008,-0.017,0.024,0.067,0.015,-0.041,-0.061,-0.046,-0.014
-0.04,0.032,0.072,0.004,-0.056,0.051,0.022,-0.003,-0.035,-0.053,-0.029,-0.007
-0.013,0.049,0.061,-0.018,-0.037,0.055,-0.011,-0.029,-0.03,-0.045,-0.019,-0.003
0.014,0.06,0.046,-0.037,-0.016,0.053,-0.006,-0.037,-0.03,-0.041,-0.021,-0.006
-0.004,0.03,0.034,-0.013,-0.019,0.032,0.001,-0.034,-0.032,-0.045,-0.028,-0.005
-0.022,-0.021,0.001,0.022,-0.011,-0.01,0.008,-0.036,-0.057,-0.075,-0.059,-0.03
-0.015,-0.06,-0.045,0.038,0.015,-0.052,0.014,-0.035,-0.08,-0.091,-0.082,-0.06
-0.025,-0.069,-0.045,0.047,0.01,-0.057,0.021,-0.035,-0.079,-0.101,-0.094,-0.067
-0.024,-0.085,-0.061,0.055,0.019,-0.073,0.043,-0.035,-0.089,-0.11,-0.093,-0.08
-0.01,-0.071,-0.061,0.041,0.026,-0.066,0.044,-0.051,-0.097,-0.105,-0.084,-0.07
-0.011,-0.091,-0.08,0.051,0.035,-0.085,0.047,-0.046,-0.1,-0.119,-0.122,-0.092
-0.025,-0.068,-0.043,0.047,0.009,-0.055,0.047,-0.042,-0.099,-0.096,-0.085,-0.066
-0.026,-0.09,-0.064,0.058,0.019,-0.077,0.053,-0.044,-0.1,-0.129,-0.132,-0.094
0.028,-0.131,-0.158,0.052,0.093,-0.144,0.05,0.122,0.044,-0.028,-0.114,-0.102
0.12,0.049,-0.071,-0.084,0.095,-0.011,0.08,0.431,0.514,0.315,0.069,0.017
0.272,0.629,0.357,-0.451,-0.043,0.493,-0.111,-0.035,0.609,0.958,0.85,0.664
0.081,1.157,1.076,-0.619,-0.498,1.116,-0.497,-1.137,-0.381,0.751,1.334,1.242
-0.243,0.502,0.746,-0.13,-0.495,0.623,-0.395,-1.164,-1.087,-0.503,0.19,0.409
-0.157,-0.117,0.041,0.137,-0.099,-0.038,-0.123,-0.483,-0.589,-0.538,-0.332,-0.202
-0.083,-0.051,0.032,0.066,-0.057,-0.009,-0.044,-0.161,-0.161,-0.119,-0.09,-0.081
-0.056,-0.107,-0.051,0.082,-0.002,-0.079,0.013,-0.04,-0.108,-0.161,-0.165,-0.133
-0.002,-0.078,-0.076,0.04,0.038,-0.077,0.008,-0.009,-0.056,-0.086,-0.096,-0.086
-0.008,-0.087,-0.079,0.047,0.036,-0.082,0.026,0.022,-0.055,-0.109,-0.126,-0.104
0.008,-0.087,-0.095,0.04,0.052,-0.091,0.033,0.023,-0.032,-0.08,-0.106,-0.095
0.001,-0.076,-0.077,0.037,0.039,-0.076,0.03,0.017,-0.023,-0.083,-0.103,-0.089
0.009,-0.086,-0.094,0.039,0.052,-0.09,0.029,0.042,-0.01,-0.077,-0.105,-0.095
-0.002,-0.074,-0.072,0.038,0.035,-0.073,0.024,0.05,-0.002,-0.062,-0.106,-0.082
0.004,-0.077,-0.081,0.036,0.043,-0.079,0.023,0.055,0.004,-0.062,-0.119,-0.087
0.016,-0.063,-0.078,0.024,0.047,-0.07,0.018,0.053,0.009,-0.044,-0.098,-0.071
0.004,-0.061,-0.065,0.029,0.035,-0.063,0.039,0.07,0.018,-0.044,-0.103,-0.073
0.019,-0.051,-0.07,0.016,0.045,-0.061,0.042,0.084,0.053,-0.027,-0.084,-0.063
0.006,-0.045,-0.051,0.02,0.028,-0.047,0.029,0.085,0.059,-0.016,-0.08,-0.057
0.028,-0.029,-0.057,0.001,0.043,-0.042,0.025,0.105,0.067,0.011,-0.065,-0.043
0.058,-0.022,-0.08,-0.018,0.069,-0.051,0.014,0.105,0.093,0.043,-0.052,-0.032
0.058,0.0,-0.058,-0.029,0.058,-0.029,0.011,0.104,0.11,0.074,-0.039,-0.03
0.082,0.029,-0.053,-0.055,0.067,-0.012,0.005,0.129,0.147,0.099,-0.011,-0.006
0.087,0.04,-0.047,-0.063,0.066,-0.003,-0.025,0.146,0.182,0.133,0.026,0.028
0.117,0.08,-0.037,-0.098,0.077,0.021,-0.046,0.162,0.214,0.183,0.073,0.068
0.151,0.13,-0.021,-0.14,0.086,0.054,-0.073,0.17,0.253,0.234,0.122,0.121
0.13,0.169,0.039,-0.15,0.045,0.104,-0.095,0.176,0.286,0.291,0.187,0.176
0.14,0.205,0.065,-0.173,0.037,0.135,-0.12,0.174,0.31,0.326,0.231,0.22
0.167,0.24,0.073,-0.204,0.047,0.156,-0.139,0.157,0.296,0.344,0.262,0.258
0.105,0.243,0.137,-0.174,-0.016,0.19,-0.127,0.143,0.283,0.343,0.278,0.276
0.101,0.226,0.125,-0.164,-0.012,0.175,-0.114,0.126,0.254,0.295,0.243,0.248
0.125,0.2,0.076,-0.163,0.024,0.138,-0.075,0.114,0.194,0.217,0.176,0.179
0.05,0.133,0.083,-0.092,-0.017,0.108,-0.042,0.103,0.136,0.131,0.098,0.101
0.032,0.073,0.042,-0.053,-0.005,0.057,-0.021,0.087,0.068,0.054,0.028,0.043
0.017,0.039,0.022,-0.028,-0.003,0.03,0.017,0.068,0.024,-0.001,-0.034,-0.006
-0.015,0.009,0.024,0.003,-0.02,0.016,0.041,0.051,0.005,-0.045,-0.07,-0.044
-0.01,-0.009,0.001,0.01,-0.006,-0.004,0.04,0.039,-0.028,-0.066,-0.08,-0.058
-0.011,-0.015,-0.004,0.013,-0.003,-0.01,0.039,0.039,-0.052,-0.08,-0.092,-0.07
-0.028,-0.021,0.007,0.024,-0.017,-0.007,0.041,0.04,-0.056,-0.094,-0.096,-0.077
-0.031,-0.024,0.006,0.027,-0.018,-0.009,0.035,0.04,-0.051,-0.094,-0.094,-0.073
-0.031,-0.02,0.011,0.025,-0.021,-0.004,0.051,0.04,-0.049,-0.095,-0.092,-0.076
-0.032,-0.016,0.016,0.024,-0.024,0.0,0.061,0.04,-0.046,-0.095,-0.089,-0.08
-0.029,-0.014,0.015,0.022,-0.022,0.0,0.054,0.038,-0.044,-0.095,-0.09,-0.079
-0.022,-0.008,0.014,0.015,-0.018,0.003,0.052,0.033,-0.058,-0.095,-0.085,-0.074
-0.033,-0.026,0.008,0.03,-0.021,-0.009,0.048,0.049,-0.057,-0.095,-0.088,-0.072
-0.05,-0.043,0.008,0.047,-0.029,-0.017,0.043,0.056,-0.05,-0.093,-0.107,-0.067
-0.041,-0.034,0.007,0.038,-0.023,-0.014,0.043,0.048,-0.055,-0.088,-0.11,-0.066
-0.041,-0.03,0.011,0.036,-0.026,-0.01,0.058,0.048,-0.055,-0.082,-0.104,-0.075
-0.034,-0.025,0.009,0.029,-0.021,-0.008,0.058,0.042,-0.056,-0.08,-0.103,-0.076
-0.027,-0.018,0.009,0.023,-0.018,-0.004,0.05,0.039,-0.06,-0.073,-0.096,-0.074
-0.024,-0.017,0.008,0.021,-0.016,-0.005,0.049,0.055,-0.06,-0.071,-0.097,-0.076
-0.031,-0.027,0.004,0.029,-0.017,-0.011,0.041,0.058,-0.062,-0.082,-0.104,-0.074
-0.046,-0.041,0.005,0.043,-0.025,-0.017,0.042,0.048,-0.067,-0.087,-0.107,-0.077
-0.044,-0.041,0.002,0.042,-0.023,-0.019,0.055,0.043,-0.07,-0.099,-0.114,-0.079
-0.043,-0.04,0.003,0.041,-0.024,-0.018,0.055,0.035,-0.07,-0.107,-0.116,-0.082
-0.043,-0.04,0.004,0.042,-0.024,-0.018,0.05,0.031,-0.069,-0.104,-0.114,-0.089
-0.036,-0.036,0.001,0.036,-0.018,-0.018,0.049,0.026,-0.073,-0.105,-0.116,-0.091
-0.04,-0.034,0.006,0.037,-0.022,-0.014,0.045,0.023,-0.08,-0.116,-0.13,-0.089
-0.036,-0.037,-0.001,0.036,-0.017,-0.019,0.046,0.02,-0.085,-0.12,-0.136,-0.091
-0.034,-0.04,-0.006,0.037,-0.014,-0.023,0.051,0.015,-0.089,-0.121,-0.135,-0.103
-0.057,-0.041,0.016,0.048,-0.036,-0.012,0.054,0.013,-0.094,-0.119,-0.134,-0.103
-0.043,-0.039,0.004,0.041,-0.023,-0.018,0.059,0.0,-0.093,-0.124,-0.138,-0.096
-0.049,-0.042,0.006,0.046,-0.027,-0.018,0.064,-0.007,-0.083,-0.135,-0.147,-0.092
-0.053,-0.023,0.031,0.038,-0.042,0.004,0.067,0.013,-0.077,-0.118,-0.136,-0.084
-0.022,0.021,0.043,0.0,-0.033,0.032,0.073,0.048,-0.062,-0.104,-0.124,-0.081
-0.066,0.04,0.106,0.013,-0.086,0.072,0.074,0.06,-0.046,-0.096,-0.116,-0.072
-0.063,0.058,0.121,0.002,-0.092,0.089,0.059,0.044,-0.045,-0.092,-0.102,-0.063
0.0,0.08,0.08,-0.04,-0.04,0.08,0.034,0.036,-0.045,-0.097,-0.092,-0.052
0.006,0.093,0.087,-0.049,-0.04,0.089,0.023,0.029,-0.045,-0.098,-0.087,-0.046
-0.014,0.082,0.096,-0.034,-0.056,0.089,0.026,0.023,-0.045,-0.104,-0.093,-0.057
-0.002,0.058,0.06,-0.028,-0.031,0.059,0.024,0.013,-0.044,-0.102,-0.085,-0.056
0.003,0.01,0.007,-0.007,-0.002,0.008,0.026,0.009,-0.063,-0.109,-0.112,-0.084
-0.039,-0.026,0.013,0.032,-0.026,-0.006,0.024,0.0,-0.084,-0.107,-0.129,-0.103
-0.049,-0.047,0.002,0.048,-0.025,-0.022,0.028,0.0,-0.083,-0.121,-0.143,-0.108
-0.044,-0.064,-0.02,0.054,-0.012,-0.041,0.03,0.002,-0.086,-0.119,-0.148,-0.118
-0.085,-0.052,0.034,0.068,-0.06,-0.009,0.029,-0.005,-0.084,-0.115,-0.145,-0.114
-0.051,-0.074,-0.023,0.062,-0.014,-0.048,0.032,0.001,-0.085,-0.119,-0.16,-0.13
-0.033,-0.039,-0.006,0.036,-0.013,-0.022,0.027,-0.021,-0.085,-0.101,-0.132,-0.105
-0.031,-0.099,-0.068,0.066,0.019,-0.084,0.034,0.026,-0.057,-0.126,-0.178,-0.14
0.038,-0.092,-0.13,0.027,0.085,-0.111,0.05,0.237,0.14,0.012,-0.123,-0.127
0.139,0.164,0.025,-0.151,0.057,0.094,0.088,0.445,0.631,0.454,0.153,0.069
0.228,0.816,0.588,-0.522,-0.18,0.701,-0.198,-0.204,0.448,1.04,1.064,0.818
-0.047,1.101,1.148,-0.527,-0.598,1.125,-0.522,-1.117,-0.704,0.39,1.112,1.064
-0.243,0.279,0.523,-0.018,-0.383,0.401,-0.298,-0.866,-1.066,-0.732,-0.164,0.084
-0.136,-0.117,0.02,0.126,-0.078,-0.048,-0.082,-0.307,-0.453,-0.429,-0.325,-0.229
-0.11,-0.048,0.062,0.079,-0.086,0.008,-0.031,-0.085,-0.147,-0.133,-0.134,-0.087
-0.082,-0.104,-0.022,0.093,-0.03,-0.063,0.01,0.009,-0.1,-0.161,-0.198,-0.143
-0.057,-0.063,-0.006,0.06,-0.025,-0.035,0.003,0.021,-0.054,-0.09,-0.121,-0.093
-0.012,-0.091,-0.079,0.051,0.034,-0.085,0.039,0.057,-0.043,-0.124,-0.166,-0.123
-0.008,-0.074,-0.066,0.042,0.029,-0.07,0.038,0.053,-0.022,-0.082,-0.124,-0.099
-0.015,-0.076,-0.062,0.046,0.024,-0.069,0.035,0.054,-0.015,-0.092,-0.138,-0.108
-0.003,-0.068,-0.066,0.036,0.032,-0.067,0.033,0.067,-0.002,-0.068,-0.122,-0.102
-0.008,-0.058,-0.05,0.034,0.021,-0.054,0.026,0.081,0.001,-0.061,-0.118,-0.092
0.004,-0.057,-0.061,0.027,0.033,-0.059,0.026,0.081,0.01,-0.051,-0.116,-0.094
0.014,-0.045,-0.059,0.016,0.037,-0.052,0.018,0.079,0.02,-0.038,-0.105,-0.081
0.015,-0.044,-0.059,0.015,0.038,-0.052,0.015,0.08,0.032,-0.033,-0.104,-0.081
0.008,-0.033,-0.041,0.013,0.025,-0.037,0.008,0.099,0.042,-0.012,-0.084,-0.072
0.012,-0.028,-0.04,0.008,0.026,-0.033,0.004,0.115,0.064,0.008,-0.075,-0.061
0.011,-0.022,-0.033,0.005,0.023,-0.027,-0.004,0.113,0.09,0.038,-0.058,-0.047
0.019,-0.007,-0.026,-0.006,0.023,-0.016,-0.002,0.127,0.106,0.062,-0.037,-0.032
0.027,0.011,-0.016,-0.019,0.022,-0.002,0.004,0.14,0.136,0.092,-0.002,-0.014
0.062,0.035,-0.027,-0.048,0.044,0.004,-0.011,0.154,0.165,0.121,0.03,0.012
0.067,0.066,-0.001,-0.067,0.034,0.032,-0.032,0.164,0.205,0.171,0.063,0.049
0.095,0.098,0.003,-0.097,0.046,0.05,-0.062,0.178,0.249,0.223,0.106,0.089
0.135,0.143,0.009,-0.139,0.063,0.076,-0.083,0.193,0.286,0.275,0.161,0.144
0.114,0.185,0.07,-0.15,0.022,0.127,-0.106,0.19,0.315,0.324,0.214,0.194
0.153,0.227,0.073,-0.19,0.04,0.15,-0.13,0.191,0.307,0.355,0.268,0.242
0.177,0.261,0.085,-0.219,0.046,0.173,-0.141,0.179,0.298,0.365,0.295,0.276
0.153,0.256,0.104,-0.205,0.024,0.18,-0.143,0.157,0.281,0.335,0.287,0.256
0.12,0.228,0.108,-0.174,0.006,0.167,-0.116,0.142,0.225,0.271,0.237,0.212
0.083,0.178,0.095,-0.131,-0.006,0.136,-0.072,0.131,0.165,0.178,0.155,0.153
0.046,0.111,0.065,-0.079,-0.009,0.088,-0.03,0.111,0.094,0.089,0.083,0.073
0.006,0.063,0.057,-0.035,-0.026,0.06,0.006,0.078,0.041,0.028,0.017,0.011
-0.01,0.029,0.04,-0.01,-0.025,0.034,0.029,0.062,0.011,-0.027,-0.027,-0.023
-0.015,0.007,0.022,0.004,-0.019,0.014,0.031,0.051,-0.027,-0.064,-0.056,-0.044
-0.024,-0.008,0.016,0.016,-0.02,0.004,0.029,0.04,-0.053,-0.077,-0.066,-0.048
-0.046,-0.03,0.015,0.038,-0.03,-0.007,0.026,0.035,-0.061,-0.084,-0.064,-0.051
-0.025,-0.036,-0.011,0.031,-0.007,-0.023,0.023,0.03,-0.061,-0.085,-0.066,-0.055
0.003,-0.034,-0.037,0.016,0.021,-0.036,0.028,0.025,-0.065,-0.085,-0.064,-0.059
-0.009,-0.035,-0.026,0.022,0.009,-0.03,0.035,0.018,-0.065,-0.087,-0.066,-0.059
-0.003,-0.035,-0.032,0.019,0.015,-0.034,0.035,0.016,-0.059,-0.086,-0.064,-0.055
-0.005,-0.034,-0.029,0.02,0.012,-0.031,0.035,0.021,-0.054,-0.085,-0.061,-0.053
-0.002,-0.031,-0.029,0.016,0.014,-0.03,0.035,0.027,-0.049,-0.084,-0.058,-0.05
0.005,-0.028,-0.033,0.012,0.019,-0.031,0.035,0.037,-0.043,-0.079,-0.055,-0.047
-0.028,-0.025,0.003,0.026,-0.015,-0.011,0.033,0.036,-0.037,-0.081,-0.053,-0.044
-0.01,-0.023,-0.013,0.017,0.002,-0.018,0.028,0.031,-0.037,-0.077,-0.05,-0.049
0.0,-0.019,-0.018,0.01,0.009,-0.018,0.025,0.029,-0.041,-0.075,-0.052,-0.05
-0.018,-0.024,-0.006,0.022,-0.006,-0.015,0.022,0.024,-0.04,-0.075,-0.058,-0.05
0.014,-0.035,-0.049,0.011,0.032,-0.042,0.017,0.021,-0.04,-0.072,-0.061,-0.05
0.004,-0.037,-0.041,0.017,0.023,-0.039,0.015,0.017,-0.04,-0.07,-0.066,-0.05
-0.002,-0.041,-0.038,0.022,0.018,-0.039,0.009,0.014,-0.039,-0.069,-0.069,-0.052
0.001,-0.045,-0.046,0.022,0.024,-0.045,0.004,0.015,-0.057,-0.087,-0.071,-0.055
-0.031,-0.043,-0.012,0.037,-0.009,-0.027,-0.003,0.011,-0.067,-0.097,-0.076,-0.058
-0.016,-0.04,-0.024,0.028,0.004,-0.031,-0.003,0.01,-0.064,-0.093,-0.072,-0.06
-0.022,-0.04,-0.018,0.031,-0.002,-0.029,0.006,0.01,-0.07,-0.096,-0.07,-0.063
-0.023,-0.04,-0.017,0.031,-0.003,-0.028,0.013,0.005,-0.07,-0.099,-0.07,-0.065
-0.019,-0.04,-0.021,0.029,0.001,-0.03,0.019,0.005,-0.072,-0.101,-0.07,-0.065
-0.029,-0.04,-0.011,0.034,-0.009,-0.025,0.015,0.004,-0.083,-0.099,-0.07,-0.065
0.007,-0.04,-0.048,0.017,0.028,-0.044,0.007,0.0,-0.09,-0.101,-0.07,-0.065
-0.004,-0.039,-0.036,0.022,0.016,-0.037,0.002,0.0,-0.09,-0.106,-0.077,-0.065
-0.003,-0.043,-0.041,0.023,0.019,-0.042,-0.007,0.002,-0.09,-0.104,-0.075,-0.065
-0.008,-0.044,-0.037,0.026,0.015,-0.04,-0.007,0.009,-0.09,-0.101,-0.067,-0.064
-0.043,-0.032,0.011,0.037,-0.027,-0.01,0.002,0.017,-0.091,-0.098,-0.062,-0.053
-0.012,-0.023,-0.011,0.018,0.0,-0.017,0.014,0.022,-0.083,-0.095,-0.054,-0.041
-0.015,-0.009,0.005,0.012,-0.01,-0.002,0.046,0.031,-0.05,-0.083,-0.047,-0.03
-0.043,0.02,0.064,0.011,-0.054,0.042,0.062,0.045,-0.033,-0.063,-0.039,-0.021
-0.032,0.041,0.073,-0.005,-0.053,0.057,0.039,0.044,-0.031,-0.056,-0.032,-0.012
-0.023,0.057,0.08,-0.017,-0.052,0.069,0.013,0.032,-0.024,-0.052,-0.027,-0.004
-0.006,0.069,0.076,-0.032,-0.041,0.072,-0.002,0.021,-0.023,-0.045,-0.024,0.002
-0.013,0.074,0.087,-0.031,-0.05,0.08,-0.022,0.009,-0.014,-0.04,-0.026,0.006
-0.016,0.058,0.074,-0.022,-0.045,0.065,-0.032,0.0,-0.023,-0.034,-0.024,0.009
0.008,0.016,0.008,-0.012,0.0,0.012,-0.027,-0.008,-0.056,-0.057,-0.033,0.002
-0.022,-0.029,-0.007,0.026,-0.007,-0.018,-0.021,-0.017,-0.078,-0.084,-0.059,-0.038
-0.044,-0.041,0.003,0.043,-0.024,-0.019,-0.017,-0.025,-0.086,-0.096,-0.056,-0.049
-0.017,-0.058,-0.041,0.038,0.013,-0.05,-0.01,-0.025,-0.099,-0.119,-0.074,-0.061
-0.041,-0.059,-0.018,0.05,-0.011,-0.039,-0.005,-0.029,-0.093,-0.101,-0.067,-0.049
-0.051,-0.073,-0.022,0.062,-0.015,-0.047,0.0,-0.033,-0.097,-0.125,-0.09,-0.059
-0.058,-0.073,-0.015,0.066,-0.021,-0.044,-0.005,-0.024,-0.092,-0.107,-0.071,-0.06
-0.071,-0.058,0.013,0.065,-0.042,-0.022,-0.015,-0.042,-0.099,-0.113,-0.072,-0.053
0.024,-0.112,-0.136,0.045,0.08,-0.124,-0.004,0.048,-0.053,-0.085,-0.108,-0.099
0.087,-0.023,-0.11,-0.032,0.099,-0.066,0.04,0.342,0.317,0.165,0.001,-0.037
0.218,0.396,0.178,-0.307,0.02,0.287,-0.047,0.134,0.585,0.682,0.507,0.37
0.185,1.089,0.904,-0.637,-0.359,0.996,-0.448,-0.919,-0.1,0.965,1.354,1.162
-0.147,0.841,0.988,-0.347,-0.568,0.914,-0.577,-1.375,-1.061,-0.104,0.716,0.844
-0.213,0.004,0.217,0.104,-0.215,0.11,-0.26,-0.744,-0.865,-0.696,-0.29,-0.066
-0.104,-0.063,0.041,0.083,-0.073,-0.011,-0.097,-0.211,-0.237,-0.174,-0.11,-0.075
-0.069,-0.05,0.019,0.06,-0.044,-0.015,-0.048,-0.045,-0.118,-0.127,-0.095,-0.071
-0.041,-0.083,-0.042,0.062,0.0,-0.062,-0.004,-0.008,-0.074,-0.094,-0.08,-0.083
-0.021,-0.069,-0.049,0.045,0.014,-0.059,0.016,0.011,-0.05,-0.078,-0.055,-0.056
-0.014,-0.087,-0.072,0.05,0.03,-0.079,0.029,0.046,-0.042,-0.087,-0.076,-0.078
-0.014,-0.063,-0.049,0.039,0.018,-0.056,0.018,0.043,-0.029,-0.056,-0.04,-0.05
-0.007,-0.076,-0.068,0.042,0.03,-0.072,0.016,0.048,-0.03,-0.07,-0.06,-0.065
-0.005,-0.06,-0.055,0.033,0.025,-0.057,0.009,0.05,-0.008,-0.039,-0.033,-0.045
-0.003,-0.064,-0.062,0.034,0.03,-0.063,0.002,0.05,-0.001,-0.042,-0.042,-0.051
-0.001,-0.055,-0.054,0.029,0.026,-0.054,0.004,0.057,0.014,-0.021,-0.026,-0.041
0.002,-0.053,-0.055,0.026,0.029,-0.054,0.015,0.076,0.021,-0.017,-0.024,-0.038
0.003,-0.048,-0.052,0.023,0.028,-0.05,0.01,0.084,0.029,-0.005,-0.016,-0.032
-0.002,-0.043,-0.041,0.023,0.02,-0.041,0.005,0.086,0.043,0.007,-0.009,-0.02
0.004,-0.033,-0.037,0.014,0.021,-0.035,0.0,0.092,0.056,0.027,-0.001,-0.015
0.011,-0.017,-0.028,0.004,0.02,-0.022,-0.007,0.106,0.085,0.048,0.014,-0.001
0.02,-0.005,-0.025,-0.007,0.022,-0.015,-0.011,0.127,0.117,0.074,0.033,0.016
0.044,0.023,-0.021,-0.034,0.032,0.001,-0.02,0.147,0.147,0.114,0.06,0.032
0.059,0.046,-0.013,-0.053,0.036,0.017,-0.029,0.167,0.187,0.149,0.086,0.055
0.07,0.075,0.005,-0.072,0.032,0.039,-0.043,0.189,0.228,0.198,0.129,0.095
0.094,0.114,0.02,-0.104,0.036,0.067,-0.061,0.209,0.272,0.256,0.179,0.138
0.126,0.157,0.031,-0.141,0.047,0.094,-0.09,0.209,0.317,0.305,0.232,0.186
0.139,0.203,0.063,-0.171,0.038,0.133,-0.111,0.202,0.34,0.348,0.285,0.241
0.15,0.241,0.09,-0.196,0.03,0.165,-0.127,0.196,0.336,0.377,0.324,0.279
0.154,0.261,0.108,-0.208,0.023,0.184,-0.128,0.192,0.329,0.379,0.344,0.297
0.143,0.257,0.114,-0.2,0.014,0.185,-0.119,0.178,0.3,0.348,0.329,0.29
0.114,0.221,0.107,-0.168,0.004,0.163,-0.1,0.147,0.23,0.269,0.272,0.235
0.062,0.155,0.093,-0.109,-0.016,0.124,-0.06,0.118,0.151,0.176,0.197,0.161
0.033,0.096,0.064,-0.065,-0.016,0.08,-0.021,0.086,0.082,0.097,0.126,0.095
0.009,0.051,0.042,-0.03,-0.017,0.046,0.006,0.053,0.026,0.032,0.075,0.04
-0.016,0.01,0.026,0.003,-0.021,0.018,0.011,0.037,-0.018,-0.011,0.047,0.008
-0.026,-0.007,0.019,0.016,-0.022,0.005,0.013,0.027,-0.041,-0.026,0.029,-0.007
-0.024,-0.011,0.013,0.017,-0.018,0.001,0.016,0.014,-0.054,-0.035,0.021,-0.02
-0.022,-0.016,0.006,0.019,-0.014,-0.005,0.019,0.006,-0.064,-0.049,0.014,-0.026
-0.021,-0.022,-0.001,0.022,-0.01,-0.011,0.02,0.005,-0.069,-0.054,0.008,-0.025
-0.022,-0.028,-0.005,0.026,-0.008,-0.016,0.015,0.005,-0.068,-0.058,0.0,-0.025
-0.028,-0.032,-0.004,0.031,-0.012,-0.018,0.015,0.005,-0.065,-0.06,-0.004,-0.025
-0.029,-0.035,-0.006,0.033,-0.011,-0.021,0.015,0.005,-0.065,-0.06,-0.001,-0.025
-0.048,-0.038,0.01,0.043,-0.029,-0.014,0.015,0.006,-0.061,-0.06,0.0,-0.025
-0.057,-0.041,0.016,0.049,-0.037,-0.012,0.015,0.011,-0.06,-0.06,0.0,-0.025
-0.054,-0.044,0.01,0.049,-0.031,-0.017,0.017,0.015,-0.06,-0.06,0.0,-0.025
-0.054,-0.046,0.008,0.05,-0.031,-0.019,0.021,0.02,-0.06,-0.055,0.0,-0.025
-0.052,-0.049,0.003,0.05,-0.028,-0.023,0.02,0.025,-0.06,-0.055,-0.002,-0.025
-0.051,-0.051,0.0,0.051,-0.025,-0.025,0.02,0.021,-0.06,-0.054,-0.006,-0.026
-0.038,-0.05,-0.012,0.044,-0.013,-0.031,0.02,0.015,-0.06,-0.05,-0.005,-0.031
-0.034,-0.05,-0.017,0.043,-0.009,-0.033,0.02,0.01,-0.06,-0.05,-0.005,-0.03
-0.039,-0.05,-0.011,0.045,-0.014,-0.03,0.02,0.004,-0.062,-0.052,-0.005,-0.033
-0.04,-0.05,-0.01,0.045,-0.015,-0.03,0.02,-0.001,-0.066,-0.055,-0.006,-0.036
-0.045,-0.05,-0.006,0.048,-0.02,-0.027,0.02,-0.006,-0.069,-0.058,-0.009,-0.035
-0.045,-0.05,-0.004,0.048,-0.02,-0.027,0.02,-0.011,-0.073,-0.061,-0.012,-0.039
-0.028,-0.05,-0.022,0.039,-0.003,-0.036,0.02,-0.014,-0.076,-0.065,-0.014,-0.04
-0.014,-0.05,-0.035,0.032,0.01,-0.042,0.02,-0.017,-0.079,-0.065,-0.018,-0.04
-0.014,-0.051,-0.036,0.033,0.011,-0.043,0.02,-0.022,-0.082,-0.065,-0.02,-0.04
-0.014,-0.054,-0.04,0.034,0.013,-0.047,0.02,-0.025,-0.086,-0.065,-0.022,-0.04
-0.013,-0.055,-0.042,0.034,0.015,-0.049,0.019,-0.029,-0.09,-0.066,-0.03,-0.039
-0.009,-0.055,-0.046,0.032,0.019,-0.05,0.021,-0.033,-0.088,-0.076,-0.03,-0.035
-0.013,-0.055,-0.042,0.034,0.015,-0.048,0.024,-0.038,-0.085,-0.073,-0.03,-0.035
-0.023,-0.056,-0.033,0.039,0.006,-0.044,0.025,-0.039,-0.085,-0.067,-0.03,-0.035
-0.03,-0.055,-0.025,0.042,-0.002,-0.039,0.029,-0.03,-0.085,-0.064,-0.031,-0.035
-0.04,-0.057,-0.017,0.049,-0.011,-0.037,0.029,-0.019,-0.084,-0.058,-0.029,-0.036
-0.027,-0.03,-0.003,0.029,-0.011,-0.017,0.037,-0.009,-0.079,-0.055,-0.017,-0.03
-0.005,0.003,0.009,0.001,-0.007,0.006,0.051,0.004,-0.072,-0.049,-0.006,-0.02
-0.011,0.022,0.033,-0.006,-0.022,0.027,0.048,0.012,-0.066,-0.044,0.007,-0.01
-0.007,0.047,0.054,-0.02,-0.03,0.051,0.019,-0.016,-0.058,-0.039,0.019,0.001
0.007,0.053,0.045,-0.03,-0.019,0.049,-0.009,-0.037,-0.053,-0.033,0.028,0.012
0.014,0.064,0.049,-0.039,-0.017,0.056,-0.018,-0.033,-0.048,-0.027,0.021,0.027
0.017,0.045,0.028,-0.031,-0.005,0.036,-0.022,-0.037,-0.045,-0.027,0.012,0.017
0.0,-0.005,-0.005,0.003,0.003,-0.005,-0.009,-0.033,-0.066,-0.056,0.002,-0.01
-0.016,-0.044,-0.028,0.03,0.007,-0.036,0.004,-0.04,-0.093,-0.083,-0.034,-0.035
-0.029,-0.058,-0.03,0.044,0.001,-0.044,0.004,-0.052,-0.099,-0.085,-0.043,-0.046
-0.019,-0.074,-0.054,0.047,0.018,-0.064,0.006,-0.045,-0.11,-0.109,-0.063,-0.071
-0.034,-0.075,-0.041,0.055,0.004,-0.058,0.007,-0.057,-0.107,-0.091,-0.047,-0.06
-0.056,-0.085,-0.029,0.07,-0.013,-0.057,0.012,-0.074,-0.108,-0.108,-0.061,-0.068
-0.034,-0.095,-0.062,0.065,0.014,-0.078,0.008,-0.059,-0.094,-0.102,-0.053,-0.067
-0.054,-0.079,-0.025,0.067,-0.014,-0.052,0.007,-0.069,-0.084,-0.11,-0.048,-0.054
-0.004,-0.135,-0.131,0.07,0.064,-0.133,0.022,-0.006,-0.068,-0.096,-0.089,-0.103
0.074,-0.069,-0.142,-0.002,0.108,-0.105,0.064,0.312,0.277,0.14,0.005,-0.05
0.228,0.336,0.109,-0.282,0.059,0.223,-0.001,0.193,0.618,0.666,0.48,0.335
0.227,1.034,0.807,-0.631,-0.29,0.92,-0.377,-0.859,0.036,1.017,1.337,1.151
-0.139,0.85,0.989,-0.356,-0.564,0.919,-0.524,-1.418,-0.977,-0.01,0.782,0.89
-0.227,0.017,0.244,0.105,-0.236,0.13,-0.236,-0.827,-0.895,-0.681,-0.239,-0.048
-0.104,-0.07,0.034,0.087,-0.069,-0.018,-0.069,-0.256,-0.261,-0.184,-0.09,-0.077
-0.084,-0.067,0.017,0.076,-0.051,-0.025,-0.016,-0.093,-0.137,-0.122,-0.068,-0.065
-0.037,-0.117,-0.08,0.077,0.021,-0.098,0.013,-0.041,-0.099,-0.095,-0.065,-0.084
-0.019,-0.086,-0.067,0.052,0.024,-0.076,0.012,-0.019,-0.064,-0.071,-0.037,-0.053
-0.019,-0.112,-0.093,0.066,0.037,-0.103,0.033,-0.012,-0.059,-0.082,-0.064,-0.079
-0.023,-0.091,-0.067,0.057,0.022,-0.079,0.028,-0.008,-0.038,-0.047,-0.03,-0.051
-0.017,-0.107,-0.09,0.062,0.036,-0.098,0.025,0.003,-0.038,-0.062,-0.053,-0.067
-0.002,-0.092,-0.091,0.047,0.045,-0.091,0.022,0.012,-0.026,-0.039,-0.028,-0.049
-0.008,-0.091,-0.083,0.049,0.038,-0.087,0.017,0.034,-0.025,-0.049,-0.034,-0.055
-0.018,-0.082,-0.064,0.051,0.023,-0.073,0.015,0.042,-0.015,-0.028,-0.019,-0.046
-0.003,-0.075,-0.072,0.039,0.035,-0.073,0.009,0.037,0.001,-0.017,-0.013,-0.044
0.015,-0.07,-0.085,0.028,0.05,-0.077,0.004,0.052,0.014,-0.007,-0.007,-0.04
0.008,-0.056,-0.063,0.024,0.036,-0.059,-0.002,0.066,0.026,0.004,0.004,-0.025
0.03,-0.045,-0.075,0.008,0.053,-0.06,-0.007,0.07,0.046,0.023,0.011,-0.02
0.03,-0.037,-0.066,0.004,0.048,-0.051,-0.013,0.079,0.064,0.049,0.022,-0.006
0.033,-0.028,-0.061,-0.002,0.047,-0.044,-0.018,0.097,0.093,0.072,0.04,0.011
0.07,0.001,-0.069,-0.035,0.07,-0.034,-0.02,0.113,0.122,0.105,0.062,0.032
0.082,0.027,-0.055,-0.054,0.068,-0.014,-0.04,0.139,0.16,0.146,0.094,0.064
0.104,0.061,-0.043,-0.082,0.074,0.009,-0.06,0.161,0.202,0.182,0.13,0.098
0.092,0.101,0.008,-0.096,0.042,0.054,-0.069,0.172,0.24,0.237,0.178,0.143
0.128,0.148,0.02,-0.138,0.054,0.083,-0.096,0.177,0.281,0.293,0.236,0.19
0.181,0.201,0.02,-0.191,0.08,0.11,-0.122,0.165,0.306,0.33,0.281,0.241
0.17,0.229,0.059,-0.2,0.055,0.144,-0.138,0.158,0.314,0.374,0.329,0.286
0.178,0.251,0.073,-0.215,0.052,0.161,-0.141,0.148,0.308,0.373,0.341,0.297
0.147,0.246,0.099,-0.197,0.024,0.172,-0.128,0.139,0.276,0.325,0.324,0.283
0.119,0.205,0.085,-0.162,0.017,0.145,-0.105,0.124,0.208,0.253,0.285,0.238
0.067,0.14,0.073,-0.104,-0.003,0.106,-0.066,0.099,0.14,0.173,0.201,0.162
0.011,0.082,0.071,-0.046,-0.03,0.076,-0.031,0.064,0.075,0.099,0.13,0.097
0.025,0.04,0.015,-0.033,0.005,0.027,-0.011,0.026,0.025,0.031,0.086,0.052
0.012,0.004,-0.008,-0.008,0.01,-0.001,-0.01,0.011,-0.011,-0.006,0.044,0.01
-0.01,-0.017,-0.007,0.014,-0.001,-0.012,-0.008,0.009,-0.045,-0.032,0.022,-0.005
-0.026,-0.039,-0.013,0.033,-0.007,-0.025,-0.004,0.002,-0.055,-0.046,0.013,-0.01
-0.026,-0.046,-0.021,0.036,-0.002,-0.033,-0.004,-0.003,-0.066,-0.052,0.003,-0.018
-0.022,-0.044,-0.022,0.033,0.0,-0.033,0.003,-0.008,-0.076,-0.063,-0.008,-0.025
-0.025,-0.045,-0.02,0.036,-0.002,-0.032,0.008,-0.025,-0.07,-0.056,-0.017,-0.033
-0.015,-0.045,-0.03,0.03,0.008,-0.037,0.012,-0.031,-0.068,-0.055,-0.016,-0.039
-0.031,-0.045,-0.014,0.038,-0.008,-0.03,0.019,-0.024,-0.064,-0.051,-0.012,-0.04
-0.037,-0.041,-0.005,0.039,-0.016,-0.023,0.024,-0.02,-0.06,-0.049,-0.008,-0.04
-0.019,-0.039,-0.02,0.029,0.001,-0.03,0.022,-0.016,-0.057,-0.059,-0.006,-0.044
-0.014,-0.036,-0.022,0.025,0.005,-0.029,0.019,-0.006,-0.054,-0.06,0.002,-0.046
-0.017,-0.033,-0.017,0.025,0.0,-0.025,0.02,-0.009,-0.051,-0.054,-0.008,-0.043
-0.021,-0.03,-0.009,0.026,-0.006,-0.019,0.015,-0.016,-0.048,-0.049,-0.034,-0.041
-0.015,-0.03,-0.015,0.023,0.0,-0.022,0.015,-0.008,-0.045,-0.046,-0.035,-0.037
-0.017,-0.044,-0.027,0.031,0.005,-0.036,0.015,-0.005,-0.046,-0.038,-0.035,-0.035
-0.03,-0.051,-0.021,0.041,-0.005,-0.036,-0.005,-0.001,-0.06,-0.056,-0.036,-0.032
-0.018,-0.05,-0.032,0.034,0.007,-0.041,0.002,0.006,-0.074,-0.072,-0.035,-0.029
-0.012,-0.048,-0.036,0.03,0.012,-0.042,0.008,-0.003,-0.076,-0.07,-0.035,-0.041
-0.021,-0.045,-0.024,0.033,0.002,-0.034,0.001,-0.01,-0.079,-0.075,-0.035,-0.054
-0.009,-0.045,-0.036,0.027,0.014,-0.04,0.024,-0.012,-0.081,-0.074,-0.035,-0.058
-0.008,-0.048,-0.041,0.028,0.016,-0.044,0.026,-0.023,-0.082,-0.092,-0.035,-0.064
-0.023,-0.053,-0.03,0.038,0.004,-0.041,0.021,-0.029,-0.079,-0.102,-0.035,-0.065
-0.017,-0.054,-0.037,0.036,0.011,-0.046,0.02,-0.032,-0.082,-0.098,-0.034,-0.065
-0.008,-0.047,-0.038,0.028,0.015,-0.042,0.015,-0.037,-0.087,-0.101,-0.043,-0.069
-0.001,-0.036,-0.035,0.019,0.017,-0.035,0.016,-0.04,-0.076,-0.099,-0.052,-0.07
-0.019,-0.058,-0.039,0.038,0.01,-0.048,0.002,-0.04,-0.091,-0.1,-0.049,-0.068
-0.049,-0.073,-0.025,0.061,-0.012,-0.049,-0.009,-0.04,-0.107,-0.095,-0.048,-0.065
-0.042,-0.068,-0.026,0.055,-0.008,-0.047,-0.002,-0.04,-0.097,-0.091,-0.045,-0.062
-0.03,-0.069,-0.039,0.049,0.005,-0.054,0.002,-0.04,-0.096,-0.089,-0.045,-0.06
-0.02,-0.064,-0.043,0.042,0.012,-0.053,0.006,-0.037,-0.09,-0.084,-0.054,-0.056
-0.023,-0.067,-0.044,0.046,0.011,-0.055,0.013,-0.032,-0.085,-0.081,-0.054,-0.056
-0.016,-0.052,-0.036,0.035,0.01,-0.044,0.014,-0.029,-0.08,-0.077,-0.046,-0.051
-0.011,-0.017,-0.006,0.014,-0.002,-0.011,0.036,-0.03,-0.069,-0.071,-0.039,-0.042
-0.017,-0.003,0.015,0.01,-0.016,0.006,0.055,-0.031,-0.061,-0.064,-0.025,-0.034
-0.014,0.018,0.032,-0.002,-0.024,0.025,0.039,-0.028,-0.059,-0.06,-0.019,-0.025
-0.002,0.047,0.049,-0.022,-0.026,0.048,-0.004,-0.041,-0.061,-0.057,-0.016,-0.02
0.037,0.056,0.019,-0.046,0.009,0.037,-0.041,-0.052,-0.059,-0.051,-0.01,-0.014
0.018,0.056,0.039,-0.037,-0.011,0.047,-0.034,-0.049,-0.061,-0.05,-0.005,-0.017
0.005,0.035,0.03,-0.02,-0.013,0.032,-0.028,-0.05,-0.058,-0.043,-0.001,-0.013
0.003,-0.019,-0.022,0.009,0.013,-0.021,-0.021,-0.05,-0.07,-0.065,-0.034,-0.033
0.007,-0.058,-0.066,0.026,0.037,-0.062,-0.015,-0.049,-0.089,-0.091,-0.068,-0.069
-0.003,-0.063,-0.06,0.033,0.029,-0.062,-0.014,-0.058,-0.097,-0.1,-0.069,-0.07
-0.015,-0.092,-0.077,0.054,0.031,-0.084,-0.009,-0.063,-0.108,-0.113,-0.082,-0.087
-0.019,-0.085,-0.066,0.053,0.023,-0.076,-0.01,-0.058,-0.097,-0.096,-0.073,-0.075
-0.023,-0.101,-0.078,0.062,0.028,-0.09,0.0,-0.056,-0.101,-0.116,-0.103,-0.095
-0.027,-0.094,-0.067,0.06,0.02,-0.08,-0.016,-0.049,-0.089,-0.093,-0.07,-0.081
-0.074,-0.101,-0.027,0.088,-0.023,-0.063,-0.019,-0.057,-0.096,-0.115,-0.09,-0.093
0.021,-0.141,-0.162,0.06,0.092,-0.152,-0.005,0.067,-0.016,-0.048,-0.097,-0.12
0.12,0.003,-0.117,-0.061,0.119,-0.057,0.049,0.393,0.421,0.245,0.048,-0.022
0.272,0.525,0.253,-0.399,0.009,0.389,-0.096,0.01,0.603,0.851,0.706,0.528
0.147,1.127,0.98,-0.638,-0.416,1.053,-0.488,-1.118,-0.23,0.877,1.36,1.237
-0.222,0.624,0.846,-0.201,-0.534,0.734,-0.472,-1.317,-1.057,-0.33,0.413,0.587
-0.202,-0.088,0.114,0.145,-0.158,0.013,-0.191,-0.616,-0.694,-0.581,-0.304,-0.165
-0.107,-0.072,0.035,0.089,-0.071,-0.018,-0.077,-0.178,-0.181,-0.118,-0.07,-0.065
-0.06,-0.098,-0.038,0.079,-0.011,-0.067,-0.016,-0.055,-0.131,-0.147,-0.122,-0.117
-0.042,-0.096,-0.055,0.069,0.007,-0.075,0.0,-0.029,-0.071,-0.078,-0.071,-0.091
-0.021,-0.099,-0.078,0.061,0.028,-0.088,0.0,-0.01,-0.058,-0.091,-0.086,-0.093
0.003,-0.105,-0.108,0.052,0.055,-0.106,0.001,0.004,-0.045,-0.074,-0.083,-0.101
-0.017,-0.094,-0.077,0.055,0.03,-0.085,-0.001,0.017,-0.034,-0.066,-0.069,-0.082
-0.004,-0.101,-0.097,0.053,0.047,-0.099,0.001,0.036,-0.027,-0.072,-0.083,-0.093
-0.016,-0.09,-0.074,0.053,0.03,-0.082,-0.001,0.04,-0.013,-0.054,-0.064,-0.073
-0.013,-0.098,-0.085,0.055,0.036,-0.091,0.0,0.048,-0.008,-0.063,-0.073,-0.082
0.0,-0.083,-0.083,0.041,0.042,-0.083,0.0,0.053,0.003,-0.046,-0.057,-0.068
0.017,-0.076,-0.094,0.03,0.056,-0.085,0.0,0.059,0.012,-0.036,-0.06,-0.069
0.029,-0.064,-0.094,0.018,0.062,-0.079,0.001,0.067,0.03,-0.011,-0.051,-0.058
0.028,-0.056,-0.084,0.014,0.057,-0.07,-0.001,0.073,0.045,-0.002,-0.049,-0.051
0.033,-0.047,-0.08,0.008,0.057,-0.064,-0.008,0.089,0.068,0.017,-0.036,-0.044
0.033,-0.038,-0.072,0.003,0.053,-0.055,-0.023,0.097,0.08,0.039,-0.021,-0.035
0.051,-0.014,-0.065,-0.018,0.058,-0.04,-0.032,0.109,0.106,0.071,-0.004,-0.02
0.067,0.005,-0.061,-0.036,0.064,-0.028,-0.035,0.136,0.139,0.102,0.018,0.006
0.075,0.024,-0.052,-0.049,0.063,-0.014,-0.05,0.154,0.169,0.136,0.046,0.031
0.112,0.063,-0.048,-0.087,0.08,0.007,-0.062,0.172,0.216,0.19,0.095,0.067
0.128,0.099,-0.029,-0.113,0.078,0.034,-0.084,0.171,0.256,0.237,0.144,0.112
0.15,0.148,-0.002,-0.149,0.075,0.073,-0.105,0.161,0.283,0.285,0.188,0.164
0.164,0.193,0.03,-0.179,0.066,0.112,-0.125,0.156,0.304,0.326,0.236,0.212
0.16,0.224,0.064,-0.193,0.048,0.144,-0.151,0.146,0.303,0.339,0.276,0.241
0.166,0.24,0.074,-0.203,0.046,0.156,-0.155,0.142,0.292,0.335,0.281,0.258
0.137,0.23,0.093,-0.183,0.022,0.161,-0.131,0.132,0.26,0.293,0.252,0.235
0.114,0.194,0.079,-0.154,0.017,0.136,-0.09,0.124,0.194,0.214,0.186,0.163
0.075,0.129,0.054,-0.103,0.01,0.091,-0.049,0.108,0.128,0.138,0.116,0.096
0.017,0.07,0.053,-0.044,-0.018,0.061,-0.02,0.071,0.062,0.061,0.047,0.029
-0.016,0.022,0.038,-0.004,-0.027,0.03,-0.01,0.049,0.014,-0.005,-0.019,-0.029
-0.013,-0.004,0.009,0.008,-0.01,0.002,-0.003,0.039,-0.021,-0.039,-0.054,-0.054
-0.001,-0.017,-0.015,0.009,0.007,-0.016,0.004,0.027,-0.044,-0.056,-0.065,-0.068
-0.002,-0.04,-0.037,0.021,0.018,-0.038,0.011,0.025,-0.045,-0.064,-0.07,-0.079
0.001,-0.046,-0.048,0.023,0.025,-0.047,0.017,0.025,-0.053,-0.068,-0.077,-0.082
-0.005,-0.044,-0.04,0.024,0.018,-0.041,0.025,0.021,-0.056,-0.074,-0.085,-0.085
-0.004,-0.046,-0.041,0.025,0.019,-0.043,0.034,0.02,-0.055,-0.075,-0.089,-0.085
-0.012,-0.045,-0.033,0.029,0.011,-0.039,0.035,0.02,-0.053,-0.075,-0.092,-0.085
-0.007,-0.045,-0.039,0.027,0.016,-0.042,0.035,0.019,-0.049,-0.075,-0.094,-0.085
-0.034,-0.045,-0.011,0.04,-0.011,-0.027,0.04,0.024,-0.05,-0.074,-0.098,-0.085
-0.037,-0.045,-0.008,0.041,-0.014,-0.026,0.04,0.023,-0.054,-0.076,-0.1,-0.085
0.013,-0.045,-0.058,0.016,0.036,-0.051,0.038,0.028,-0.055,-0.08,-0.1,-0.085
-0.002,-0.045,-0.043,0.024,0.021,-0.044,0.035,0.037,-0.055,-0.08,-0.1,-0.09
0.002,-0.045,-0.047,0.021,0.025,-0.046,0.033,0.035,-0.06,-0.08,-0.1,-0.09
0.013,-0.046,-0.059,0.018,0.036,-0.053,0.03,0.033,-0.06,-0.08,-0.1,-0.091
-0.001,-0.05,-0.049,0.026,0.024,-0.049,0.027,0.029,-0.061,-0.08,-0.1,-0.096
0.001,-0.05,-0.051,0.025,0.026,-0.051,0.025,0.03,-0.065,-0.084,-0.101,-0.095
-0.005,-0.05,-0.045,0.028,0.02,-0.047,0.022,0.026,-0.068,-0.091,-0.104,-0.095
-0.006,-0.05,-0.043,0.028,0.019,-0.046,0.016,0.017,-0.072,-0.095,-0.106,-0.095
0.003,-0.055,-0.058,0.026,0.031,-0.056,0.011,0.011,-0.075,-0.094,-0.103,-0.095
0.006,-0.061,-0.067,0.028,0.036,-0.063,0.008,0.003,-0.079,-0.096,-0.114,-0.11
0.002,-0.063,-0.064,0.031,0.033,-0.063,0.002,-0.004,-0.08,-0.093,-0.126,-0.116
-0.002,-0.067,-0.065,0.035,0.032,-0.066,0.001,-0.009,-0.082,-0.106,-0.124,-0.114
-0.005,-0.07,-0.065,0.038,0.03,-0.067,0.016,-0.005,-0.085,-0.122,-0.125,-0.115
-0.001,-0.067,-0.066,0.034,0.033,-0.066,0.024,-0.005,-0.086,-0.119,-0.124,-0.115
0.005,-0.064,-0.069,0.03,0.037,-0.066,0.016,-0.021,-0.09,-0.12,-0.13,-0.114
0.01,-0.066,-0.075,0.028,0.043,-0.07,0.017,-0.021,-0.09,-0.12,-0.138,-0.111
0.005,-0.065,-0.07,0.03,0.038,-0.067,0.01,-0.01,-0.09,-0.117,-0.133,-0.109
-0.008,-0.066,-0.057,0.037,0.025,-0.061,0.012,-0.003,-0.09,-0.111,-0.128,-0.106
-0.017,-0.062,-0.045,0.04,0.014,-0.053,0.043,0.005,-0.085,-0.106,-0.122,-0.102
0.006,-0.025,-0.031,0.009,0.019,-0.028,0.058,0.015,-0.075,-0.102,-0.116,-0.1
0.028,0.007,-0.021,-0.018,0.025,-0.007,0.068,0.033,-0.066,-0.098,-0.112,-0.098
0.008,0.019,0.01,-0.014,-0.001,0.014,0.048,0.015,-0.058,-0.093,-0.105,-0.088
-0.014,0.03,0.044,-0.008,-0.029,0.036,0.013,-0.022,-0.05,-0.083,-0.106,-0.081
-0.005,0.046,0.052,-0.021,-0.028,0.049,0.006,-0.026,-0.041,-0.07,-0.101,-0.074
0.013,0.051,0.038,-0.032,-0.013,0.045,-0.006,-0.021,-0.056,-0.059,-0.101,-0.066
0.006,0.02,0.014,-0.013,-0.004,0.016,-0.012,-0.02,-0.075,-0.069,-0.101,-0.075
-0.011,-0.023,-0.012,0.017,0.001,-0.018,0.007,-0.015,-0.078,-0.101,-0.126,-0.103
-0.027,-0.069,-0.042,0.048,0.008,-0.055,0.033,-0.014,-0.084,-0.112,-0.153,-0.129
-0.023,-0.087,-0.064,0.055,0.021,-0.075,0.034,-0.017,-0.084,-0.115,-0.159,-0.136
-0.015,-0.099,-0.084,0.057,0.035,-0.091,0.031,-0.012,-0.097,-0.136,-0.179,-0.155
-0.016,-0.09,-0.074,0.053,0.03,-0.082,0.025,-0.019,-0.112,-0.141,-0.174,-0.153
0.0,-0.114,-0.114,0.057,0.058,-0.114,0.024,-0.01,-0.1,-0.144,-0.199,-0.17
-0.044,-0.097,-0.053,0.071,0.005,-0.075,0.018,-0.02,-0.097,-0.12,-0.169,-0.149
-0.039,-0.109,-0.07,0.074,0.016,-0.089,0.013,-0.007,-0.095,-0.142,-0.2,-0.169
0.033,-0.15,-0.183,0.058,0.108,-0.166,0.029,0.115,0.006,-0.062,-0.182,-0.175
0.101,-0.01,-0.111,-0.045,0.106,-0.061,0.1,0.425,0.457,0.256,-0.034,-0.087
0.252,0.511,0.26,-0.382,-0.004,0.385,-0.047,0.146,0.675,0.907,0.69,0.488
0.102,1.107,1.005,-0.605,-0.452,1.056,-0.457,-0.927,-0.283,0.795,1.289,1.133
-0.216,0.553,0.77,-0.169,-0.493,0.661,-0.385,-1.077,-1.099,-0.457,0.196,0.386
-0.203,-0.145,0.058,0.174,-0.131,-0.043,-0.094,-0.474,-0.675,-0.621,-0.446,-0.279
-0.117,-0.102,0.015,0.109,-0.065,-0.043,-0.035,-0.165,-0.204,-0.164,-0.153,-0.137
-0.074,-0.132,-0.059,0.103,-0.008,-0.095,0.029,-0.012,-0.117,-0.169,-0.221,-0.19
-0.009,-0.114,-0.106,0.062,0.049,-0.11,0.036,0.008,-0.079,-0.109,-0.186,-0.161
0.001,-0.111,-0.113,0.055,0.057,-0.112,0.052,0.045,-0.065,-0.118,-0.205,-0.168
0.005,-0.115,-0.121,0.056,0.063,-0.117,0.056,0.053,-0.048,-0.095,-0.196,-0.168
0.009,-0.1,-0.109,0.046,0.059,-0.104,0.044,0.046,-0.048,-0.092,-0.19,-0.159
0.009,-0.111,-0.12,0.052,0.065,-0.116,0.047,0.054,-0.042,-0.091,-0.196,-0.166
0.014,-0.099,-0.113,0.043,0.064,-0.106,0.036,0.046,-0.033,-0.073,-0.167,-0.147
-0.016,-0.104,-0.089,0.061,0.037,-0.096,0.037,0.054,-0.022,-0.075,-0.174,-0.154
-0.013,-0.097,-0.084,0.056,0.035,-0.09,0.028,0.055,-0.013,-0.057,-0.157,-0.138
0.029,-0.1,-0.129,0.036,0.079,-0.115,0.023,0.07,0.0,-0.055,-0.159,-0.14
0.032,-0.086,-0.118,0.027,0.075,-0.102,0.015,0.078,0.014,-0.041,-0.15,-0.131
0.004,-0.074,-0.078,0.035,0.041,-0.076,0.011,0.082,0.034,-0.029,-0.143,-0.124
0.021,-0.068,-0.089,0.024,0.055,-0.078,0.0,0.089,0.064,-0.005,-0.122,-0.117
0.031,-0.057,-0.088,0.013,0.059,-0.072,0.008,0.103,0.103,0.038,-0.092,-0.095
0.034,-0.046,-0.08,0.006,0.057,-0.063,0.024,0.115,0.164,0.066,-0.068,-0.065
0.061,-0.017,-0.078,-0.021,0.07,-0.048,0.01,0.125,0.217,0.094,-0.046,-0.041
0.074,0.012,-0.062,-0.043,0.068,-0.025,-0.026,0.143,0.257,0.132,-0.015,-0.019
0.11,0.041,-0.069,-0.075,0.09,-0.014,-0.056,0.144,0.301,0.18,0.025,0.016
0.137,0.089,-0.047,-0.113,0.092,0.021,-0.064,0.137,0.335,0.236,0.076,0.066
0.166,0.13,-0.035,-0.148,0.1,0.047,-0.089,0.134,0.36,0.279,0.137,0.121
0.175,0.16,-0.015,-0.168,0.095,0.072,-0.108,0.128,0.368,0.316,0.181,0.163
0.167,0.202,0.036,-0.185,0.065,0.119,-0.125,0.125,0.354,0.31,0.207,0.189
0.156,0.218,0.062,-0.187,0.046,0.14,-0.129,0.119,0.346,0.294,0.21,0.195
0.131,0.186,0.056,-0.159,0.037,0.121,-0.095,0.113,0.321,0.257,0.179,0.172
0.1,0.141,0.04,-0.121,0.03,0.09,-0.055,0.106,0.269,0.172,0.115,0.11
0.055,0.09,0.035,-0.073,0.01,0.062,-0.015,0.094,0.218,0.092,0.036,0.034
0.023,0.041,0.018,-0.033,0.002,0.029,0.007,0.071,0.162,0.015,-0.041,-0.028
0.001,0.0,-0.001,0.0,0.001,-0.001,0.031,0.048,0.113,-0.038,-0.09,-0.076
0.003,-0.028,-0.031,0.013,0.017,-0.03,0.052,0.041,0.086,-0.073,-0.12,-0.109
0.006,-0.045,-0.052,0.019,0.029,-0.048,0.049,0.037,0.072,-0.097,-0.142,-0.126
-0.004,-0.053,-0.049,0.029,0.022,-0.05,0.05,0.03,0.067,-0.103,-0.14,-0.133
-0.005,-0.05,-0.044,0.028,0.02,-0.046,0.05,0.025,0.064,-0.106,-0.14,-0.135
-0.008,-0.05,-0.042,0.029,0.017,-0.046,0.05,0.019,0.061,-0.105,-0.14,-0.135
-0.011,-0.047,-0.036,0.029,0.013,-0.042,0.053,0.016,0.056,-0.105,-0.139,-0.135
-0.009,-0.045,-0.035,0.027,0.014,-0.04,0.055,0.014,0.056,-0.105,-0.141,-0.135
-0.008,-0.045,-0.036,0.027,0.015,-0.041,0.058,0.016,0.062,-0.105,-0.14,-0.134
-0.018,-0.05,-0.032,0.034,0.007,-0.041,0.061,0.014,0.065,-0.104,-0.14,-0.131
-0.009,-0.059,-0.05,0.034,0.021,-0.055,0.064,0.019,0.069,-0.099,-0.14,-0.128
0.003,-0.06,-0.063,0.029,0.033,-0.062,0.065,0.036,0.075,-0.094,-0.14,-0.126
-0.001,-0.06,-0.058,0.031,0.028,-0.059,0.06,0.036,0.075,-0.09,-0.14,-0.122
0.001,-0.06,-0.061,0.03,0.031,-0.061,0.06,0.034,0.075,-0.085,-0.141,-0.12
0.0,-0.06,-0.06,0.03,0.03,-0.06,0.059,0.036,0.075,-0.08,-0.145,-0.118
0.0,-0.06,-0.06,0.03,0.03,-0.06,0.055,0.034,0.075,-0.083,-0.145,-0.115
-0.003,-0.064,-0.06,0.034,0.029,-0.062,0.055,0.036,0.075,-0.088,-0.145,-0.115
-0.006,-0.065,-0.06,0.036,0.028,-0.062,0.053,0.032,0.071,-0.091,-0.145,-0.112
-0.005,-0.065,-0.061,0.035,0.028,-0.062,0.05,0.024,0.065,-0.105,-0.145,-0.109
-0.01,-0.07,-0.059,0.04,0.024,-0.064,0.047,0.018,0.06,-0.111,-0.145,-0.111
-0.009,-0.07,-0.061,0.04,0.026,-0.066,0.044,0.01,0.054,-0.109,-0.145,-0.114
-0.013,-0.07,-0.057,0.042,0.022,-0.063,0.041,0.003,0.048,-0.113,-0.145,-0.118
-0.014,-0.07,-0.056,0.043,0.021,-0.063,0.04,-0.004,0.046,-0.115,-0.145,-0.12
-0.004,-0.07,-0.066,0.037,0.031,-0.067,0.045,-0.01,0.05,-0.115,-0.145,-0.125
-0.008,-0.07,-0.062,0.039,0.027,-0.066,0.045,-0.01,0.05,-0.111,-0.144,-0.123
-0.01,-0.07,-0.059,0.04,0.025,-0.065,0.046,-0.013,0.05,-0.104,-0.138,-0.116
-0.016,-0.072,-0.056,0.044,0.02,-0.063,0.051,-0.016,0.05,-0.098,-0.133,-0.11
-0.005,-0.057,-0.052,0.031,0.023,-0.054,0.049,-0.011,0.056,-0.091,-0.127,-0.102
0.025,-0.022,-0.048,-0.001,0.037,-0.035,0.056,0.003,0.077,-0.084,-0.121,-0.096
0.013,-0.011,-0.023,-0.001,0.018,-0.017,0.07,0.017,0.093,-0.078,-0.117,-0.09
0.006,0.007,0.001,-0.006,0.002,0.004,0.053,0.014,0.095,-0.072,-0.107,-0.083
0.033,0.032,-0.001,-0.032,0.017,0.015,0.015,0.005,0.098,-0.068,-0.094,-0.072
0.034,0.035,0.001,-0.035,0.016,0.017,0.002,-0.003,0.101,-0.06,-0.079,-0.066
0.038,0.037,-0.001,-0.038,0.019,0.017,0.01,-0.011,0.089,-0.056,-0.072,-0.072
0.046,0.009,-0.037,-0.028,0.041,-0.014,0.011,-0.018,0.075,-0.066,-0.083,-0.068
0.009,-0.049,-0.058,0.02,0.034,-0.053,0.016,-0.032,0.063,-0.099,-0.125,-0.092
-0.012,-0.083,-0.071,0.048,0.029,-0.077,0.02,-0.04,0.056,-0.114,-0.146,-0.118
-0.013,-0.092,-0.078,0.053,0.033,-0.085,0.017,-0.041,0.049,-0.124,-0.152,-0.118
-0.017,-0.11,-0.093,0.064,0.039,-0.102,0.016,-0.039,0.042,-0.134,-0.167,-0.135
-0.017,-0.097,-0.079,0.057,0.031,-0.088,0.013,-0.042,0.037,-0.127,-0.152,-0.122
-0.002,-0.12,-0.118,0.061,0.059,-0.119,0.014,-0.04,0.028,-0.15,-0.18,-0.142
-0.014,-0.099,-0.086,0.057,0.036,-0.092,0.006,-0.051,0.039,-0.126,-0.151,-0.125
-0.016,-0.119,-0.104,0.068,0.044,-0.111,0.014,-0.045,0.035,-0.157,-0.189,-0.144
0.062,-0.16,-0.222,0.05,0.142,-0.191,0.033,0.12,0.171,-0.054,-0.174,-0.162
0.155,0.019,-0.136,-0.087,0.145,-0.058,0.076,0.383,0.62,0.283,0.007,-0.034
0.291,0.603,0.312,-0.447,-0.011,0.457,-0.135,-0.102,0.675,0.879,0.767,0.587
0.122,1.111,0.989,-0.617,-0.434,1.05,-0.556,-1.151,-0.289,0.706,1.263,1.156
-0.182,0.447,0.629,-0.133,-0.406,0.538,-0.463,-1.176,-0.976,-0.524,0.134,0.369
-0.14,-0.164,-0.025,0.152,-0.057,-0.094,-0.15,-0.503,-0.48,-0.587,-0.401,-0.24
-0.058,-0.09,-0.032,0.075,-0.013,-0.061,-0.059,-0.155,-0.021,-0.146,-0.133,-0.089
-0.027,-0.136,-0.109,0.082,0.041,-0.123,-0.006,-0.049,0.026,-0.182,-0.21,-0.152
-0.003,-0.114,-0.111,0.058,0.054,-0.112,-0.001,-0.028,0.084,-0.104,-0.141,-0.124
0.005,-0.132,-0.137,0.063,0.071,-0.134,0.004,-0.004,0.089,-0.128,-0.168,-0.129
0.017,-0.13,-0.147,0.056,0.082,-0.138,0.008,-0.004,0.108,-0.094,-0.15,-0.126
0.016,-0.116,-0.132,0.05,0.074,-0.124,0.01,0.0,0.115,-0.088,-0.143,-0.114
0.025,-0.122,-0.147,0.048,0.087,-0.134,0.017,0.004,0.116,-0.085,-0.148,-0.121
0.03,-0.104,-0.134,0.037,0.082,-0.119,0.01,0.007,0.125,-0.071,-0.128,-0.104
0.032,-0.11,-0.142,0.039,0.087,-0.126,0.011,0.027,0.133,-0.076,-0.134,-0.107
0.036,-0.096,-0.132,0.03,0.084,-0.114,0.009,0.042,0.16,-0.053,-0.113,-0.093
0.04,-0.096,-0.136,0.028,0.089,-0.116,0.005,0.065,0.164,-0.044,-0.115,-0.091
0.048,-0.087,-0.135,0.02,0.092,-0.11,0.006,0.07,0.178,-0.022,-0.101,-0.082
0.052,-0.083,-0.135,0.016,0.094,-0.109,0.002,0.072,0.195,-0.009,-0.09,-0.076
0.05,-0.077,-0.127,0.014,0.089,-0.102,0.007,0.083,0.216,0.012,-0.071,-0.064
0.052,-0.068,-0.12,0.008,0.086,-0.094,0.014,0.095,0.246,0.036,-0.059,-0.047
0.045,-0.062,-0.107,0.009,0.076,-0.084,-0.002,0.112,0.271,0.065,-0.044,-0.029
0.072,-0.036,-0.108,-0.017,0.09,-0.072,-0.024,0.131,0.309,0.098,-0.012,-0.008
0.097,0.002,-0.095,-0.049,0.096,-0.046,-0.033,0.155,0.349,0.145,0.031,0.024
0.119,0.039,-0.08,-0.078,0.099,-0.02,-0.046,0.174,0.393,0.198,0.076,0.063
0.142,0.076,-0.066,-0.108,0.103,0.005,-0.063,0.191,0.437,0.256,0.124,0.115
0.162,0.115,-0.046,-0.138,0.104,0.034,-0.091,0.195,0.469,0.308,0.174,0.165
0.19,0.157,-0.033,-0.173,0.111,0.062,-0.121,0.187,0.48,0.338,0.221,0.211
0.186,0.189,0.003,-0.187,0.091,0.095,-0.135,0.181,0.469,0.355,0.259,0.237
0.186,0.193,0.007,-0.19,0.089,0.1,-0.14,0.163,0.459,0.337,0.261,0.238
0.147,0.173,0.025,-0.16,0.061,0.099,-0.114,0.135,0.407,0.269,0.225,0.214
0.097,0.125,0.028,-0.111,0.034,0.076,-0.075,0.104,0.33,0.186,0.151,0.144
0.072,0.06,-0.012,-0.066,0.041,0.024,-0.05,0.071,0.258,0.095,0.068,0.07
0.034,-0.001,-0.035,-0.016,0.034,-0.018,-0.013,0.047,0.192,0.022,0.016,0.005
0.014,-0.043,-0.057,0.015,0.036,-0.05,0.016,0.032,0.142,-0.022,-0.031,-0.037
0.003,-0.065,-0.068,0.031,0.036,-0.066,0.027,0.022,0.114,-0.061,-0.064,-0.06
-0.007,-0.083,-0.075,0.045,0.034,-0.079,0.04,0.013,0.105,-0.071,-0.075,-0.067
0.01,-0.091,-0.101,0.041,0.055,-0.095,0.041,0.006,0.092,-0.068,-0.086,-0.064
0.004,-0.09,-0.094,0.043,0.049,-0.091,0.038,-0.001,0.087,-0.08,-0.085,-0.069
-0.004,-0.09,-0.086,0.047,0.041,-0.088,0.035,-0.009,0.091,-0.09,-0.083,-0.07
0.009,-0.09,-0.099,0.041,0.054,-0.094,0.035,-0.016,0.092,-0.087,-0.08,-0.069
0.0,-0.093,-0.093,0.047,0.047,-0.093,0.033,-0.018,0.096,-0.082,-0.08,-0.066
-0.018,-0.102,-0.083,0.06,0.033,-0.092,0.028,-0.014,0.099,-0.081,-0.078,-0.061
-0.01,-0.104,-0.094,0.057,0.042,-0.098,0.026,-0.012,0.1,-0.074,-0.074,-0.059
0.005,-0.1,-0.105,0.048,0.055,-0.102,0.021,-0.009,0.101,-0.078,-0.075,-0.055
-0.03,-0.1,-0.071,0.065,0.021,-0.086,0.018,-0.006,0.098,-0.09,-0.071,-0.05
-0.027,-0.098,-0.071,0.062,0.023,-0.084,0.014,-0.005,0.103,-0.085,-0.069,-0.055
0.007,-0.094,-0.102,0.044,0.055,-0.098,0.032,-0.001,0.096,-0.08,-0.071,-0.061
-0.009,-0.096,-0.087,0.052,0.04,-0.091,0.037,0.0,0.105,-0.077,-0.08,-0.06
-0.005,-0.098,-0.093,0.052,0.044,-0.095,0.028,0.007,0.093,-0.071,-0.082,-0.06
0.005,-0.101,-0.106,0.048,0.056,-0.104,0.028,0.001,0.092,-0.069,-0.079,-0.06
-0.021,-0.099,-0.078,0.061,0.028,-0.088,0.018,-0.006,0.082,-0.063,-0.081,-0.061
-0.017,-0.101,-0.083,0.059,0.033,-0.092,0.021,-0.017,0.071,-0.072,-0.079,-0.062
0.014,-0.1,-0.114,0.043,0.064,-0.107,0.009,-0.024,0.08,-0.083,-0.08,-0.069
-0.001,-0.099,-0.099,0.05,0.049,-0.099,0.067,-0.034,0.032,-0.088,-0.08,-0.07
-0.002,-0.102,-0.1,0.052,0.049,-0.101,0.087,-0.044,0.173,-0.094,-0.079,-0.077
0.011,-0.097,-0.108,0.043,0.059,-0.102,0.001,-0.031,0.133,-0.097,-0.09,-0.089
0.0,-0.104,-0.105,0.052,0.053,-0.104,-0.002,-0.114,-0.033,-0.116,-0.093,-0.129
0.014,-0.094,-0.108,0.04,0.061,-0.101,0.003,-0.295,0.013,-0.104,-0.104,-0.118
-0.009,-0.111,-0.102,0.06,0.047,-0.106,-0.003,-0.351,-0.003,-0.117,-0.071,-0.015
0.018,-0.107,-0.125,0.045,0.072,-0.116,0.003,-0.111,-0.002,-0.095,-0.006,0.008
-0.018,-0.114,-0.096,0.066,0.039,-0.105,-0.003,0.036,0.005,-0.12,0.002,-0.007
0.025,-0.054,-0.079,0.015,0.052,-0.066,0.003,-0.025,-0.005,-0.035,-0.002,0.006
