-0.046,-0.006,0.04,0.026,-0.043,0.016,0.04,-0.018,-0.089,-0.073,-0.104,-0.084
-0.038,-0.001,0.038,0.019,-0.037,0.018,0.04,-0.024,-0.097,-0.078,-0.108,-0.091
-0.005,0.029,0.034,-0.012,-0.02,0.031,0.04,-0.05,-0.123,-0.103,-0.129,-0.11
-0.01,0.018,0.027,-0.004,-0.019,0.022,0.04,-0.033,-0.12,-0.101,-0.125,-0.104
-0.029,-0.001,0.028,0.014,-0.028,0.013,0.04,-0.024,-0.111,-0.095,-0.12,-0.097
-0.034,0.014,0.048,0.01,-0.041,0.031,0.04,-0.023,-0.108,-0.09,-0.115,-0.091
-0.045,0.001,0.047,0.022,-0.046,0.024,0.035,-0.019,-0.097,-0.083,-0.108,-0.083
-0.049,-0.011,0.038,0.03,-0.043,0.013,0.035,-0.018,-0.099,-0.079,-0.104,-0.081
-0.041,-0.005,0.037,0.023,-0.039,0.016,0.033,-0.013,-0.114,-0.075,-0.1,-0.086
-0.047,-0.023,0.025,0.035,-0.036,0.001,0.031,-0.024,-0.108,-0.076,-0.098,-0.09
-0.053,-0.022,0.031,0.037,-0.042,0.004,0.03,-0.029,-0.099,-0.073,-0.095,-0.087
-0.038,-0.01,0.028,0.024,-0.033,0.009,0.033,-0.014,-0.09,-0.069,-0.091,-0.081
0.002,-0.008,-0.01,0.003,0.007,-0.009,0.036,0.0,-0.086,-0.07,-0.089,-0.076
0.015,0.002,-0.012,-0.009,0.014,-0.005,0.034,0.013,-0.09,-0.073,-0.094,-0.073
0.001,0.031,0.03,-0.017,-0.015,0.031,0.05,0.028,-0.092,-0.076,-0.095,-0.066
0.014,0.036,0.022,-0.025,-0.004,0.029,0.049,0.023,-0.096,-0.08,-0.097,-0.066
0.027,0.021,-0.005,-0.024,0.016,0.008,0.033,0.005,-0.097,-0.079,-0.1,-0.074
-0.005,0.018,0.023,-0.007,-0.014,0.02,0.036,-0.02,-0.118,-0.074,-0.1,-0.086
-0.047,0.002,0.049,0.023,-0.049,0.025,0.035,-0.034,-0.125,-0.075,-0.099,-0.091
-0.072,-0.022,0.05,0.047,-0.061,0.014,0.034,-0.038,-0.129,-0.089,-0.117,-0.088
-0.067,-0.028,0.04,0.047,-0.053,0.006,0.037,-0.037,-0.129,-0.099,-0.129,-0.094
-0.066,-0.021,0.045,0.044,-0.055,0.012,0.032,-0.05,-0.125,-0.091,-0.121,-0.092
-0.07,-0.025,0.046,0.048,-0.058,0.01,0.033,-0.043,-0.124,-0.1,-0.13,-0.099
-0.068,-0.014,0.053,0.041,-0.061,0.019,0.025,-0.041,-0.116,-0.09,-0.119,-0.093
-0.063,-0.025,0.038,0.044,-0.05,0.006,0.029,-0.044,-0.12,-0.1,-0.131,-0.109
-0.028,0.013,0.041,0.008,-0.035,0.026,0.019,-0.026,-0.113,-0.103,-0.126,-0.101
-0.087,-0.05,0.036,0.068,-0.061,-0.007,0.11,0.033,-0.136,-0.12,-0.176,-0.151
-0.116,-0.099,0.017,0.108,-0.066,-0.041,0.244,0.255,0.015,-0.054,-0.165,-0.181
0.249,0.339,0.09,-0.294,0.079,0.214,-0.154,-0.067,0.316,0.37,0.288,0.227
0.869,1.008,0.138,-0.939,0.365,0.573,-0.878,-0.785,0.591,0.91,0.945,0.893
0.895,1.303,0.408,-1.1,0.243,0.856,-1.208,-1.295,0.213,0.823,1.069,1.15
0.27,0.741,0.472,-0.506,-0.101,0.606,-0.946,-1.42,-0.617,0.045,0.35,0.567
-0.081,0.123,0.204,-0.021,-0.143,0.164,-0.428,-0.776,-0.538,-0.276,-0.163,0.005
-0.072,0.082,0.154,-0.006,-0.113,0.118,-0.148,-0.248,-0.186,-0.124,-0.116,-0.036
-0.046,0.045,0.091,0.0,-0.069,0.068,-0.031,-0.087,-0.118,-0.099,-0.112,-0.069
-0.038,0.029,0.067,0.004,-0.053,0.047,0.03,0.012,-0.041,-0.06,-0.097,-0.078
-0.058,0.021,0.079,0.018,-0.069,0.05,0.052,0.029,-0.057,-0.062,-0.092,-0.088
-0.062,-0.003,0.059,0.032,-0.06,0.028,0.072,0.075,-0.036,-0.056,-0.088,-0.087
-0.033,0.024,0.057,0.004,-0.045,0.04,0.068,0.069,-0.036,-0.047,-0.077,-0.074
-0.026,0.02,0.046,0.003,-0.036,0.033,0.077,0.09,-0.026,-0.046,-0.076,-0.076
-0.037,0.015,0.053,0.011,-0.045,0.034,0.079,0.096,-0.015,-0.036,-0.068,-0.064
-0.05,-0.001,0.048,0.025,-0.049,0.023,0.08,0.108,-0.011,-0.033,-0.071,-0.065
-0.061,-0.01,0.051,0.036,-0.055,0.02,0.081,0.121,0.004,-0.022,-0.064,-0.057
-0.053,-0.003,0.05,0.028,-0.051,0.023,0.085,0.131,0.011,-0.019,-0.066,-0.054
-0.037,0.007,0.044,0.015,-0.04,0.025,0.084,0.167,0.028,-0.007,-0.058,-0.05
-0.018,0.02,0.038,-0.001,-0.029,0.029,0.091,0.184,0.056,0.011,-0.039,-0.042
0.008,0.037,0.03,-0.023,-0.011,0.034,0.107,0.216,0.086,0.035,-0.025,-0.033
0.034,0.059,0.025,-0.046,0.004,0.042,0.113,0.254,0.117,0.057,-0.013,-0.019
0.06,0.077,0.017,-0.069,0.021,0.047,0.113,0.297,0.161,0.082,0.011,0.003
0.073,0.088,0.015,-0.081,0.028,0.051,0.104,0.345,0.2,0.11,0.044,0.029
0.094,0.12,0.026,-0.107,0.034,0.072,0.098,0.4,0.257,0.15,0.084,0.063
0.145,0.169,0.024,-0.158,0.06,0.097,0.09,0.456,0.311,0.194,0.124,0.099
0.152,0.203,0.05,-0.178,0.05,0.127,0.082,0.482,0.359,0.239,0.175,0.146
0.176,0.244,0.068,-0.21,0.054,0.155,0.076,0.475,0.385,0.273,0.215,0.197
0.223,0.283,0.06,-0.253,0.081,0.171,0.074,0.451,0.371,0.268,0.225,0.219
0.222,0.279,0.057,-0.251,0.083,0.168,0.075,0.418,0.343,0.266,0.241,0.207
0.203,0.262,0.058,-0.233,0.073,0.16,0.075,0.356,0.297,0.262,0.222,0.197
0.162,0.242,0.081,-0.202,0.04,0.161,0.076,0.29,0.246,0.214,0.171,0.171
0.123,0.195,0.071,-0.159,0.026,0.133,0.074,0.234,0.186,0.159,0.125,0.121
0.085,0.14,0.056,-0.113,0.014,0.098,0.078,0.173,0.123,0.11,0.084,0.08
0.038,0.084,0.047,-0.061,-0.005,0.065,0.082,0.127,0.069,0.061,0.035,0.04
0.002,0.036,0.034,-0.019,-0.017,0.035,0.08,0.094,0.028,0.019,-0.01,0.003
-0.04,-0.004,0.036,0.022,-0.038,0.016,0.08,0.073,-0.004,-0.006,-0.04,-0.026
-0.082,-0.048,0.034,0.064,-0.058,-0.007,0.08,0.057,-0.044,-0.015,-0.054,-0.045
-0.079,-0.043,0.036,0.06,-0.057,-0.003,0.08,0.042,-0.058,-0.023,-0.058,-0.05
-0.065,-0.031,0.034,0.048,-0.049,0.001,0.08,0.04,-0.06,-0.033,-0.063,-0.05
-0.07,-0.034,0.036,0.051,-0.053,0.001,0.075,0.037,-0.065,-0.038,-0.064,-0.05
-0.057,-0.023,0.034,0.039,-0.045,0.005,0.071,0.034,-0.061,-0.035,-0.059,-0.05
-0.057,-0.022,0.035,0.039,-0.046,0.006,0.069,0.031,-0.056,-0.032,-0.056,-0.05
-0.067,-0.009,0.058,0.038,-0.062,0.024,0.064,0.03,-0.052,-0.03,-0.053,-0.05
-0.071,-0.009,0.062,0.04,-0.066,0.026,0.061,0.03,-0.047,-0.026,-0.048,-0.047
-0.053,0.005,0.058,0.024,-0.056,0.031,0.057,0.033,-0.043,-0.025,-0.045,-0.044
-0.058,-0.001,0.057,0.029,-0.058,0.028,0.055,0.049,-0.038,-0.021,-0.041,-0.041
-0.09,-0.037,0.053,0.063,-0.071,0.007,0.055,0.056,-0.035,-0.02,-0.04,-0.038
-0.062,-0.005,0.056,0.033,-0.059,0.025,0.055,0.053,-0.035,-0.019,-0.041,-0.035
-0.033,0.01,0.043,0.011,-0.038,0.026,0.055,0.048,-0.035,-0.016,-0.039,-0.036
-0.024,0.015,0.039,0.004,-0.032,0.027,0.055,0.046,-0.035,-0.015,-0.042,-0.04
-0.019,0.007,0.026,0.005,-0.022,0.016,0.061,0.04,-0.034,-0.016,-0.037,-0.04
0.0,-0.002,-0.002,0.001,0.001,-0.002,0.063,0.04,-0.046,-0.032,-0.049,-0.04
-0.018,0.001,0.019,0.008,-0.019,0.01,0.059,0.058,-0.057,-0.041,-0.067,-0.04
-0.06,-0.033,0.026,0.046,-0.043,-0.003,0.057,0.056,-0.059,-0.042,-0.064,-0.04
-0.045,-0.031,0.015,0.038,-0.03,-0.008,0.054,0.046,-0.064,-0.045,-0.068,-0.044
-0.051,-0.035,0.016,0.042,-0.033,-0.009,0.051,0.042,-0.066,-0.042,-0.07,-0.051
-0.041,-0.034,0.007,0.038,-0.024,-0.013,0.05,0.034,-0.079,-0.036,-0.07,-0.057
-0.033,-0.027,0.006,0.03,-0.02,-0.01,0.05,0.029,-0.087,-0.04,-0.067,-0.06
-0.054,-0.033,0.021,0.043,-0.037,-0.006,0.05,0.024,-0.09,-0.054,-0.064,-0.06
-0.052,-0.025,0.027,0.038,-0.04,0.002,0.05,0.018,-0.095,-0.057,-0.065,-0.064
-0.065,-0.045,0.02,0.055,-0.042,-0.012,0.05,0.015,-0.091,-0.059,-0.065,-0.065
-0.076,-0.057,0.02,0.066,-0.047,-0.018,0.049,0.01,-0.089,-0.063,-0.065,-0.065
-0.066,-0.053,0.014,0.059,-0.04,-0.019,0.053,0.005,-0.086,-0.065,-0.066,-0.065
-0.06,-0.049,0.011,0.055,-0.036,-0.019,0.055,0.008,-0.083,-0.063,-0.079,-0.065
-0.055,-0.048,0.007,0.051,-0.03,-0.021,0.055,0.01,-0.08,-0.059,-0.086,-0.065
-0.048,-0.042,0.006,0.045,-0.026,-0.018,0.058,0.01,-0.081,-0.06,-0.084,-0.064
-0.073,-0.045,0.028,0.059,-0.05,-0.009,0.061,0.01,-0.09,-0.06,-0.088,-0.066
-0.098,-0.071,0.027,0.084,-0.062,-0.022,0.059,0.01,-0.095,-0.06,-0.09,-0.07
-0.067,-0.048,0.019,0.057,-0.043,-0.015,0.055,0.009,-0.095,-0.06,-0.09,-0.07
-0.067,-0.051,0.016,0.059,-0.041,-0.017,0.047,0.005,-0.095,-0.065,-0.094,-0.072
-0.089,-0.08,0.009,0.084,-0.048,-0.035,0.041,0.005,-0.095,-0.065,-0.095,-0.075
-0.079,-0.072,0.007,0.075,-0.042,-0.033,0.035,0.005,-0.095,-0.066,-0.095,-0.075
-0.076,-0.076,0.0,0.076,-0.038,-0.038,0.025,0.005,-0.092,-0.07,-0.095,-0.071
-0.073,-0.075,-0.002,0.074,-0.035,-0.038,0.038,0.005,-0.089,-0.07,-0.095,-0.07
-0.058,-0.075,-0.017,0.067,-0.02,-0.046,0.053,0.008,-0.087,-0.068,-0.094,-0.07
-0.055,-0.079,-0.025,0.067,-0.015,-0.052,0.049,0.012,-0.083,-0.064,-0.09,-0.065
-0.066,-0.08,-0.014,0.073,-0.026,-0.047,0.051,0.008,-0.081,-0.06,-0.088,-0.066
-0.06,-0.083,-0.023,0.072,-0.018,-0.053,0.051,0.017,-0.078,-0.057,-0.085,-0.064
-0.046,-0.085,-0.039,0.066,-0.003,-0.062,0.049,0.035,-0.075,-0.052,-0.081,-0.06
-0.015,-0.084,-0.069,0.05,0.027,-0.076,0.061,0.052,-0.075,-0.049,-0.08,-0.06
0.012,-0.072,-0.084,0.03,0.048,-0.077,0.066,0.061,-0.073,-0.046,-0.076,-0.06
0.01,-0.067,-0.077,0.029,0.044,-0.072,0.05,0.06,-0.07,-0.04,-0.075,-0.06
0.011,-0.072,-0.083,0.031,0.047,-0.077,0.041,0.047,-0.069,-0.05,-0.075,-0.06
0.01,-0.068,-0.078,0.029,0.044,-0.073,0.029,0.007,-0.088,-0.068,-0.075,-0.063
-0.001,-0.072,-0.071,0.037,0.035,-0.071,0.023,-0.002,-0.097,-0.068,-0.074,-0.067
-0.024,-0.067,-0.043,0.046,0.009,-0.055,0.047,-0.008,-0.094,-0.071,-0.079,-0.063
-0.045,-0.066,-0.02,0.056,-0.012,-0.043,0.046,-0.014,-0.096,-0.092,-0.102,-0.067
-0.041,-0.072,-0.031,0.057,-0.004,-0.051,0.03,-0.016,-0.094,-0.088,-0.098,-0.064
-0.04,-0.073,-0.033,0.057,-0.003,-0.053,0.039,-0.03,-0.1,-0.093,-0.102,-0.077
-0.057,-0.087,-0.03,0.073,-0.013,-0.058,0.04,0.002,-0.093,-0.086,-0.097,-0.074
-0.078,-0.095,-0.018,0.087,-0.03,-0.056,0.046,-0.001,-0.118,-0.085,-0.092,-0.074
-0.057,-0.085,-0.028,0.071,-0.014,-0.056,0.049,0.008,-0.113,-0.086,-0.093,-0.078
-0.087,-0.089,-0.002,0.089,-0.042,-0.046,0.069,0.004,-0.112,-0.09,-0.099,-0.076
-0.17,-0.182,-0.012,0.176,-0.079,-0.096,0.235,0.207,-0.05,-0.128,-0.181,-0.18
0.008,0.041,0.034,-0.025,-0.013,0.038,0.104,0.215,0.196,0.149,0.053,0.01
0.615,0.677,0.061,-0.646,0.277,0.369,-0.565,-0.463,0.518,0.705,0.687,0.636
1.01,1.205,0.194,-1.108,0.408,0.699,-1.124,-1.089,0.507,0.963,1.125,1.16
0.553,0.999,0.446,-0.776,0.053,0.722,-1.101,-1.428,-0.298,0.398,0.711,0.912
0.019,0.259,0.24,-0.139,-0.111,0.25,-0.632,-1.073,-0.667,-0.238,-0.015,0.181
-0.09,0.0,0.09,0.044,-0.09,0.045,-0.232,-0.374,-0.265,-0.183,-0.121,-0.07
-0.082,0.007,0.089,0.037,-0.085,0.048,-0.069,-0.107,-0.11,-0.088,-0.068,-0.056
-0.067,-0.055,0.013,0.061,-0.039,-0.021,0.004,0.032,-0.037,-0.063,-0.083,-0.073
-0.064,-0.071,-0.007,0.068,-0.028,-0.039,0.038,0.075,-0.024,-0.036,-0.064,-0.058
-0.044,-0.088,-0.044,0.066,0.0,-0.065,0.064,0.094,-0.032,-0.045,-0.075,-0.075
-0.073,-0.067,0.006,0.07,-0.039,-0.031,0.057,0.106,-0.012,-0.029,-0.062,-0.078
-0.053,-0.07,-0.017,0.062,-0.018,-0.043,0.071,0.119,-0.015,-0.034,-0.067,-0.076
-0.027,-0.061,-0.034,0.044,0.004,-0.047,0.099,0.135,0.002,-0.023,-0.058,-0.067
-0.025,-0.056,-0.031,0.041,0.003,-0.043,0.1,0.142,-0.011,-0.039,-0.054,-0.061
0.024,-0.052,-0.075,0.014,0.05,-0.063,0.1,0.174,0.019,-0.02,-0.049,-0.054
0.016,-0.045,-0.06,0.015,0.038,-0.052,0.097,0.18,0.04,0.0,-0.042,-0.048
-0.002,-0.035,-0.033,0.019,0.016,-0.034,0.094,0.2,0.046,0.002,-0.038,-0.041
0.015,-0.028,-0.044,0.007,0.03,-0.036,0.096,0.217,0.075,0.016,-0.031,-0.034
0.019,-0.017,-0.037,-0.001,0.028,-0.027,0.087,0.236,0.094,0.016,-0.013,-0.023
0.002,-0.005,-0.007,0.002,0.004,-0.006,0.093,0.271,0.12,0.045,0.008,-0.02
0.027,-0.004,-0.031,-0.012,0.029,-0.018,0.116,0.314,0.158,0.077,0.023,0.002
0.073,0.025,-0.048,-0.049,0.06,-0.011,0.118,0.372,0.209,0.108,0.052,0.035
0.092,0.059,-0.033,-0.075,0.062,0.013,0.11,0.426,0.257,0.145,0.087,0.053
0.13,0.1,-0.03,-0.115,0.08,0.035,0.105,0.466,0.301,0.18,0.123,0.088
0.174,0.151,-0.023,-0.162,0.098,0.064,0.1,0.509,0.358,0.229,0.17,0.135
0.214,0.2,-0.014,-0.207,0.114,0.093,0.093,0.528,0.388,0.272,0.223,0.186
0.227,0.228,0.001,-0.228,0.112,0.115,0.082,0.514,0.388,0.297,0.244,0.209
0.207,0.241,0.033,-0.224,0.087,0.137,0.068,0.477,0.377,0.293,0.255,0.223
0.197,0.233,0.035,-0.215,0.081,0.134,0.06,0.417,0.349,0.267,0.252,0.221
0.158,0.194,0.037,-0.176,0.06,0.116,0.06,0.353,0.294,0.231,0.214,0.19
0.106,0.152,0.047,-0.129,0.029,0.099,0.052,0.3,0.232,0.19,0.174,0.158
0.071,0.104,0.033,-0.088,0.019,0.068,0.071,0.245,0.174,0.139,0.121,0.103
0.041,0.053,0.011,-0.047,0.015,0.032,0.087,0.192,0.109,0.091,0.069,0.054
0.05,0.019,-0.03,-0.034,0.04,-0.005,0.079,0.139,0.053,0.039,0.025,0.016
0.016,-0.021,-0.038,0.003,0.027,-0.029,0.078,0.101,0.018,0.0,-0.015,-0.024
-0.058,-0.075,-0.017,0.067,-0.02,-0.046,0.074,0.099,0.005,-0.001,-0.028,-0.041
-0.089,-0.082,0.007,0.085,-0.048,-0.038,0.068,0.09,-0.018,-0.016,-0.035,-0.041
-0.085,-0.078,0.006,0.081,-0.045,-0.036,0.078,0.062,-0.046,-0.032,-0.041,-0.04
-0.065,-0.081,-0.016,0.074,-0.024,-0.048,0.084,0.049,-0.052,-0.028,-0.04,-0.04
-0.065,-0.079,-0.014,0.072,-0.025,-0.047,0.075,0.051,-0.048,-0.033,-0.04,-0.04
-0.051,-0.08,-0.029,0.065,-0.011,-0.054,0.069,0.048,-0.052,-0.044,-0.04,-0.04
-0.055,-0.072,-0.017,0.064,-0.019,-0.044,0.062,0.045,-0.059,-0.046,-0.04,-0.039
-0.095,-0.066,0.029,0.081,-0.062,-0.018,0.056,0.043,-0.053,-0.044,-0.039,-0.035
-0.09,-0.059,0.031,0.074,-0.06,-0.014,0.051,0.056,-0.043,-0.046,-0.035,-0.035
-0.07,-0.053,0.018,0.061,-0.044,-0.017,0.05,0.074,-0.037,-0.044,-0.03,-0.035
-0.058,-0.046,0.012,0.052,-0.034,-0.016,0.049,0.078,-0.028,-0.038,-0.028,-0.035
-0.062,-0.049,0.013,0.055,-0.037,-0.018,0.046,0.086,-0.025,-0.031,-0.023,-0.035
-0.073,-0.05,0.022,0.061,-0.048,-0.014,0.044,0.089,-0.025,-0.024,-0.02,-0.039
-0.047,-0.05,-0.004,0.049,-0.021,-0.027,0.047,0.082,-0.025,-0.018,-0.024,-0.04
-0.056,-0.054,0.002,0.056,-0.029,-0.026,0.051,0.078,-0.025,-0.01,-0.025,-0.04
-0.058,-0.055,0.003,0.056,-0.03,-0.026,0.048,0.072,-0.025,-0.017,-0.026,-0.045
-0.021,-0.054,-0.033,0.038,0.006,-0.043,0.044,0.066,-0.043,-0.03,-0.022,-0.045
-0.024,-0.049,-0.026,0.037,0.001,-0.037,0.041,0.062,-0.053,-0.035,-0.035,-0.046
-0.015,-0.051,-0.036,0.033,0.011,-0.043,0.036,0.055,-0.047,-0.043,-0.052,-0.05
-0.02,-0.047,-0.027,0.034,0.004,-0.037,0.034,0.047,-0.06,-0.049,-0.052,-0.05
-0.038,-0.06,-0.022,0.049,-0.008,-0.041,0.047,0.041,-0.066,-0.054,-0.056,-0.05
-0.042,-0.077,-0.036,0.06,-0.002,-0.056,0.056,0.033,-0.064,-0.058,-0.058,-0.05
-0.049,-0.074,-0.025,0.061,-0.011,-0.049,0.054,0.025,-0.061,-0.063,-0.06,-0.05
-0.04,-0.071,-0.031,0.056,-0.004,-0.05,0.055,0.021,-0.059,-0.064,-0.06,-0.054
-0.049,-0.07,-0.02,0.06,-0.015,-0.044,0.055,0.028,-0.086,-0.059,-0.06,-0.059
-0.054,-0.085,-0.031,0.07,-0.012,-0.058,0.055,0.027,-0.098,-0.061,-0.06,-0.06
-0.051,-0.089,-0.038,0.07,-0.006,-0.063,0.052,0.024,-0.094,-0.057,-0.06,-0.06
-0.049,-0.077,-0.028,0.063,-0.01,-0.052,0.046,0.025,-0.096,-0.055,-0.06,-0.06
-0.033,-0.075,-0.042,0.054,0.005,-0.058,0.042,0.02,-0.095,-0.055,-0.061,-0.059
-0.032,-0.063,-0.031,0.048,0.0,-0.047,0.037,0.02,-0.095,-0.058,-0.065,-0.061
-0.023,-0.064,-0.041,0.044,0.009,-0.052,0.032,0.018,-0.09,-0.073,-0.068,-0.065
-0.035,-0.088,-0.052,0.062,0.008,-0.07,0.03,0.015,-0.09,-0.074,-0.07,-0.065
-0.058,-0.094,-0.037,0.076,-0.01,-0.065,0.03,0.012,-0.09,-0.069,-0.074,-0.067
-0.035,-0.074,-0.039,0.055,0.002,-0.056,0.03,0.01,-0.09,-0.067,-0.075,-0.071
-0.056,-0.083,-0.027,0.07,-0.014,-0.055,0.03,0.007,-0.09,-0.062,-0.072,-0.07
-0.09,-0.115,-0.025,0.103,-0.032,-0.07,0.03,0.004,-0.092,-0.06,-0.069,-0.067
-0.074,-0.108,-0.034,0.091,-0.02,-0.071,0.03,0.009,-0.095,-0.055,-0.066,-0.064
-0.067,-0.1,-0.032,0.084,-0.017,-0.066,0.027,0.009,-0.095,-0.055,-0.063,-0.061
-0.057,-0.095,-0.039,0.076,-0.009,-0.067,0.024,0.013,-0.095,-0.054,-0.061,-0.058
-0.057,-0.086,-0.028,0.072,-0.014,-0.057,0.024,0.015,-0.095,-0.05,-0.059,-0.056
-0.043,-0.075,-0.032,0.059,-0.005,-0.054,0.018,0.017,-0.095,-0.05,-0.055,-0.054
-0.028,-0.062,-0.034,0.045,0.003,-0.048,0.025,0.031,-0.084,-0.05,-0.055,-0.05
-0.031,-0.082,-0.051,0.057,0.01,-0.066,0.044,0.051,-0.069,-0.05,-0.053,-0.045
-0.002,-0.093,-0.091,0.048,0.045,-0.092,0.045,0.061,-0.063,-0.05,-0.049,-0.043
0.0,-0.086,-0.085,0.043,0.043,-0.085,0.039,0.053,-0.065,-0.05,-0.05,-0.038
-0.013,-0.093,-0.08,0.053,0.033,-0.086,0.038,0.052,-0.065,-0.05,-0.053,-0.035
-0.021,-0.093,-0.071,0.057,0.025,-0.082,0.033,0.036,-0.064,-0.05,-0.056,-0.038
-0.028,-0.097,-0.069,0.063,0.021,-0.083,0.03,-0.004,-0.082,-0.055,-0.059,-0.044
-0.033,-0.1,-0.067,0.067,0.017,-0.084,0.026,-0.01,-0.093,-0.063,-0.063,-0.048
-0.07,-0.1,-0.03,0.085,-0.02,-0.064,0.022,-0.018,-0.1,-0.066,-0.072,-0.05
-0.066,-0.108,-0.043,0.087,-0.011,-0.075,0.02,-0.019,-0.107,-0.073,-0.078,-0.057
-0.056,-0.1,-0.044,0.078,-0.005,-0.072,0.013,-0.025,-0.108,-0.067,-0.071,-0.052
-0.081,-0.111,-0.031,0.096,-0.024,-0.071,0.022,-0.033,-0.11,-0.074,-0.08,-0.059
-0.07,-0.096,-0.026,0.084,-0.022,-0.061,0.026,-0.021,-0.1,-0.066,-0.07,-0.051
-0.107,-0.112,-0.005,0.109,-0.05,-0.058,0.039,-0.034,-0.11,-0.073,-0.08,-0.059
-0.084,-0.107,-0.023,0.096,-0.03,-0.065,0.034,-0.009,-0.091,-0.079,-0.069,-0.055
-0.108,-0.13,-0.021,0.12,-0.043,-0.076,0.08,0.026,-0.107,-0.098,-0.102,-0.087
-0.162,-0.194,-0.032,0.178,-0.064,-0.113,0.233,0.257,-0.011,-0.08,-0.153,-0.166
0.144,0.17,0.025,-0.157,0.06,0.097,-0.045,0.084,0.276,0.281,0.214,0.153
0.757,0.821,0.064,-0.789,0.346,0.443,-0.761,-0.652,0.573,0.821,0.857,0.812
0.949,1.219,0.27,-1.084,0.339,0.744,-1.194,-1.229,0.346,0.891,1.118,1.186
0.368,0.797,0.429,-0.583,-0.031,0.613,-1.038,-1.47,-0.5,0.195,0.529,0.742
-0.063,0.102,0.165,-0.02,-0.115,0.133,-0.527,-0.92,-0.606,-0.273,-0.08,0.079
-0.098,-0.009,0.089,0.053,-0.093,0.04,-0.191,-0.29,-0.203,-0.133,-0.076,-0.032
-0.079,-0.02,0.06,0.049,-0.069,0.02,-0.073,-0.105,-0.118,-0.076,-0.055,-0.018
-0.048,-0.071,-0.023,0.06,-0.012,-0.047,-0.006,0.009,-0.049,-0.051,-0.058,-0.04
-0.061,-0.083,-0.022,0.073,-0.019,-0.052,0.017,0.031,-0.045,-0.037,-0.051,-0.04
-0.045,-0.098,-0.052,0.072,0.004,-0.075,0.046,0.066,-0.036,-0.041,-0.059,-0.057
-0.045,-0.084,-0.039,0.065,-0.003,-0.061,0.044,0.076,-0.027,-0.027,-0.051,-0.053
-0.039,-0.088,-0.049,0.064,0.005,-0.069,0.045,0.096,-0.026,-0.028,-0.057,-0.052
-0.051,-0.08,-0.029,0.066,-0.011,-0.054,0.046,0.101,-0.013,-0.018,-0.046,-0.041
-0.047,-0.078,-0.031,0.063,-0.007,-0.055,0.044,0.103,-0.012,-0.015,-0.046,-0.037
-0.004,-0.074,-0.07,0.04,0.034,-0.072,0.053,0.123,0.01,-0.004,-0.039,-0.029
-0.006,-0.066,-0.06,0.036,0.027,-0.062,0.059,0.132,0.018,0.003,-0.036,-0.023
0.006,-0.053,-0.059,0.024,0.033,-0.056,0.066,0.156,0.031,0.01,-0.028,-0.02
0.019,-0.042,-0.061,0.012,0.041,-0.052,0.064,0.182,0.055,0.019,-0.009,-0.013
-0.006,-0.033,-0.027,0.02,0.011,-0.03,0.068,0.204,0.075,0.037,0.005,-0.013
0.013,-0.027,-0.04,0.007,0.027,-0.033,0.077,0.241,0.107,0.054,0.016,0.006
0.06,0.005,-0.055,-0.032,0.058,-0.024,0.076,0.289,0.148,0.094,0.049,0.04
0.071,0.046,-0.024,-0.058,0.047,0.011,0.073,0.331,0.187,0.125,0.083,0.058
0.108,0.057,-0.051,-0.082,0.079,0.003,0.071,0.39,0.238,0.153,0.107,0.084
0.143,0.092,-0.052,-0.117,0.097,0.019,0.067,0.438,0.296,0.206,0.153,0.126
0.179,0.15,-0.029,-0.164,0.103,0.06,0.066,0.461,0.35,0.249,0.204,0.168
0.215,0.186,-0.029,-0.2,0.122,0.078,0.059,0.465,0.373,0.283,0.249,0.21
0.24,0.206,-0.034,-0.223,0.137,0.085,0.034,0.447,0.371,0.296,0.272,0.24
0.242,0.215,-0.027,-0.228,0.134,0.094,0.028,0.416,0.361,0.295,0.263,0.235
0.176,0.197,0.021,-0.187,0.077,0.109,0.032,0.356,0.315,0.275,0.248,0.226
0.174,0.177,0.003,-0.176,0.085,0.09,0.027,0.288,0.255,0.235,0.225,0.201
0.174,0.148,-0.026,-0.161,0.1,0.061,0.042,0.225,0.194,0.184,0.174,0.149
0.107,0.089,-0.019,-0.098,0.063,0.035,0.051,0.171,0.138,0.133,0.123,0.1
0.071,0.036,-0.035,-0.053,0.053,0.0,0.049,0.128,0.089,0.091,0.08,0.055
0.01,-0.031,-0.041,0.011,0.025,-0.036,0.065,0.074,0.043,0.055,0.04,0.023
-0.006,-0.066,-0.06,0.036,0.027,-0.063,0.066,0.046,0.009,0.028,0.013,-0.009
-0.015,-0.072,-0.057,0.043,0.022,-0.064,0.056,0.039,-0.025,0.007,-0.008,-0.029
-0.057,-0.092,-0.035,0.075,-0.011,-0.063,0.051,0.024,-0.047,-0.011,-0.024,-0.034
-0.041,-0.088,-0.047,0.065,0.003,-0.067,0.042,0.015,-0.059,-0.032,-0.036,-0.041
-0.04,-0.101,-0.061,0.07,0.011,-0.081,0.035,0.005,-0.066,-0.035,-0.036,-0.04
-0.05,-0.108,-0.058,0.079,0.004,-0.083,0.046,-0.001,-0.06,-0.028,-0.031,-0.04
-0.041,-0.096,-0.054,0.069,0.007,-0.075,0.05,0.0,-0.055,-0.024,-0.029,-0.039
-0.036,-0.088,-0.052,0.062,0.008,-0.069,0.044,-0.001,-0.052,-0.017,-0.024,-0.035
-0.042,-0.092,-0.049,0.067,0.004,-0.07,0.042,0.0,-0.045,-0.013,-0.021,-0.035
-0.032,-0.085,-0.053,0.058,0.011,-0.069,0.037,0.004,-0.051,-0.007,-0.017,-0.035
-0.002,-0.064,-0.062,0.033,0.03,-0.063,0.035,0.014,-0.056,-0.005,-0.015,-0.035
0.002,-0.061,-0.063,0.03,0.033,-0.062,0.028,0.018,-0.05,-0.005,-0.015,-0.035
0.006,-0.055,-0.06,0.024,0.033,-0.057,0.021,0.015,-0.045,-0.005,-0.011,-0.035
0.005,-0.05,-0.055,0.023,0.03,-0.052,0.014,0.015,-0.042,-0.011,-0.01,-0.035
0.011,-0.042,-0.053,0.016,0.032,-0.048,0.006,0.015,-0.034,-0.017,-0.01,-0.035
0.005,-0.044,-0.049,0.019,0.027,-0.046,-0.002,0.015,-0.046,-0.022,-0.022,-0.036
-0.011,-0.053,-0.042,0.033,0.016,-0.048,-0.002,0.015,-0.064,-0.028,-0.038,-0.048
-0.007,-0.064,-0.057,0.036,0.025,-0.06,0.017,0.011,-0.068,-0.03,-0.04,-0.054
-0.028,-0.081,-0.053,0.055,0.012,-0.066,0.021,0.0,-0.071,-0.034,-0.04,-0.057
-0.025,-0.074,-0.049,0.049,0.013,-0.061,0.014,-0.007,-0.07,-0.035,-0.04,-0.062
-0.005,-0.068,-0.063,0.036,0.029,-0.065,0.011,-0.018,-0.071,-0.035,-0.04,-0.065
-0.003,-0.065,-0.062,0.035,0.03,-0.063,0.006,-0.038,-0.083,-0.035,-0.044,-0.069
-0.012,-0.052,-0.04,0.032,0.014,-0.045,0.001,-0.041,-0.097,-0.035,-0.053,-0.07
-0.026,-0.084,-0.058,0.055,0.016,-0.071,0.002,-0.039,-0.101,-0.036,-0.06,-0.069
-0.059,-0.115,-0.055,0.087,-0.002,-0.085,0.01,-0.041,-0.099,-0.033,-0.062,-0.072
-0.064,-0.108,-0.044,0.086,-0.01,-0.076,0.014,-0.039,-0.097,-0.046,-0.065,-0.08
-0.044,-0.111,-0.066,0.078,0.011,-0.088,0.011,-0.04,-0.094,-0.062,-0.068,-0.088
-0.055,-0.11,-0.055,0.083,0.0,-0.082,0.01,-0.037,-0.096,-0.059,-0.07,-0.09
-0.031,-0.11,-0.078,0.071,0.023,-0.094,0.01,-0.034,-0.103,-0.06,-0.073,-0.092
-0.025,-0.11,-0.085,0.068,0.03,-0.097,0.01,-0.054,-0.112,-0.06,-0.075,-0.095
-0.036,-0.109,-0.073,0.073,0.019,-0.091,0.01,-0.067,-0.115,-0.059,-0.075,-0.096
-0.025,-0.11,-0.085,0.068,0.03,-0.098,0.008,-0.064,-0.115,-0.064,-0.079,-0.099
-0.036,-0.11,-0.073,0.073,0.019,-0.091,0.003,-0.065,-0.115,-0.065,-0.08,-0.101
-0.039,-0.11,-0.071,0.075,0.016,-0.09,-0.003,-0.065,-0.115,-0.066,-0.08,-0.099
-0.023,-0.11,-0.087,0.067,0.032,-0.098,-0.006,-0.065,-0.115,-0.069,-0.08,-0.103
-0.045,-0.11,-0.065,0.078,0.01,-0.087,-0.012,-0.061,-0.111,-0.071,-0.08,-0.105
-0.048,-0.11,-0.062,0.079,0.007,-0.086,-0.015,-0.06,-0.11,-0.069,-0.08,-0.105
-0.035,-0.11,-0.075,0.073,0.02,-0.092,-0.011,-0.06,-0.11,-0.07,-0.08,-0.108
-0.044,-0.11,-0.066,0.077,0.011,-0.088,-0.008,-0.055,-0.11,-0.07,-0.08,-0.111
-0.036,-0.11,-0.074,0.073,0.019,-0.092,-0.005,-0.055,-0.11,-0.07,-0.078,-0.11
-0.06,-0.107,-0.047,0.084,-0.006,-0.077,-0.002,-0.054,-0.109,-0.081,-0.074,-0.105
-0.049,-0.103,-0.054,0.076,0.003,-0.078,0.001,-0.045,-0.1,-0.076,-0.07,-0.099
-0.002,-0.1,-0.098,0.051,0.048,-0.099,-0.003,-0.034,-0.089,-0.062,-0.066,-0.094
0.001,-0.096,-0.097,0.048,0.049,-0.097,-0.017,-0.026,-0.088,-0.064,-0.062,-0.088
-0.004,-0.095,-0.091,0.049,0.044,-0.092,-0.02,-0.024,-0.091,-0.066,-0.059,-0.082
-0.009,-0.095,-0.086,0.052,0.039,-0.09,-0.02,-0.022,-0.096,-0.07,-0.067,-0.082
-0.015,-0.094,-0.08,0.055,0.033,-0.087,-0.019,-0.019,-0.097,-0.072,-0.078,-0.093
-0.021,-0.095,-0.074,0.059,0.027,-0.085,-0.024,-0.05,-0.104,-0.075,-0.08,-0.1
-0.023,-0.094,-0.072,0.059,0.025,-0.083,-0.036,-0.075,-0.117,-0.078,-0.081,-0.1
-0.032,-0.096,-0.064,0.064,0.017,-0.08,-0.034,-0.081,-0.124,-0.079,-0.083,-0.102
-0.022,-0.087,-0.065,0.055,0.022,-0.076,-0.029,-0.083,-0.128,-0.082,-0.088,-0.107
-0.027,-0.076,-0.05,0.051,0.012,-0.063,-0.029,-0.083,-0.128,-0.077,-0.085,-0.104
-0.056,-0.103,-0.047,0.08,-0.004,-0.075,-0.023,-0.081,-0.126,-0.084,-0.095,-0.114
-0.072,-0.108,-0.035,0.09,-0.018,-0.071,-0.025,-0.076,-0.111,-0.075,-0.087,-0.108
-0.105,-0.124,-0.019,0.115,-0.043,-0.072,-0.017,-0.081,-0.121,-0.092,-0.104,-0.118
-0.086,-0.117,-0.031,0.102,-0.027,-0.074,-0.024,-0.067,-0.095,-0.092,-0.101,-0.113
-0.116,-0.144,-0.028,0.13,-0.043,-0.086,0.026,-0.051,-0.116,-0.108,-0.123,-0.14
-0.154,-0.208,-0.054,0.182,-0.05,-0.131,0.192,0.179,-0.037,-0.102,-0.182,-0.225
0.092,0.131,0.039,-0.111,0.026,0.085,-0.054,0.053,0.231,0.259,0.17,0.072
0.715,0.793,0.078,-0.755,0.318,0.435,-0.757,-0.609,0.565,0.852,0.868,0.756
0.941,1.24,0.3,-1.09,0.32,0.77,-1.178,-1.158,0.404,0.987,1.2,1.193
0.346,0.833,0.487,-0.59,-0.071,0.659,-1.016,-1.435,-0.497,0.243,0.566,0.716
-0.08,0.097,0.177,-0.008,-0.129,0.137,-0.545,-0.962,-0.66,-0.31,-0.136,-0.012
-0.084,-0.022,0.062,0.053,-0.073,0.019,-0.235,-0.374,-0.251,-0.17,-0.13,-0.119
-0.041,-0.009,0.032,0.025,-0.036,0.011,-0.122,-0.18,-0.147,-0.094,-0.095,-0.104
-0.057,-0.078,-0.021,0.068,-0.018,-0.049,-0.055,-0.051,-0.063,-0.079,-0.099,-0.115
-0.078,-0.086,-0.007,0.082,-0.035,-0.046,-0.026,-0.033,-0.059,-0.062,-0.082,-0.099
-0.038,-0.077,-0.039,0.058,0.001,-0.058,-0.01,-0.004,-0.046,-0.059,-0.088,-0.111
-0.055,-0.08,-0.025,0.068,-0.015,-0.053,-0.009,0.005,-0.039,-0.045,-0.073,-0.098
-0.085,-0.1,-0.016,0.093,-0.034,-0.058,-0.002,0.014,-0.037,-0.046,-0.075,-0.099
-0.079,-0.092,-0.013,0.086,-0.032,-0.053,0.004,0.032,-0.024,-0.033,-0.062,-0.087
-0.032,-0.09,-0.059,0.061,0.014,-0.074,0.008,0.054,-0.024,-0.031,-0.059,-0.083
-0.009,-0.076,-0.067,0.043,0.029,-0.071,0.015,0.065,-0.001,-0.023,-0.05,-0.075
-0.019,-0.064,-0.045,0.042,0.013,-0.054,0.02,0.072,0.018,-0.015,-0.045,-0.07
-0.011,-0.051,-0.04,0.031,0.015,-0.045,0.026,0.093,0.03,-0.006,-0.036,-0.064
0.003,-0.036,-0.039,0.016,0.021,-0.037,0.031,0.116,0.051,0.009,-0.023,-0.055
0.007,-0.026,-0.033,0.01,0.02,-0.029,0.035,0.132,0.078,0.025,-0.011,-0.046
0.025,-0.018,-0.043,-0.003,0.034,-0.03,0.034,0.154,0.101,0.049,0.006,-0.034
0.069,0.013,-0.055,-0.041,0.062,-0.021,0.038,0.207,0.143,0.082,0.033,-0.01
0.09,0.047,-0.043,-0.068,0.067,0.002,0.04,0.253,0.188,0.115,0.062,0.019
0.103,0.064,-0.038,-0.083,0.07,0.013,0.041,0.311,0.241,0.157,0.092,0.047
0.128,0.101,-0.028,-0.114,0.078,0.036,0.034,0.355,0.293,0.199,0.138,0.086
0.167,0.15,-0.017,-0.158,0.092,0.066,0.021,0.384,0.344,0.245,0.189,0.131
0.198,0.191,-0.008,-0.194,0.103,0.091,0.01,0.4,0.374,0.283,0.236,0.174
0.204,0.206,0.002,-0.205,0.101,0.104,-0.016,0.374,0.363,0.291,0.25,0.198
0.197,0.222,0.026,-0.21,0.085,0.124,-0.027,0.328,0.339,0.279,0.239,0.194
0.201,0.227,0.026,-0.214,0.087,0.126,-0.019,0.286,0.3,0.258,0.232,0.181
0.154,0.194,0.04,-0.174,0.057,0.116,-0.015,0.227,0.248,0.225,0.206,0.16
0.087,0.145,0.058,-0.116,0.014,0.101,-0.008,0.16,0.188,0.188,0.159,0.114
0.052,0.091,0.039,-0.072,0.006,0.065,-0.001,0.114,0.128,0.128,0.11,0.058
0.02,0.051,0.031,-0.036,-0.006,0.041,0.017,0.069,0.07,0.076,0.062,0.017
-0.008,0.012,0.02,-0.002,-0.014,0.015,0.036,0.034,0.019,0.057,0.021,-0.016
-0.02,-0.004,0.016,0.011,-0.017,0.006,0.034,0.008,-0.011,0.02,-0.012,-0.054
-0.033,-0.024,0.009,0.028,-0.021,-0.007,0.028,-0.011,-0.04,-0.006,-0.041,-0.077
-0.083,-0.077,0.006,0.079,-0.044,-0.035,0.025,-0.025,-0.066,-0.009,-0.052,-0.075
-0.082,-0.086,-0.003,0.084,-0.039,-0.044,0.02,-0.041,-0.069,-0.016,-0.047,-0.075
-0.075,-0.076,-0.001,0.076,-0.037,-0.038,0.016,-0.05,-0.068,-0.02,-0.045,-0.074
-0.095,-0.075,0.019,0.085,-0.057,-0.028,0.011,-0.045,-0.065,-0.027,-0.04,-0.07
-0.061,-0.068,-0.008,0.065,-0.026,-0.038,0.01,-0.04,-0.062,-0.029,-0.037,-0.07
-0.04,-0.065,-0.025,0.053,-0.007,-0.045,0.01,-0.038,-0.059,-0.025,-0.033,-0.067
-0.051,-0.058,-0.007,0.055,-0.022,-0.033,0.01,-0.03,-0.056,-0.025,-0.03,-0.065
-0.052,-0.053,0.0,0.052,-0.026,-0.026,0.01,-0.033,-0.054,-0.023,-0.03,-0.062
-0.04,-0.048,-0.009,0.044,-0.015,-0.028,0.009,-0.045,-0.05,-0.019,-0.028,-0.059
-0.047,-0.041,0.007,0.044,-0.027,-0.017,0.005,-0.037,-0.045,-0.021,-0.025,-0.056
-0.043,-0.03,0.013,0.036,-0.028,-0.008,0.005,-0.031,-0.041,-0.016,-0.025,-0.055
-0.048,-0.027,0.02,0.037,-0.034,-0.003,0.005,-0.025,-0.037,-0.015,-0.025,-0.06
-0.068,-0.035,0.033,0.051,-0.05,-0.001,0.005,-0.017,-0.03,-0.014,-0.025,-0.06
-0.059,-0.036,0.023,0.047,-0.041,-0.006,0.005,-0.016,-0.034,-0.011,-0.026,-0.061
-0.058,-0.036,0.022,0.046,-0.039,-0.007,0.001,-0.014,-0.048,-0.009,-0.024,-0.065
-0.042,-0.034,0.008,0.038,-0.025,-0.013,0.0,-0.033,-0.053,-0.012,-0.028,-0.065
-0.062,-0.037,0.025,0.049,-0.043,-0.005,-0.002,-0.034,-0.048,-0.036,-0.043,-0.067
-0.092,-0.051,0.041,0.071,-0.066,-0.004,-0.006,-0.041,-0.063,-0.047,-0.046,-0.075
-0.086,-0.049,0.037,0.067,-0.062,-0.006,-0.004,-0.066,-0.085,-0.044,-0.044,-0.08
-0.055,-0.067,-0.012,0.061,-0.021,-0.039,0.0,-0.065,-0.087,-0.046,-0.047,-0.08
-0.082,-0.093,-0.011,0.088,-0.035,-0.052,0.0,-0.066,-0.091,-0.048,-0.05,-0.08
-0.115,-0.088,0.027,0.101,-0.071,-0.03,0.0,-0.07,-0.094,-0.051,-0.05,-0.08
-0.091,-0.093,-0.003,0.092,-0.044,-0.048,-0.004,-0.071,-0.097,-0.049,-0.05,-0.082
-0.118,-0.095,0.023,0.107,-0.07,-0.035,-0.017,-0.066,-0.101,-0.051,-0.053,-0.086
-0.103,-0.095,0.008,0.099,-0.055,-0.043,-0.018,-0.076,-0.099,-0.065,-0.069,-0.089
-0.103,-0.089,0.014,0.096,-0.058,-0.037,-0.01,-0.086,-0.104,-0.071,-0.076,-0.09
-0.105,-0.066,0.038,0.085,-0.071,-0.014,-0.007,-0.077,-0.105,-0.073,-0.074,-0.09
-0.085,-0.06,0.025,0.072,-0.055,-0.017,0.001,-0.076,-0.105,-0.076,-0.075,-0.09
-0.09,-0.057,0.032,0.073,-0.061,-0.012,0.004,-0.069,-0.105,-0.079,-0.075,-0.09
-0.08,-0.055,0.025,0.067,-0.052,-0.014,0.0,-0.067,-0.105,-0.08,-0.075,-0.087
-0.09,-0.051,0.038,0.07,-0.064,-0.006,-0.005,-0.057,-0.105,-0.074,-0.07,-0.085
-0.075,-0.049,0.026,0.062,-0.051,-0.011,-0.01,-0.06,-0.105,-0.069,-0.065,-0.085
-0.094,-0.066,0.028,0.079,-0.061,-0.018,-0.013,-0.081,-0.106,-0.064,-0.06,-0.085
-0.088,-0.071,0.016,0.079,-0.052,-0.028,-0.02,-0.08,-0.102,-0.058,-0.057,-0.085
-0.076,-0.069,0.007,0.073,-0.042,-0.031,-0.015,-0.078,-0.1,-0.051,-0.049,-0.085
-0.117,-0.071,0.047,0.094,-0.082,-0.012,-0.008,-0.075,-0.1,-0.056,-0.06,-0.086
-0.116,-0.07,0.047,0.093,-0.081,-0.011,-0.013,-0.074,-0.097,-0.061,-0.076,-0.085
-0.1,-0.066,0.034,0.082,-0.066,-0.016,-0.007,-0.077,-0.095,-0.053,-0.067,-0.081
-0.098,-0.065,0.032,0.081,-0.065,-0.016,0.003,-0.086,-0.095,-0.05,-0.061,-0.078
-0.082,-0.064,0.018,0.073,-0.05,-0.023,0.013,-0.067,-0.088,-0.045,-0.054,-0.074
-0.022,-0.059,-0.037,0.041,0.007,-0.048,0.023,-0.032,-0.076,-0.04,-0.047,-0.07
0.007,-0.061,-0.069,0.027,0.038,-0.065,0.018,-0.041,-0.07,-0.038,-0.043,-0.074
-0.035,-0.056,-0.021,0.046,-0.007,-0.038,0.008,-0.049,-0.053,-0.032,-0.039,-0.075
-0.052,-0.049,0.003,0.051,-0.028,-0.023,-0.001,-0.053,-0.062,-0.041,-0.041,-0.075
0.001,-0.035,-0.036,0.017,0.018,-0.035,-0.008,-0.053,-0.077,-0.043,-0.038,-0.08
0.019,-0.031,-0.051,0.006,0.035,-0.041,-0.03,-0.075,-0.089,-0.052,-0.051,-0.08
-0.052,-0.036,0.016,0.044,-0.033,-0.01,-0.052,-0.104,-0.109,-0.071,-0.066,-0.082
-0.1,-0.051,0.049,0.075,-0.074,-0.002,-0.042,-0.107,-0.112,-0.07,-0.064,-0.084
-0.106,-0.084,0.022,0.094,-0.064,-0.03,-0.035,-0.105,-0.108,-0.07,-0.065,-0.087
-0.097,-0.071,0.026,0.084,-0.061,-0.023,-0.032,-0.114,-0.11,-0.069,-0.058,-0.086
-0.067,-0.075,-0.008,0.071,-0.029,-0.041,-0.018,-0.105,-0.112,-0.071,-0.062,-0.094
-0.097,-0.062,0.035,0.079,-0.066,-0.013,-0.027,-0.103,-0.103,-0.071,-0.062,-0.085
-0.114,-0.065,0.048,0.089,-0.081,-0.009,-0.022,-0.101,-0.105,-0.101,-0.097,-0.095
-0.093,-0.062,0.03,0.077,-0.061,-0.016,-0.027,-0.091,-0.079,-0.088,-0.092,-0.086
-0.159,-0.116,0.043,0.137,-0.101,-0.036,0.07,-0.027,-0.097,-0.11,-0.114,-0.141
-0.158,-0.153,0.005,0.155,-0.081,-0.074,0.204,0.198,0.004,-0.066,-0.119,-0.186
0.18,0.288,0.108,-0.235,0.036,0.198,-0.188,-0.134,0.289,0.37,0.311,0.205
0.801,0.957,0.156,-0.879,0.322,0.556,-0.916,-0.837,0.598,0.939,0.992,0.88
0.884,1.253,0.369,-1.069,0.257,0.811,-1.272,-1.327,0.264,0.89,1.15,1.18
0.289,0.727,0.438,-0.508,-0.075,0.582,-1.026,-1.487,-0.596,0.08,0.436,0.603
-0.059,0.11,0.169,-0.026,-0.114,0.14,-0.504,-0.863,-0.555,-0.294,-0.11,0.015
-0.084,0.053,0.137,0.015,-0.11,0.095,-0.197,-0.321,-0.173,-0.115,-0.062,-0.024
-0.075,0.001,0.076,0.036,-0.075,0.039,-0.088,-0.158,-0.114,-0.08,-0.043,-0.061
-0.097,-0.039,0.058,0.068,-0.077,0.009,-0.036,-0.045,-0.043,-0.048,-0.046,-0.072
-0.111,-0.046,0.065,0.078,-0.088,0.009,-0.01,-0.045,-0.046,-0.048,-0.059,-0.072
-0.081,-0.052,0.03,0.066,-0.055,-0.011,0.014,-0.015,-0.029,-0.046,-0.058,-0.072
-0.082,-0.034,0.048,0.058,-0.064,0.007,0.016,-0.008,-0.026,-0.038,-0.048,-0.06
-0.062,-0.036,0.026,0.049,-0.043,-0.005,0.036,0.027,-0.02,-0.04,-0.05,-0.062
-0.056,-0.024,0.032,0.039,-0.044,0.004,0.052,0.044,-0.01,-0.03,-0.039,-0.049
-0.034,-0.021,0.013,0.027,-0.024,-0.004,0.049,0.044,-0.008,-0.028,-0.039,-0.05
-0.047,-0.023,0.023,0.035,-0.035,0.0,0.05,0.068,0.008,-0.014,-0.029,-0.041
-0.088,-0.037,0.051,0.062,-0.07,0.007,0.05,0.086,0.036,-0.011,-0.026,-0.039
-0.064,-0.022,0.041,0.043,-0.052,0.009,0.048,0.103,0.058,0.005,-0.015,-0.033
-0.054,-0.008,0.046,0.031,-0.049,0.019,0.061,0.128,0.063,0.014,-0.005,-0.029
-0.023,0.001,0.024,0.011,-0.023,0.012,0.077,0.156,0.089,0.035,0.012,-0.024
-0.019,0.017,0.036,0.001,-0.028,0.026,0.074,0.196,0.131,0.064,0.03,-0.017
-0.024,0.043,0.067,-0.009,-0.045,0.054,0.076,0.244,0.175,0.091,0.053,0.004
0.023,0.075,0.052,-0.049,-0.015,0.063,0.07,0.283,0.212,0.121,0.088,0.036
0.046,0.101,0.055,-0.073,-0.005,0.078,0.063,0.335,0.267,0.155,0.123,0.065
0.086,0.133,0.047,-0.109,0.019,0.09,0.081,0.397,0.327,0.211,0.166,0.115
0.134,0.179,0.045,-0.157,0.044,0.111,0.069,0.431,0.375,0.255,0.216,0.159
0.172,0.23,0.058,-0.201,0.057,0.144,0.047,0.427,0.409,0.294,0.264,0.203
0.186,0.258,0.073,-0.222,0.056,0.165,0.037,0.396,0.408,0.309,0.277,0.227
0.195,0.278,0.084,-0.237,0.055,0.181,0.021,0.356,0.381,0.298,0.276,0.218
0.203,0.272,0.069,-0.237,0.067,0.17,0.022,0.301,0.338,0.275,0.259,0.207
0.135,0.212,0.077,-0.174,0.029,0.145,0.017,0.231,0.273,0.223,0.219,0.184
0.079,0.152,0.073,-0.115,0.003,0.112,0.028,0.17,0.203,0.175,0.175,0.134
0.063,0.116,0.052,-0.09,0.005,0.084,0.045,0.106,0.13,0.116,0.105,0.072
0.018,0.081,0.063,-0.05,-0.022,0.071,0.045,0.057,0.073,0.068,0.061,0.03
-0.055,0.012,0.067,0.022,-0.061,0.039,0.062,0.028,0.04,0.041,0.04,0.006
-0.093,-0.034,0.058,0.063,-0.075,0.012,0.067,-0.007,0.0,0.005,0.0,-0.027
-0.076,-0.038,0.038,0.056,-0.057,0.0,0.063,-0.03,-0.028,-0.015,-0.019,-0.054
-0.081,-0.049,0.033,0.065,-0.056,-0.008,0.049,-0.04,-0.04,-0.025,-0.026,-0.055
-0.056,-0.039,0.017,0.047,-0.036,-0.011,0.034,-0.048,-0.051,-0.039,-0.039,-0.055
-0.068,-0.049,0.018,0.058,-0.043,-0.015,0.031,-0.047,-0.06,-0.042,-0.042,-0.055
-0.132,-0.076,0.056,0.104,-0.094,-0.01,0.024,-0.045,-0.061,-0.04,-0.04,-0.055
-0.089,-0.05,0.039,0.069,-0.063,-0.005,0.02,-0.045,-0.055,-0.04,-0.036,-0.054
-0.065,-0.022,0.043,0.043,-0.054,0.01,0.012,-0.04,-0.056,-0.036,-0.035,-0.05
-0.109,-0.05,0.059,0.079,-0.084,0.005,0.015,-0.04,-0.048,-0.035,-0.029,-0.05
-0.126,-0.074,0.052,0.1,-0.089,-0.01,0.026,-0.039,-0.055,-0.035,-0.033,-0.05
-0.111,-0.057,0.054,0.084,-0.082,-0.001,0.025,-0.033,-0.059,-0.03,-0.048,-0.05
-0.074,-0.026,0.048,0.05,-0.061,0.011,0.025,-0.026,-0.042,-0.025,-0.043,-0.05
-0.06,-0.01,0.05,0.035,-0.055,0.02,0.025,-0.019,-0.049,-0.02,-0.033,-0.046
-0.064,-0.006,0.058,0.035,-0.061,0.026,0.025,-0.013,-0.052,-0.017,-0.027,-0.045
-0.077,-0.019,0.059,0.048,-0.068,0.02,0.023,-0.006,-0.047,-0.011,-0.018,-0.044
-0.082,-0.032,0.05,0.057,-0.066,0.009,0.019,-0.009,-0.046,-0.012,-0.016,-0.041
-0.074,-0.029,0.044,0.051,-0.059,0.007,0.017,-0.013,-0.044,-0.019,-0.014,-0.039
-0.068,-0.031,0.037,0.049,-0.053,0.003,0.014,-0.018,-0.048,-0.026,-0.011,-0.043
-0.06,-0.029,0.031,0.044,-0.046,0.001,0.011,-0.021,-0.051,-0.033,-0.009,-0.045
-0.066,-0.032,0.035,0.049,-0.05,0.001,0.01,-0.031,-0.048,-0.039,-0.021,-0.048
-0.071,-0.025,0.046,0.048,-0.058,0.01,0.004,-0.05,-0.064,-0.046,-0.043,-0.063
-0.091,-0.035,0.056,0.062,-0.073,0.01,0.016,-0.05,-0.082,-0.052,-0.05,-0.066
-0.107,-0.053,0.054,0.079,-0.08,0.0,0.028,-0.049,-0.082,-0.058,-0.05,-0.065
-0.098,-0.049,0.049,0.073,-0.073,0.0,0.021,-0.05,-0.087,-0.06,-0.055,-0.065
-0.097,-0.047,0.049,0.072,-0.073,0.001,0.02,-0.051,-0.09,-0.06,-0.055,-0.066
-0.082,-0.041,0.042,0.061,-0.062,0.0,0.016,-0.06,-0.09,-0.061,-0.058,-0.071
-0.089,-0.039,0.05,0.063,-0.069,0.006,0.015,-0.064,-0.09,-0.064,-0.061,-0.08
-0.098,-0.031,0.068,0.064,-0.083,0.018,0.012,-0.06,-0.09,-0.065,-0.059,-0.091
-0.094,-0.036,0.058,0.064,-0.076,0.011,0.007,-0.06,-0.09,-0.065,-0.06,-0.09
-0.102,-0.052,0.05,0.077,-0.076,-0.001,0.005,-0.058,-0.089,-0.065,-0.059,-0.088
-0.094,-0.049,0.045,0.071,-0.069,-0.002,0.0,-0.055,-0.092,-0.065,-0.06,-0.085
-0.088,-0.051,0.037,0.069,-0.062,-0.006,-0.003,-0.054,-0.095,-0.067,-0.06,-0.085
-0.078,-0.048,0.031,0.063,-0.054,-0.008,-0.007,-0.06,-0.095,-0.073,-0.06,-0.085
-0.07,-0.044,0.026,0.057,-0.047,-0.009,-0.01,-0.07,-0.098,-0.075,-0.072,-0.085
-0.081,-0.046,0.035,0.063,-0.058,-0.005,-0.012,-0.07,-0.1,-0.075,-0.074,-0.085
-0.076,-0.041,0.036,0.058,-0.056,-0.002,-0.016,-0.069,-0.1,-0.075,-0.066,-0.085
-0.074,-0.04,0.033,0.057,-0.054,-0.003,-0.011,-0.071,-0.1,-0.075,-0.064,-0.085
-0.077,-0.039,0.038,0.057,-0.057,0.0,-0.005,-0.069,-0.1,-0.074,-0.058,-0.084
-0.065,-0.036,0.029,0.05,-0.047,-0.003,0.0,-0.07,-0.099,-0.071,-0.055,-0.081
-0.086,-0.033,0.053,0.059,-0.069,0.01,0.007,-0.07,-0.093,-0.069,-0.06,-0.078
-0.106,-0.031,0.075,0.068,-0.091,0.022,0.01,-0.069,-0.086,-0.066,-0.059,-0.076
-0.078,-0.028,0.049,0.053,-0.063,0.01,0.011,-0.072,-0.079,-0.063,-0.066,-0.073
-0.059,-0.023,0.036,0.041,-0.047,0.006,0.01,-0.043,-0.072,-0.059,-0.071,-0.069
-0.035,-0.036,-0.002,0.035,-0.016,-0.019,0.01,-0.019,-0.07,-0.063,-0.066,-0.072
-0.001,-0.036,-0.035,0.019,0.018,-0.035,0.006,-0.019,-0.069,-0.065,-0.064,-0.076
0.032,-0.006,-0.038,-0.013,0.035,-0.022,-0.001,-0.022,-0.072,-0.066,-0.06,-0.074
0.048,0.018,-0.029,-0.033,0.038,-0.005,-0.005,-0.024,-0.067,-0.071,-0.055,-0.076
0.021,0.014,-0.007,-0.018,0.014,0.004,-0.013,-0.04,-0.078,-0.069,-0.058,-0.074
0.002,-0.011,-0.013,0.005,0.008,-0.012,-0.013,-0.082,-0.106,-0.078,-0.071,-0.077
-0.071,-0.028,0.043,0.049,-0.057,0.008,-0.011,-0.086,-0.104,-0.076,-0.069,-0.079
-0.133,-0.057,0.076,0.095,-0.104,0.009,-0.009,-0.086,-0.106,-0.075,-0.071,-0.086
-0.12,-0.063,0.057,0.091,-0.088,-0.003,-0.011,-0.082,-0.105,-0.075,-0.072,-0.09
-0.117,-0.056,0.061,0.086,-0.089,0.003,-0.01,-0.089,-0.112,-0.074,-0.076,-0.092
-0.112,-0.066,0.047,0.089,-0.079,-0.009,-0.009,-0.08,-0.109,-0.078,-0.083,-0.101
-0.105,-0.052,0.053,0.079,-0.079,0.001,-0.012,-0.09,-0.11,-0.07,-0.079,-0.094
-0.109,-0.071,0.038,0.09,-0.074,-0.016,-0.007,-0.081,-0.113,-0.094,-0.097,-0.112
-0.136,-0.062,0.074,0.099,-0.105,0.006,-0.012,-0.073,-0.102,-0.08,-0.077,-0.093
-0.166,-0.134,0.032,0.149,-0.099,-0.05,0.133,0.056,-0.101,-0.123,-0.147,-0.172
-0.101,-0.05,0.051,0.075,-0.076,0.0,0.162,0.216,0.078,-0.001,-0.063,-0.135
0.362,0.486,0.124,-0.424,0.118,0.305,-0.389,-0.317,0.385,0.511,0.477,0.38
0.953,1.108,0.154,-1.031,0.4,0.631,-1.066,-1.004,0.573,0.958,1.08,1.016
0.763,1.206,0.443,-0.985,0.159,0.824,-1.244,-1.449,-0.021,0.647,0.971,1.066
0.138,0.526,0.387,-0.332,-0.125,0.456,-0.869,-1.37,-0.695,-0.124,0.189,0.378
-0.077,0.076,0.153,0.001,-0.115,0.114,-0.385,-0.634,-0.414,-0.252,-0.122,-0.042
-0.077,0.07,0.147,0.003,-0.113,0.109,-0.15,-0.241,-0.146,-0.105,-0.049,-0.042
-0.075,0.0,0.075,0.037,-0.075,0.037,-0.053,-0.088,-0.093,-0.096,-0.064,-0.074
-0.062,0.001,0.063,0.03,-0.063,0.032,-0.014,-0.004,-0.044,-0.051,-0.05,-0.065
-0.038,-0.009,0.029,0.023,-0.033,0.01,0.001,0.012,-0.054,-0.061,-0.064,-0.069
-0.044,-0.02,0.025,0.032,-0.034,0.003,0.019,0.048,-0.021,-0.044,-0.06,-0.06
-0.067,-0.016,0.05,0.041,-0.058,0.017,0.027,0.02,-0.028,-0.043,-0.066,-0.057
-0.073,-0.034,0.039,0.053,-0.055,0.002,0.022,0.046,-0.015,-0.032,-0.063,-0.054
-0.077,-0.044,0.033,0.06,-0.054,-0.006,0.013,0.064,-0.018,-0.035,-0.056,-0.047
-0.052,-0.029,0.023,0.04,-0.038,-0.002,0.033,0.076,-0.014,-0.048,-0.055,-0.046
-0.052,-0.025,0.028,0.039,-0.04,0.001,0.051,0.076,0.003,-0.032,-0.049,-0.039
-0.016,-0.02,-0.004,0.018,-0.006,-0.012,0.051,0.109,0.018,-0.023,-0.04,-0.039
0.002,-0.006,-0.008,0.002,0.005,-0.007,0.048,0.142,0.051,-0.013,-0.024,-0.033
-0.014,0.001,0.015,0.006,-0.015,0.008,0.059,0.155,0.073,0.007,-0.012,-0.03
-0.001,0.023,0.024,-0.011,-0.013,0.023,0.08,0.195,0.089,0.031,0.008,-0.024
-0.002,0.037,0.039,-0.018,-0.021,0.038,0.084,0.228,0.124,0.045,0.031,-0.009
0.029,0.062,0.034,-0.046,-0.003,0.048,0.083,0.286,0.171,0.078,0.055,0.017
0.086,0.089,0.003,-0.087,0.042,0.045,0.077,0.329,0.217,0.115,0.083,0.042
0.12,0.13,0.01,-0.125,0.054,0.07,0.071,0.38,0.269,0.154,0.127,0.075
0.136,0.171,0.035,-0.154,0.05,0.103,0.066,0.434,0.333,0.21,0.176,0.122
0.169,0.211,0.042,-0.19,0.063,0.126,0.06,0.456,0.38,0.26,0.226,0.168
0.217,0.264,0.047,-0.241,0.085,0.155,0.055,0.463,0.399,0.291,0.27,0.212
0.229,0.272,0.044,-0.251,0.092,0.158,0.051,0.428,0.398,0.294,0.279,0.221
0.219,0.264,0.045,-0.242,0.087,0.154,0.05,0.378,0.367,0.286,0.274,0.22
0.186,0.241,0.055,-0.214,0.065,0.148,0.051,0.311,0.314,0.264,0.259,0.217
0.126,0.19,0.064,-0.158,0.031,0.126,0.049,0.242,0.246,0.209,0.209,0.172
0.087,0.139,0.053,-0.113,0.017,0.096,0.05,0.176,0.174,0.151,0.145,0.12
0.047,0.095,0.048,-0.071,0.0,0.071,0.048,0.113,0.109,0.104,0.088,0.064
0.015,0.054,0.039,-0.035,-0.012,0.046,0.039,0.079,0.059,0.051,0.046,0.002
-0.014,0.018,0.032,-0.002,-0.023,0.024,0.055,0.058,0.022,0.01,0.022,-0.028
-0.059,-0.016,0.042,0.037,-0.05,0.013,0.07,0.025,-0.004,-0.003,0.003,-0.039
-0.069,-0.037,0.032,0.053,-0.05,-0.003,0.064,-0.01,-0.016,-0.012,-0.013,-0.056
-0.069,-0.034,0.035,0.051,-0.051,0.001,0.056,-0.019,-0.039,-0.033,-0.028,-0.062
-0.096,-0.06,0.036,0.078,-0.066,-0.012,0.056,-0.02,-0.055,-0.046,-0.034,-0.058
-0.074,-0.055,0.018,0.064,-0.046,-0.018,0.039,-0.027,-0.058,-0.053,-0.041,-0.064
-0.065,-0.049,0.016,0.057,-0.04,-0.017,0.035,-0.035,-0.071,-0.053,-0.05,-0.071
-0.096,-0.076,0.02,0.086,-0.058,-0.028,0.061,-0.032,-0.067,-0.046,-0.047,-0.07
-0.071,-0.043,0.029,0.057,-0.05,-0.007,0.049,-0.026,-0.061,-0.041,-0.04,-0.07
-0.064,-0.027,0.037,0.045,-0.05,0.005,0.036,-0.021,-0.056,-0.035,-0.035,-0.07
-0.077,-0.031,0.046,0.053,-0.061,0.007,0.036,-0.015,-0.049,-0.03,-0.029,-0.069
-0.059,-0.017,0.043,0.038,-0.051,0.013,0.031,-0.01,-0.046,-0.026,-0.026,-0.063
-0.058,-0.018,0.039,0.038,-0.048,0.01,0.03,-0.006,-0.04,-0.025,-0.023,-0.057
-0.045,-0.008,0.037,0.026,-0.041,0.014,0.025,-0.003,-0.036,-0.026,-0.02,-0.051
-0.025,0.01,0.035,0.007,-0.03,0.022,0.025,0.0,-0.03,-0.022,-0.018,-0.046
-0.052,-0.021,0.031,0.036,-0.041,0.005,0.02,0.002,-0.028,-0.02,-0.014,-0.045
-0.06,-0.029,0.031,0.044,-0.045,0.001,0.02,0.005,-0.019,-0.02,-0.01,-0.045
-0.037,-0.011,0.026,0.024,-0.032,0.007,0.02,0.003,-0.025,-0.016,-0.007,-0.045
-0.035,-0.009,0.026,0.021,-0.03,0.008,0.02,-0.004,-0.045,-0.015,-0.002,-0.045
-0.029,-0.009,0.02,0.019,-0.024,0.006,0.02,-0.011,-0.045,-0.015,0.0,-0.045
-0.016,-0.034,-0.018,0.025,0.002,-0.026,0.017,-0.017,-0.045,-0.022,-0.007,-0.046
-0.022,-0.04,-0.018,0.032,-0.002,-0.029,0.015,-0.024,-0.055,-0.032,-0.016,-0.052
-0.039,-0.04,0.0,0.039,-0.02,-0.02,0.012,-0.03,-0.065,-0.037,-0.025,-0.059
-0.056,-0.041,0.016,0.048,-0.036,-0.012,0.009,-0.037,-0.073,-0.04,-0.033,-0.063
-0.064,-0.039,0.026,0.051,-0.045,-0.006,0.006,-0.047,-0.079,-0.046,-0.042,-0.066
-0.049,-0.042,0.007,0.046,-0.028,-0.017,0.005,-0.051,-0.08,-0.052,-0.05,-0.064
-0.052,-0.034,0.018,0.043,-0.035,-0.008,0.005,-0.05,-0.08,-0.058,-0.049,-0.067
-0.091,-0.054,0.038,0.072,-0.064,-0.008,0.005,-0.05,-0.085,-0.06,-0.051,-0.07
-0.094,-0.071,0.023,0.083,-0.058,-0.024,0.005,-0.05,-0.085,-0.06,-0.055,-0.07
-0.071,-0.061,0.01,0.066,-0.04,-0.025,0.005,-0.051,-0.086,-0.064,-0.055,-0.075
-0.063,-0.058,0.004,0.06,-0.033,-0.027,0.005,-0.054,-0.09,-0.065,-0.057,-0.075
-0.051,-0.051,0.0,0.051,-0.025,-0.025,0.003,-0.056,-0.089,-0.065,-0.06,-0.078
-0.065,-0.046,0.019,0.055,-0.042,-0.013,-0.001,-0.061,-0.092,-0.07,-0.06,-0.08
-0.068,-0.049,0.02,0.058,-0.044,-0.014,0.0,-0.057,-0.095,-0.07,-0.06,-0.08
-0.058,-0.05,0.008,0.054,-0.033,-0.021,0.0,-0.054,-0.095,-0.071,-0.06,-0.085
-0.056,-0.055,0.001,0.056,-0.028,-0.027,0.0,-0.055,-0.095,-0.075,-0.06,-0.085
-0.043,-0.054,-0.01,0.049,-0.016,-0.032,-0.001,-0.054,-0.095,-0.075,-0.067,-0.086
-0.05,-0.047,0.003,0.048,-0.026,-0.021,-0.004,-0.056,-0.095,-0.075,-0.075,-0.09
-0.052,-0.037,0.015,0.044,-0.033,-0.011,-0.005,-0.053,-0.095,-0.075,-0.075,-0.089
-0.051,-0.049,0.002,0.05,-0.027,-0.023,-0.005,-0.062,-0.095,-0.075,-0.075,-0.092
-0.065,-0.079,-0.013,0.072,-0.026,-0.046,-0.005,-0.068,-0.094,-0.075,-0.075,-0.095
-0.086,-0.08,0.006,0.083,-0.046,-0.037,-0.006,-0.057,-0.088,-0.075,-0.075,-0.095
-0.098,-0.075,0.023,0.086,-0.06,-0.026,0.004,-0.05,-0.083,-0.075,-0.075,-0.092
-0.078,-0.075,0.003,0.077,-0.04,-0.035,0.012,-0.042,-0.077,-0.07,-0.071,-0.086
-0.038,-0.069,-0.031,0.054,-0.003,-0.049,0.007,-0.032,-0.071,-0.07,-0.07,-0.081
-0.013,-0.07,-0.057,0.042,0.022,-0.063,0.004,-0.014,-0.066,-0.069,-0.069,-0.078
0.01,-0.045,-0.055,0.018,0.033,-0.049,0.017,0.01,-0.062,-0.065,-0.065,-0.072
0.018,-0.035,-0.054,0.009,0.036,-0.044,0.027,0.012,-0.057,-0.064,-0.064,-0.071
-0.011,-0.061,-0.05,0.036,0.019,-0.056,0.019,-0.005,-0.059,-0.068,-0.068,-0.076
-0.009,-0.059,-0.05,0.034,0.02,-0.054,0.009,-0.052,-0.088,-0.069,-0.069,-0.077
-0.022,-0.061,-0.04,0.042,0.009,-0.05,0.001,-0.078,-0.106,-0.075,-0.073,-0.084
-0.041,-0.057,-0.016,0.049,-0.012,-0.036,-0.011,-0.073,-0.103,-0.074,-0.073,-0.084
-0.038,-0.055,-0.017,0.047,-0.01,-0.036,-0.018,-0.077,-0.107,-0.077,-0.077,-0.095
-0.07,-0.055,0.015,0.062,-0.042,-0.02,-0.021,-0.071,-0.102,-0.073,-0.072,-0.096
-0.067,-0.054,0.013,0.06,-0.04,-0.02,-0.024,-0.08,-0.109,-0.076,-0.077,-0.102
-0.053,-0.068,-0.016,0.061,-0.018,-0.042,-0.026,-0.069,-0.102,-0.075,-0.074,-0.104
-0.073,-0.073,0.0,0.073,-0.036,-0.037,-0.032,-0.088,-0.126,-0.072,-0.074,-0.104
-0.072,-0.079,-0.007,0.076,-0.032,-0.043,-0.024,-0.073,-0.106,-0.083,-0.079,-0.115
-0.079,-0.092,-0.013,0.086,-0.033,-0.052,0.009,-0.06,-0.093,-0.078,-0.075,-0.101
-0.138,-0.178,-0.04,0.158,-0.049,-0.108,0.179,0.125,-0.068,-0.108,-0.163,-0.205
-0.023,0.016,0.039,0.003,-0.031,0.028,0.104,0.185,0.165,0.116,0.036,-0.06
0.566,0.615,0.05,-0.591,0.258,0.332,-0.562,-0.42,0.495,0.677,0.663,0.548
1.027,1.189,0.162,-1.108,0.433,0.675,-1.155,-1.024,0.563,1.025,1.185,1.132
0.62,1.064,0.444,-0.842,0.088,0.753,-1.159,-1.44,-0.23,0.5,0.828,0.946
0.041,0.311,0.269,-0.176,-0.114,0.29,-0.704,-1.181,-0.711,-0.236,0.018,0.168
-0.072,0.015,0.087,0.028,-0.08,0.051,-0.294,-0.481,-0.318,-0.224,-0.125,-0.102
-0.064,0.02,0.083,0.022,-0.073,0.051,-0.136,-0.213,-0.147,-0.1,-0.055,-0.065
-0.05,-0.05,0.0,0.05,-0.024,-0.025,-0.037,-0.048,-0.066,-0.085,-0.076,-0.092
-0.04,-0.06,-0.02,0.05,-0.01,-0.039,-0.018,-0.014,-0.036,-0.05,-0.053,-0.086
-0.061,-0.076,-0.015,0.068,-0.023,-0.045,-0.014,-0.009,-0.039,-0.063,-0.066,-0.101
-0.043,-0.061,-0.017,0.052,-0.012,-0.039,0.017,0.019,-0.017,-0.046,-0.051,-0.087
-0.02,-0.064,-0.044,0.042,0.012,-0.053,0.043,0.022,-0.023,-0.05,-0.057,-0.09
-0.01,-0.058,-0.048,0.034,0.019,-0.053,0.047,0.058,-0.003,-0.041,-0.05,-0.083
-0.032,-0.054,-0.022,0.043,-0.005,-0.037,0.043,0.065,-0.01,-0.036,-0.048,-0.08
-0.013,-0.052,-0.039,0.033,0.013,-0.045,0.046,0.075,0.005,-0.03,-0.046,-0.077
0.005,-0.046,-0.051,0.021,0.028,-0.048,0.044,0.092,0.019,-0.022,-0.041,-0.069
-0.008,-0.045,-0.037,0.026,0.015,-0.041,0.046,0.111,0.044,-0.013,-0.041,-0.065
0.014,-0.039,-0.053,0.012,0.034,-0.046,0.045,0.126,0.058,-0.001,-0.036,-0.057
0.009,-0.037,-0.046,0.014,0.028,-0.041,0.046,0.159,0.082,0.011,-0.019,-0.055
0.013,-0.024,-0.036,0.006,0.025,-0.03,0.044,0.189,0.117,0.033,0.003,-0.038
0.012,-0.016,-0.028,0.002,0.02,-0.021,0.055,0.225,0.147,0.058,0.018,-0.014
0.038,-0.003,-0.042,-0.017,0.04,-0.022,0.06,0.278,0.201,0.098,0.052,0.014
0.098,0.037,-0.061,-0.067,0.08,-0.012,0.065,0.332,0.252,0.135,0.088,0.041
0.128,0.083,-0.045,-0.105,0.086,0.019,0.073,0.385,0.308,0.179,0.127,0.074
0.173,0.133,-0.04,-0.152,0.106,0.046,0.053,0.422,0.367,0.233,0.179,0.123
0.194,0.173,-0.021,-0.184,0.107,0.076,0.036,0.416,0.402,0.276,0.227,0.166
0.222,0.205,-0.016,-0.213,0.119,0.094,0.027,0.403,0.398,0.298,0.254,0.197
0.249,0.226,-0.022,-0.237,0.135,0.102,0.014,0.394,0.381,0.299,0.261,0.203
0.214,0.207,-0.007,-0.21,0.11,0.1,0.017,0.344,0.362,0.283,0.257,0.188
0.164,0.171,0.007,-0.168,0.078,0.089,0.012,0.274,0.308,0.238,0.217,0.173
0.108,0.131,0.023,-0.119,0.042,0.076,0.02,0.224,0.24,0.184,0.164,0.128
0.073,0.081,0.008,-0.077,0.032,0.044,0.042,0.167,0.175,0.136,0.116,0.073
0.055,0.038,-0.017,-0.046,0.035,0.011,0.047,0.107,0.119,0.095,0.064,0.028
0.007,-0.017,-0.024,0.005,0.015,-0.02,0.067,0.078,0.072,0.055,0.022,-0.018
-0.03,-0.061,-0.032,0.046,0.001,-0.046,0.069,0.05,0.03,0.016,-0.015,-0.044
-0.039,-0.074,-0.035,0.057,-0.002,-0.054,0.06,0.023,0.008,-0.006,-0.043,-0.063
-0.044,-0.102,-0.058,0.073,0.007,-0.08,0.059,0.016,-0.005,-0.017,-0.054,-0.086
-0.05,-0.112,-0.062,0.081,0.006,-0.086,0.051,0.01,-0.032,-0.029,-0.055,-0.085
-0.066,-0.103,-0.037,0.085,-0.014,-0.07,0.049,0.004,-0.052,-0.04,-0.055,-0.08
-0.056,-0.103,-0.047,0.08,-0.004,-0.074,0.045,-0.002,-0.049,-0.045,-0.055,-0.08
-0.025,-0.097,-0.072,0.062,0.024,-0.084,0.043,-0.007,-0.046,-0.049,-0.055,-0.073
-0.016,-0.093,-0.077,0.055,0.031,-0.085,0.039,-0.014,-0.043,-0.048,-0.054,-0.079
-0.057,-0.102,-0.044,0.08,-0.006,-0.073,0.037,-0.013,-0.04,-0.044,-0.049,-0.086
-0.071,-0.11,-0.039,0.091,-0.016,-0.074,0.034,-0.007,-0.039,-0.045,-0.043,-0.08
-0.056,-0.104,-0.048,0.081,-0.004,-0.076,0.035,0.0,-0.034,-0.045,-0.04,-0.075
-0.069,-0.1,-0.031,0.085,-0.019,-0.065,0.052,0.004,-0.031,-0.045,-0.035,-0.07
-0.035,-0.096,-0.061,0.065,0.014,-0.078,0.051,0.012,-0.026,-0.045,-0.03,-0.063
-0.046,-0.091,-0.045,0.069,-0.001,-0.068,0.041,0.029,-0.022,-0.04,-0.035,-0.062
-0.065,-0.088,-0.023,0.076,-0.021,-0.055,0.037,0.027,-0.016,-0.04,-0.036,-0.065
-0.012,-0.084,-0.072,0.048,0.031,-0.078,0.028,0.02,-0.014,-0.039,-0.035,-0.066
-0.042,-0.081,-0.039,0.061,-0.001,-0.06,0.026,0.019,-0.005,-0.035,-0.035,-0.064
-0.062,-0.076,-0.014,0.069,-0.024,-0.045,0.03,0.01,-0.009,-0.035,-0.036,-0.066
-0.01,-0.075,-0.065,0.042,0.028,-0.07,0.033,0.015,-0.023,-0.037,-0.034,-0.063
-0.022,-0.084,-0.062,0.053,0.02,-0.072,0.037,0.024,-0.031,-0.041,-0.043,-0.068
-0.028,-0.087,-0.059,0.058,0.015,-0.073,0.04,0.018,-0.049,-0.032,-0.061,-0.084
-0.042,-0.096,-0.053,0.069,0.005,-0.074,0.036,0.007,-0.052,-0.033,-0.067,-0.086
-0.049,-0.106,-0.057,0.078,0.005,-0.081,0.035,-0.009,-0.043,-0.061,-0.072,-0.084
-0.031,-0.102,-0.071,0.067,0.02,-0.086,0.035,-0.008,-0.05,-0.067,-0.076,-0.088
-0.046,-0.1,-0.054,0.073,0.004,-0.077,0.03,0.004,-0.068,-0.063,-0.074,-0.089
-0.037,-0.093,-0.057,0.065,0.011,-0.075,0.03,0.001,-0.072,-0.067,-0.079,-0.091
-0.052,-0.107,-0.054,0.08,0.001,-0.08,0.029,-0.006,-0.068,-0.063,-0.08,-0.094
-0.045,-0.112,-0.067,0.079,0.011,-0.089,0.024,-0.013,-0.072,-0.067,-0.08,-0.098
-0.042,-0.1,-0.058,0.071,0.009,-0.079,0.019,-0.019,-0.068,-0.083,-0.095,-0.1
-0.047,-0.089,-0.042,0.068,-0.002,-0.065,0.014,-0.026,-0.073,-0.086,-0.102,-0.101
-0.049,-0.084,-0.035,0.067,-0.007,-0.06,0.011,-0.032,-0.093,-0.084,-0.099,-0.099
-0.061,-0.107,-0.047,0.084,-0.007,-0.077,0.004,-0.035,-0.093,-0.086,-0.101,-0.103
-0.074,-0.106,-0.032,0.091,-0.021,-0.069,0.017,-0.038,-0.085,-0.083,-0.099,-0.111
-0.098,-0.099,-0.001,0.098,-0.048,-0.049,0.027,-0.04,-0.084,-0.089,-0.102,-0.11
-0.072,-0.095,-0.023,0.084,-0.024,-0.059,0.019,-0.04,-0.075,-0.096,-0.115,-0.105
-0.086,-0.087,-0.001,0.087,-0.042,-0.044,0.015,-0.039,-0.082,-0.095,-0.113,-0.104
-0.124,-0.085,0.039,0.104,-0.081,-0.023,0.01,-0.041,-0.096,-0.094,-0.109,-0.099
-0.079,-0.078,0.0,0.078,-0.039,-0.039,0.003,-0.038,-0.09,-0.091,-0.106,-0.1
-0.043,-0.081,-0.038,0.063,-0.003,-0.059,0.001,-0.046,-0.084,-0.089,-0.1,-0.113
-0.076,-0.076,0.0,0.076,-0.038,-0.038,0.009,-0.054,-0.083,-0.092,-0.101,-0.114
-0.08,-0.075,0.005,0.077,-0.042,-0.035,0.01,-0.045,-0.074,-0.105,-0.111,-0.108
-0.1,-0.075,0.025,0.087,-0.062,-0.025,0.011,-0.036,-0.083,-0.104,-0.118,-0.107
-0.087,-0.075,0.012,0.081,-0.049,-0.031,0.009,-0.029,-0.106,-0.1,-0.118,-0.1
-0.041,-0.088,-0.047,0.065,0.003,-0.067,0.016,-0.022,-0.098,-0.097,-0.113,-0.102
-0.047,-0.086,-0.039,0.067,-0.003,-0.062,0.025,-0.012,-0.087,-0.095,-0.107,-0.106
-0.015,-0.081,-0.066,0.048,0.026,-0.073,0.017,-0.004,-0.086,-0.101,-0.105,-0.105
-0.008,-0.049,-0.041,0.029,0.017,-0.045,0.011,0.01,-0.084,-0.099,-0.097,-0.1
-0.024,-0.029,-0.005,0.027,-0.009,-0.017,0.004,0.006,-0.087,-0.103,-0.096,-0.099
-0.019,-0.048,-0.029,0.034,0.005,-0.038,-0.001,-0.021,-0.082,-0.105,-0.1,-0.095
-0.022,-0.06,-0.038,0.042,0.008,-0.049,-0.017,-0.049,-0.097,-0.105,-0.102,-0.095
-0.064,-0.068,-0.004,0.066,-0.029,-0.036,-0.024,-0.054,-0.114,-0.101,-0.114,-0.105
-0.117,-0.061,0.055,0.089,-0.086,-0.003,-0.016,-0.056,-0.118,-0.101,-0.117,-0.107
-0.082,-0.064,0.017,0.073,-0.049,-0.023,-0.009,-0.066,-0.122,-0.121,-0.128,-0.127
-0.055,-0.055,0.0,0.055,-0.028,-0.027,-0.003,-0.067,-0.117,-0.118,-0.122,-0.13
-0.086,-0.071,0.016,0.079,-0.051,-0.027,0.005,-0.063,-0.125,-0.122,-0.127,-0.128
-0.106,-0.084,0.022,0.095,-0.063,-0.031,0.001,-0.051,-0.113,-0.12,-0.124,-0.123
-0.119,-0.086,0.033,0.102,-0.076,-0.026,-0.003,-0.059,-0.128,-0.126,-0.125,-0.121
-0.124,-0.085,0.039,0.104,-0.081,-0.023,-0.002,-0.033,-0.11,-0.126,-0.13,-0.12
-0.163,-0.094,0.069,0.128,-0.116,-0.012,0.051,-0.02,-0.117,-0.128,-0.143,-0.142
-0.185,-0.166,0.019,0.175,-0.102,-0.073,0.212,0.198,-0.054,-0.138,-0.21,-0.229
0.035,0.119,0.084,-0.077,-0.025,0.101,-0.002,0.077,0.198,0.17,0.09,0.023
0.64,0.77,0.13,-0.705,0.255,0.449,-0.719,-0.641,0.523,0.753,0.758,0.674
0.957,1.25,0.293,-1.104,0.332,0.771,-1.231,-1.185,0.451,0.949,1.138,1.154
0.456,0.93,0.474,-0.693,-0.009,0.701,-1.136,-1.482,-0.402,0.276,0.623,0.806
-0.027,0.206,0.233,-0.09,-0.13,0.22,-0.622,-1.038,-0.669,-0.316,-0.092,0.076
-0.088,0.039,0.127,0.025,-0.108,0.083,-0.229,-0.362,-0.245,-0.201,-0.137,-0.095
-0.099,0.014,0.113,0.042,-0.106,0.063,-0.082,-0.143,-0.123,-0.112,-0.087,-0.069
-0.103,-0.05,0.053,0.076,-0.078,0.001,-0.008,-0.01,-0.058,-0.102,-0.097,-0.093
-0.094,-0.044,0.05,0.069,-0.072,0.003,0.01,0.011,-0.052,-0.088,-0.079,-0.083
-0.09,-0.061,0.029,0.075,-0.059,-0.016,0.031,0.042,-0.043,-0.095,-0.091,-0.096
-0.082,-0.05,0.032,0.066,-0.057,-0.009,0.042,0.056,-0.026,-0.08,-0.075,-0.085
-0.101,-0.069,0.032,0.085,-0.067,-0.018,0.04,0.073,-0.029,-0.085,-0.083,-0.087
-0.084,-0.032,0.052,0.058,-0.068,0.01,0.048,0.098,-0.01,-0.073,-0.072,-0.084
-0.081,-0.044,0.036,0.062,-0.059,-0.004,0.051,0.095,-0.012,-0.069,-0.068,-0.083
-0.092,-0.064,0.028,0.078,-0.06,-0.018,0.049,0.102,0.002,-0.06,-0.061,-0.078
-0.053,-0.037,0.015,0.045,-0.034,-0.011,0.066,0.123,0.01,-0.053,-0.053,-0.072
-0.064,-0.042,0.022,0.053,-0.043,-0.01,0.091,0.159,0.032,-0.033,-0.049,-0.07
-0.05,-0.014,0.036,0.032,-0.043,0.011,0.09,0.169,0.056,-0.012,-0.04,-0.062
-0.028,-0.003,0.025,0.015,-0.026,0.011,0.091,0.192,0.075,-0.001,-0.038,-0.061
-0.021,0.003,0.024,0.009,-0.023,0.013,0.096,0.234,0.113,0.018,-0.015,-0.048
-0.005,0.006,0.011,-0.001,-0.008,0.008,0.094,0.277,0.149,0.038,0.007,-0.029
0.013,0.054,0.041,-0.034,-0.014,0.047,0.099,0.328,0.196,0.073,0.03,-0.007
0.062,0.099,0.037,-0.08,0.012,0.067,0.101,0.382,0.252,0.118,0.076,0.028
0.072,0.108,0.035,-0.09,0.018,0.071,0.085,0.436,0.307,0.162,0.116,0.072
0.088,0.161,0.072,-0.124,0.008,0.116,0.07,0.478,0.368,0.21,0.169,0.122
0.149,0.22,0.07,-0.184,0.039,0.145,0.08,0.474,0.4,0.251,0.217,0.163
0.195,0.263,0.067,-0.229,0.064,0.165,0.079,0.461,0.419,0.287,0.249,0.202
0.174,0.25,0.076,-0.212,0.048,0.163,0.049,0.429,0.399,0.28,0.255,0.208
0.162,0.248,0.086,-0.205,0.037,0.167,0.028,0.367,0.349,0.247,0.233,0.193
0.141,0.22,0.079,-0.181,0.03,0.15,0.032,0.307,0.298,0.221,0.205,0.177
0.081,0.156,0.075,-0.119,0.002,0.116,0.054,0.238,0.224,0.159,0.148,0.128
0.043,0.11,0.067,-0.076,-0.012,0.088,0.062,0.174,0.152,0.097,0.088,0.069
-0.006,0.051,0.057,-0.022,-0.032,0.054,0.059,0.124,0.09,0.049,0.036,0.021
-0.04,0.015,0.055,0.012,-0.048,0.035,0.067,0.086,0.044,0.014,0.0,-0.015
-0.08,-0.014,0.066,0.047,-0.073,0.026,0.062,0.063,0.008,-0.022,-0.028,-0.045
-0.093,-0.044,0.049,0.068,-0.07,0.003,0.057,0.05,-0.024,-0.053,-0.057,-0.067
-0.097,-0.068,0.029,0.082,-0.062,-0.019,0.054,0.036,-0.045,-0.053,-0.067,-0.078
-0.119,-0.073,0.046,0.096,-0.083,-0.013,0.049,0.018,-0.055,-0.064,-0.071,-0.085
-0.09,-0.067,0.024,0.078,-0.057,-0.021,0.044,0.009,-0.063,-0.072,-0.069,-0.085
-0.077,-0.063,0.014,0.07,-0.045,-0.024,0.04,0.01,-0.069,-0.069,-0.071,-0.082
-0.061,-0.058,0.002,0.059,-0.031,-0.028,0.04,0.009,-0.067,-0.07,-0.076,-0.078
-0.058,-0.054,0.004,0.056,-0.03,-0.025,0.04,0.004,-0.062,-0.07,-0.071,-0.072
-0.089,-0.048,0.04,0.068,-0.065,-0.004,0.04,0.005,-0.059,-0.07,-0.067,-0.069
-0.121,-0.066,0.055,0.093,-0.088,-0.005,0.039,0.007,-0.056,-0.067,-0.062,-0.063
-0.135,-0.075,0.06,0.105,-0.097,-0.007,0.046,0.017,-0.051,-0.064,-0.058,-0.06
-0.12,-0.066,0.054,0.092,-0.087,-0.006,0.051,0.022,-0.049,-0.061,-0.053,-0.066
-0.112,-0.062,0.05,0.087,-0.081,-0.006,0.049,0.021,-0.045,-0.058,-0.05,-0.065
-0.103,-0.056,0.048,0.079,-0.075,-0.004,0.05,0.037,-0.04,-0.055,-0.05,-0.065
-0.097,-0.055,0.042,0.075,-0.069,-0.006,0.05,0.041,-0.039,-0.056,-0.047,-0.063
-0.093,-0.056,0.037,0.074,-0.065,-0.009,0.05,0.039,-0.032,-0.061,-0.045,-0.059
-0.082,-0.054,0.028,0.068,-0.055,-0.013,0.048,0.041,-0.032,-0.06,-0.045,-0.06
-0.078,-0.056,0.022,0.067,-0.05,-0.017,0.044,0.039,-0.023,-0.06,-0.049,-0.063
-0.102,-0.053,0.049,0.078,-0.075,-0.002,0.045,0.039,-0.023,-0.06,-0.049,-0.066
-0.112,-0.05,0.061,0.081,-0.087,0.005,0.045,0.03,-0.047,-0.063,-0.053,-0.069
-0.101,-0.05,0.051,0.075,-0.076,0.0,0.045,0.019,-0.057,-0.072,-0.068,-0.072
-0.098,-0.047,0.051,0.073,-0.074,0.001,0.045,0.011,-0.061,-0.073,-0.073,-0.074
-0.088,-0.045,0.043,0.066,-0.065,-0.001,0.045,-0.001,-0.07,-0.086,-0.076,-0.08
-0.079,-0.043,0.036,0.061,-0.057,-0.003,0.045,-0.001,-0.08,-0.101,-0.081,-0.085
-0.112,-0.07,0.042,0.091,-0.077,-0.014,0.045,-0.008,-0.079,-0.095,-0.076,-0.087
-0.121,-0.082,0.039,0.102,-0.08,-0.022,0.045,-0.026,-0.074,-0.09,-0.075,-0.09
-0.126,-0.079,0.047,0.102,-0.086,-0.015,0.045,-0.024,-0.074,-0.088,-0.075,-0.086
-0.129,-0.084,0.045,0.106,-0.086,-0.02,0.043,-0.019,-0.068,-0.079,-0.075,-0.084
-0.085,-0.084,0.001,0.085,-0.042,-0.042,0.039,-0.019,-0.077,-0.087,-0.075,-0.081
-0.095,-0.087,0.008,0.091,-0.051,-0.039,0.034,-0.012,-0.085,-0.095,-0.076,-0.079
-0.089,-0.064,0.025,0.076,-0.057,-0.02,0.032,-0.023,-0.087,-0.099,-0.082,-0.074
-0.083,-0.077,0.007,0.08,-0.045,-0.034,0.026,-0.041,-0.103,-0.117,-0.089,-0.078
-0.103,-0.103,0.001,0.103,-0.052,-0.051,0.027,-0.04,-0.106,-0.121,-0.09,-0.09
-0.132,-0.09,0.042,0.111,-0.087,-0.024,0.04,-0.04,-0.101,-0.119,-0.09,-0.09
-0.129,-0.086,0.042,0.107,-0.085,-0.022,0.04,-0.04,-0.1,-0.117,-0.095,-0.09
-0.097,-0.083,0.015,0.09,-0.056,-0.034,0.036,-0.04,-0.095,-0.114,-0.095,-0.09
-0.101,-0.074,0.027,0.087,-0.064,-0.023,0.033,-0.04,-0.095,-0.115,-0.096,-0.089
-0.102,-0.085,0.017,0.093,-0.059,-0.033,0.03,-0.035,-0.095,-0.11,-0.1,-0.093
-0.119,-0.105,0.014,0.112,-0.067,-0.045,0.028,-0.035,-0.095,-0.11,-0.102,-0.097
-0.102,-0.098,0.004,0.1,-0.053,-0.047,0.025,-0.035,-0.095,-0.11,-0.106,-0.102
-0.104,-0.091,0.013,0.097,-0.058,-0.039,0.024,-0.035,-0.095,-0.11,-0.101,-0.104
-0.11,-0.091,0.02,0.101,-0.065,-0.035,0.026,-0.036,-0.096,-0.111,-0.1,-0.101
-0.083,-0.086,-0.002,0.084,-0.04,-0.044,0.024,-0.032,-0.092,-0.107,-0.1,-0.098
-0.094,-0.085,0.009,0.09,-0.051,-0.038,0.025,-0.03,-0.09,-0.105,-0.095,-0.096
-0.111,-0.08,0.03,0.095,-0.071,-0.025,0.034,-0.028,-0.089,-0.102,-0.095,-0.092
-0.079,-0.08,-0.001,0.08,-0.039,-0.041,0.034,-0.025,-0.085,-0.1,-0.094,-0.091
-0.091,-0.092,-0.001,0.092,-0.045,-0.046,0.038,-0.024,-0.085,-0.095,-0.088,-0.088
-0.106,-0.089,0.017,0.098,-0.061,-0.036,0.04,-0.009,-0.085,-0.095,-0.081,-0.084
-0.033,-0.076,-0.043,0.055,0.005,-0.059,0.032,0.014,-0.085,-0.1,-0.074,-0.082
-0.009,-0.069,-0.06,0.039,0.026,-0.065,0.028,0.026,-0.084,-0.099,-0.068,-0.078
-0.021,-0.067,-0.047,0.044,0.013,-0.057,0.021,0.022,-0.086,-0.101,-0.06,-0.077
-0.036,-0.073,-0.036,0.055,0.0,-0.054,0.016,0.001,-0.082,-0.098,-0.063,-0.073
-0.037,-0.066,-0.029,0.052,-0.004,-0.048,0.018,-0.041,-0.098,-0.111,-0.092,-0.086
-0.06,-0.074,-0.014,0.067,-0.023,-0.043,0.03,-0.051,-0.112,-0.128,-0.108,-0.103
-0.105,-0.093,0.012,0.099,-0.058,-0.04,0.032,-0.05,-0.109,-0.122,-0.102,-0.097
-0.108,-0.095,0.013,0.101,-0.061,-0.04,0.031,-0.05,-0.112,-0.128,-0.108,-0.103
-0.092,-0.085,0.007,0.088,-0.049,-0.039,0.024,-0.049,-0.107,-0.121,-0.102,-0.097
-0.067,-0.088,-0.021,0.078,-0.023,-0.054,0.024,-0.052,-0.115,-0.129,-0.109,-0.103
-0.075,-0.078,-0.003,0.077,-0.036,-0.041,0.017,-0.051,-0.106,-0.124,-0.098,-0.101
-0.072,-0.082,-0.01,0.077,-0.031,-0.046,0.015,-0.079,-0.115,-0.134,-0.095,-0.11
-0.091,-0.092,0.0,0.091,-0.045,-0.046,0.027,-0.042,-0.089,-0.133,-0.093,-0.113
-0.143,-0.105,0.038,0.124,-0.09,-0.033,0.075,-0.023,-0.104,-0.135,-0.116,-0.115
-0.177,-0.179,-0.002,0.178,-0.088,-0.09,0.244,0.196,-0.044,-0.148,-0.179,-0.197
0.019,0.094,0.075,-0.057,-0.029,0.085,0.031,0.091,0.218,0.169,0.119,0.052
0.662,0.749,0.087,-0.705,0.287,0.418,-0.692,-0.647,0.527,0.739,0.771,0.701
0.975,1.232,0.257,-1.103,0.358,0.744,-1.203,-1.218,0.435,0.928,1.152,1.168
0.465,0.916,0.451,-0.691,0.006,0.683,-1.11,-1.511,-0.402,0.268,0.628,0.822
-0.048,0.189,0.238,-0.07,-0.143,0.213,-0.599,-1.05,-0.646,-0.287,-0.066,0.112
-0.136,0.007,0.143,0.065,-0.14,0.074,-0.222,-0.359,-0.237,-0.186,-0.106,-0.06
-0.099,-0.013,0.086,0.056,-0.092,0.036,-0.084,-0.138,-0.126,-0.129,-0.069,-0.043
-0.089,-0.073,0.016,0.08,-0.052,-0.029,-0.002,-0.017,-0.056,-0.098,-0.075,-0.065
-0.102,-0.067,0.035,0.084,-0.069,-0.016,0.022,-0.005,-0.044,-0.081,-0.058,-0.055
-0.109,-0.096,0.013,0.102,-0.061,-0.041,0.039,0.043,-0.034,-0.085,-0.068,-0.063
-0.105,-0.087,0.018,0.096,-0.061,-0.034,0.056,0.062,-0.022,-0.067,-0.052,-0.052
-0.088,-0.09,-0.002,0.089,-0.042,-0.046,0.061,0.059,-0.023,-0.07,-0.058,-0.055
-0.075,-0.076,-0.001,0.076,-0.037,-0.038,0.059,0.084,-0.008,-0.056,-0.068,-0.049
-0.087,-0.078,0.009,0.082,-0.048,-0.034,0.06,0.087,-0.009,-0.057,-0.071,-0.048
-0.071,-0.07,0.0,0.071,-0.035,-0.035,0.06,0.103,0.008,-0.046,-0.055,-0.043
-0.087,-0.065,0.022,0.076,-0.055,-0.021,0.061,0.114,0.019,-0.041,-0.047,-0.04
-0.073,-0.055,0.018,0.064,-0.045,-0.018,0.074,0.138,0.036,-0.035,-0.033,-0.037
-0.022,-0.029,-0.007,0.026,-0.007,-0.017,0.083,0.155,0.058,-0.025,-0.022,-0.032
-0.019,-0.054,-0.035,0.037,0.009,-0.044,0.088,0.184,0.089,-0.01,-0.02,-0.029
-0.004,-0.024,-0.02,0.014,0.008,-0.022,0.096,0.222,0.118,0.021,-0.001,-0.015
-0.012,0.001,0.012,0.005,-0.012,0.006,0.103,0.269,0.158,0.052,0.027,0.012
0.004,0.008,0.004,-0.007,0.0,0.006,0.098,0.315,0.197,0.074,0.053,0.038
0.058,0.058,0.001,-0.058,0.028,0.029,0.092,0.361,0.25,0.113,0.087,0.059
0.094,0.085,-0.009,-0.089,0.051,0.038,0.087,0.429,0.321,0.168,0.135,0.101
0.127,0.137,0.01,-0.132,0.058,0.073,0.081,0.46,0.37,0.209,0.181,0.143
0.162,0.199,0.037,-0.181,0.062,0.118,0.075,0.452,0.4,0.25,0.229,0.192
0.185,0.228,0.042,-0.206,0.071,0.135,0.06,0.443,0.4,0.266,0.262,0.229
0.192,0.234,0.042,-0.214,0.075,0.138,0.053,0.411,0.385,0.255,0.267,0.223
0.174,0.227,0.052,-0.201,0.061,0.139,0.055,0.359,0.363,0.243,0.254,0.219
0.155,0.207,0.052,-0.181,0.052,0.129,0.055,0.295,0.312,0.214,0.223,0.205
0.126,0.166,0.039,-0.146,0.044,0.102,0.055,0.225,0.237,0.161,0.164,0.157
0.029,0.084,0.055,-0.057,-0.013,0.069,0.055,0.162,0.164,0.102,0.1,0.103
-0.02,0.022,0.042,-0.002,-0.031,0.032,0.071,0.109,0.101,0.059,0.06,0.052
-0.046,-0.022,0.024,0.033,-0.035,0.001,0.077,0.063,0.053,0.021,0.02,0.006
-0.077,-0.067,0.01,0.072,-0.043,-0.028,0.071,0.033,0.019,-0.013,-0.012,-0.018
-0.065,-0.073,-0.008,0.069,-0.028,-0.041,0.07,0.012,-0.008,-0.036,-0.033,-0.035
-0.078,-0.08,-0.002,0.079,-0.038,-0.041,0.065,-0.003,-0.02,-0.051,-0.049,-0.055
-0.075,-0.092,-0.017,0.084,-0.028,-0.055,0.064,-0.009,-0.03,-0.064,-0.053,-0.061
-0.071,-0.095,-0.024,0.084,-0.023,-0.059,0.061,-0.016,-0.041,-0.071,-0.056,-0.06
-0.078,-0.095,-0.018,0.087,-0.029,-0.056,0.056,-0.024,-0.049,-0.069,-0.054,-0.06
-0.082,-0.095,-0.012,0.089,-0.034,-0.053,0.054,-0.032,-0.057,-0.07,-0.05,-0.06
-0.084,-0.095,-0.011,0.09,-0.036,-0.053,0.049,-0.033,-0.059,-0.07,-0.051,-0.059
-0.095,-0.095,0.001,0.096,-0.047,-0.047,0.045,-0.026,-0.053,-0.07,-0.048,-0.056
-0.121,-0.093,0.028,0.107,-0.074,-0.032,0.047,-0.021,-0.046,-0.066,-0.044,-0.053
-0.104,-0.086,0.018,0.095,-0.061,-0.034,0.051,-0.016,-0.039,-0.059,-0.046,-0.05
-0.077,-0.079,-0.002,0.078,-0.037,-0.04,0.05,-0.01,-0.032,-0.053,-0.041,-0.048
-0.053,-0.073,-0.02,0.063,-0.016,-0.046,0.054,-0.006,-0.026,-0.046,-0.04,-0.044
-0.05,-0.065,-0.015,0.058,-0.017,-0.04,0.056,-0.01,-0.021,-0.039,-0.04,-0.047
-0.055,-0.061,-0.006,0.058,-0.025,-0.033,0.054,-0.01,-0.02,-0.036,-0.036,-0.051
-0.058,-0.067,-0.008,0.063,-0.025,-0.037,0.051,-0.01,-0.021,-0.042,-0.035,-0.049
-0.061,-0.073,-0.012,0.067,-0.024,-0.043,0.046,-0.01,-0.019,-0.045,-0.036,-0.054
-0.027,-0.051,-0.024,0.039,-0.002,-0.037,0.044,-0.013,-0.022,-0.05,-0.043,-0.055
-0.026,-0.038,-0.012,0.032,-0.007,-0.025,0.039,-0.02,-0.034,-0.054,-0.045,-0.055
-0.058,-0.065,-0.007,0.062,-0.026,-0.036,0.036,-0.023,-0.045,-0.055,-0.045,-0.06
-0.071,-0.072,-0.001,0.071,-0.035,-0.036,0.032,-0.032,-0.054,-0.055,-0.045,-0.06
-0.085,-0.089,-0.003,0.087,-0.04,-0.046,0.03,-0.028,-0.061,-0.056,-0.044,-0.064
-0.078,-0.1,-0.022,0.089,-0.027,-0.061,0.03,-0.037,-0.067,-0.07,-0.051,-0.065
-0.054,-0.085,-0.031,0.07,-0.011,-0.058,0.029,-0.045,-0.07,-0.075,-0.063,-0.067
-0.059,-0.102,-0.043,0.081,-0.008,-0.073,0.045,-0.033,-0.072,-0.075,-0.07,-0.071
-0.077,-0.115,-0.038,0.096,-0.019,-0.076,0.048,-0.051,-0.075,-0.075,-0.07,-0.073
-0.074,-0.102,-0.028,0.088,-0.023,-0.064,0.038,-0.061,-0.075,-0.075,-0.07,-0.076
-0.076,-0.099,-0.022,0.088,-0.027,-0.06,0.033,-0.069,-0.075,-0.087,-0.07,-0.079
-0.084,-0.091,-0.006,0.088,-0.039,-0.048,0.025,-0.077,-0.075,-0.091,-0.072,-0.08
-0.066,-0.082,-0.016,0.074,-0.025,-0.049,0.02,-0.07,-0.076,-0.089,-0.076,-0.075
-0.063,-0.096,-0.033,0.079,-0.015,-0.064,0.02,-0.07,-0.074,-0.087,-0.074,-0.075
-0.067,-0.095,-0.028,0.081,-0.02,-0.061,0.02,-0.065,-0.078,-0.084,-0.079,-0.075
-0.086,-0.109,-0.023,0.098,-0.032,-0.065,0.02,-0.065,-0.09,-0.086,-0.08,-0.075
-0.099,-0.125,-0.025,0.112,-0.037,-0.075,0.02,-0.065,-0.09,-0.089,-0.08,-0.075
-0.103,-0.116,-0.013,0.109,-0.045,-0.065,0.02,-0.065,-0.09,-0.092,-0.085,-0.077
-0.091,-0.121,-0.029,0.106,-0.031,-0.075,0.02,-0.064,-0.09,-0.095,-0.085,-0.085
-0.087,-0.12,-0.033,0.104,-0.027,-0.076,0.02,-0.073,-0.09,-0.097,-0.089,-0.09
-0.108,-0.119,-0.012,0.114,-0.048,-0.065,0.02,-0.082,-0.088,-0.101,-0.09,-0.09
-0.081,-0.121,-0.039,0.101,-0.021,-0.08,0.02,-0.079,-0.084,-0.097,-0.092,-0.09
-0.073,-0.119,-0.045,0.096,-0.014,-0.082,0.02,-0.08,-0.082,-0.094,-0.095,-0.09
-0.087,-0.116,-0.029,0.102,-0.029,-0.072,0.021,-0.08,-0.079,-0.095,-0.095,-0.09
-0.072,-0.109,-0.037,0.091,-0.018,-0.073,0.024,-0.08,-0.076,-0.095,-0.095,-0.088
-0.048,-0.105,-0.057,0.077,0.005,-0.081,0.027,-0.076,-0.074,-0.095,-0.095,-0.084
-0.042,-0.103,-0.061,0.072,0.01,-0.082,0.03,-0.067,-0.07,-0.095,-0.095,-0.086
-0.038,-0.094,-0.056,0.066,0.009,-0.075,0.033,-0.06,-0.065,-0.091,-0.091,-0.085
-0.06,-0.111,-0.051,0.086,-0.004,-0.081,0.036,-0.056,-0.06,-0.087,-0.09,-0.086
-0.057,-0.128,-0.072,0.093,0.008,-0.1,0.032,-0.06,-0.057,-0.083,-0.089,-0.084
-0.034,-0.119,-0.084,0.077,0.025,-0.101,0.027,-0.06,-0.05,-0.08,-0.085,-0.081
-0.06,-0.113,-0.053,0.087,-0.004,-0.082,0.021,-0.059,-0.052,-0.075,-0.085,-0.08
-0.048,-0.114,-0.067,0.081,0.01,-0.09,0.015,-0.063,-0.057,-0.078,-0.088,-0.08
-0.031,-0.117,-0.086,0.074,0.028,-0.101,0.01,-0.055,-0.059,-0.088,-0.09,-0.08
-0.049,-0.117,-0.068,0.083,0.009,-0.092,0.005,-0.076,-0.076,-0.095,-0.093,-0.079
-0.06,-0.124,-0.064,0.092,0.002,-0.094,0.006,-0.088,-0.08,-0.098,-0.096,-0.083
-0.055,-0.118,-0.062,0.086,0.004,-0.09,0.004,-0.1,-0.09,-0.105,-0.097,-0.091
-0.087,-0.134,-0.046,0.11,-0.02,-0.09,0.007,-0.119,-0.098,-0.113,-0.103,-0.098
-0.078,-0.111,-0.033,0.094,-0.022,-0.072,0.002,-0.117,-0.092,-0.103,-0.096,-0.092
-0.037,-0.104,-0.067,0.071,0.015,-0.085,0.009,-0.114,-0.099,-0.107,-0.104,-0.104
-0.086,-0.141,-0.055,0.113,-0.015,-0.098,0.017,-0.103,-0.093,-0.096,-0.102,-0.103
-0.118,-0.149,-0.031,0.133,-0.043,-0.089,0.023,-0.11,-0.102,-0.099,-0.115,-0.107
-0.099,-0.15,-0.051,0.125,-0.024,-0.1,0.004,-0.089,-0.068,-0.095,-0.105,-0.104
-0.098,-0.148,-0.05,0.123,-0.024,-0.098,0.043,-0.078,-0.094,-0.113,-0.125,-0.124
-0.169,-0.226,-0.058,0.198,-0.055,-0.142,0.23,0.155,-0.015,-0.133,-0.193,-0.214
0.023,0.063,0.04,-0.043,-0.009,0.052,0.012,0.065,0.254,0.202,0.118,0.044
0.698,0.743,0.046,-0.721,0.326,0.394,-0.704,-0.604,0.59,0.802,0.808,0.722
0.97,1.199,0.229,-1.085,0.37,0.714,-1.179,-1.158,0.491,0.995,1.206,1.204
0.413,0.884,0.471,-0.649,-0.029,0.677,-1.062,-1.492,-0.403,0.288,0.627,0.793
-0.059,0.132,0.191,-0.037,-0.125,0.161,-0.565,-1.05,-0.643,-0.31,-0.11,0.05
-0.128,-0.083,0.045,0.106,-0.086,-0.019,-0.206,-0.407,-0.221,-0.196,-0.153,-0.107
-0.108,-0.053,0.055,0.08,-0.081,0.001,-0.078,-0.203,-0.098,-0.117,-0.1,-0.093
-0.073,-0.088,-0.014,0.081,-0.029,-0.051,-0.009,-0.076,-0.024,-0.088,-0.089,-0.107
-0.068,-0.086,-0.018,0.078,-0.025,-0.052,0.014,-0.059,-0.016,-0.067,-0.076,-0.094
-0.038,-0.104,-0.066,0.071,0.014,-0.085,0.048,-0.01,-0.006,-0.072,-0.084,-0.105
-0.043,-0.122,-0.079,0.082,0.018,-0.1,0.052,-0.002,0.007,-0.054,-0.07,-0.095
-0.066,-0.133,-0.068,0.1,0.001,-0.101,0.045,-0.005,0.006,-0.056,-0.074,-0.097
-0.043,-0.115,-0.072,0.079,0.015,-0.093,0.066,0.017,0.022,-0.044,-0.065,-0.089
-0.045,-0.111,-0.066,0.078,0.011,-0.088,0.076,0.036,0.025,-0.042,-0.064,-0.089
-0.043,-0.101,-0.058,0.072,0.008,-0.079,0.075,0.059,0.034,-0.031,-0.057,-0.083
-0.038,-0.089,-0.051,0.064,0.007,-0.07,0.075,0.06,0.046,-0.024,-0.054,-0.081
-0.041,-0.078,-0.037,0.06,-0.002,-0.057,0.075,0.088,0.071,-0.016,-0.048,-0.073
-0.015,-0.067,-0.052,0.041,0.019,-0.06,0.075,0.103,0.088,-0.008,-0.045,-0.055
-0.016,-0.057,-0.042,0.037,0.013,-0.049,0.081,0.124,0.105,0.013,-0.029,-0.04
-0.007,-0.048,-0.041,0.028,0.017,-0.044,0.088,0.16,0.148,0.029,-0.007,-0.027
0.053,-0.034,-0.087,-0.009,0.07,-0.06,0.088,0.201,0.185,0.048,0.011,-0.007
0.066,-0.012,-0.079,-0.027,0.073,-0.045,0.082,0.254,0.226,0.085,0.041,0.021
0.088,0.015,-0.072,-0.051,0.08,-0.028,0.078,0.312,0.287,0.129,0.077,0.041
0.121,0.054,-0.067,-0.088,0.094,-0.006,0.074,0.362,0.341,0.176,0.129,0.089
0.159,0.1,-0.06,-0.129,0.109,0.02,0.069,0.397,0.395,0.222,0.169,0.135
0.232,0.181,-0.051,-0.206,0.141,0.065,0.064,0.422,0.438,0.273,0.214,0.175
0.248,0.21,-0.038,-0.229,0.143,0.086,0.06,0.402,0.444,0.295,0.248,0.207
0.228,0.195,-0.033,-0.211,0.131,0.08,0.06,0.365,0.414,0.296,0.241,0.205
0.205,0.197,-0.008,-0.201,0.106,0.095,0.06,0.32,0.374,0.286,0.234,0.205
0.171,0.154,-0.017,-0.163,0.094,0.068,0.06,0.249,0.331,0.242,0.214,0.184
0.139,0.096,-0.043,-0.117,0.091,0.026,0.06,0.192,0.265,0.18,0.164,0.132
0.101,0.049,-0.051,-0.074,0.076,-0.001,0.062,0.132,0.194,0.123,0.097,0.074
0.02,-0.004,-0.024,-0.007,0.022,-0.014,0.073,0.077,0.142,0.077,0.044,0.016
-0.021,-0.056,-0.035,0.038,0.007,-0.045,0.077,0.045,0.093,0.031,0.005,-0.018
-0.007,-0.089,-0.081,0.048,0.037,-0.085,0.074,0.017,0.044,-0.009,-0.027,-0.036
-0.044,-0.117,-0.073,0.081,0.015,-0.095,0.075,0.005,0.01,-0.036,-0.051,-0.062
-0.059,-0.131,-0.072,0.095,0.006,-0.101,0.071,-0.005,0.0,-0.044,-0.062,-0.073
-0.064,-0.134,-0.07,0.099,0.004,-0.102,0.07,-0.03,-0.003,-0.056,-0.069,-0.074
-0.071,-0.14,-0.069,0.105,-0.001,-0.104,0.07,-0.036,-0.01,-0.062,-0.077,-0.076
-0.069,-0.14,-0.071,0.105,0.001,-0.106,0.065,-0.029,-0.015,-0.055,-0.074,-0.075
-0.074,-0.143,-0.069,0.108,-0.002,-0.106,0.065,-0.028,-0.02,-0.055,-0.075,-0.075
-0.077,-0.146,-0.07,0.112,-0.003,-0.108,0.065,-0.022,-0.014,-0.05,-0.075,-0.075
-0.08,-0.141,-0.06,0.111,-0.01,-0.1,0.065,-0.02,-0.009,-0.049,-0.075,-0.075
-0.071,-0.124,-0.054,0.098,-0.008,-0.089,0.065,-0.032,-0.004,-0.061,-0.073,-0.073
-0.068,-0.113,-0.045,0.091,-0.011,-0.079,0.065,-0.03,0.002,-0.063,-0.068,-0.068
-0.066,-0.111,-0.046,0.089,-0.01,-0.078,0.065,-0.016,0.008,-0.053,-0.065,-0.062
-0.062,-0.106,-0.044,0.085,-0.009,-0.075,0.065,-0.009,0.008,-0.048,-0.062,-0.059
-0.059,-0.101,-0.042,0.08,-0.009,-0.071,0.065,0.008,0.004,-0.04,-0.057,-0.053
-0.064,-0.103,-0.038,0.083,-0.013,-0.07,0.065,0.018,0.005,-0.036,-0.056,-0.05
-0.063,-0.107,-0.044,0.085,-0.009,-0.075,0.064,0.011,0.005,-0.039,-0.059,-0.055
-0.054,-0.122,-0.068,0.088,0.007,-0.095,0.06,0.007,0.005,-0.04,-0.062,-0.055
-0.061,-0.132,-0.071,0.096,0.005,-0.101,0.06,0.0,0.005,-0.044,-0.065,-0.055
-0.06,-0.13,-0.07,0.095,0.005,-0.1,0.06,-0.005,-0.001,-0.045,-0.067,-0.054
-0.059,-0.129,-0.07,0.094,0.005,-0.099,0.059,-0.01,-0.008,-0.047,-0.071,-0.058
-0.061,-0.132,-0.071,0.096,0.005,-0.101,0.061,-0.015,-0.014,-0.054,-0.067,-0.064
-0.059,-0.126,-0.067,0.093,0.004,-0.097,0.057,-0.022,-0.021,-0.063,-0.064,-0.068
-0.064,-0.131,-0.067,0.098,0.001,-0.098,0.055,-0.04,-0.027,-0.069,-0.065,-0.071
-0.098,-0.155,-0.057,0.127,-0.02,-0.106,0.055,-0.04,-0.033,-0.072,-0.065,-0.07
-0.096,-0.155,-0.06,0.126,-0.018,-0.107,0.051,-0.036,-0.037,-0.074,-0.065,-0.07
-0.066,-0.154,-0.088,0.111,0.011,-0.121,0.05,-0.034,-0.042,-0.078,-0.065,-0.07
-0.078,-0.156,-0.078,0.117,0.0,-0.117,0.05,-0.03,-0.044,-0.08,-0.07,-0.069
-0.086,-0.153,-0.068,0.12,-0.009,-0.11,0.056,-0.03,-0.041,-0.078,-0.073,-0.073
-0.097,-0.159,-0.062,0.128,-0.017,-0.11,0.058,-0.029,-0.04,-0.074,-0.077,-0.075
-0.099,-0.159,-0.06,0.129,-0.02,-0.109,0.054,-0.039,-0.04,-0.075,-0.084,-0.075
-0.109,-0.161,-0.052,0.136,-0.029,-0.106,0.056,-0.04,-0.041,-0.075,-0.09,-0.075
-0.104,-0.159,-0.055,0.131,-0.025,-0.107,0.055,-0.035,-0.038,-0.073,-0.095,-0.075
-0.077,-0.161,-0.084,0.12,0.004,-0.123,0.055,-0.032,-0.051,-0.086,-0.095,-0.075
-0.081,-0.158,-0.077,0.12,-0.002,-0.117,0.054,-0.029,-0.062,-0.097,-0.095,-0.075
-0.086,-0.153,-0.067,0.119,-0.009,-0.11,0.05,-0.023,-0.059,-0.094,-0.095,-0.075
-0.1,-0.175,-0.075,0.138,-0.012,-0.125,0.05,-0.03,-0.06,-0.095,-0.095,-0.075
-0.089,-0.178,-0.089,0.134,0.0,-0.133,0.049,-0.05,-0.06,-0.095,-0.095,-0.075
-0.079,-0.168,-0.089,0.123,0.005,-0.128,0.056,-0.048,-0.06,-0.095,-0.095,-0.075
-0.096,-0.166,-0.07,0.131,-0.012,-0.118,0.062,-0.044,-0.057,-0.091,-0.095,-0.072
-0.089,-0.157,-0.068,0.123,-0.01,-0.112,0.056,-0.041,-0.052,-0.084,-0.095,-0.069
-0.074,-0.157,-0.083,0.116,0.005,-0.12,0.053,-0.036,-0.049,-0.077,-0.095,-0.07
-0.087,-0.159,-0.072,0.123,-0.007,-0.116,0.051,-0.034,-0.046,-0.071,-0.094,-0.066
-0.11,-0.16,-0.05,0.135,-0.03,-0.105,0.043,-0.029,-0.041,-0.063,-0.091,-0.065
-0.095,-0.168,-0.074,0.132,-0.01,-0.121,0.059,-0.027,-0.042,-0.063,-0.088,-0.065
-0.095,-0.17,-0.075,0.133,-0.01,-0.123,0.072,-0.022,-0.052,-0.076,-0.086,-0.061
-0.106,-0.163,-0.057,0.135,-0.024,-0.11,0.066,-0.021,-0.038,-0.072,-0.082,-0.057
-0.054,-0.159,-0.106,0.107,0.026,-0.133,0.064,-0.012,-0.027,-0.066,-0.08,-0.053
-0.017,-0.156,-0.138,0.087,0.061,-0.147,0.06,0.001,-0.03,-0.063,-0.077,-0.05
-0.014,-0.149,-0.135,0.082,0.06,-0.142,0.072,0.019,-0.03,-0.057,-0.075,-0.045
-0.028,-0.154,-0.127,0.091,0.05,-0.14,0.076,0.027,-0.036,-0.056,-0.075,-0.047
-0.034,-0.154,-0.121,0.094,0.044,-0.137,0.071,0.008,-0.034,-0.07,-0.076,-0.051
-0.03,-0.157,-0.127,0.094,0.049,-0.142,0.069,-0.013,-0.043,-0.079,-0.074,-0.052
-0.056,-0.161,-0.104,0.109,0.024,-0.132,0.067,-0.026,-0.051,-0.081,-0.077,-0.058
-0.079,-0.16,-0.082,0.12,0.002,-0.121,0.063,-0.041,-0.055,-0.094,-0.081,-0.062
-0.119,-0.199,-0.08,0.16,-0.02,-0.139,0.062,-0.046,-0.063,-0.104,-0.088,-0.069
-0.105,-0.189,-0.084,0.148,-0.01,-0.136,0.053,-0.056,-0.064,-0.096,-0.091,-0.064
-0.097,-0.189,-0.092,0.143,-0.003,-0.14,0.052,-0.059,-0.076,-0.104,-0.104,-0.065
-0.103,-0.192,-0.089,0.147,-0.007,-0.14,0.046,-0.045,-0.056,-0.097,-0.097,-0.059
-0.101,-0.186,-0.084,0.144,-0.008,-0.135,0.039,-0.058,-0.068,-0.102,-0.101,-0.055
-0.13,-0.198,-0.067,0.164,-0.032,-0.132,0.054,-0.034,-0.047,-0.099,-0.101,-0.059
-0.129,-0.177,-0.048,0.153,-0.04,-0.112,0.082,-0.04,-0.058,-0.107,-0.106,-0.083
-0.188,-0.275,-0.087,0.232,-0.05,-0.18,0.26,0.181,-0.018,-0.142,-0.185,-0.187
-0.022,-0.042,-0.019,0.032,-0.001,-0.03,0.113,0.137,0.228,0.147,0.076,0.026
0.584,0.607,0.023,-0.596,0.281,0.314,-0.602,-0.581,0.546,0.733,0.732,0.664
0.978,1.132,0.153,-1.055,0.412,0.642,-1.176,-1.157,0.548,1.005,1.179,1.191
0.545,0.917,0.372,-0.731,0.086,0.644,-1.143,-1.487,-0.283,0.387,0.734,0.928
-0.021,0.147,0.168,-0.063,-0.094,0.157,-0.625,-1.103,-0.651,-0.266,-0.018,0.186
-0.112,-0.093,0.019,0.102,-0.065,-0.037,-0.203,-0.397,-0.226,-0.193,-0.111,-0.051
-0.103,-0.098,0.004,0.101,-0.053,-0.047,-0.046,-0.139,-0.076,-0.103,-0.059,-0.033
-0.068,-0.15,-0.082,0.109,0.008,-0.116,0.039,0.001,-0.01,-0.078,-0.073,-0.053
-0.065,-0.138,-0.074,0.102,0.005,-0.106,0.074,0.018,0.0,-0.051,-0.057,-0.039
-0.081,-0.182,-0.102,0.132,0.011,-0.142,0.09,0.049,0.011,-0.063,-0.071,-0.05
-0.054,-0.167,-0.113,0.11,0.029,-0.139,0.081,0.064,0.028,-0.047,-0.06,-0.042
-0.061,-0.168,-0.108,0.115,0.024,-0.138,0.094,0.079,0.017,-0.052,-0.068,-0.047
-0.054,-0.162,-0.108,0.109,0.027,-0.135,0.107,0.105,0.053,-0.043,-0.057,-0.045
-0.053,-0.156,-0.103,0.105,0.025,-0.129,0.098,0.107,0.062,-0.042,-0.05,-0.04
-0.05,-0.155,-0.105,0.103,0.028,-0.13,0.115,0.134,0.057,-0.034,-0.042,-0.036
-0.037,-0.148,-0.11,0.093,0.036,-0.129,0.132,0.138,0.067,-0.028,-0.033,-0.028
-0.044,-0.149,-0.105,0.097,0.031,-0.127,0.132,0.156,0.083,-0.018,-0.028,-0.026
-0.038,-0.141,-0.103,0.09,0.033,-0.122,0.137,0.17,0.097,-0.005,-0.017,-0.016
-0.019,-0.143,-0.123,0.081,0.052,-0.133,0.139,0.198,0.128,0.012,-0.007,-0.006
-0.007,-0.125,-0.118,0.066,0.055,-0.121,0.144,0.235,0.165,0.04,0.01,0.016
0.026,-0.087,-0.113,0.031,0.069,-0.099,0.149,0.283,0.202,0.067,0.04,0.03
0.059,-0.058,-0.118,0.0,0.089,-0.088,0.144,0.329,0.245,0.098,0.066,0.051
0.081,-0.028,-0.109,-0.026,0.095,-0.068,0.139,0.378,0.296,0.131,0.093,0.079
0.099,-0.002,-0.101,-0.048,0.1,-0.052,0.135,0.435,0.348,0.175,0.131,0.117
0.141,0.051,-0.09,-0.096,0.115,-0.019,0.13,0.475,0.414,0.227,0.18,0.17
0.197,0.113,-0.083,-0.155,0.14,0.015,0.126,0.508,0.46,0.275,0.236,0.209
0.214,0.14,-0.074,-0.177,0.144,0.033,0.12,0.485,0.486,0.31,0.27,0.275
0.215,0.164,-0.051,-0.189,0.133,0.056,0.118,0.441,0.436,0.305,0.269,0.253
0.213,0.161,-0.052,-0.187,0.132,0.055,0.109,0.392,0.417,0.28,0.272,0.284
0.156,0.134,-0.022,-0.145,0.089,0.056,0.11,0.32,0.338,0.246,0.25,0.218
0.093,0.073,-0.02,-0.083,0.057,0.026,0.1,0.256,0.308,0.198,0.193,0.238
0.064,0.039,-0.024,-0.051,0.044,0.007,0.103,0.196,0.228,0.144,0.135,0.337
0.042,0.054,0.012,-0.048,0.015,0.033,0.122,0.141,0.0,0.098,0.106,0.112
