-0.164,-0.14,0.025,0.152,-0.094,-0.057,0.014,-0.03,-0.055,-0.014,-0.019,0.011
-0.173,-0.134,0.039,0.154,-0.106,-0.047,0.027,-0.023,-0.052,-0.008,-0.013,0.022
-0.18,-0.119,0.061,0.149,-0.121,-0.028,0.054,-0.012,-0.038,0.0,-0.005,0.036
-0.151,-0.105,0.046,0.128,-0.098,-0.029,0.055,-0.004,-0.019,0.009,0.004,0.043
-0.134,-0.09,0.044,0.111,-0.088,-0.023,0.081,0.014,0.004,0.022,0.014,0.052
-0.093,-0.059,0.033,0.076,-0.063,-0.013,0.085,0.022,0.014,0.04,0.027,0.066
-0.076,-0.049,0.027,0.062,-0.051,-0.011,0.043,0.013,0.02,0.044,0.038,0.079
-0.092,-0.05,0.042,0.071,-0.067,-0.004,0.005,0.004,0.016,0.055,0.058,0.084
-0.063,-0.052,0.011,0.058,-0.037,-0.02,0.003,-0.003,0.004,0.059,0.056,0.068
-0.085,-0.097,-0.011,0.091,-0.037,-0.054,0.008,-0.027,-0.023,0.032,0.028,0.048
-0.14,-0.117,0.023,0.129,-0.081,-0.047,0.008,-0.056,-0.06,0.012,0.011,0.029
-0.167,-0.12,0.047,0.143,-0.106,-0.036,0.012,-0.052,-0.056,-0.006,-0.005,0.019
-0.199,-0.157,0.042,0.177,-0.12,-0.057,0.0,-0.071,-0.076,-0.039,-0.043,0.005
-0.213,-0.164,0.049,0.188,-0.13,-0.057,0.004,-0.075,-0.071,-0.018,-0.038,0.011
-0.211,-0.169,0.041,0.19,-0.126,-0.064,0.03,-0.075,-0.079,-0.04,-0.056,-0.001
-0.202,-0.154,0.048,0.178,-0.125,-0.053,0.031,-0.075,-0.071,-0.032,-0.042,0.0
-0.196,-0.152,0.043,0.173,-0.119,-0.055,0.028,-0.066,-0.067,-0.031,-0.044,-0.003
-0.203,-0.148,0.055,0.175,-0.129,-0.046,0.026,-0.078,-0.079,-0.039,-0.053,-0.016
-0.234,-0.148,0.086,0.191,-0.16,-0.031,0.023,-0.052,-0.046,-0.006,-0.028,0.002
-0.232,-0.17,0.062,0.2,-0.147,-0.054,0.039,-0.052,-0.079,-0.06,-0.074,-0.041
-0.277,-0.213,0.063,0.245,-0.17,-0.075,0.251,0.307,0.137,0.046,-0.06,-0.109
-0.123,-0.219,-0.095,0.171,-0.014,-0.157,0.528,0.757,0.452,0.205,-0.036,-0.158
0.35,0.567,0.217,-0.459,0.066,0.392,0.168,0.232,0.841,1.105,1.05,0.854
0.306,1.018,0.712,-0.662,-0.203,0.864,-0.51,-0.941,0.241,1.007,1.391,1.489
-0.063,0.318,0.382,-0.128,-0.223,0.35,-0.78,-1.335,-0.995,-0.566,-0.083,0.394
-0.149,-0.027,0.122,0.088,-0.136,0.047,-0.609,-0.727,-0.71,-0.569,-0.343,-0.059
-0.166,-0.02,0.146,0.092,-0.155,0.063,-0.193,-0.136,-0.14,-0.114,-0.054,0.012
-0.142,-0.024,0.118,0.082,-0.13,0.047,-0.004,0.075,-0.019,-0.065,-0.055,-0.043
-0.164,-0.024,0.14,0.094,-0.152,0.058,0.011,0.097,0.061,0.031,0.028,0.015
-0.187,-0.051,0.136,0.119,-0.161,0.042,0.043,0.107,0.03,0.006,-0.018,-0.017
-0.163,-0.026,0.137,0.094,-0.15,0.055,0.041,0.136,0.064,0.052,0.026,0.015
-0.161,-0.031,0.13,0.095,-0.145,0.049,0.049,0.127,0.049,0.021,0.006,0.001
-0.144,-0.016,0.128,0.08,-0.136,0.055,0.043,0.129,0.074,0.056,0.026,0.011
-0.139,-0.014,0.125,0.076,-0.132,0.055,0.046,0.143,0.089,0.068,0.025,0.018
-0.13,-0.005,0.124,0.067,-0.127,0.059,0.06,0.144,0.093,0.078,0.022,0.038
-0.125,0.001,0.126,0.062,-0.126,0.063,0.066,0.158,0.123,0.092,0.032,0.05
-0.117,0.007,0.124,0.055,-0.121,0.065,0.065,0.183,0.134,0.086,0.026,0.04
-0.115,0.011,0.126,0.051,-0.121,0.068,0.061,0.179,0.137,0.109,0.05,0.053
-0.1,0.024,0.124,0.038,-0.113,0.074,0.06,0.179,0.145,0.115,0.047,0.047
-0.074,0.052,0.126,0.01,-0.1,0.089,0.059,0.188,0.155,0.125,0.061,0.054
-0.067,0.057,0.124,0.005,-0.096,0.09,0.055,0.213,0.184,0.156,0.093,0.08
-0.073,0.054,0.127,0.009,-0.1,0.09,0.055,0.222,0.195,0.163,0.097,0.093
-0.091,0.056,0.147,0.017,-0.12,0.102,0.054,0.227,0.193,0.174,0.108,0.094
-0.069,0.08,0.149,-0.006,-0.109,0.114,0.051,0.253,0.222,0.202,0.13,0.112
-0.04,0.106,0.145,-0.033,-0.093,0.125,0.048,0.274,0.252,0.224,0.16,0.12
-0.036,0.114,0.149,-0.039,-0.093,0.131,0.064,0.307,0.282,0.262,0.183,0.136
0.006,0.138,0.132,-0.072,-0.063,0.135,0.076,0.335,0.314,0.292,0.208,0.183
0.03,0.176,0.146,-0.104,-0.059,0.161,0.066,0.366,0.346,0.328,0.252,0.21
0.022,0.2,0.178,-0.111,-0.078,0.188,0.062,0.378,0.383,0.372,0.292,0.241
0.053,0.227,0.174,-0.141,-0.061,0.2,0.057,0.358,0.382,0.389,0.328,0.284
0.084,0.26,0.176,-0.172,-0.046,0.217,0.048,0.352,0.377,0.401,0.349,0.315
0.108,0.282,0.174,-0.195,-0.033,0.228,0.025,0.322,0.361,0.393,0.346,0.34
0.095,0.272,0.177,-0.184,-0.041,0.224,-0.032,0.232,0.282,0.341,0.326,0.332
0.071,0.232,0.161,-0.152,-0.045,0.196,-0.077,0.148,0.194,0.272,0.285,0.289
0.052,0.193,0.141,-0.123,-0.045,0.167,-0.077,0.069,0.095,0.177,0.188,0.223
-0.043,0.111,0.154,-0.035,-0.099,0.133,-0.065,0.014,0.021,0.093,0.104,0.144
-0.108,0.033,0.141,0.037,-0.125,0.087,-0.054,-0.011,-0.024,0.035,0.028,0.065
-0.122,0.012,0.134,0.055,-0.129,0.073,-0.038,-0.041,-0.061,-0.012,-0.04,0.011
-0.126,0.002,0.127,0.062,-0.127,0.064,-0.015,-0.046,-0.072,-0.023,-0.05,-0.019
-0.125,-0.004,0.121,0.064,-0.122,0.058,0.009,-0.044,-0.087,-0.047,-0.065,-0.044
-0.159,-0.012,0.147,0.085,-0.152,0.067,0.018,-0.046,-0.082,-0.059,-0.081,-0.053
-0.174,-0.02,0.155,0.097,-0.164,0.068,0.013,-0.044,-0.079,-0.053,-0.089,-0.055
-0.169,-0.025,0.144,0.097,-0.156,0.059,0.007,-0.046,-0.078,-0.056,-0.083,-0.058
-0.174,-0.031,0.143,0.102,-0.159,0.056,0.004,-0.048,-0.072,-0.054,-0.077,-0.061
-0.167,-0.034,0.133,0.1,-0.149,0.049,-0.002,-0.052,-0.087,-0.055,-0.073,-0.064
-0.164,-0.032,0.132,0.098,-0.148,0.05,-0.004,-0.053,-0.096,-0.057,-0.064,-0.066
-0.181,-0.027,0.154,0.104,-0.168,0.063,-0.001,-0.057,-0.095,-0.06,-0.078,-0.069
-0.169,-0.024,0.145,0.096,-0.157,0.06,0.004,-0.059,-0.095,-0.063,-0.086,-0.07
-0.168,-0.021,0.146,0.094,-0.157,0.063,0.003,-0.062,-0.096,-0.066,-0.08,-0.07
-0.165,-0.016,0.149,0.09,-0.156,0.067,-0.001,-0.065,-0.094,-0.07,-0.078,-0.07
-0.145,-0.017,0.129,0.081,-0.137,0.056,0.0,-0.065,-0.102,-0.07,-0.074,-0.071
-0.156,-0.029,0.126,0.092,-0.141,0.048,-0.004,-0.07,-0.118,-0.07,-0.069,-0.067
-0.141,-0.031,0.11,0.086,-0.126,0.039,-0.005,-0.07,-0.121,-0.07,-0.078,-0.065
-0.159,-0.027,0.131,0.093,-0.145,0.052,-0.005,-0.074,-0.119,-0.07,-0.085,-0.065
-0.197,-0.025,0.172,0.111,-0.184,0.073,-0.012,-0.08,-0.122,-0.073,-0.086,-0.062
-0.191,-0.021,0.17,0.106,-0.18,0.074,-0.02,-0.08,-0.133,-0.076,-0.098,-0.06
-0.182,-0.02,0.163,0.101,-0.173,0.071,-0.028,-0.08,-0.136,-0.075,-0.104,-0.06
-0.171,-0.017,0.154,0.094,-0.162,0.069,-0.03,-0.079,-0.134,-0.075,-0.108,-0.07
-0.177,-0.011,0.166,0.094,-0.172,0.077,-0.03,-0.089,-0.137,-0.078,-0.109,-0.078
-0.168,-0.007,0.161,0.087,-0.164,0.077,-0.034,-0.098,-0.14,-0.081,-0.104,-0.081
-0.149,-0.003,0.147,0.076,-0.148,0.072,-0.036,-0.092,-0.14,-0.08,-0.105,-0.085
-0.141,0.003,0.144,0.069,-0.143,0.073,-0.034,-0.091,-0.144,-0.078,-0.105,-0.081
-0.129,0.004,0.133,0.062,-0.132,0.069,-0.031,-0.087,-0.145,-0.076,-0.105,-0.078
-0.135,-0.002,0.132,0.068,-0.133,0.065,-0.025,-0.084,-0.145,-0.073,-0.105,-0.075
-0.126,-0.01,0.116,0.068,-0.121,0.053,-0.032,-0.091,-0.144,-0.085,-0.101,-0.072
-0.148,-0.002,0.146,0.075,-0.147,0.072,-0.041,-0.096,-0.14,-0.097,-0.1,-0.069
-0.166,0.013,0.178,0.076,-0.172,0.095,-0.039,-0.094,-0.14,-0.094,-0.1,-0.073
-0.157,0.001,0.158,0.077,-0.157,0.08,-0.04,-0.095,-0.14,-0.095,-0.1,-0.077
-0.164,-0.016,0.148,0.09,-0.156,0.066,-0.04,-0.095,-0.14,-0.095,-0.1,-0.067
-0.152,-0.008,0.145,0.079,-0.149,0.068,-0.04,-0.095,-0.14,-0.095,-0.099,-0.083
-0.141,0.001,0.141,0.07,-0.141,0.071,-0.036,-0.099,-0.137,-0.092,-0.093,-0.1
-0.141,-0.002,0.139,0.072,-0.14,0.068,-0.036,-0.101,-0.132,-0.087,-0.085,-0.089
-0.164,0.001,0.165,0.081,-0.165,0.083,-0.032,-0.098,-0.129,-0.083,-0.079,-0.081
-0.147,0.035,0.181,0.056,-0.164,0.107,-0.009,-0.072,-0.113,-0.06,-0.073,-0.067
-0.113,0.079,0.192,0.017,-0.153,0.135,0.026,-0.048,-0.093,-0.04,-0.065,-0.053
-0.101,0.1,0.201,0.0,-0.151,0.15,0.044,-0.042,-0.081,-0.035,-0.055,-0.041
-0.069,0.101,0.17,-0.016,-0.119,0.135,0.004,-0.033,-0.069,-0.028,-0.045,-0.028
-0.065,0.098,0.163,-0.017,-0.115,0.131,-0.052,-0.028,-0.061,-0.018,-0.036,-0.017
-0.051,0.115,0.166,-0.032,-0.109,0.14,-0.049,-0.019,-0.051,-0.004,-0.023,-0.003
-0.061,0.098,0.159,-0.019,-0.11,0.128,-0.048,-0.041,-0.074,-0.018,-0.041,-0.018
-0.112,0.049,0.161,0.031,-0.137,0.105,-0.074,-0.099,-0.12,-0.076,-0.081,-0.049
-0.121,0.036,0.157,0.042,-0.14,0.096,-0.069,-0.112,-0.126,-0.086,-0.083,-0.062
-0.132,0.025,0.157,0.053,-0.144,0.091,-0.059,-0.102,-0.138,-0.086,-0.099,-0.083
-0.144,0.009,0.152,0.067,-0.148,0.08,-0.056,-0.104,-0.156,-0.108,-0.118,-0.1
-0.159,-0.001,0.158,0.08,-0.158,0.078,-0.047,-0.109,-0.141,-0.089,-0.106,-0.088
-0.159,-0.007,0.152,0.083,-0.155,0.072,-0.042,-0.129,-0.161,-0.114,-0.128,-0.104
-0.16,-0.004,0.157,0.082,-0.158,0.077,-0.05,-0.107,-0.13,-0.083,-0.103,-0.085
-0.181,-0.014,0.168,0.097,-0.174,0.077,-0.055,-0.123,-0.162,-0.118,-0.153,-0.105
-0.19,-0.002,0.189,0.096,-0.19,0.093,-0.04,-0.101,-0.127,-0.081,-0.132,-0.087
-0.204,-0.029,0.175,0.116,-0.189,0.072,-0.025,-0.102,-0.138,-0.09,-0.157,-0.096
-0.209,-0.023,0.186,0.116,-0.198,0.081,0.053,0.011,-0.076,-0.075,-0.154,-0.131
-0.276,-0.13,0.146,0.202,-0.211,0.008,0.403,0.52,0.21,0.032,-0.153,-0.238
0.091,0.12,0.029,-0.106,0.031,0.074,0.46,0.59,0.47,0.351,0.135,-0.005
0.623,0.959,0.336,-0.791,0.143,0.647,-0.291,-0.335,0.679,1.207,1.29,1.171
0.422,0.848,0.426,-0.635,-0.002,0.637,-0.954,-1.384,-0.395,0.322,0.799,1.116
0.029,0.225,0.196,-0.127,-0.084,0.21,-0.92,-1.222,-1.098,-0.795,-0.378,0.082
-0.1,0.132,0.232,-0.016,-0.166,0.182,-0.458,-0.388,-0.369,-0.277,-0.168,-0.037
-0.111,0.096,0.207,0.007,-0.159,0.151,-0.096,-0.02,-0.109,-0.12,-0.107,-0.06
-0.121,0.085,0.206,0.017,-0.163,0.145,-0.03,0.09,-0.032,-0.054,-0.075,-0.058
-0.135,0.069,0.204,0.033,-0.17,0.136,0.005,0.096,0.007,-0.015,-0.063,-0.042
-0.117,0.069,0.186,0.024,-0.152,0.127,0.017,0.092,0.002,-0.031,-0.082,-0.061
-0.12,0.071,0.191,0.024,-0.156,0.131,0.021,0.102,0.032,0.011,-0.046,-0.039
-0.117,0.062,0.179,0.027,-0.149,0.121,0.031,0.097,0.018,-0.01,-0.069,-0.053
-0.124,0.066,0.19,0.028,-0.157,0.128,0.04,0.103,0.046,0.027,-0.036,-0.032
-0.111,0.07,0.18,0.02,-0.146,0.125,0.06,0.107,0.042,0.015,-0.047,-0.039
-0.103,0.087,0.19,0.008,-0.147,0.138,0.059,0.122,0.058,0.035,-0.027,-0.028
-0.094,0.084,0.179,0.005,-0.137,0.131,0.066,0.128,0.064,0.049,-0.025,-0.026
-0.089,0.085,0.174,0.002,-0.132,0.129,0.063,0.133,0.085,0.076,-0.014,-0.021
-0.097,0.086,0.183,0.006,-0.14,0.134,0.06,0.144,0.103,0.079,0.002,-0.011
-0.075,0.1,0.174,-0.013,-0.125,0.137,0.06,0.153,0.116,0.084,0.007,-0.007
-0.09,0.105,0.194,-0.008,-0.143,0.149,0.061,0.169,0.135,0.109,0.025,0.002
-0.072,0.136,0.208,-0.033,-0.14,0.172,0.058,0.181,0.15,0.115,0.04,0.028
-0.041,0.162,0.203,-0.061,-0.122,0.183,0.061,0.197,0.166,0.139,0.053,0.049
-0.05,0.156,0.206,-0.054,-0.128,0.181,0.083,0.236,0.199,0.168,0.081,0.058
-0.037,0.167,0.204,-0.066,-0.121,0.185,0.087,0.252,0.224,0.179,0.098,0.082
-0.036,0.164,0.2,-0.064,-0.119,0.182,0.078,0.283,0.257,0.214,0.124,0.11
-0.002,0.198,0.199,-0.098,-0.1,0.198,0.088,0.332,0.3,0.255,0.166,0.128
0.048,0.242,0.193,-0.145,-0.073,0.217,0.107,0.363,0.332,0.287,0.196,0.148
0.053,0.251,0.198,-0.152,-0.073,0.225,0.103,0.397,0.382,0.329,0.228,0.183
0.065,0.281,0.215,-0.174,-0.075,0.248,0.101,0.421,0.414,0.365,0.275,0.227
0.104,0.316,0.212,-0.211,-0.054,0.264,0.094,0.434,0.41,0.392,0.308,0.263
0.151,0.349,0.198,-0.25,-0.024,0.273,0.061,0.401,0.399,0.39,0.303,0.268
0.181,0.365,0.184,-0.273,-0.002,0.274,0.021,0.323,0.362,0.359,0.303,0.287
0.165,0.335,0.17,-0.25,-0.003,0.252,-0.023,0.217,0.276,0.308,0.279,0.288
0.123,0.28,0.157,-0.202,-0.017,0.218,-0.05,0.094,0.166,0.217,0.211,0.231
0.065,0.215,0.149,-0.14,-0.042,0.182,-0.052,0.021,0.078,0.126,0.132,0.156
0.01,0.152,0.142,-0.082,-0.066,0.147,-0.043,-0.024,0.013,0.049,0.041,0.082
-0.027,0.108,0.135,-0.041,-0.082,0.122,-0.033,-0.058,-0.041,-0.017,-0.015,0.023
-0.05,0.077,0.127,-0.014,-0.089,0.102,-0.022,-0.056,-0.06,-0.038,-0.045,-0.027
-0.071,0.049,0.119,0.011,-0.095,0.084,-0.013,-0.08,-0.074,-0.059,-0.087,-0.054
-0.133,0.016,0.149,0.058,-0.141,0.082,-0.005,-0.094,-0.082,-0.076,-0.103,-0.058
-0.152,0.007,0.159,0.072,-0.156,0.083,0.0,-0.084,-0.079,-0.078,-0.1,-0.072
-0.135,0.012,0.147,0.061,-0.141,0.079,0.008,-0.086,-0.081,-0.082,-0.097,-0.081
-0.136,0.007,0.143,0.064,-0.14,0.075,0.014,-0.08,-0.08,-0.079,-0.093,-0.082
-0.115,0.021,0.135,0.047,-0.125,0.078,0.009,-0.081,-0.08,-0.077,-0.09,-0.085
-0.1,0.029,0.13,0.035,-0.115,0.079,0.021,-0.084,-0.075,-0.074,-0.084,-0.088
-0.105,0.029,0.133,0.038,-0.119,0.081,0.028,-0.087,-0.071,-0.075,-0.094,-0.09
-0.11,0.031,0.14,0.039,-0.125,0.085,0.018,-0.091,-0.065,-0.075,-0.107,-0.087
-0.1,0.029,0.13,0.035,-0.115,0.079,0.013,-0.094,-0.075,-0.075,-0.104,-0.084
-0.115,0.031,0.146,0.042,-0.13,0.088,0.004,-0.098,-0.095,-0.075,-0.108,-0.081
-0.132,0.029,0.161,0.051,-0.146,0.094,-0.003,-0.101,-0.097,-0.075,-0.111,-0.078
-0.117,0.034,0.151,0.041,-0.134,0.092,-0.009,-0.099,-0.105,-0.075,-0.11,-0.075
-0.111,0.036,0.147,0.037,-0.129,0.092,-0.011,-0.101,-0.104,-0.078,-0.114,-0.076
-0.108,0.034,0.142,0.037,-0.125,0.088,-0.014,-0.11,-0.11,-0.087,-0.115,-0.082
-0.109,0.025,0.134,0.042,-0.122,0.08,-0.014,-0.118,-0.125,-0.091,-0.115,-0.086
-0.114,0.026,0.14,0.044,-0.128,0.083,-0.009,-0.119,-0.125,-0.09,-0.12,-0.089
-0.122,0.016,0.138,0.053,-0.13,0.077,-0.011,-0.116,-0.128,-0.091,-0.12,-0.094
-0.125,0.018,0.144,0.054,-0.135,0.081,-0.009,-0.134,-0.131,-0.105,-0.12,-0.095
-0.123,0.047,0.17,0.038,-0.146,0.108,-0.01,-0.142,-0.127,-0.111,-0.12,-0.096
-0.129,0.013,0.142,0.057,-0.136,0.078,-0.01,-0.139,-0.125,-0.109,-0.12,-0.099
-0.12,0.009,0.129,0.055,-0.125,0.069,-0.009,-0.141,-0.125,-0.11,-0.12,-0.101
-0.105,0.035,0.14,0.035,-0.123,0.087,-0.024,-0.139,-0.125,-0.11,-0.12,-0.099
-0.107,0.026,0.133,0.04,-0.12,0.079,-0.032,-0.14,-0.125,-0.11,-0.12,-0.094
-0.113,0.023,0.136,0.045,-0.125,0.079,-0.029,-0.134,-0.125,-0.105,-0.12,-0.089
-0.115,0.019,0.135,0.048,-0.125,0.076,-0.028,-0.143,-0.13,-0.105,-0.12,-0.084
-0.123,0.012,0.135,0.055,-0.129,0.073,-0.024,-0.152,-0.13,-0.105,-0.12,-0.081
-0.123,0.012,0.136,0.055,-0.129,0.074,-0.025,-0.149,-0.131,-0.105,-0.12,-0.074
-0.112,0.027,0.139,0.043,-0.126,0.083,-0.028,-0.151,-0.135,-0.104,-0.12,-0.082
-0.108,0.033,0.141,0.038,-0.124,0.087,-0.03,-0.15,-0.135,-0.108,-0.12,-0.095
-0.111,0.028,0.139,0.042,-0.125,0.083,-0.03,-0.15,-0.133,-0.11,-0.12,-0.094
-0.112,0.028,0.141,0.042,-0.127,0.084,-0.03,-0.146,-0.129,-0.11,-0.12,-0.096
-0.116,0.023,0.139,0.046,-0.128,0.081,-0.03,-0.139,-0.13,-0.113,-0.12,-0.1
-0.113,0.025,0.138,0.044,-0.126,0.081,-0.029,-0.136,-0.127,-0.115,-0.12,-0.1
-0.092,0.042,0.134,0.024,-0.113,0.088,-0.018,-0.129,-0.123,-0.115,-0.12,-0.097
-0.094,0.042,0.136,0.026,-0.116,0.089,-0.006,-0.124,-0.128,-0.104,-0.114,-0.088
-0.085,0.073,0.157,0.006,-0.121,0.115,0.011,-0.118,-0.098,-0.086,-0.1,-0.077
-0.062,0.107,0.168,-0.023,-0.115,0.137,0.035,-0.105,-0.081,-0.069,-0.091,-0.066
-0.035,0.117,0.152,-0.042,-0.094,0.134,0.034,-0.09,-0.092,-0.054,-0.083,-0.05
0.002,0.125,0.123,-0.064,-0.061,0.124,0.012,-0.088,-0.089,-0.039,-0.073,-0.041
0.007,0.117,0.11,-0.062,-0.052,0.114,-0.026,-0.096,-0.085,-0.032,-0.054,-0.026
0.017,0.115,0.099,-0.066,-0.041,0.107,-0.045,-0.101,-0.084,-0.042,-0.048,-0.016
-0.005,0.094,0.099,-0.044,-0.052,0.096,-0.048,-0.116,-0.104,-0.063,-0.072,-0.051
-0.042,0.06,0.102,-0.009,-0.072,0.081,-0.065,-0.148,-0.139,-0.096,-0.093,-0.07
-0.072,0.032,0.104,0.019,-0.089,0.068,-0.06,-0.153,-0.139,-0.099,-0.105,-0.063
-0.092,0.016,0.108,0.038,-0.101,0.062,-0.051,-0.154,-0.139,-0.106,-0.119,-0.081
-0.114,-0.006,0.109,0.06,-0.111,0.051,-0.047,-0.157,-0.144,-0.117,-0.129,-0.095
-0.129,0.007,0.136,0.061,-0.133,0.071,-0.038,-0.151,-0.133,-0.101,-0.125,-0.091
-0.105,0.035,0.139,0.035,-0.122,0.087,-0.035,-0.161,-0.157,-0.122,-0.138,-0.102
-0.114,0.025,0.139,0.045,-0.127,0.082,-0.027,-0.147,-0.138,-0.09,-0.111,-0.086
-0.097,0.011,0.108,0.042,-0.102,0.059,-0.022,-0.177,-0.172,-0.122,-0.138,-0.105
-0.107,0.026,0.133,0.04,-0.12,0.08,-0.013,-0.148,-0.137,-0.089,-0.103,-0.086
-0.126,0.013,0.139,0.056,-0.132,0.076,-0.013,-0.162,-0.172,-0.13,-0.139,-0.111
-0.145,0.017,0.162,0.064,-0.153,0.089,0.069,-0.032,-0.089,-0.075,-0.129,-0.131
-0.24,-0.097,0.143,0.169,-0.191,0.022,0.425,0.504,0.203,0.032,-0.151,-0.234
0.188,0.157,-0.031,-0.173,0.11,0.063,0.449,0.555,0.46,0.35,0.152,0.002
0.75,0.961,0.211,-0.856,0.269,0.586,-0.332,-0.442,0.593,1.103,1.213,1.121
0.503,0.799,0.297,-0.651,0.102,0.548,-0.986,-1.49,-0.52,0.171,0.654,0.997
0.155,0.221,0.066,-0.188,0.044,0.144,-0.909,-1.245,-1.085,-0.779,-0.385,0.052
0.05,0.186,0.136,-0.118,-0.043,0.161,-0.424,-0.396,-0.346,-0.261,-0.156,0.004
-0.055,0.117,0.173,-0.031,-0.114,0.145,-0.08,-0.056,-0.127,-0.116,-0.121,-0.054
-0.073,0.089,0.162,-0.008,-0.118,0.125,-0.032,0.019,-0.051,-0.045,-0.082,-0.076
-0.084,0.074,0.158,0.005,-0.121,0.115,0.001,0.041,-0.037,-0.03,-0.073,-0.066
-0.075,0.065,0.141,0.005,-0.108,0.103,0.032,0.053,-0.037,-0.037,-0.081,-0.083
-0.077,0.069,0.145,0.004,-0.111,0.107,0.045,0.056,0.007,-0.006,-0.05,-0.055
-0.09,0.056,0.146,0.017,-0.118,0.101,0.046,0.058,0.002,-0.02,-0.067,-0.071
-0.095,0.058,0.153,0.019,-0.124,0.105,0.045,0.07,0.029,0.021,-0.037,-0.05
-0.085,0.062,0.148,0.011,-0.117,0.105,0.053,0.076,0.021,0.017,-0.048,-0.057
-0.064,0.091,0.154,-0.014,-0.109,0.122,0.048,0.086,0.04,0.037,-0.03,-0.046
-0.048,0.108,0.156,-0.031,-0.102,0.131,0.049,0.103,0.041,0.038,-0.027,-0.042
-0.046,0.109,0.154,-0.032,-0.1,0.131,0.042,0.107,0.045,0.044,-0.015,-0.033
-0.05,0.106,0.156,-0.029,-0.103,0.131,0.051,0.128,0.064,0.058,-0.003,-0.024
-0.055,0.099,0.154,-0.022,-0.105,0.126,0.07,0.148,0.068,0.067,0.007,-0.017
-0.048,0.108,0.156,-0.03,-0.102,0.131,0.07,0.146,0.085,0.077,0.022,-0.003
-0.003,0.149,0.152,-0.073,-0.078,0.151,0.07,0.172,0.124,0.106,0.042,0.003
-0.007,0.141,0.148,-0.067,-0.077,0.144,0.07,0.19,0.143,0.117,0.056,0.018
-0.005,0.138,0.142,-0.067,-0.074,0.14,0.069,0.217,0.177,0.14,0.073,0.026
0.031,0.169,0.138,-0.1,-0.054,0.154,0.073,0.255,0.209,0.172,0.096,0.046
0.046,0.179,0.134,-0.113,-0.045,0.156,0.074,0.284,0.239,0.197,0.121,0.081
0.078,0.207,0.129,-0.143,-0.026,0.167,0.084,0.327,0.283,0.242,0.153,0.096
0.093,0.234,0.141,-0.164,-0.024,0.187,0.09,0.355,0.318,0.276,0.183,0.129
0.118,0.263,0.144,-0.191,-0.013,0.203,0.084,0.381,0.353,0.308,0.228,0.164
0.174,0.31,0.136,-0.242,0.019,0.223,0.079,0.407,0.387,0.345,0.257,0.193
0.211,0.345,0.135,-0.278,0.038,0.24,0.077,0.407,0.4,0.371,0.291,0.232
0.227,0.354,0.128,-0.291,0.05,0.241,0.056,0.384,0.387,0.369,0.312,0.264
0.215,0.34,0.126,-0.278,0.044,0.233,0.015,0.316,0.343,0.342,0.297,0.271
0.222,0.336,0.114,-0.279,0.053,0.225,-0.037,0.197,0.254,0.283,0.274,0.243
0.2,0.307,0.107,-0.254,0.046,0.207,-0.07,0.088,0.149,0.191,0.201,0.198
0.111,0.225,0.114,-0.168,-0.002,0.169,-0.062,0.015,0.073,0.107,0.119,0.13
0.041,0.151,0.11,-0.096,-0.035,0.13,-0.056,-0.045,0.02,0.038,0.053,0.063
-0.005,0.106,0.11,-0.05,-0.058,0.108,-0.049,-0.087,-0.031,-0.021,-0.02,-0.011
-0.026,0.083,0.109,-0.028,-0.068,0.096,-0.035,-0.107,-0.078,-0.057,-0.052,-0.06
-0.048,0.063,0.111,-0.008,-0.08,0.087,-0.022,-0.109,-0.103,-0.072,-0.073,-0.07
-0.064,0.043,0.108,0.011,-0.086,0.076,-0.01,-0.106,-0.111,-0.085,-0.093,-0.081
-0.077,0.038,0.115,0.02,-0.096,0.076,-0.01,-0.105,-0.105,-0.083,-0.087,-0.089
-0.104,0.036,0.14,0.034,-0.123,0.087,-0.009,-0.104,-0.1,-0.079,-0.084,-0.096
-0.11,0.031,0.14,0.04,-0.125,0.085,-0.006,-0.106,-0.095,-0.076,-0.082,-0.088
-0.111,0.029,0.139,0.041,-0.125,0.084,-0.005,-0.104,-0.088,-0.071,-0.075,-0.084
-0.118,0.022,0.141,0.048,-0.13,0.081,-0.006,-0.107,-0.086,-0.069,-0.079,-0.081
-0.115,0.024,0.139,0.045,-0.127,0.082,-0.01,-0.11,-0.074,-0.064,-0.089,-0.073
-0.092,0.047,0.139,0.022,-0.115,0.092,-0.01,-0.111,-0.091,-0.076,-0.093,-0.084
-0.085,0.046,0.131,0.019,-0.109,0.089,-0.012,-0.115,-0.113,-0.087,-0.096,-0.091
-0.094,0.035,0.129,0.029,-0.112,0.082,-0.016,-0.115,-0.109,-0.084,-0.099,-0.085
-0.09,0.033,0.123,0.028,-0.107,0.078,-0.014,-0.116,-0.113,-0.089,-0.103,-0.082
-0.099,0.021,0.12,0.039,-0.109,0.07,-0.016,-0.113,-0.118,-0.091,-0.105,-0.079
-0.091,0.024,0.115,0.033,-0.103,0.069,-0.013,-0.123,-0.12,-0.096,-0.105,-0.074
-0.074,0.033,0.108,0.02,-0.091,0.07,-0.02,-0.133,-0.12,-0.098,-0.105,-0.08
-0.073,0.031,0.105,0.021,-0.089,0.068,-0.04,-0.137,-0.125,-0.105,-0.105,-0.095
-0.075,0.019,0.093,0.028,-0.084,0.055,-0.04,-0.146,-0.126,-0.117,-0.105,-0.1
-0.109,0.007,0.116,0.051,-0.113,0.061,-0.04,-0.144,-0.123,-0.113,-0.1,-0.103
-0.114,0.024,0.138,0.044,-0.126,0.081,-0.04,-0.158,-0.117,-0.11,-0.1,-0.108
-0.097,0.036,0.134,0.03,-0.116,0.085,-0.04,-0.167,-0.132,-0.108,-0.1,-0.11
-0.092,0.037,0.129,0.027,-0.111,0.083,-0.039,-0.164,-0.155,-0.104,-0.1,-0.11
-0.074,0.032,0.105,0.021,-0.09,0.068,-0.033,-0.166,-0.156,-0.108,-0.1,-0.11
-0.074,0.023,0.098,0.025,-0.086,0.06,-0.03,-0.164,-0.16,-0.11,-0.099,-0.11
-0.066,0.019,0.085,0.023,-0.076,0.052,-0.024,-0.165,-0.163,-0.11,-0.103,-0.109
-0.079,0.009,0.088,0.035,-0.084,0.048,-0.04,-0.16,-0.165,-0.11,-0.105,-0.106
-0.1,0.019,0.119,0.041,-0.11,0.068,-0.052,-0.156,-0.163,-0.109,-0.105,-0.103
-0.085,0.026,0.111,0.029,-0.098,0.068,-0.042,-0.154,-0.157,-0.105,-0.105,-0.101
-0.083,0.02,0.103,0.031,-0.093,0.062,-0.04,-0.149,-0.154,-0.105,-0.105,-0.097
-0.084,0.014,0.098,0.035,-0.091,0.056,-0.035,-0.146,-0.148,-0.105,-0.105,-0.095
-0.064,0.011,0.075,0.026,-0.07,0.043,-0.03,-0.143,-0.145,-0.105,-0.105,-0.093
-0.083,0.001,0.084,0.04,-0.083,0.042,-0.036,-0.156,-0.14,-0.105,-0.105,-0.089
-0.107,0.005,0.111,0.051,-0.109,0.058,-0.041,-0.166,-0.14,-0.105,-0.105,-0.09
-0.083,0.016,0.099,0.033,-0.091,0.058,-0.039,-0.16,-0.138,-0.105,-0.105,-0.086
-0.097,-0.01,0.087,0.053,-0.092,0.038,-0.04,-0.158,-0.136,-0.105,-0.105,-0.084
-0.102,-0.024,0.078,0.063,-0.09,0.027,-0.04,-0.153,-0.133,-0.105,-0.104,-0.085
-0.063,-0.007,0.055,0.035,-0.059,0.024,-0.04,-0.15,-0.141,-0.105,-0.098,-0.079
-0.068,0.015,0.084,0.026,-0.076,0.049,-0.035,-0.15,-0.151,-0.105,-0.092,-0.076
-0.111,-0.006,0.105,0.058,-0.108,0.049,-0.026,-0.15,-0.142,-0.099,-0.086,-0.071
-0.105,-0.001,0.103,0.053,-0.104,0.051,-0.032,-0.149,-0.134,-0.092,-0.082,-0.067
-0.034,0.071,0.105,-0.018,-0.07,0.088,-0.007,-0.118,-0.126,-0.079,-0.073,-0.062
-0.023,0.093,0.116,-0.035,-0.07,0.104,0.031,-0.095,-0.119,-0.057,-0.058,-0.053
-0.002,0.092,0.094,-0.045,-0.048,0.093,0.03,-0.091,-0.105,-0.04,-0.045,-0.043
0.062,0.098,0.036,-0.08,0.013,0.066,0.001,-0.088,-0.092,-0.04,-0.036,-0.033
0.065,0.1,0.035,-0.083,0.015,0.068,-0.047,-0.082,-0.08,-0.039,-0.023,-0.034
0.048,0.087,0.039,-0.068,0.004,0.063,-0.062,-0.081,-0.083,-0.041,-0.021,-0.038
0.014,0.043,0.029,-0.029,-0.008,0.036,-0.052,-0.108,-0.113,-0.064,-0.05,-0.048
-0.026,-0.002,0.025,0.014,-0.026,0.012,-0.049,-0.124,-0.129,-0.09,-0.075,-0.067
-0.07,-0.028,0.042,0.048,-0.055,0.007,-0.041,-0.115,-0.131,-0.092,-0.073,-0.077
-0.083,-0.04,0.043,0.061,-0.063,0.001,-0.04,-0.146,-0.157,-0.111,-0.094,-0.103
-0.099,-0.056,0.042,0.077,-0.071,-0.007,-0.041,-0.152,-0.147,-0.102,-0.091,-0.103
-0.111,-0.072,0.039,0.091,-0.075,-0.016,-0.039,-0.139,-0.15,-0.104,-0.093,-0.108
-0.117,-0.076,0.041,0.096,-0.079,-0.017,-0.042,-0.14,-0.155,-0.111,-0.094,-0.112
-0.147,-0.1,0.046,0.124,-0.097,-0.027,-0.038,-0.113,-0.138,-0.092,-0.08,-0.096
-0.13,-0.097,0.032,0.113,-0.081,-0.032,-0.041,-0.123,-0.168,-0.125,-0.104,-0.117
-0.115,-0.087,0.028,0.101,-0.072,-0.029,-0.022,-0.071,-0.108,-0.067,-0.059,-0.083
-0.099,-0.091,0.008,0.095,-0.053,-0.041,-0.011,-0.087,-0.166,-0.115,-0.118,-0.119
-0.195,-0.111,0.084,0.153,-0.139,-0.013,0.166,0.177,0.025,-0.01,-0.067,-0.142
-0.176,-0.233,-0.057,0.205,-0.059,-0.145,0.519,0.718,0.309,0.074,-0.118,-0.267
0.422,0.32,-0.102,-0.371,0.262,0.109,0.277,0.466,0.66,0.715,0.588,0.387
0.714,0.983,0.269,-0.848,0.222,0.625,-0.502,-0.679,0.495,1.125,1.386,1.363
0.296,0.52,0.224,-0.408,0.036,0.372,-0.934,-1.411,-0.79,-0.253,0.261,0.652
0.022,0.048,0.026,-0.035,-0.002,0.037,-0.734,-0.858,-0.824,-0.636,-0.327,-0.024
-0.047,0.014,0.061,0.016,-0.054,0.037,-0.257,-0.151,-0.162,-0.127,-0.051,0.011
-0.081,-0.021,0.06,0.05,-0.07,0.019,-0.04,0.076,-0.084,-0.092,-0.086,-0.08
-0.087,-0.03,0.057,0.058,-0.071,0.014,-0.009,0.143,0.035,0.024,-0.011,-0.033
-0.096,-0.07,0.026,0.082,-0.061,-0.022,0.019,0.123,0.02,-0.016,-0.058,-0.076
-0.1,-0.078,0.022,0.089,-0.061,-0.028,0.039,0.159,0.055,0.018,-0.02,-0.051
-0.087,-0.079,0.009,0.083,-0.048,-0.035,0.059,0.166,0.06,0.014,-0.014,-0.044
-0.098,-0.093,0.005,0.096,-0.051,-0.044,0.058,0.174,0.062,0.044,-0.013,-0.05
-0.114,-0.087,0.027,0.1,-0.07,-0.03,0.08,0.19,0.083,0.06,-0.005,-0.03
-0.076,-0.075,0.001,0.075,-0.038,-0.037,0.081,0.197,0.087,0.046,0.007,-0.034
-0.064,-0.069,-0.005,0.067,-0.029,-0.036,0.078,0.225,0.133,0.087,0.054,-0.016
-0.047,-0.06,-0.013,0.054,-0.017,-0.036,0.082,0.241,0.134,0.087,0.045,-0.016
-0.046,-0.055,-0.009,0.051,-0.018,-0.032,0.078,0.245,0.137,0.1,0.053,-0.001
-0.031,-0.049,-0.019,0.04,-0.006,-0.034,0.084,0.253,0.17,0.109,0.077,0.003
-0.004,-0.042,-0.039,0.023,0.018,-0.041,0.085,0.266,0.186,0.127,0.098,0.014
-0.022,-0.046,-0.024,0.035,0.001,-0.035,0.085,0.281,0.206,0.138,0.098,0.022
-0.029,-0.053,-0.024,0.041,-0.002,-0.038,0.084,0.308,0.234,0.15,0.101,0.034
-0.016,-0.031,-0.016,0.024,0.0,-0.023,0.085,0.333,0.272,0.186,0.124,0.063
-0.014,-0.025,-0.01,0.02,-0.002,-0.017,0.085,0.348,0.305,0.203,0.146,0.075
0.023,-0.002,-0.025,-0.011,0.024,-0.013,0.093,0.383,0.332,0.222,0.171,0.087
0.09,0.063,-0.027,-0.076,0.058,0.018,0.098,0.41,0.387,0.262,0.194,0.108
0.08,0.065,-0.015,-0.072,0.048,0.025,0.089,0.442,0.421,0.295,0.228,0.144
0.11,0.115,0.005,-0.112,0.052,0.06,0.083,0.48,0.446,0.333,0.272,0.177
0.152,0.172,0.02,-0.162,0.066,0.096,0.075,0.508,0.494,0.381,0.315,0.226
0.161,0.169,0.008,-0.165,0.076,0.088,0.068,0.54,0.544,0.43,0.362,0.274
0.192,0.211,0.019,-0.201,0.086,0.115,0.06,0.54,0.548,0.447,0.383,0.289
0.164,0.214,0.05,-0.189,0.056,0.132,0.054,0.51,0.527,0.446,0.392,0.319
0.146,0.194,0.048,-0.171,0.049,0.121,0.034,0.448,0.493,0.421,0.386,0.335
0.161,0.192,0.031,-0.177,0.065,0.111,-0.017,0.343,0.413,0.353,0.344,0.309
0.15,0.139,-0.011,-0.144,0.08,0.064,-0.047,0.255,0.31,0.263,0.269,0.26
0.104,0.058,-0.046,-0.081,0.075,0.006,-0.036,0.199,0.229,0.165,0.174,0.167
0.013,-0.011,-0.024,-0.001,0.018,-0.017,-0.014,0.142,0.181,0.089,0.093,0.075
-0.024,-0.057,-0.033,0.041,0.004,-0.045,-0.005,0.116,0.13,0.037,0.034,0.031
-0.03,-0.078,-0.048,0.054,0.009,-0.063,0.006,0.111,0.091,0.012,-0.002,-0.01
-0.074,-0.112,-0.038,0.093,-0.017,-0.075,0.031,0.101,0.074,-0.001,-0.032,-0.055
-0.085,-0.133,-0.048,0.109,-0.018,-0.09,0.042,0.096,0.065,-0.018,-0.036,-0.06
-0.106,-0.136,-0.03,0.121,-0.037,-0.083,0.039,0.084,0.06,-0.027,-0.036,-0.062
-0.086,-0.134,-0.047,0.11,-0.019,-0.09,0.04,0.094,0.06,-0.025,-0.059,-0.074
-0.066,-0.137,-0.071,0.102,0.003,-0.104,0.04,0.106,0.06,-0.025,-0.055,-0.068
-0.12,-0.158,-0.038,0.139,-0.041,-0.098,0.04,0.097,0.06,-0.023,-0.046,-0.058
-0.132,-0.159,-0.027,0.146,-0.052,-0.093,0.039,0.095,0.06,-0.02,-0.042,-0.055
-0.103,-0.151,-0.049,0.127,-0.027,-0.1,0.034,0.09,0.061,-0.02,-0.033,-0.05
-0.089,-0.133,-0.044,0.111,-0.022,-0.088,0.036,0.084,0.065,-0.017,-0.03,-0.048
-0.085,-0.134,-0.048,0.11,-0.018,-0.091,0.032,0.09,0.065,-0.014,-0.03,-0.043
-0.069,-0.142,-0.073,0.105,0.002,-0.107,0.03,0.095,0.065,-0.016,-0.028,-0.04
-0.071,-0.129,-0.058,0.1,-0.006,-0.094,0.03,0.091,0.065,-0.015,-0.024,-0.051
-0.08,-0.132,-0.051,0.106,-0.015,-0.091,0.026,0.087,0.065,-0.016,-0.026,-0.056
-0.051,-0.121,-0.07,0.086,0.01,-0.095,0.021,0.084,0.061,-0.032,-0.027,-0.054
-0.053,-0.125,-0.072,0.089,0.01,-0.099,0.016,0.081,0.055,-0.042,-0.04,-0.055
-0.106,-0.161,-0.055,0.134,-0.025,-0.108,0.013,0.076,0.049,-0.044,-0.051,-0.055
-0.113,-0.167,-0.054,0.14,-0.029,-0.11,0.006,0.076,0.043,-0.049,-0.05,-0.055
-0.097,-0.163,-0.065,0.13,-0.016,-0.114,0.01,0.08,0.04,-0.05,-0.049,-0.051
-0.087,-0.162,-0.075,0.125,-0.006,-0.118,0.021,0.08,0.038,-0.05,-0.045,-0.048
-0.074,-0.158,-0.084,0.116,0.005,-0.12,0.016,0.08,0.034,-0.05,-0.046,-0.046
-0.075,-0.163,-0.088,0.12,0.007,-0.125,0.013,0.08,0.032,-0.05,-0.043,-0.042
-0.082,-0.171,-0.088,0.126,0.003,-0.129,0.01,0.08,0.029,-0.05,-0.055,-0.041
-0.095,-0.172,-0.076,0.134,-0.009,-0.124,0.004,0.08,0.035,-0.05,-0.067,-0.037
-0.109,-0.168,-0.059,0.138,-0.025,-0.113,0.01,0.08,0.038,-0.049,-0.064,-0.035
-0.104,-0.167,-0.064,0.136,-0.02,-0.115,0.017,0.08,0.035,-0.051,-0.065,-0.034
-0.086,-0.162,-0.076,0.124,-0.004,-0.119,0.005,0.08,0.035,-0.048,-0.065,-0.037
-0.096,-0.171,-0.074,0.134,-0.01,-0.123,-0.008,0.079,0.032,-0.056,-0.065,-0.05
-0.113,-0.188,-0.075,0.151,-0.018,-0.131,0.018,0.081,0.03,-0.065,-0.065,-0.05
-0.108,-0.183,-0.075,0.146,-0.016,-0.128,0.033,0.079,0.03,-0.066,-0.065,-0.05
-0.109,-0.185,-0.075,0.148,-0.016,-0.13,0.027,0.081,0.027,-0.063,-0.065,-0.05
-0.112,-0.188,-0.076,0.15,-0.018,-0.132,0.026,0.08,0.018,-0.06,-0.065,-0.05
-0.099,-0.192,-0.094,0.146,-0.002,-0.143,0.021,0.08,0.014,-0.061,-0.065,-0.049
-0.091,-0.193,-0.102,0.142,0.006,-0.147,0.021,0.082,0.003,-0.055,-0.066,-0.042
-0.119,-0.198,-0.079,0.159,-0.019,-0.138,0.017,0.065,0.008,-0.063,-0.071,-0.038
-0.109,-0.185,-0.075,0.147,-0.016,-0.13,0.042,0.081,0.048,-0.041,-0.059,-0.031
-0.06,-0.138,-0.078,0.099,0.009,-0.108,0.049,0.097,0.061,-0.025,-0.038,-0.028
-0.068,-0.128,-0.059,0.098,-0.004,-0.093,0.055,0.109,0.069,-0.03,-0.026,-0.017
-0.064,-0.122,-0.058,0.094,-0.003,-0.09,0.102,0.137,0.096,0.004,-0.023,-0.004
-0.026,-0.106,-0.08,0.067,0.027,-0.093,0.05,0.137,0.095,0.021,-0.008,0.011
0.009,-0.097,-0.106,0.044,0.058,-0.102,-0.012,0.147,0.087,0.036,0.016,0.031
0.037,-0.079,-0.116,0.021,0.077,-0.097,0.011,0.147,0.081,0.035,0.015,0.021
0.006,-0.102,-0.108,0.048,0.058,-0.105,0.015,0.108,0.057,0.0,0.007,0.014
-0.047,-0.142,-0.095,0.095,0.024,-0.118,0.015,0.074,0.02,-0.036,-0.026,-0.012
-0.087,-0.158,-0.071,0.123,-0.008,-0.114,0.013,0.07,0.018,-0.035,-0.039,-0.035
-0.089,-0.175,-0.086,0.132,-0.001,-0.13,0.01,0.063,0.002,-0.064,-0.07,-0.055
-0.091,-0.154,-0.063,0.123,-0.014,-0.109,0.01,0.057,-0.018,-0.087,-0.089,-0.072
-0.125,-0.184,-0.059,0.155,-0.033,-0.121,0.014,0.053,-0.016,-0.078,-0.074,-0.067
-0.121,-0.209,-0.087,0.165,-0.017,-0.148,0.024,0.04,-0.028,-0.087,-0.081,-0.076
-0.114,-0.179,-0.064,0.147,-0.025,-0.121,0.028,0.043,-0.007,-0.06,-0.054,-0.061
-0.112,-0.194,-0.082,0.153,-0.015,-0.138,0.023,0.022,-0.04,-0.091,-0.083,-0.083
-0.123,-0.171,-0.047,0.147,-0.038,-0.109,0.01,0.062,-0.01,-0.042,-0.035,-0.051
-0.111,-0.179,-0.068,0.145,-0.021,-0.123,0.026,0.049,-0.036,-0.09,-0.081,-0.074
-0.148,-0.201,-0.053,0.175,-0.047,-0.127,0.14,0.209,0.079,-0.028,-0.07,-0.108
-0.154,-0.319,-0.165,0.237,0.006,-0.242,0.454,0.768,0.368,0.053,-0.144,-0.27
0.249,0.114,-0.135,-0.181,0.192,-0.011,0.401,0.711,0.78,0.677,0.496,0.282
0.446,0.933,0.487,-0.69,-0.02,0.71,-0.242,-0.406,0.699,1.29,1.527,1.451
0.112,0.609,0.497,-0.361,-0.193,0.553,-0.686,-1.257,-0.584,-0.07,0.457,0.845
-0.12,-0.017,0.103,0.068,-0.111,0.043,-0.678,-0.922,-0.904,-0.784,-0.45,-0.076
-0.161,-0.097,0.064,0.129,-0.112,-0.016,-0.323,-0.211,-0.233,-0.226,-0.117,-0.017
-0.122,-0.097,0.025,0.109,-0.073,-0.036,-0.033,0.137,0.01,-0.1,-0.076,-0.05
-0.075,-0.092,-0.017,0.083,-0.029,-0.054,0.0,0.203,0.112,0.007,-0.008,-0.02
-0.046,-0.116,-0.069,0.081,0.012,-0.092,0.048,0.206,0.093,-0.006,-0.025,-0.031
-0.041,-0.103,-0.062,0.072,0.011,-0.082,0.069,0.22,0.126,0.022,-0.006,-0.027
-0.044,-0.1,-0.056,0.072,0.006,-0.078,0.075,0.213,0.129,0.033,0.003,-0.02
-0.041,-0.099,-0.058,0.07,0.008,-0.078,0.08,0.216,0.138,0.033,0.0,-0.026
-0.04,-0.088,-0.048,0.064,0.004,-0.068,0.079,0.214,0.15,0.053,0.019,0.005
-0.045,-0.096,-0.052,0.07,0.004,-0.074,0.081,0.237,0.155,0.066,0.025,-0.001
-0.043,-0.094,-0.051,0.068,0.004,-0.072,0.081,0.253,0.181,0.099,0.053,-0.02
-0.013,-0.082,-0.069,0.048,0.028,-0.075,0.082,0.248,0.173,0.084,0.041,-0.006
-0.018,-0.082,-0.064,0.051,0.023,-0.073,0.079,0.25,0.184,0.093,0.046,0.029
-0.026,-0.079,-0.053,0.052,0.014,-0.066,0.08,0.264,0.177,0.098,0.061,0.025
-0.013,-0.07,-0.057,0.041,0.022,-0.063,0.074,0.283,0.185,0.114,0.083,0.033
0.005,-0.065,-0.069,0.03,0.037,-0.067,0.076,0.281,0.21,0.126,0.086,0.036
0.022,-0.049,-0.071,0.014,0.047,-0.06,0.072,0.285,0.23,0.143,0.098,0.05
0.029,-0.037,-0.067,0.004,0.048,-0.052,0.07,0.294,0.248,0.168,0.115,0.062
0.037,-0.023,-0.059,-0.007,0.048,-0.041,0.069,0.308,0.26,0.183,0.129,0.074
0.038,-0.013,-0.051,-0.012,0.045,-0.032,0.073,0.343,0.297,0.215,0.167,0.111
0.045,0.002,-0.043,-0.024,0.044,-0.02,0.088,0.368,0.326,0.246,0.19,0.129
0.062,0.025,-0.036,-0.043,0.049,-0.006,0.083,0.387,0.342,0.274,0.221,0.149
0.098,0.058,-0.041,-0.078,0.069,0.008,0.076,0.419,0.382,0.306,0.257,0.179
0.167,0.105,-0.061,-0.136,0.114,0.022,0.068,0.431,0.408,0.34,0.294,0.222
0.194,0.122,-0.072,-0.158,0.133,0.025,0.061,0.434,0.421,0.36,0.334,0.254
0.19,0.125,-0.065,-0.157,0.127,0.03,0.053,0.437,0.411,0.37,0.351,0.278
0.216,0.151,-0.065,-0.183,0.14,0.043,0.04,0.413,0.396,0.375,0.376,0.305
0.223,0.167,-0.057,-0.195,0.14,0.055,0.01,0.347,0.372,0.341,0.368,0.296
0.224,0.149,-0.074,-0.186,0.149,0.037,-0.026,0.246,0.282,0.293,0.319,0.281
0.196,0.1,-0.096,-0.148,0.146,0.002,-0.025,0.161,0.189,0.211,0.25,0.23
0.102,0.015,-0.087,-0.058,0.094,-0.035,-0.009,0.112,0.124,0.126,0.164,0.148
0.038,-0.045,-0.082,0.004,0.06,-0.063,0.0,0.073,0.069,0.065,0.088,0.08
0.008,-0.071,-0.08,0.031,0.044,-0.075,0.017,0.047,0.027,0.005,0.029,0.023
-0.032,-0.112,-0.08,0.072,0.025,-0.096,0.036,0.039,0.002,-0.017,-0.005,-0.003
-0.059,-0.135,-0.076,0.097,0.009,-0.105,0.04,0.041,-0.017,-0.032,-0.015,-0.033
-0.08,-0.155,-0.074,0.118,-0.003,-0.114,0.05,0.037,-0.031,-0.052,-0.022,-0.068
-0.093,-0.168,-0.075,0.131,-0.008,-0.121,0.062,0.034,-0.03,-0.048,-0.034,-0.071
-0.089,-0.159,-0.07,0.124,-0.01,-0.114,0.059,0.035,-0.03,-0.045,-0.038,-0.07
-0.091,-0.158,-0.067,0.125,-0.012,-0.112,0.063,0.031,-0.03,-0.043,-0.035,-0.07
-0.091,-0.154,-0.063,0.123,-0.014,-0.108,0.065,0.029,-0.03,-0.039,-0.035,-0.07
-0.089,-0.15,-0.061,0.12,-0.014,-0.105,0.065,0.03,-0.029,-0.043,-0.033,-0.069
-0.092,-0.146,-0.053,0.12,-0.019,-0.099,0.061,0.029,-0.025,-0.045,-0.029,-0.062
-0.075,-0.141,-0.066,0.108,-0.004,-0.103,0.052,0.03,-0.025,-0.047,-0.03,-0.056
-0.059,-0.142,-0.083,0.101,0.012,-0.113,0.046,0.029,-0.025,-0.05,-0.034,-0.049
-0.062,-0.146,-0.084,0.104,0.012,-0.115,0.038,0.02,-0.025,-0.051,-0.035,-0.043
-0.059,-0.149,-0.09,0.104,0.016,-0.12,0.031,0.012,-0.025,-0.054,-0.038,-0.034
-0.065,-0.15,-0.086,0.108,0.01,-0.118,0.024,0.003,-0.029,-0.058,-0.04,-0.044
-0.07,-0.15,-0.08,0.11,0.005,-0.115,0.019,-0.004,-0.036,-0.061,-0.043,-0.061
-0.075,-0.15,-0.075,0.113,0.0,-0.112,0.021,-0.008,-0.045,-0.064,-0.051,-0.059
-0.08,-0.15,-0.07,0.116,-0.005,-0.11,0.017,-0.011,-0.055,-0.067,-0.05,-0.064
-0.085,-0.148,-0.063,0.116,-0.011,-0.105,0.015,-0.015,-0.065,-0.074,-0.05,-0.065
-0.083,-0.143,-0.06,0.113,-0.011,-0.101,0.015,-0.018,-0.071,-0.081,-0.049,-0.071
-0.056,-0.138,-0.082,0.097,0.013,-0.109,0.011,-0.022,-0.069,-0.087,-0.053,-0.076
-0.054,-0.135,-0.082,0.095,0.014,-0.108,0.01,-0.033,-0.087,-0.093,-0.056,-0.074
-0.053,-0.126,-0.073,0.09,0.01,-0.099,0.009,-0.042,-0.097,-0.095,-0.054,-0.073
-0.082,-0.152,-0.069,0.117,-0.006,-0.11,0.006,-0.045,-0.094,-0.098,-0.056,-0.069
-0.119,-0.184,-0.065,0.152,-0.027,-0.124,0.004,-0.048,-0.099,-0.101,-0.053,-0.071
-0.09,-0.167,-0.077,0.129,-0.006,-0.121,0.007,-0.05,-0.1,-0.104,-0.066,-0.072
-0.086,-0.158,-0.072,0.122,-0.006,-0.115,0.012,-0.054,-0.1,-0.105,-0.077,-0.08
-0.082,-0.151,-0.069,0.116,-0.006,-0.11,0.022,-0.055,-0.095,-0.1,-0.074,-0.091
-0.054,-0.146,-0.092,0.1,0.019,-0.118,0.035,-0.058,-0.092,-0.097,-0.073,-0.086
-0.06,-0.14,-0.08,0.1,0.01,-0.11,0.028,-0.062,-0.088,-0.093,-0.069,-0.083
-0.072,-0.134,-0.062,0.103,-0.004,-0.097,0.02,-0.067,-0.085,-0.09,-0.07,-0.08
-0.077,-0.168,-0.092,0.123,0.008,-0.129,0.016,-0.07,-0.079,-0.084,-0.066,-0.075
-0.074,-0.166,-0.091,0.12,0.009,-0.128,0.004,-0.07,-0.086,-0.089,-0.064,-0.078
-0.075,-0.147,-0.072,0.111,-0.001,-0.109,0.016,-0.069,-0.102,-0.101,-0.066,-0.08
-0.076,-0.152,-0.076,0.115,0.0,-0.114,0.031,-0.07,-0.098,-0.095,-0.064,-0.084
-0.072,-0.146,-0.074,0.109,0.001,-0.11,0.03,-0.07,-0.095,-0.09,-0.066,-0.085
-0.075,-0.144,-0.068,0.11,-0.003,-0.106,0.03,-0.065,-0.092,-0.086,-0.063,-0.079
-0.064,-0.137,-0.072,0.1,0.004,-0.104,0.029,-0.056,-0.09,-0.081,-0.056,-0.076
-0.071,-0.137,-0.065,0.104,-0.002,-0.101,0.031,-0.047,-0.087,-0.077,-0.047,-0.071
-0.038,-0.098,-0.06,0.068,0.012,-0.079,0.028,-0.039,-0.075,-0.07,-0.039,-0.068
-0.021,-0.071,-0.051,0.046,0.015,-0.061,0.042,-0.003,-0.061,-0.06,-0.031,-0.061
-0.053,-0.073,-0.02,0.063,-0.016,-0.047,0.071,0.011,-0.045,-0.055,-0.024,-0.047
0.032,-0.027,-0.06,-0.002,0.046,-0.044,0.061,0.001,-0.02,-0.055,-0.021,-0.033
0.056,-0.044,-0.1,-0.006,0.078,-0.072,0.002,-0.016,-0.03,-0.05,-0.018,-0.025
0.056,-0.053,-0.109,-0.001,0.083,-0.081,-0.042,-0.041,-0.053,-0.051,-0.018,-0.023
0.08,-0.029,-0.109,-0.025,0.095,-0.069,-0.035,-0.035,-0.048,-0.049,-0.011,-0.017
-0.033,-0.129,-0.095,0.081,0.031,-0.112,-0.03,-0.067,-0.086,-0.079,-0.042,-0.052
-0.08,-0.172,-0.092,0.126,0.006,-0.132,-0.025,-0.089,-0.106,-0.098,-0.064,-0.076
-0.045,-0.132,-0.087,0.088,0.021,-0.109,-0.018,-0.086,-0.1,-0.094,-0.051,-0.067
-0.069,-0.163,-0.094,0.116,0.013,-0.128,-0.014,-0.095,-0.117,-0.115,-0.072,-0.074
-0.082,-0.165,-0.083,0.123,0.001,-0.124,-0.008,-0.084,-0.105,-0.105,-0.073,-0.061
-0.046,-0.146,-0.1,0.096,0.027,-0.122,-0.002,-0.097,-0.115,-0.118,-0.09,-0.07
-0.079,-0.144,-0.065,0.112,-0.007,-0.104,0.002,-0.082,-0.098,-0.085,-0.067,-0.063
-0.128,-0.181,-0.053,0.154,-0.037,-0.116,0.012,-0.1,-0.142,-0.108,-0.093,-0.098
-0.112,-0.174,-0.062,0.143,-0.024,-0.118,0.0,-0.077,-0.099,-0.071,-0.068,-0.086
-0.113,-0.174,-0.062,0.144,-0.025,-0.118,-0.011,-0.082,-0.119,-0.109,-0.092,-0.087
-0.123,-0.141,-0.018,0.132,-0.052,-0.08,0.085,0.02,-0.059,-0.08,-0.093,-0.123
-0.217,-0.231,-0.014,0.224,-0.101,-0.122,0.439,0.517,0.225,0.035,-0.108,-0.225
0.14,-0.067,-0.207,-0.037,0.174,-0.137,0.52,0.625,0.456,0.283,0.119,-0.045
0.732,0.768,0.036,-0.75,0.348,0.402,-0.23,-0.267,0.703,1.157,1.272,1.107
0.557,0.732,0.175,-0.645,0.191,0.454,-0.928,-1.349,-0.319,0.371,0.883,1.15
0.181,0.093,-0.089,-0.137,0.135,0.002,-0.899,-1.227,-1.076,-0.796,-0.322,0.114
0.003,-0.052,-0.056,0.025,0.03,-0.053,-0.435,-0.395,-0.373,-0.303,-0.14,-0.037
-0.037,-0.073,-0.036,0.055,0.0,-0.054,-0.05,0.005,-0.075,-0.114,-0.058,-0.05
-0.011,-0.071,-0.059,0.041,0.024,-0.064,0.021,0.105,0.006,-0.062,-0.036,-0.058
-0.066,-0.092,-0.026,0.08,-0.02,-0.059,0.049,0.1,0.017,-0.011,-0.011,-0.037
-0.035,-0.082,-0.046,0.059,0.006,-0.064,0.081,0.126,0.002,-0.035,-0.042,-0.071
-0.066,-0.136,-0.07,0.101,0.002,-0.103,0.088,0.139,0.042,0.008,-0.008,-0.062
-0.085,-0.146,-0.061,0.116,-0.012,-0.103,0.093,0.13,0.039,-0.016,-0.035,-0.072
-0.041,-0.1,-0.058,0.07,0.009,-0.079,0.087,0.134,0.082,0.015,-0.007,-0.045
-0.036,-0.102,-0.066,0.07,0.015,-0.084,0.092,0.127,0.069,0.022,-0.018,-0.054
-0.021,-0.087,-0.066,0.054,0.023,-0.077,0.094,0.141,0.079,0.046,0.0,-0.041
-0.017,-0.087,-0.071,0.052,0.027,-0.079,0.1,0.147,0.081,0.039,0.009,-0.036
-0.004,-0.068,-0.064,0.036,0.03,-0.066,0.106,0.144,0.081,0.039,0.022,-0.03
-0.009,-0.067,-0.058,0.038,0.024,-0.062,0.09,0.171,0.108,0.065,0.046,-0.02
-0.032,-0.082,-0.05,0.057,0.01,-0.066,0.086,0.197,0.132,0.091,0.064,-0.015
0.018,-0.027,-0.045,0.005,0.032,-0.036,0.098,0.195,0.142,0.097,0.069,0.0
0.038,0.003,-0.034,-0.02,0.036,-0.015,0.093,0.197,0.14,0.094,0.059,0.009
0.058,0.011,-0.046,-0.034,0.052,-0.017,0.098,0.221,0.169,0.121,0.087,0.035
0.089,0.03,-0.059,-0.059,0.074,-0.014,0.119,0.257,0.215,0.154,0.106,0.05
0.043,-0.005,-0.048,-0.019,0.045,-0.026,0.119,0.276,0.224,0.169,0.12,0.06
0.056,0.013,-0.043,-0.035,0.049,-0.015,0.111,0.307,0.258,0.205,0.159,0.099
0.104,0.068,-0.036,-0.085,0.069,0.016,0.134,0.346,0.298,0.238,0.185,0.122
0.141,0.107,-0.034,-0.123,0.087,0.036,0.146,0.382,0.335,0.275,0.224,0.144
0.147,0.115,-0.032,-0.131,0.089,0.041,0.136,0.427,0.368,0.313,0.256,0.182
0.154,0.127,-0.027,-0.141,0.09,0.05,0.131,0.438,0.395,0.348,0.29,0.213
0.207,0.179,-0.028,-0.193,0.117,0.076,0.127,0.423,0.414,0.37,0.324,0.247
0.221,0.204,-0.017,-0.212,0.119,0.093,0.113,0.415,0.4,0.371,0.331,0.279
0.233,0.2,-0.033,-0.216,0.133,0.084,0.082,0.356,0.357,0.354,0.329,0.286
0.249,0.184,-0.065,-0.216,0.157,0.059,0.046,0.245,0.281,0.3,0.315,0.286
0.224,0.143,-0.081,-0.184,0.152,0.031,0.004,0.136,0.186,0.225,0.252,0.244
0.203,0.096,-0.107,-0.149,0.155,-0.005,-0.012,0.053,0.079,0.122,0.16,0.158
0.126,0.029,-0.097,-0.077,0.111,-0.033,0.001,-0.001,0.008,0.044,0.09,0.089
0.022,-0.072,-0.093,0.025,0.058,-0.082,0.01,-0.043,-0.037,-0.014,0.02,0.025
0.005,-0.087,-0.092,0.041,0.049,-0.089,0.025,-0.057,-0.075,-0.054,-0.034,-0.025
-0.031,-0.104,-0.074,0.068,0.022,-0.089,0.039,-0.067,-0.084,-0.069,-0.057,-0.047
-0.046,-0.15,-0.105,0.098,0.03,-0.128,0.041,-0.069,-0.094,-0.071,-0.064,-0.062
-0.037,-0.127,-0.09,0.082,0.027,-0.108,0.04,-0.072,-0.095,-0.073,-0.063,-0.071
-0.074,-0.144,-0.07,0.109,-0.002,-0.106,0.039,-0.089,-0.089,-0.089,-0.06,-0.07
-0.068,-0.147,-0.078,0.108,0.005,-0.112,0.036,-0.086,-0.088,-0.086,-0.059,-0.067
-0.063,-0.14,-0.076,0.102,0.006,-0.108,0.033,-0.079,-0.081,-0.08,-0.06,-0.065
-0.063,-0.145,-0.082,0.104,0.01,-0.113,0.04,-0.075,-0.081,-0.075,-0.06,-0.065
-0.063,-0.147,-0.084,0.106,0.011,-0.115,0.05,-0.068,-0.088,-0.068,-0.06,-0.065
-0.043,-0.129,-0.087,0.086,0.022,-0.108,0.042,-0.066,-0.091,-0.064,-0.064,-0.065
-0.007,-0.097,-0.09,0.052,0.042,-0.093,0.036,-0.073,-0.089,-0.06,-0.065,-0.066
-0.05,-0.139,-0.088,0.095,0.019,-0.113,0.029,-0.079,-0.092,-0.06,-0.065,-0.064
-0.084,-0.146,-0.062,0.115,-0.01,-0.104,0.023,-0.081,-0.1,-0.06,-0.065,-0.066
-0.066,-0.121,-0.054,0.094,-0.006,-0.087,0.017,-0.078,-0.101,-0.065,-0.065,-0.063
-0.072,-0.135,-0.063,0.103,-0.004,-0.099,0.015,-0.086,-0.099,-0.063,-0.065,-0.06
-0.086,-0.145,-0.059,0.115,-0.013,-0.102,0.031,-0.1,-0.101,-0.07,-0.065,-0.06
-0.07,-0.13,-0.06,0.1,-0.005,-0.095,0.037,-0.1,-0.099,-0.083,-0.065,-0.058
-0.057,-0.117,-0.06,0.087,0.002,-0.088,0.031,-0.097,-0.102,-0.084,-0.065,-0.055
-0.074,-0.133,-0.059,0.104,-0.007,-0.096,0.029,-0.102,-0.118,-0.086,-0.081,-0.054
-0.082,-0.143,-0.061,0.112,-0.01,-0.101,0.024,-0.122,-0.133,-0.085,-0.086,-0.072
-0.071,-0.127,-0.056,0.099,-0.007,-0.091,0.021,-0.132,-0.135,-0.085,-0.078,-0.082
-0.07,-0.122,-0.052,0.096,-0.009,-0.087,0.017,-0.132,-0.135,-0.085,-0.078,-0.079
-0.07,-0.116,-0.046,0.093,-0.012,-0.081,0.015,-0.136,-0.134,-0.084,-0.071,-0.081
-0.062,-0.104,-0.042,0.084,-0.01,-0.073,0.011,-0.139,-0.136,-0.088,-0.072,-0.08
-0.091,-0.129,-0.038,0.111,-0.027,-0.084,0.009,-0.14,-0.145,-0.096,-0.085,-0.08
-0.09,-0.123,-0.033,0.107,-0.028,-0.078,0.005,-0.134,-0.145,-0.091,-0.082,-0.075
-0.074,-0.127,-0.053,0.1,-0.01,-0.09,0.006,-0.129,-0.144,-0.086,-0.076,-0.071
-0.105,-0.142,-0.037,0.124,-0.034,-0.089,0.02,-0.124,-0.146,-0.084,-0.073,-0.069
-0.1,-0.135,-0.034,0.118,-0.032,-0.084,0.02,-0.118,-0.144,-0.076,-0.067,-0.064
-0.09,-0.153,-0.063,0.121,-0.013,-0.108,0.02,-0.112,-0.146,-0.079,-0.066,-0.06
-0.082,-0.129,-0.047,0.106,-0.017,-0.088,0.02,-0.111,-0.149,-0.085,-0.072,-0.062
-0.068,-0.112,-0.044,0.09,-0.012,-0.078,0.019,-0.117,-0.151,-0.086,-0.08,-0.069
-0.08,-0.126,-0.046,0.104,-0.017,-0.086,0.021,-0.119,-0.149,-0.084,-0.075,-0.065
-0.058,-0.103,-0.045,0.081,-0.006,-0.074,0.018,-0.125,-0.149,-0.086,-0.073,-0.066
-0.053,-0.095,-0.042,0.074,-0.005,-0.068,0.024,-0.112,-0.142,-0.083,-0.065,-0.064
-0.07,-0.134,-0.063,0.102,-0.004,-0.098,-0.001,-0.116,-0.149,-0.087,-0.07,-0.068
-0.063,-0.148,-0.085,0.105,0.011,-0.116,-0.02,-0.143,-0.177,-0.105,-0.102,-0.093
-0.076,-0.146,-0.07,0.111,-0.003,-0.108,-0.005,-0.132,-0.173,-0.097,-0.098,-0.09
-0.061,-0.125,-0.064,0.093,0.002,-0.095,0.012,-0.122,-0.164,-0.087,-0.088,-0.082
-0.067,-0.119,-0.051,0.093,-0.008,-0.085,0.019,-0.121,-0.154,-0.085,-0.082,-0.076
-0.077,-0.12,-0.043,0.099,-0.017,-0.081,0.009,-0.115,-0.156,-0.081,-0.073,-0.069
-0.04,-0.068,-0.028,0.055,-0.006,-0.048,0.034,-0.108,-0.152,-0.073,-0.059,-0.064
-0.02,-0.041,-0.022,0.031,0.001,-0.031,0.05,-0.086,-0.122,-0.053,-0.039,-0.049
0.035,-0.017,-0.052,-0.009,0.044,-0.034,0.057,-0.06,-0.109,-0.033,-0.031,-0.034
0.041,-0.016,-0.057,-0.012,0.049,-0.037,0.054,-0.051,-0.098,-0.023,-0.022,-0.026
0.05,-0.025,-0.074,-0.012,0.062,-0.049,0.02,-0.047,-0.094,-0.006,-0.014,-0.014
0.095,-0.001,-0.096,-0.047,0.096,-0.048,0.006,-0.059,-0.094,0.009,0.003,0.009
0.069,-0.014,-0.083,-0.027,0.076,-0.049,-0.004,-0.078,-0.105,-0.019,-0.003,0.007
0.054,-0.043,-0.097,-0.005,0.076,-0.07,-0.011,-0.099,-0.133,-0.047,-0.044,-0.027
-0.003,-0.074,-0.07,0.039,0.034,-0.071,-0.017,-0.127,-0.157,-0.074,-0.063,-0.057
-0.043,-0.078,-0.035,0.06,-0.003,-0.056,-0.018,-0.127,-0.156,-0.077,-0.057,-0.061
-0.034,-0.097,-0.064,0.066,0.016,-0.08,-0.013,-0.144,-0.177,-0.086,-0.079,-0.074
-0.078,-0.136,-0.058,0.107,-0.01,-0.097,-0.012,-0.14,-0.17,-0.081,-0.079,-0.08
-0.075,-0.135,-0.061,0.105,-0.007,-0.098,-0.008,-0.141,-0.181,-0.098,-0.103,-0.096
-0.036,-0.09,-0.054,0.064,0.009,-0.072,-0.006,-0.139,-0.168,-0.085,-0.091,-0.086
-0.044,-0.098,-0.055,0.071,0.006,-0.076,-0.004,-0.138,-0.168,-0.088,-0.094,-0.09
-0.069,-0.124,-0.056,0.097,-0.006,-0.09,-0.005,-0.145,-0.179,-0.092,-0.103,-0.095
-0.102,-0.145,-0.043,0.124,-0.03,-0.094,-0.005,-0.13,-0.142,-0.066,-0.076,-0.079
-0.095,-0.146,-0.051,0.121,-0.022,-0.099,0.021,-0.114,-0.167,-0.103,-0.125,-0.115
-0.173,-0.172,0.0,0.173,-0.086,-0.086,0.291,0.303,0.089,0.047,-0.082,-0.155
-0.034,-0.191,-0.157,0.113,0.061,-0.174,0.555,0.689,0.327,0.154,-0.073,-0.213
0.621,0.548,-0.073,-0.584,0.347,0.237,0.071,0.116,0.67,0.961,0.893,0.718
0.711,0.939,0.228,-0.825,0.241,0.583,-0.739,-1.081,0.112,0.876,1.232,1.333
0.272,0.3,0.028,-0.286,0.122,0.164,-0.977,-1.444,-1.058,-0.555,-0.077,0.376
0.115,0.045,-0.07,-0.08,0.092,-0.012,-0.608,-0.682,-0.669,-0.468,-0.261,-0.036
-0.001,0.022,0.023,-0.011,-0.012,0.023,-0.145,-0.116,-0.161,-0.08,-0.042,-0.015
-0.038,-0.049,-0.011,0.044,-0.013,-0.03,0.001,0.017,-0.105,-0.059,-0.077,-0.074
-0.012,-0.048,-0.036,0.031,0.012,-0.042,0.027,0.059,-0.016,0.028,0.002,-0.033
-0.016,-0.076,-0.06,0.046,0.022,-0.068,0.055,0.068,-0.055,-0.023,-0.051,-0.069
-0.029,-0.087,-0.058,0.058,0.015,-0.073,0.069,0.098,-0.009,0.03,-0.006,-0.038
-0.03,-0.087,-0.057,0.059,0.014,-0.072,0.086,0.099,-0.016,0.016,-0.031,-0.057
-0.021,-0.073,-0.052,0.047,0.016,-0.062,0.081,0.105,0.004,0.05,-0.011,-0.04
-0.018,-0.07,-0.052,0.044,0.017,-0.061,0.088,0.104,0.004,0.046,-0.006,-0.034
-0.018,-0.063,-0.045,0.041,0.013,-0.053,0.09,0.097,0.022,0.053,0.0,-0.027
-0.004,-0.054,-0.05,0.029,0.024,-0.052,0.089,0.109,0.049,0.063,0.014,-0.015
0.022,-0.053,-0.075,0.016,0.048,-0.063,0.092,0.117,0.051,0.067,0.022,-0.016
0.03,-0.023,-0.053,-0.003,0.041,-0.038,0.087,0.114,0.06,0.088,0.04,-0.008
0.044,-0.002,-0.045,-0.021,0.045,-0.024,0.094,0.142,0.09,0.104,0.048,0.005
0.002,-0.04,-0.042,0.019,0.022,-0.041,0.111,0.159,0.11,0.125,0.071,0.028
0.001,-0.032,-0.034,0.016,0.018,-0.033,0.109,0.17,0.122,0.133,0.082,0.037
0.053,-0.008,-0.061,-0.022,0.058,-0.035,0.105,0.193,0.153,0.156,0.09,0.048
0.082,0.009,-0.073,-0.045,0.077,-0.032,0.103,0.192,0.16,0.165,0.096,0.057
0.069,0.022,-0.047,-0.045,0.058,-0.012,0.1,0.222,0.194,0.183,0.122,0.067
0.07,0.036,-0.033,-0.053,0.051,0.002,0.1,0.254,0.232,0.214,0.148,0.082
0.13,0.076,-0.054,-0.103,0.092,0.011,0.101,0.276,0.253,0.245,0.174,0.111
0.14,0.08,-0.06,-0.11,0.1,0.01,0.099,0.309,0.287,0.285,0.213,0.141
0.151,0.106,-0.045,-0.128,0.098,0.03,0.103,0.342,0.32,0.319,0.248,0.166
0.176,0.146,-0.03,-0.161,0.103,0.058,0.111,0.378,0.358,0.359,0.288,0.215
0.208,0.173,-0.035,-0.19,0.121,0.069,0.103,0.391,0.379,0.405,0.334,0.258
0.258,0.204,-0.054,-0.231,0.155,0.075,0.088,0.38,0.365,0.417,0.362,0.286
0.273,0.238,-0.035,-0.255,0.154,0.101,0.06,0.339,0.355,0.398,0.364,0.306
0.27,0.228,-0.042,-0.249,0.156,0.093,0.025,0.266,0.319,0.364,0.354,0.309
0.257,0.163,-0.093,-0.209,0.175,0.035,-0.018,0.153,0.22,0.295,0.314,0.285
0.23,0.122,-0.109,-0.176,0.169,0.006,-0.035,0.058,0.119,0.2,0.222,0.215
0.171,0.073,-0.098,-0.122,0.135,-0.012,-0.021,0.01,0.042,0.113,0.123,0.125
0.096,0.006,-0.09,-0.051,0.093,-0.042,-0.013,-0.045,-0.018,0.047,0.056,0.047
0.028,-0.057,-0.086,0.015,0.057,-0.071,-0.003,-0.076,-0.06,-0.007,0.008,-0.001
-0.011,-0.104,-0.093,0.058,0.041,-0.098,0.019,-0.089,-0.079,-0.038,-0.027,-0.033
-0.029,-0.123,-0.094,0.077,0.033,-0.108,0.037,-0.096,-0.083,-0.045,-0.056,-0.055
-0.037,-0.126,-0.089,0.082,0.027,-0.108,0.035,-0.094,-0.085,-0.045,-0.061,-0.061
-0.04,-0.123,-0.083,0.082,0.022,-0.103,0.035,-0.097,-0.09,-0.045,-0.059,-0.071
-0.063,-0.137,-0.074,0.1,0.006,-0.105,0.032,-0.096,-0.096,-0.044,-0.065,-0.07
-0.053,-0.126,-0.073,0.09,0.01,-0.099,0.029,-0.095,-0.094,-0.046,-0.065,-0.072
-0.037,-0.093,-0.056,0.066,0.01,-0.074,0.03,-0.094,-0.095,-0.062,-0.064,-0.076
-0.046,-0.125,-0.079,0.085,0.017,-0.102,0.025,-0.09,-0.095,-0.066,-0.06,-0.074
-0.041,-0.128,-0.086,0.085,0.023,-0.107,0.025,-0.09,-0.095,-0.065,-0.06,-0.072
-0.04,-0.109,-0.068,0.075,0.014,-0.088,0.024,-0.092,-0.092,-0.07,-0.058,-0.069
-0.045,-0.145,-0.1,0.095,0.028,-0.122,0.02,-0.1,-0.088,-0.07,-0.055,-0.066
-0.044,-0.146,-0.102,0.095,0.029,-0.123,0.02,-0.105,-0.084,-0.072,-0.055,-0.064
-0.043,-0.139,-0.095,0.092,0.026,-0.117,0.018,-0.108,-0.081,-0.075,-0.059,-0.06
-0.046,-0.141,-0.095,0.094,0.024,-0.118,0.013,-0.112,-0.076,-0.075,-0.06,-0.061
-0.054,-0.139,-0.085,0.097,0.016,-0.112,0.01,-0.107,-0.076,-0.075,-0.061,-0.069
-0.055,-0.14,-0.085,0.098,0.015,-0.112,0.007,-0.123,-0.094,-0.076,-0.066,-0.07
-0.063,-0.14,-0.078,0.102,0.007,-0.109,0.002,-0.142,-0.095,-0.074,-0.064,-0.072
-0.062,-0.136,-0.074,0.099,0.007,-0.105,0.0,-0.139,-0.102,-0.082,-0.076,-0.076
-0.05,-0.135,-0.085,0.093,0.018,-0.11,0.006,-0.14,-0.111,-0.092,-0.086,-0.074
-0.057,-0.134,-0.077,0.096,0.01,-0.105,0.011,-0.14,-0.109,-0.095,-0.087,-0.069
-0.058,-0.13,-0.072,0.094,0.007,-0.101,0.018,-0.139,-0.11,-0.1,-0.091,-0.077
-0.059,-0.132,-0.072,0.096,0.006,-0.102,0.018,-0.143,-0.11,-0.096,-0.086,-0.087
-0.052,-0.123,-0.071,0.088,0.01,-0.097,0.011,-0.145,-0.11,-0.095,-0.084,-0.083
-0.054,-0.155,-0.101,0.105,0.024,-0.128,0.006,-0.145,-0.108,-0.095,-0.081,-0.08
-0.04,-0.149,-0.109,0.095,0.034,-0.129,0.001,-0.148,-0.122,-0.095,-0.079,-0.077
-0.024,-0.125,-0.101,0.075,0.038,-0.112,-0.005,-0.151,-0.132,-0.095,-0.075,-0.075
-0.036,-0.131,-0.095,0.083,0.03,-0.113,-0.009,-0.149,-0.129,-0.094,-0.076,-0.076
-0.035,-0.12,-0.085,0.078,0.025,-0.102,-0.006,-0.146,-0.13,-0.089,-0.089,-0.092
-0.039,-0.118,-0.079,0.079,0.02,-0.098,-0.004,-0.143,-0.13,-0.09,-0.089,-0.101
-0.042,-0.108,-0.065,0.075,0.012,-0.086,-0.006,-0.14,-0.129,-0.102,-0.084,-0.095
-0.049,-0.141,-0.092,0.095,0.021,-0.116,-0.004,-0.137,-0.125,-0.106,-0.085,-0.093
-0.052,-0.17,-0.118,0.111,0.033,-0.144,-0.006,-0.135,-0.119,-0.105,-0.083,-0.088
-0.072,-0.168,-0.096,0.12,0.012,-0.131,-0.004,-0.133,-0.116,-0.101,-0.079,-0.085
-0.059,-0.158,-0.099,0.109,0.02,-0.129,-0.006,-0.126,-0.111,-0.101,-0.081,-0.085
-0.051,-0.117,-0.066,0.084,0.008,-0.091,-0.004,-0.121,-0.107,-0.097,-0.078,-0.085
-0.086,-0.123,-0.037,0.105,-0.024,-0.08,0.004,-0.116,-0.102,-0.104,-0.087,-0.085
-0.031,-0.106,-0.075,0.069,0.022,-0.09,0.017,-0.109,-0.089,-0.109,-0.094,-0.085
-0.02,-0.08,-0.06,0.05,0.021,-0.07,0.028,-0.106,-0.079,-0.088,-0.072,-0.086
-0.025,-0.086,-0.061,0.056,0.019,-0.073,0.034,-0.086,-0.055,-0.074,-0.06,-0.083
0.028,-0.043,-0.07,0.008,0.049,-0.056,0.058,-0.063,-0.038,-0.063,-0.047,-0.061
0.02,-0.049,-0.069,0.015,0.044,-0.059,0.052,-0.056,-0.039,-0.051,-0.039,-0.036
0.033,-0.064,-0.097,0.016,0.065,-0.08,0.023,-0.055,-0.042,-0.044,-0.035,-0.021
0.043,-0.048,-0.09,0.003,0.067,-0.069,0.018,-0.048,-0.044,-0.036,-0.034,-0.012
0.052,-0.062,-0.114,0.005,0.083,-0.088,0.012,-0.046,-0.046,-0.038,-0.037,-0.026
0.045,-0.067,-0.111,0.011,0.078,-0.089,0.008,-0.082,-0.078,-0.059,-0.031,-0.035
-0.009,-0.101,-0.092,0.055,0.041,-0.096,0.004,-0.115,-0.116,-0.084,-0.064,-0.065
-0.03,-0.123,-0.092,0.077,0.031,-0.107,-0.001,-0.113,-0.111,-0.081,-0.073,-0.083
-0.062,-0.145,-0.083,0.104,0.011,-0.114,0.005,-0.121,-0.115,-0.104,-0.085,-0.092
-0.054,-0.157,-0.103,0.106,0.025,-0.13,0.005,-0.122,-0.108,-0.097,-0.084,-0.103
-0.039,-0.154,-0.115,0.097,0.038,-0.134,0.0,-0.124,-0.108,-0.1,-0.083,-0.105
-0.056,-0.157,-0.101,0.106,0.023,-0.129,-0.005,-0.122,-0.111,-0.105,-0.084,-0.104
-0.057,-0.151,-0.094,0.104,0.019,-0.122,0.005,-0.103,-0.093,-0.089,-0.068,-0.091
-0.061,-0.162,-0.101,0.112,0.021,-0.132,0.012,-0.112,-0.125,-0.119,-0.09,-0.107
-0.059,-0.139,-0.08,0.099,0.011,-0.109,0.005,-0.079,-0.09,-0.074,-0.057,-0.079
-0.053,-0.152,-0.099,0.103,0.023,-0.125,0.014,-0.107,-0.113,-0.126,-0.121,-0.123
-0.14,-0.224,-0.085,0.182,-0.027,-0.154,0.182,0.144,0.046,-0.038,-0.101,-0.169
-0.069,-0.325,-0.256,0.197,0.094,-0.29,0.491,0.693,0.334,0.048,-0.161,-0.303
0.394,0.311,-0.083,-0.352,0.238,0.114,0.27,0.391,0.744,0.811,0.714,0.491
0.486,0.997,0.511,-0.742,-0.013,0.754,-0.401,-0.789,0.467,1.163,1.492,1.48
0.114,0.445,0.331,-0.28,-0.109,0.387,-0.726,-1.4,-0.822,-0.351,0.166,0.568
-0.022,-0.023,-0.001,0.023,-0.011,-0.012,-0.634,-0.897,-0.842,-0.723,-0.424,-0.132
0.011,-0.046,-0.057,0.018,0.034,-0.051,-0.257,-0.242,-0.192,-0.181,-0.087,-0.025
0.005,-0.09,-0.094,0.042,0.049,-0.092,-0.007,0.025,-0.051,-0.113,-0.081,-0.076
-0.001,-0.074,-0.073,0.038,0.036,-0.073,0.006,0.077,0.036,-0.011,-0.008,-0.024
0.005,-0.103,-0.108,0.049,0.057,-0.105,0.038,0.074,0.009,-0.049,-0.058,-0.077
-0.001,-0.096,-0.096,0.049,0.048,-0.096,0.047,0.09,0.049,-0.005,-0.014,-0.052
0.015,-0.103,-0.117,0.044,0.066,-0.11,0.055,0.089,0.05,-0.008,-0.023,-0.051
0.024,-0.087,-0.111,0.032,0.067,-0.099,0.057,0.104,0.065,0.008,-0.014,-0.047
0.015,-0.091,-0.106,0.038,0.061,-0.098,0.059,0.111,0.086,0.028,-0.001,-0.035
0.022,-0.093,-0.114,0.035,0.068,-0.103,0.064,0.12,0.079,0.028,-0.005,-0.041
0.023,-0.083,-0.106,0.03,0.065,-0.094,0.064,0.129,0.095,0.047,0.021,-0.022
0.043,-0.071,-0.113,0.014,0.078,-0.092,0.066,0.131,0.103,0.045,0.024,-0.023
0.036,-0.071,-0.107,0.018,0.072,-0.089,0.064,0.156,0.12,0.067,0.038,-0.008
0.018,-0.092,-0.11,0.037,0.064,-0.1,0.066,0.172,0.141,0.083,0.055,-0.005
0.038,-0.06,-0.099,0.011,0.069,-0.079,0.064,0.173,0.155,0.086,0.063,0.021
0.045,-0.062,-0.107,0.008,0.076,-0.084,0.066,0.188,0.164,0.099,0.069,0.039
0.072,-0.043,-0.115,-0.014,0.093,-0.079,0.069,0.198,0.18,0.12,0.083,0.041
0.085,-0.015,-0.101,-0.035,0.093,-0.058,0.072,0.209,0.202,0.135,0.101,0.058
0.092,-0.023,-0.115,-0.034,0.103,-0.069,0.076,0.236,0.233,0.159,0.125,0.064
0.112,0.011,-0.101,-0.061,0.106,-0.045,0.08,0.252,0.263,0.181,0.143,0.084
0.108,0.036,-0.072,-0.071,0.089,-0.018,0.078,0.283,0.301,0.22,0.181,0.121
0.137,0.044,-0.093,-0.09,0.115,-0.024,0.071,0.316,0.336,0.255,0.219,0.148
0.155,0.068,-0.087,-0.111,0.121,-0.01,0.064,0.335,0.359,0.286,0.25,0.184
0.184,0.105,-0.079,-0.144,0.131,0.012,0.057,0.351,0.384,0.328,0.295,0.219
0.236,0.149,-0.087,-0.193,0.162,0.031,0.051,0.339,0.383,0.356,0.326,0.252
0.243,0.185,-0.058,-0.214,0.15,0.063,0.04,0.336,0.371,0.363,0.344,0.295
0.268,0.201,-0.066,-0.234,0.167,0.067,0.024,0.317,0.373,0.365,0.368,0.324
0.257,0.195,-0.062,-0.226,0.159,0.067,-0.017,0.247,0.327,0.334,0.362,0.315
0.215,0.164,-0.051,-0.189,0.132,0.057,-0.051,0.165,0.24,0.263,0.311,0.29
0.201,0.112,-0.089,-0.156,0.144,0.012,-0.048,0.084,0.153,0.179,0.231,0.234
0.152,0.06,-0.092,-0.105,0.121,-0.016,-0.043,0.034,0.079,0.092,0.135,0.137
0.076,-0.008,-0.084,-0.034,0.08,-0.046,-0.021,0.011,0.035,0.032,0.052,0.06
0.015,-0.06,-0.076,0.023,0.046,-0.068,0.004,-0.014,-0.003,-0.018,-0.002,0.013
0.011,-0.083,-0.095,0.037,0.053,-0.089,0.018,-0.036,-0.03,-0.045,-0.033,-0.028
-0.007,-0.126,-0.119,0.067,0.056,-0.122,0.043,-0.033,-0.03,-0.066,-0.062,-0.056
-0.039,-0.139,-0.1,0.089,0.031,-0.119,0.049,-0.033,-0.029,-0.082,-0.077,-0.067
-0.01,-0.132,-0.122,0.072,0.056,-0.127,0.04,-0.053,-0.048,-0.079,-0.07,-0.071
-0.011,-0.133,-0.122,0.072,0.055,-0.127,0.037,-0.052,-0.047,-0.081,-0.068,-0.073
-0.039,-0.128,-0.09,0.084,0.025,-0.109,0.029,-0.043,-0.038,-0.08,-0.063,-0.081
-0.024,-0.13,-0.107,0.077,0.041,-0.118,0.025,-0.041,-0.035,-0.08,-0.06,-0.073
-0.012,-0.125,-0.114,0.069,0.051,-0.119,0.02,-0.031,-0.028,-0.084,-0.063,-0.063
-0.003,-0.125,-0.121,0.064,0.06,-0.123,0.022,-0.034,-0.026,-0.085,-0.066,-0.066
-0.009,-0.126,-0.117,0.068,0.054,-0.121,0.041,-0.056,-0.021,-0.086,-0.069,-0.065
-0.009,-0.124,-0.115,0.067,0.054,-0.119,0.042,-0.062,-0.019,-0.089,-0.072,-0.07
0.013,-0.126,-0.139,0.057,0.077,-0.132,0.026,-0.059,-0.014,-0.091,-0.074,-0.07
0.007,-0.124,-0.131,0.058,0.07,-0.127,0.021,-0.062,-0.027,-0.09,-0.077,-0.071
0.01,-0.127,-0.138,0.059,0.075,-0.132,0.018,-0.065,-0.051,-0.09,-0.079,-0.075
-0.002,-0.14,-0.137,0.071,0.068,-0.138,0.016,-0.07,-0.05,-0.09,-0.081,-0.077
0.001,-0.14,-0.141,0.07,0.071,-0.14,0.012,-0.07,-0.05,-0.089,-0.079,-0.081
0.012,-0.135,-0.147,0.062,0.08,-0.141,0.01,-0.071,-0.05,-0.091,-0.08,-0.077
0.003,-0.134,-0.136,0.065,0.07,-0.135,0.007,-0.081,-0.05,-0.088,-0.094,-0.074
0.008,-0.13,-0.138,0.062,0.073,-0.134,0.004,-0.083,-0.062,-0.097,-0.096,-0.076
0.001,-0.129,-0.129,0.064,0.065,-0.129,-0.002,-0.079,-0.066,-0.099,-0.094,-0.073
0.006,-0.125,-0.131,0.06,0.069,-0.128,-0.018,-0.081,-0.065,-0.095,-0.091,-0.081
0.002,-0.123,-0.124,0.061,0.063,-0.123,-0.018,-0.076,-0.061,-0.113,-0.09,-0.1
0.005,-0.12,-0.125,0.058,0.065,-0.122,-0.01,-0.074,-0.06,-0.116,-0.09,-0.1
0.027,-0.116,-0.144,0.045,0.086,-0.13,-0.007,-0.076,-0.06,-0.114,-0.09,-0.1
0.009,-0.115,-0.124,0.053,0.067,-0.119,0.001,-0.067,-0.066,-0.111,-0.09,-0.1
-0.006,-0.117,-0.111,0.062,0.052,-0.114,0.004,-0.078,-0.068,-0.109,-0.09,-0.1
-0.023,-0.13,-0.107,0.077,0.042,-0.118,-0.005,-0.092,-0.068,-0.109,-0.102,-0.098
-0.044,-0.142,-0.098,0.093,0.027,-0.12,-0.006,-0.089,-0.082,-0.104,-0.104,-0.093
-0.053,-0.147,-0.094,0.1,0.021,-0.12,0.003,-0.088,-0.077,-0.105,-0.098,-0.092
-0.056,-0.14,-0.084,0.098,0.014,-0.112,0.009,-0.084,-0.064,-0.1,-0.094,-0.086
-0.013,-0.115,-0.101,0.064,0.044,-0.108,0.015,-0.087,-0.057,-0.101,-0.09,-0.085
0.003,-0.088,-0.091,0.043,0.047,-0.089,0.024,-0.074,-0.042,-0.094,-0.079,-0.079
0.003,-0.078,-0.081,0.038,0.042,-0.08,0.026,-0.047,-0.023,-0.072,-0.061,-0.074
0.037,-0.055,-0.092,0.009,0.065,-0.074,0.052,-0.039,-0.012,-0.061,-0.046,-0.063
0.065,-0.027,-0.092,-0.019,0.079,-0.059,0.057,-0.041,-0.01,-0.053,-0.034,-0.036
0.111,-0.009,-0.12,-0.051,0.116,-0.064,0.005,-0.037,-0.006,-0.05,-0.034,-0.028
0.134,0.013,-0.122,-0.073,0.128,-0.054,-0.024,-0.035,0.002,-0.049,-0.036,-0.03
0.108,-0.003,-0.111,-0.053,0.11,-0.057,-0.025,-0.035,-0.013,-0.052,-0.042,-0.032
0.064,-0.042,-0.106,-0.011,0.085,-0.074,-0.025,-0.043,-0.039,-0.046,-0.039,-0.026
0.034,-0.065,-0.099,0.016,0.067,-0.082,-0.025,-0.074,-0.057,-0.057,-0.056,-0.043
0.004,-0.09,-0.095,0.043,0.05,-0.092,-0.025,-0.08,-0.055,-0.076,-0.075,-0.065
-0.012,-0.128,-0.116,0.071,0.052,-0.122,-0.024,-0.086,-0.082,-0.108,-0.095,-0.084
-0.004,-0.127,-0.123,0.066,0.06,-0.125,-0.023,-0.085,-0.09,-0.114,-0.104,-0.094
-0.027,-0.123,-0.096,0.076,0.035,-0.11,-0.016,-0.083,-0.087,-0.129,-0.12,-0.097
-0.006,-0.118,-0.113,0.062,0.054,-0.115,-0.016,-0.09,-0.09,-0.127,-0.122,-0.104
0.017,-0.113,-0.13,0.048,0.074,-0.121,-0.008,-0.077,-0.072,-0.105,-0.104,-0.097
0.011,-0.113,-0.124,0.051,0.067,-0.118,-0.009,-0.099,-0.098,-0.129,-0.128,-0.119
-0.005,-0.114,-0.109,0.06,0.052,-0.111,0.002,-0.059,-0.05,-0.073,-0.081,-0.099
-0.018,-0.135,-0.118,0.077,0.051,-0.126,0.009,-0.087,-0.095,-0.136,-0.137,-0.137
-0.08,-0.158,-0.077,0.119,-0.002,-0.117,0.157,0.181,0.078,-0.031,-0.118,-0.166
-0.027,-0.242,-0.215,0.135,0.094,-0.228,0.495,0.736,0.4,0.091,-0.139,-0.274
0.436,0.394,-0.042,-0.415,0.239,0.176,0.266,0.41,0.776,0.85,0.721,0.488
0.575,1.051,0.476,-0.813,0.049,0.763,-0.455,-0.759,0.462,1.175,1.489,1.474
0.208,0.478,0.27,-0.343,-0.031,0.374,-0.82,-1.382,-0.848,-0.377,0.162,0.6
0.039,-0.024,-0.063,-0.008,0.051,-0.043,-0.706,-0.885,-0.861,-0.75,-0.457,-0.146
0.029,-0.061,-0.09,0.016,0.059,-0.076,-0.291,-0.219,-0.183,-0.189,-0.113,-0.043
0.029,-0.081,-0.11,0.026,0.07,-0.096,-0.045,0.057,-0.039,-0.12,-0.121,-0.096
0.033,-0.059,-0.092,0.013,0.062,-0.076,-0.021,0.113,0.055,-0.003,-0.023,-0.053
0.019,-0.086,-0.105,0.033,0.062,-0.095,0.019,0.105,0.048,-0.034,-0.058,-0.08
0.024,-0.074,-0.098,0.025,0.061,-0.086,0.039,0.134,0.075,0.0,-0.029,-0.066
0.032,-0.066,-0.098,0.017,0.065,-0.082,0.054,0.141,0.068,-0.009,-0.032,-0.07
0.035,-0.055,-0.09,0.01,0.063,-0.072,0.052,0.142,0.073,-0.004,-0.028,-0.066
0.036,-0.044,-0.08,0.004,0.058,-0.061,0.055,0.147,0.082,0.011,-0.014,-0.051
0.043,-0.037,-0.08,-0.002,0.061,-0.058,0.05,0.148,0.098,0.022,-0.02,-0.054
0.034,-0.025,-0.058,-0.004,0.046,-0.041,0.049,0.152,0.12,0.046,0.005,-0.038
0.035,-0.024,-0.059,-0.006,0.047,-0.041,0.051,0.156,0.118,0.056,0.001,-0.04
0.078,-0.013,-0.092,-0.032,0.085,-0.052,0.051,0.166,0.135,0.076,0.026,-0.028
0.084,-0.006,-0.09,-0.039,0.088,-0.048,0.072,0.184,0.148,0.077,0.042,-0.028
0.082,0.002,-0.08,-0.042,0.081,-0.039,0.076,0.191,0.154,0.095,0.045,0.001
0.08,0.007,-0.073,-0.043,0.076,-0.033,0.074,0.208,0.17,0.116,0.068,0.028
0.073,0.006,-0.067,-0.039,0.07,-0.03,0.075,0.231,0.19,0.127,0.087,0.023
0.116,0.036,-0.08,-0.076,0.098,-0.022,0.075,0.235,0.201,0.142,0.089,0.027
0.122,0.042,-0.08,-0.082,0.1,-0.018,0.075,0.255,0.228,0.176,0.102,0.04
0.138,0.058,-0.08,-0.098,0.109,-0.011,0.071,0.293,0.259,0.206,0.145,0.072
0.159,0.084,-0.075,-0.121,0.116,0.005,0.07,0.313,0.283,0.223,0.171,0.084
0.179,0.104,-0.075,-0.141,0.127,0.014,0.07,0.335,0.312,0.25,0.192,0.113
0.228,0.154,-0.074,-0.191,0.151,0.04,0.07,0.369,0.351,0.293,0.235,0.158
0.229,0.164,-0.065,-0.196,0.147,0.049,0.07,0.388,0.376,0.329,0.268,0.183
0.243,0.187,-0.056,-0.214,0.149,0.065,0.067,0.399,0.403,0.363,0.314,0.231
0.261,0.225,-0.036,-0.243,0.148,0.094,0.048,0.386,0.413,0.381,0.346,0.269
0.276,0.222,-0.054,-0.249,0.164,0.084,0.033,0.336,0.383,0.366,0.347,0.288
0.296,0.229,-0.067,-0.262,0.181,0.081,0.01,0.264,0.332,0.329,0.34,0.298
0.288,0.22,-0.067,-0.254,0.177,0.076,-0.042,0.165,0.247,0.26,0.297,0.268
0.235,0.157,-0.079,-0.196,0.157,0.039,-0.055,0.076,0.142,0.167,0.204,0.186
0.171,0.076,-0.096,-0.123,0.133,-0.01,-0.041,0.029,0.064,0.081,0.106,0.091
0.124,0.011,-0.113,-0.067,0.118,-0.05,-0.032,-0.002,0.013,0.017,0.051,0.041
0.072,-0.035,-0.107,-0.019,0.09,-0.071,-0.013,-0.028,-0.03,-0.03,0.004,-0.015
0.044,-0.059,-0.104,0.008,0.074,-0.081,-0.005,-0.044,-0.041,-0.066,-0.052,-0.072
0.024,-0.079,-0.103,0.028,0.064,-0.091,-0.002,-0.044,-0.057,-0.081,-0.073,-0.075
-0.003,-0.1,-0.097,0.051,0.047,-0.099,0.002,-0.039,-0.07,-0.08,-0.074,-0.075
0.003,-0.097,-0.1,0.047,0.052,-0.099,0.005,-0.041,-0.064,-0.08,-0.076,-0.086
0.024,-0.093,-0.117,0.034,0.071,-0.104,0.01,-0.037,-0.066,-0.08,-0.075,-0.084
0.023,-0.09,-0.113,0.034,0.068,-0.102,0.012,-0.035,-0.065,-0.08,-0.075,-0.086
0.018,-0.085,-0.103,0.034,0.061,-0.094,0.015,-0.035,-0.065,-0.077,-0.075,-0.081
0.013,-0.083,-0.096,0.036,0.055,-0.09,0.021,-0.039,-0.065,-0.074,-0.075,-0.079
0.013,-0.077,-0.09,0.032,0.052,-0.083,0.026,-0.051,-0.065,-0.071,-0.075,-0.081
0.016,-0.074,-0.09,0.029,0.053,-0.082,0.033,-0.055,-0.066,-0.069,-0.075,-0.078
0.021,-0.069,-0.09,0.024,0.055,-0.079,0.032,-0.055,-0.065,-0.065,-0.075,-0.094
0.045,-0.064,-0.109,0.01,0.077,-0.086,0.023,-0.055,-0.066,-0.067,-0.075,-0.095
0.053,-0.061,-0.114,0.005,0.083,-0.087,0.012,-0.055,-0.064,-0.071,-0.075,-0.086
0.043,-0.059,-0.102,0.008,0.073,-0.08,0.004,-0.059,-0.068,-0.069,-0.075,-0.092
0.037,-0.062,-0.099,0.012,0.068,-0.08,0.014,-0.059,-0.076,-0.078,-0.079,-0.089
0.029,-0.061,-0.09,0.016,0.059,-0.075,0.012,-0.067,-0.074,-0.094,-0.081,-0.091
0.0,-0.087,-0.087,0.044,0.044,-0.086,0.006,-0.086,-0.076,-0.1,-0.08,-0.089
0.022,-0.083,-0.105,0.031,0.064,-0.094,0.001,-0.084,-0.074,-0.1,-0.081,-0.093
0.026,-0.069,-0.095,0.022,0.061,-0.082,-0.005,-0.088,-0.079,-0.101,-0.087,-0.11
0.021,-0.073,-0.093,0.026,0.057,-0.083,-0.012,-0.102,-0.096,-0.098,-0.094,-0.11
0.041,-0.069,-0.11,0.014,0.076,-0.089,-0.029,-0.104,-0.102,-0.109,-0.095,-0.109
0.003,-0.093,-0.096,0.045,0.049,-0.094,-0.03,-0.097,-0.096,-0.116,-0.095,-0.111
0.023,-0.071,-0.094,0.025,0.059,-0.082,-0.03,-0.095,-0.094,-0.109,-0.1,-0.109
0.041,-0.054,-0.095,0.007,0.069,-0.075,-0.03,-0.115,-0.118,-0.132,-0.1,-0.112
0.047,-0.053,-0.1,0.003,0.074,-0.076,-0.03,-0.122,-0.127,-0.142,-0.101,-0.115
0.057,-0.043,-0.1,-0.007,0.078,-0.071,-0.029,-0.118,-0.124,-0.138,-0.105,-0.116
0.059,-0.038,-0.097,-0.01,0.078,-0.068,-0.024,-0.121,-0.125,-0.141,-0.104,-0.119
0.063,-0.03,-0.093,-0.016,0.079,-0.061,-0.021,-0.119,-0.125,-0.139,-0.107,-0.121
0.033,-0.058,-0.091,0.013,0.062,-0.074,-0.018,-0.121,-0.124,-0.14,-0.11,-0.116
0.03,-0.058,-0.088,0.014,0.06,-0.073,-0.014,-0.124,-0.12,-0.135,-0.11,-0.115
0.018,-0.039,-0.057,0.011,0.038,-0.048,-0.008,-0.126,-0.12,-0.131,-0.107,-0.115
0.04,-0.035,-0.075,-0.002,0.058,-0.054,-0.023,-0.124,-0.116,-0.126,-0.101,-0.11
0.025,-0.021,-0.046,-0.002,0.036,-0.033,-0.034,-0.127,-0.116,-0.121,-0.098,-0.11
-0.016,-0.013,0.003,0.014,-0.009,-0.005,-0.013,-0.118,-0.111,-0.117,-0.093,-0.109
0.02,-0.01,-0.031,-0.005,0.025,-0.02,0.01,-0.081,-0.095,-0.108,-0.084,-0.098
0.047,0.02,-0.027,-0.033,0.037,-0.004,0.026,-0.063,-0.061,-0.097,-0.07,-0.085
0.072,0.057,-0.015,-0.064,0.043,0.021,0.04,-0.065,-0.053,-0.084,-0.06,-0.074
0.102,0.051,-0.051,-0.076,0.077,0.0,0.011,-0.065,-0.067,-0.07,-0.049,-0.061
0.13,0.045,-0.085,-0.087,0.107,-0.02,-0.041,-0.064,-0.07,-0.06,-0.042,-0.051
0.145,0.059,-0.085,-0.101,0.115,-0.013,-0.051,-0.07,-0.076,-0.073,-0.046,-0.061
0.107,0.024,-0.084,-0.065,0.096,-0.03,-0.049,-0.083,-0.072,-0.086,-0.049,-0.069
0.093,0.007,-0.086,-0.049,0.089,-0.039,-0.05,-0.105,-0.096,-0.101,-0.072,-0.079
0.118,0.034,-0.084,-0.075,0.1,-0.025,-0.05,-0.109,-0.094,-0.115,-0.08,-0.096
0.088,0.002,-0.085,-0.045,0.087,-0.041,-0.05,-0.116,-0.115,-0.135,-0.101,-0.121
0.056,-0.029,-0.085,-0.013,0.071,-0.057,-0.049,-0.131,-0.152,-0.153,-0.123,-0.14
0.035,-0.05,-0.085,0.008,0.06,-0.067,-0.043,-0.118,-0.128,-0.133,-0.105,-0.127
0.016,-0.059,-0.075,0.022,0.045,-0.067,-0.043,-0.133,-0.154,-0.161,-0.132,-0.147
0.003,-0.041,-0.043,0.019,0.023,-0.042,-0.038,-0.115,-0.124,-0.131,-0.105,-0.129
0.014,-0.054,-0.067,0.02,0.041,-0.06,-0.037,-0.137,-0.157,-0.162,-0.136,-0.151
0.022,-0.036,-0.058,0.007,0.04,-0.046,-0.033,-0.119,-0.121,-0.115,-0.1,-0.126
-0.015,-0.054,-0.039,0.035,0.013,-0.046,-0.011,-0.121,-0.131,-0.139,-0.124,-0.131
-0.032,-0.043,-0.011,0.038,-0.011,-0.027,0.07,-0.003,-0.065,-0.119,-0.125,-0.164
-0.121,-0.151,-0.03,0.136,-0.045,-0.09,0.422,0.493,0.213,-0.013,-0.145,-0.27
0.256,0.077,-0.18,-0.166,0.218,-0.052,0.465,0.552,0.45,0.278,0.127,-0.064
0.846,0.924,0.078,-0.885,0.384,0.501,-0.327,-0.381,0.662,1.137,1.28,1.124
0.642,0.814,0.172,-0.728,0.235,0.493,-1.007,-1.449,-0.431,0.235,0.772,1.049
0.254,0.165,-0.089,-0.209,0.171,0.038,-0.943,-1.256,-1.111,-0.868,-0.391,0.043
0.155,0.099,-0.056,-0.127,0.105,0.021,-0.456,-0.398,-0.362,-0.323,-0.164,-0.009
0.134,0.089,-0.045,-0.111,0.089,0.022,-0.089,-0.044,-0.116,-0.162,-0.106,-0.079
0.094,0.066,-0.027,-0.08,0.06,0.019,-0.029,0.038,-0.038,-0.097,-0.076,-0.099
0.049,0.022,-0.027,-0.035,0.038,-0.003,-0.004,0.051,-0.015,-0.074,-0.059,-0.087
0.074,0.016,-0.058,-0.045,0.066,-0.021,0.019,0.065,-0.018,-0.086,-0.073,-0.109
0.064,0.02,-0.044,-0.042,0.054,-0.012,0.032,0.081,0.011,-0.036,-0.038,-0.077
0.074,0.02,-0.054,-0.047,0.063,-0.017,0.048,0.082,-0.007,-0.055,-0.059,-0.097
0.103,0.062,-0.041,-0.082,0.072,0.01,0.052,0.084,0.019,-0.019,-0.029,-0.073
0.101,0.054,-0.047,-0.077,0.073,0.003,0.058,0.109,0.021,-0.033,-0.042,-0.082
0.089,0.047,-0.042,-0.068,0.066,0.002,0.059,0.123,0.057,-0.01,-0.024,-0.069
0.077,0.042,-0.035,-0.059,0.055,0.003,0.064,0.119,0.059,-0.011,-0.026,-0.067
0.06,0.03,-0.031,-0.045,0.045,-0.001,0.066,0.13,0.07,0.006,-0.012,-0.062
0.05,0.03,-0.021,-0.04,0.035,0.004,0.07,0.131,0.092,0.025,0.003,-0.055
0.08,0.061,-0.019,-0.07,0.049,0.021,0.07,0.15,0.108,0.028,0.014,-0.05
0.108,0.079,-0.029,-0.093,0.068,0.025,0.072,0.161,0.117,0.046,0.04,-0.045
0.113,0.086,-0.027,-0.099,0.07,0.029,0.075,0.168,0.136,0.062,0.048,-0.033
0.124,0.103,-0.021,-0.113,0.072,0.041,0.075,0.2,0.156,0.077,0.056,-0.012
0.132,0.114,-0.018,-0.123,0.075,0.048,0.078,0.228,0.183,0.102,0.081,0.006
0.144,0.131,-0.012,-0.137,0.078,0.059,0.088,0.257,0.215,0.13,0.104,0.021
0.155,0.145,-0.011,-0.15,0.083,0.067,0.104,0.29,0.245,0.159,0.128,0.045
0.179,0.154,-0.025,-0.166,0.102,0.064,0.106,0.332,0.298,0.206,0.169,0.081
0.216,0.191,-0.026,-0.203,0.121,0.082,0.109,0.36,0.322,0.233,0.19,0.095
0.249,0.225,-0.023,-0.237,0.136,0.101,0.11,0.393,0.352,0.269,0.223,0.129
0.276,0.247,-0.029,-0.261,0.152,0.109,0.102,0.414,0.395,0.317,0.278,0.179
0.261,0.274,0.014,-0.268,0.123,0.144,0.097,0.399,0.401,0.323,0.3,0.203
0.284,0.298,0.015,-0.291,0.134,0.156,0.083,0.388,0.383,0.328,0.314,0.233
0.333,0.307,-0.026,-0.32,0.179,0.14,0.051,0.321,0.332,0.305,0.312,0.251
0.336,0.288,-0.048,-0.312,0.192,0.12,0.002,0.207,0.257,0.248,0.283,0.242
0.32,0.258,-0.062,-0.289,0.191,0.098,-0.039,0.095,0.154,0.162,0.212,0.185
0.245,0.188,-0.057,-0.216,0.15,0.066,-0.038,0.017,0.057,0.064,0.123,0.093
0.164,0.109,-0.055,-0.136,0.109,0.026,-0.025,-0.024,-0.013,-0.011,0.046,0.03
0.09,0.042,-0.048,-0.066,0.069,-0.003,-0.014,-0.06,-0.06,-0.068,-0.021,-0.036
0.061,-0.005,-0.065,-0.028,0.063,-0.035,-0.001,-0.081,-0.079,-0.098,-0.062,-0.099
0.08,-0.003,-0.083,-0.038,0.081,-0.042,0.009,-0.086,-0.092,-0.119,-0.082,-0.11
0.047,-0.024,-0.072,-0.011,0.059,-0.048,0.026,-0.08,-0.093,-0.125,-0.081,-0.114
0.027,-0.044,-0.071,0.009,0.049,-0.057,0.031,-0.078,-0.092,-0.124,-0.08,-0.12
0.032,-0.033,-0.064,0.001,0.048,-0.049,0.029,-0.074,-0.089,-0.126,-0.08,-0.119
0.033,-0.028,-0.06,-0.002,0.047,-0.044,0.031,-0.068,-0.092,-0.124,-0.081,-0.121
0.042,-0.022,-0.064,-0.01,0.053,-0.042,0.03,-0.093,-0.096,-0.126,-0.094,-0.117
0.059,-0.012,-0.071,-0.023,0.066,-0.041,0.03,-0.108,-0.095,-0.124,-0.096,-0.115
0.061,-0.013,-0.074,-0.024,0.068,-0.043,0.03,-0.099,-0.095,-0.129,-0.094,-0.115
0.048,-0.017,-0.066,-0.015,0.057,-0.041,0.03,-0.099,-0.091,-0.13,-0.096,-0.115
0.023,-0.036,-0.059,0.007,0.042,-0.047,0.03,-0.092,-0.09,-0.13,-0.095,-0.115
0.03,-0.022,-0.052,-0.004,0.041,-0.037,0.03,-0.091,-0.09,-0.13,-0.096,-0.115
0.063,-0.002,-0.064,-0.03,0.064,-0.033,0.03,-0.088,-0.09,-0.13,-0.099,-0.115
0.049,-0.04,-0.089,-0.004,0.069,-0.065,0.028,-0.096,-0.09,-0.129,-0.102,-0.115
0.057,-0.028,-0.085,-0.014,0.071,-0.056,0.023,-0.115,-0.092,-0.119,-0.106,-0.115
0.046,-0.027,-0.073,-0.009,0.06,-0.05,0.02,-0.118,-0.106,-0.135,-0.109,-0.115
0.032,-0.026,-0.057,-0.003,0.045,-0.041,0.017,-0.123,-0.116,-0.148,-0.113,-0.115
0.031,-0.027,-0.058,-0.002,0.045,-0.042,0.012,-0.126,-0.113,-0.144,-0.117,-0.118
0.014,-0.064,-0.078,0.025,0.046,-0.071,0.01,-0.131,-0.126,-0.151,-0.122,-0.12
0.014,-0.058,-0.072,0.023,0.043,-0.065,0.014,-0.14,-0.142,-0.158,-0.125,-0.124
-0.002,-0.061,-0.058,0.032,0.028,-0.059,0.015,-0.144,-0.139,-0.16,-0.12,-0.123
-0.007,-0.059,-0.052,0.034,0.022,-0.055,0.015,-0.145,-0.14,-0.16,-0.12,-0.131
-0.013,-0.054,-0.041,0.034,0.014,-0.047,0.015,-0.145,-0.14,-0.159,-0.12,-0.142
-0.017,-0.054,-0.037,0.035,0.01,-0.045,0.015,-0.145,-0.136,-0.157,-0.121,-0.139
-0.02,-0.049,-0.029,0.034,0.005,-0.039,0.013,-0.145,-0.134,-0.153,-0.119,-0.14
-0.027,-0.047,-0.02,0.037,-0.003,-0.033,0.01,-0.143,-0.135,-0.161,-0.123,-0.14
0.014,-0.041,-0.056,0.014,0.035,-0.048,0.01,-0.139,-0.135,-0.175,-0.135,-0.137
0.045,-0.035,-0.08,-0.004,0.063,-0.058,0.01,-0.14,-0.134,-0.175,-0.132,-0.134
0.038,-0.034,-0.073,-0.001,0.056,-0.053,0.009,-0.14,-0.144,-0.175,-0.128,-0.131
0.048,-0.024,-0.073,-0.012,0.061,-0.048,0.011,-0.14,-0.152,-0.175,-0.125,-0.128
0.036,-0.033,-0.069,-0.002,0.053,-0.05,0.001,-0.148,-0.153,-0.175,-0.12,-0.125
0.001,-0.07,-0.07,0.034,0.036,-0.07,0.002,-0.15,-0.158,-0.173,-0.12,-0.123
-0.001,-0.071,-0.07,0.036,0.035,-0.07,0.023,-0.15,-0.16,-0.169,-0.12,-0.12
0.013,-0.057,-0.07,0.022,0.042,-0.063,0.026,-0.15,-0.154,-0.17,-0.12,-0.12
0.016,-0.053,-0.069,0.019,0.043,-0.061,0.024,-0.15,-0.147,-0.17,-0.12,-0.12
0.024,-0.039,-0.063,0.008,0.043,-0.05,0.026,-0.151,-0.141,-0.17,-0.119,-0.119
0.026,-0.03,-0.055,0.002,0.041,-0.042,0.024,-0.139,-0.134,-0.171,-0.121,-0.121
0.038,-0.014,-0.052,-0.012,0.046,-0.033,0.026,-0.125,-0.128,-0.158,-0.102,-0.114
0.074,0.026,-0.048,-0.05,0.061,-0.011,0.042,-0.109,-0.122,-0.138,-0.078,-0.1
0.089,0.038,-0.051,-0.064,0.07,-0.006,0.071,-0.083,-0.117,-0.128,-0.073,-0.086
0.089,0.05,-0.039,-0.069,0.064,0.006,0.069,-0.078,-0.109,-0.119,-0.068,-0.07
0.094,0.033,-0.061,-0.063,0.078,-0.014,0.015,-0.082,-0.107,-0.112,-0.066,-0.063
0.159,0.04,-0.119,-0.099,0.139,-0.039,-0.018,-0.076,-0.102,-0.102,-0.057,-0.056
0.183,0.068,-0.115,-0.125,0.149,-0.023,-0.018,-0.098,-0.111,-0.114,-0.071,-0.07
0.116,0.01,-0.107,-0.063,0.112,-0.049,-0.029,-0.137,-0.136,-0.136,-0.091,-0.074
0.058,-0.037,-0.095,-0.01,0.077,-0.066,-0.034,-0.154,-0.155,-0.159,-0.106,-0.094
0.026,-0.051,-0.077,0.013,0.052,-0.063,-0.025,-0.145,-0.155,-0.17,-0.121,-0.118
0.019,-0.057,-0.075,0.019,0.047,-0.066,-0.02,-0.157,-0.166,-0.19,-0.139,-0.127
0.019,-0.039,-0.058,0.01,0.039,-0.048,-0.012,-0.156,-0.154,-0.178,-0.129,-0.124
0.009,-0.058,-0.067,0.025,0.039,-0.063,-0.006,-0.167,-0.163,-0.19,-0.139,-0.127
-0.016,-0.075,-0.058,0.046,0.021,-0.066,-0.002,-0.16,-0.163,-0.184,-0.135,-0.125
0.005,-0.056,-0.061,0.026,0.033,-0.059,0.003,-0.149,-0.161,-0.175,-0.129,-0.112
0.032,-0.05,-0.083,0.009,0.058,-0.067,0.002,-0.155,-0.175,-0.194,-0.149,-0.142
-0.008,-0.059,-0.051,0.034,0.022,-0.055,0.012,-0.122,-0.134,-0.154,-0.112,-0.124
-0.01,-0.073,-0.063,0.042,0.027,-0.068,0.01,-0.158,-0.184,-0.222,-0.175,-0.156
-0.109,-0.101,0.008,0.105,-0.058,-0.046,0.242,0.2,0.053,-0.071,-0.115,-0.186
-0.037,-0.157,-0.12,0.097,0.042,-0.138,0.577,0.652,0.282,0.002,-0.141,-0.291
0.63,0.467,-0.163,-0.548,0.396,0.152,0.184,0.199,0.615,0.694,0.669,0.482
0.857,0.987,0.129,-0.922,0.364,0.558,-0.676,-1.015,0.229,0.876,1.248,1.301
0.41,0.401,-0.01,-0.405,0.21,0.195,-1.002,-1.551,-1.026,-0.566,0.008,0.442
0.169,0.054,-0.115,-0.111,0.142,-0.03,-0.66,-0.816,-0.781,-0.669,-0.363,-0.068
0.104,0.074,-0.029,-0.089,0.066,0.022,-0.177,-0.175,-0.182,-0.177,-0.086,-0.015
0.064,0.02,-0.045,-0.042,0.054,-0.012,0.007,-0.016,-0.132,-0.187,-0.138,-0.121
0.039,0.015,-0.024,-0.027,0.032,-0.004,0.034,0.031,-0.031,-0.09,-0.06,-0.059
0.031,-0.023,-0.054,-0.004,0.043,-0.038,0.077,0.054,-0.063,-0.14,-0.109,-0.11
0.036,-0.018,-0.053,-0.009,0.045,-0.035,0.073,0.078,-0.019,-0.09,-0.07,-0.091
0.04,-0.02,-0.06,-0.01,0.05,-0.04,0.076,0.065,-0.03,-0.102,-0.085,-0.094
0.037,-0.016,-0.053,-0.01,0.046,-0.034,0.096,0.079,-0.014,-0.084,-0.07,-0.089
0.034,-0.011,-0.044,-0.011,0.039,-0.027,0.102,0.072,-0.009,-0.071,-0.057,-0.077
0.028,-0.013,-0.041,-0.007,0.034,-0.027,0.108,0.087,-0.009,-0.066,-0.055,-0.081
0.029,-0.002,-0.03,-0.013,0.03,-0.016,0.117,0.094,0.019,-0.044,-0.033,-0.066
0.046,0.018,-0.028,-0.032,0.037,-0.005,0.116,0.104,0.039,-0.057,-0.031,-0.063
0.042,0.029,-0.013,-0.035,0.027,0.008,0.113,0.129,0.065,-0.031,-0.011,-0.048
0.064,0.012,-0.052,-0.038,0.058,-0.02,0.11,0.124,0.076,0.0,-0.005,-0.045
0.083,0.029,-0.054,-0.055,0.068,-0.013,0.108,0.131,0.097,0.016,0.01,-0.046
0.109,0.061,-0.048,-0.085,0.079,0.006,0.103,0.153,0.116,0.02,0.026,-0.037
0.131,0.052,-0.08,-0.091,0.105,-0.014,0.109,0.17,0.132,0.031,0.044,-0.02
0.13,0.063,-0.067,-0.096,0.098,-0.002,0.112,0.193,0.147,0.058,0.055,-0.003
0.145,0.081,-0.063,-0.113,0.104,0.009,0.11,0.225,0.183,0.091,0.066,0.017
0.13,0.088,-0.042,-0.108,0.086,0.023,0.126,0.255,0.215,0.108,0.092,0.03
0.16,0.111,-0.049,-0.135,0.104,0.03,0.138,0.295,0.251,0.141,0.129,0.056
0.226,0.147,-0.078,-0.186,0.152,0.034,0.153,0.341,0.304,0.186,0.161,0.088
0.233,0.169,-0.064,-0.201,0.149,0.052,0.158,0.374,0.332,0.217,0.196,0.117
0.256,0.194,-0.063,-0.225,0.159,0.065,0.145,0.399,0.365,0.251,0.239,0.158
0.302,0.243,-0.059,-0.273,0.18,0.092,0.14,0.415,0.398,0.288,0.269,0.187
0.321,0.261,-0.061,-0.291,0.191,0.1,0.123,0.407,0.401,0.293,0.294,0.221
0.335,0.276,-0.059,-0.305,0.196,0.108,0.096,0.356,0.367,0.288,0.312,0.24
0.347,0.282,-0.065,-0.315,0.206,0.108,0.054,0.272,0.31,0.267,0.302,0.233
0.317,0.235,-0.083,-0.276,0.2,0.076,0.022,0.164,0.221,0.178,0.241,0.212
0.256,0.178,-0.078,-0.217,0.166,0.05,0.006,0.054,0.113,0.084,0.15,0.155
0.2,0.118,-0.082,-0.159,0.141,0.017,-0.009,-0.004,0.044,0.003,0.069,0.073
0.138,0.062,-0.076,-0.1,0.107,-0.007,0.008,-0.049,-0.021,-0.068,0.004,0.006
0.083,0.013,-0.07,-0.048,0.076,-0.028,0.024,-0.077,-0.057,-0.115,-0.052,-0.045
0.035,-0.026,-0.061,-0.005,0.048,-0.043,0.034,-0.089,-0.054,-0.143,-0.091,-0.086
0.014,-0.034,-0.047,0.01,0.031,-0.04,0.047,-0.097,-0.056,-0.151,-0.104,-0.101
0.008,-0.059,-0.067,0.025,0.038,-0.063,0.044,-0.088,-0.055,-0.149,-0.109,-0.108
-0.016,-0.071,-0.056,0.044,0.02,-0.063,0.041,-0.088,-0.055,-0.15,-0.11,-0.112
0.0,-0.059,-0.059,0.029,0.03,-0.059,0.039,-0.081,-0.055,-0.166,-0.125,-0.117
0.02,-0.056,-0.075,0.018,0.048,-0.065,0.056,-0.081,-0.055,-0.168,-0.129,-0.125
0.019,-0.047,-0.066,0.014,0.043,-0.056,0.062,-0.092,-0.055,-0.16,-0.119,-0.121
0.029,-0.041,-0.07,0.006,0.049,-0.055,0.055,-0.097,-0.055,-0.156,-0.116,-0.12
0.009,-0.053,-0.062,0.023,0.035,-0.057,0.055,-0.094,-0.055,-0.15,-0.11,-0.115
0.006,-0.062,-0.068,0.029,0.037,-0.064,0.05,-0.096,-0.056,-0.145,-0.114,-0.114
0.007,-0.061,-0.068,0.027,0.037,-0.064,0.05,-0.094,-0.058,-0.154,-0.118,-0.109
0.012,-0.06,-0.072,0.024,0.042,-0.066,0.045,-0.096,-0.073,-0.171,-0.121,-0.111
0.006,-0.058,-0.064,0.026,0.036,-0.061,0.037,-0.107,-0.072,-0.177,-0.124,-0.124
-0.015,-0.054,-0.039,0.035,0.013,-0.046,0.031,-0.108,-0.087,-0.182,-0.128,-0.124
0.017,-0.057,-0.073,0.02,0.045,-0.065,0.024,-0.115,-0.103,-0.188,-0.13,-0.127
-0.013,-0.079,-0.066,0.046,0.027,-0.073,0.016,-0.101,-0.098,-0.191,-0.133,-0.122
-0.038,-0.087,-0.05,0.063,0.007,-0.068,0.021,-0.126,-0.103,-0.196,-0.135,-0.137
-0.022,-0.083,-0.062,0.053,0.02,-0.072,0.023,-0.118,-0.101,-0.199,-0.135,-0.098
-0.022,-0.087,-0.065,0.055,0.022,-0.076,0.02,-0.144,-0.129,-0.201,-0.135,-0.007
-0.006,-0.094,-0.088,0.05,0.042,-0.091,0.056,-0.182,-0.073,-0.199,-0.135,0.004
-0.007,-0.096,-0.089,0.052,0.041,-0.092,0.081,-0.049,-0.12,-0.201,-0.135,-0.004
0.019,-0.051,-0.07,0.017,0.044,-0.06,0.07,0.022,-0.164,-0.196,-0.149,0.003
