-0.059,-0.06,-0.001,0.06,-0.029,-0.031,0.01,0.04,-0.046,0.009,0.025,0.0
-0.046,-0.061,-0.015,0.054,-0.016,-0.038,-0.002,0.036,-0.053,0.004,0.021,0.0
-0.035,-0.057,-0.022,0.046,-0.007,-0.039,-0.03,0.028,-0.061,-0.002,0.014,-0.004
-0.064,-0.075,-0.011,0.07,-0.026,-0.043,-0.034,0.023,-0.06,-0.009,0.008,-0.006
-0.088,-0.095,-0.007,0.091,-0.04,-0.05,-0.022,0.014,-0.06,-0.01,0.0,-0.01
-0.084,-0.082,0.002,0.082,-0.043,-0.039,-0.017,0.012,-0.062,-0.01,-0.004,-0.01
-0.083,-0.083,0.0,0.083,-0.041,-0.041,-0.011,0.006,-0.06,-0.01,-0.001,-0.006
-0.062,-0.086,-0.024,0.075,-0.019,-0.055,-0.006,0.0,-0.055,-0.008,0.002,-0.003
-0.061,-0.083,-0.022,0.073,-0.019,-0.053,0.0,0.017,-0.053,-0.005,0.004,0.0
-0.066,-0.087,-0.021,0.076,-0.022,-0.054,0.006,0.021,-0.048,-0.002,0.008,0.003
-0.049,-0.082,-0.033,0.066,-0.008,-0.057,-0.009,0.019,-0.045,0.001,0.009,0.005
-0.036,-0.059,-0.023,0.048,-0.006,-0.041,-0.016,0.021,-0.049,0.005,0.013,0.008
-0.019,-0.041,-0.022,0.031,0.002,-0.031,0.0,0.02,-0.052,0.005,0.021,0.01
-0.033,-0.048,-0.015,0.041,-0.008,-0.032,-0.001,0.02,-0.057,-0.003,0.022,0.01
-0.03,-0.042,-0.012,0.036,-0.008,-0.026,-0.031,0.012,-0.06,-0.018,0.017,0.01
-0.043,-0.051,-0.008,0.047,-0.017,-0.029,-0.054,0.006,-0.057,-0.022,0.016,0.01
-0.093,-0.088,0.005,0.091,-0.048,-0.042,-0.057,-0.001,-0.052,-0.017,0.012,0.009
-0.059,-0.08,-0.021,0.07,-0.019,-0.05,-0.042,-0.007,-0.047,-0.011,0.009,0.01
-0.053,-0.063,-0.01,0.058,-0.021,-0.037,-0.014,-0.014,-0.043,-0.004,0.013,0.01
-0.045,-0.032,0.013,0.038,-0.028,-0.01,0.002,-0.011,-0.038,-0.001,0.022,0.013
-0.008,0.015,0.023,-0.003,-0.015,0.019,0.007,-0.001,-0.042,0.021,0.034,0.027
-0.033,0.03,0.063,0.001,-0.049,0.046,0.031,0.005,-0.021,0.029,0.04,0.035
-0.019,0.086,0.105,-0.034,-0.062,0.095,0.057,0.042,0.028,0.057,0.078,0.067
0.03,0.167,0.137,-0.099,-0.054,0.151,0.038,0.051,0.047,0.094,0.101,0.101
0.041,0.158,0.118,-0.1,-0.039,0.138,-0.004,0.025,0.04,0.077,0.092,0.088
0.001,0.09,0.09,-0.046,-0.045,0.09,-0.014,0.01,0.011,0.048,0.081,0.075
-0.052,0.007,0.059,0.022,-0.055,0.033,0.007,-0.019,-0.03,0.001,0.026,0.038
-0.081,-0.066,0.014,0.073,-0.047,-0.026,0.011,-0.062,-0.081,-0.051,0.0,-0.016
-0.096,-0.091,0.005,0.094,-0.051,-0.043,0.008,-0.085,-0.119,-0.079,-0.011,-0.04
-0.077,-0.105,-0.028,0.091,-0.024,-0.066,0.024,-0.074,-0.113,-0.077,-0.022,-0.039
-0.061,-0.103,-0.042,0.082,-0.009,-0.072,0.035,-0.08,-0.123,-0.085,-0.032,-0.04
-0.063,-0.1,-0.036,0.082,-0.014,-0.068,0.027,-0.067,-0.115,-0.084,-0.052,-0.04
-0.075,-0.093,-0.018,0.085,-0.028,-0.056,0.009,-0.076,-0.104,-0.077,-0.056,-0.039
-0.058,-0.109,-0.052,0.084,-0.003,-0.08,0.009,-0.051,-0.096,-0.086,-0.071,-0.04
-0.012,-0.132,-0.121,0.072,0.055,-0.126,0.079,0.167,0.026,-0.017,-0.015,-0.011
0.322,0.099,-0.223,-0.21,0.272,-0.062,-0.027,0.334,0.407,0.334,0.298,0.208
0.983,0.661,-0.323,-0.822,0.652,0.169,-0.699,-0.111,0.788,0.98,0.988,0.836
0.95,0.667,-0.283,-0.808,0.616,0.191,-1.093,-0.875,0.232,0.721,0.881,0.888
0.353,-0.001,-0.354,-0.176,0.354,-0.177,-0.697,-0.898,-0.53,-0.21,-0.023,0.163
0.057,-0.188,-0.245,0.066,0.152,-0.216,-0.319,-0.452,-0.423,-0.309,-0.197,-0.061
-0.072,-0.128,-0.055,0.1,-0.008,-0.091,-0.093,-0.188,-0.219,-0.174,-0.11,-0.035
-0.085,-0.157,-0.072,0.121,-0.006,-0.114,0.032,-0.075,-0.167,-0.174,-0.131,-0.075
-0.1,-0.117,-0.017,0.109,-0.041,-0.067,0.071,-0.052,-0.128,-0.127,-0.089,-0.045
-0.119,-0.159,-0.04,0.139,-0.039,-0.099,0.095,-0.014,-0.132,-0.134,-0.106,-0.06
-0.087,-0.136,-0.05,0.112,-0.018,-0.093,0.083,0.004,-0.11,-0.107,-0.083,-0.044
-0.085,-0.119,-0.034,0.102,-0.025,-0.077,0.132,0.016,-0.107,-0.109,-0.086,-0.047
-0.063,-0.124,-0.061,0.094,-0.001,-0.092,0.136,0.024,-0.081,-0.098,-0.073,-0.041
-0.073,-0.11,-0.037,0.091,-0.017,-0.073,0.104,0.039,-0.064,-0.092,-0.066,-0.039
-0.071,-0.114,-0.043,0.093,-0.014,-0.078,0.089,0.063,-0.052,-0.087,-0.059,-0.042
-0.063,-0.102,-0.039,0.083,-0.012,-0.07,0.102,0.09,-0.037,-0.079,-0.048,-0.038
-0.063,-0.102,-0.039,0.083,-0.012,-0.07,0.138,0.157,-0.02,-0.07,-0.048,-0.042
-0.045,-0.089,-0.044,0.067,0.0,-0.067,0.147,0.206,0.011,-0.045,-0.042,-0.038
-0.044,-0.053,-0.008,0.048,-0.018,-0.03,0.185,0.261,0.039,-0.035,-0.041,-0.028
-0.041,-0.052,-0.011,0.047,-0.015,-0.031,0.266,0.333,0.084,-0.009,-0.037,-0.016
-0.011,-0.02,-0.009,0.016,-0.001,-0.014,0.298,0.408,0.13,0.017,-0.035,-0.002
0.018,0.025,0.007,-0.022,0.005,0.016,0.299,0.46,0.154,0.025,-0.032,0.011
0.028,0.041,0.013,-0.035,0.007,0.027,0.342,0.478,0.194,0.053,-0.016,0.024
0.055,0.07,0.015,-0.062,0.019,0.042,0.363,0.469,0.215,0.074,-0.004,0.048
0.056,0.069,0.013,-0.062,0.021,0.041,0.342,0.445,0.203,0.067,0.01,0.049
0.025,0.072,0.046,-0.049,-0.011,0.059,0.287,0.413,0.183,0.062,0.018,0.043
0.014,0.055,0.042,-0.035,-0.014,0.048,0.22,0.318,0.138,0.052,0.003,0.041
-0.003,0.02,0.023,-0.008,-0.013,0.021,0.18,0.214,0.08,0.034,-0.005,0.036
0.007,0.004,-0.003,-0.005,0.005,0.0,0.162,0.13,0.031,0.007,-0.035,0.034
0.008,-0.01,-0.018,0.001,0.013,-0.013,0.158,0.079,0.009,-0.02,-0.067,0.025
-0.051,-0.051,0.0,0.051,-0.025,-0.025,0.144,0.038,-0.024,-0.038,-0.07,0.016
-0.059,-0.076,-0.017,0.068,-0.02,-0.047,0.13,0.0,-0.063,-0.062,-0.091,0.007
-0.049,-0.075,-0.027,0.062,-0.011,-0.051,0.083,-0.002,-0.065,-0.083,-0.106,-0.002
-0.068,-0.091,-0.024,0.08,-0.022,-0.057,0.042,-0.027,-0.066,-0.09,-0.109,-0.011
-0.058,-0.083,-0.025,0.071,-0.016,-0.054,0.039,-0.031,-0.063,-0.078,-0.103,-0.018
-0.053,-0.079,-0.026,0.067,-0.014,-0.052,0.023,-0.02,-0.081,-0.098,-0.109,-0.03
-0.053,-0.076,-0.023,0.065,-0.015,-0.049,0.024,-0.019,-0.101,-0.12,-0.128,-0.038
-0.037,-0.069,-0.032,0.053,-0.002,-0.05,0.045,-0.011,-0.085,-0.106,-0.123,-0.027
-0.036,-0.075,-0.039,0.056,0.002,-0.057,0.062,-0.005,-0.083,-0.098,-0.12,-0.017
-0.052,-0.073,-0.021,0.063,-0.015,-0.047,0.07,-0.021,-0.085,-0.094,-0.118,-0.015
-0.05,-0.07,-0.02,0.06,-0.015,-0.045,0.063,-0.042,-0.085,-0.095,-0.114,-0.015
-0.054,-0.07,-0.017,0.062,-0.018,-0.043,0.052,-0.032,-0.085,-0.095,-0.113,-0.011
-0.056,-0.069,-0.013,0.063,-0.021,-0.041,0.042,-0.026,-0.085,-0.095,-0.109,-0.01
-0.059,-0.071,-0.012,0.065,-0.024,-0.041,0.036,-0.021,-0.085,-0.095,-0.107,-0.01
-0.061,-0.069,-0.008,0.065,-0.027,-0.038,0.03,-0.01,-0.085,-0.09,-0.104,-0.005
-0.041,-0.075,-0.034,0.058,-0.003,-0.054,0.034,-0.02,-0.085,-0.09,-0.101,0.002
-0.034,-0.075,-0.04,0.055,0.004,-0.057,0.048,-0.032,-0.086,-0.089,-0.1,0.006
-0.034,-0.075,-0.041,0.055,0.004,-0.058,0.037,-0.028,-0.084,-0.085,-0.094,0.013
-0.042,-0.074,-0.032,0.058,-0.005,-0.052,0.024,-0.036,-0.087,-0.085,-0.082,0.013
-0.03,-0.028,0.002,0.029,-0.016,-0.012,0.021,-0.046,-0.077,-0.08,-0.074,0.001
-0.031,-0.023,0.008,0.027,-0.02,-0.007,0.018,-0.029,-0.046,-0.052,-0.061,0.014
-0.044,-0.01,0.034,0.027,-0.04,0.012,0.022,-0.016,-0.023,-0.038,-0.062,0.025
-0.015,0.063,0.079,-0.024,-0.047,0.07,0.016,-0.001,-0.013,-0.021,-0.029,0.062
0.032,0.125,0.093,-0.079,-0.031,0.109,0.033,0.035,0.005,0.024,0.007,0.099
0.059,0.141,0.082,-0.1,-0.012,0.111,0.045,0.023,0.016,0.027,-0.004,0.078
0.024,0.086,0.062,-0.055,-0.019,0.074,0.046,-0.008,-0.002,-0.006,-0.011,0.066
-0.03,0.007,0.038,0.011,-0.034,0.023,0.027,-0.032,-0.039,-0.055,-0.059,0.029
-0.083,-0.092,-0.008,0.088,-0.037,-0.05,-0.023,-0.071,-0.09,-0.097,-0.106,-0.012
-0.091,-0.135,-0.044,0.113,-0.023,-0.089,-0.004,-0.09,-0.122,-0.11,-0.116,-0.02
-0.074,-0.126,-0.051,0.1,-0.011,-0.088,-0.023,-0.081,-0.116,-0.115,-0.126,-0.029
-0.093,-0.147,-0.053,0.12,-0.02,-0.099,-0.065,-0.088,-0.122,-0.119,-0.128,-0.031
-0.095,-0.163,-0.068,0.129,-0.013,-0.115,-0.054,-0.094,-0.12,-0.129,-0.132,-0.043
-0.106,-0.159,-0.052,0.133,-0.027,-0.105,-0.055,-0.099,-0.117,-0.119,-0.128,-0.04
-0.092,-0.154,-0.061,0.123,-0.015,-0.107,-0.046,-0.079,-0.127,-0.132,-0.126,-0.029
-0.047,-0.164,-0.117,0.106,0.036,-0.141,-0.014,0.118,-0.051,-0.1,-0.1,-0.026
0.153,-0.045,-0.198,-0.053,0.176,-0.122,-0.019,0.324,0.259,0.155,0.082,0.09
0.77,0.498,-0.272,-0.634,0.52,0.113,-0.522,0.084,0.811,0.851,0.779,0.672
1.013,0.794,-0.219,-0.903,0.616,0.287,-1.131,-0.708,0.582,1.0,1.082,1.049
0.491,0.186,-0.305,-0.338,0.398,-0.059,-0.931,-1.008,-0.361,0.047,0.205,0.41
0.117,-0.218,-0.336,0.051,0.227,-0.277,-0.451,-0.567,-0.513,-0.367,-0.289,-0.069
-0.011,-0.157,-0.145,0.084,0.067,-0.151,-0.168,-0.246,-0.261,-0.209,-0.186,-0.044
-0.095,-0.182,-0.087,0.139,-0.004,-0.135,-0.023,-0.09,-0.195,-0.2,-0.205,-0.09
-0.083,-0.16,-0.078,0.122,-0.002,-0.119,-0.009,-0.038,-0.137,-0.151,-0.17,-0.075
-0.087,-0.162,-0.075,0.125,-0.006,-0.118,0.022,-0.01,-0.126,-0.159,-0.171,-0.081
-0.079,-0.154,-0.075,0.117,-0.001,-0.114,0.046,0.022,-0.105,-0.147,-0.157,-0.081
-0.085,-0.153,-0.068,0.119,-0.008,-0.11,0.073,0.03,-0.101,-0.132,-0.146,-0.078
-0.09,-0.161,-0.071,0.126,-0.009,-0.116,0.101,0.049,-0.096,-0.117,-0.14,-0.081
-0.074,-0.136,-0.063,0.105,-0.005,-0.099,0.117,0.059,-0.082,-0.104,-0.126,-0.068
-0.072,-0.138,-0.066,0.106,-0.002,-0.102,0.109,0.083,-0.057,-0.102,-0.126,-0.069
-0.067,-0.131,-0.064,0.1,-0.001,-0.098,0.094,0.102,-0.03,-0.088,-0.113,-0.059
-0.057,-0.122,-0.065,0.09,0.004,-0.093,0.153,0.139,-0.014,-0.086,-0.111,-0.056
-0.039,-0.106,-0.066,0.073,0.014,-0.086,0.208,0.185,0.007,-0.067,-0.1,-0.05
-0.039,-0.092,-0.053,0.066,0.007,-0.072,0.244,0.259,0.039,-0.049,-0.087,-0.043
-0.045,-0.074,-0.03,0.06,-0.007,-0.052,0.259,0.337,0.079,-0.021,-0.073,-0.032
-0.008,-0.03,-0.022,0.02,0.008,-0.026,0.242,0.39,0.128,0.008,-0.058,-0.023
0.011,-0.018,-0.029,0.004,0.02,-0.023,0.274,0.449,0.174,0.033,-0.039,-0.011
-0.005,-0.009,-0.004,0.007,0.0,-0.007,0.292,0.496,0.204,0.059,-0.013,0.006
-0.005,0.025,0.03,-0.01,-0.018,0.027,0.29,0.512,0.221,0.075,0.002,0.018
0.027,0.06,0.033,-0.044,-0.003,0.046,0.284,0.474,0.209,0.084,0.006,0.027
0.036,0.07,0.034,-0.053,0.001,0.051,0.247,0.415,0.194,0.079,0.012,0.035
-0.005,0.02,0.025,-0.008,-0.015,0.022,0.187,0.357,0.181,0.073,0.019,0.039
0.01,0.02,0.01,-0.016,0.0,0.015,0.129,0.26,0.142,0.064,0.016,0.033
0.04,0.048,0.007,-0.044,0.016,0.027,0.089,0.166,0.083,0.038,-0.001,0.025
0.011,0.003,-0.008,-0.007,0.01,-0.003,0.036,0.099,0.033,0.012,-0.025,0.019
-0.025,-0.035,-0.01,0.03,-0.007,-0.022,0.014,0.046,-0.001,-0.006,-0.041,0.011
-0.032,-0.039,-0.007,0.036,-0.012,-0.023,0.016,0.024,-0.016,-0.017,-0.056,0.004
-0.029,-0.058,-0.029,0.044,0.0,-0.043,0.014,0.026,-0.024,-0.025,-0.067,-0.003
-0.056,-0.071,-0.015,0.063,-0.02,-0.043,0.008,0.024,-0.036,-0.034,-0.064,-0.011
-0.061,-0.075,-0.014,0.068,-0.023,-0.044,0.012,0.02,-0.037,-0.043,-0.063,-0.018
-0.033,-0.071,-0.039,0.052,0.003,-0.054,0.002,0.02,-0.034,-0.045,-0.059,-0.025
-0.03,-0.057,-0.027,0.043,-0.001,-0.041,-0.033,0.017,-0.035,-0.045,-0.06,-0.033
-0.039,-0.068,-0.029,0.053,-0.004,-0.048,-0.031,0.015,-0.035,-0.045,-0.076,-0.038
-0.045,-0.059,-0.014,0.052,-0.015,-0.036,-0.024,0.015,-0.035,-0.045,-0.078,-0.036
-0.059,-0.045,0.015,0.052,-0.036,-0.015,-0.019,0.015,-0.034,-0.045,-0.07,-0.03
-0.05,-0.043,0.006,0.047,-0.028,-0.018,-0.037,0.01,-0.029,-0.038,-0.065,-0.025
-0.034,-0.052,-0.018,0.043,-0.008,-0.035,-0.046,0.005,-0.024,-0.031,-0.059,-0.022
-0.052,-0.071,-0.019,0.061,-0.016,-0.045,-0.004,0.0,-0.019,-0.024,-0.056,-0.015
-0.048,-0.055,-0.008,0.052,-0.02,-0.031,0.024,-0.004,-0.016,-0.018,-0.053,-0.022
-0.015,-0.054,-0.039,0.035,0.013,-0.047,0.022,-0.009,-0.009,-0.013,-0.051,-0.031
-0.029,-0.056,-0.027,0.043,-0.001,-0.041,-0.013,-0.014,-0.018,-0.01,-0.047,-0.023
-0.068,-0.055,0.013,0.062,-0.04,-0.021,-0.036,-0.014,-0.027,-0.007,-0.046,-0.02
-0.045,-0.053,-0.008,0.049,-0.018,-0.03,-0.024,-0.017,-0.018,-0.002,-0.042,-0.012
-0.018,-0.029,-0.011,0.023,-0.003,-0.02,-0.03,-0.009,-0.013,0.001,-0.035,-0.008
-0.018,0.005,0.023,0.006,-0.02,0.014,-0.008,-0.009,-0.005,0.022,-0.025,-0.003
-0.033,0.036,0.068,-0.001,-0.051,0.052,0.044,-0.017,0.001,0.028,-0.019,0.007
-0.034,0.057,0.091,-0.012,-0.063,0.074,0.047,0.001,0.008,0.033,0.0,0.012
0.007,0.116,0.109,-0.061,-0.051,0.112,0.065,0.037,0.048,0.079,0.047,0.041
0.039,0.176,0.137,-0.108,-0.049,0.156,0.11,0.035,0.071,0.094,0.063,0.07
0.04,0.147,0.107,-0.094,-0.034,0.127,0.108,0.017,0.045,0.081,0.046,0.071
-0.017,0.066,0.083,-0.025,-0.05,0.074,0.093,0.016,0.02,0.053,0.023,0.036
-0.045,-0.011,0.034,0.028,-0.04,0.012,0.081,-0.026,-0.021,0.009,-0.023,-0.013
-0.057,-0.079,-0.022,0.068,-0.018,-0.05,0.068,-0.05,-0.066,-0.019,-0.059,-0.03
-0.1,-0.106,-0.006,0.103,-0.047,-0.056,0.065,-0.055,-0.07,-0.038,-0.066,-0.046
-0.083,-0.093,-0.01,0.088,-0.037,-0.051,0.061,-0.086,-0.086,-0.046,-0.08,-0.059
-0.032,-0.085,-0.053,0.059,0.011,-0.069,0.071,-0.097,-0.102,-0.057,-0.096,-0.066
-0.049,-0.11,-0.06,0.08,0.006,-0.085,0.04,-0.077,-0.08,-0.044,-0.076,-0.065
-0.108,-0.123,-0.015,0.116,-0.047,-0.068,-0.001,-0.072,-0.08,-0.041,-0.08,-0.063
-0.065,-0.121,-0.056,0.093,-0.004,-0.088,0.023,0.009,-0.045,-0.042,-0.086,-0.07
0.027,-0.086,-0.113,0.03,0.071,-0.099,0.084,0.243,0.1,0.064,-0.002,-0.028
0.491,0.253,-0.238,-0.372,0.365,0.007,-0.171,0.324,0.574,0.548,0.445,0.323
1.088,0.781,-0.307,-0.934,0.697,0.237,-0.904,-0.273,0.829,1.115,1.072,0.929
0.842,0.548,-0.294,-0.695,0.568,0.127,-1.08,-0.927,0.069,0.58,0.678,0.735
0.299,-0.069,-0.368,-0.115,0.333,-0.218,-0.604,-0.758,-0.511,-0.222,-0.121,0.041
0.065,-0.14,-0.205,0.038,0.135,-0.172,-0.267,-0.373,-0.322,-0.193,-0.166,-0.08
-0.048,-0.129,-0.081,0.088,0.017,-0.105,-0.059,-0.15,-0.18,-0.116,-0.118,-0.076
-0.067,-0.141,-0.075,0.104,0.004,-0.108,-0.002,-0.045,-0.129,-0.087,-0.121,-0.102
-0.079,-0.12,-0.042,0.1,-0.018,-0.081,0.026,-0.034,-0.111,-0.058,-0.1,-0.089
-0.082,-0.128,-0.046,0.105,-0.018,-0.086,0.049,-0.001,-0.106,-0.066,-0.108,-0.108
-0.083,-0.11,-0.027,0.097,-0.028,-0.068,0.048,-0.001,-0.093,-0.044,-0.095,-0.094
-0.082,-0.111,-0.029,0.097,-0.026,-0.07,0.096,0.023,-0.089,-0.05,-0.104,-0.1
-0.077,-0.097,-0.02,0.088,-0.028,-0.059,0.096,0.03,-0.076,-0.037,-0.1,-0.091
-0.076,-0.098,-0.022,0.087,-0.027,-0.06,0.102,0.047,-0.068,-0.036,-0.118,-0.091
-0.095,-0.091,0.004,0.093,-0.049,-0.044,0.098,0.084,-0.056,-0.027,-0.108,-0.089
-0.082,-0.101,-0.019,0.091,-0.031,-0.059,0.106,0.106,-0.037,-0.024,-0.092,-0.082
-0.066,-0.074,-0.008,0.07,-0.029,-0.041,0.143,0.155,-0.002,-0.012,-0.08,-0.078
-0.072,-0.056,0.015,0.064,-0.043,-0.02,0.169,0.214,0.041,-0.001,-0.063,-0.07
-0.026,-0.036,-0.011,0.031,-0.007,-0.023,0.206,0.279,0.064,0.02,-0.053,-0.067
-0.047,-0.008,0.039,0.028,-0.043,0.015,0.249,0.336,0.089,0.058,-0.032,-0.057
-0.06,-0.006,0.055,0.033,-0.057,0.024,0.3,0.403,0.136,0.086,-0.014,-0.043
0.018,0.063,0.045,-0.041,-0.014,0.054,0.313,0.46,0.173,0.119,0.008,-0.03
0.028,0.066,0.038,-0.047,-0.005,0.052,0.31,0.475,0.202,0.128,0.027,-0.018
0.03,0.083,0.053,-0.057,-0.012,0.068,0.326,0.472,0.206,0.141,0.036,-0.005
0.045,0.125,0.08,-0.086,-0.018,0.102,0.318,0.432,0.19,0.151,0.051,0.004
0.024,0.097,0.073,-0.061,-0.025,0.085,0.278,0.369,0.17,0.134,0.055,0.016
0.018,0.092,0.075,-0.055,-0.029,0.083,0.235,0.278,0.12,0.12,0.049,0.022
0.012,0.078,0.065,-0.045,-0.027,0.071,0.192,0.173,0.068,0.096,0.04,0.014
-0.014,0.039,0.054,-0.013,-0.035,0.046,0.123,0.107,0.029,0.079,0.014,0.0
-0.039,0.009,0.047,0.014,-0.043,0.028,0.061,0.052,-0.002,0.056,-0.011,-0.009
-0.047,-0.003,0.043,0.025,-0.045,0.02,0.032,0.009,-0.036,0.023,-0.028,-0.023
-0.055,-0.014,0.042,0.035,-0.048,0.014,0.026,-0.007,-0.062,0.012,-0.037,-0.04
-0.063,-0.025,0.038,0.044,-0.05,0.006,0.021,-0.015,-0.064,0.008,-0.041,-0.039
-0.071,-0.036,0.035,0.053,-0.053,0.0,0.018,-0.02,-0.075,0.002,-0.04,-0.048
-0.076,-0.042,0.034,0.059,-0.055,-0.003,0.012,-0.029,-0.073,-0.004,-0.035,-0.051
-0.055,-0.039,0.016,0.047,-0.036,-0.011,0.009,-0.035,-0.076,-0.009,-0.035,-0.058
-0.053,-0.037,0.016,0.045,-0.034,-0.011,0.003,-0.035,-0.096,-0.006,-0.034,-0.076
-0.075,-0.034,0.041,0.054,-0.057,0.003,-0.019,-0.035,-0.087,0.001,-0.03,-0.067
-0.075,-0.035,0.04,0.055,-0.057,0.002,-0.017,-0.035,-0.081,0.007,-0.03,-0.061
-0.068,-0.031,0.037,0.049,-0.053,0.003,-0.001,-0.035,-0.075,0.015,-0.028,-0.054
-0.062,-0.027,0.035,0.044,-0.048,0.004,0.01,-0.032,-0.066,0.021,-0.024,-0.047
-0.06,-0.026,0.034,0.042,-0.046,0.004,0.012,-0.029,-0.068,0.027,-0.022,-0.042
-0.061,-0.023,0.038,0.041,-0.049,0.007,0.009,-0.031,-0.07,0.03,-0.019,-0.039
-0.055,-0.028,0.027,0.041,-0.04,0.0,0.01,-0.03,-0.07,0.029,-0.016,-0.041
-0.066,-0.021,0.045,0.043,-0.055,0.012,0.01,-0.031,-0.07,0.031,-0.014,-0.036
-0.088,-0.025,0.063,0.057,-0.076,0.019,0.011,-0.029,-0.07,0.028,-0.009,-0.035
-0.061,-0.002,0.059,0.031,-0.06,0.028,0.008,-0.025,-0.065,0.032,-0.001,-0.035
-0.049,0.011,0.061,0.019,-0.055,0.035,0.005,-0.025,-0.066,0.024,0.006,-0.036
-0.059,0.001,0.06,0.029,-0.06,0.03,0.001,-0.019,-0.06,0.029,0.013,-0.034
-0.031,0.042,0.073,-0.006,-0.053,0.057,0.0,-0.022,-0.062,0.046,0.023,-0.037
-0.05,0.058,0.108,-0.004,-0.079,0.083,0.008,-0.006,-0.05,0.052,0.032,-0.027
-0.002,0.138,0.14,-0.068,-0.071,0.139,0.033,0.024,-0.011,0.081,0.07,0.008
0.062,0.201,0.139,-0.132,-0.038,0.17,0.046,0.022,0.021,0.109,0.104,0.044
0.037,0.174,0.137,-0.106,-0.05,0.155,0.036,0.008,0.023,0.122,0.091,0.057
-0.007,0.123,0.129,-0.058,-0.068,0.126,0.027,0.003,-0.003,0.099,0.08,0.032
-0.035,0.049,0.083,-0.007,-0.059,0.066,0.02,-0.027,-0.05,0.052,0.044,-0.011
-0.055,-0.004,0.051,0.029,-0.053,0.023,0.009,-0.077,-0.097,0.009,0.003,-0.05
-0.1,-0.048,0.052,0.074,-0.076,0.002,0.002,-0.093,-0.109,-0.01,-0.015,-0.06
-0.069,-0.03,0.038,0.049,-0.054,0.004,-0.006,-0.087,-0.116,0.003,-0.032,-0.066
-0.098,-0.051,0.047,0.075,-0.072,-0.002,-0.033,-0.094,-0.134,-0.019,-0.038,-0.081
-0.114,-0.081,0.034,0.098,-0.074,-0.023,-0.063,-0.089,-0.127,-0.034,-0.045,-0.081
-0.12,-0.083,0.037,0.101,-0.079,-0.023,-0.063,-0.099,-0.116,-0.017,-0.041,-0.071
-0.152,-0.117,0.036,0.134,-0.093,-0.04,-0.065,-0.08,-0.116,-0.018,-0.056,-0.086
-0.06,-0.112,-0.053,0.086,-0.003,-0.082,0.0,0.112,-0.04,0.017,-0.025,-0.089
0.22,0.076,-0.144,-0.147,0.182,-0.034,-0.019,0.333,0.287,0.283,0.223,0.079
0.917,0.624,-0.292,-0.77,0.604,0.166,-0.658,0.029,0.734,0.925,0.882,0.66
1.095,0.757,-0.338,-0.926,0.716,0.209,-1.175,-0.738,0.374,0.893,0.989,0.884
0.488,0.142,-0.346,-0.315,0.417,-0.102,-0.848,-0.914,-0.443,-0.015,0.14,0.229
0.12,-0.126,-0.246,0.003,0.183,-0.185,-0.447,-0.519,-0.477,-0.275,-0.186,-0.123
-0.018,-0.065,-0.047,0.042,0.015,-0.056,-0.198,-0.239,-0.259,-0.113,-0.089,-0.088
-0.103,-0.125,-0.022,0.114,-0.04,-0.073,-0.06,-0.097,-0.208,-0.105,-0.111,-0.132
-0.138,-0.118,0.02,0.128,-0.079,-0.049,-0.051,-0.063,-0.16,-0.07,-0.071,-0.112
-0.153,-0.11,0.043,0.131,-0.098,-0.033,-0.03,-0.038,-0.164,-0.077,-0.077,-0.124
-0.144,-0.108,0.036,0.126,-0.09,-0.035,-0.015,-0.024,-0.129,-0.056,-0.062,-0.119
-0.141,-0.098,0.043,0.12,-0.092,-0.027,0.008,-0.012,-0.105,-0.052,-0.061,-0.12
-0.12,-0.09,0.03,0.104,-0.075,-0.029,0.013,0.02,-0.096,-0.044,-0.055,-0.121
-0.111,-0.071,0.041,0.091,-0.076,-0.015,0.02,0.027,-0.091,-0.033,-0.047,-0.118
-0.124,-0.059,0.065,0.092,-0.095,0.003,0.022,0.043,-0.086,-0.03,-0.046,-0.118
-0.147,-0.075,0.072,0.111,-0.109,-0.001,0.057,0.066,-0.073,-0.013,-0.034,-0.108
-0.132,-0.063,0.069,0.098,-0.1,0.003,0.118,0.11,-0.05,0.007,-0.027,-0.106
-0.098,-0.028,0.07,0.063,-0.084,0.021,0.14,0.163,-0.015,0.026,-0.019,-0.098
-0.095,-0.025,0.07,0.06,-0.082,0.023,0.186,0.221,0.017,0.038,-0.003,-0.094
-0.065,0.003,0.069,0.031,-0.067,0.036,0.22,0.292,0.054,0.052,0.017,-0.078
-0.026,0.038,0.064,-0.007,-0.046,0.051,0.218,0.362,0.092,0.069,0.029,-0.063
-0.042,0.042,0.085,0.0,-0.064,0.063,0.252,0.417,0.138,0.106,0.053,-0.052
-0.032,0.074,0.106,-0.022,-0.07,0.09,0.294,0.447,0.164,0.128,0.075,-0.039
-0.003,0.11,0.114,-0.054,-0.059,0.112,0.295,0.457,0.161,0.128,0.086,-0.026
-0.003,0.107,0.11,-0.052,-0.056,0.108,0.28,0.43,0.154,0.125,0.083,-0.011
0.005,0.101,0.096,-0.053,-0.046,0.098,0.273,0.38,0.149,0.117,0.077,-0.008
0.003,0.091,0.088,-0.048,-0.043,0.089,0.237,0.31,0.128,0.114,0.071,-0.016
-0.005,0.085,0.09,-0.04,-0.048,0.087,0.158,0.214,0.083,0.1,0.068,-0.02
-0.004,0.074,0.077,-0.035,-0.041,0.075,0.087,0.131,0.03,0.06,0.052,-0.028
-0.008,0.045,0.054,-0.019,-0.031,0.049,0.06,0.066,-0.032,0.033,0.034,-0.047
-0.041,0.023,0.065,0.009,-0.053,0.044,0.061,0.025,-0.064,0.02,0.028,-0.057
-0.062,0.016,0.078,0.023,-0.071,0.047,0.055,0.004,-0.068,0.007,0.009,-0.058
-0.067,-0.006,0.061,0.036,-0.064,0.028,0.044,-0.018,-0.079,0.003,0.002,-0.065
-0.089,-0.034,0.054,0.061,-0.071,0.01,0.039,-0.034,-0.08,-0.003,-0.002,-0.064
-0.078,-0.031,0.048,0.054,-0.063,0.008,0.029,-0.036,-0.094,-0.006,-0.007,-0.067
-0.06,-0.021,0.04,0.04,-0.05,0.009,0.02,-0.035,-0.102,-0.012,-0.011,-0.072
-0.051,-0.018,0.033,0.035,-0.042,0.007,-0.001,-0.035,-0.099,-0.015,-0.015,-0.07
-0.03,-0.005,0.025,0.017,-0.027,0.009,-0.007,-0.035,-0.101,-0.01,-0.01,-0.07
-0.058,-0.013,0.045,0.035,-0.051,0.016,0.003,-0.035,-0.1,-0.01,-0.01,-0.07
-0.092,-0.034,0.057,0.063,-0.074,0.011,-0.006,-0.035,-0.1,-0.01,-0.01,-0.07
-0.085,-0.031,0.054,0.058,-0.069,0.011,0.024,-0.034,-0.095,-0.01,-0.01,-0.07
-0.082,-0.023,0.059,0.052,-0.07,0.018,0.031,-0.037,-0.095,-0.01,-0.009,-0.066
-0.08,-0.02,0.061,0.05,-0.07,0.02,0.0,-0.043,-0.094,-0.012,-0.019,-0.065
-0.072,-0.013,0.059,0.042,-0.065,0.022,-0.006,-0.046,-0.09,-0.015,-0.026,-0.065
-0.066,-0.009,0.057,0.037,-0.061,0.024,-0.015,-0.049,-0.09,-0.015,-0.02,-0.065
-0.058,-0.005,0.053,0.031,-0.055,0.024,-0.025,-0.052,-0.088,-0.018,-0.018,-0.066
-0.06,0.001,0.061,0.029,-0.061,0.031,-0.029,-0.055,-0.083,-0.021,-0.014,-0.064
-0.098,-0.013,0.085,0.055,-0.092,0.036,-0.02,-0.054,-0.08,-0.019,-0.01,-0.058
-0.103,-0.018,0.086,0.06,-0.094,0.034,-0.007,-0.047,-0.077,-0.014,-0.007,-0.05
-0.083,0.0,0.083,0.041,-0.083,0.041,0.002,-0.042,-0.072,-0.004,0.0,-0.045
-0.068,0.025,0.093,0.021,-0.08,0.059,0.011,-0.037,-0.07,-0.001,0.001,-0.037
-0.051,0.049,0.1,0.001,-0.076,0.075,0.02,-0.03,-0.053,0.013,0.009,-0.032
-0.044,0.102,0.146,-0.029,-0.095,0.123,0.029,-0.031,-0.034,0.045,0.048,-0.018
-0.004,0.183,0.187,-0.089,-0.096,0.185,0.055,-0.028,-0.027,0.076,0.091,0.023
0.005,0.181,0.176,-0.094,-0.086,0.178,0.043,-0.033,-0.027,0.089,0.099,0.029
-0.003,0.139,0.142,-0.068,-0.073,0.14,0.009,-0.026,-0.032,0.052,0.061,-0.002
-0.032,0.067,0.099,-0.018,-0.066,0.083,-0.004,-0.034,-0.071,-0.003,0.007,-0.038
-0.099,-0.042,0.057,0.07,-0.078,0.008,-0.057,-0.088,-0.125,-0.04,-0.023,-0.069
-0.118,-0.068,0.05,0.093,-0.084,-0.009,-0.073,-0.105,-0.139,-0.058,-0.037,-0.083
-0.1,-0.063,0.037,0.081,-0.068,-0.013,-0.067,-0.105,-0.14,-0.058,-0.051,-0.089
-0.109,-0.075,0.034,0.092,-0.071,-0.02,-0.067,-0.116,-0.148,-0.065,-0.058,-0.094
-0.12,-0.086,0.034,0.103,-0.076,-0.026,-0.057,-0.117,-0.143,-0.074,-0.062,-0.096
-0.15,-0.112,0.038,0.131,-0.094,-0.037,-0.034,-0.116,-0.134,-0.071,-0.057,-0.095
-0.138,-0.117,0.021,0.127,-0.079,-0.048,-0.001,-0.087,-0.129,-0.086,-0.074,-0.107
-0.062,-0.104,-0.042,0.083,-0.01,-0.073,-0.002,0.071,-0.068,-0.05,-0.064,-0.1
0.169,0.021,-0.148,-0.095,0.159,-0.064,-0.047,0.296,0.23,0.194,0.146,0.032
0.849,0.553,-0.296,-0.701,0.572,0.128,-0.599,0.058,0.717,0.838,0.794,0.595
1.076,0.794,-0.282,-0.935,0.679,0.256,-1.165,-0.708,0.434,0.912,0.988,0.905
0.504,0.18,-0.324,-0.341,0.414,-0.072,-0.899,-0.97,-0.426,-0.005,0.158,0.27
0.128,-0.152,-0.28,0.013,0.204,-0.216,-0.467,-0.589,-0.526,-0.343,-0.243,-0.154
-0.008,-0.079,-0.072,0.044,0.032,-0.075,-0.225,-0.267,-0.262,-0.17,-0.123,-0.122
-0.084,-0.117,-0.033,0.101,-0.025,-0.075,-0.101,-0.115,-0.193,-0.169,-0.146,-0.152
-0.1,-0.093,0.007,0.097,-0.054,-0.043,-0.087,-0.073,-0.153,-0.13,-0.117,-0.138
-0.13,-0.099,0.031,0.114,-0.08,-0.034,-0.059,-0.048,-0.144,-0.127,-0.12,-0.148
-0.127,-0.09,0.036,0.108,-0.081,-0.027,-0.057,-0.022,-0.127,-0.109,-0.119,-0.141
-0.116,-0.086,0.029,0.101,-0.072,-0.028,-0.028,0.001,-0.114,-0.102,-0.118,-0.135
-0.112,-0.08,0.032,0.096,-0.072,-0.024,-0.003,0.022,-0.1,-0.098,-0.126,-0.133
-0.11,-0.056,0.053,0.083,-0.081,-0.001,0.016,0.031,-0.086,-0.087,-0.133,-0.125
-0.105,-0.079,0.026,0.091,-0.065,-0.026,0.036,0.045,-0.075,-0.085,-0.135,-0.125
-0.076,-0.059,0.017,0.067,-0.046,-0.021,0.061,0.064,-0.062,-0.074,-0.124,-0.117
-0.074,-0.044,0.03,0.059,-0.052,-0.006,0.108,0.111,-0.039,-0.07,-0.123,-0.112
-0.092,-0.044,0.048,0.068,-0.07,0.002,0.119,0.165,-0.004,-0.054,-0.113,-0.102
-0.057,-0.025,0.031,0.041,-0.044,0.003,0.139,0.223,0.024,-0.039,-0.111,-0.095
-0.055,-0.017,0.038,0.036,-0.046,0.01,0.169,0.287,0.058,-0.022,-0.098,-0.087
-0.049,0.02,0.069,0.014,-0.059,0.044,0.226,0.346,0.1,-0.001,-0.078,-0.079
-0.016,0.057,0.073,-0.021,-0.045,0.065,0.308,0.408,0.136,0.022,-0.068,-0.066
-0.023,0.079,0.102,-0.028,-0.063,0.09,0.318,0.449,0.166,0.049,-0.052,-0.055
-0.032,0.085,0.117,-0.026,-0.075,0.101,0.305,0.462,0.179,0.061,-0.042,-0.045
-0.015,0.091,0.106,-0.038,-0.061,0.098,0.301,0.434,0.17,0.055,-0.045,-0.036
0.01,0.115,0.105,-0.063,-0.048,0.11,0.275,0.371,0.158,0.051,-0.046,-0.024
0.005,0.104,0.099,-0.055,-0.047,0.102,0.236,0.31,0.127,0.048,-0.049,-0.024
0.004,0.097,0.093,-0.051,-0.045,0.095,0.194,0.231,0.084,0.037,-0.052,-0.031
-0.008,0.075,0.083,-0.034,-0.046,0.078,0.158,0.148,0.039,0.002,-0.057,-0.036
-0.029,0.043,0.072,-0.007,-0.051,0.057,0.128,0.076,-0.015,-0.043,-0.093,-0.051
-0.024,0.041,0.064,-0.009,-0.044,0.052,0.109,0.024,-0.036,-0.06,-0.119,-0.054
-0.035,0.02,0.055,0.007,-0.045,0.037,0.076,-0.002,-0.061,-0.07,-0.126,-0.066
-0.067,-0.021,0.046,0.043,-0.056,0.012,0.026,-0.028,-0.096,-0.085,-0.145,-0.082
-0.07,-0.03,0.04,0.05,-0.055,0.005,0.031,-0.036,-0.095,-0.085,-0.146,-0.079
-0.062,-0.025,0.037,0.043,-0.049,0.006,0.056,-0.034,-0.094,-0.082,-0.144,-0.08
-0.051,-0.016,0.035,0.033,-0.043,0.009,0.053,-0.031,-0.096,-0.078,-0.146,-0.08
-0.043,-0.013,0.029,0.028,-0.036,0.008,0.057,-0.029,-0.094,-0.094,-0.144,-0.08
-0.059,-0.021,0.038,0.04,-0.049,0.008,0.058,-0.05,-0.093,-0.104,-0.143,-0.078
-0.081,-0.019,0.063,0.05,-0.072,0.022,0.062,-0.055,-0.089,-0.092,-0.138,-0.074
-0.112,-0.053,0.059,0.082,-0.085,0.003,0.057,-0.049,-0.087,-0.089,-0.135,-0.072
-0.095,-0.061,0.033,0.078,-0.064,-0.014,0.056,-0.047,-0.083,-0.08,-0.131,-0.069
-0.085,-0.049,0.036,0.066,-0.06,-0.007,0.071,-0.042,-0.081,-0.08,-0.127,-0.066
-0.106,-0.051,0.054,0.078,-0.08,0.001,0.069,-0.041,-0.079,-0.079,-0.124,-0.064
-0.08,-0.043,0.038,0.061,-0.058,-0.002,0.078,-0.033,-0.076,-0.075,-0.121,-0.06
-0.072,-0.041,0.031,0.056,-0.051,-0.005,0.087,-0.048,-0.075,-0.075,-0.118,-0.06
-0.071,-0.037,0.035,0.054,-0.053,-0.001,0.081,-0.062,-0.074,-0.074,-0.116,-0.059
-0.066,-0.034,0.032,0.05,-0.048,0.0,0.08,-0.06,-0.07,-0.07,-0.112,-0.055
-0.092,-0.038,0.055,0.065,-0.073,0.008,0.076,-0.059,-0.069,-0.064,-0.111,-0.055
-0.097,-0.033,0.064,0.065,-0.08,0.015,0.076,-0.068,-0.081,-0.081,-0.107,-0.053
-0.101,-0.036,0.065,0.068,-0.083,0.015,0.064,-0.076,-0.088,-0.088,-0.102,-0.049
-0.061,0.002,0.063,0.029,-0.062,0.032,0.043,-0.068,-0.074,-0.074,-0.095,-0.051
-0.02,0.055,0.075,-0.018,-0.048,0.065,0.028,-0.068,-0.063,-0.065,-0.09,-0.049
-0.047,0.067,0.114,-0.01,-0.081,0.091,0.055,-0.049,-0.042,-0.049,-0.085,-0.023
-0.011,0.134,0.144,-0.062,-0.078,0.139,0.113,-0.02,0.011,-0.01,-0.046,0.024
0.023,0.183,0.16,-0.103,-0.069,0.171,0.116,-0.008,0.031,0.03,-0.003,0.061
-0.002,0.16,0.163,-0.079,-0.083,0.161,0.087,-0.005,0.005,0.02,-0.013,0.05
-0.047,0.102,0.148,-0.028,-0.098,0.125,0.067,-0.018,-0.026,-0.015,-0.049,0.016
-0.073,0.013,0.086,0.03,-0.079,0.049,0.023,-0.063,-0.074,-0.072,-0.091,-0.029
-0.1,-0.057,0.044,0.078,-0.072,-0.006,0.003,-0.105,-0.113,-0.11,-0.122,-0.062
-0.121,-0.079,0.043,0.1,-0.082,-0.018,0.01,-0.107,-0.119,-0.114,-0.13,-0.076
-0.094,-0.07,0.025,0.082,-0.06,-0.022,-0.001,-0.102,-0.129,-0.124,-0.137,-0.083
-0.106,-0.077,0.029,0.091,-0.068,-0.023,-0.007,-0.107,-0.146,-0.139,-0.153,-0.086
-0.102,-0.099,0.003,0.1,-0.052,-0.048,-0.018,-0.107,-0.134,-0.139,-0.15,-0.092
-0.105,-0.098,0.007,0.101,-0.056,-0.045,-0.023,-0.117,-0.123,-0.135,-0.148,-0.078
-0.082,-0.095,-0.013,0.089,-0.034,-0.054,-0.023,-0.053,-0.102,-0.134,-0.156,-0.087
-0.027,-0.113,-0.086,0.07,0.03,-0.1,0.068,0.162,0.011,-0.069,-0.097,-0.081
0.33,0.136,-0.194,-0.233,0.262,-0.029,-0.049,0.306,0.431,0.325,0.258,0.193
0.961,0.723,-0.238,-0.842,0.599,0.243,-0.77,-0.169,0.833,1.022,0.994,0.857
0.878,0.681,-0.197,-0.779,0.537,0.242,-1.149,-0.919,0.226,0.706,0.84,0.873
0.326,0.004,-0.322,-0.165,0.324,-0.159,-0.72,-0.883,-0.55,-0.267,-0.103,0.123
0.05,-0.176,-0.226,0.064,0.138,-0.201,-0.278,-0.443,-0.437,-0.353,-0.28,-0.104
-0.054,-0.11,-0.056,0.082,0.001,-0.083,-0.039,-0.207,-0.243,-0.224,-0.191,-0.079
-0.078,-0.138,-0.06,0.108,-0.009,-0.098,0.056,-0.096,-0.191,-0.214,-0.202,-0.12
-0.097,-0.127,-0.03,0.112,-0.033,-0.078,0.074,-0.068,-0.149,-0.161,-0.162,-0.094
-0.088,-0.136,-0.048,0.112,-0.02,-0.091,0.081,-0.026,-0.15,-0.17,-0.179,-0.11
-0.087,-0.119,-0.032,0.103,-0.027,-0.075,0.062,-0.013,-0.109,-0.139,-0.159,-0.095
-0.095,-0.116,-0.021,0.105,-0.036,-0.068,0.077,-0.006,-0.105,-0.16,-0.165,-0.103
-0.11,-0.109,0.001,0.11,-0.056,-0.054,0.092,0.006,-0.097,-0.156,-0.155,-0.096
-0.118,-0.107,0.011,0.112,-0.064,-0.048,0.102,0.018,-0.087,-0.14,-0.152,-0.091
-0.1,-0.103,-0.003,0.102,-0.049,-0.053,0.118,0.058,-0.068,-0.131,-0.144,-0.091
-0.132,-0.101,0.031,0.116,-0.082,-0.035,0.123,0.083,-0.041,-0.118,-0.133,-0.084
-0.125,-0.087,0.038,0.105,-0.082,-0.024,0.124,0.127,-0.024,-0.112,-0.128,-0.083
-0.082,-0.053,0.028,0.067,-0.055,-0.012,0.127,0.179,0.011,-0.097,-0.112,-0.077
-0.067,-0.036,0.031,0.051,-0.049,-0.002,0.124,0.233,0.042,-0.076,-0.101,-0.072
-0.07,-0.019,0.051,0.044,-0.06,0.016,0.14,0.307,0.074,-0.047,-0.085,-0.063
-0.045,0.015,0.06,0.015,-0.053,0.037,0.193,0.369,0.114,-0.027,-0.069,-0.059
-0.025,0.055,0.08,-0.015,-0.053,0.067,0.229,0.433,0.152,0.003,-0.047,-0.043
-0.034,0.058,0.093,-0.012,-0.064,0.076,0.26,0.451,0.183,0.029,-0.031,-0.018
-0.01,0.07,0.08,-0.03,-0.046,0.075,0.284,0.426,0.19,0.028,-0.03,-0.008
-0.004,0.077,0.082,-0.036,-0.043,0.079,0.279,0.409,0.186,0.022,-0.03,-0.001
-0.028,0.067,0.095,-0.02,-0.062,0.081,0.264,0.36,0.172,0.016,-0.029,0.006
-0.022,0.064,0.085,-0.021,-0.054,0.074,0.203,0.28,0.129,0.012,-0.03,0.013
-0.015,0.057,0.072,-0.022,-0.043,0.064,0.127,0.188,0.075,-0.001,-0.029,0.008
-0.026,0.053,0.078,-0.014,-0.052,0.065,0.08,0.1,0.032,-0.027,-0.04,-0.013
-0.027,0.042,0.068,-0.008,-0.048,0.055,0.043,0.034,0.003,-0.052,-0.06,-0.025
-0.038,0.024,0.063,0.007,-0.051,0.043,0.02,-0.006,-0.036,-0.066,-0.069,-0.04
-0.042,-0.017,0.025,0.029,-0.033,0.004,0.015,-0.028,-0.068,-0.079,-0.08,-0.046
-0.058,-0.044,0.014,0.051,-0.036,-0.014,0.01,-0.04,-0.058,-0.09,-0.091,-0.046
-0.102,-0.038,0.063,0.07,-0.082,0.012,0.004,-0.045,-0.063,-0.097,-0.098,-0.051
-0.099,-0.04,0.059,0.069,-0.079,0.01,-0.001,-0.045,-0.078,-0.106,-0.101,-0.05
-0.08,-0.035,0.046,0.057,-0.062,0.005,-0.007,-0.045,-0.073,-0.105,-0.099,-0.05
-0.073,-0.034,0.038,0.053,-0.055,0.002,-0.01,-0.045,-0.076,-0.105,-0.1,-0.049
-0.093,-0.039,0.054,0.066,-0.073,0.008,-0.013,-0.045,-0.075,-0.105,-0.1,-0.054
-0.102,-0.039,0.063,0.07,-0.083,0.012,-0.015,-0.045,-0.075,-0.105,-0.1,-0.055
-0.065,-0.035,0.03,0.05,-0.047,-0.003,-0.026,-0.045,-0.079,-0.101,-0.097,-0.048
-0.067,-0.024,0.043,0.045,-0.055,0.009,-0.031,-0.045,-0.077,-0.094,-0.091,-0.044
-0.081,-0.038,0.043,0.059,-0.062,0.003,-0.023,-0.045,-0.074,-0.088,-0.086,-0.038
-0.074,-0.036,0.038,0.055,-0.056,0.001,-0.02,-0.045,-0.071,-0.081,-0.083,-0.031
-0.06,-0.019,0.041,0.039,-0.05,0.011,-0.015,-0.045,-0.069,-0.074,-0.077,-0.033
-0.039,-0.033,0.006,0.036,-0.022,-0.014,-0.01,-0.046,-0.065,-0.07,-0.076,-0.038
-0.058,-0.028,0.029,0.043,-0.044,0.0,-0.021,-0.06,-0.066,-0.07,-0.079,-0.035
-0.074,-0.028,0.046,0.051,-0.06,0.009,-0.024,-0.066,-0.071,-0.07,-0.074,-0.032
-0.089,-0.024,0.064,0.056,-0.076,0.02,-0.017,-0.064,-0.07,-0.07,-0.069,-0.03
-0.098,-0.022,0.076,0.06,-0.087,0.027,-0.011,-0.068,-0.067,-0.07,-0.066,-0.026
-0.085,-0.039,0.046,0.062,-0.065,0.003,-0.007,-0.069,-0.059,-0.07,-0.059,-0.025
-0.083,-0.009,0.074,0.046,-0.078,0.032,0.003,-0.072,-0.055,-0.063,-0.057,-0.018
-0.058,0.02,0.078,0.019,-0.069,0.049,0.027,-0.056,-0.046,-0.044,-0.047,-0.008
-0.06,0.045,0.105,0.007,-0.083,0.075,0.032,-0.023,-0.029,-0.029,-0.027,0.006
-0.033,0.12,0.153,-0.044,-0.093,0.136,0.025,-0.014,0.001,0.004,0.0,0.045
0.014,0.178,0.164,-0.096,-0.075,0.17,0.026,-0.015,0.036,0.048,0.033,0.058
0.012,0.17,0.158,-0.091,-0.073,0.163,0.019,-0.016,0.022,0.039,0.035,0.04
-0.011,0.111,0.122,-0.05,-0.067,0.116,0.018,-0.012,-0.01,0.008,0.006,0.031
-0.063,0.033,0.096,0.015,-0.08,0.065,0.006,-0.036,-0.051,-0.038,-0.042,-0.006
-0.084,-0.028,0.056,0.055,-0.07,0.014,-0.037,-0.082,-0.1,-0.09,-0.075,-0.04
-0.104,-0.059,0.045,0.081,-0.074,-0.007,-0.043,-0.103,-0.107,-0.102,-0.097,-0.054
-0.108,-0.081,0.026,0.094,-0.067,-0.027,-0.033,-0.098,-0.103,-0.102,-0.112,-0.068
-0.126,-0.093,0.032,0.109,-0.079,-0.03,-0.021,-0.118,-0.103,-0.105,-0.107,-0.069
-0.13,-0.104,0.026,0.117,-0.078,-0.038,-0.019,-0.116,-0.099,-0.099,-0.115,-0.072
-0.126,-0.094,0.032,0.11,-0.079,-0.031,-0.012,-0.109,-0.1,-0.086,-0.111,-0.067
-0.112,-0.081,0.03,0.096,-0.071,-0.025,-0.011,-0.073,-0.076,-0.085,-0.121,-0.075
-0.039,-0.102,-0.063,0.07,0.012,-0.082,0.011,0.125,0.005,-0.049,-0.079,-0.066
0.245,0.093,-0.153,-0.169,0.199,-0.03,-0.054,0.338,0.367,0.267,0.21,0.137
0.912,0.647,-0.265,-0.779,0.588,0.191,-0.699,0.001,0.839,0.949,0.893,0.747
0.989,0.75,-0.24,-0.869,0.614,0.254,-1.171,-0.78,0.405,0.854,0.955,0.918
0.421,0.125,-0.295,-0.273,0.358,-0.085,-0.81,-0.901,-0.43,-0.077,0.073,0.239
0.107,-0.151,-0.258,0.023,0.182,-0.204,-0.41,-0.513,-0.456,-0.318,-0.245,-0.088
-0.057,-0.099,-0.041,0.078,-0.008,-0.07,-0.185,-0.251,-0.23,-0.181,-0.144,-0.074
-0.092,-0.124,-0.032,0.108,-0.03,-0.078,-0.066,-0.099,-0.163,-0.168,-0.172,-0.113
-0.094,-0.101,-0.007,0.098,-0.043,-0.054,-0.038,-0.066,-0.124,-0.116,-0.138,-0.098
-0.126,-0.107,0.019,0.116,-0.073,-0.043,-0.014,-0.029,-0.122,-0.129,-0.146,-0.121
-0.139,-0.098,0.041,0.118,-0.09,-0.028,-0.024,-0.027,-0.107,-0.115,-0.127,-0.104
-0.155,-0.093,0.061,0.124,-0.107,-0.016,-0.018,-0.017,-0.102,-0.109,-0.123,-0.101
-0.138,-0.093,0.045,0.115,-0.092,-0.024,-0.021,0.018,-0.09,-0.096,-0.117,-0.096
-0.143,-0.091,0.051,0.117,-0.097,-0.02,-0.021,0.025,-0.078,-0.084,-0.107,-0.084
-0.127,-0.086,0.041,0.106,-0.084,-0.022,-0.012,0.05,-0.067,-0.079,-0.105,-0.091
-0.111,-0.07,0.041,0.09,-0.075,-0.014,0.007,0.069,-0.058,-0.067,-0.094,-0.098
-0.109,-0.064,0.045,0.086,-0.077,-0.009,0.046,0.116,-0.033,-0.062,-0.094,-0.095
-0.095,-0.052,0.043,0.073,-0.069,-0.005,0.061,0.167,0.001,-0.052,-0.086,-0.087
-0.092,-0.038,0.053,0.065,-0.072,0.007,0.095,0.223,0.035,-0.029,-0.064,-0.083
-0.095,-0.019,0.076,0.057,-0.086,0.029,0.136,0.301,0.071,0.002,-0.036,-0.072
-0.066,0.005,0.071,0.03,-0.069,0.038,0.164,0.353,0.108,0.022,-0.018,-0.063
-0.069,0.016,0.085,0.026,-0.077,0.05,0.198,0.418,0.142,0.051,-0.005,-0.043
-0.049,0.063,0.112,-0.007,-0.08,0.087,0.216,0.456,0.167,0.073,0.01,-0.023
-0.003,0.103,0.106,-0.051,-0.055,0.104,0.248,0.446,0.177,0.09,0.035,-0.008
-0.022,0.082,0.104,-0.03,-0.063,0.092,0.259,0.438,0.168,0.103,0.047,0.0
-0.012,0.088,0.1,-0.038,-0.056,0.094,0.243,0.374,0.157,0.09,0.044,0.002
0.003,0.099,0.096,-0.051,-0.047,0.097,0.21,0.277,0.133,0.077,0.046,0.006
-0.011,0.081,0.092,-0.035,-0.052,0.086,0.157,0.204,0.088,0.058,0.042,0.01
-0.041,0.037,0.078,0.002,-0.06,0.057,0.107,0.127,0.038,0.028,0.024,0.007
-0.073,-0.004,0.069,0.038,-0.071,0.033,0.081,0.055,-0.001,0.012,-0.003,-0.006
-0.08,-0.017,0.063,0.048,-0.071,0.023,0.076,0.005,-0.038,-0.002,-0.031,-0.03
-0.095,-0.037,0.059,0.065,-0.077,0.011,0.069,-0.029,-0.067,-0.019,-0.035,-0.046
-0.082,-0.031,0.051,0.056,-0.066,0.009,0.06,-0.026,-0.064,-0.034,-0.041,-0.044
-0.082,-0.028,0.054,0.055,-0.068,0.013,0.036,-0.028,-0.068,-0.046,-0.057,-0.045
-0.129,-0.066,0.063,0.097,-0.096,-0.001,0.03,-0.037,-0.078,-0.046,-0.056,-0.044
-0.127,-0.071,0.056,0.098,-0.091,-0.007,0.029,-0.04,-0.083,-0.045,-0.055,-0.048
-0.11,-0.061,0.048,0.085,-0.078,-0.006,0.039,-0.059,-0.103,-0.045,-0.055,-0.055
-0.107,-0.059,0.048,0.083,-0.077,-0.005,0.074,-0.05,-0.104,-0.04,-0.05,-0.055
-0.101,-0.051,0.05,0.076,-0.075,-0.001,0.07,-0.035,-0.098,-0.04,-0.05,-0.055
-0.099,-0.047,0.052,0.073,-0.075,0.002,0.046,-0.036,-0.097,-0.039,-0.049,-0.055
-0.095,-0.04,0.055,0.067,-0.075,0.007,0.01,-0.035,-0.09,-0.035,-0.045,-0.055
-0.107,-0.052,0.055,0.079,-0.081,0.002,-0.015,-0.035,-0.09,-0.036,-0.043,-0.052
-0.106,-0.056,0.05,0.081,-0.078,-0.003,-0.016,-0.036,-0.09,-0.033,-0.04,-0.05
-0.103,-0.053,0.05,0.078,-0.076,-0.001,-0.012,-0.033,-0.09,-0.029,-0.036,-0.05
-0.101,-0.05,0.05,0.075,-0.075,0.0,-0.02,-0.047,-0.09,-0.031,-0.035,-0.05
-0.098,-0.049,0.049,0.074,-0.074,0.0,-0.049,-0.071,-0.09,-0.026,-0.032,-0.05
-0.098,-0.046,0.051,0.072,-0.074,0.002,-0.052,-0.07,-0.09,-0.025,-0.029,-0.049
-0.089,-0.042,0.047,0.065,-0.067,0.002,-0.046,-0.07,-0.094,-0.025,-0.031,-0.045
-0.11,-0.041,0.069,0.075,-0.089,0.014,-0.046,-0.07,-0.096,-0.02,-0.03,-0.037
-0.11,-0.033,0.077,0.071,-0.093,0.022,-0.04,-0.07,-0.094,-0.021,-0.031,-0.032
-0.114,-0.049,0.064,0.081,-0.089,0.007,-0.041,-0.067,-0.087,-0.018,-0.028,-0.023
-0.112,-0.032,0.081,0.072,-0.096,0.024,-0.033,-0.054,-0.082,-0.013,-0.022,-0.019
-0.063,0.012,0.075,0.025,-0.069,0.043,-0.018,-0.043,-0.076,-0.006,-0.013,-0.01
-0.07,0.021,0.092,0.025,-0.081,0.056,-0.004,-0.03,-0.072,-0.003,-0.009,0.003
-0.054,0.078,0.133,-0.012,-0.094,0.105,0.038,-0.015,-0.053,0.019,0.013,0.018
-0.003,0.152,0.155,-0.075,-0.079,0.153,0.063,0.01,-0.002,0.07,0.068,0.058
0.001,0.154,0.153,-0.077,-0.076,0.153,0.049,-0.005,0.017,0.084,0.072,0.065
-0.051,0.095,0.147,-0.022,-0.099,0.121,0.06,-0.018,0.0,0.059,0.038,0.031
-0.074,0.04,0.114,0.017,-0.094,0.076,0.036,-0.016,-0.05,0.006,-0.001,-0.016
-0.065,-0.026,0.039,0.046,-0.051,0.006,-0.022,-0.061,-0.108,-0.035,-0.031,-0.05
-0.134,-0.08,0.054,0.107,-0.094,-0.012,-0.021,-0.092,-0.127,-0.051,-0.05,-0.057
-0.123,-0.072,0.051,0.097,-0.086,-0.011,-0.043,-0.093,-0.131,-0.067,-0.072,-0.072
-0.125,-0.091,0.034,0.108,-0.079,-0.028,-0.056,-0.107,-0.126,-0.063,-0.068,-0.068
-0.133,-0.093,0.04,0.112,-0.086,-0.026,-0.048,-0.098,-0.122,-0.069,-0.073,-0.072
-0.122,-0.105,0.017,0.113,-0.069,-0.044,-0.047,-0.1,-0.111,-0.06,-0.066,-0.069
-0.147,-0.129,0.018,0.138,-0.083,-0.055,-0.039,-0.098,-0.118,-0.072,-0.075,-0.068
-0.058,-0.101,-0.043,0.08,-0.008,-0.071,-0.024,0.062,-0.063,-0.04,-0.054,-0.073
0.136,0.01,-0.126,-0.073,0.131,-0.058,-0.002,0.293,0.214,0.178,0.125,0.036
0.781,0.5,-0.281,-0.64,0.53,0.11,-0.514,0.125,0.686,0.768,0.713,0.549
1.124,0.779,-0.345,-0.951,0.734,0.217,-1.15,-0.601,0.514,0.952,1.03,0.936
0.614,0.256,-0.357,-0.435,0.486,-0.051,-0.931,-0.918,-0.322,0.116,0.275,0.385
0.176,-0.133,-0.309,-0.021,0.243,-0.221,-0.454,-0.58,-0.52,-0.303,-0.226,-0.098
-0.035,-0.118,-0.083,0.077,0.024,-0.101,-0.195,-0.28,-0.283,-0.152,-0.127,-0.072
-0.083,-0.11,-0.027,0.097,-0.027,-0.069,-0.052,-0.118,-0.199,-0.136,-0.139,-0.111
-0.105,-0.117,-0.012,0.111,-0.046,-0.064,-0.028,-0.073,-0.151,-0.089,-0.112,-0.102
-0.138,-0.139,-0.001,0.139,-0.069,-0.07,-0.004,-0.05,-0.147,-0.097,-0.109,-0.099
-0.131,-0.118,0.012,0.124,-0.071,-0.053,0.028,-0.032,-0.13,-0.091,-0.094,-0.1
-0.159,-0.114,0.045,0.136,-0.101,-0.035,0.047,-0.024,-0.123,-0.086,-0.082,-0.088
-0.127,-0.11,0.017,0.118,-0.072,-0.046,0.062,-0.004,-0.113,-0.084,-0.089,-0.094
-0.127,-0.102,0.026,0.114,-0.076,-0.038,0.075,0.004,-0.102,-0.066,-0.079,-0.093
-0.108,-0.101,0.007,0.104,-0.058,-0.047,0.074,0.035,-0.089,-0.064,-0.075,-0.094
-0.118,-0.094,0.024,0.106,-0.071,-0.035,0.078,0.071,-0.066,-0.045,-0.06,-0.082
-0.154,-0.09,0.064,0.122,-0.109,-0.013,0.069,0.109,-0.05,-0.035,-0.054,-0.079
-0.141,-0.075,0.066,0.107,-0.103,-0.004,0.116,0.157,-0.021,-0.018,-0.04,-0.07
-0.128,-0.064,0.064,0.095,-0.095,0.0,0.179,0.216,0.02,0.004,-0.029,-0.065
-0.091,-0.024,0.067,0.057,-0.079,0.021,0.211,0.282,0.059,0.018,-0.016,-0.058
-0.051,0.012,0.062,0.019,-0.057,0.037,0.252,0.337,0.091,0.037,0.002,-0.05
-0.022,0.043,0.065,-0.011,-0.044,0.053,0.267,0.383,0.129,0.07,0.033,-0.042
-0.005,0.078,0.084,-0.037,-0.045,0.081,0.298,0.436,0.165,0.099,0.061,-0.022
0.017,0.099,0.083,-0.058,-0.033,0.091,0.299,0.455,0.185,0.116,0.073,-0.007
0.028,0.119,0.091,-0.073,-0.032,0.105,0.279,0.437,0.181,0.122,0.085,0.002
0.026,0.116,0.091,-0.071,-0.033,0.103,0.266,0.398,0.168,0.114,0.08,0.013
0.03,0.109,0.08,-0.07,-0.025,0.094,0.228,0.313,0.142,0.104,0.071,0.022
-0.005,0.078,0.083,-0.037,-0.044,0.08,0.18,0.229,0.1,0.097,0.067,0.032
-0.011,0.059,0.07,-0.024,-0.041,0.065,0.126,0.149,0.048,0.082,0.043,0.029
-0.007,0.058,0.064,-0.026,-0.036,0.061,0.081,0.066,0.0,0.047,0.013,0.0
-0.033,0.018,0.051,0.007,-0.043,0.034,0.046,0.015,-0.037,0.022,0.004,-0.018
-0.028,0.005,0.033,0.011,-0.031,0.019,0.032,-0.024,-0.064,0.008,-0.002,-0.027
-0.046,-0.004,0.042,0.025,-0.044,0.019,0.038,-0.03,-0.069,-0.009,-0.01,-0.038
-0.072,-0.029,0.044,0.05,-0.058,0.007,0.032,-0.042,-0.081,-0.02,-0.018,-0.042
-0.069,-0.032,0.037,0.05,-0.053,0.002,0.038,-0.056,-0.092,-0.032,-0.024,-0.047
-0.074,-0.039,0.035,0.056,-0.054,-0.002,0.031,-0.045,-0.084,-0.03,-0.019,-0.049
-0.059,-0.028,0.031,0.044,-0.045,0.002,0.044,-0.044,-0.083,-0.022,-0.014,-0.046
-0.055,-0.029,0.025,0.042,-0.04,-0.002,0.072,-0.035,-0.079,-0.016,-0.008,-0.04
-0.085,-0.052,0.033,0.068,-0.059,-0.009,0.032,-0.033,-0.072,-0.009,-0.003,-0.037
-0.073,-0.032,0.04,0.052,-0.056,0.004,0.028,-0.024,-0.085,-0.002,0.004,-0.031
-0.059,-0.034,0.026,0.046,-0.042,-0.004,0.036,-0.026,-0.083,-0.003,0.001,-0.028
-0.052,-0.038,0.015,0.045,-0.033,-0.011,0.023,-0.046,-0.078,-0.016,-0.016,-0.039
-0.039,-0.023,0.015,0.031,-0.027,-0.004,0.023,-0.045,-0.083,-0.016,-0.015,-0.038
-0.046,-0.016,0.029,0.031,-0.037,0.006,0.013,-0.051,-0.069,-0.009,-0.008,-0.033
-0.042,-0.004,0.038,0.022,-0.039,0.016,0.013,-0.051,-0.061,-0.006,-0.004,-0.032
-0.055,-0.02,0.034,0.037,-0.044,0.007,0.003,-0.058,-0.06,-0.001,0.003,-0.025
-0.05,-0.022,0.028,0.036,-0.039,0.003,0.002,-0.05,-0.059,0.004,0.008,-0.027
-0.034,-0.009,0.025,0.021,-0.029,0.008,0.003,-0.036,-0.061,0.003,0.008,-0.03
-0.021,-0.002,0.019,0.011,-0.02,0.009,-0.007,-0.072,-0.059,-0.001,0.004,-0.031
-0.01,0.005,0.015,0.002,-0.013,0.01,-0.012,-0.084,-0.063,0.0,0.002,-0.034
-0.04,-0.011,0.029,0.025,-0.034,0.009,-0.012,-0.077,-0.074,-0.004,-0.001,-0.036
-0.052,-0.008,0.044,0.03,-0.048,0.018,-0.008,-0.082,-0.071,-0.006,-0.005,-0.031
-0.035,0.002,0.037,0.017,-0.036,0.019,-0.001,-0.079,-0.063,-0.004,-0.005,-0.029
-0.018,0.022,0.04,-0.002,-0.029,0.03,0.009,-0.07,-0.059,0.004,0.004,-0.024
-0.025,0.048,0.073,-0.012,-0.049,0.06,0.017,-0.055,-0.046,0.023,0.018,-0.022
-0.034,0.058,0.092,-0.012,-0.064,0.075,0.018,-0.038,-0.037,0.028,0.025,-0.017
-0.023,0.114,0.138,-0.046,-0.081,0.125,0.009,-0.012,-0.014,0.058,0.06,0.026
0.016,0.179,0.163,-0.097,-0.074,0.17,0.008,0.012,0.022,0.102,0.102,0.067
0.065,0.184,0.119,-0.125,-0.027,0.151,0.001,-0.01,0.019,0.097,0.096,0.062
0.035,0.13,0.096,-0.083,-0.031,0.113,-0.001,-0.043,-0.005,0.067,0.067,0.04
-0.031,0.051,0.082,-0.01,-0.056,0.066,-0.009,-0.055,-0.044,0.034,0.031,0.01
-0.054,-0.01,0.044,0.032,-0.049,0.017,-0.031,-0.085,-0.085,0.005,0.001,-0.025
-0.084,-0.049,0.035,0.067,-0.06,-0.007,-0.049,-0.106,-0.108,-0.034,-0.026,-0.042
-0.097,-0.083,0.014,0.089,-0.055,-0.034,-0.085,-0.096,-0.103,-0.047,-0.033,-0.04
-0.069,-0.06,0.009,0.065,-0.039,-0.026,-0.073,-0.102,-0.098,-0.042,-0.022,-0.038
-0.084,-0.062,0.022,0.073,-0.053,-0.019,-0.054,-0.105,-0.112,-0.049,-0.039,-0.049
-0.123,-0.101,0.022,0.112,-0.073,-0.039,-0.081,-0.122,-0.109,-0.039,-0.048,-0.058
-0.089,-0.08,0.009,0.084,-0.049,-0.035,-0.093,-0.102,-0.102,-0.053,-0.06,-0.072
-0.033,-0.086,-0.054,0.06,0.011,-0.07,-0.022,0.095,-0.031,-0.018,-0.033,-0.058
0.212,0.044,-0.167,-0.128,0.19,-0.061,-0.009,0.311,0.261,0.218,0.168,0.08
0.905,0.569,-0.336,-0.737,0.62,0.117,-0.566,0.058,0.694,0.821,0.787,0.624
1.123,0.782,-0.341,-0.952,0.732,0.22,-1.152,-0.705,0.409,0.883,0.968,0.921
0.546,0.192,-0.354,-0.369,0.45,-0.081,-0.881,-0.966,-0.409,0.0,0.161,0.304
0.147,-0.144,-0.291,-0.001,0.219,-0.217,-0.418,-0.575,-0.498,-0.322,-0.204,-0.097
0.002,-0.065,-0.067,0.032,0.034,-0.065,-0.188,-0.264,-0.254,-0.138,-0.092,-0.061
-0.051,-0.094,-0.043,0.073,-0.003,-0.068,-0.039,-0.108,-0.192,-0.126,-0.114,-0.097
-0.058,-0.077,-0.019,0.068,-0.019,-0.048,-0.007,-0.054,-0.142,-0.088,-0.083,-0.077
-0.088,-0.086,0.002,0.087,-0.045,-0.041,0.03,-0.047,-0.135,-0.093,-0.091,-0.097
-0.075,-0.095,-0.02,0.085,-0.027,-0.058,0.038,-0.029,-0.116,-0.081,-0.08,-0.099
-0.062,-0.083,-0.021,0.073,-0.02,-0.052,0.044,-0.012,-0.106,-0.075,-0.077,-0.089
-0.062,-0.082,-0.02,0.072,-0.021,-0.051,0.044,0.003,-0.094,-0.071,-0.075,-0.087
-0.07,-0.07,0.0,0.07,-0.034,-0.035,0.042,0.034,-0.081,-0.061,-0.066,-0.075
-0.055,-0.063,-0.008,0.059,-0.024,-0.035,0.076,0.05,-0.074,-0.058,-0.063,-0.073
-0.045,-0.053,-0.008,0.05,-0.018,-0.03,0.104,0.074,-0.053,-0.044,-0.047,-0.064
-0.051,-0.038,0.014,0.044,-0.032,-0.012,0.096,0.112,-0.03,-0.04,-0.042,-0.06
-0.062,-0.021,0.042,0.041,-0.052,0.01,0.095,0.157,-0.008,-0.027,-0.029,-0.052
-0.07,-0.021,0.049,0.045,-0.059,0.013,0.141,0.226,0.031,-0.007,-0.02,-0.046
-0.05,-0.013,0.037,0.032,-0.044,0.012,0.175,0.286,0.063,0.007,-0.009,-0.039
-0.018,0.038,0.056,-0.01,-0.037,0.046,0.23,0.346,0.103,0.036,0.016,-0.033
-0.011,0.067,0.078,-0.028,-0.045,0.072,0.265,0.407,0.147,0.063,0.033,-0.022
-0.01,0.064,0.074,-0.027,-0.042,0.068,0.278,0.451,0.171,0.083,0.044,-0.008
0.021,0.096,0.075,-0.059,-0.028,0.086,0.284,0.449,0.19,0.093,0.065,0.005
0.029,0.112,0.083,-0.071,-0.027,0.098,0.27,0.427,0.185,0.092,0.073,0.031
0.044,0.124,0.08,-0.084,-0.019,0.102,0.269,0.395,0.177,0.097,0.065,0.041
0.05,0.122,0.071,-0.086,-0.011,0.096,0.221,0.322,0.148,0.084,0.056,0.029
0.027,0.095,0.067,-0.061,-0.02,0.081,0.153,0.229,0.102,0.069,0.047,0.023
0.027,0.083,0.056,-0.055,-0.015,0.069,0.102,0.141,0.051,0.045,0.039,0.012
0.013,0.063,0.05,-0.038,-0.019,0.056,0.08,0.083,0.003,0.019,0.024,0.004
-0.011,0.023,0.033,-0.006,-0.022,0.028,0.092,0.032,-0.027,-0.013,-0.003,-0.005
-0.041,-0.011,0.029,0.026,-0.035,0.009,0.073,-0.012,-0.052,-0.044,-0.018,-0.014
-0.051,-0.018,0.033,0.034,-0.042,0.008,0.035,-0.025,-0.06,-0.052,-0.028,-0.022
-0.05,-0.024,0.026,0.037,-0.038,0.001,0.012,-0.036,-0.064,-0.055,-0.04,-0.033
-0.066,-0.02,0.046,0.043,-0.056,0.013,0.013,-0.048,-0.069,-0.055,-0.05,-0.032
-0.059,-0.016,0.043,0.037,-0.05,0.013,0.003,-0.05,-0.065,-0.066,-0.058,-0.029
-0.046,-0.014,0.032,0.03,-0.039,0.009,0.018,-0.05,-0.063,-0.063,-0.053,-0.03
-0.041,-0.008,0.033,0.024,-0.037,0.012,0.055,-0.05,-0.06,-0.072,-0.047,-0.025
-0.068,-0.031,0.036,0.049,-0.052,0.002,0.048,-0.05,-0.056,-0.085,-0.043,-0.025
-0.071,-0.04,0.031,0.055,-0.051,-0.004,0.037,-0.05,-0.055,-0.066,-0.036,-0.024
-0.063,-0.029,0.034,0.046,-0.048,0.002,0.024,-0.052,-0.052,-0.071,-0.031,-0.02
-0.075,-0.025,0.05,0.05,-0.063,0.012,0.006,-0.056,-0.049,-0.081,-0.038,-0.02
-0.058,-0.017,0.041,0.037,-0.05,0.012,-0.008,-0.054,-0.051,-0.076,-0.041,-0.02
-0.047,-0.011,0.036,0.029,-0.042,0.012,-0.012,-0.056,-0.049,-0.074,-0.039,-0.02
-0.035,-0.004,0.031,0.02,-0.033,0.013,0.008,-0.06,-0.051,-0.069,-0.041,-0.02
-0.024,0.002,0.026,0.011,-0.025,0.014,0.02,-0.057,-0.048,-0.065,-0.04,-0.024
-0.009,0.012,0.021,-0.001,-0.015,0.016,0.02,-0.063,-0.045,-0.067,-0.04,-0.025
0.007,0.026,0.018,-0.017,-0.006,0.022,0.019,-0.067,-0.045,-0.07,-0.043,-0.025
0.015,0.026,0.011,-0.021,0.002,0.018,0.021,-0.064,-0.042,-0.073,-0.048,-0.03
0.001,0.014,0.014,-0.007,-0.007,0.014,0.018,-0.067,-0.04,-0.076,-0.049,-0.03
-0.043,0.008,0.051,0.018,-0.048,0.029,0.025,-0.063,-0.039,-0.08,-0.043,-0.029
-0.073,-0.004,0.069,0.038,-0.071,0.032,0.036,-0.069,-0.049,-0.08,-0.038,-0.023
-0.069,-0.007,0.062,0.037,-0.066,0.028,0.058,-0.075,-0.048,-0.071,-0.032,-0.015
-0.038,0.029,0.068,0.004,-0.053,0.048,0.086,-0.067,-0.033,-0.058,-0.026,-0.011
-0.001,0.062,0.063,-0.031,-0.032,0.062,0.093,-0.059,-0.019,-0.047,-0.022,-0.001
-0.004,0.063,0.067,-0.03,-0.036,0.065,0.086,-0.052,-0.014,-0.045,-0.012,0.001
-0.005,0.11,0.114,-0.053,-0.06,0.112,0.098,-0.054,0.008,-0.022,0.005,0.025
0.042,0.184,0.142,-0.113,-0.05,0.163,0.114,-0.054,0.049,0.015,0.038,0.071
0.037,0.185,0.148,-0.111,-0.056,0.166,0.07,-0.057,0.041,0.03,0.048,0.069
0.022,0.151,0.129,-0.087,-0.054,0.14,0.052,-0.052,0.034,0.015,0.026,0.047
-0.026,0.051,0.077,-0.013,-0.052,0.064,0.047,-0.064,-0.006,-0.035,-0.016,0.018
-0.099,-0.059,0.04,0.079,-0.069,-0.009,0.002,-0.1,-0.07,-0.089,-0.061,-0.013
-0.096,-0.063,0.033,0.079,-0.064,-0.014,-0.006,-0.118,-0.082,-0.11,-0.077,-0.037
-0.07,-0.058,0.013,0.064,-0.041,-0.022,-0.012,-0.116,-0.094,-0.115,-0.087,-0.051
-0.082,-0.08,0.002,0.081,-0.042,-0.039,-0.035,-0.123,-0.097,-0.122,-0.085,-0.048
-0.081,-0.1,-0.019,0.09,-0.031,-0.059,-0.047,-0.117,-0.089,-0.129,-0.096,-0.057
-0.066,-0.101,-0.035,0.083,-0.015,-0.068,-0.069,-0.108,-0.077,-0.128,-0.097,-0.053
-0.091,-0.106,-0.015,0.099,-0.037,-0.061,-0.058,-0.114,-0.078,-0.139,-0.114,-0.062
-0.033,-0.095,-0.063,0.064,0.015,-0.079,0.01,0.026,-0.033,-0.093,-0.101,-0.056
0.149,0.01,-0.139,-0.079,0.144,-0.064,0.016,0.267,0.219,0.09,0.061,0.04
0.748,0.48,-0.268,-0.613,0.507,0.106,-0.449,0.119,0.73,0.717,0.68,0.564
1.081,0.822,-0.259,-0.951,0.67,0.281,-1.08,-0.654,0.613,0.986,1.075,1.009
0.587,0.303,-0.284,-0.444,0.435,0.01,-0.959,-1.045,-0.285,0.097,0.289,0.449
0.171,-0.146,-0.317,-0.012,0.244,-0.231,-0.492,-0.663,-0.525,-0.411,-0.274,-0.055
-0.03,-0.124,-0.095,0.077,0.033,-0.109,-0.196,-0.308,-0.248,-0.24,-0.168,-0.047
-0.098,-0.142,-0.044,0.12,-0.027,-0.092,0.001,-0.139,-0.163,-0.206,-0.179,-0.092
-0.08,-0.119,-0.039,0.1,-0.021,-0.078,0.045,-0.091,-0.115,-0.173,-0.146,-0.073
-0.086,-0.088,-0.002,0.087,-0.042,-0.045,0.06,-0.072,-0.11,-0.17,-0.145,-0.073
-0.071,-0.097,-0.026,0.084,-0.022,-0.062,0.073,-0.051,-0.093,-0.158,-0.137,-0.07
-0.093,-0.103,-0.01,0.099,-0.041,-0.057,0.084,-0.043,-0.072,-0.148,-0.124,-0.061
-0.088,-0.097,-0.009,0.093,-0.039,-0.053,0.086,-0.014,-0.064,-0.145,-0.128,-0.063
-0.086,-0.087,-0.001,0.087,-0.042,-0.044,0.084,-0.002,-0.051,-0.131,-0.117,-0.067
-0.093,-0.084,0.009,0.088,-0.051,-0.038,0.086,0.017,-0.035,-0.13,-0.12,-0.073
-0.074,-0.074,0.0,0.074,-0.036,-0.037,0.084,0.041,-0.012,-0.119,-0.112,-0.06
-0.053,-0.067,-0.014,0.061,-0.019,-0.04,0.113,0.082,0.008,-0.11,-0.109,-0.058
-0.058,-0.059,-0.002,0.059,-0.028,-0.03,0.148,0.127,0.025,-0.094,-0.1,-0.048
-0.07,-0.049,0.021,0.059,-0.045,-0.014,0.172,0.183,0.057,-0.079,-0.089,-0.043
-0.093,-0.042,0.051,0.067,-0.072,0.004,0.198,0.252,0.086,-0.05,-0.06,-0.037
-0.061,-0.015,0.046,0.038,-0.053,0.015,0.24,0.316,0.126,-0.017,-0.032,-0.027
-0.019,0.023,0.042,-0.002,-0.03,0.032,0.281,0.379,0.179,0.012,-0.014,-0.018
0.001,0.071,0.07,-0.036,-0.035,0.07,0.326,0.427,0.206,0.032,-0.004,0.003
0.042,0.108,0.066,-0.075,-0.013,0.087,0.347,0.434,0.223,0.035,0.004,0.027
0.03,0.102,0.072,-0.066,-0.022,0.087,0.324,0.418,0.214,0.026,0.011,0.029
0.013,0.116,0.103,-0.065,-0.045,0.109,0.279,0.393,0.206,0.022,0.022,0.032
0.01,0.101,0.091,-0.056,-0.04,0.096,0.223,0.328,0.191,0.013,0.035,0.044
0.031,0.074,0.043,-0.053,-0.006,0.058,0.155,0.226,0.145,0.009,0.022,0.036
0.04,0.074,0.034,-0.058,0.003,0.054,0.118,0.141,0.101,-0.004,0.003,0.025
0.015,0.044,0.029,-0.03,-0.007,0.036,0.11,0.076,0.057,-0.046,-0.016,0.015
-0.008,0.02,0.028,-0.006,-0.018,0.023,0.096,0.014,0.014,-0.066,-0.039,0.003
-0.04,0.014,0.054,0.013,-0.048,0.034,0.088,-0.005,-0.011,-0.082,-0.062,-0.009
-0.052,-0.01,0.041,0.031,-0.046,0.016,0.077,-0.022,-0.02,-0.095,-0.075,-0.02
-0.063,-0.032,0.032,0.047,-0.047,0.0,0.056,-0.049,-0.039,-0.1,-0.081,-0.033
-0.057,-0.02,0.037,0.038,-0.046,0.008,0.026,-0.05,-0.051,-0.112,-0.086,-0.04
-0.071,-0.037,0.034,0.053,-0.052,-0.001,0.021,-0.051,-0.049,-0.109,-0.085,-0.042
-0.085,-0.05,0.035,0.067,-0.06,-0.007,0.041,-0.054,-0.062,-0.11,-0.082,-0.046
-0.069,-0.033,0.036,0.051,-0.052,0.002,0.032,-0.056,-0.066,-0.11,-0.077,-0.041
-0.063,-0.032,0.031,0.047,-0.047,-0.001,0.019,-0.053,-0.061,-0.11,-0.074,-0.035
-0.04,-0.015,0.025,0.027,-0.032,0.005,0.006,-0.05,-0.059,-0.108,-0.071,-0.03
-0.048,-0.036,0.012,0.042,-0.03,-0.011,0.004,-0.05,-0.056,-0.103,-0.066,-0.024
-0.052,-0.041,0.011,0.047,-0.031,-0.015,0.013,-0.05,-0.054,-0.1,-0.066,-0.018
-0.051,-0.01,0.041,0.03,-0.046,0.015,0.019,-0.056,-0.051,-0.097,-0.07,-0.016
-0.069,-0.025,0.044,0.047,-0.056,0.009,0.025,-0.045,-0.048,-0.092,-0.07,-0.022
-0.075,-0.041,0.034,0.058,-0.054,-0.004,0.038,-0.061,-0.045,-0.09,-0.072,-0.025
-0.072,-0.037,0.035,0.054,-0.053,-0.001,0.056,-0.076,-0.043,-0.095,-0.076,-0.03
-0.044,-0.018,0.026,0.031,-0.035,0.004,0.043,-0.078,-0.039,-0.095,-0.074,-0.035
-0.051,-0.027,0.024,0.038,-0.037,-0.001,0.027,-0.096,-0.045,-0.096,-0.079,-0.035
-0.092,-0.048,0.045,0.07,-0.068,-0.002,0.02,-0.095,-0.056,-0.1,-0.08,-0.035
-0.09,-0.038,0.052,0.064,-0.071,0.007,0.011,-0.093,-0.055,-0.1,-0.08,-0.035
-0.073,-0.035,0.038,0.054,-0.055,0.001,0.005,-0.088,-0.056,-0.098,-0.081,-0.035
-0.064,-0.033,0.032,0.048,-0.048,0.0,-0.009,-0.096,-0.055,-0.093,-0.08,-0.035
-0.038,-0.02,0.018,0.029,-0.028,-0.001,-0.017,-0.107,-0.055,-0.088,-0.08,-0.034
-0.047,-0.006,0.041,0.026,-0.044,0.017,-0.021,-0.091,-0.053,-0.085,-0.065,-0.028
-0.043,0.041,0.084,0.0,-0.064,0.062,-0.013,-0.083,-0.043,-0.074,-0.057,-0.019
-0.039,0.042,0.081,-0.002,-0.06,0.061,0.001,-0.073,-0.038,-0.052,-0.051,-0.004
-0.038,0.075,0.113,-0.019,-0.076,0.094,0.031,-0.045,0.001,-0.027,-0.017,0.029
0.016,0.185,0.169,-0.101,-0.076,0.177,0.056,-0.02,0.054,0.008,0.007,0.06
0.005,0.176,0.171,-0.091,-0.083,0.173,0.041,-0.036,0.053,0.025,0.018,0.067
0.008,0.136,0.128,-0.072,-0.06,0.132,0.021,-0.055,0.032,0.009,0.016,0.053
-0.01,0.06,0.071,-0.025,-0.041,0.065,0.007,-0.067,-0.005,-0.025,-0.011,0.016
-0.074,-0.028,0.046,0.05,-0.059,0.009,-0.032,-0.111,-0.061,-0.083,-0.055,-0.027
-0.076,-0.056,0.021,0.066,-0.048,-0.017,-0.034,-0.145,-0.087,-0.111,-0.09,-0.049
-0.066,-0.087,-0.021,0.077,-0.022,-0.054,-0.013,-0.135,-0.086,-0.111,-0.09,-0.052
-0.056,-0.069,-0.014,0.063,-0.021,-0.041,-0.029,-0.137,-0.082,-0.108,-0.09,-0.047
-0.101,-0.088,0.013,0.094,-0.057,-0.037,-0.006,-0.133,-0.082,-0.112,-0.105,-0.066
-0.115,-0.09,0.024,0.102,-0.069,-0.033,-0.019,-0.127,-0.077,-0.108,-0.096,-0.069
-0.107,-0.075,0.032,0.091,-0.069,-0.021,-0.05,-0.133,-0.082,-0.106,-0.104,-0.073
-0.081,-0.111,-0.03,0.096,-0.025,-0.07,-0.018,0.003,-0.038,-0.084,-0.081,-0.079
0.092,-0.024,-0.116,-0.033,0.104,-0.07,0.038,0.257,0.196,0.073,0.047,0.011
0.663,0.414,-0.249,-0.538,0.456,0.082,-0.355,0.183,0.703,0.663,0.603,0.487
1.085,0.821,-0.264,-0.953,0.675,0.278,-1.097,-0.543,0.706,1.035,1.096,0.991
0.633,0.383,-0.25,-0.507,0.441,0.066,-1.054,-1.01,-0.15,0.252,0.422,0.543
0.156,-0.133,-0.289,-0.012,0.223,-0.21,-0.554,-0.7,-0.51,-0.357,-0.244,-0.044
-0.004,-0.109,-0.104,0.057,0.05,-0.106,-0.289,-0.354,-0.273,-0.232,-0.177,-0.063
-0.084,-0.115,-0.031,0.1,-0.026,-0.073,-0.114,-0.161,-0.184,-0.183,-0.166,-0.083
-0.066,-0.11,-0.044,0.088,-0.011,-0.077,-0.057,-0.09,-0.132,-0.142,-0.15,-0.089
-0.092,-0.101,-0.008,0.097,-0.042,-0.054,-0.016,-0.079,-0.114,-0.15,-0.141,-0.094
-0.082,-0.103,-0.022,0.093,-0.03,-0.062,0.004,-0.056,-0.093,-0.145,-0.138,-0.099
-0.104,-0.092,0.013,0.098,-0.058,-0.039,0.008,-0.046,-0.071,-0.125,-0.121,-0.091
-0.1,-0.097,0.004,0.098,-0.052,-0.046,0.034,-0.028,-0.062,-0.125,-0.119,-0.099
-0.078,-0.088,-0.01,0.083,-0.034,-0.049,0.047,-0.019,-0.048,-0.104,-0.102,-0.091
-0.108,-0.089,0.019,0.098,-0.063,-0.035,0.063,0.01,-0.042,-0.1,-0.104,-0.095
-0.112,-0.085,0.027,0.098,-0.069,-0.029,0.089,0.037,-0.026,-0.082,-0.096,-0.087
-0.105,-0.079,0.027,0.092,-0.066,-0.026,0.101,0.075,-0.014,-0.072,-0.093,-0.087
-0.082,-0.046,0.036,0.064,-0.059,-0.004,0.118,0.126,0.002,-0.056,-0.088,-0.082
-0.111,-0.049,0.061,0.08,-0.086,0.006,0.148,0.191,0.03,-0.043,-0.073,-0.08
-0.099,-0.038,0.062,0.068,-0.08,0.012,0.123,0.25,0.071,-0.024,-0.052,-0.079
-0.057,0.012,0.069,0.023,-0.063,0.041,0.15,0.301,0.108,-0.001,-0.038,-0.063
-0.06,0.023,0.083,0.018,-0.071,0.052,0.224,0.362,0.146,0.028,-0.024,-0.05
-0.026,0.056,0.082,-0.015,-0.055,0.069,0.256,0.414,0.185,0.056,0.002,-0.048
-0.006,0.089,0.096,-0.042,-0.051,0.092,0.259,0.428,0.198,0.069,0.028,-0.043
0.011,0.097,0.087,-0.054,-0.038,0.092,0.252,0.413,0.197,0.089,0.044,-0.011
0.028,0.111,0.083,-0.07,-0.027,0.097,0.247,0.394,0.186,0.087,0.042,0.008
0.027,0.103,0.076,-0.065,-0.025,0.09,0.188,0.324,0.155,0.074,0.033,-0.002
0.021,0.092,0.071,-0.057,-0.025,0.081,0.11,0.222,0.111,0.066,0.025,-0.004
0.005,0.072,0.066,-0.039,-0.031,0.069,0.069,0.141,0.07,0.052,0.018,-0.012
-0.026,0.039,0.064,-0.007,-0.045,0.051,0.042,0.077,0.036,0.032,0.008,-0.015
-0.054,0.011,0.065,0.021,-0.06,0.038,0.024,0.021,0.003,0.002,-0.009,-0.024
-0.069,-0.009,0.059,0.039,-0.064,0.025,0.007,-0.015,-0.026,-0.02,-0.025,-0.043
-0.075,-0.013,0.062,0.044,-0.068,0.024,-0.007,-0.042,-0.045,-0.03,-0.033,-0.052
-0.081,-0.024,0.057,0.052,-0.069,0.016,-0.029,-0.062,-0.055,-0.039,-0.039,-0.06
-0.099,-0.031,0.068,0.065,-0.084,0.018,-0.043,-0.065,-0.055,-0.046,-0.04,-0.059
-0.084,-0.03,0.054,0.057,-0.069,0.012,-0.038,-0.069,-0.055,-0.049,-0.04,-0.063
-0.099,-0.05,0.049,0.074,-0.073,-0.001,-0.032,-0.07,-0.055,-0.045,-0.04,-0.072
-0.119,-0.052,0.067,0.085,-0.093,0.007,-0.028,-0.064,-0.055,-0.042,-0.04,-0.071
-0.097,-0.041,0.056,0.069,-0.076,0.008,-0.022,-0.061,-0.055,-0.04,-0.04,-0.065
-0.098,-0.038,0.061,0.068,-0.079,0.011,-0.015,-0.056,-0.052,-0.036,-0.04,-0.061
-0.092,-0.027,0.065,0.059,-0.078,0.018,-0.033,-0.052,-0.046,-0.035,-0.04,-0.056
-0.094,-0.027,0.067,0.06,-0.08,0.02,-0.044,-0.046,-0.041,-0.031,-0.036,-0.051
-0.097,-0.026,0.071,0.061,-0.084,0.022,-0.034,-0.043,-0.038,-0.025,-0.03,-0.052
-0.095,-0.026,0.069,0.06,-0.081,0.021,-0.026,-0.037,-0.032,-0.02,-0.024,-0.056
-0.093,-0.022,0.071,0.057,-0.081,0.024,-0.014,-0.037,-0.031,-0.014,-0.019,-0.055
-0.09,-0.02,0.07,0.055,-0.08,0.025,0.006,-0.045,-0.035,-0.009,-0.014,-0.055
-0.089,-0.02,0.07,0.054,-0.079,0.025,0.019,-0.046,-0.035,-0.005,-0.01,-0.055
-0.082,-0.011,0.07,0.046,-0.076,0.029,0.023,-0.061,-0.035,-0.017,-0.01,-0.055
-0.09,-0.019,0.071,0.055,-0.081,0.026,0.028,-0.071,-0.035,-0.03,-0.01,-0.05
-0.088,-0.01,0.077,0.049,-0.082,0.033,-0.014,-0.069,-0.039,-0.022,-0.01,-0.05
-0.101,-0.029,0.073,0.065,-0.087,0.022,-0.043,-0.071,-0.041,-0.016,-0.011,-0.049
-0.127,-0.056,0.07,0.091,-0.098,0.007,-0.03,-0.067,-0.039,-0.01,-0.006,-0.045
-0.099,-0.04,0.058,0.069,-0.078,0.009,-0.027,-0.062,-0.03,-0.002,0.005,-0.046
-0.084,-0.032,0.052,0.058,-0.068,0.009,-0.018,-0.059,-0.022,0.002,0.015,-0.042
-0.084,0.008,0.092,0.038,-0.088,0.049,-0.009,-0.053,-0.013,0.014,0.026,-0.033
-0.074,0.035,0.109,0.019,-0.092,0.072,0.025,-0.051,0.001,0.021,0.033,-0.022
-0.042,0.074,0.116,-0.016,-0.079,0.095,0.064,-0.026,0.025,0.051,0.058,0.002
0.027,0.165,0.138,-0.096,-0.055,0.151,0.059,0.006,0.066,0.102,0.101,0.045
0.015,0.179,0.164,-0.098,-0.074,0.171,0.038,-0.01,0.071,0.113,0.116,0.062
-0.018,0.131,0.149,-0.056,-0.084,0.14,0.027,-0.019,0.049,0.09,0.096,0.041
-0.048,0.052,0.101,-0.002,-0.075,0.076,0.03,-0.035,0.01,0.051,0.055,0.001
-0.087,-0.016,0.07,0.051,-0.078,0.027,0.003,-0.084,-0.042,0.008,0.014,-0.045
-0.096,-0.039,0.057,0.067,-0.076,0.009,-0.032,-0.11,-0.067,-0.024,-0.02,-0.054
-0.115,-0.072,0.043,0.093,-0.079,-0.014,-0.054,-0.101,-0.064,-0.033,-0.034,-0.063
-0.13,-0.091,0.039,0.11,-0.084,-0.026,-0.082,-0.101,-0.066,-0.026,-0.026,-0.07
-0.133,-0.097,0.036,0.115,-0.084,-0.031,-0.101,-0.099,-0.074,-0.035,-0.035,-0.074
-0.12,-0.094,0.025,0.107,-0.072,-0.034,-0.115,-0.09,-0.063,-0.024,-0.024,-0.065
-0.128,-0.092,0.036,0.109,-0.082,-0.028,-0.092,-0.099,-0.082,-0.037,-0.037,-0.079
-0.096,-0.11,-0.014,0.103,-0.041,-0.062,-0.027,0.028,-0.026,-0.021,-0.025,-0.096
0.074,-0.033,-0.107,-0.02,0.091,-0.07,0.014,0.277,0.216,0.155,0.116,0.002
0.695,0.419,-0.276,-0.557,0.485,0.072,-0.422,0.195,0.691,0.71,0.661,0.463
1.132,0.801,-0.331,-0.966,0.731,0.234,-1.101,-0.514,0.66,1.032,1.102,0.942
0.656,0.335,-0.322,-0.495,0.489,0.006,-1.012,-0.965,-0.173,0.265,0.43,0.48
0.161,-0.137,-0.298,-0.011,0.229,-0.217,-0.53,-0.665,-0.479,-0.289,-0.162,-0.088
-0.011,-0.109,-0.098,0.06,0.043,-0.103,-0.238,-0.318,-0.245,-0.138,-0.077,-0.092
-0.077,-0.117,-0.039,0.097,-0.019,-0.078,-0.066,-0.134,-0.153,-0.103,-0.086,-0.115
-0.089,-0.125,-0.035,0.107,-0.027,-0.08,-0.041,-0.073,-0.1,-0.066,-0.066,-0.111
-0.105,-0.115,-0.01,0.11,-0.047,-0.062,-0.025,-0.053,-0.085,-0.057,-0.059,-0.109
-0.104,-0.111,-0.007,0.107,-0.048,-0.058,0.003,-0.022,-0.064,-0.053,-0.056,-0.109
-0.132,-0.117,0.016,0.124,-0.074,-0.05,0.027,-0.017,-0.055,-0.037,-0.042,-0.101
-0.116,-0.115,0.001,0.115,-0.058,-0.057,0.044,0.003,-0.046,-0.039,-0.044,-0.103
-0.118,-0.105,0.013,0.112,-0.065,-0.046,0.062,0.01,-0.036,-0.024,-0.028,-0.099
-0.127,-0.102,0.025,0.114,-0.076,-0.038,0.079,0.034,-0.033,-0.027,-0.029,-0.116
-0.123,-0.097,0.025,0.109,-0.074,-0.036,0.078,0.056,-0.018,-0.014,-0.017,-0.104
-0.109,-0.085,0.024,0.096,-0.066,-0.03,0.078,0.08,0.003,-0.015,-0.015,-0.095
-0.107,-0.08,0.027,0.093,-0.067,-0.026,0.121,0.139,0.04,0.011,0.0,-0.086
-0.094,-0.075,0.019,0.084,-0.056,-0.028,0.176,0.207,0.07,0.042,0.005,-0.078
-0.06,-0.027,0.033,0.043,-0.046,0.003,0.213,0.265,0.102,0.057,0.022,-0.074
-0.085,-0.014,0.071,0.05,-0.078,0.028,0.254,0.326,0.129,0.083,0.046,-0.062
-0.049,0.021,0.07,0.014,-0.06,0.045,0.266,0.389,0.175,0.107,0.055,-0.048
-0.015,0.06,0.075,-0.023,-0.045,0.067,0.277,0.437,0.224,0.142,0.084,-0.035
-0.016,0.059,0.075,-0.022,-0.045,0.067,0.269,0.46,0.243,0.161,0.099,-0.025
0.018,0.082,0.064,-0.05,-0.023,0.073,0.255,0.446,0.25,0.166,0.115,-0.015
0.009,0.09,0.082,-0.05,-0.036,0.086,0.244,0.415,0.237,0.163,0.126,-0.005
0.014,0.092,0.078,-0.053,-0.032,0.084,0.204,0.347,0.217,0.152,0.114,0.004
0.018,0.075,0.057,-0.047,-0.019,0.066,0.151,0.254,0.18,0.143,0.105,0.005
-0.013,0.038,0.051,-0.013,-0.032,0.044,0.105,0.17,0.127,0.121,0.096,-0.005
-0.042,0.008,0.05,0.017,-0.046,0.029,0.073,0.085,0.077,0.09,0.075,-0.015
-0.058,-0.008,0.05,0.033,-0.054,0.021,0.038,0.032,0.034,0.051,0.038,-0.027
-0.075,-0.025,0.05,0.05,-0.062,0.012,0.015,-0.013,0.004,0.036,0.025,-0.046
-0.08,-0.03,0.05,0.055,-0.065,0.01,0.005,-0.045,-0.018,0.032,0.019,-0.058
-0.08,-0.032,0.048,0.056,-0.064,0.008,-0.003,-0.051,-0.025,0.023,0.01,-0.064
-0.117,-0.074,0.043,0.095,-0.08,-0.015,-0.013,-0.056,-0.025,0.018,0.007,-0.065
-0.118,-0.078,0.04,0.098,-0.079,-0.019,-0.019,-0.055,-0.025,0.01,0.001,-0.064
-0.098,-0.061,0.037,0.079,-0.067,-0.012,-0.028,-0.055,-0.022,0.014,-0.002,-0.068
-0.1,-0.068,0.032,0.084,-0.065,-0.018,-0.041,-0.055,-0.019,0.015,-0.008,-0.07
-0.094,-0.063,0.03,0.079,-0.061,-0.016,-0.029,-0.055,-0.016,0.015,-0.009,-0.07
-0.099,-0.065,0.035,0.081,-0.066,-0.015,-0.015,-0.051,-0.013,0.015,-0.002,-0.07
-0.111,-0.075,0.035,0.092,-0.073,-0.02,-0.01,-0.05,-0.011,0.015,0.002,-0.07
-0.091,-0.057,0.035,0.073,-0.063,-0.01,-0.009,-0.049,-0.008,0.014,0.008,-0.07
-0.089,-0.054,0.035,0.071,-0.062,-0.009,-0.011,-0.045,-0.005,0.007,0.013,-0.065
-0.104,-0.069,0.035,0.086,-0.069,-0.017,-0.008,-0.046,-0.005,0.009,0.019,-0.061
-0.096,-0.063,0.033,0.079,-0.064,-0.015,-0.018,-0.044,-0.003,0.021,0.025,-0.058
-0.09,-0.062,0.028,0.076,-0.059,-0.017,-0.026,-0.049,0.001,0.028,0.025,-0.055
-0.084,-0.06,0.025,0.071,-0.055,-0.017,-0.043,-0.056,0.0,0.025,0.025,-0.05
-0.081,-0.059,0.022,0.07,-0.051,-0.018,-0.043,-0.054,-0.004,0.02,0.021,-0.052
-0.073,-0.056,0.017,0.064,-0.044,-0.019,-0.037,-0.059,-0.01,0.018,0.02,-0.056
-0.06,-0.044,0.015,0.052,-0.037,-0.014,-0.056,-0.067,-0.017,0.013,0.02,-0.054
-0.068,-0.054,0.014,0.061,-0.041,-0.02,-0.034,-0.07,-0.02,0.01,0.015,-0.059
-0.08,-0.064,0.016,0.072,-0.048,-0.024,-0.022,-0.081,-0.03,0.014,0.015,-0.06
-0.074,-0.055,0.02,0.064,-0.047,-0.017,-0.022,-0.078,-0.031,0.025,0.015,-0.06
-0.051,-0.013,0.038,0.032,-0.045,0.012,-0.012,-0.067,-0.02,0.031,0.02,-0.043
-0.032,0.017,0.05,0.007,-0.041,0.033,0.007,-0.054,-0.003,0.043,0.048,-0.017
-0.039,0.028,0.067,0.005,-0.053,0.047,0.052,-0.043,0.01,0.052,0.053,-0.016
-0.028,0.081,0.109,-0.027,-0.068,0.094,0.067,-0.02,0.023,0.07,0.064,0.009
0.039,0.155,0.116,-0.097,-0.039,0.135,0.076,0.018,0.066,0.121,0.12,0.042
0.04,0.169,0.129,-0.105,-0.045,0.149,0.081,0.01,0.073,0.121,0.119,0.034
-0.022,0.095,0.117,-0.037,-0.07,0.106,0.074,-0.001,0.061,0.087,0.083,0.031
-0.027,0.035,0.063,-0.004,-0.045,0.048,0.053,-0.034,0.029,0.057,0.057,0.0
-0.07,-0.031,0.039,0.05,-0.054,0.004,0.011,-0.086,-0.023,0.026,0.024,-0.053
-0.129,-0.094,0.035,0.111,-0.082,-0.029,-0.004,-0.098,-0.047,0.01,0.006,-0.065
-0.105,-0.087,0.019,0.096,-0.062,-0.034,-0.022,-0.092,-0.056,0.002,-0.004,-0.071
-0.107,-0.092,0.015,0.099,-0.061,-0.038,-0.049,-0.097,-0.054,0.002,-0.002,-0.071
-0.11,-0.101,0.009,0.105,-0.059,-0.046,-0.063,-0.099,-0.056,-0.006,-0.013,-0.079
-0.085,-0.089,-0.004,0.087,-0.04,-0.046,-0.068,-0.099,-0.053,-0.004,-0.008,-0.076
-0.112,-0.106,0.007,0.109,-0.059,-0.049,-0.059,-0.111,-0.056,-0.014,-0.021,-0.082
-0.078,-0.132,-0.054,0.106,-0.012,-0.093,-0.018,0.032,-0.001,0.019,-0.018,-0.083
0.121,-0.023,-0.144,-0.049,0.132,-0.083,0.0,0.278,0.235,0.187,0.133,0.013
0.75,0.441,-0.31,-0.595,0.53,0.065,-0.48,0.136,0.692,0.746,0.698,0.491
1.136,0.752,-0.385,-0.944,0.76,0.183,-1.134,-0.601,0.585,0.999,1.068,0.922
0.627,0.261,-0.365,-0.444,0.496,-0.052,-1.0,-0.985,-0.234,0.194,0.362,0.412
0.162,-0.155,-0.316,-0.003,0.239,-0.235,-0.548,-0.647,-0.472,-0.284,-0.18,-0.093
-0.006,-0.117,-0.111,0.061,0.053,-0.114,-0.296,-0.307,-0.222,-0.122,-0.082,-0.071
-0.08,-0.136,-0.056,0.108,-0.012,-0.095,-0.117,-0.13,-0.124,-0.087,-0.087,-0.104
-0.07,-0.128,-0.059,0.099,-0.005,-0.093,-0.068,-0.082,-0.081,-0.049,-0.067,-0.092
-0.116,-0.129,-0.014,0.123,-0.051,-0.071,-0.045,-0.061,-0.072,-0.054,-0.062,-0.095
-0.134,-0.132,0.002,0.133,-0.068,-0.065,-0.003,-0.035,-0.054,-0.044,-0.056,-0.096
-0.118,-0.119,-0.001,0.118,-0.058,-0.059,0.027,-0.03,-0.042,-0.029,-0.044,-0.095
-0.109,-0.109,0.001,0.109,-0.055,-0.054,0.034,-0.015,-0.03,-0.03,-0.045,-0.113
-0.142,-0.098,0.044,0.12,-0.093,-0.027,0.041,0.002,-0.017,-0.017,-0.03,-0.096
-0.128,-0.093,0.035,0.11,-0.081,-0.029,0.06,0.035,-0.004,-0.018,-0.031,-0.095
-0.109,-0.086,0.024,0.097,-0.066,-0.031,0.053,0.055,0.009,-0.008,-0.02,-0.082
-0.139,-0.112,0.028,0.125,-0.084,-0.042,0.09,0.096,0.029,0.006,-0.015,-0.081
-0.089,-0.089,0.0,0.089,-0.045,-0.044,0.14,0.139,0.047,0.034,-0.001,-0.08
-0.064,-0.054,0.01,0.059,-0.037,-0.021,0.166,0.175,0.069,0.038,0.004,-0.079
-0.068,-0.038,0.031,0.053,-0.049,-0.003,0.202,0.242,0.107,0.04,0.017,-0.081
-0.048,-0.006,0.042,0.027,-0.045,0.018,0.221,0.315,0.145,0.077,0.044,-0.055
-0.048,0.035,0.083,0.006,-0.066,0.059,0.241,0.38,0.198,0.113,0.073,-0.022
-0.04,0.054,0.095,-0.008,-0.068,0.074,0.234,0.431,0.242,0.144,0.104,-0.01
-0.037,0.071,0.108,-0.017,-0.073,0.089,0.219,0.441,0.261,0.163,0.12,0.002
0.012,0.112,0.099,-0.062,-0.044,0.105,0.212,0.435,0.252,0.163,0.127,0.024
0.026,0.104,0.077,-0.065,-0.026,0.09,0.201,0.389,0.247,0.157,0.122,0.031
0.01,0.082,0.073,-0.046,-0.032,0.077,0.198,0.309,0.227,0.148,0.111,0.022
0.017,0.073,0.056,-0.045,-0.02,0.064,0.177,0.236,0.169,0.138,0.103,0.016
0.015,0.054,0.04,-0.035,-0.012,0.047,0.127,0.151,0.124,0.119,0.093,0.01
0.047,0.042,-0.006,-0.045,0.026,0.018,0.062,0.075,0.081,0.091,0.065,0.001
0.041,0.013,-0.028,-0.027,0.034,-0.007,0.037,0.028,0.04,0.058,0.039,-0.014
-0.019,-0.009,0.01,0.014,-0.015,0.001,0.034,-0.019,0.014,0.039,0.03,-0.032
-0.058,-0.035,0.023,0.046,-0.04,-0.006,0.021,-0.042,-0.009,0.027,0.022,-0.04
-0.084,-0.072,0.012,0.078,-0.048,-0.03,0.018,-0.048,-0.022,0.015,0.012,-0.04
-0.075,-0.072,0.003,0.073,-0.039,-0.034,0.012,-0.079,-0.021,0.015,0.006,-0.04
-0.049,-0.063,-0.014,0.056,-0.017,-0.039,0.011,-0.079,-0.019,0.014,0.01,-0.04
-0.062,-0.061,0.001,0.062,-0.031,-0.03,0.035,-0.072,-0.02,0.011,0.01,-0.04
-0.071,-0.052,0.019,0.061,-0.044,-0.016,0.041,-0.073,-0.02,0.009,0.012,-0.038
-0.063,-0.052,0.012,0.057,-0.037,-0.02,0.04,-0.064,-0.021,0.012,0.016,-0.031
-0.034,-0.057,-0.024,0.046,-0.005,-0.04,0.039,-0.066,-0.017,0.015,0.015,-0.024
-0.02,-0.057,-0.037,0.038,0.009,-0.047,0.043,-0.053,-0.015,0.015,0.019,-0.018
-0.029,-0.054,-0.026,0.042,-0.001,-0.04,0.068,-0.064,-0.015,0.015,0.029,-0.011
-0.042,-0.05,-0.008,0.046,-0.017,-0.029,0.068,-0.094,-0.011,0.015,0.033,-0.005
-0.081,-0.049,0.031,0.065,-0.056,-0.009,0.061,-0.092,-0.01,0.015,0.029,-0.016
-0.066,-0.044,0.022,0.055,-0.044,-0.011,0.059,-0.086,-0.01,0.011,0.023,-0.022
-0.039,-0.045,-0.006,0.041,-0.016,-0.025,0.05,-0.083,-0.017,0.006,0.02,-0.016
-0.045,-0.073,-0.029,0.059,-0.008,-0.051,0.032,-0.077,-0.029,0.001,0.015,-0.014
-0.054,-0.073,-0.019,0.064,-0.017,-0.046,-0.02,-0.075,-0.033,-0.002,0.01,-0.01
-0.065,-0.06,0.005,0.063,-0.035,-0.027,-0.049,-0.086,-0.028,-0.008,0.021,-0.005
-0.042,-0.06,-0.018,0.05,-0.011,-0.039,-0.027,-0.093,-0.023,-0.01,0.026,-0.008
-0.016,-0.05,-0.033,0.033,0.009,-0.041,-0.016,-0.083,-0.019,-0.003,0.024,-0.013
-0.018,-0.048,-0.03,0.033,0.006,-0.039,-0.013,-0.075,-0.014,0.002,0.025,-0.004
-0.051,-0.039,0.012,0.044,-0.031,-0.013,-0.004,-0.066,-0.009,0.01,0.026,0.002
-0.086,-0.032,0.055,0.059,-0.07,0.011,-0.004,-0.052,-0.006,0.012,0.024,0.01
-0.072,-0.013,0.059,0.042,-0.065,0.022,0.017,-0.038,0.0,0.031,0.029,0.026
-0.02,0.066,0.086,-0.023,-0.054,0.076,0.048,-0.031,0.031,0.065,0.068,0.051
0.022,0.131,0.109,-0.077,-0.043,0.12,0.052,-0.027,0.065,0.095,0.105,0.088
0.033,0.132,0.099,-0.082,-0.033,0.115,0.047,-0.026,0.058,0.108,0.103,0.095
0.025,0.088,0.063,-0.057,-0.019,0.075,0.054,-0.016,0.043,0.083,0.077,0.079
-0.012,-0.003,0.009,0.008,-0.011,0.003,0.02,-0.04,0.012,0.035,0.034,0.039
-0.056,-0.085,-0.029,0.071,-0.013,-0.056,-0.033,-0.103,-0.045,-0.018,0.003,-0.001
-0.079,-0.107,-0.028,0.093,-0.026,-0.067,-0.026,-0.124,-0.068,-0.042,-0.007,-0.009
-0.033,-0.086,-0.054,0.06,0.011,-0.07,-0.044,-0.118,-0.065,-0.04,-0.021,-0.014
-0.035,-0.088,-0.053,0.062,0.009,-0.07,-0.051,-0.129,-0.072,-0.039,-0.027,-0.018
-0.084,-0.134,-0.05,0.109,-0.016,-0.092,-0.042,-0.125,-0.072,-0.045,-0.033,-0.027
-0.095,-0.143,-0.048,0.12,-0.024,-0.095,-0.044,-0.134,-0.077,-0.043,-0.027,-0.027
-0.095,-0.132,-0.037,0.114,-0.029,-0.084,-0.029,-0.112,-0.058,-0.048,-0.033,-0.039
-0.056,-0.143,-0.087,0.1,0.016,-0.115,-0.034,0.047,0.008,-0.027,-0.011,-0.031
0.14,-0.042,-0.182,-0.048,0.161,-0.112,-0.007,0.256,0.267,0.182,0.158,0.093
0.809,0.454,-0.355,-0.631,0.582,0.049,-0.501,0.068,0.748,0.789,0.771,0.617
1.093,0.747,-0.346,-0.92,0.719,0.2,-1.14,-0.697,0.533,0.934,1.063,0.987
0.555,0.188,-0.367,-0.371,0.461,-0.089,-0.937,-1.019,-0.318,0.069,0.26,0.391
0.142,-0.205,-0.346,0.032,0.244,-0.275,-0.487,-0.633,-0.484,-0.338,-0.202,-0.08
-0.036,-0.146,-0.11,0.092,0.037,-0.128,-0.19,-0.3,-0.226,-0.161,-0.083,-0.037
-0.112,-0.165,-0.053,0.139,-0.029,-0.109,0.015,-0.132,-0.145,-0.144,-0.105,-0.066
-0.093,-0.144,-0.051,0.118,-0.02,-0.097,0.06,-0.096,-0.096,-0.112,-0.069,-0.056
-0.082,-0.141,-0.059,0.112,-0.012,-0.1,0.06,-0.072,-0.079,-0.108,-0.069,-0.06
-0.09,-0.137,-0.047,0.113,-0.021,-0.091,0.045,-0.03,-0.062,-0.095,-0.06,-0.056
-0.105,-0.129,-0.024,0.117,-0.04,-0.076,0.04,-0.019,-0.052,-0.083,-0.053,-0.049
-0.094,-0.132,-0.037,0.113,-0.028,-0.084,0.035,-0.004,-0.043,-0.077,-0.052,-0.05
-0.082,-0.121,-0.039,0.102,-0.021,-0.08,0.034,0.01,-0.027,-0.065,-0.04,-0.041
-0.067,-0.124,-0.057,0.096,-0.005,-0.09,0.037,0.032,-0.015,-0.061,-0.042,-0.043
-0.08,-0.113,-0.033,0.097,-0.023,-0.073,0.032,0.046,0.001,-0.05,-0.032,-0.037
-0.074,-0.104,-0.03,0.09,-0.021,-0.067,0.045,0.092,0.018,-0.044,-0.033,-0.036
-0.046,-0.085,-0.039,0.065,-0.003,-0.062,0.067,0.141,0.05,-0.029,-0.022,-0.032
-0.068,-0.084,-0.016,0.076,-0.026,-0.05,0.084,0.181,0.09,-0.003,-0.005,-0.03
-0.055,-0.067,-0.012,0.061,-0.021,-0.039,0.133,0.255,0.13,0.016,0.005,-0.027
-0.03,-0.02,0.01,0.025,-0.02,-0.004,0.179,0.324,0.168,0.014,0.014,-0.013
-0.02,0.015,0.035,0.002,-0.027,0.025,0.203,0.382,0.203,0.048,0.042,0.0
-0.021,0.034,0.055,-0.007,-0.038,0.044,0.212,0.419,0.237,0.076,0.063,0.009
-0.009,0.054,0.064,-0.022,-0.037,0.059,0.211,0.434,0.264,0.093,0.075,0.038
0.043,0.098,0.055,-0.071,-0.006,0.076,0.22,0.412,0.264,0.103,0.094,0.056
0.03,0.087,0.058,-0.059,-0.014,0.072,0.211,0.368,0.251,0.09,0.099,0.063
0.009,0.06,0.051,-0.035,-0.021,0.055,0.198,0.316,0.231,0.082,0.093,0.07
-0.008,0.054,0.061,-0.024,-0.035,0.057,0.168,0.233,0.189,0.075,0.078,0.06
0.005,0.031,0.025,-0.018,-0.01,0.028,0.12,0.139,0.141,0.051,0.064,0.054
0.042,0.013,-0.029,-0.028,0.036,-0.007,0.074,0.057,0.1,0.011,0.043,0.048
-0.007,-0.029,-0.023,0.018,0.008,-0.026,0.047,0.014,0.061,-0.013,0.022,0.041
-0.029,-0.034,-0.005,0.032,-0.012,-0.019,0.038,-0.005,0.028,-0.03,0.003,0.037
-0.029,-0.044,-0.014,0.037,-0.007,-0.029,0.03,-0.029,0.012,-0.044,-0.008,0.031
-0.037,-0.081,-0.044,0.06,0.004,-0.062,0.025,-0.049,0.0,-0.052,-0.014,0.027
-0.029,-0.066,-0.037,0.048,0.004,-0.051,0.016,-0.052,-0.009,-0.058,-0.021,0.022
-0.043,-0.058,-0.015,0.05,-0.014,-0.036,0.012,-0.049,-0.011,-0.06,-0.027,0.017
-0.03,-0.051,-0.021,0.041,-0.004,-0.036,0.002,-0.051,-0.014,-0.059,-0.034,0.015
-0.029,-0.065,-0.037,0.047,0.004,-0.051,0.003,-0.049,-0.016,-0.068,-0.032,0.014
-0.046,-0.082,-0.036,0.064,-0.005,-0.058,0.029,-0.05,-0.02,-0.077,-0.027,0.016
-0.05,-0.073,-0.023,0.062,-0.013,-0.048,0.035,-0.054,-0.019,-0.074,-0.024,0.013
-0.048,-0.071,-0.023,0.06,-0.012,-0.047,-0.003,-0.061,-0.012,-0.073,-0.021,0.025
-0.026,-0.064,-0.038,0.045,0.007,-0.051,-0.061,-0.07,-0.008,-0.069,-0.016,0.045
-0.028,-0.062,-0.034,0.045,0.004,-0.048,-0.088,-0.079,-0.002,-0.071,-0.015,0.045
-0.031,-0.049,-0.018,0.04,-0.007,-0.033,-0.079,-0.081,0.003,-0.066,-0.015,0.044
-0.043,-0.055,-0.011,0.049,-0.016,-0.033,-0.057,-0.078,0.009,-0.064,-0.014,0.046
-0.051,-0.075,-0.025,0.063,-0.013,-0.05,-0.041,-0.087,0.006,-0.066,-0.016,0.044
-0.039,-0.068,-0.028,0.054,-0.005,-0.048,-0.039,-0.101,-0.001,-0.059,-0.014,0.048
-0.044,-0.06,-0.016,0.052,-0.014,-0.038,-0.045,-0.097,-0.008,-0.062,-0.017,0.05
-0.041,-0.056,-0.015,0.049,-0.013,-0.036,-0.07,-0.093,-0.015,-0.055,-0.009,0.049
-0.05,-0.044,0.006,0.047,-0.028,-0.019,-0.069,-0.09,-0.021,-0.057,-0.013,0.054
-0.086,-0.061,0.025,0.073,-0.055,-0.017,-0.056,-0.085,-0.024,-0.063,-0.032,0.054
-0.079,-0.052,0.027,0.065,-0.053,-0.012,-0.049,-0.082,0.003,-0.045,-0.013,0.057
-0.041,0.003,0.043,0.019,-0.042,0.023,-0.025,-0.069,0.022,-0.036,0.0,0.058
-0.049,0.017,0.066,0.016,-0.057,0.041,0.005,-0.058,0.02,-0.038,0.019,0.062
-0.009,0.085,0.094,-0.038,-0.052,0.089,0.035,-0.06,0.061,0.003,0.059,0.107
0.047,0.163,0.116,-0.105,-0.035,0.139,0.039,-0.058,0.086,0.05,0.083,0.155
0.033,0.155,0.122,-0.095,-0.044,0.138,0.03,-0.066,0.074,0.03,0.084,0.158
-0.002,0.101,0.103,-0.05,-0.053,0.102,0.016,-0.06,0.065,0.021,0.068,0.124
-0.04,0.008,0.048,0.016,-0.044,0.028,-0.033,-0.082,0.019,-0.025,0.028,0.083
-0.057,-0.064,-0.007,0.06,-0.025,-0.035,-0.06,-0.116,-0.022,-0.082,-0.023,0.055
-0.063,-0.092,-0.028,0.078,-0.017,-0.06,-0.061,-0.125,-0.041,-0.095,-0.046,0.047
-0.053,-0.101,-0.049,0.077,-0.002,-0.074,-0.084,-0.135,-0.038,-0.115,-0.047,0.04
-0.067,-0.106,-0.039,0.087,-0.014,-0.072,-0.087,-0.136,-0.03,-0.113,-0.053,0.035
-0.04,-0.086,-0.045,0.063,0.003,-0.065,-0.09,-0.123,-0.027,-0.112,-0.062,0.023
-0.068,-0.102,-0.034,0.085,-0.017,-0.068,-0.087,-0.119,-0.013,-0.104,-0.057,0.024
-0.106,-0.139,-0.033,0.123,-0.036,-0.086,-0.086,-0.106,-0.019,-0.106,-0.072,0.022
-0.011,-0.119,-0.107,0.065,0.049,-0.113,-0.062,0.069,0.046,-0.074,-0.044,0.025
0.205,0.017,-0.188,-0.11,0.196,-0.085,-0.043,0.282,0.348,0.172,0.173,0.175
0.828,0.556,-0.272,-0.692,0.55,0.142,-0.579,0.023,0.87,0.87,0.865,0.776
1.039,0.828,-0.211,-0.933,0.625,0.308,-1.171,-0.766,0.622,1.003,1.127,1.13
0.505,0.195,-0.31,-0.35,0.407,-0.058,-0.915,-1.021,-0.301,0.03,0.249,0.475
0.139,-0.194,-0.333,0.028,0.237,-0.263,-0.453,-0.589,-0.441,-0.378,-0.223,0.008
-0.041,-0.131,-0.089,0.086,0.024,-0.11,-0.226,-0.279,-0.185,-0.198,-0.109,0.047
-0.086,-0.155,-0.07,0.121,-0.008,-0.112,-0.116,-0.111,-0.116,-0.175,-0.12,0.014
-0.067,-0.132,-0.065,0.1,-0.001,-0.098,-0.092,-0.049,-0.061,-0.121,-0.087,0.028
-0.076,-0.133,-0.056,0.105,-0.01,-0.094,-0.072,-0.034,-0.052,-0.13,-0.094,0.015
-0.066,-0.126,-0.059,0.096,-0.003,-0.093,-0.045,-0.018,-0.019,-0.119,-0.085,0.015
-0.07,-0.116,-0.046,0.093,-0.012,-0.081,-0.018,-0.02,-0.005,-0.113,-0.08,0.022
-0.044,-0.11,-0.066,0.077,0.011,-0.088,-0.007,-0.005,0.008,-0.111,-0.079,0.022
-0.048,-0.094,-0.046,0.071,-0.001,-0.07,0.016,0.012,0.017,-0.103,-0.069,0.031
-0.054,-0.087,-0.034,0.071,-0.01,-0.06,0.029,0.037,0.027,-0.116,-0.066,0.03
-0.046,-0.07,-0.024,0.058,-0.01,-0.047,0.018,0.065,0.043,-0.106,-0.049,0.042
-0.048,-0.065,-0.018,0.057,-0.015,-0.041,0.02,0.099,0.058,-0.09,-0.047,0.042
-0.049,-0.056,-0.007,0.052,-0.021,-0.031,0.077,0.14,0.094,-0.067,-0.038,0.04
-0.026,-0.038,-0.013,0.032,-0.006,-0.025,0.132,0.194,0.117,-0.048,-0.038,0.027
-0.014,-0.029,-0.015,0.021,0.001,-0.021,0.166,0.251,0.156,-0.029,-0.027,0.039
-0.01,-0.01,0.0,0.01,-0.005,-0.005,0.207,0.33,0.203,-0.004,0.008,0.076
0.011,0.028,0.018,-0.02,-0.004,0.023,0.244,0.399,0.241,0.028,0.033,0.091
0.024,0.062,0.038,-0.043,-0.007,0.049,0.3,0.426,0.273,0.047,0.048,0.094
0.042,0.078,0.036,-0.06,0.003,0.057,0.32,0.438,0.285,0.071,0.062,0.104
0.048,0.086,0.038,-0.067,0.005,0.061,0.308,0.425,0.298,0.089,0.083,0.125
0.045,0.104,0.059,-0.075,-0.008,0.081,0.301,0.387,0.285,0.083,0.089,0.126
0.039,0.106,0.066,-0.073,-0.014,0.086,0.283,0.31,0.25,0.063,0.067,0.117
0.052,0.083,0.031,-0.068,0.011,0.057,0.241,0.218,0.211,0.048,0.074,0.111
0.011,0.045,0.035,-0.028,-0.012,0.04,0.189,0.136,0.158,0.027,0.047,0.102
-0.01,0.014,0.024,-0.002,-0.017,0.019,0.135,0.064,0.116,-0.01,0.052,0.097
0.0,0.036,0.035,-0.018,-0.018,0.035,0.077,0.011,0.086,-0.02,0.019,0.088
-0.022,0.004,0.027,0.009,-0.024,0.015,0.064,-0.039,0.044,-0.049,0.012,0.085
-0.062,-0.034,0.028,0.048,-0.045,-0.003,0.062,-0.056,0.059,-0.03,0.003,0.077
-0.061,-0.023,0.038,0.042,-0.049,0.007,0.039,-0.064,0.091,-0.068,-0.05,0.075
-0.019,-0.027,-0.008,0.023,-0.005,-0.018,0.014,-0.074,0.075,-0.054,0.186,0.065
-0.131,-0.007,0.124,0.069,-0.128,0.059,0.008,-0.153,0.066,0.056,0.118,0.07
0.019,-0.044,-0.064,0.013,0.041,-0.054,0.012,-0.221,0.022,-0.002,-0.045,0.076
0.199,-0.052,-0.251,-0.073,0.225,-0.151,0.007,-0.296,-0.006,-0.005,0.024,0.089
0.146,-0.018,-0.165,-0.064,0.156,-0.091,0.025,-0.36,0.003,0.008,-0.012,0.122
0.133,-0.031,-0.164,-0.05,0.149,-0.098,0.017,-0.113,-0.001,-0.009,0.005,0.042
0.131,-0.032,-0.164,-0.049,0.148,-0.098,0.013,0.04,0.001,0.009,0.0,-0.016
0.042,-0.04,-0.082,-0.001,0.062,-0.061,0.046,-0.029,-0.001,-0.008,-0.001,0.011
