0.037,-0.04,-0.077,0.002,0.058,-0.059,-0.076,-0.145,-0.181,-0.195,-0.102,-0.133
0.057,-0.03,-0.087,-0.013,0.072,-0.058,-0.075,-0.15,-0.18,-0.192,-0.101,-0.135
0.085,-0.027,-0.112,-0.029,0.099,-0.07,-0.036,-0.101,-0.124,-0.175,-0.117,-0.144
0.113,0.019,-0.094,-0.066,0.103,-0.037,0.103,0.475,0.328,0.081,-0.03,-0.113
0.3,0.307,0.007,-0.304,0.146,0.157,-0.139,0.163,0.647,0.589,0.368,0.175
0.354,1.091,0.737,-0.723,-0.191,0.913,-1.043,-1.611,-0.08,1.006,1.174,0.878
0.179,1.037,0.858,-0.608,-0.34,0.947,-1.181,-1.841,-0.696,0.621,1.051,0.838
0.026,0.071,0.045,-0.048,-0.01,0.058,-0.484,-0.873,-0.676,-0.361,-0.054,0.006
0.017,-0.095,-0.112,0.04,0.065,-0.104,-0.212,-0.436,-0.381,-0.368,-0.22,-0.187
0.049,0.033,-0.016,-0.041,0.032,0.009,-0.126,-0.172,-0.11,-0.119,-0.065,-0.103
0.045,0.015,-0.03,-0.03,0.037,-0.008,-0.077,-0.113,-0.1,-0.168,-0.105,-0.129
0.045,0.043,-0.002,-0.044,0.023,0.02,-0.088,-0.087,-0.064,-0.1,-0.054,-0.102
0.036,0.019,-0.016,-0.027,0.026,0.001,-0.068,-0.072,-0.056,-0.123,-0.085,-0.114
0.043,0.046,0.003,-0.044,0.019,0.024,-0.075,-0.07,-0.043,-0.093,-0.058,-0.098
0.054,0.05,-0.004,-0.052,0.028,0.023,-0.059,-0.052,-0.027,-0.091,-0.069,-0.1
0.055,0.065,0.009,-0.06,0.023,0.037,-0.064,-0.055,-0.023,-0.078,-0.052,-0.093
0.066,0.062,-0.004,-0.064,0.035,0.029,-0.065,-0.036,-0.001,-0.055,-0.032,-0.088
0.066,0.068,0.002,-0.067,0.032,0.035,-0.069,-0.037,0.005,-0.03,-0.025,-0.088
0.073,0.076,0.003,-0.075,0.035,0.039,-0.076,-0.02,0.031,0.001,-0.009,-0.072
0.104,0.094,-0.01,-0.099,0.057,0.042,-0.082,-0.013,0.06,0.023,0.003,-0.048
0.103,0.128,0.024,-0.115,0.039,0.075,-0.093,0.01,0.101,0.063,0.037,-0.031
0.106,0.137,0.031,-0.122,0.038,0.083,-0.104,0.041,0.154,0.102,0.072,-0.013
0.132,0.176,0.044,-0.155,0.044,0.11,-0.116,0.077,0.22,0.169,0.119,0.018
0.149,0.216,0.068,-0.183,0.04,0.142,-0.121,0.135,0.303,0.253,0.18,0.063
0.181,0.263,0.081,-0.222,0.05,0.172,-0.132,0.177,0.391,0.343,0.242,0.108
0.215,0.32,0.105,-0.268,0.055,0.212,-0.145,0.215,0.457,0.423,0.308,0.15
0.221,0.333,0.112,-0.277,0.054,0.222,-0.153,0.221,0.49,0.473,0.351,0.178
0.226,0.363,0.137,-0.295,0.045,0.249,-0.152,0.207,0.485,0.468,0.351,0.177
0.224,0.366,0.142,-0.295,0.041,0.254,-0.139,0.192,0.435,0.438,0.336,0.164
0.203,0.33,0.127,-0.267,0.038,0.229,-0.128,0.138,0.344,0.359,0.293,0.145
0.172,0.295,0.123,-0.234,0.025,0.209,-0.105,0.079,0.224,0.216,0.204,0.102
0.11,0.22,0.11,-0.165,0.0,0.164,-0.078,0.028,0.101,0.101,0.121,0.031
0.083,0.182,0.099,-0.133,-0.008,0.14,-0.072,-0.015,0.014,0.019,0.066,-0.011
0.074,0.161,0.087,-0.118,-0.007,0.124,-0.068,-0.061,-0.038,-0.046,0.022,-0.033
0.049,0.127,0.079,-0.088,-0.015,0.103,-0.063,-0.098,-0.082,-0.085,-0.002,-0.059
0.034,0.106,0.071,-0.07,-0.019,0.088,-0.059,-0.11,-0.099,-0.105,-0.012,-0.066
0.033,0.096,0.062,-0.065,-0.015,0.079,-0.054,-0.126,-0.117,-0.116,-0.015,-0.075
0.038,0.095,0.057,-0.067,-0.01,0.075,-0.051,-0.13,-0.131,-0.121,-0.02,-0.077
0.029,0.088,0.059,-0.058,-0.015,0.073,-0.048,-0.124,-0.121,-0.116,-0.025,-0.07
0.025,0.085,0.061,-0.055,-0.018,0.072,-0.046,-0.122,-0.116,-0.114,-0.02,-0.067
0.02,0.08,0.06,-0.05,-0.02,0.07,-0.042,-0.117,-0.109,-0.11,-0.012,-0.062
0.02,0.081,0.06,-0.05,-0.02,0.071,-0.04,-0.115,-0.103,-0.11,-0.004,-0.058
0.018,0.078,0.06,-0.048,-0.021,0.069,-0.04,-0.105,-0.097,-0.098,0.004,-0.053
0.015,0.076,0.06,-0.045,-0.023,0.067,-0.04,-0.089,-0.088,-0.082,0.012,-0.048
0.014,0.074,0.06,-0.044,-0.023,0.066,-0.04,-0.083,-0.077,-0.078,0.024,-0.042
0.021,0.081,0.06,-0.051,-0.02,0.07,-0.04,-0.085,-0.068,-0.072,0.026,-0.038
0.037,0.097,0.06,-0.067,-0.011,0.078,-0.04,-0.088,-0.069,-0.069,0.024,-0.031
0.04,0.1,0.06,-0.07,-0.01,0.08,-0.04,-0.091,-0.072,-0.064,0.025,-0.026
0.055,0.115,0.06,-0.085,-0.002,0.087,-0.035,-0.094,-0.074,-0.06,0.024,-0.028
0.06,0.114,0.054,-0.088,0.003,0.084,-0.035,-0.095,-0.078,-0.066,0.025,-0.031
0.054,0.103,0.049,-0.079,0.002,0.075,-0.035,-0.1,-0.08,-0.072,0.028,-0.03
0.052,0.096,0.043,-0.074,0.004,0.069,-0.035,-0.108,-0.08,-0.078,0.03,-0.03
0.047,0.085,0.039,-0.066,0.004,0.062,-0.036,-0.112,-0.09,-0.08,0.03,-0.03
0.055,0.085,0.03,-0.07,0.012,0.057,-0.032,-0.119,-0.096,-0.08,0.03,-0.029
0.044,0.085,0.041,-0.065,0.001,0.062,-0.03,-0.125,-0.094,-0.085,0.031,-0.025
0.033,0.085,0.052,-0.059,-0.01,0.068,-0.03,-0.125,-0.096,-0.085,0.028,-0.023
0.038,0.085,0.046,-0.062,-0.005,0.065,-0.027,-0.125,-0.094,-0.086,0.025,-0.02
0.04,0.086,0.045,-0.064,-0.003,0.066,-0.024,-0.125,-0.095,-0.091,0.023,-0.016
0.041,0.082,0.041,-0.061,0.0,0.061,-0.026,-0.125,-0.097,-0.089,0.019,-0.015
0.034,0.074,0.04,-0.054,-0.003,0.057,-0.031,-0.125,-0.107,-0.093,0.017,-0.011
0.031,0.067,0.036,-0.049,-0.003,0.051,-0.03,-0.123,-0.12,-0.096,0.013,-0.01
0.03,0.06,0.03,-0.046,0.0,0.045,-0.026,-0.117,-0.115,-0.095,0.023,-0.01
0.027,0.051,0.024,-0.039,0.001,0.037,-0.024,-0.112,-0.11,-0.096,0.037,-0.006
0.026,0.047,0.021,-0.037,0.003,0.033,-0.021,-0.108,-0.104,-0.094,0.042,-0.005
0.042,0.054,0.012,-0.048,0.015,0.032,-0.019,-0.103,-0.098,-0.096,0.042,-0.004
0.043,0.057,0.015,-0.05,0.014,0.036,-0.011,-0.101,-0.094,-0.075,0.05,0.005
0.039,0.103,0.064,-0.071,-0.013,0.084,0.009,-0.104,-0.08,-0.052,0.075,0.016
0.052,0.132,0.08,-0.092,-0.014,0.106,0.004,-0.112,-0.067,-0.056,0.077,0.029
0.046,0.105,0.059,-0.076,-0.007,0.082,-0.034,-0.111,-0.055,-0.054,0.073,0.038
0.037,0.085,0.048,-0.061,-0.006,0.066,-0.049,-0.121,-0.055,-0.056,0.07,0.034
0.049,0.08,0.031,-0.065,0.008,0.055,-0.042,-0.118,-0.056,-0.055,0.068,0.036
0.048,0.065,0.017,-0.057,0.015,0.041,-0.042,-0.121,-0.07,-0.054,0.064,0.032
-0.006,0.06,0.065,-0.027,-0.036,0.062,-0.037,-0.12,-0.084,-0.053,0.067,0.029
-0.022,0.054,0.076,-0.016,-0.05,0.065,-0.029,-0.117,-0.076,-0.045,0.074,0.031
-0.019,0.053,0.072,-0.018,-0.046,0.063,-0.021,-0.127,-0.085,-0.056,0.073,0.031
-0.03,0.06,0.089,-0.015,-0.06,0.074,-0.012,-0.108,-0.074,-0.035,0.085,0.039
-0.049,0.046,0.094,0.001,-0.072,0.07,-0.007,-0.139,-0.088,-0.057,0.079,0.035
-0.044,0.069,0.112,-0.013,-0.079,0.09,0.003,-0.084,-0.065,-0.028,0.118,0.044
-0.067,0.012,0.079,0.028,-0.073,0.045,-0.002,-0.11,-0.051,-0.024,0.1,0.03
-0.092,0.041,0.133,0.026,-0.113,0.086,0.142,0.333,0.212,0.1,0.135,0.03
0.181,0.23,0.049,-0.206,0.066,0.14,0.108,0.526,0.736,0.55,0.395,0.213
0.358,0.924,0.566,-0.641,-0.104,0.745,-0.804,-1.2,0.41,1.112,1.197,0.921
0.23,1.371,1.141,-0.8,-0.456,1.256,-1.353,-2.158,-0.324,1.208,1.636,1.339
0.019,0.438,0.419,-0.229,-0.201,0.428,-0.699,-1.208,-0.541,0.191,0.608,0.549
-0.083,-0.089,-0.006,0.086,-0.038,-0.048,-0.189,-0.489,-0.353,-0.287,0.027,0.023
-0.009,0.1,0.108,-0.046,-0.059,0.104,-0.064,-0.164,-0.042,0.042,0.199,0.116
-0.052,0.038,0.09,0.007,-0.072,0.063,0.014,-0.056,-0.001,0.008,0.142,0.08
-0.056,0.073,0.13,-0.009,-0.093,0.101,0.023,-0.035,0.011,0.039,0.174,0.095
-0.031,0.075,0.106,-0.022,-0.069,0.09,0.042,0.007,0.04,0.029,0.154,0.084
-0.045,0.073,0.117,-0.014,-0.081,0.095,0.031,0.008,0.039,0.037,0.156,0.08
-0.029,0.079,0.108,-0.025,-0.069,0.093,0.037,0.031,0.064,0.063,0.158,0.083
-0.038,0.071,0.109,-0.016,-0.074,0.089,0.034,0.031,0.058,0.049,0.155,0.083
-0.03,0.086,0.116,-0.029,-0.073,0.101,0.035,0.047,0.082,0.092,0.174,0.092
-0.039,0.074,0.112,-0.018,-0.075,0.092,0.034,0.053,0.093,0.102,0.178,0.095
-0.028,0.09,0.118,-0.031,-0.073,0.103,0.021,0.063,0.11,0.126,0.199,0.111
-0.002,0.112,0.114,-0.055,-0.058,0.112,0.016,0.084,0.142,0.151,0.217,0.129
0.004,0.126,0.122,-0.065,-0.059,0.124,0.003,0.108,0.171,0.186,0.241,0.149
-0.007,0.134,0.141,-0.064,-0.074,0.137,-0.002,0.139,0.218,0.224,0.263,0.16
0.026,0.176,0.151,-0.101,-0.063,0.163,-0.001,0.18,0.277,0.279,0.304,0.181
0.078,0.214,0.136,-0.146,-0.029,0.175,-0.012,0.224,0.349,0.346,0.349,0.211
0.085,0.242,0.157,-0.164,-0.036,0.199,-0.028,0.286,0.446,0.436,0.422,0.267
0.098,0.294,0.196,-0.196,-0.049,0.245,-0.034,0.34,0.522,0.519,0.487,0.315
0.123,0.325,0.202,-0.224,-0.04,0.263,-0.043,0.352,0.562,0.571,0.527,0.351
0.138,0.346,0.208,-0.242,-0.035,0.276,-0.047,0.35,0.568,0.595,0.558,0.366
0.128,0.336,0.208,-0.232,-0.04,0.272,-0.035,0.322,0.544,0.579,0.562,0.357
0.129,0.323,0.194,-0.226,-0.033,0.258,-0.03,0.279,0.485,0.534,0.536,0.347
0.107,0.29,0.183,-0.199,-0.039,0.236,-0.009,0.224,0.378,0.433,0.458,0.299
0.049,0.217,0.168,-0.134,-0.06,0.192,0.026,0.156,0.26,0.311,0.382,0.24
0.015,0.162,0.147,-0.089,-0.066,0.154,0.03,0.1,0.152,0.209,0.312,0.188
-0.018,0.112,0.13,-0.047,-0.074,0.121,0.036,0.046,0.075,0.126,0.24,0.139
-0.03,0.084,0.114,-0.027,-0.072,0.098,0.041,0.001,0.026,0.072,0.201,0.109
-0.025,0.079,0.104,-0.027,-0.065,0.091,0.039,-0.023,-0.01,0.034,0.178,0.09
-0.04,0.061,0.101,-0.011,-0.071,0.081,0.04,-0.038,-0.028,0.019,0.16,0.081
-0.043,0.051,0.093,-0.005,-0.068,0.072,0.04,-0.045,-0.038,0.015,0.145,0.074
-0.033,0.062,0.094,-0.015,-0.064,0.078,0.04,-0.053,-0.043,0.01,0.139,0.068
-0.021,0.06,0.081,-0.02,-0.051,0.07,0.037,-0.058,-0.037,0.007,0.138,0.061
-0.038,0.068,0.106,-0.015,-0.072,0.086,0.034,-0.049,-0.034,0.001,0.134,0.054
-0.049,0.088,0.136,-0.019,-0.093,0.112,0.031,-0.041,-0.029,0.002,0.132,0.049
-0.038,0.084,0.123,-0.023,-0.081,0.103,0.029,-0.033,-0.025,0.007,0.129,0.045
-0.036,0.083,0.12,-0.024,-0.078,0.101,0.024,-0.026,-0.016,0.01,0.127,0.045
-0.005,0.098,0.103,-0.047,-0.055,0.1,0.028,-0.025,-0.003,0.013,0.124,0.043
-0.027,0.111,0.138,-0.043,-0.083,0.124,0.043,-0.025,0.003,0.018,0.121,0.039
-0.069,0.103,0.172,-0.018,-0.121,0.137,0.046,-0.025,-0.002,0.02,0.119,0.04
-0.052,0.1,0.151,-0.024,-0.102,0.125,0.043,-0.025,-0.005,0.027,0.114,0.043
-0.018,0.129,0.147,-0.056,-0.082,0.138,0.041,-0.025,-0.009,0.025,0.117,0.048
0.004,0.138,0.134,-0.071,-0.066,0.136,0.037,-0.027,-0.012,0.017,0.126,0.049
-0.018,0.124,0.141,-0.053,-0.08,0.132,0.035,-0.038,-0.016,0.012,0.111,0.043
-0.055,0.119,0.174,-0.032,-0.115,0.146,0.032,-0.061,-0.042,0.009,0.097,0.037
-0.05,0.11,0.16,-0.03,-0.105,0.135,0.029,-0.066,-0.053,0.01,0.101,0.033
-0.029,0.101,0.13,-0.036,-0.079,0.115,0.037,-0.061,-0.048,0.006,0.102,0.026
-0.033,0.088,0.121,-0.028,-0.078,0.105,0.038,-0.06,-0.051,0.005,0.119,0.021
-0.02,0.076,0.095,-0.028,-0.058,0.085,0.034,-0.055,-0.049,0.005,0.137,0.028
-0.021,0.062,0.083,-0.021,-0.052,0.072,0.035,-0.055,-0.051,0.0,0.134,0.031
-0.044,0.04,0.084,0.001,-0.064,0.062,0.032,-0.06,-0.055,-0.005,0.132,0.029
-0.028,0.051,0.079,-0.012,-0.054,0.065,0.029,-0.063,-0.062,-0.009,0.13,0.027
-0.016,0.06,0.076,-0.022,-0.047,0.068,0.032,-0.068,-0.068,-0.014,0.13,0.024
-0.029,0.046,0.075,-0.009,-0.052,0.06,0.044,-0.07,-0.07,-0.018,0.13,0.026
-0.034,0.034,0.068,0.0,-0.052,0.051,0.046,-0.07,-0.074,-0.023,0.129,0.029
-0.032,0.026,0.058,0.003,-0.045,0.042,0.044,-0.07,-0.075,-0.026,0.131,0.032
-0.031,0.013,0.044,0.009,-0.038,0.029,0.047,-0.069,-0.07,-0.025,0.134,0.034
-0.029,0.01,0.039,0.01,-0.035,0.024,0.044,-0.07,-0.065,-0.029,0.135,0.037
-0.029,0.053,0.082,-0.012,-0.056,0.067,0.048,-0.058,-0.06,-0.03,0.135,0.041
-0.026,0.073,0.1,-0.024,-0.063,0.086,0.056,-0.046,-0.056,-0.031,0.135,0.037
-0.019,0.068,0.087,-0.025,-0.053,0.078,0.071,-0.03,-0.051,-0.018,0.135,0.035
-0.017,0.067,0.083,-0.025,-0.05,0.075,0.085,-0.013,-0.05,0.002,0.131,0.035
-0.017,0.056,0.073,-0.02,-0.045,0.064,0.07,0.007,-0.051,0.006,0.122,0.035
-0.01,0.052,0.062,-0.021,-0.036,0.057,0.038,0.008,-0.049,0.012,0.117,0.035
-0.006,0.043,0.048,-0.019,-0.027,0.045,0.022,-0.042,-0.051,-0.003,0.106,0.034
-0.017,0.03,0.047,-0.007,-0.032,0.038,0.03,-0.061,-0.05,-0.013,0.103,0.029
-0.024,0.012,0.037,0.006,-0.031,0.024,0.031,-0.075,-0.068,-0.031,0.091,0.016
-0.026,0.017,0.043,0.005,-0.035,0.029,0.038,-0.067,-0.076,-0.044,0.083,0.012
-0.022,0.005,0.027,0.008,-0.024,0.016,0.047,-0.071,-0.073,-0.045,0.064,-0.002
-0.026,0.009,0.036,0.009,-0.031,0.022,0.052,-0.079,-0.078,-0.047,0.056,-0.006
-0.037,0.0,0.037,0.018,-0.037,0.018,0.053,-0.087,-0.07,-0.035,0.057,-0.014
-0.058,-0.003,0.054,0.03,-0.056,0.025,0.058,-0.08,-0.082,-0.049,0.047,-0.024
-0.045,-0.008,0.037,0.026,-0.041,0.014,0.059,-0.061,-0.066,-0.026,0.059,-0.027
-0.041,-0.049,-0.009,0.045,-0.016,-0.029,0.065,-0.034,-0.033,-0.035,0.036,-0.048
0.059,0.042,-0.017,-0.051,0.038,0.013,0.224,0.605,0.424,0.219,0.125,-0.018
0.289,0.355,0.066,-0.323,0.111,0.211,-0.074,0.166,0.754,0.726,0.541,0.32
0.322,1.159,0.837,-0.74,-0.258,0.998,-1.039,-1.754,0.097,1.218,1.41,1.1
0.164,1.11,0.946,-0.637,-0.391,1.027,-1.12,-1.9,-0.484,0.882,1.295,1.049
-0.068,0.065,0.132,0.001,-0.1,0.099,-0.397,-0.86,-0.538,-0.17,0.121,0.166
-0.084,-0.103,-0.018,0.094,-0.033,-0.06,-0.111,-0.362,-0.271,-0.223,-0.059,-0.053
0.018,0.028,0.01,-0.023,0.004,0.019,-0.015,-0.087,-0.021,0.006,0.086,-0.019
-0.021,-0.002,0.018,0.011,-0.02,0.008,0.047,-0.037,-0.018,-0.056,0.018,-0.047
-0.016,0.024,0.04,-0.004,-0.028,0.031,0.056,0.021,0.037,0.004,0.06,-0.018
-0.01,-0.01,0.0,0.01,-0.005,-0.005,0.064,0.046,0.034,-0.025,0.02,-0.036
-0.028,0.013,0.041,0.007,-0.035,0.027,0.051,0.036,0.045,0.003,0.037,-0.018
-0.046,-0.006,0.04,0.026,-0.043,0.016,0.056,0.053,0.055,0.0,0.021,-0.025
-0.047,-0.008,0.039,0.027,-0.043,0.016,0.047,0.034,0.045,0.009,0.032,-0.013
-0.028,0.003,0.032,0.012,-0.03,0.017,0.049,0.049,0.08,0.023,0.036,-0.009
-0.014,0.012,0.026,0.001,-0.02,0.018,0.04,0.066,0.099,0.038,0.036,-0.005
-0.002,0.02,0.022,-0.009,-0.012,0.021,0.034,0.086,0.126,0.066,0.063,0.004
0.023,0.055,0.032,-0.039,-0.005,0.044,0.028,0.108,0.157,0.091,0.071,0.002
0.029,0.073,0.044,-0.051,-0.007,0.058,0.02,0.129,0.19,0.125,0.098,0.018
0.033,0.071,0.038,-0.052,-0.002,0.054,0.016,0.157,0.23,0.169,0.128,0.041
0.056,0.097,0.041,-0.077,0.008,0.069,0.005,0.191,0.287,0.231,0.162,0.065
0.084,0.132,0.048,-0.108,0.018,0.09,-0.006,0.24,0.369,0.31,0.22,0.11
0.122,0.174,0.053,-0.148,0.034,0.113,-0.021,0.284,0.444,0.398,0.28,0.15
0.139,0.227,0.089,-0.183,0.025,0.158,-0.043,0.32,0.506,0.465,0.332,0.187
0.156,0.267,0.112,-0.212,0.022,0.189,-0.05,0.338,0.542,0.52,0.366,0.223
0.153,0.274,0.121,-0.214,0.016,0.197,-0.053,0.336,0.534,0.516,0.385,0.238
0.148,0.276,0.129,-0.212,0.009,0.202,-0.063,0.315,0.496,0.482,0.381,0.235
0.124,0.237,0.113,-0.18,0.005,0.174,-0.041,0.259,0.415,0.421,0.325,0.194
0.079,0.187,0.107,-0.133,-0.014,0.147,0.0,0.205,0.309,0.3,0.241,0.139
0.05,0.131,0.081,-0.091,-0.016,0.106,0.031,0.158,0.193,0.172,0.149,0.078
0.018,0.058,0.041,-0.038,-0.012,0.049,0.046,0.108,0.095,0.076,0.07,0.018
-0.005,0.012,0.017,-0.004,-0.011,0.014,0.044,0.057,0.03,0.013,0.019,-0.018
-0.007,-0.001,0.006,0.004,-0.007,0.002,0.049,0.017,-0.013,-0.029,-0.013,-0.047
-0.027,-0.029,-0.002,0.028,-0.012,-0.015,0.06,-0.004,-0.043,-0.061,-0.041,-0.063
-0.057,-0.063,-0.006,0.06,-0.026,-0.034,0.06,-0.008,-0.066,-0.086,-0.063,-0.072
-0.042,-0.059,-0.017,0.051,-0.013,-0.037,0.06,-0.011,-0.073,-0.101,-0.072,-0.08
-0.045,-0.06,-0.015,0.053,-0.015,-0.038,0.06,-0.014,-0.068,-0.102,-0.074,-0.084
-0.066,-0.06,0.005,0.063,-0.035,-0.027,0.06,-0.019,-0.061,-0.097,-0.083,-0.08
-0.056,-0.06,-0.004,0.058,-0.026,-0.032,0.058,-0.019,-0.054,-0.094,-0.091,-0.075
-0.034,-0.058,-0.024,0.047,-0.005,-0.041,0.054,-0.005,-0.047,-0.091,-0.082,-0.071
-0.017,-0.051,-0.033,0.034,0.008,-0.042,0.055,0.008,-0.041,-0.086,-0.08,-0.066
-0.018,-0.047,-0.029,0.033,0.006,-0.038,0.055,0.024,-0.036,-0.085,-0.075,-0.062
-0.017,-0.041,-0.024,0.029,0.004,-0.032,0.055,0.032,-0.035,-0.085,-0.07,-0.057
-0.022,-0.035,-0.013,0.029,-0.005,-0.024,0.055,0.029,-0.035,-0.085,-0.082,-0.055
-0.008,-0.03,-0.022,0.02,0.007,-0.026,0.05,0.03,-0.031,-0.085,-0.086,-0.052
0.009,-0.035,-0.044,0.013,0.027,-0.039,0.05,0.025,-0.029,-0.085,-0.084,-0.049
0.002,-0.034,-0.036,0.017,0.019,-0.035,0.05,0.025,-0.033,-0.085,-0.085,-0.046
-0.001,-0.036,-0.035,0.019,0.017,-0.036,0.05,0.024,-0.033,-0.089,-0.085,-0.045
-0.015,-0.047,-0.032,0.031,0.008,-0.039,0.051,0.016,-0.045,-0.096,-0.085,-0.046
-0.023,-0.052,-0.029,0.038,0.003,-0.041,0.047,0.008,-0.057,-0.11,-0.097,-0.044
-0.011,-0.048,-0.036,0.03,0.013,-0.042,0.045,0.0,-0.054,-0.115,-0.105,-0.054
-0.008,-0.055,-0.047,0.032,0.02,-0.05,0.045,-0.008,-0.066,-0.117,-0.107,-0.062
-0.024,-0.087,-0.063,0.056,0.019,-0.074,0.041,-0.011,-0.077,-0.12,-0.11,-0.059
-0.025,-0.091,-0.067,0.058,0.021,-0.078,0.04,-0.01,-0.079,-0.123,-0.11,-0.06
-0.021,-0.084,-0.063,0.053,0.021,-0.073,0.04,-0.01,-0.077,-0.128,-0.121,-0.06
-0.017,-0.085,-0.068,0.052,0.026,-0.076,0.04,-0.01,-0.074,-0.131,-0.126,-0.06
-0.017,-0.079,-0.061,0.048,0.022,-0.069,0.039,-0.01,-0.075,-0.135,-0.128,-0.06
-0.008,-0.082,-0.074,0.045,0.033,-0.077,0.046,-0.011,-0.075,-0.134,-0.13,-0.06
0.006,-0.085,-0.091,0.04,0.049,-0.088,0.051,-0.015,-0.075,-0.133,-0.126,-0.06
0.004,-0.084,-0.088,0.04,0.047,-0.086,0.047,-0.016,-0.075,-0.126,-0.12,-0.06
0.012,-0.088,-0.101,0.038,0.057,-0.094,0.045,0.0,-0.075,-0.131,-0.126,-0.061
-0.001,-0.09,-0.089,0.045,0.044,-0.089,0.042,0.007,-0.075,-0.146,-0.142,-0.059
-0.017,-0.091,-0.074,0.054,0.028,-0.082,0.04,0.003,-0.075,-0.139,-0.138,-0.053
-0.015,-0.085,-0.071,0.05,0.028,-0.077,0.044,-0.001,-0.074,-0.135,-0.135,-0.047
-0.012,-0.081,-0.07,0.047,0.029,-0.075,0.058,0.013,-0.076,-0.132,-0.132,-0.041
-0.035,-0.086,-0.05,0.061,0.008,-0.068,0.07,0.048,-0.067,-0.125,-0.129,-0.036
-0.013,-0.084,-0.071,0.049,0.029,-0.077,0.068,0.055,-0.052,-0.128,-0.13,-0.035
0.038,-0.089,-0.126,0.026,0.082,-0.108,0.039,0.049,-0.059,-0.13,-0.129,-0.035
0.032,-0.088,-0.12,0.028,0.076,-0.104,0.013,0.029,-0.067,-0.137,-0.131,-0.035
0.017,-0.093,-0.11,0.038,0.063,-0.101,0.019,0.017,-0.062,-0.137,-0.128,-0.035
0.034,-0.078,-0.113,0.022,0.074,-0.095,0.025,0.008,-0.08,-0.148,-0.147,-0.036
0.017,-0.08,-0.097,0.032,0.057,-0.088,0.037,0.003,-0.096,-0.155,-0.159,-0.043
-0.032,-0.134,-0.102,0.083,0.035,-0.118,0.047,0.002,-0.092,-0.159,-0.172,-0.065
-0.013,-0.112,-0.1,0.063,0.044,-0.105,0.044,-0.01,-0.098,-0.169,-0.174,-0.063
0.004,-0.102,-0.107,0.049,0.056,-0.104,0.045,-0.001,-0.085,-0.153,-0.159,-0.057
-0.002,-0.11,-0.108,0.056,0.054,-0.109,0.046,-0.026,-0.094,-0.16,-0.167,-0.059
-0.002,-0.097,-0.095,0.05,0.047,-0.096,0.044,0.004,-0.078,-0.139,-0.143,-0.046
0.002,-0.128,-0.13,0.063,0.066,-0.128,0.05,0.014,-0.079,-0.146,-0.16,-0.058
0.065,-0.094,-0.159,0.015,0.112,-0.126,0.179,0.505,0.291,0.051,-0.1,-0.041
0.24,0.119,-0.122,-0.179,0.181,-0.002,0.088,0.564,0.765,0.54,0.222,0.179
0.301,0.868,0.567,-0.584,-0.133,0.717,-0.759,-1.133,0.118,0.987,1.008,0.855
0.171,1.076,0.905,-0.623,-0.367,0.99,-1.104,-1.774,-0.652,0.739,1.122,0.998
0.0,0.127,0.127,-0.063,-0.064,0.127,-0.442,-0.818,-0.65,-0.229,0.033,0.188
-0.057,-0.247,-0.19,0.152,0.066,-0.218,-0.11,-0.318,-0.373,-0.402,-0.304,-0.116
0.011,-0.096,-0.108,0.043,0.06,-0.102,-0.038,-0.039,-0.069,-0.119,-0.115,-0.019
0.01,-0.118,-0.128,0.055,0.069,-0.122,0.026,0.053,-0.021,-0.148,-0.174,-0.054
0.011,-0.089,-0.1,0.039,0.056,-0.094,0.023,0.066,-0.005,-0.096,-0.13,-0.031
0.018,-0.098,-0.116,0.04,0.067,-0.106,0.044,0.098,0.016,-0.106,-0.152,-0.045
0.015,-0.084,-0.098,0.035,0.057,-0.091,0.03,0.09,0.014,-0.088,-0.137,-0.038
0.021,-0.081,-0.102,0.03,0.062,-0.091,0.046,0.12,0.035,-0.074,-0.138,-0.039
0.035,-0.072,-0.107,0.019,0.071,-0.089,0.035,0.111,0.038,-0.069,-0.134,-0.035
0.048,-0.064,-0.112,0.008,0.08,-0.088,0.035,0.124,0.056,-0.047,-0.119,-0.028
0.051,-0.056,-0.107,0.003,0.079,-0.082,0.031,0.142,0.077,-0.038,-0.124,-0.027
0.049,-0.051,-0.1,0.001,0.074,-0.075,0.025,0.163,0.099,-0.003,-0.094,-0.019
0.028,-0.072,-0.1,0.022,0.064,-0.086,0.025,0.163,0.114,0.024,-0.071,-0.014
0.043,-0.047,-0.09,0.002,0.066,-0.068,0.014,0.179,0.157,0.056,-0.049,0.007
0.079,-0.015,-0.095,-0.032,0.087,-0.055,0.007,0.21,0.206,0.109,-0.011,0.036
0.119,0.021,-0.098,-0.07,0.108,-0.038,-0.003,0.235,0.264,0.166,0.02,0.061
0.144,0.056,-0.087,-0.1,0.115,-0.015,-0.011,0.278,0.34,0.241,0.067,0.097
0.165,0.09,-0.075,-0.127,0.12,0.007,-0.034,0.328,0.426,0.335,0.135,0.14
0.19,0.142,-0.047,-0.166,0.118,0.047,-0.055,0.367,0.496,0.405,0.182,0.169
0.211,0.176,-0.035,-0.193,0.123,0.07,-0.049,0.383,0.54,0.461,0.226,0.204
0.215,0.18,-0.034,-0.197,0.124,0.073,-0.042,0.379,0.555,0.468,0.247,0.232
0.212,0.183,-0.029,-0.197,0.12,0.077,-0.034,0.356,0.52,0.447,0.242,0.224
0.191,0.162,-0.029,-0.177,0.11,0.066,-0.026,0.321,0.44,0.387,0.2,0.192
0.142,0.121,-0.021,-0.131,0.081,0.05,-0.019,0.281,0.319,0.246,0.116,0.144
0.131,0.089,-0.042,-0.109,0.086,0.023,0.011,0.234,0.197,0.123,0.036,0.084
0.08,0.016,-0.063,-0.048,0.072,-0.023,0.035,0.181,0.104,0.03,-0.036,0.032
0.034,-0.051,-0.085,0.009,0.059,-0.067,0.037,0.125,0.021,-0.06,-0.104,-0.007
0.056,-0.055,-0.111,-0.001,0.084,-0.083,0.042,0.087,-0.035,-0.112,-0.149,-0.042
0.03,-0.079,-0.109,0.024,0.07,-0.094,0.045,0.07,-0.065,-0.138,-0.17,-0.061
0.015,-0.095,-0.11,0.04,0.063,-0.102,0.044,0.065,-0.083,-0.161,-0.18,-0.067
0.028,-0.082,-0.11,0.027,0.07,-0.095,0.048,0.062,-0.083,-0.165,-0.194,-0.075
0.006,-0.104,-0.11,0.049,0.058,-0.107,0.05,0.06,-0.078,-0.16,-0.195,-0.076
0.003,-0.106,-0.108,0.052,0.056,-0.107,0.05,0.056,-0.072,-0.157,-0.19,-0.072
0.015,-0.087,-0.102,0.036,0.058,-0.094,0.054,0.055,-0.069,-0.154,-0.188,-0.07
0.005,-0.094,-0.098,0.045,0.052,-0.096,0.055,0.062,-0.064,-0.149,-0.183,-0.066
-0.009,-0.102,-0.092,0.056,0.042,-0.097,0.055,0.072,-0.06,-0.146,-0.18,-0.065
-0.019,-0.109,-0.09,0.064,0.036,-0.099,0.055,0.09,-0.055,-0.142,-0.176,-0.062
-0.027,-0.109,-0.082,0.068,0.028,-0.095,0.055,0.094,-0.049,-0.136,-0.172,-0.059
-0.009,-0.103,-0.093,0.056,0.042,-0.098,0.054,0.103,-0.043,-0.129,-0.169,-0.056
0.018,-0.098,-0.116,0.04,0.067,-0.106,0.05,0.11,-0.037,-0.123,-0.166,-0.053
0.018,-0.092,-0.11,0.037,0.064,-0.101,0.05,0.099,-0.035,-0.116,-0.161,-0.05
0.019,-0.087,-0.106,0.034,0.063,-0.097,0.05,0.095,-0.036,-0.11,-0.16,-0.051
0.025,-0.079,-0.104,0.028,0.065,-0.091,0.05,0.087,-0.035,-0.121,-0.171,-0.06
0.015,-0.092,-0.106,0.039,0.061,-0.099,0.051,0.081,-0.036,-0.131,-0.175,-0.065
0.007,-0.108,-0.115,0.051,0.061,-0.111,0.046,0.076,-0.045,-0.133,-0.177,-0.065
0.007,-0.105,-0.113,0.049,0.06,-0.109,0.04,0.069,-0.055,-0.138,-0.181,-0.065
0.003,-0.102,-0.105,0.05,0.055,-0.103,0.035,0.063,-0.059,-0.142,-0.176,-0.065
0.01,-0.1,-0.11,0.045,0.06,-0.105,0.03,0.055,-0.059,-0.147,-0.175,-0.064
0.024,-0.096,-0.12,0.036,0.072,-0.108,0.022,0.049,-0.077,-0.149,-0.174,-0.067
0.022,-0.094,-0.116,0.036,0.07,-0.105,0.023,0.044,-0.088,-0.146,-0.171,-0.07
-0.003,-0.112,-0.109,0.057,0.054,-0.111,0.035,0.045,-0.084,-0.145,-0.169,-0.07
-0.004,-0.122,-0.118,0.063,0.057,-0.12,0.035,0.045,-0.086,-0.146,-0.174,-0.071
0.026,-0.114,-0.14,0.044,0.083,-0.127,0.039,0.045,-0.084,-0.144,-0.182,-0.063
0.019,-0.111,-0.13,0.046,0.075,-0.12,0.04,0.046,-0.079,-0.146,-0.177,-0.073
0.013,-0.106,-0.119,0.047,0.066,-0.112,0.042,0.045,-0.072,-0.139,-0.173,-0.081
0.01,-0.102,-0.112,0.046,0.062,-0.107,0.056,0.072,-0.067,-0.117,-0.158,-0.063
-0.006,-0.094,-0.088,0.051,0.041,-0.091,0.054,0.082,-0.064,-0.109,-0.152,-0.057
0.028,-0.086,-0.114,0.029,0.072,-0.1,0.029,0.074,-0.062,-0.111,-0.157,-0.054
0.055,-0.089,-0.144,0.017,0.099,-0.117,0.002,0.066,-0.058,-0.109,-0.153,-0.05
0.054,-0.09,-0.144,0.019,0.099,-0.117,-0.001,0.034,-0.057,-0.11,-0.157,-0.05
0.047,-0.092,-0.139,0.023,0.093,-0.115,0.006,0.03,-0.054,-0.119,-0.152,-0.042
0.017,-0.118,-0.135,0.051,0.076,-0.126,0.006,0.02,-0.051,-0.14,-0.16,-0.052
0.002,-0.121,-0.123,0.06,0.062,-0.121,0.013,0.019,-0.047,-0.153,-0.165,-0.069
-0.012,-0.134,-0.122,0.073,0.056,-0.128,0.014,0.011,-0.042,-0.154,-0.164,-0.071
-0.024,-0.135,-0.11,0.08,0.044,-0.122,0.016,0.004,-0.042,-0.153,-0.163,-0.07
-0.028,-0.133,-0.105,0.081,0.039,-0.119,0.014,0.014,-0.032,-0.144,-0.154,-0.069
-0.031,-0.143,-0.112,0.087,0.041,-0.128,0.016,0.011,-0.038,-0.152,-0.163,-0.072
-0.026,-0.131,-0.105,0.079,0.039,-0.118,0.014,0.044,-0.021,-0.135,-0.141,-0.064
-0.036,-0.156,-0.12,0.096,0.042,-0.138,0.018,0.025,-0.004,-0.134,-0.149,-0.054
0.05,-0.084,-0.134,0.017,0.092,-0.108,0.187,0.543,0.388,0.106,-0.066,-0.039
0.237,0.176,-0.061,-0.206,0.148,0.058,0.025,0.451,0.784,0.598,0.284,0.195
0.3,0.924,0.624,-0.612,-0.162,0.774,-0.9,-1.285,0.158,1.037,1.065,0.878
0.187,1.042,0.855,-0.615,-0.334,0.948,-1.182,-1.756,-0.553,0.738,1.091,0.958
-0.009,0.065,0.074,-0.028,-0.042,0.07,-0.493,-0.784,-0.568,-0.238,0.016,0.153
-0.048,-0.232,-0.184,0.14,0.069,-0.208,-0.145,-0.291,-0.284,-0.334,-0.258,-0.118
0.015,-0.078,-0.092,0.032,0.053,-0.085,-0.058,-0.037,-0.027,-0.063,-0.098,-0.03
-0.02,-0.093,-0.072,0.057,0.026,-0.083,0.008,0.031,0.002,-0.103,-0.139,-0.052
-0.01,-0.083,-0.073,0.047,0.031,-0.077,0.011,0.054,0.031,-0.046,-0.084,-0.031
0.03,-0.093,-0.122,0.032,0.076,-0.107,0.028,0.084,0.056,-0.059,-0.104,-0.045
0.008,-0.084,-0.092,0.038,0.051,-0.088,0.012,0.076,0.063,-0.037,-0.076,-0.031
-0.002,-0.102,-0.1,0.052,0.05,-0.101,0.018,0.105,0.078,-0.029,-0.077,-0.037
0.016,-0.066,-0.082,0.026,0.05,-0.074,0.01,0.1,0.077,-0.024,-0.076,-0.032
0.014,-0.063,-0.077,0.024,0.046,-0.07,0.01,0.111,0.085,-0.004,-0.069,-0.023
0.018,-0.064,-0.082,0.023,0.05,-0.073,0.007,0.108,0.083,0.009,-0.056,-0.019
0.02,-0.053,-0.073,0.017,0.047,-0.063,-0.002,0.116,0.102,0.033,-0.029,-0.01
0.008,-0.059,-0.068,0.026,0.039,-0.063,-0.006,0.136,0.131,0.066,-0.015,0.002
0.031,-0.022,-0.052,-0.004,0.042,-0.037,-0.015,0.154,0.169,0.105,0.01,0.016
0.067,0.015,-0.052,-0.041,0.059,-0.018,-0.021,0.174,0.21,0.151,0.044,0.032
0.063,0.035,-0.028,-0.049,0.045,0.004,-0.026,0.208,0.272,0.219,0.098,0.071
0.084,0.078,-0.006,-0.081,0.045,0.035,-0.035,0.256,0.351,0.296,0.147,0.102
0.124,0.117,-0.007,-0.12,0.065,0.055,-0.04,0.302,0.438,0.388,0.208,0.143
0.127,0.152,0.025,-0.14,0.051,0.088,-0.044,0.343,0.514,0.471,0.275,0.189
0.159,0.204,0.045,-0.182,0.057,0.124,-0.059,0.369,0.562,0.52,0.315,0.223
0.182,0.234,0.053,-0.208,0.064,0.143,-0.057,0.371,0.566,0.511,0.331,0.232
0.154,0.231,0.077,-0.193,0.038,0.154,-0.052,0.331,0.518,0.494,0.331,0.219
0.108,0.184,0.075,-0.146,0.016,0.129,-0.048,0.277,0.439,0.433,0.29,0.209
0.061,0.123,0.062,-0.092,-0.001,0.093,-0.019,0.218,0.309,0.293,0.199,0.158
0.031,0.075,0.043,-0.054,-0.006,0.059,0.005,0.147,0.175,0.161,0.105,0.084
-0.016,0.0,0.016,0.008,-0.016,0.008,0.01,0.093,0.071,0.06,0.04,0.036
-0.027,-0.035,-0.007,0.031,-0.01,-0.02,0.016,0.049,-0.002,-0.005,-0.012,-0.005
-0.011,-0.045,-0.034,0.028,0.012,-0.039,0.022,0.016,-0.052,-0.051,-0.048,-0.04
-0.056,-0.081,-0.026,0.069,-0.015,-0.053,0.025,-0.01,-0.089,-0.084,-0.062,-0.055
-0.052,-0.081,-0.03,0.066,-0.011,-0.055,0.025,-0.033,-0.1,-0.095,-0.075,-0.058
-0.02,-0.078,-0.058,0.049,0.019,-0.067,0.025,-0.036,-0.104,-0.099,-0.072,-0.058
-0.028,-0.081,-0.053,0.055,0.012,-0.067,0.025,-0.029,-0.114,-0.108,-0.084,-0.066
-0.03,-0.081,-0.05,0.056,0.01,-0.065,0.025,-0.026,-0.12,-0.115,-0.093,-0.074
-0.037,-0.085,-0.048,0.061,0.006,-0.066,0.025,-0.021,-0.114,-0.109,-0.08,-0.065
-0.042,-0.087,-0.044,0.065,0.002,-0.066,0.028,-0.017,-0.111,-0.106,-0.074,-0.059
-0.033,-0.076,-0.043,0.055,0.006,-0.06,0.031,-0.013,-0.103,-0.101,-0.066,-0.053
-0.037,-0.075,-0.038,0.056,0.001,-0.056,0.03,-0.008,-0.088,-0.09,-0.061,-0.046
-0.048,-0.083,-0.035,0.066,-0.006,-0.059,0.03,-0.002,-0.075,-0.08,-0.058,-0.045
-0.04,-0.072,-0.032,0.056,-0.004,-0.052,0.03,0.001,-0.069,-0.075,-0.052,-0.045
-0.038,-0.065,-0.027,0.052,-0.005,-0.046,0.03,0.006,-0.071,-0.075,-0.051,-0.045
-0.032,-0.057,-0.025,0.045,-0.003,-0.041,0.03,0.01,-0.067,-0.075,-0.055,-0.045
-0.02,-0.058,-0.038,0.039,0.009,-0.048,0.026,0.003,-0.065,-0.075,-0.055,-0.046
-0.02,-0.061,-0.041,0.04,0.01,-0.051,0.025,-0.007,-0.065,-0.076,-0.055,-0.05
-0.02,-0.059,-0.039,0.04,0.01,-0.049,0.025,-0.015,-0.069,-0.077,-0.055,-0.053
-0.021,-0.062,-0.041,0.041,0.01,-0.051,0.02,-0.026,-0.076,-0.089,-0.055,-0.057
-0.026,-0.064,-0.039,0.045,0.007,-0.051,0.02,-0.031,-0.088,-0.099,-0.055,-0.06
-0.033,-0.085,-0.051,0.059,0.009,-0.068,0.02,-0.045,-0.095,-0.102,-0.055,-0.056
-0.035,-0.091,-0.056,0.064,0.011,-0.073,0.02,-0.057,-0.095,-0.118,-0.055,-0.055
-0.032,-0.087,-0.054,0.06,0.011,-0.07,0.02,-0.054,-0.105,-0.121,-0.055,-0.054
-0.027,-0.083,-0.056,0.055,0.015,-0.069,0.02,-0.056,-0.119,-0.119,-0.055,-0.051
-0.029,-0.083,-0.054,0.057,0.013,-0.068,0.02,-0.055,-0.124,-0.121,-0.054,-0.049
-0.019,-0.075,-0.055,0.047,0.018,-0.064,0.02,-0.055,-0.127,-0.119,-0.049,-0.052
-0.033,-0.083,-0.05,0.058,0.008,-0.066,0.016,-0.064,-0.13,-0.12,-0.048,-0.056
-0.053,-0.104,-0.051,0.079,-0.001,-0.077,0.015,-0.064,-0.132,-0.115,-0.043,-0.056
-0.046,-0.095,-0.05,0.071,0.002,-0.072,0.013,-0.059,-0.136,-0.115,-0.04,-0.055
-0.037,-0.087,-0.05,0.062,0.007,-0.068,0.009,-0.056,-0.131,-0.13,-0.062,-0.05
-0.028,-0.078,-0.051,0.053,0.012,-0.064,0.015,-0.052,-0.119,-0.131,-0.067,-0.05
-0.025,-0.071,-0.046,0.048,0.011,-0.058,0.039,-0.05,-0.107,-0.12,-0.054,-0.049
0.021,-0.025,-0.047,0.003,0.035,-0.036,0.046,-0.054,-0.099,-0.115,-0.046,-0.045
0.001,-0.04,-0.041,0.02,0.021,-0.041,0.018,-0.056,-0.101,-0.116,-0.029,-0.043
0.017,-0.053,-0.071,0.018,0.044,-0.062,0.0,-0.054,-0.099,-0.112,-0.017,-0.039
0.041,-0.03,-0.071,-0.005,0.056,-0.05,-0.014,-0.057,-0.101,-0.111,-0.015,-0.038
-0.027,-0.087,-0.06,0.057,0.017,-0.074,-0.018,-0.054,-0.099,-0.108,-0.014,-0.033
-0.032,-0.107,-0.074,0.07,0.021,-0.09,-0.012,-0.079,-0.108,-0.118,-0.038,-0.039
-0.069,-0.097,-0.027,0.083,-0.021,-0.062,-0.01,-0.083,-0.128,-0.137,-0.047,-0.05
-0.041,-0.093,-0.052,0.067,0.005,-0.072,-0.005,-0.084,-0.124,-0.134,-0.043,-0.056
-0.048,-0.099,-0.051,0.074,0.002,-0.075,-0.002,-0.088,-0.123,-0.149,-0.047,-0.055
-0.095,-0.129,-0.033,0.112,-0.031,-0.081,0.002,-0.079,-0.108,-0.136,-0.035,-0.053
-0.078,-0.111,-0.033,0.095,-0.022,-0.072,0.004,-0.096,-0.111,-0.145,-0.047,-0.059
-0.063,-0.072,-0.009,0.068,-0.027,-0.041,0.007,-0.069,-0.094,-0.114,-0.031,-0.05
-0.044,-0.098,-0.054,0.071,0.006,-0.076,0.015,-0.091,-0.094,-0.109,-0.049,-0.068
-0.005,-0.045,-0.04,0.025,0.018,-0.042,0.163,0.436,0.233,0.056,0.015,-0.055
0.221,0.172,-0.049,-0.196,0.135,0.061,0.036,0.438,0.712,0.541,0.339,0.17
0.34,0.913,0.573,-0.626,-0.117,0.742,-0.897,-1.368,0.238,1.081,1.152,0.892
0.201,1.189,0.988,-0.695,-0.393,1.088,-1.296,-2.049,-0.481,0.984,1.386,1.13
0.0,0.207,0.207,-0.104,-0.103,0.207,-0.609,-1.039,-0.615,-0.062,0.283,0.309
-0.082,-0.209,-0.127,0.145,0.023,-0.168,-0.165,-0.414,-0.378,-0.362,-0.15,-0.076
-0.019,-0.043,-0.024,0.031,0.003,-0.033,-0.052,-0.122,-0.072,-0.07,0.068,-0.02
-0.028,-0.077,-0.049,0.053,0.011,-0.063,0.015,-0.044,-0.046,-0.118,0.011,-0.056
-0.033,-0.046,-0.014,0.04,-0.009,-0.03,0.02,-0.015,-0.028,-0.059,0.049,-0.022
-0.025,-0.058,-0.033,0.042,0.004,-0.045,0.037,0.033,-0.007,-0.069,0.028,-0.035
-0.037,-0.046,-0.009,0.042,-0.014,-0.027,0.025,0.03,-0.009,-0.049,0.036,-0.018
-0.026,-0.042,-0.016,0.035,-0.005,-0.029,0.033,0.051,0.01,-0.035,0.037,-0.027
-0.038,-0.042,-0.003,0.04,-0.017,-0.022,0.029,0.041,0.004,-0.028,0.027,-0.028
-0.028,-0.031,-0.003,0.03,-0.012,-0.016,0.03,0.046,0.019,-0.001,0.035,-0.016
-0.009,-0.034,-0.024,0.022,0.007,-0.029,0.028,0.057,0.049,-0.01,0.053,-0.011
-0.021,-0.019,0.002,0.02,-0.011,-0.008,0.018,0.068,0.068,0.019,0.078,-0.002
0.006,0.013,0.007,-0.01,0.0,0.01,0.014,0.091,0.089,0.051,0.083,0.008
0.005,0.012,0.006,-0.009,-0.001,0.009,0.004,0.126,0.127,0.084,0.111,0.024
0.004,0.03,0.026,-0.017,-0.011,0.027,0.001,0.154,0.175,0.126,0.134,0.047
0.033,0.068,0.035,-0.051,-0.001,0.051,-0.006,0.194,0.248,0.194,0.183,0.087
0.05,0.105,0.055,-0.078,-0.003,0.08,-0.007,0.244,0.322,0.268,0.241,0.118
0.078,0.164,0.086,-0.121,-0.004,0.125,-0.018,0.303,0.411,0.358,0.303,0.167
0.107,0.197,0.09,-0.152,0.008,0.143,-0.056,0.343,0.48,0.438,0.361,0.207
0.141,0.244,0.103,-0.193,0.019,0.173,-0.065,0.365,0.528,0.498,0.408,0.243
0.137,0.272,0.135,-0.205,0.001,0.203,-0.072,0.366,0.532,0.522,0.431,0.266
0.135,0.286,0.151,-0.21,-0.008,0.218,-0.09,0.326,0.498,0.505,0.426,0.258
0.107,0.263,0.156,-0.186,-0.025,0.209,-0.068,0.285,0.426,0.442,0.398,0.244
0.05,0.191,0.142,-0.121,-0.046,0.166,-0.032,0.224,0.302,0.317,0.316,0.19
0.024,0.133,0.108,-0.079,-0.042,0.12,-0.005,0.155,0.18,0.193,0.228,0.124
-0.001,0.086,0.087,-0.043,-0.044,0.086,0.008,0.106,0.078,0.097,0.158,0.065
-0.017,0.054,0.071,-0.019,-0.044,0.063,0.016,0.062,0.007,0.032,0.106,0.018
-0.03,0.038,0.068,-0.004,-0.049,0.053,0.032,0.012,-0.055,-0.027,0.062,-0.002
-0.06,0.004,0.064,0.028,-0.062,0.033,0.035,-0.015,-0.088,-0.074,0.039,-0.01
-0.091,-0.042,0.049,0.066,-0.07,0.003,0.029,-0.022,-0.105,-0.081,0.03,-0.018
-0.078,-0.044,0.034,0.061,-0.055,-0.005,0.027,-0.033,-0.12,-0.09,0.018,-0.026
-0.063,-0.046,0.017,0.054,-0.039,-0.014,0.023,-0.042,-0.118,-0.104,0.021,-0.033
-0.082,-0.044,0.038,0.063,-0.06,-0.003,0.018,-0.042,-0.115,-0.107,0.018,-0.036
-0.096,-0.047,0.049,0.071,-0.072,0.001,0.025,-0.03,-0.107,-0.101,0.015,-0.032
-0.089,-0.055,0.034,0.072,-0.061,-0.01,0.037,-0.017,-0.101,-0.094,0.015,-0.03
-0.036,-0.005,0.031,0.021,-0.034,0.012,0.032,-0.009,-0.094,-0.088,0.017,-0.026
-0.022,-0.008,0.013,0.015,-0.017,0.002,0.028,-0.004,-0.088,-0.08,0.024,-0.025
-0.075,-0.046,0.029,0.06,-0.052,-0.008,0.026,0.001,-0.082,-0.075,0.028,-0.029
-0.083,-0.043,0.04,0.063,-0.061,-0.002,0.018,0.007,-0.08,-0.07,0.034,-0.031
-0.073,-0.042,0.031,0.057,-0.052,-0.005,0.028,0.013,-0.08,-0.07,0.04,-0.03
-0.067,-0.044,0.023,0.055,-0.045,-0.01,0.046,0.013,-0.08,-0.07,0.044,-0.031
-0.069,-0.047,0.023,0.058,-0.045,-0.012,0.042,0.004,-0.08,-0.07,0.041,-0.03
-0.086,-0.043,0.043,0.064,-0.064,0.0,0.038,-0.004,-0.08,-0.071,0.038,-0.031
-0.068,-0.041,0.027,0.054,-0.048,-0.006,0.035,-0.012,-0.09,-0.068,0.036,-0.036
-0.059,-0.039,0.021,0.049,-0.04,-0.009,0.03,-0.02,-0.108,-0.093,0.032,-0.041
-0.074,-0.043,0.031,0.058,-0.052,-0.006,0.028,-0.019,-0.125,-0.116,0.03,-0.045
-0.082,-0.06,0.022,0.071,-0.052,-0.019,0.023,-0.026,-0.132,-0.114,0.028,-0.041
-0.076,-0.06,0.016,0.068,-0.046,-0.022,0.021,-0.041,-0.14,-0.115,0.021,-0.04
-0.069,-0.06,0.01,0.064,-0.039,-0.025,0.016,-0.045,-0.152,-0.115,0.014,-0.04
-0.062,-0.061,0.001,0.061,-0.031,-0.03,0.013,-0.045,-0.148,-0.115,0.008,-0.036
-0.063,-0.058,0.005,0.06,-0.034,-0.026,0.009,-0.045,-0.145,-0.117,0.0,-0.033
-0.081,-0.069,0.011,0.075,-0.046,-0.029,0.012,-0.044,-0.143,-0.121,-0.005,-0.04
-0.076,-0.064,0.011,0.07,-0.043,-0.026,0.025,-0.05,-0.138,-0.124,-0.005,-0.05
-0.061,-0.05,0.011,0.055,-0.035,-0.02,0.023,-0.057,-0.146,-0.128,-0.005,-0.051
-0.054,-0.049,0.005,0.052,-0.03,-0.022,0.019,-0.056,-0.151,-0.13,-0.005,-0.048
-0.047,-0.046,0.0,0.046,-0.023,-0.022,0.015,-0.052,-0.15,-0.126,-0.005,-0.046
-0.041,-0.045,-0.004,0.043,-0.018,-0.024,0.012,-0.049,-0.148,-0.122,-0.005,-0.043
-0.059,-0.068,-0.009,0.063,-0.025,-0.038,0.01,-0.046,-0.145,-0.119,-0.009,-0.051
-0.057,-0.066,-0.009,0.062,-0.023,-0.037,0.016,-0.044,-0.143,-0.114,-0.01,-0.063
-0.059,-0.057,0.002,0.059,-0.03,-0.027,0.026,-0.041,-0.154,-0.111,-0.003,-0.056
-0.07,-0.071,-0.001,0.07,-0.034,-0.036,0.028,-0.029,-0.157,-0.108,0.002,-0.043
-0.026,-0.015,0.011,0.02,-0.018,-0.002,0.044,-0.021,-0.144,-0.103,0.008,-0.038
-0.028,0.007,0.035,0.01,-0.031,0.021,0.028,-0.009,-0.146,-0.101,0.014,-0.04
-0.034,-0.012,0.022,0.022,-0.028,0.005,0.005,-0.017,-0.144,-0.095,0.02,-0.04
-0.005,0.002,0.007,0.002,-0.006,0.005,0.002,-0.053,-0.146,-0.094,0.014,-0.043
-0.017,-0.029,-0.012,0.024,-0.002,-0.02,-0.009,-0.046,-0.144,-0.087,0.013,-0.044
-0.018,-0.05,-0.032,0.034,0.007,-0.04,-0.016,-0.06,-0.146,-0.106,0.007,-0.046
-0.033,-0.046,-0.013,0.04,-0.009,-0.029,-0.018,-0.066,-0.163,-0.123,0.005,-0.048
-0.062,-0.08,-0.019,0.071,-0.021,-0.049,-0.013,-0.075,-0.163,-0.115,0.001,-0.053
-0.078,-0.084,-0.006,0.081,-0.036,-0.044,-0.007,-0.073,-0.163,-0.121,-0.008,-0.042
-0.066,-0.084,-0.018,0.075,-0.024,-0.051,-0.005,-0.061,-0.152,-0.103,-0.007,-0.056
-0.05,-0.082,-0.031,0.066,-0.009,-0.056,0.003,-0.072,-0.158,-0.122,-0.01,-0.084
-0.049,-0.051,-0.002,0.05,-0.023,-0.026,0.003,-0.047,-0.144,-0.09,0.012,-0.076
-0.051,-0.085,-0.034,0.069,-0.008,-0.06,0.01,-0.065,-0.134,-0.092,-0.006,-0.094
0.005,-0.026,-0.031,0.011,0.018,-0.028,0.182,0.524,0.242,0.091,0.058,-0.059
0.228,0.213,-0.015,-0.221,0.121,0.099,0.005,0.375,0.679,0.569,0.395,0.21
0.34,1.004,0.664,-0.672,-0.162,0.834,-0.985,-1.535,0.179,1.119,1.271,0.977
0.177,1.202,1.024,-0.69,-0.424,1.113,-1.276,-2.047,-0.471,1.006,1.415,1.156
-0.032,0.152,0.185,-0.06,-0.109,0.168,-0.544,-1.003,-0.615,-0.08,0.291,0.264
-0.088,-0.18,-0.092,0.134,0.002,-0.135,-0.162,-0.402,-0.385,-0.327,-0.066,-0.086
-0.038,-0.005,0.033,0.021,-0.035,0.014,-0.038,-0.094,-0.089,-0.047,0.093,-0.007
-0.05,-0.046,0.004,0.048,-0.027,-0.021,0.025,-0.022,-0.084,-0.116,0.04,-0.052
-0.096,-0.058,0.038,0.077,-0.067,-0.01,0.021,0.009,-0.058,-0.034,0.073,-0.023
-0.078,-0.094,-0.016,0.086,-0.031,-0.054,0.039,0.043,-0.042,-0.062,0.043,-0.037
-0.039,-0.043,-0.004,0.041,-0.017,-0.023,0.02,0.041,-0.036,-0.057,0.054,-0.023
-0.055,-0.058,-0.003,0.056,-0.025,-0.03,0.027,0.062,-0.011,-0.037,0.044,-0.023
-0.079,-0.068,0.011,0.073,-0.044,-0.028,0.018,0.058,-0.008,-0.034,0.048,-0.021
-0.082,-0.063,0.019,0.073,-0.05,-0.022,0.014,0.072,0.015,0.0,0.056,-0.011
-0.052,-0.042,0.01,0.047,-0.03,-0.016,0.023,0.074,0.02,0.014,0.066,-0.008
-0.021,-0.015,0.006,0.017,-0.013,-0.004,0.039,0.102,0.05,0.039,0.085,0.006
-0.012,-0.016,-0.004,0.014,-0.004,-0.01,0.027,0.119,0.072,0.056,0.103,0.008
0.008,0.013,0.005,-0.011,0.001,0.009,0.007,0.128,0.104,0.09,0.136,0.024
0.002,0.031,0.029,-0.017,-0.014,0.03,-0.001,0.161,0.158,0.137,0.149,0.046
0.02,0.064,0.044,-0.043,-0.012,0.054,-0.014,0.198,0.221,0.198,0.185,0.071
0.058,0.102,0.044,-0.081,0.006,0.073,-0.021,0.251,0.303,0.27,0.24,0.111
0.057,0.139,0.082,-0.098,-0.013,0.11,-0.035,0.305,0.386,0.355,0.298,0.157
0.105,0.203,0.097,-0.154,0.003,0.15,-0.047,0.349,0.464,0.434,0.36,0.206
0.124,0.23,0.106,-0.177,0.009,0.167,-0.056,0.373,0.51,0.492,0.403,0.245
0.104,0.243,0.139,-0.174,-0.018,0.191,-0.071,0.365,0.516,0.509,0.409,0.258
0.116,0.266,0.15,-0.191,-0.017,0.208,-0.066,0.34,0.485,0.49,0.401,0.259
0.117,0.249,0.133,-0.183,-0.008,0.191,-0.051,0.297,0.41,0.433,0.383,0.239
0.085,0.192,0.107,-0.139,-0.011,0.149,-0.033,0.232,0.303,0.321,0.314,0.178
0.014,0.109,0.096,-0.062,-0.041,0.102,-0.004,0.155,0.173,0.196,0.22,0.111
-0.029,0.052,0.081,-0.012,-0.055,0.066,0.022,0.094,0.075,0.094,0.143,0.065
-0.06,0.006,0.066,0.027,-0.063,0.036,0.037,0.049,0.001,0.02,0.08,0.017
-0.076,-0.023,0.054,0.049,-0.065,0.015,0.043,0.016,-0.053,-0.033,0.033,-0.027
-0.091,-0.053,0.039,0.072,-0.065,-0.007,0.043,-0.01,-0.079,-0.058,0.013,-0.053
-0.1,-0.075,0.025,0.087,-0.062,-0.024,0.039,-0.03,-0.105,-0.071,0.009,-0.057
-0.081,-0.069,0.012,0.075,-0.046,-0.028,0.04,-0.03,-0.114,-0.091,0.004,-0.059
-0.081,-0.076,0.005,0.078,-0.043,-0.035,0.04,-0.03,-0.113,-0.092,-0.002,-0.064
-0.102,-0.076,0.026,0.088,-0.063,-0.025,0.04,-0.03,-0.108,-0.089,-0.008,-0.063
-0.068,-0.049,0.019,0.058,-0.043,-0.015,0.04,-0.03,-0.1,-0.091,-0.008,-0.06
-0.035,-0.036,-0.001,0.035,-0.017,-0.018,0.04,-0.029,-0.095,-0.089,-0.004,-0.057
-0.121,-0.081,0.04,0.1,-0.08,-0.02,0.04,-0.023,-0.087,-0.091,-0.002,-0.055
-0.127,-0.106,0.021,0.116,-0.074,-0.042,0.04,-0.017,-0.081,-0.088,0.001,-0.052
-0.078,-0.089,-0.011,0.084,-0.034,-0.05,0.04,-0.012,-0.083,-0.086,0.004,-0.05
-0.093,-0.08,0.013,0.087,-0.053,-0.033,0.04,-0.006,-0.085,-0.082,0.005,-0.05
-0.097,-0.071,0.027,0.084,-0.062,-0.022,0.038,-0.006,-0.085,-0.08,0.001,-0.05
-0.097,-0.059,0.038,0.078,-0.067,-0.01,0.035,-0.004,-0.089,-0.076,-0.002,-0.05
-0.083,-0.053,0.029,0.068,-0.056,-0.012,0.032,-0.007,-0.091,-0.076,-0.005,-0.051
-0.075,-0.056,0.019,0.065,-0.047,-0.018,0.029,-0.012,-0.089,-0.073,-0.008,-0.049
-0.073,-0.06,0.013,0.066,-0.043,-0.023,0.026,-0.02,-0.102,-0.081,-0.01,-0.055
-0.051,-0.048,0.003,0.049,-0.027,-0.022,0.025,-0.026,-0.114,-0.095,-0.013,-0.066
-0.055,-0.058,-0.003,0.057,-0.026,-0.03,0.03,-0.032,-0.12,-0.099,-0.016,-0.065
-0.083,-0.083,0.0,0.083,-0.041,-0.041,0.03,-0.059,-0.129,-0.11,-0.022,-0.065
-0.075,-0.068,0.007,0.071,-0.041,-0.03,0.033,-0.073,-0.133,-0.11,-0.03,-0.065
-0.073,-0.061,0.013,0.067,-0.042,-0.024,0.036,-0.072,-0.135,-0.111,-0.038,-0.064
-0.086,-0.073,0.013,0.079,-0.049,-0.03,0.032,-0.077,-0.142,-0.116,-0.04,-0.067
-0.09,-0.08,0.01,0.085,-0.05,-0.035,0.03,-0.079,-0.152,-0.114,-0.04,-0.078
-0.089,-0.08,0.009,0.085,-0.049,-0.036,0.027,-0.081,-0.155,-0.118,-0.043,-0.085
-0.084,-0.079,0.005,0.081,-0.044,-0.037,0.024,-0.08,-0.155,-0.124,-0.046,-0.085
-0.086,-0.08,0.005,0.083,-0.045,-0.037,0.021,-0.08,-0.159,-0.13,-0.044,-0.085
-0.091,-0.079,0.012,0.085,-0.051,-0.034,0.019,-0.08,-0.16,-0.138,-0.041,-0.085
-0.095,-0.084,0.011,0.089,-0.052,-0.036,0.02,-0.079,-0.159,-0.141,-0.04,-0.085
-0.089,-0.085,0.005,0.087,-0.046,-0.04,0.02,-0.081,-0.155,-0.139,-0.04,-0.082
-0.088,-0.085,0.003,0.086,-0.045,-0.041,0.02,-0.077,-0.155,-0.14,-0.04,-0.079
-0.079,-0.085,-0.005,0.082,-0.036,-0.045,0.02,-0.075,-0.155,-0.139,-0.04,-0.08
-0.085,-0.086,-0.001,0.085,-0.041,-0.043,0.019,-0.075,-0.155,-0.141,-0.043,-0.08
-0.099,-0.084,0.015,0.091,-0.057,-0.034,0.024,-0.073,-0.154,-0.144,-0.054,-0.08
-0.095,-0.078,0.016,0.086,-0.055,-0.031,0.024,-0.076,-0.159,-0.146,-0.055,-0.08
-0.086,-0.072,0.014,0.078,-0.049,-0.029,0.028,-0.073,-0.159,-0.147,-0.047,-0.074
-0.075,-0.066,0.009,0.07,-0.041,-0.028,0.021,-0.084,-0.149,-0.152,-0.041,-0.068
-0.086,-0.068,0.018,0.077,-0.052,-0.025,0.031,-0.076,-0.142,-0.142,-0.034,-0.063
-0.103,-0.07,0.033,0.086,-0.068,-0.019,0.061,-0.042,-0.133,-0.105,-0.027,-0.056
-0.08,-0.071,0.009,0.075,-0.044,-0.03,0.043,-0.009,-0.133,-0.082,-0.025,-0.058
-0.034,-0.068,-0.034,0.051,0.0,-0.051,0.023,-0.007,-0.138,-0.089,-0.024,-0.06
-0.06,-0.073,-0.013,0.067,-0.023,-0.043,0.01,-0.047,-0.147,-0.11,-0.027,-0.061
-0.04,-0.063,-0.024,0.052,-0.008,-0.043,0.0,-0.054,-0.148,-0.108,-0.021,-0.059
0.004,-0.069,-0.073,0.033,0.039,-0.071,-0.002,-0.08,-0.162,-0.137,-0.047,-0.062
-0.069,-0.101,-0.031,0.085,-0.019,-0.066,-0.013,-0.091,-0.178,-0.154,-0.079,-0.073
-0.069,-0.096,-0.027,0.083,-0.02,-0.062,-0.007,-0.101,-0.178,-0.153,-0.09,-0.082
-0.053,-0.077,-0.024,0.065,-0.014,-0.05,0.007,-0.088,-0.171,-0.146,-0.081,-0.089
-0.067,-0.1,-0.034,0.084,-0.016,-0.067,0.011,-0.096,-0.166,-0.14,-0.087,-0.105
-0.075,-0.084,-0.009,0.08,-0.032,-0.047,0.025,-0.085,-0.166,-0.144,-0.087,-0.098
-0.109,-0.107,0.002,0.108,-0.055,-0.052,0.021,-0.095,-0.155,-0.121,-0.077,-0.099
-0.075,-0.108,-0.033,0.092,-0.02,-0.07,0.066,0.038,-0.085,-0.113,-0.089,-0.106
0.08,-0.012,-0.092,-0.034,0.086,-0.052,0.232,0.687,0.439,0.196,0.034,-0.046
0.271,0.382,0.111,-0.327,0.08,0.246,-0.234,-0.153,0.606,0.718,0.542,0.384
0.269,1.186,0.917,-0.728,-0.325,1.051,-1.183,-1.977,-0.114,1.172,1.395,1.142
0.079,0.866,0.787,-0.473,-0.354,0.826,-1.041,-1.747,-0.573,0.646,0.994,0.865
-0.092,-0.102,-0.009,0.097,-0.041,-0.055,-0.335,-0.763,-0.583,-0.352,-0.122,-0.006
-0.081,-0.133,-0.052,0.108,-0.015,-0.092,-0.118,-0.32,-0.3,-0.243,-0.136,-0.094
-0.035,-0.058,-0.023,0.047,-0.006,-0.04,-0.017,-0.07,-0.086,-0.088,-0.063,-0.051
-0.047,-0.078,-0.03,0.063,-0.008,-0.054,0.02,-0.041,-0.094,-0.138,-0.103,-0.077
-0.048,-0.064,-0.017,0.056,-0.015,-0.04,0.036,0.008,-0.05,-0.074,-0.062,-0.056
-0.052,-0.08,-0.028,0.066,-0.012,-0.054,0.061,0.021,-0.05,-0.107,-0.092,-0.073
-0.025,-0.037,-0.012,0.031,-0.007,-0.024,0.055,0.034,-0.03,-0.07,-0.063,-0.059
-0.039,-0.069,-0.029,0.054,-0.005,-0.049,0.055,0.049,-0.029,-0.084,-0.08,-0.07
-0.046,-0.069,-0.022,0.058,-0.012,-0.045,0.046,0.046,-0.019,-0.06,-0.061,-0.062
-0.021,-0.053,-0.032,0.037,0.006,-0.043,0.045,0.056,0.004,-0.051,-0.064,-0.059
-0.013,-0.056,-0.043,0.035,0.015,-0.049,0.039,0.061,0.026,-0.034,-0.058,-0.047
-0.005,-0.04,-0.035,0.023,0.015,-0.037,0.031,0.08,0.047,-0.004,-0.051,-0.037
-0.006,-0.033,-0.027,0.02,0.011,-0.03,0.019,0.1,0.058,0.019,-0.035,-0.027
0.004,-0.015,-0.019,0.005,0.012,-0.017,0.008,0.13,0.109,0.061,-0.006,-0.008
0.026,0.014,-0.012,-0.019,0.018,0.001,-0.003,0.164,0.161,0.099,0.017,0.012
0.037,0.029,-0.008,-0.032,0.022,0.01,-0.015,0.198,0.218,0.156,0.057,0.04
0.049,0.088,0.04,-0.069,0.004,0.064,-0.026,0.249,0.299,0.233,0.107,0.073
0.067,0.122,0.055,-0.095,0.006,0.088,-0.038,0.312,0.394,0.332,0.177,0.124
0.112,0.161,0.049,-0.137,0.031,0.105,-0.051,0.346,0.453,0.403,0.224,0.159
0.137,0.209,0.072,-0.173,0.033,0.14,-0.06,0.348,0.469,0.44,0.257,0.185
0.136,0.214,0.078,-0.175,0.029,0.146,-0.06,0.338,0.471,0.452,0.283,0.202
0.132,0.231,0.099,-0.182,0.017,0.165,-0.057,0.315,0.436,0.426,0.27,0.187
0.081,0.176,0.095,-0.129,-0.008,0.135,-0.055,0.273,0.356,0.349,0.221,0.167
0.041,0.119,0.077,-0.08,-0.018,0.098,-0.027,0.213,0.245,0.229,0.133,0.11
0.014,0.069,0.055,-0.042,-0.021,0.061,0.013,0.154,0.128,0.111,0.043,0.041
-0.012,0.003,0.015,0.005,-0.014,0.008,0.028,0.11,0.039,0.011,-0.025,0.002
-0.028,-0.038,-0.01,0.033,-0.008,-0.024,0.042,0.07,-0.032,-0.07,-0.081,-0.045
-0.018,-0.053,-0.035,0.035,0.009,-0.044,0.046,0.032,-0.075,-0.109,-0.115,-0.074
-0.053,-0.086,-0.033,0.07,-0.009,-0.059,0.044,0.013,-0.1,-0.14,-0.14,-0.094
-0.095,-0.137,-0.042,0.116,-0.026,-0.089,0.045,0.007,-0.125,-0.169,-0.165,-0.116
-0.064,-0.125,-0.061,0.095,-0.001,-0.093,0.044,-0.009,-0.132,-0.162,-0.17,-0.113
-0.069,-0.122,-0.053,0.096,-0.007,-0.087,0.046,-0.025,-0.151,-0.176,-0.17,-0.129
-0.075,-0.123,-0.049,0.099,-0.013,-0.086,0.042,-0.019,-0.157,-0.185,-0.17,-0.142
-0.068,-0.111,-0.043,0.09,-0.012,-0.077,0.04,-0.005,-0.146,-0.176,-0.17,-0.132
-0.085,-0.121,-0.036,0.104,-0.024,-0.079,0.04,0.007,-0.139,-0.173,-0.17,-0.13
-0.066,-0.104,-0.038,0.085,-0.013,-0.071,0.04,0.026,-0.129,-0.166,-0.169,-0.125
-0.056,-0.108,-0.051,0.082,-0.002,-0.079,0.04,0.039,-0.116,-0.161,-0.174,-0.12
-0.087,-0.132,-0.046,0.11,-0.02,-0.089,0.04,0.039,-0.107,-0.163,-0.175,-0.124
-0.075,-0.114,-0.039,0.094,-0.017,-0.076,0.04,0.034,-0.11,-0.166,-0.175,-0.131
-0.063,-0.095,-0.032,0.079,-0.015,-0.063,0.04,0.031,-0.11,-0.165,-0.18,-0.137
-0.057,-0.085,-0.028,0.071,-0.014,-0.056,0.04,0.028,-0.113,-0.17,-0.18,-0.14
-0.062,-0.116,-0.054,0.089,-0.004,-0.084,0.04,0.023,-0.115,-0.17,-0.181,-0.14
-0.082,-0.128,-0.046,0.105,-0.017,-0.087,0.04,0.02,-0.115,-0.172,-0.186,-0.14
-0.08,-0.123,-0.044,0.102,-0.017,-0.083,0.038,0.017,-0.118,-0.176,-0.191,-0.14
-0.054,-0.126,-0.072,0.09,0.009,-0.098,0.034,0.011,-0.125,-0.185,-0.194,-0.14
-0.041,-0.124,-0.082,0.083,0.021,-0.103,0.035,0.007,-0.14,-0.199,-0.2,-0.143
-0.069,-0.145,-0.076,0.107,0.004,-0.11,0.035,0.002,-0.145,-0.202,-0.21,-0.147
-0.067,-0.141,-0.075,0.105,0.004,-0.108,0.035,-0.002,-0.148,-0.204,-0.215,-0.152
-0.064,-0.167,-0.103,0.116,0.02,-0.135,0.035,-0.007,-0.153,-0.208,-0.22,-0.155
-0.072,-0.174,-0.102,0.124,0.015,-0.138,0.03,-0.01,-0.159,-0.214,-0.219,-0.157
-0.08,-0.16,-0.08,0.12,0.0,-0.119,0.03,-0.01,-0.165,-0.22,-0.225,-0.16
-0.086,-0.168,-0.082,0.127,-0.001,-0.125,0.03,-0.012,-0.165,-0.224,-0.236,-0.164
-0.095,-0.164,-0.069,0.13,-0.013,-0.116,0.03,-0.015,-0.165,-0.228,-0.234,-0.165
-0.096,-0.172,-0.076,0.134,-0.01,-0.124,0.03,-0.015,-0.165,-0.233,-0.235,-0.165
-0.058,-0.169,-0.111,0.114,0.026,-0.139,0.03,-0.011,-0.167,-0.235,-0.235,-0.169
-0.052,-0.168,-0.116,0.11,0.032,-0.142,0.042,-0.01,-0.171,-0.235,-0.235,-0.171
-0.03,-0.147,-0.117,0.089,0.044,-0.132,0.047,-0.009,-0.169,-0.235,-0.238,-0.169
-0.017,-0.138,-0.121,0.078,0.052,-0.129,0.044,-0.006,-0.164,-0.235,-0.245,-0.165
-0.044,-0.164,-0.119,0.104,0.038,-0.141,0.047,-0.004,-0.157,-0.235,-0.25,-0.16
-0.043,-0.155,-0.111,0.099,0.034,-0.133,0.044,-0.004,-0.15,-0.227,-0.244,-0.158
-0.031,-0.139,-0.108,0.085,0.039,-0.123,0.048,0.011,-0.145,-0.218,-0.237,-0.153
-0.034,-0.123,-0.09,0.079,0.028,-0.106,0.056,0.036,-0.136,-0.206,-0.231,-0.15
-0.048,-0.112,-0.064,0.08,0.008,-0.088,0.043,0.036,-0.138,-0.201,-0.224,-0.154
-0.009,-0.116,-0.107,0.063,0.049,-0.112,0.031,0.066,-0.14,-0.199,-0.217,-0.155
0.014,-0.114,-0.128,0.05,0.071,-0.12,0.03,0.051,-0.139,-0.201,-0.215,-0.155
-0.008,-0.119,-0.111,0.064,0.052,-0.115,0.03,0.004,-0.159,-0.21,-0.225,-0.154
0.006,-0.145,-0.151,0.069,0.079,-0.147,0.03,-0.004,-0.173,-0.228,-0.244,-0.155
-0.032,-0.167,-0.135,0.099,0.052,-0.151,0.03,-0.01,-0.175,-0.241,-0.254,-0.156
-0.05,-0.167,-0.117,0.109,0.034,-0.142,0.029,-0.011,-0.173,-0.241,-0.265,-0.164
-0.026,-0.152,-0.126,0.09,0.05,-0.139,0.028,-0.026,-0.198,-0.248,-0.258,-0.181
-0.052,-0.171,-0.12,0.112,0.034,-0.145,0.022,-0.016,-0.196,-0.226,-0.262,-0.189
-0.054,-0.178,-0.125,0.116,0.035,-0.151,0.021,-0.027,-0.19,-0.237,-0.287,-0.193
-0.072,-0.158,-0.086,0.115,0.007,-0.122,0.017,0.017,-0.168,-0.211,-0.254,-0.185
-0.062,-0.184,-0.122,0.123,0.03,-0.152,0.012,0.004,-0.163,-0.207,-0.272,-0.197
0.025,-0.148,-0.173,0.062,0.099,-0.16,0.165,0.461,0.177,-0.047,-0.213,-0.174
0.173,0.03,-0.143,-0.101,0.158,-0.057,0.121,0.625,0.677,0.418,0.088,0.034
0.252,0.762,0.51,-0.507,-0.129,0.635,-0.712,-1.039,0.118,0.868,0.846,0.688
0.125,1.063,0.937,-0.594,-0.406,1.0,-1.14,-1.839,-0.669,0.734,1.07,0.918
-0.057,0.121,0.178,-0.032,-0.118,0.149,-0.511,-0.899,-0.726,-0.227,0.018,0.141
-0.111,-0.326,-0.214,0.218,0.052,-0.27,-0.138,-0.349,-0.481,-0.51,-0.412,-0.244
-0.066,-0.188,-0.121,0.127,0.028,-0.154,-0.065,-0.074,-0.178,-0.19,-0.215,-0.151
-0.056,-0.168,-0.112,0.112,0.028,-0.14,0.014,0.034,-0.121,-0.22,-0.267,-0.17
-0.052,-0.136,-0.084,0.094,0.016,-0.11,0.013,0.055,-0.099,-0.179,-0.227,-0.148
-0.037,-0.176,-0.14,0.107,0.052,-0.158,0.048,0.095,-0.061,-0.177,-0.241,-0.157
-0.024,-0.149,-0.125,0.087,0.051,-0.137,0.033,0.087,-0.061,-0.164,-0.227,-0.149
-0.02,-0.151,-0.131,0.086,0.056,-0.141,0.036,0.116,-0.039,-0.146,-0.222,-0.147
-0.011,-0.142,-0.131,0.076,0.06,-0.136,0.031,0.105,-0.039,-0.144,-0.221,-0.147
0.002,-0.126,-0.128,0.062,0.065,-0.126,0.025,0.122,-0.02,-0.119,-0.207,-0.139
-0.017,-0.147,-0.131,0.082,0.057,-0.139,0.025,0.115,-0.002,-0.121,-0.211,-0.129
-0.034,-0.147,-0.114,0.091,0.04,-0.13,0.011,0.125,0.023,-0.092,-0.19,-0.111
-0.035,-0.146,-0.111,0.091,0.038,-0.128,0.002,0.149,0.049,-0.057,-0.169,-0.1
-0.032,-0.126,-0.095,0.079,0.032,-0.11,-0.011,0.166,0.089,-0.02,-0.139,-0.084
0.002,-0.1,-0.102,0.049,0.053,-0.1,-0.017,0.192,0.127,0.012,-0.111,-0.072
0.04,-0.059,-0.099,0.009,0.07,-0.078,-0.026,0.219,0.192,0.081,-0.068,-0.052
0.082,-0.027,-0.108,-0.027,0.095,-0.067,-0.034,0.265,0.274,0.167,-0.021,-0.015
0.106,0.012,-0.094,-0.059,0.1,-0.04,-0.04,0.308,0.35,0.252,0.034,0.031
0.101,0.06,-0.041,-0.08,0.071,0.009,-0.058,0.352,0.424,0.339,0.09,0.068
0.168,0.102,-0.066,-0.135,0.117,0.018,-0.074,0.375,0.472,0.401,0.14,0.106
0.18,0.13,-0.05,-0.155,0.115,0.039,-0.078,0.371,0.489,0.424,0.15,0.134
0.14,0.122,-0.018,-0.13,0.078,0.052,-0.077,0.358,0.458,0.41,0.13,0.131
0.135,0.121,-0.014,-0.128,0.074,0.053,-0.067,0.326,0.394,0.347,0.114,0.108
0.069,0.066,-0.003,-0.067,0.036,0.031,-0.047,0.273,0.277,0.217,0.043,0.057
0.014,-0.014,-0.029,0.0,0.022,-0.021,-0.015,0.213,0.139,0.071,-0.059,-0.019
-0.002,-0.044,-0.042,0.024,0.02,-0.043,0.016,0.158,0.035,-0.042,-0.127,-0.075
-0.032,-0.102,-0.07,0.067,0.019,-0.086,0.031,0.114,-0.038,-0.115,-0.183,-0.108
-0.037,-0.15,-0.113,0.093,0.039,-0.131,0.039,0.081,-0.088,-0.174,-0.228,-0.146
-0.033,-0.152,-0.119,0.092,0.044,-0.135,0.04,0.053,-0.12,-0.208,-0.258,-0.168
-0.051,-0.172,-0.121,0.111,0.035,-0.146,0.04,0.039,-0.139,-0.22,-0.271,-0.17
-0.072,-0.191,-0.119,0.131,0.024,-0.155,0.044,0.035,-0.154,-0.24,-0.274,-0.177
-0.062,-0.181,-0.119,0.122,0.029,-0.15,0.046,0.03,-0.159,-0.241,-0.274,-0.18
-0.054,-0.178,-0.123,0.116,0.035,-0.15,0.043,0.027,-0.158,-0.245,-0.277,-0.185
-0.082,-0.171,-0.089,0.127,0.003,-0.13,0.051,0.02,-0.151,-0.243,-0.281,-0.181
-0.062,-0.165,-0.103,0.114,0.021,-0.134,0.059,0.025,-0.145,-0.233,-0.277,-0.174
-0.056,-0.18,-0.124,0.119,0.034,-0.152,0.052,0.036,-0.136,-0.227,-0.272,-0.17
-0.088,-0.181,-0.093,0.135,0.003,-0.137,0.047,0.054,-0.122,-0.217,-0.268,-0.164
-0.082,-0.169,-0.087,0.126,0.003,-0.128,0.042,0.075,-0.108,-0.208,-0.263,-0.158
-0.067,-0.167,-0.1,0.117,0.017,-0.133,0.036,0.075,-0.099,-0.197,-0.26,-0.156
-0.042,-0.159,-0.117,0.101,0.037,-0.138,0.039,0.075,-0.092,-0.19,-0.26,-0.165
-0.051,-0.167,-0.115,0.109,0.032,-0.141,0.04,0.075,-0.091,-0.19,-0.26,-0.171
-0.075,-0.186,-0.111,0.131,0.019,-0.148,0.041,0.075,-0.113,-0.198,-0.26,-0.17
-0.073,-0.185,-0.112,0.129,0.02,-0.148,0.045,0.073,-0.114,-0.203,-0.26,-0.17
-0.077,-0.185,-0.107,0.131,0.015,-0.146,0.045,0.062,-0.12,-0.206,-0.263,-0.17
-0.072,-0.186,-0.114,0.129,0.022,-0.15,0.045,0.052,-0.141,-0.21,-0.268,-0.17
-0.059,-0.184,-0.125,0.122,0.033,-0.154,0.045,0.045,-0.141,-0.209,-0.269,-0.171
-0.068,-0.189,-0.121,0.129,0.027,-0.154,0.045,0.042,-0.145,-0.22,-0.265,-0.176
-0.074,-0.188,-0.114,0.132,0.02,-0.151,0.044,0.038,-0.148,-0.226,-0.265,-0.18
-0.081,-0.193,-0.112,0.137,0.016,-0.152,0.046,0.034,-0.15,-0.224,-0.265,-0.18
-0.088,-0.193,-0.105,0.141,0.009,-0.149,0.044,0.03,-0.151,-0.225,-0.265,-0.18
-0.089,-0.199,-0.11,0.145,0.011,-0.155,0.042,0.027,-0.151,-0.225,-0.265,-0.18
-0.069,-0.201,-0.132,0.135,0.032,-0.166,0.033,0.026,-0.152,-0.23,-0.262,-0.18
-0.048,-0.187,-0.139,0.118,0.046,-0.163,0.031,0.024,-0.138,-0.23,-0.258,-0.178
-0.069,-0.194,-0.125,0.132,0.029,-0.16,0.048,0.021,-0.153,-0.233,-0.255,-0.171
-0.059,-0.181,-0.122,0.121,0.032,-0.152,0.042,0.019,-0.172,-0.236,-0.251,-0.185
-0.052,-0.162,-0.11,0.107,0.03,-0.136,0.06,0.051,-0.157,-0.232,-0.249,-0.176
-0.041,-0.147,-0.106,0.094,0.032,-0.126,0.077,0.076,-0.154,-0.227,-0.25,-0.144
0.0,-0.131,-0.131,0.066,0.066,-0.131,0.048,0.067,-0.153,-0.223,-0.25,-0.145
0.007,-0.14,-0.147,0.066,0.077,-0.143,0.01,0.062,-0.148,-0.218,-0.249,-0.146
-0.01,-0.144,-0.133,0.077,0.062,-0.138,0.004,0.053,-0.148,-0.215,-0.251,-0.15
-0.007,-0.136,-0.129,0.072,0.061,-0.133,0.013,0.049,-0.142,-0.208,-0.247,-0.15
-0.002,-0.158,-0.155,0.08,0.077,-0.156,-0.002,0.036,-0.162,-0.228,-0.258,-0.156
-0.065,-0.188,-0.122,0.127,0.029,-0.155,0.005,0.035,-0.173,-0.236,-0.258,-0.162
-0.075,-0.199,-0.123,0.137,0.024,-0.161,0.031,0.023,-0.178,-0.236,-0.261,-0.17
-0.049,-0.172,-0.123,0.11,0.037,-0.147,0.035,0.018,-0.18,-0.236,-0.26,-0.174
-0.056,-0.178,-0.122,0.118,0.033,-0.15,0.032,0.011,-0.169,-0.23,-0.258,-0.175
-0.057,-0.173,-0.115,0.115,0.029,-0.144,0.029,0.026,-0.178,-0.244,-0.266,-0.177
-0.061,-0.179,-0.118,0.12,0.028,-0.149,0.022,0.034,-0.157,-0.217,-0.244,-0.171
-0.051,-0.194,-0.143,0.123,0.046,-0.168,0.059,0.082,-0.109,-0.198,-0.247,-0.183
0.048,-0.101,-0.149,0.027,0.098,-0.125,0.209,0.688,0.372,0.087,-0.136,-0.142
0.231,0.216,-0.016,-0.223,0.123,0.1,-0.083,0.237,0.628,0.597,0.3,0.204
0.254,0.988,0.734,-0.622,-0.24,0.861,-0.991,-1.547,-0.151,0.994,1.088,0.894
0.078,0.841,0.762,-0.46,-0.342,0.801,-1.048,-1.624,-0.735,0.519,0.853,0.759
-0.092,-0.131,-0.039,0.111,-0.027,-0.085,-0.348,-0.647,-0.678,-0.432,-0.231,-0.057
-0.081,-0.246,-0.165,0.164,0.043,-0.206,-0.097,-0.22,-0.357,-0.369,-0.314,-0.187
-0.031,-0.148,-0.117,0.089,0.044,-0.132,-0.012,0.025,-0.117,-0.163,-0.181,-0.114
-0.044,-0.161,-0.117,0.103,0.037,-0.139,0.034,0.069,-0.111,-0.202,-0.229,-0.137
-0.041,-0.138,-0.096,0.09,0.028,-0.117,0.037,0.111,-0.071,-0.131,-0.178,-0.115
-0.055,-0.164,-0.109,0.109,0.027,-0.136,0.046,0.119,-0.067,-0.149,-0.203,-0.129
-0.049,-0.138,-0.089,0.094,0.02,-0.114,0.035,0.127,-0.056,-0.113,-0.173,-0.114
-0.048,-0.145,-0.097,0.097,0.025,-0.121,0.044,0.151,-0.047,-0.117,-0.182,-0.124
-0.048,-0.132,-0.084,0.09,0.018,-0.108,0.037,0.14,-0.027,-0.101,-0.168,-0.111
-0.045,-0.129,-0.084,0.087,0.02,-0.106,0.042,0.153,-0.002,-0.092,-0.165,-0.105
-0.048,-0.125,-0.077,0.086,0.015,-0.101,0.036,0.147,0.004,-0.072,-0.149,-0.097
-0.037,-0.11,-0.073,0.074,0.018,-0.091,0.029,0.158,0.033,-0.038,-0.118,-0.088
-0.04,-0.109,-0.069,0.074,0.015,-0.089,0.023,0.171,0.058,-0.015,-0.098,-0.082
-0.043,-0.108,-0.064,0.076,0.01,-0.086,0.015,0.203,0.102,0.025,-0.07,-0.062
-0.004,-0.059,-0.055,0.032,0.025,-0.057,0.01,0.237,0.157,0.072,-0.038,-0.037
0.016,-0.024,-0.04,0.004,0.028,-0.032,0.003,0.265,0.219,0.146,-0.001,-0.009
0.026,0.0,-0.026,-0.013,0.026,-0.013,-0.005,0.31,0.303,0.23,0.059,0.032
0.083,0.053,-0.03,-0.068,0.056,0.012,-0.014,0.373,0.4,0.335,0.141,0.093
0.089,0.1,0.012,-0.095,0.038,0.056,-0.033,0.416,0.468,0.413,0.195,0.131
0.09,0.136,0.046,-0.114,0.022,0.091,-0.047,0.418,0.502,0.453,0.233,0.158
0.115,0.15,0.035,-0.133,0.04,0.092,-0.039,0.406,0.494,0.459,0.242,0.174
0.083,0.154,0.071,-0.119,0.006,0.112,-0.035,0.376,0.453,0.421,0.241,0.159
0.076,0.124,0.048,-0.1,0.014,0.086,-0.027,0.329,0.36,0.34,0.191,0.13
0.037,0.07,0.033,-0.054,0.002,0.051,0.01,0.268,0.225,0.207,0.098,0.079
-0.021,0.0,0.021,0.01,-0.021,0.011,0.041,0.208,0.1,0.078,0.02,0.014
-0.034,-0.047,-0.013,0.041,-0.01,-0.03,0.047,0.149,0.005,-0.011,-0.052,-0.034
-0.088,-0.084,0.004,0.086,-0.046,-0.04,0.061,0.1,-0.057,-0.077,-0.093,-0.061
-0.075,-0.113,-0.038,0.094,-0.018,-0.075,0.067,0.072,-0.103,-0.125,-0.126,-0.081
-0.062,-0.125,-0.063,0.094,0.001,-0.094,0.06,0.054,-0.131,-0.16,-0.148,-0.099
-0.094,-0.145,-0.051,0.12,-0.022,-0.098,0.06,0.047,-0.148,-0.172,-0.152,-0.105
-0.086,-0.137,-0.05,0.112,-0.018,-0.093,0.055,0.042,-0.154,-0.169,-0.157,-0.11
-0.1,-0.142,-0.042,0.121,-0.029,-0.092,0.056,0.039,-0.161,-0.17,-0.162,-0.118
-0.114,-0.15,-0.036,0.132,-0.039,-0.092,0.059,0.033,-0.163,-0.165,-0.162,-0.115
-0.105,-0.15,-0.046,0.128,-0.03,-0.098,0.062,0.03,-0.152,-0.16,-0.154,-0.115
-0.094,-0.15,-0.055,0.122,-0.02,-0.102,0.065,0.036,-0.143,-0.157,-0.15,-0.113
-0.1,-0.144,-0.044,0.122,-0.028,-0.094,0.065,0.051,-0.132,-0.151,-0.144,-0.109
-0.077,-0.138,-0.06,0.108,-0.008,-0.099,0.065,0.065,-0.124,-0.148,-0.139,-0.11
-0.078,-0.13,-0.052,0.104,-0.012,-0.091,0.065,0.071,-0.119,-0.141,-0.134,-0.106
-0.086,-0.126,-0.04,0.106,-0.023,-0.083,0.066,0.069,-0.114,-0.136,-0.129,-0.104
-0.05,-0.113,-0.063,0.082,0.007,-0.088,0.063,0.072,-0.108,-0.13,-0.124,-0.101
-0.073,-0.135,-0.061,0.104,-0.006,-0.098,0.071,0.075,-0.102,-0.126,-0.119,-0.098
-0.098,-0.151,-0.053,0.125,-0.022,-0.102,0.082,0.07,-0.102,-0.13,-0.116,-0.095
-0.096,-0.147,-0.052,0.122,-0.022,-0.099,0.077,0.064,-0.112,-0.13,-0.109,-0.095
-0.09,-0.13,-0.04,0.11,-0.025,-0.085,0.075,0.059,-0.122,-0.131,-0.115,-0.096
-0.065,-0.116,-0.051,0.091,-0.007,-0.083,0.072,0.053,-0.126,-0.135,-0.118,-0.094
-0.065,-0.141,-0.076,0.103,0.006,-0.108,0.069,0.05,-0.146,-0.134,-0.115,-0.101
-0.062,-0.137,-0.075,0.1,0.007,-0.106,0.067,0.05,-0.162,-0.137,-0.115,-0.106
-0.056,-0.131,-0.075,0.094,0.009,-0.102,0.062,0.047,-0.159,-0.14,-0.113,-0.105
-0.056,-0.131,-0.076,0.094,0.01,-0.103,0.06,0.045,-0.163,-0.14,-0.109,-0.109
-0.054,-0.128,-0.074,0.091,0.01,-0.1,0.056,0.045,-0.165,-0.14,-0.11,-0.11
-0.069,-0.148,-0.079,0.108,0.005,-0.113,0.051,0.042,-0.165,-0.14,-0.122,-0.109
-0.076,-0.156,-0.08,0.116,0.003,-0.118,0.051,0.037,-0.162,-0.14,-0.126,-0.106
-0.072,-0.148,-0.075,0.11,0.002,-0.111,0.055,0.035,-0.156,-0.136,-0.121,-0.102
-0.076,-0.146,-0.07,0.111,-0.002,-0.108,0.056,0.031,-0.151,-0.13,-0.12,-0.099
-0.072,-0.139,-0.068,0.106,-0.002,-0.103,0.053,0.026,-0.148,-0.126,-0.116,-0.095
-0.076,-0.136,-0.06,0.106,-0.008,-0.097,0.064,0.027,-0.14,-0.121,-0.114,-0.09
-0.067,-0.125,-0.059,0.096,-0.004,-0.091,0.09,0.028,-0.145,-0.117,-0.111,-0.09
-0.061,-0.099,-0.038,0.081,-0.012,-0.068,0.104,0.052,-0.155,-0.112,-0.106,-0.09
-0.056,-0.091,-0.035,0.073,-0.01,-0.063,0.081,0.058,-0.15,-0.11,-0.104,-0.09
0.007,-0.07,-0.077,0.032,0.042,-0.073,0.054,0.048,-0.145,-0.11,-0.099,-0.089
0.0,-0.086,-0.087,0.043,0.044,-0.086,0.055,0.038,-0.141,-0.11,-0.096,-0.09
-0.047,-0.117,-0.069,0.082,0.011,-0.093,0.055,0.026,-0.136,-0.111,-0.097,-0.09
-0.057,-0.128,-0.071,0.093,0.007,-0.099,0.055,0.016,-0.136,-0.108,-0.099,-0.09
-0.071,-0.13,-0.059,0.101,-0.006,-0.094,0.055,0.004,-0.157,-0.129,-0.113,-0.091
-0.067,-0.122,-0.055,0.095,-0.006,-0.088,0.054,0.008,-0.16,-0.129,-0.116,-0.087
-0.088,-0.163,-0.075,0.126,-0.006,-0.119,0.05,-0.01,-0.16,-0.133,-0.12,-0.101
-0.082,-0.142,-0.06,0.112,-0.011,-0.101,0.047,0.001,-0.15,-0.12,-0.103,-0.103
-0.063,-0.141,-0.078,0.103,0.008,-0.109,0.043,-0.026,-0.15,-0.125,-0.112,-0.103
-0.066,-0.114,-0.048,0.091,-0.009,-0.081,0.041,0.004,-0.143,-0.116,-0.095,-0.095
-0.042,-0.126,-0.084,0.085,0.021,-0.105,0.042,-0.026,-0.142,-0.112,-0.099,-0.094
-0.048,-0.132,-0.084,0.09,0.019,-0.108,0.145,0.273,0.034,-0.042,-0.093,-0.095
0.117,0.004,-0.113,-0.06,0.115,-0.054,0.236,0.748,0.611,0.368,0.101,0.007
0.317,0.558,0.241,-0.438,0.038,0.399,-0.47,-0.616,0.469,0.905,0.769,0.591
0.241,1.214,0.974,-0.728,-0.367,1.094,-1.256,-2.041,-0.328,1.147,1.437,1.184
0.053,0.534,0.481,-0.293,-0.214,0.507,-0.798,-1.332,-0.635,0.317,0.629,0.596
-0.07,-0.236,-0.167,0.153,0.049,-0.201,-0.184,-0.491,-0.516,-0.403,-0.225,-0.102
-0.075,-0.138,-0.063,0.107,-0.006,-0.1,-0.04,-0.144,-0.184,-0.115,-0.072,-0.067
-0.062,-0.134,-0.072,0.098,0.005,-0.102,0.06,0.033,-0.068,-0.074,-0.088,-0.061
-0.036,-0.083,-0.046,0.06,0.005,-0.064,0.072,0.039,-0.07,-0.081,-0.077,-0.069
-0.046,-0.093,-0.047,0.07,0.001,-0.07,0.086,0.082,-0.038,-0.047,-0.064,-0.062
-0.081,-0.122,-0.042,0.102,-0.019,-0.082,0.085,0.084,-0.053,-0.065,-0.072,-0.062
-0.065,-0.092,-0.027,0.078,-0.019,-0.059,0.084,0.099,-0.032,-0.033,-0.043,-0.049
-0.058,-0.104,-0.046,0.081,-0.005,-0.075,0.086,0.099,-0.027,-0.037,-0.051,-0.051
-0.032,-0.085,-0.053,0.059,0.011,-0.069,0.077,0.107,0.0,-0.004,-0.026,-0.04
-0.02,-0.077,-0.057,0.049,0.019,-0.067,0.083,0.12,0.016,-0.003,-0.027,-0.035
-0.01,-0.067,-0.057,0.039,0.024,-0.061,0.076,0.13,0.046,0.029,-0.001,-0.021
0.019,-0.053,-0.073,0.017,0.046,-0.063,0.069,0.146,0.072,0.05,0.02,-0.014
0.012,-0.045,-0.057,0.017,0.035,-0.051,0.059,0.163,0.105,0.078,0.045,0.008
0.025,-0.022,-0.048,-0.001,0.037,-0.035,0.051,0.19,0.153,0.12,0.066,0.021
0.048,0.005,-0.043,-0.026,0.045,-0.018,0.044,0.223,0.209,0.175,0.103,0.052
0.055,0.006,-0.049,-0.03,0.052,-0.021,0.038,0.276,0.29,0.255,0.16,0.096
0.089,0.074,-0.015,-0.081,0.052,0.029,0.033,0.325,0.367,0.335,0.215,0.129
0.082,0.145,0.063,-0.114,0.009,0.104,0.027,0.37,0.449,0.418,0.274,0.174
0.086,0.166,0.08,-0.127,0.003,0.123,0.025,0.4,0.509,0.492,0.33,0.221
0.125,0.202,0.077,-0.163,0.024,0.139,0.022,0.399,0.527,0.524,0.363,0.253
0.14,0.232,0.092,-0.186,0.024,0.161,0.019,0.387,0.512,0.525,0.372,0.248
0.114,0.222,0.107,-0.168,0.003,0.164,0.016,0.356,0.451,0.492,0.359,0.238
0.061,0.162,0.101,-0.112,-0.02,0.131,0.013,0.294,0.34,0.376,0.288,0.2
0.038,0.11,0.071,-0.074,-0.016,0.09,0.039,0.222,0.217,0.235,0.191,0.129
-0.006,0.045,0.05,-0.02,-0.028,0.047,0.076,0.158,0.103,0.132,0.111,0.072
-0.059,-0.014,0.045,0.037,-0.052,0.015,0.088,0.101,0.009,0.049,0.051,0.026
-0.085,-0.05,0.036,0.067,-0.06,-0.007,0.09,0.059,-0.049,-0.019,0.01,-0.01
-0.092,-0.075,0.017,0.083,-0.054,-0.029,0.09,0.036,-0.086,-0.059,-0.023,-0.031
-0.084,-0.108,-0.024,0.096,-0.03,-0.066,0.09,0.025,-0.104,-0.079,-0.041,-0.04
-0.072,-0.116,-0.044,0.094,-0.014,-0.08,0.09,0.02,-0.11,-0.082,-0.045,-0.044
-0.064,-0.087,-0.023,0.076,-0.02,-0.055,0.09,0.016,-0.114,-0.079,-0.048,-0.045
-0.08,-0.098,-0.019,0.089,-0.03,-0.058,0.095,0.011,-0.121,-0.088,-0.051,-0.045
-0.075,-0.097,-0.022,0.086,-0.026,-0.059,0.095,0.006,-0.124,-0.091,-0.055,-0.045
-0.049,-0.084,-0.035,0.067,-0.007,-0.059,0.095,0.006,-0.117,-0.087,-0.054,-0.045
-0.052,-0.085,-0.033,0.069,-0.009,-0.059,0.095,0.014,-0.113,-0.085,-0.051,-0.045
-0.04,-0.068,-0.028,0.054,-0.006,-0.048,0.094,0.031,-0.106,-0.081,-0.048,-0.045
-0.05,-0.075,-0.024,0.063,-0.013,-0.049,0.095,0.041,-0.101,-0.08,-0.046,-0.045
-0.086,-0.104,-0.018,0.095,-0.034,-0.061,0.094,0.039,-0.096,-0.077,-0.042,-0.045
-0.088,-0.106,-0.018,0.097,-0.034,-0.062,0.095,0.04,-0.095,-0.072,-0.04,-0.045
-0.099,-0.105,-0.005,0.102,-0.047,-0.055,0.095,0.04,-0.094,-0.066,-0.04,-0.045
-0.091,-0.105,-0.014,0.098,-0.038,-0.059,0.094,0.04,-0.091,-0.064,-0.04,-0.046
-0.11,-0.106,0.004,0.108,-0.056,-0.051,0.109,0.037,-0.088,-0.056,-0.04,-0.05
-0.105,-0.1,0.005,0.103,-0.054,-0.048,0.111,0.029,-0.097,-0.061,-0.039,-0.05
-0.08,-0.091,-0.011,0.085,-0.034,-0.051,0.101,0.021,-0.116,-0.087,-0.041,-0.05
-0.05,-0.075,-0.025,0.062,-0.012,-0.049,0.096,0.013,-0.114,-0.087,-0.038,-0.049
-0.037,-0.081,-0.044,0.059,0.004,-0.062,0.087,0.006,-0.121,-0.095,-0.044,-0.056
-0.106,-0.119,-0.012,0.113,-0.047,-0.065,0.081,-0.001,-0.132,-0.115,-0.06,-0.061
-0.082,-0.115,-0.033,0.099,-0.024,-0.074,0.092,-0.009,-0.128,-0.115,-0.06,-0.06
-0.053,-0.108,-0.055,0.08,0.001,-0.081,0.094,-0.016,-0.132,-0.115,-0.059,-0.059
-0.059,-0.104,-0.045,0.082,-0.007,-0.074,0.086,-0.023,-0.128,-0.115,-0.06,-0.055
-0.05,-0.096,-0.046,0.073,-0.001,-0.071,0.085,-0.025,-0.137,-0.115,-0.06,-0.054
-0.056,-0.097,-0.041,0.077,-0.008,-0.069,0.078,-0.028,-0.15,-0.116,-0.061,-0.059
-0.062,-0.102,-0.04,0.082,-0.011,-0.071,0.076,-0.031,-0.15,-0.129,-0.074,-0.062
-0.077,-0.114,-0.037,0.096,-0.02,-0.075,0.08,-0.034,-0.154,-0.136,-0.081,-0.06
-0.079,-0.111,-0.032,0.095,-0.024,-0.071,0.079,-0.036,-0.154,-0.13,-0.08,-0.06
-0.081,-0.109,-0.028,0.095,-0.027,-0.068,0.074,-0.034,-0.158,-0.128,-0.078,-0.057
-0.06,-0.111,-0.051,0.086,-0.005,-0.081,0.073,-0.04,-0.158,-0.124,-0.074,-0.054
-0.054,-0.109,-0.055,0.082,0.0,-0.082,0.066,-0.048,-0.169,-0.119,-0.076,-0.055
-0.061,-0.108,-0.047,0.084,-0.006,-0.077,0.065,-0.042,-0.18,-0.125,-0.074,-0.049
-0.054,-0.102,-0.048,0.079,-0.003,-0.075,0.096,-0.037,-0.17,-0.139,-0.081,-0.057
-0.06,-0.1,-0.039,0.08,-0.011,-0.069,0.108,-0.034,-0.164,-0.139,-0.089,-0.073
-0.055,-0.096,-0.041,0.075,-0.006,-0.068,0.105,-0.027,-0.157,-0.132,-0.08,-0.067
-0.06,-0.09,-0.031,0.075,-0.014,-0.06,0.111,-0.027,-0.15,-0.126,-0.075,-0.066
-0.047,-0.089,-0.042,0.068,-0.002,-0.065,0.109,-0.012,-0.14,-0.122,-0.064,-0.059
-0.018,-0.046,-0.027,0.032,0.005,-0.036,0.101,-0.003,-0.134,-0.113,-0.035,-0.03
-0.041,-0.029,0.013,0.035,-0.027,-0.008,0.088,0.022,-0.136,-0.103,-0.035,-0.034
-0.034,-0.032,0.001,0.033,-0.017,-0.015,0.077,0.02,-0.133,-0.104,-0.061,-0.042
-0.019,-0.029,-0.01,0.024,-0.004,-0.02,0.074,-0.033,-0.137,-0.107,-0.067,-0.039
-0.01,-0.067,-0.058,0.039,0.024,-0.062,0.075,-0.043,-0.133,-0.102,-0.062,-0.041
0.012,-0.068,-0.079,0.028,0.046,-0.073,0.074,-0.05,-0.141,-0.115,-0.068,-0.039
-0.045,-0.093,-0.047,0.069,0.001,-0.07,0.076,-0.044,-0.156,-0.127,-0.069,-0.049
-0.098,-0.135,-0.037,0.117,-0.03,-0.085,0.074,-0.058,-0.168,-0.144,-0.08,-0.064
-0.068,-0.101,-0.033,0.085,-0.018,-0.067,0.081,-0.038,-0.164,-0.133,-0.071,-0.052
-0.062,-0.107,-0.045,0.085,-0.008,-0.076,0.08,-0.051,-0.163,-0.128,-0.073,-0.055
-0.108,-0.088,0.02,0.098,-0.064,-0.033,0.089,-0.028,-0.169,-0.133,-0.071,-0.048
-0.06,-0.086,-0.026,0.073,-0.017,-0.056,0.083,-0.047,-0.145,-0.098,-0.063,-0.042
-0.04,-0.09,-0.051,0.065,0.006,-0.07,0.119,0.098,-0.054,-0.085,-0.059,-0.061
0.056,-0.008,-0.065,-0.024,0.061,-0.036,0.266,0.726,0.474,0.235,0.064,-0.007
0.301,0.415,0.114,-0.358,0.094,0.264,-0.244,-0.211,0.61,0.775,0.576,0.444
0.301,1.222,0.921,-0.762,-0.31,1.071,-1.19,-1.981,-0.109,1.203,1.435,1.204
0.094,0.851,0.757,-0.473,-0.332,0.804,-0.993,-1.678,-0.564,0.643,0.992,0.902
-0.059,-0.116,-0.056,0.087,-0.001,-0.086,-0.274,-0.696,-0.56,-0.325,-0.107,0.025
-0.03,-0.113,-0.083,0.072,0.026,-0.098,-0.054,-0.253,-0.25,-0.19,-0.095,-0.055
-0.026,-0.041,-0.015,0.033,-0.005,-0.027,0.061,-0.021,-0.051,-0.043,-0.036,-0.011
-0.062,-0.075,-0.013,0.068,-0.024,-0.044,0.088,0.011,-0.057,-0.097,-0.071,-0.04
-0.014,-0.06,-0.046,0.037,0.016,-0.053,0.097,0.057,-0.012,-0.038,-0.032,-0.02
-0.02,-0.078,-0.059,0.049,0.02,-0.068,0.115,0.065,-0.026,-0.068,-0.062,-0.033
-0.024,-0.057,-0.033,0.041,0.005,-0.045,0.102,0.074,-0.009,-0.025,-0.032,-0.015
-0.025,-0.069,-0.044,0.047,0.01,-0.056,0.107,0.087,-0.007,-0.03,-0.05,-0.022
-0.033,-0.056,-0.022,0.045,-0.005,-0.039,0.097,0.095,0.006,-0.011,-0.029,-0.011
-0.032,-0.062,-0.03,0.047,-0.001,-0.046,0.097,0.106,0.029,-0.004,-0.032,-0.01
-0.035,-0.06,-0.025,0.048,-0.005,-0.042,0.092,0.121,0.043,0.019,-0.022,0.003
-0.029,-0.052,-0.023,0.04,-0.003,-0.037,0.088,0.136,0.074,0.046,0.0,0.013
-0.025,-0.044,-0.02,0.034,-0.002,-0.032,0.085,0.153,0.105,0.075,0.021,0.02
-0.016,-0.03,-0.014,0.023,0.0,-0.022,0.081,0.188,0.145,0.112,0.047,0.04
-0.002,-0.015,-0.014,0.009,0.006,-0.014,0.077,0.219,0.202,0.157,0.072,0.058
0.023,0.02,-0.003,-0.022,0.013,0.008,0.075,0.266,0.281,0.232,0.129,0.099
0.076,0.08,0.004,-0.078,0.035,0.042,0.055,0.312,0.358,0.302,0.174,0.131
0.112,0.147,0.035,-0.13,0.039,0.091,0.032,0.366,0.443,0.389,0.226,0.168
0.114,0.193,0.079,-0.153,0.017,0.136,0.036,0.408,0.507,0.465,0.288,0.217
0.128,0.217,0.09,-0.173,0.019,0.153,0.035,0.422,0.549,0.51,0.327,0.25
0.139,0.233,0.095,-0.186,0.022,0.164,0.035,0.404,0.556,0.526,0.349,0.265
0.123,0.234,0.111,-0.179,0.006,0.172,0.036,0.371,0.515,0.502,0.335,0.256
0.108,0.196,0.087,-0.153,0.01,0.141,0.034,0.326,0.419,0.418,0.275,0.229
0.065,0.141,0.076,-0.103,-0.006,0.109,0.055,0.256,0.29,0.291,0.187,0.165
0.006,0.07,0.064,-0.038,-0.029,0.067,0.08,0.189,0.183,0.175,0.098,0.098
-0.011,0.008,0.019,0.001,-0.015,0.013,0.098,0.129,0.084,0.072,0.018,0.036
-0.021,-0.004,0.016,0.012,-0.018,0.006,0.107,0.08,0.02,0.006,-0.028,-0.013
-0.04,-0.048,-0.009,0.044,-0.015,-0.028,0.104,0.056,-0.02,-0.04,-0.06,-0.025
-0.045,-0.101,-0.056,0.074,0.006,-0.078,0.103,0.048,-0.061,-0.083,-0.102,-0.045
-0.047,-0.128,-0.08,0.088,0.016,-0.104,0.099,0.037,-0.08,-0.098,-0.112,-0.069
-0.059,-0.13,-0.07,0.095,0.006,-0.1,0.101,0.03,-0.077,-0.11,-0.119,-0.071
-0.064,-0.118,-0.054,0.092,-0.005,-0.085,0.103,0.03,-0.07,-0.112,-0.127,-0.069
-0.072,-0.125,-0.054,0.099,-0.009,-0.089,0.108,0.03,-0.069,-0.106,-0.124,-0.071
-0.084,-0.109,-0.026,0.097,-0.029,-0.067,0.109,0.03,-0.06,-0.104,-0.126,-0.068
-0.062,-0.118,-0.057,0.09,-0.002,-0.087,0.101,0.029,-0.066,-0.099,-0.124,-0.076
-0.056,-0.135,-0.079,0.095,0.012,-0.106,0.121,0.047,-0.069,-0.095,-0.125,-0.086
-0.053,-0.122,-0.069,0.088,0.008,-0.096,0.133,0.064,-0.048,-0.097,-0.127,-0.082
-0.017,-0.114,-0.097,0.065,0.04,-0.105,0.129,0.072,-0.044,-0.1,-0.13,-0.078
-0.035,-0.121,-0.086,0.078,0.026,-0.103,0.131,0.078,-0.04,-0.1,-0.133,-0.076
-0.037,-0.118,-0.081,0.078,0.022,-0.1,0.13,0.07,-0.037,-0.104,-0.136,-0.069
-0.021,-0.099,-0.077,0.06,0.028,-0.088,0.129,0.064,-0.032,-0.105,-0.139,-0.077
-0.037,-0.107,-0.07,0.072,0.016,-0.088,0.126,0.057,-0.03,-0.105,-0.141,-0.091
-0.042,-0.113,-0.071,0.078,0.014,-0.092,0.123,0.05,-0.037,-0.099,-0.145,-0.089
-0.047,-0.108,-0.061,0.078,0.007,-0.084,0.121,0.045,-0.04,-0.106,-0.153,-0.094
-0.026,-0.106,-0.081,0.066,0.028,-0.093,0.117,0.039,-0.052,-0.123,-0.157,-0.094
-0.029,-0.125,-0.097,0.077,0.034,-0.111,0.115,0.033,-0.055,-0.132,-0.164,-0.1
-0.044,-0.131,-0.087,0.088,0.022,-0.109,0.115,0.026,-0.071,-0.142,-0.173,-0.107
-0.031,-0.116,-0.085,0.074,0.027,-0.1,0.115,0.019,-0.082,-0.149,-0.179,-0.105
-0.027,-0.107,-0.08,0.067,0.027,-0.094,0.115,0.012,-0.074,-0.151,-0.182,-0.101
-0.044,-0.117,-0.074,0.081,0.015,-0.095,0.115,0.009,-0.074,-0.148,-0.183,-0.099
-0.039,-0.13,-0.091,0.085,0.026,-0.11,0.115,0.005,-0.068,-0.16,-0.197,-0.119
-0.025,-0.127,-0.102,0.076,0.039,-0.114,0.114,0.002,-0.065,-0.172,-0.211,-0.127
-0.046,-0.141,-0.095,0.094,0.024,-0.117,0.11,-0.003,-0.075,-0.169,-0.212,-0.124
-0.046,-0.139,-0.093,0.093,0.024,-0.116,0.11,-0.005,-0.082,-0.17,-0.215,-0.124
-0.045,-0.134,-0.088,0.09,0.022,-0.111,0.11,0.001,-0.077,-0.169,-0.219,-0.12
-0.05,-0.134,-0.085,0.092,0.018,-0.109,0.11,-0.002,-0.081,-0.177,-0.22,-0.118
-0.039,-0.128,-0.089,0.083,0.025,-0.108,0.11,0.01,-0.091,-0.189,-0.219,-0.13
-0.042,-0.134,-0.091,0.088,0.025,-0.112,0.112,0.022,-0.09,-0.19,-0.226,-0.141
-0.04,-0.135,-0.095,0.088,0.028,-0.115,0.116,0.019,-0.094,-0.19,-0.231,-0.139
-0.035,-0.134,-0.099,0.085,0.032,-0.116,0.115,0.019,-0.1,-0.191,-0.23,-0.14
-0.039,-0.138,-0.099,0.088,0.031,-0.118,0.115,0.015,-0.1,-0.189,-0.229,-0.14
-0.028,-0.123,-0.096,0.076,0.034,-0.109,0.115,0.016,-0.1,-0.198,-0.237,-0.14
-0.047,-0.139,-0.092,0.093,0.023,-0.115,0.114,0.013,-0.1,-0.204,-0.245,-0.136
-0.053,-0.143,-0.091,0.098,0.019,-0.117,0.111,0.01,-0.099,-0.195,-0.236,-0.129
-0.037,-0.122,-0.085,0.08,0.024,-0.103,0.108,0.01,-0.102,-0.19,-0.232,-0.122
-0.036,-0.123,-0.087,0.08,0.026,-0.105,0.121,0.01,-0.088,-0.182,-0.226,-0.116
-0.024,-0.114,-0.09,0.07,0.033,-0.101,0.122,0.037,-0.065,-0.179,-0.221,-0.109
0.011,-0.09,-0.101,0.04,0.056,-0.095,0.105,0.066,-0.065,-0.181,-0.22,-0.106
0.026,-0.086,-0.112,0.03,0.069,-0.098,0.103,0.042,-0.068,-0.178,-0.219,-0.11
-0.004,-0.085,-0.082,0.045,0.04,-0.083,0.106,0.013,-0.073,-0.183,-0.222,-0.11
0.022,-0.077,-0.1,0.027,0.061,-0.088,0.104,0.008,-0.072,-0.175,-0.216,-0.109
0.017,-0.125,-0.142,0.054,0.08,-0.133,0.106,-0.002,-0.086,-0.191,-0.23,-0.117
-0.024,-0.158,-0.134,0.092,0.055,-0.146,0.104,0.001,-0.095,-0.202,-0.252,-0.136
-0.037,-0.156,-0.12,0.097,0.042,-0.138,0.106,-0.017,-0.093,-0.208,-0.26,-0.148
-0.04,-0.15,-0.111,0.095,0.036,-0.13,0.111,-0.007,-0.088,-0.196,-0.249,-0.142
-0.024,-0.162,-0.138,0.093,0.058,-0.15,0.108,-0.019,-0.085,-0.2,-0.261,-0.148
-0.045,-0.148,-0.103,0.097,0.029,-0.125,0.12,0.009,-0.08,-0.195,-0.25,-0.142
-0.043,-0.154,-0.112,0.099,0.035,-0.132,0.103,-0.021,-0.085,-0.186,-0.256,-0.145
-0.016,-0.135,-0.119,0.076,0.052,-0.126,0.175,0.222,0.079,-0.126,-0.238,-0.155
0.134,-0.035,-0.169,-0.049,0.152,-0.102,0.284,0.775,0.675,0.272,-0.057,-0.071
0.307,0.494,0.187,-0.401,0.06,0.34,-0.32,-0.399,0.541,0.793,0.566,0.48
0.215,1.165,0.951,-0.69,-0.368,1.058,-1.092,-1.902,-0.372,1.002,1.243,1.071
0.017,0.532,0.515,-0.274,-0.249,0.523,-0.711,-1.306,-0.661,0.213,0.484,0.517
-0.094,-0.246,-0.152,0.17,0.029,-0.199,-0.123,-0.504,-0.49,-0.507,-0.408,-0.19
-0.054,-0.152,-0.098,0.103,0.022,-0.124,-0.015,-0.179,-0.165,-0.241,-0.273,-0.176
-0.011,-0.133,-0.123,0.072,0.056,-0.128,0.09,0.015,-0.003,-0.166,-0.271,-0.153
-0.031,-0.119,-0.088,0.076,0.028,-0.103,0.108,0.033,-0.01,-0.168,-0.267,-0.142
-0.04,-0.117,-0.077,0.079,0.018,-0.097,0.121,0.093,0.051,-0.133,-0.247,-0.135
-0.039,-0.125,-0.086,0.082,0.024,-0.105,0.121,0.084,0.047,-0.153,-0.26,-0.137
-0.005,-0.114,-0.109,0.06,0.052,-0.111,0.107,0.102,0.05,-0.111,-0.237,-0.124
-0.021,-0.12,-0.099,0.071,0.039,-0.11,0.107,0.104,0.058,-0.118,-0.25,-0.129
-0.028,-0.095,-0.067,0.062,0.02,-0.081,0.092,0.125,0.084,-0.095,-0.228,-0.115
-0.015,-0.095,-0.08,0.055,0.033,-0.087,0.092,0.14,0.095,-0.091,-0.231,-0.111
-0.006,-0.08,-0.074,0.043,0.035,-0.077,0.082,0.134,0.099,-0.067,-0.219,-0.099
0.008,-0.09,-0.098,0.041,0.054,-0.094,0.08,0.145,0.132,-0.04,-0.201,-0.092
0.022,-0.064,-0.086,0.022,0.054,-0.075,0.074,0.158,0.163,-0.002,-0.17,-0.084
0.043,-0.032,-0.076,-0.005,0.06,-0.054,0.07,0.189,0.205,0.043,-0.139,-0.057
0.05,-0.024,-0.075,-0.013,0.063,-0.049,0.066,0.219,0.271,0.086,-0.1,-0.027
0.092,0.028,-0.064,-0.059,0.078,-0.018,0.058,0.26,0.342,0.159,-0.052,-0.009
0.111,0.051,-0.06,-0.081,0.085,-0.004,0.047,0.311,0.424,0.254,0.002,0.035
0.135,0.097,-0.038,-0.115,0.086,0.029,0.034,0.366,0.511,0.345,0.071,0.086
0.174,0.15,-0.024,-0.162,0.099,0.062,0.031,0.391,0.574,0.418,0.126,0.123
0.168,0.165,-0.003,-0.167,0.085,0.081,0.03,0.387,0.593,0.457,0.154,0.15
0.149,0.199,0.049,-0.174,0.05,0.124,0.026,0.383,0.575,0.45,0.169,0.169
0.145,0.179,0.034,-0.162,0.055,0.106,0.024,0.366,0.538,0.419,0.155,0.163
0.116,0.137,0.022,-0.127,0.047,0.079,0.026,0.318,0.442,0.32,0.088,0.11
0.081,0.104,0.022,-0.093,0.029,0.063,0.053,0.262,0.321,0.179,-0.002,0.053
0.056,0.052,-0.004,-0.054,0.03,0.024,0.084,0.203,0.201,0.048,-0.099,-0.002
0.017,0.003,-0.014,-0.009,0.015,-0.005,0.095,0.145,0.105,-0.057,-0.174,-0.058
0.002,-0.041,-0.043,0.019,0.023,-0.042,0.103,0.101,0.052,-0.124,-0.221,-0.099
-0.028,-0.077,-0.05,0.053,0.011,-0.063,0.105,0.078,0.01,-0.166,-0.261,-0.121
-0.022,-0.092,-0.07,0.057,0.024,-0.08,0.105,0.062,-0.009,-0.184,-0.277,-0.13
-0.004,-0.09,-0.086,0.047,0.041,-0.088,0.105,0.054,-0.026,-0.198,-0.289,-0.139
-0.007,-0.088,-0.081,0.047,0.037,-0.084,0.105,0.055,-0.04,-0.207,-0.298,-0.146
-0.032,-0.103,-0.071,0.067,0.02,-0.087,0.105,0.055,-0.035,-0.201,-0.291,-0.154
-0.058,-0.117,-0.058,0.088,0.0,-0.087,0.106,0.055,-0.03,-0.196,-0.286,-0.154
-0.016,-0.11,-0.094,0.063,0.039,-0.102,0.112,0.055,-0.024,-0.193,-0.281,-0.15
-0.01,-0.106,-0.096,0.058,0.043,-0.101,0.119,0.072,-0.019,-0.187,-0.275,-0.148
-0.021,-0.1,-0.079,0.061,0.03,-0.09,0.116,0.08,-0.014,-0.184,-0.27,-0.144
-0.018,-0.095,-0.077,0.056,0.03,-0.086,0.115,0.088,-0.008,-0.179,-0.265,-0.142
-0.016,-0.09,-0.074,0.054,0.029,-0.081,0.115,0.101,-0.003,-0.176,-0.265,-0.14
-0.008,-0.083,-0.075,0.046,0.034,-0.079,0.115,0.093,0.003,-0.173,-0.264,-0.137
-0.011,-0.08,-0.069,0.046,0.029,-0.075,0.115,0.089,0.008,-0.168,-0.26,-0.135
-0.01,-0.08,-0.071,0.045,0.03,-0.076,0.116,0.083,0.014,-0.166,-0.26,-0.135
-0.012,-0.079,-0.068,0.046,0.028,-0.073,0.12,0.077,0.009,-0.159,-0.262,-0.135
-0.017,-0.082,-0.064,0.05,0.023,-0.072,0.12,0.073,-0.003,-0.174,-0.265,-0.135
-0.015,-0.077,-0.062,0.046,0.024,-0.07,0.122,0.066,-0.014,-0.194,-0.268,-0.136
-0.035,-0.093,-0.058,0.064,0.012,-0.075,0.126,0.062,-0.026,-0.195,-0.271,-0.14
-0.054,-0.111,-0.057,0.083,0.001,-0.084,0.125,0.055,-0.032,-0.2,-0.274,-0.142
-0.041,-0.093,-0.053,0.067,0.006,-0.073,0.122,0.05,-0.039,-0.203,-0.278,-0.145
-0.024,-0.084,-0.059,0.054,0.017,-0.071,0.117,0.045,-0.044,-0.209,-0.28,-0.148
-0.003,-0.077,-0.074,0.04,0.036,-0.075,0.115,0.04,-0.046,-0.212,-0.28,-0.15
-0.003,-0.074,-0.072,0.039,0.035,-0.073,0.11,0.04,-0.05,-0.216,-0.284,-0.153
-0.002,-0.067,-0.066,0.035,0.032,-0.066,0.107,0.039,-0.05,-0.22,-0.285,-0.156
-0.006,-0.068,-0.062,0.037,0.029,-0.065,0.103,0.035,-0.05,-0.219,-0.285,-0.159
-0.046,-0.102,-0.056,0.074,0.005,-0.079,0.1,0.035,-0.05,-0.222,-0.28,-0.161
-0.047,-0.102,-0.054,0.075,0.004,-0.078,0.1,0.037,-0.062,-0.225,-0.28,-0.165
-0.045,-0.092,-0.047,0.069,0.001,-0.069,0.098,0.04,-0.067,-0.225,-0.28,-0.164
-0.031,-0.091,-0.06,0.062,0.015,-0.075,0.095,0.043,-0.06,-0.222,-0.279,-0.16
-0.007,-0.08,-0.073,0.044,0.033,-0.076,0.094,0.046,-0.061,-0.219,-0.282,-0.158
-0.019,-0.082,-0.063,0.051,0.022,-0.072,0.11,0.049,-0.053,-0.216,-0.275,-0.155
-0.021,-0.073,-0.052,0.047,0.016,-0.062,0.116,0.051,-0.059,-0.213,-0.274,-0.151
-0.042,-0.09,-0.048,0.066,0.003,-0.069,0.115,0.055,-0.066,-0.211,-0.263,-0.149
-0.009,-0.077,-0.067,0.043,0.029,-0.072,0.114,0.06,-0.066,-0.208,-0.265,-0.15
-0.021,-0.084,-0.062,0.053,0.021,-0.073,0.116,0.063,-0.049,-0.196,-0.25,-0.15
-0.002,-0.048,-0.046,0.025,0.023,-0.047,0.12,0.069,-0.053,-0.181,-0.254,-0.15
0.013,-0.022,-0.035,0.005,0.024,-0.028,0.093,0.082,-0.011,-0.17,-0.236,-0.15
