-0.125,-0.095,0.03,0.11,-0.077,-0.032,0.045,-0.019,-0.3,-0.23,-0.175,-0.13
-0.125,-0.095,0.03,0.11,-0.077,-0.032,0.045,-0.02,-0.3,-0.231,-0.177,-0.13
-0.125,-0.095,0.03,0.11,-0.077,-0.032,0.045,-0.035,-0.299,-0.235,-0.182,-0.13
-0.124,-0.094,0.03,0.109,-0.076,-0.032,0.041,-0.048,-0.3,-0.24,-0.185,-0.13
-0.127,-0.097,0.03,0.112,-0.078,-0.033,0.04,-0.057,-0.305,-0.247,-0.19,-0.13
-0.139,-0.109,0.03,0.124,-0.084,-0.04,0.04,-0.068,-0.314,-0.253,-0.19,-0.13
-0.136,-0.111,0.025,0.123,-0.081,-0.042,0.04,-0.07,-0.33,-0.255,-0.191,-0.134
-0.134,-0.109,0.025,0.121,-0.08,-0.041,0.04,-0.073,-0.329,-0.258,-0.195,-0.135
-0.13,-0.106,0.024,0.117,-0.076,-0.041,0.04,-0.076,-0.325,-0.261,-0.195,-0.135
-0.124,-0.104,0.02,0.114,-0.071,-0.042,0.04,-0.079,-0.324,-0.264,-0.195,-0.135
-0.125,-0.105,0.02,0.115,-0.072,-0.042,0.041,-0.083,-0.32,-0.265,-0.195,-0.134
-0.119,-0.097,0.022,0.108,-0.071,-0.038,0.037,-0.086,-0.319,-0.265,-0.195,-0.138
-0.123,-0.096,0.027,0.109,-0.074,-0.034,0.035,-0.089,-0.312,-0.265,-0.195,-0.14
-0.118,-0.088,0.03,0.103,-0.074,-0.029,0.035,-0.093,-0.306,-0.265,-0.195,-0.14
-0.125,-0.095,0.03,0.11,-0.077,-0.032,0.031,-0.095,-0.299,-0.265,-0.195,-0.143
-0.15,-0.12,0.03,0.135,-0.09,-0.045,0.03,-0.09,-0.292,-0.264,-0.195,-0.145
-0.148,-0.118,0.03,0.133,-0.089,-0.044,0.03,-0.09,-0.286,-0.267,-0.195,-0.144
-0.143,-0.113,0.03,0.128,-0.086,-0.041,0.035,-0.09,-0.281,-0.27,-0.195,-0.14
-0.142,-0.112,0.031,0.127,-0.086,-0.04,0.034,-0.09,-0.28,-0.27,-0.195,-0.14
-0.133,-0.105,0.027,0.119,-0.08,-0.039,0.041,-0.091,-0.28,-0.27,-0.195,-0.139
-0.129,-0.104,0.025,0.116,-0.076,-0.04,0.051,-0.087,-0.28,-0.27,-0.193,-0.135
-0.124,-0.099,0.025,0.111,-0.075,-0.037,0.049,-0.085,-0.28,-0.27,-0.189,-0.135
-0.122,-0.1,0.022,0.111,-0.072,-0.039,0.053,-0.081,-0.279,-0.264,-0.19,-0.133
-0.119,-0.1,0.019,0.11,-0.069,-0.041,0.055,-0.08,-0.271,-0.257,-0.19,-0.127
-0.121,-0.099,0.023,0.11,-0.072,-0.038,0.056,-0.075,-0.264,-0.251,-0.19,-0.122
-0.151,-0.106,0.045,0.129,-0.098,-0.03,0.05,-0.075,-0.258,-0.244,-0.19,-0.119
-0.135,-0.079,0.056,0.107,-0.095,-0.011,0.056,-0.064,-0.244,-0.237,-0.178,-0.114
-0.092,-0.043,0.049,0.067,-0.07,0.003,0.072,-0.038,-0.216,-0.229,-0.158,-0.11
-0.105,-0.038,0.067,0.071,-0.086,0.014,0.09,-0.015,-0.184,-0.205,-0.143,-0.105
-0.111,-0.041,0.07,0.076,-0.091,0.015,0.095,0.012,-0.159,-0.182,-0.14,-0.1
-0.069,-0.037,0.031,0.053,-0.05,-0.003,0.041,-0.017,-0.162,-0.186,-0.14,-0.095
-0.032,-0.048,-0.016,0.04,-0.007,-0.032,0.003,-0.047,-0.193,-0.198,-0.14,-0.091
-0.05,-0.066,-0.016,0.058,-0.017,-0.041,0.016,-0.057,-0.206,-0.217,-0.14,-0.086
-0.082,-0.069,0.014,0.075,-0.047,-0.027,0.021,-0.087,-0.229,-0.235,-0.142,-0.087
-0.103,-0.086,0.017,0.094,-0.06,-0.034,0.033,-0.089,-0.257,-0.252,-0.175,-0.114
-0.131,-0.113,0.018,0.122,-0.074,-0.047,0.044,-0.109,-0.272,-0.274,-0.203,-0.134
-0.136,-0.114,0.022,0.125,-0.079,-0.045,0.046,-0.103,-0.269,-0.275,-0.197,-0.134
-0.15,-0.116,0.033,0.133,-0.091,-0.041,0.045,-0.114,-0.27,-0.282,-0.203,-0.14
-0.158,-0.114,0.044,0.136,-0.101,-0.035,0.045,-0.119,-0.268,-0.282,-0.197,-0.141
-0.158,-0.125,0.033,0.141,-0.095,-0.046,0.046,-0.105,-0.26,-0.286,-0.202,-0.146
-0.161,-0.127,0.034,0.144,-0.097,-0.046,0.044,-0.123,-0.273,-0.292,-0.197,-0.14
-0.147,-0.116,0.031,0.132,-0.089,-0.042,0.053,-0.087,-0.247,-0.285,-0.192,-0.139
-0.146,-0.116,0.029,0.131,-0.087,-0.044,0.046,-0.131,-0.271,-0.292,-0.199,-0.141
-0.149,-0.094,0.055,0.121,-0.101,-0.019,0.056,-0.069,-0.226,-0.259,-0.18,-0.138
-0.146,-0.108,0.038,0.127,-0.092,-0.035,0.041,-0.16,-0.271,-0.278,-0.204,-0.135
-0.149,-0.046,0.103,0.097,-0.125,0.028,0.073,0.066,-0.124,-0.167,-0.119,-0.086
0.006,0.008,0.002,-0.007,0.002,0.005,-0.01,0.046,0.171,0.19,0.165,0.083
0.572,0.339,-0.233,-0.455,0.402,0.053,-0.792,-1.513,-0.168,0.879,1.054,0.835
1.252,0.53,-0.722,-0.891,0.987,-0.096,-1.614,-2.316,-0.682,0.895,1.387,1.344
1.135,-0.052,-1.187,-0.541,1.161,-0.619,-1.302,-1.671,-1.051,-0.302,0.221,0.622
0.313,-0.242,-0.556,-0.035,0.435,-0.399,-0.428,-0.818,-0.779,-0.636,-0.337,-0.009
-0.058,-0.077,-0.02,0.068,-0.019,-0.048,-0.043,-0.178,-0.193,-0.244,-0.157,-0.072
-0.026,-0.085,-0.059,0.056,0.016,-0.072,0.005,-0.007,-0.086,-0.196,-0.156,-0.094
-0.066,-0.048,0.017,0.057,-0.042,-0.015,0.051,0.08,-0.033,-0.154,-0.127,-0.081
-0.072,-0.065,0.007,0.068,-0.039,-0.029,0.069,0.119,-0.011,-0.159,-0.16,-0.094
-0.069,-0.052,0.017,0.06,-0.042,-0.017,0.077,0.147,-0.003,-0.131,-0.139,-0.084
-0.064,-0.052,0.012,0.058,-0.038,-0.02,0.074,0.179,0.031,-0.122,-0.129,-0.081
-0.079,-0.052,0.027,0.065,-0.053,-0.012,0.072,0.194,0.047,-0.106,-0.123,-0.078
-0.073,-0.043,0.031,0.058,-0.052,-0.006,0.07,0.218,0.074,-0.088,-0.104,-0.069
-0.055,-0.039,0.017,0.047,-0.036,-0.011,0.07,0.234,0.098,-0.087,-0.097,-0.062
-0.047,-0.025,0.022,0.035,-0.034,-0.001,0.081,0.272,0.132,-0.057,-0.076,-0.045
-0.03,-0.021,0.009,0.025,-0.019,-0.006,0.079,0.306,0.163,-0.032,-0.058,-0.037
-0.013,-0.002,0.011,0.007,-0.012,0.004,0.07,0.35,0.202,-0.002,-0.03,-0.02
0.012,0.013,0.001,-0.013,0.005,0.007,0.064,0.402,0.246,0.033,-0.02,-0.005
0.031,0.028,-0.003,-0.029,0.017,0.012,0.056,0.464,0.3,0.075,-0.002,0.013
0.063,0.051,-0.012,-0.057,0.038,0.019,0.049,0.532,0.356,0.112,0.027,0.035
0.098,0.068,-0.029,-0.083,0.063,0.019,0.041,0.609,0.427,0.163,0.066,0.065
0.137,0.091,-0.046,-0.114,0.092,0.022,0.024,0.693,0.503,0.225,0.112,0.109
0.184,0.12,-0.064,-0.152,0.124,0.028,0.008,0.769,0.581,0.288,0.161,0.148
0.242,0.155,-0.087,-0.199,0.165,0.034,-0.011,0.829,0.646,0.346,0.218,0.194
0.297,0.194,-0.103,-0.245,0.2,0.045,-0.05,0.854,0.69,0.398,0.265,0.241
0.342,0.233,-0.109,-0.287,0.226,0.062,-0.074,0.849,0.711,0.44,0.315,0.291
0.36,0.246,-0.114,-0.302,0.237,0.065,-0.088,0.82,0.694,0.458,0.354,0.328
0.342,0.231,-0.111,-0.286,0.226,0.059,-0.115,0.747,0.649,0.438,0.354,0.317
0.323,0.219,-0.104,-0.271,0.213,0.057,-0.121,0.636,0.558,0.382,0.323,0.304
0.273,0.194,-0.079,-0.233,0.176,0.057,-0.101,0.505,0.435,0.308,0.266,0.277
0.201,0.154,-0.047,-0.177,0.124,0.053,-0.07,0.367,0.309,0.203,0.184,0.209
0.107,0.092,-0.016,-0.099,0.061,0.038,-0.04,0.244,0.179,0.099,0.094,0.135
0.018,0.034,0.016,-0.026,0.001,0.024,-0.01,0.144,0.08,0.011,0.022,0.072
-0.029,-0.004,0.026,0.016,-0.027,0.01,0.017,0.07,0.0,-0.064,-0.035,0.02
-0.07,-0.043,0.027,0.056,-0.048,-0.008,0.027,0.023,-0.07,-0.116,-0.083,-0.028
-0.102,-0.065,0.037,0.083,-0.069,-0.014,0.038,-0.011,-0.104,-0.153,-0.112,-0.052
-0.115,-0.075,0.04,0.095,-0.077,-0.017,0.045,-0.038,-0.134,-0.172,-0.131,-0.067
-0.121,-0.081,0.04,0.101,-0.08,-0.02,0.045,-0.05,-0.152,-0.188,-0.139,-0.081
-0.124,-0.084,0.04,0.104,-0.081,-0.022,0.045,-0.06,-0.162,-0.194,-0.145,-0.08
-0.134,-0.094,0.04,0.114,-0.087,-0.026,0.045,-0.066,-0.176,-0.203,-0.153,-0.084
-0.135,-0.095,0.04,0.115,-0.087,-0.027,0.045,-0.061,-0.169,-0.208,-0.155,-0.085
-0.131,-0.09,0.04,0.11,-0.086,-0.025,0.045,-0.06,-0.163,-0.204,-0.158,-0.088
-0.132,-0.088,0.044,0.11,-0.088,-0.022,0.045,-0.061,-0.156,-0.206,-0.161,-0.091
-0.128,-0.083,0.045,0.105,-0.086,-0.019,0.045,-0.06,-0.149,-0.204,-0.164,-0.089
-0.125,-0.08,0.045,0.102,-0.085,-0.017,0.045,-0.061,-0.143,-0.206,-0.165,-0.092
-0.122,-0.076,0.046,0.099,-0.083,-0.015,0.045,-0.059,-0.141,-0.204,-0.16,-0.096
-0.119,-0.075,0.044,0.096,-0.081,-0.015,0.045,-0.055,-0.15,-0.201,-0.16,-0.101
-0.123,-0.075,0.048,0.099,-0.085,-0.013,0.044,-0.053,-0.154,-0.2,-0.159,-0.104
-0.125,-0.075,0.05,0.1,-0.087,-0.012,0.048,-0.05,-0.155,-0.2,-0.155,-0.102
-0.126,-0.075,0.051,0.1,-0.088,-0.012,0.054,-0.047,-0.155,-0.2,-0.155,-0.099
-0.132,-0.076,0.056,0.103,-0.094,-0.01,0.057,-0.044,-0.155,-0.2,-0.157,-0.096
-0.139,-0.085,0.054,0.112,-0.096,-0.016,0.059,-0.049,-0.155,-0.201,-0.163,-0.093
-0.136,-0.09,0.046,0.113,-0.091,-0.022,0.063,-0.056,-0.154,-0.198,-0.166,-0.09
-0.113,-0.09,0.023,0.101,-0.068,-0.033,0.065,-0.061,-0.16,-0.206,-0.17,-0.091
-0.118,-0.09,0.028,0.104,-0.073,-0.031,0.065,-0.066,-0.165,-0.22,-0.175,-0.095
-0.159,-0.09,0.069,0.124,-0.114,-0.01,0.065,-0.063,-0.165,-0.22,-0.175,-0.097
-0.157,-0.09,0.067,0.123,-0.112,-0.011,0.065,-0.073,-0.175,-0.219,-0.175,-0.101
-0.151,-0.091,0.06,0.12,-0.105,-0.015,0.065,-0.08,-0.192,-0.221,-0.175,-0.103
-0.152,-0.096,0.056,0.124,-0.103,-0.02,0.065,-0.082,-0.2,-0.219,-0.174,-0.106
-0.142,-0.093,0.049,0.117,-0.095,-0.022,0.077,-0.095,-0.193,-0.224,-0.178,-0.104
-0.147,-0.102,0.045,0.124,-0.096,-0.028,0.081,-0.095,-0.189,-0.23,-0.18,-0.108
-0.146,-0.115,0.03,0.13,-0.088,-0.042,0.076,-0.095,-0.186,-0.23,-0.18,-0.12
-0.159,-0.107,0.051,0.133,-0.105,-0.028,0.074,-0.095,-0.179,-0.23,-0.183,-0.12
-0.172,-0.1,0.071,0.136,-0.121,-0.014,0.071,-0.094,-0.185,-0.229,-0.186,-0.12
-0.156,-0.095,0.061,0.125,-0.108,-0.017,0.069,-0.096,-0.193,-0.233,-0.184,-0.12
-0.143,-0.086,0.058,0.114,-0.1,-0.014,0.066,-0.102,-0.19,-0.24,-0.186,-0.12
-0.142,-0.09,0.052,0.116,-0.096,-0.019,0.063,-0.109,-0.19,-0.239,-0.194,-0.118
-0.146,-0.103,0.044,0.124,-0.095,-0.03,0.06,-0.106,-0.187,-0.241,-0.195,-0.114
-0.159,-0.107,0.053,0.133,-0.106,-0.027,0.058,-0.105,-0.185,-0.245,-0.195,-0.115
-0.169,-0.103,0.067,0.136,-0.117,-0.018,0.053,-0.104,-0.184,-0.245,-0.195,-0.111
-0.176,-0.111,0.065,0.143,-0.12,-0.023,0.066,-0.101,-0.188,-0.242,-0.195,-0.109
-0.181,-0.119,0.062,0.15,-0.121,-0.028,0.077,-0.099,-0.2,-0.24,-0.194,-0.111
-0.167,-0.106,0.061,0.137,-0.114,-0.022,0.074,-0.104,-0.2,-0.24,-0.19,-0.114
-0.157,-0.099,0.058,0.128,-0.107,-0.021,0.076,-0.115,-0.201,-0.236,-0.19,-0.117
-0.148,-0.084,0.065,0.116,-0.106,-0.009,0.074,-0.115,-0.205,-0.235,-0.19,-0.119
-0.165,-0.091,0.074,0.128,-0.119,-0.008,0.076,-0.115,-0.205,-0.235,-0.19,-0.123
-0.183,-0.116,0.067,0.15,-0.125,-0.024,0.071,-0.115,-0.203,-0.241,-0.19,-0.125
-0.172,-0.11,0.062,0.141,-0.117,-0.024,0.07,-0.115,-0.196,-0.242,-0.186,-0.123
-0.164,-0.106,0.058,0.135,-0.11,-0.024,0.07,-0.113,-0.191,-0.24,-0.182,-0.117
-0.151,-0.103,0.048,0.127,-0.099,-0.027,0.065,-0.105,-0.186,-0.239,-0.179,-0.113
-0.154,-0.092,0.062,0.123,-0.108,-0.015,0.065,-0.099,-0.179,-0.235,-0.175,-0.108
-0.159,-0.082,0.077,0.12,-0.118,-0.003,0.066,-0.092,-0.175,-0.235,-0.171,-0.104
-0.148,-0.073,0.075,0.11,-0.111,0.001,0.089,-0.087,-0.164,-0.219,-0.168,-0.1
-0.12,-0.046,0.074,0.083,-0.097,0.013,0.108,-0.071,-0.139,-0.197,-0.164,-0.094
-0.114,-0.031,0.083,0.073,-0.098,0.026,0.124,-0.061,-0.117,-0.184,-0.149,-0.088
-0.145,-0.039,0.106,0.092,-0.125,0.033,0.147,-0.065,-0.113,-0.179,-0.123,-0.082
-0.113,-0.017,0.096,0.065,-0.104,0.039,0.117,-0.065,-0.116,-0.18,-0.111,-0.08
-0.042,-0.001,0.041,0.022,-0.042,0.02,0.081,-0.071,-0.113,-0.18,-0.121,-0.08
-0.054,-0.035,0.019,0.044,-0.036,-0.008,0.08,-0.069,-0.121,-0.18,-0.131,-0.08
-0.089,-0.065,0.024,0.076,-0.056,-0.02,0.08,-0.078,-0.136,-0.179,-0.134,-0.08
-0.093,-0.068,0.025,0.08,-0.058,-0.021,0.08,-0.095,-0.147,-0.203,-0.145,-0.081
-0.143,-0.096,0.046,0.119,-0.094,-0.025,0.081,-0.115,-0.172,-0.234,-0.179,-0.11
-0.18,-0.12,0.06,0.149,-0.12,-0.03,0.078,-0.127,-0.188,-0.236,-0.191,-0.125
-0.173,-0.119,0.054,0.146,-0.114,-0.032,0.076,-0.12,-0.191,-0.233,-0.189,-0.124
-0.176,-0.122,0.055,0.148,-0.116,-0.033,0.074,-0.139,-0.203,-0.24,-0.192,-0.126
-0.172,-0.117,0.055,0.144,-0.113,-0.031,0.074,-0.119,-0.187,-0.236,-0.187,-0.123
-0.17,-0.125,0.045,0.147,-0.107,-0.04,0.068,-0.142,-0.202,-0.244,-0.195,-0.128
-0.168,-0.111,0.057,0.139,-0.112,-0.027,0.071,-0.119,-0.183,-0.227,-0.182,-0.121
-0.146,-0.104,0.042,0.125,-0.094,-0.031,0.069,-0.138,-0.195,-0.238,-0.192,-0.129
-0.152,-0.093,0.059,0.122,-0.105,-0.017,0.07,-0.131,-0.189,-0.22,-0.176,-0.12
-0.154,-0.114,0.04,0.134,-0.097,-0.037,0.071,-0.134,-0.176,-0.227,-0.194,-0.131
-0.162,-0.069,0.093,0.115,-0.127,0.012,0.069,-0.16,-0.186,-0.218,-0.155,-0.105
-0.102,-0.008,0.094,0.055,-0.098,0.042,0.119,0.233,0.167,0.023,-0.009,-0.031
0.287,0.145,-0.141,-0.216,0.214,0.002,-0.305,-0.64,0.154,0.6,0.606,0.449
1.016,0.592,-0.424,-0.803,0.719,0.084,-1.278,-2.115,-0.339,1.176,1.512,1.318
1.315,0.298,-1.018,-0.806,1.166,-0.359,-1.516,-1.999,-0.833,0.352,0.867,1.092
0.613,-0.238,-0.851,-0.187,0.733,-0.544,-0.726,-1.194,-0.949,-0.644,-0.24,0.192
0.0,-0.12,-0.12,0.061,0.06,-0.12,-0.103,-0.422,-0.355,-0.368,-0.231,-0.059
-0.015,-0.075,-0.06,0.045,0.023,-0.067,0.021,-0.066,-0.035,-0.163,-0.148,-0.071
-0.036,-0.061,-0.024,0.049,-0.005,-0.042,0.07,0.015,-0.016,-0.148,-0.132,-0.071
-0.072,-0.048,0.024,0.06,-0.047,-0.011,0.103,0.09,0.045,-0.124,-0.128,-0.081
-0.091,-0.058,0.032,0.074,-0.062,-0.013,0.116,0.102,0.05,-0.135,-0.137,-0.095
-0.087,-0.041,0.046,0.064,-0.067,0.003,0.115,0.152,0.093,-0.1,-0.111,-0.079
-0.073,-0.051,0.022,0.062,-0.047,-0.015,0.113,0.166,0.098,-0.101,-0.118,-0.082
-0.071,-0.039,0.032,0.055,-0.052,-0.003,0.129,0.197,0.113,-0.068,-0.097,-0.069
-0.056,-0.041,0.015,0.048,-0.035,-0.013,0.125,0.215,0.136,-0.055,-0.096,-0.065
-0.047,-0.03,0.017,0.038,-0.031,-0.007,0.119,0.244,0.167,-0.035,-0.08,-0.053
-0.031,-0.028,0.003,0.029,-0.017,-0.012,0.114,0.277,0.204,-0.019,-0.074,-0.047
-0.015,-0.017,-0.002,0.016,-0.006,-0.009,0.108,0.309,0.241,0.009,-0.048,-0.033
0.007,-0.004,-0.011,-0.001,0.009,-0.007,0.098,0.356,0.285,0.043,-0.016,-0.012
0.033,0.015,-0.017,-0.024,0.025,-0.001,0.085,0.404,0.322,0.08,0.0,0.006
0.071,0.042,-0.03,-0.056,0.05,0.006,0.074,0.473,0.38,0.13,0.028,0.036
0.088,0.049,-0.039,-0.069,0.063,0.005,0.061,0.537,0.45,0.172,0.058,0.059
0.117,0.068,-0.049,-0.092,0.082,0.009,0.052,0.615,0.525,0.23,0.097,0.098
0.187,0.106,-0.082,-0.147,0.134,0.012,0.038,0.687,0.61,0.295,0.148,0.139
0.226,0.144,-0.082,-0.184,0.154,0.031,0.02,0.753,0.668,0.359,0.201,0.177
0.272,0.185,-0.087,-0.228,0.18,0.048,-0.01,0.801,0.732,0.426,0.266,0.233
0.337,0.226,-0.111,-0.281,0.224,0.057,-0.048,0.808,0.775,0.472,0.32,0.278
0.363,0.247,-0.117,-0.304,0.24,0.065,-0.067,0.795,0.758,0.496,0.352,0.317
0.361,0.247,-0.114,-0.304,0.237,0.066,-0.087,0.743,0.747,0.491,0.373,0.343
0.355,0.24,-0.116,-0.297,0.235,0.061,-0.106,0.659,0.678,0.458,0.36,0.345
0.334,0.222,-0.112,-0.278,0.223,0.054,-0.097,0.54,0.55,0.399,0.314,0.316
0.251,0.178,-0.073,-0.214,0.161,0.053,-0.062,0.414,0.434,0.302,0.25,0.257
0.148,0.115,-0.033,-0.131,0.091,0.04,-0.04,0.292,0.296,0.192,0.159,0.18
0.072,0.066,-0.006,-0.069,0.039,0.03,-0.005,0.175,0.171,0.096,0.073,0.104
0.023,0.035,0.013,-0.029,0.005,0.024,0.03,0.099,0.067,0.01,0.002,0.042
-0.017,0.009,0.026,0.004,-0.022,0.017,0.037,0.038,-0.018,-0.06,-0.063,-0.011
-0.071,-0.025,0.046,0.048,-0.059,0.01,0.053,-0.005,-0.067,-0.097,-0.092,-0.046
-0.098,-0.06,0.037,0.079,-0.067,-0.011,0.057,-0.034,-0.101,-0.128,-0.114,-0.063
-0.097,-0.067,0.03,0.082,-0.063,-0.018,0.063,-0.06,-0.121,-0.151,-0.137,-0.076
-0.095,-0.07,0.026,0.082,-0.061,-0.021,0.072,-0.064,-0.144,-0.159,-0.144,-0.088
-0.091,-0.077,0.014,0.084,-0.053,-0.031,0.074,-0.074,-0.158,-0.166,-0.149,-0.094
-0.102,-0.073,0.029,0.088,-0.065,-0.022,0.078,-0.081,-0.153,-0.172,-0.153,-0.098
-0.118,-0.076,0.042,0.097,-0.08,-0.017,0.08,-0.075,-0.152,-0.176,-0.159,-0.101
-0.106,-0.067,0.039,0.087,-0.073,-0.014,0.084,-0.073,-0.148,-0.175,-0.156,-0.099
-0.116,-0.076,0.04,0.096,-0.078,-0.018,0.085,-0.069,-0.145,-0.175,-0.155,-0.102
-0.14,-0.1,0.04,0.12,-0.09,-0.029,0.082,-0.065,-0.144,-0.175,-0.154,-0.11
-0.119,-0.079,0.04,0.099,-0.079,-0.02,0.079,-0.062,-0.139,-0.175,-0.15,-0.11
-0.105,-0.068,0.037,0.086,-0.071,-0.015,0.076,-0.06,-0.136,-0.175,-0.149,-0.11
-0.105,-0.071,0.034,0.087,-0.069,-0.018,0.073,-0.056,-0.132,-0.175,-0.155,-0.11
-0.106,-0.07,0.036,0.088,-0.071,-0.016,0.07,-0.055,-0.129,-0.175,-0.163,-0.11
-0.102,-0.069,0.033,0.085,-0.068,-0.017,0.068,-0.048,-0.124,-0.175,-0.16,-0.109
-0.116,-0.078,0.038,0.097,-0.077,-0.02,0.065,-0.057,-0.13,-0.175,-0.16,-0.105
-0.152,-0.093,0.06,0.122,-0.106,-0.016,0.065,-0.081,-0.142,-0.175,-0.157,-0.105
-0.151,-0.087,0.064,0.118,-0.107,-0.011,0.065,-0.08,-0.138,-0.177,-0.154,-0.105
-0.131,-0.085,0.046,0.107,-0.088,-0.019,0.064,-0.08,-0.151,-0.18,-0.156,-0.105
-0.122,-0.082,0.04,0.102,-0.081,-0.021,0.066,-0.079,-0.167,-0.184,-0.16,-0.105
-0.128,-0.079,0.049,0.103,-0.089,-0.015,0.061,-0.083,-0.166,-0.185,-0.168,-0.109
-0.122,-0.077,0.044,0.099,-0.083,-0.016,0.06,-0.089,-0.171,-0.192,-0.171,-0.11
-0.115,-0.073,0.041,0.094,-0.078,-0.016,0.06,-0.093,-0.173,-0.2,-0.174,-0.111
-0.1,-0.071,0.029,0.085,-0.064,-0.021,0.06,-0.108,-0.175,-0.201,-0.178,-0.116
-0.114,-0.068,0.046,0.091,-0.08,-0.011,0.075,-0.114,-0.175,-0.205,-0.18,-0.12
-0.141,-0.065,0.077,0.103,-0.108,0.006,0.076,-0.117,-0.174,-0.205,-0.18,-0.124
-0.128,-0.066,0.063,0.097,-0.095,-0.002,0.067,-0.123,-0.176,-0.205,-0.18,-0.129
-0.132,-0.073,0.059,0.102,-0.095,-0.007,0.06,-0.124,-0.174,-0.205,-0.18,-0.13
-0.139,-0.082,0.058,0.11,-0.098,-0.012,0.052,-0.128,-0.177,-0.205,-0.18,-0.13
-0.127,-0.074,0.053,0.1,-0.09,-0.01,0.046,-0.13,-0.188,-0.205,-0.18,-0.13
-0.12,-0.069,0.051,0.095,-0.086,-0.009,0.04,-0.127,-0.191,-0.205,-0.18,-0.13
-0.143,-0.093,0.05,0.118,-0.097,-0.021,0.04,-0.124,-0.194,-0.21,-0.193,-0.13
-0.139,-0.098,0.04,0.118,-0.089,-0.029,0.04,-0.12,-0.197,-0.218,-0.195,-0.13
-0.138,-0.088,0.051,0.113,-0.094,-0.018,0.04,-0.119,-0.2,-0.22,-0.195,-0.13
-0.156,-0.083,0.073,0.119,-0.114,-0.005,0.039,-0.113,-0.199,-0.22,-0.2,-0.13
-0.147,-0.076,0.071,0.111,-0.109,-0.002,0.048,-0.121,-0.192,-0.22,-0.2,-0.13
-0.144,-0.068,0.076,0.106,-0.11,0.003,0.057,-0.14,-0.188,-0.22,-0.199,-0.13
-0.155,-0.076,0.078,0.115,-0.116,0.001,0.051,-0.142,-0.182,-0.219,-0.195,-0.126
-0.167,-0.087,0.08,0.127,-0.123,-0.003,0.05,-0.144,-0.177,-0.215,-0.195,-0.124
-0.158,-0.081,0.077,0.12,-0.117,-0.002,0.046,-0.147,-0.17,-0.214,-0.193,-0.125
-0.154,-0.08,0.073,0.116,-0.114,-0.003,0.044,-0.151,-0.178,-0.215,-0.189,-0.125
-0.148,-0.076,0.072,0.112,-0.109,-0.002,0.049,-0.147,-0.195,-0.214,-0.191,-0.125
-0.142,-0.075,0.067,0.109,-0.104,-0.004,0.049,-0.139,-0.187,-0.216,-0.185,-0.124
-0.141,-0.075,0.066,0.107,-0.104,-0.004,0.053,-0.129,-0.18,-0.212,-0.177,-0.118
-0.123,-0.06,0.064,0.091,-0.093,0.002,0.053,-0.122,-0.174,-0.204,-0.169,-0.111
-0.108,-0.032,0.076,0.07,-0.092,0.021,0.061,-0.101,-0.143,-0.196,-0.161,-0.104
-0.081,-0.003,0.077,0.042,-0.079,0.037,0.073,-0.077,-0.12,-0.178,-0.155,-0.098
-0.077,0.007,0.084,0.035,-0.081,0.045,0.097,-0.058,-0.109,-0.163,-0.145,-0.091
-0.087,0.02,0.107,0.033,-0.097,0.063,0.098,-0.043,-0.105,-0.165,-0.134,-0.088
-0.051,0.026,0.077,0.013,-0.064,0.051,0.055,-0.072,-0.105,-0.168,-0.133,-0.083
-0.065,-0.007,0.058,0.036,-0.062,0.026,0.044,-0.08,-0.105,-0.171,-0.141,-0.082
-0.105,-0.045,0.06,0.075,-0.082,0.007,0.047,-0.097,-0.124,-0.175,-0.146,-0.075
-0.11,-0.057,0.054,0.083,-0.082,-0.001,0.041,-0.123,-0.15,-0.175,-0.152,-0.078
-0.127,-0.072,0.054,0.099,-0.09,-0.008,0.041,-0.122,-0.179,-0.2,-0.18,-0.114
-0.13,-0.083,0.047,0.107,-0.088,-0.018,0.038,-0.142,-0.194,-0.22,-0.197,-0.128
-0.15,-0.093,0.057,0.121,-0.103,-0.018,0.045,-0.127,-0.186,-0.217,-0.198,-0.129
-0.165,-0.115,0.05,0.139,-0.107,-0.032,0.044,-0.143,-0.194,-0.228,-0.206,-0.136
-0.163,-0.101,0.062,0.132,-0.113,-0.019,0.046,-0.127,-0.188,-0.217,-0.2,-0.136
-0.186,-0.105,0.081,0.146,-0.134,-0.012,0.049,-0.141,-0.21,-0.224,-0.203,-0.143
-0.189,-0.09,0.099,0.139,-0.143,0.005,0.05,-0.133,-0.204,-0.217,-0.192,-0.137
-0.176,-0.094,0.081,0.135,-0.128,-0.007,0.051,-0.123,-0.201,-0.222,-0.199,-0.143
-0.177,-0.08,0.097,0.129,-0.136,0.008,0.047,-0.141,-0.208,-0.221,-0.187,-0.138
-0.165,-0.078,0.087,0.121,-0.126,0.005,0.056,-0.087,-0.183,-0.211,-0.192,-0.139
-0.158,-0.063,0.095,0.111,-0.126,0.016,0.039,-0.2,-0.231,-0.213,-0.164,-0.118
-0.145,-0.013,0.131,0.079,-0.138,0.059,0.094,0.189,0.094,-0.037,-0.074,-0.074
0.171,0.055,-0.116,-0.113,0.143,-0.03,-0.178,-0.198,0.279,0.536,0.462,0.302
0.851,0.564,-0.286,-0.707,0.568,0.139,-1.103,-1.702,-0.121,1.408,1.624,1.287
1.211,0.5,-0.711,-0.856,0.961,-0.105,-1.53,-1.952,-0.659,0.925,1.368,1.382
0.649,-0.12,-0.77,-0.265,0.71,-0.444,-0.847,-1.257,-0.957,-0.401,0.006,0.404
-0.014,-0.126,-0.112,0.07,0.05,-0.119,-0.167,-0.508,-0.472,-0.427,-0.257,-0.022
-0.066,-0.063,0.003,0.065,-0.034,-0.03,-0.015,-0.103,-0.045,-0.137,-0.144,-0.054
-0.051,-0.043,0.007,0.047,-0.029,-0.018,0.027,-0.027,-0.019,-0.139,-0.16,-0.085
-0.075,-0.02,0.055,0.047,-0.065,0.017,0.058,0.049,0.05,-0.105,-0.133,-0.069
-0.051,-0.032,0.019,0.041,-0.035,-0.007,0.067,0.064,0.042,-0.118,-0.144,-0.08
-0.074,-0.007,0.067,0.04,-0.07,0.029,0.076,0.108,0.064,-0.093,-0.122,-0.071
-0.08,-0.016,0.063,0.048,-0.071,0.023,0.074,0.117,0.09,-0.095,-0.12,-0.077
-0.069,0.002,0.071,0.033,-0.07,0.036,0.076,0.143,0.114,-0.077,-0.098,-0.075
-0.051,0.006,0.057,0.022,-0.054,0.031,0.074,0.164,0.133,-0.064,-0.091,-0.068
-0.027,0.026,0.053,0.0,-0.04,0.039,0.076,0.18,0.137,-0.039,-0.079,-0.053
-0.015,0.029,0.044,-0.008,-0.029,0.036,0.071,0.215,0.173,-0.01,-0.063,-0.039
-0.004,0.031,0.035,-0.014,-0.02,0.033,0.06,0.244,0.216,0.011,-0.042,-0.027
0.015,0.045,0.03,-0.03,-0.008,0.037,0.048,0.285,0.261,0.047,-0.012,-0.008
0.029,0.048,0.019,-0.039,0.005,0.033,0.037,0.332,0.316,0.079,0.014,0.013
0.059,0.07,0.011,-0.065,0.024,0.04,0.027,0.382,0.359,0.123,0.031,0.03
0.087,0.087,-0.001,-0.087,0.044,0.043,0.017,0.445,0.416,0.172,0.062,0.061
0.119,0.107,-0.012,-0.113,0.065,0.047,0.008,0.52,0.507,0.237,0.118,0.101
0.168,0.138,-0.03,-0.152,0.099,0.053,-0.004,0.594,0.591,0.304,0.155,0.132
0.218,0.177,-0.042,-0.197,0.13,0.067,-0.02,0.659,0.677,0.367,0.211,0.182
0.267,0.214,-0.053,-0.24,0.16,0.08,-0.053,0.71,0.736,0.43,0.277,0.238
0.319,0.243,-0.077,-0.281,0.198,0.083,-0.074,0.732,0.772,0.49,0.333,0.292
0.345,0.279,-0.066,-0.312,0.205,0.107,-0.101,0.713,0.801,0.512,0.382,0.336
0.362,0.296,-0.065,-0.329,0.213,0.115,-0.128,0.676,0.774,0.502,0.392,0.348
0.37,0.285,-0.085,-0.328,0.228,0.1,-0.136,0.592,0.693,0.49,0.384,0.336
0.302,0.246,-0.056,-0.274,0.179,0.094,-0.131,0.487,0.589,0.435,0.355,0.319
0.221,0.205,-0.016,-0.213,0.119,0.094,-0.093,0.388,0.454,0.337,0.277,0.275
0.144,0.164,0.021,-0.154,0.061,0.093,-0.056,0.263,0.309,0.219,0.185,0.195
0.08,0.115,0.035,-0.098,0.022,0.074,-0.016,0.153,0.19,0.108,0.095,0.118
0.018,0.066,0.048,-0.042,-0.015,0.057,0.01,0.076,0.092,0.021,0.012,0.049
-0.056,0.025,0.081,0.015,-0.069,0.053,0.028,0.012,0.011,-0.053,-0.042,-0.003
-0.076,0.004,0.08,0.036,-0.078,0.041,0.048,-0.031,-0.06,-0.111,-0.092,-0.041
-0.106,-0.026,0.08,0.066,-0.092,0.027,0.042,-0.065,-0.106,-0.146,-0.124,-0.068
-0.123,-0.042,0.081,0.083,-0.102,0.019,0.055,-0.091,-0.121,-0.161,-0.142,-0.076
-0.119,-0.04,0.079,0.079,-0.099,0.02,0.071,-0.094,-0.127,-0.173,-0.158,-0.089
-0.118,-0.039,0.078,0.078,-0.098,0.019,0.069,-0.093,-0.127,-0.179,-0.155,-0.102
-0.098,-0.036,0.062,0.067,-0.079,0.012,0.07,-0.09,-0.132,-0.176,-0.155,-0.105
-0.108,-0.033,0.075,0.07,-0.091,0.021,0.07,-0.09,-0.138,-0.175,-0.153,-0.11
-0.132,-0.038,0.094,0.084,-0.113,0.028,0.07,-0.087,-0.128,-0.175,-0.149,-0.11
-0.131,-0.047,0.084,0.088,-0.107,0.018,0.068,-0.085,-0.12,-0.175,-0.151,-0.11
-0.122,-0.045,0.078,0.083,-0.1,0.016,0.063,-0.085,-0.112,-0.175,-0.15,-0.11
-0.102,-0.034,0.068,0.068,-0.085,0.017,0.057,-0.08,-0.113,-0.177,-0.15,-0.11
-0.1,-0.032,0.068,0.066,-0.084,0.017,0.054,-0.08,-0.115,-0.18,-0.151,-0.111
-0.127,-0.054,0.073,0.09,-0.1,0.009,0.048,-0.08,-0.109,-0.18,-0.152,-0.108
-0.11,-0.039,0.071,0.074,-0.09,0.016,0.046,-0.08,-0.111,-0.18,-0.15,-0.105
-0.085,-0.015,0.07,0.05,-0.077,0.027,0.055,-0.08,-0.11,-0.18,-0.15,-0.105
-0.1,-0.033,0.067,0.066,-0.083,0.016,0.056,-0.082,-0.11,-0.181,-0.151,-0.105
-0.105,-0.04,0.065,0.072,-0.085,0.012,0.054,-0.089,-0.122,-0.174,-0.149,-0.105
-0.097,-0.033,0.063,0.064,-0.08,0.015,0.056,-0.097,-0.145,-0.177,-0.155,-0.105
-0.116,-0.03,0.086,0.072,-0.101,0.028,0.054,-0.104,-0.164,-0.191,-0.166,-0.108
-0.122,-0.025,0.097,0.073,-0.109,0.036,0.056,-0.11,-0.165,-0.191,-0.165,-0.111
-0.108,-0.02,0.088,0.064,-0.098,0.034,0.059,-0.102,-0.168,-0.188,-0.165,-0.114
-0.115,-0.027,0.088,0.07,-0.101,0.03,0.062,-0.11,-0.171,-0.199,-0.166,-0.117
-0.118,-0.036,0.082,0.077,-0.099,0.022,0.065,-0.121,-0.167,-0.21,-0.164,-0.12
-0.118,-0.038,0.08,0.078,-0.099,0.021,0.067,-0.12,-0.165,-0.212,-0.171,-0.12
-0.127,-0.041,0.085,0.083,-0.106,0.022,0.071,-0.119,-0.164,-0.215,-0.181,-0.12
-0.133,-0.044,0.089,0.089,-0.111,0.022,0.067,-0.125,-0.16,-0.215,-0.18,-0.12
-0.137,-0.046,0.09,0.092,-0.113,0.022,0.065,-0.14,-0.16,-0.214,-0.179,-0.119
-0.14,-0.051,0.09,0.095,-0.115,0.02,0.065,-0.14,-0.193,-0.216,-0.187,-0.126
-0.138,-0.048,0.09,0.093,-0.114,0.021,0.065,-0.139,-0.218,-0.226,-0.192,-0.132
-0.133,-0.043,0.09,0.088,-0.111,0.023,0.065,-0.141,-0.212,-0.231,-0.189,-0.128
-0.128,-0.037,0.091,0.082,-0.109,0.027,0.065,-0.139,-0.208,-0.229,-0.186,-0.125
-0.131,-0.033,0.097,0.081,-0.114,0.032,0.069,-0.143,-0.203,-0.23,-0.183,-0.123
-0.116,-0.025,0.09,0.07,-0.103,0.032,0.07,-0.145,-0.199,-0.23,-0.18,-0.119
-0.117,-0.022,0.095,0.069,-0.106,0.037,0.07,-0.145,-0.194,-0.229,-0.18,-0.123
-0.138,-0.028,0.11,0.083,-0.124,0.041,0.07,-0.145,-0.202,-0.226,-0.18,-0.126
-0.127,-0.027,0.099,0.077,-0.113,0.035,0.07,-0.145,-0.22,-0.223,-0.18,-0.124
-0.139,-0.044,0.095,0.091,-0.117,0.025,0.07,-0.144,-0.233,-0.221,-0.18,-0.125
-0.132,-0.045,0.087,0.088,-0.109,0.02,0.07,-0.14,-0.241,-0.217,-0.179,-0.125
-0.112,-0.031,0.081,0.071,-0.096,0.025,0.07,-0.133,-0.241,-0.215,-0.181,-0.125
-0.11,-0.023,0.087,0.067,-0.098,0.031,0.07,-0.129,-0.227,-0.211,-0.173,-0.122
-0.1,-0.003,0.097,0.052,-0.099,0.047,0.07,-0.118,-0.201,-0.199,-0.158,-0.112
-0.112,0.02,0.132,0.045,-0.122,0.076,0.089,-0.09,-0.169,-0.177,-0.146,-0.103
-0.088,0.047,0.135,0.02,-0.112,0.091,0.11,-0.065,-0.141,-0.164,-0.128,-0.093
-0.083,0.053,0.136,0.014,-0.109,0.094,0.116,-0.053,-0.113,-0.165,-0.122,-0.085
-0.091,0.042,0.133,0.024,-0.113,0.087,0.099,-0.058,-0.092,-0.165,-0.126,-0.086
-0.059,0.033,0.092,0.012,-0.075,0.062,0.042,-0.082,-0.13,-0.168,-0.124,-0.083
-0.064,0.019,0.083,0.022,-0.074,0.051,0.026,-0.094,-0.18,-0.17,-0.126,-0.08
-0.081,0.005,0.086,0.038,-0.084,0.045,0.051,-0.107,-0.205,-0.169,-0.124,-0.079
-0.096,-0.008,0.088,0.052,-0.092,0.04,0.054,-0.112,-0.228,-0.175,-0.133,-0.087
-0.116,-0.026,0.09,0.071,-0.103,0.032,0.055,-0.135,-0.261,-0.201,-0.169,-0.118
-0.13,-0.04,0.09,0.085,-0.11,0.025,0.056,-0.138,-0.264,-0.214,-0.179,-0.131
-0.137,-0.052,0.085,0.094,-0.111,0.016,0.054,-0.141,-0.252,-0.217,-0.182,-0.13
-0.128,-0.048,0.08,0.088,-0.104,0.016,0.055,-0.141,-0.245,-0.213,-0.178,-0.129
-0.148,-0.051,0.097,0.1,-0.122,0.023,0.056,-0.128,-0.227,-0.209,-0.181,-0.131
-0.166,-0.057,0.109,0.111,-0.137,0.026,0.054,-0.147,-0.234,-0.213,-0.181,-0.13
-0.136,-0.05,0.086,0.093,-0.111,0.018,0.062,-0.116,-0.212,-0.202,-0.174,-0.129
-0.16,-0.067,0.093,0.113,-0.126,0.012,0.058,-0.161,-0.243,-0.214,-0.181,-0.132
-0.19,-0.064,0.127,0.127,-0.158,0.031,0.072,-0.1,-0.202,-0.192,-0.162,-0.127
-0.154,-0.053,0.101,0.103,-0.127,0.023,0.06,-0.187,-0.257,-0.223,-0.183,-0.134
-0.16,0.026,0.187,0.067,-0.174,0.106,0.096,0.023,-0.133,-0.125,-0.114,-0.097
-0.007,0.064,0.071,-0.029,-0.039,0.067,0.027,0.072,0.167,0.237,0.16,0.076
0.548,0.385,-0.163,-0.466,0.355,0.11,-0.728,-1.44,-0.18,0.936,1.067,0.815
1.216,0.614,-0.602,-0.915,0.908,0.006,-1.544,-2.293,-0.682,1.044,1.483,1.369
1.138,0.036,-1.101,-0.587,1.12,-0.532,-1.287,-1.667,-1.053,-0.153,0.327,0.687
0.33,-0.196,-0.526,-0.067,0.428,-0.36,-0.439,-0.849,-0.846,-0.605,-0.317,0.003
-0.037,-0.009,0.027,0.023,-0.032,0.009,-0.04,-0.209,-0.249,-0.207,-0.156,-0.08
-0.028,-0.018,0.01,0.023,-0.019,-0.004,0.02,-0.019,-0.118,-0.151,-0.139,-0.097
-0.086,-0.004,0.081,0.045,-0.083,0.038,0.064,0.057,-0.07,-0.105,-0.101,-0.085
-0.072,-0.003,0.069,0.037,-0.071,0.033,0.077,0.104,-0.045,-0.101,-0.13,-0.093
-0.064,0.018,0.082,0.023,-0.073,0.049,0.097,0.13,-0.038,-0.087,-0.112,-0.089
-0.057,0.02,0.077,0.018,-0.067,0.048,0.095,0.155,-0.012,-0.072,-0.104,-0.089
-0.043,0.02,0.064,0.012,-0.054,0.041,0.094,0.173,-0.003,-0.062,-0.1,-0.081
-0.04,0.031,0.071,0.005,-0.056,0.05,0.096,0.202,0.027,-0.029,-0.084,-0.068
-0.026,0.051,0.078,-0.013,-0.052,0.064,0.094,0.229,0.045,-0.016,-0.082,-0.062
0.001,0.059,0.058,-0.03,-0.029,0.058,0.094,0.267,0.081,0.01,-0.053,-0.047
0.009,0.05,0.042,-0.03,-0.017,0.046,0.083,0.286,0.11,0.027,-0.035,-0.038
0.024,0.067,0.042,-0.046,-0.009,0.054,0.078,0.334,0.155,0.064,-0.011,-0.024
0.038,0.068,0.031,-0.053,0.004,0.049,0.07,0.383,0.196,0.094,0.011,-0.013
0.054,0.08,0.027,-0.068,0.014,0.053,0.062,0.443,0.253,0.132,0.033,0.007
0.092,0.11,0.018,-0.102,0.037,0.064,0.056,0.518,0.322,0.179,0.062,0.032
0.121,0.128,0.008,-0.125,0.056,0.068,0.047,0.595,0.387,0.225,0.098,0.054
0.151,0.153,0.002,-0.152,0.074,0.077,0.039,0.679,0.47,0.283,0.142,0.086
0.204,0.191,-0.012,-0.197,0.108,0.089,0.023,0.756,0.543,0.35,0.193,0.131
0.276,0.227,-0.049,-0.251,0.162,0.089,0.002,0.819,0.648,0.418,0.25,0.184
0.314,0.272,-0.042,-0.292,0.178,0.114,-0.03,0.855,0.738,0.469,0.301,0.229
0.354,0.303,-0.05,-0.328,0.202,0.126,-0.055,0.866,0.753,0.511,0.347,0.279
0.396,0.314,-0.082,-0.355,0.239,0.115,-0.073,0.827,0.743,0.529,0.376,0.32
0.404,0.332,-0.072,-0.368,0.238,0.13,-0.103,0.744,0.711,0.514,0.363,0.319
0.376,0.308,-0.069,-0.342,0.222,0.119,-0.097,0.639,0.633,0.468,0.352,0.313
0.315,0.259,-0.056,-0.287,0.186,0.101,-0.081,0.505,0.505,0.371,0.314,0.276
0.222,0.216,-0.006,-0.219,0.114,0.105,-0.065,0.374,0.38,0.267,0.229,0.198
0.141,0.159,0.018,-0.15,0.061,0.088,-0.036,0.242,0.242,0.16,0.144,0.128
0.094,0.12,0.026,-0.107,0.034,0.073,-0.011,0.137,0.109,0.059,0.065,0.055
0.032,0.084,0.052,-0.058,-0.01,0.068,0.014,0.072,0.027,-0.014,-0.004,-0.004
-0.006,0.046,0.052,-0.02,-0.029,0.048,0.029,0.012,-0.044,-0.071,-0.059,-0.043
-0.033,0.027,0.06,0.003,-0.047,0.043,0.042,-0.026,-0.081,-0.107,-0.087,-0.067
-0.053,0.021,0.074,0.016,-0.063,0.047,0.051,-0.051,-0.102,-0.133,-0.11,-0.078
-0.054,0.011,0.065,0.021,-0.06,0.038,0.058,-0.073,-0.127,-0.151,-0.121,-0.092
-0.063,0.003,0.066,0.029,-0.065,0.035,0.058,-0.085,-0.132,-0.159,-0.132,-0.105
-0.069,-0.009,0.06,0.039,-0.064,0.025,0.054,-0.086,-0.146,-0.166,-0.144,-0.106
-0.098,-0.037,0.061,0.068,-0.08,0.012,0.055,-0.085,-0.166,-0.167,-0.146,-0.104
-0.094,-0.041,0.052,0.067,-0.073,0.005,0.052,-0.085,-0.162,-0.165,-0.15,-0.106
-0.071,-0.036,0.036,0.053,-0.053,0.0,0.049,-0.085,-0.155,-0.165,-0.146,-0.104
-0.097,-0.035,0.062,0.065,-0.079,0.013,0.051,-0.083,-0.151,-0.161,-0.143,-0.108
-0.108,-0.03,0.078,0.069,-0.093,0.023,0.055,-0.076,-0.145,-0.16,-0.141,-0.11
-0.104,-0.03,0.074,0.066,-0.089,0.022,0.056,-0.071,-0.141,-0.16,-0.137,-0.11
-0.099,-0.026,0.073,0.062,-0.086,0.024,0.054,-0.066,-0.135,-0.155,-0.135,-0.114
-0.09,-0.021,0.069,0.056,-0.08,0.024,0.056,-0.06,-0.132,-0.155,-0.137,-0.115
-0.089,-0.019,0.07,0.054,-0.08,0.026,0.054,-0.056,-0.125,-0.155,-0.141,-0.115
-0.084,-0.015,0.07,0.05,-0.077,0.027,0.056,-0.06,-0.126,-0.155,-0.14,-0.115
-0.08,-0.01,0.07,0.045,-0.075,0.03,0.059,-0.06,-0.124,-0.155,-0.14,-0.115
-0.083,-0.012,0.07,0.047,-0.076,0.029,0.06,-0.064,-0.127,-0.155,-0.14,-0.115
-0.091,-0.021,0.07,0.056,-0.08,0.024,0.06,-0.065,-0.151,-0.154,-0.14,-0.115
-0.099,-0.029,0.071,0.064,-0.085,0.021,0.06,-0.068,-0.158,-0.156,-0.144,-0.115
-0.106,-0.037,0.068,0.071,-0.087,0.015,0.06,-0.067,-0.159,-0.161,-0.145,-0.115
-0.109,-0.044,0.065,0.076,-0.087,0.01,0.058,-0.066,-0.164,-0.168,-0.145,-0.115
-0.104,-0.04,0.065,0.071,-0.084,0.012,0.054,-0.087,-0.166,-0.186,-0.145,-0.115
-0.097,-0.032,0.065,0.064,-0.081,0.016,0.052,-0.097,-0.175,-0.193,-0.144,-0.115
-0.091,-0.026,0.065,0.058,-0.078,0.019,0.049,-0.101,-0.184,-0.194,-0.148,-0.115
-0.084,-0.019,0.065,0.051,-0.074,0.023,0.045,-0.106,-0.185,-0.199,-0.15,-0.13
-0.082,-0.017,0.065,0.049,-0.073,0.024,0.045,-0.104,-0.185,-0.2,-0.15,-0.136
-0.092,-0.027,0.065,0.059,-0.078,0.019,0.049,-0.108,-0.19,-0.2,-0.154,-0.134
-0.098,-0.033,0.065,0.065,-0.081,0.016,0.054,-0.11,-0.19,-0.2,-0.155,-0.139
-0.096,-0.031,0.065,0.063,-0.08,0.017,0.057,-0.109,-0.189,-0.2,-0.155,-0.14
-0.095,-0.03,0.065,0.062,-0.08,0.017,0.065,-0.114,-0.201,-0.2,-0.155,-0.139
-0.094,-0.03,0.064,0.062,-0.079,0.017,0.069,-0.115,-0.206,-0.2,-0.155,-0.136
-0.09,-0.03,0.059,0.06,-0.075,0.014,0.071,-0.115,-0.204,-0.204,-0.153,-0.135
-0.084,-0.028,0.055,0.056,-0.07,0.013,0.087,-0.119,-0.206,-0.205,-0.149,-0.135
-0.106,-0.04,0.066,0.072,-0.086,0.013,0.091,-0.12,-0.204,-0.205,-0.15,-0.135
-0.127,-0.055,0.072,0.091,-0.099,0.008,0.09,-0.119,-0.206,-0.205,-0.15,-0.135
-0.11,-0.042,0.068,0.076,-0.089,0.013,0.088,-0.112,-0.204,-0.205,-0.15,-0.132
-0.109,-0.037,0.072,0.073,-0.09,0.017,0.096,-0.106,-0.208,-0.203,-0.15,-0.124
-0.089,-0.023,0.067,0.056,-0.078,0.022,0.109,-0.099,-0.228,-0.193,-0.143,-0.116
-0.07,0.014,0.084,0.028,-0.077,0.049,0.115,-0.094,-0.218,-0.18,-0.133,-0.108
-0.088,0.024,0.112,0.031,-0.1,0.068,0.124,-0.077,-0.189,-0.168,-0.122,-0.101
-0.052,0.051,0.102,0.0,-0.077,0.076,0.145,-0.06,-0.177,-0.146,-0.107,-0.093
-0.031,0.069,0.1,-0.019,-0.066,0.084,0.159,-0.058,-0.172,-0.122,-0.093,-0.082
-0.027,0.058,0.085,-0.016,-0.056,0.071,0.116,-0.061,-0.179,-0.113,-0.09,-0.08
0.013,0.05,0.038,-0.032,-0.013,0.044,0.077,-0.058,-0.178,-0.122,-0.09,-0.079
-0.019,0.006,0.025,0.006,-0.022,0.015,0.082,-0.066,-0.187,-0.133,-0.09,-0.081
-0.059,-0.016,0.043,0.037,-0.051,0.014,0.077,-0.099,-0.218,-0.145,-0.095,-0.078
-0.077,-0.019,0.058,0.048,-0.067,0.02,0.076,-0.103,-0.232,-0.174,-0.116,-0.088
-0.119,-0.059,0.06,0.089,-0.089,0.0,0.075,-0.125,-0.263,-0.201,-0.146,-0.121
-0.132,-0.071,0.061,0.101,-0.097,-0.005,0.073,-0.131,-0.269,-0.203,-0.15,-0.13
-0.127,-0.069,0.058,0.098,-0.092,-0.006,0.067,-0.139,-0.271,-0.208,-0.152,-0.131
-0.125,-0.062,0.063,0.093,-0.093,0.001,0.062,-0.132,-0.269,-0.2,-0.147,-0.129
-0.123,-0.065,0.058,0.094,-0.09,-0.004,0.06,-0.135,-0.269,-0.203,-0.153,-0.132
-0.124,-0.056,0.068,0.09,-0.096,0.006,0.051,-0.14,-0.274,-0.198,-0.147,-0.128
-0.13,-0.064,0.067,0.097,-0.098,0.001,0.054,-0.123,-0.259,-0.202,-0.148,-0.128
-0.145,-0.075,0.071,0.11,-0.108,-0.002,0.067,-0.157,-0.273,-0.21,-0.14,-0.123
-0.142,-0.063,0.079,0.102,-0.111,0.008,0.084,-0.099,-0.23,-0.195,-0.13,-0.121
-0.133,-0.065,0.068,0.099,-0.1,0.001,0.059,-0.195,-0.282,-0.195,-0.137,-0.118
-0.114,0.014,0.129,0.049,-0.121,0.071,0.116,0.137,-0.054,-0.038,-0.046,-0.076
0.121,0.081,-0.04,-0.101,0.08,0.021,-0.07,-0.149,0.142,0.374,0.329,0.194
0.784,0.497,-0.287,-0.64,0.535,0.105,-0.968,-1.783,-0.264,1.084,1.3,1.03
1.383,0.553,-0.83,-0.968,1.106,-0.138,-1.608,-2.236,-0.753,0.8,1.286,1.289
0.992,-0.084,-1.076,-0.454,1.034,-0.58,-1.087,-1.501,-1.063,-0.405,0.062,0.459
0.186,-0.141,-0.328,-0.023,0.257,-0.234,-0.277,-0.678,-0.664,-0.477,-0.245,-0.033
-0.01,-0.02,-0.01,0.015,0.0,-0.014,-0.017,-0.126,-0.156,-0.145,-0.102,-0.073
-0.009,-0.048,-0.039,0.028,0.015,-0.043,0.022,-0.013,-0.109,-0.13,-0.107,-0.086
-0.046,-0.009,0.036,0.027,-0.041,0.014,0.079,0.076,-0.047,-0.072,-0.063,-0.08
-0.048,-0.024,0.024,0.035,-0.036,0.0,0.1,0.107,-0.031,-0.088,-0.084,-0.095
-0.059,-0.001,0.058,0.029,-0.058,0.029,0.108,0.139,-0.014,-0.061,-0.058,-0.079
-0.042,-0.005,0.037,0.023,-0.039,0.016,0.108,0.164,0.01,-0.057,-0.066,-0.078
-0.042,0.008,0.049,0.016,-0.046,0.028,0.11,0.187,0.031,-0.042,-0.05,-0.069
-0.031,0.013,0.044,0.009,-0.038,0.028,0.104,0.22,0.052,-0.022,-0.035,-0.061
-0.026,0.017,0.043,0.004,-0.035,0.03,0.101,0.245,0.079,0.005,-0.021,-0.049
-0.014,0.027,0.042,-0.007,-0.028,0.034,0.098,0.285,0.121,0.031,-0.005,-0.032
-0.004,0.03,0.035,-0.014,-0.02,0.033,0.093,0.32,0.154,0.055,0.01,-0.017
0.023,0.058,0.035,-0.041,-0.007,0.047,0.09,0.368,0.2,0.086,0.035,-0.004
0.036,0.065,0.028,-0.05,0.004,0.046,0.086,0.414,0.235,0.103,0.049,0.007
0.055,0.077,0.023,-0.066,0.016,0.05,0.08,0.472,0.289,0.146,0.078,0.032
0.105,0.094,-0.011,-0.1,0.058,0.041,0.074,0.544,0.356,0.191,0.111,0.064
0.135,0.112,-0.023,-0.123,0.078,0.045,0.068,0.624,0.427,0.243,0.151,0.091
0.187,0.145,-0.042,-0.166,0.114,0.051,0.064,0.7,0.5,0.299,0.188,0.117
0.247,0.171,-0.076,-0.209,0.161,0.047,0.046,0.772,0.573,0.357,0.234,0.161
0.303,0.218,-0.085,-0.26,0.194,0.066,0.004,0.828,0.643,0.419,0.296,0.212
0.35,0.25,-0.1,-0.3,0.225,0.075,-0.026,0.858,0.686,0.47,0.348,0.26
0.392,0.276,-0.117,-0.334,0.254,0.08,-0.059,0.858,0.701,0.5,0.395,0.307
0.431,0.3,-0.132,-0.365,0.281,0.084,-0.093,0.808,0.675,0.491,0.404,0.332
0.435,0.306,-0.13,-0.37,0.282,0.088,-0.092,0.729,0.611,0.471,0.396,0.337
0.387,0.283,-0.104,-0.335,0.245,0.089,-0.084,0.616,0.52,0.424,0.382,0.321
0.324,0.231,-0.093,-0.277,0.208,0.069,-0.076,0.484,0.387,0.334,0.318,0.268
0.24,0.174,-0.066,-0.207,0.153,0.054,-0.047,0.347,0.258,0.237,0.229,0.19
0.144,0.109,-0.035,-0.126,0.089,0.037,-0.005,0.225,0.136,0.134,0.145,0.122
0.072,0.07,-0.002,-0.071,0.037,0.034,0.024,0.135,0.03,0.055,0.076,0.063
0.001,0.038,0.037,-0.019,-0.018,0.037,0.038,0.069,-0.044,-0.007,0.021,0.011
-0.028,0.011,0.04,0.009,-0.035,0.025,0.056,0.022,-0.102,-0.058,-0.026,-0.027
-0.044,-0.001,0.043,0.022,-0.044,0.021,0.061,-0.02,-0.14,-0.09,-0.058,-0.052
-0.061,-0.016,0.045,0.038,-0.053,0.015,0.062,-0.042,-0.174,-0.119,-0.081,-0.066
-0.07,-0.03,0.04,0.05,-0.055,0.004,0.066,-0.058,-0.189,-0.127,-0.093,-0.07
-0.085,-0.048,0.037,0.066,-0.061,-0.005,0.066,-0.07,-0.195,-0.138,-0.099,-0.074
-0.092,-0.059,0.033,0.075,-0.063,-0.013,0.071,-0.07,-0.204,-0.149,-0.103,-0.085
-0.09,-0.06,0.03,0.075,-0.06,-0.015,0.07,-0.071,-0.204,-0.149,-0.108,-0.09
-0.086,-0.06,0.026,0.072,-0.056,-0.017,0.07,-0.069,-0.201,-0.154,-0.109,-0.09
-0.083,-0.06,0.023,0.071,-0.053,-0.018,0.07,-0.065,-0.196,-0.155,-0.105,-0.09
-0.076,-0.06,0.016,0.068,-0.046,-0.022,0.07,-0.065,-0.194,-0.151,-0.103,-0.09
-0.09,-0.059,0.032,0.074,-0.061,-0.013,0.074,-0.065,-0.19,-0.148,-0.1,-0.09
-0.104,-0.054,0.05,0.079,-0.077,-0.002,0.076,-0.062,-0.186,-0.143,-0.097,-0.088
-0.098,-0.049,0.05,0.073,-0.074,0.0,0.075,-0.06,-0.185,-0.14,-0.094,-0.081
-0.095,-0.045,0.05,0.07,-0.072,0.002,0.072,-0.06,-0.185,-0.14,-0.103,-0.084
-0.09,-0.04,0.05,0.065,-0.07,0.005,0.069,-0.055,-0.185,-0.14,-0.107,-0.092
-0.086,-0.035,0.05,0.061,-0.068,0.007,0.065,-0.055,-0.185,-0.14,-0.104,-0.09
-0.084,-0.035,0.049,0.059,-0.066,0.007,0.065,-0.055,-0.186,-0.14,-0.105,-0.09
-0.088,-0.042,0.046,0.064,-0.066,0.002,0.07,-0.046,-0.185,-0.14,-0.1,-0.087
-0.09,-0.046,0.043,0.068,-0.066,-0.001,0.07,-0.056,-0.191,-0.141,-0.1,-0.084
-0.084,-0.044,0.04,0.064,-0.062,-0.001,0.07,-0.066,-0.212,-0.145,-0.101,-0.086
-0.084,-0.046,0.038,0.065,-0.06,-0.004,0.072,-0.067,-0.219,-0.145,-0.105,-0.09
-0.078,-0.044,0.035,0.06,-0.056,-0.005,0.078,-0.07,-0.222,-0.145,-0.11,-0.099
-0.083,-0.047,0.036,0.065,-0.059,-0.005,0.08,-0.079,-0.227,-0.149,-0.11,-0.097
-0.097,-0.048,0.049,0.072,-0.073,0.0,0.08,-0.086,-0.23,-0.156,-0.11,-0.095
-0.102,-0.046,0.056,0.074,-0.078,0.005,0.08,-0.084,-0.23,-0.16,-0.11,-0.092
-0.11,-0.063,0.048,0.086,-0.079,-0.007,0.08,-0.085,-0.23,-0.16,-0.11,-0.089
-0.111,-0.066,0.045,0.088,-0.077,-0.011,0.08,-0.085,-0.23,-0.164,-0.11,-0.086
-0.104,-0.064,0.04,0.084,-0.072,-0.011,0.08,-0.085,-0.229,-0.165,-0.11,-0.085
-0.1,-0.066,0.034,0.083,-0.067,-0.015,0.08,-0.09,-0.234,-0.161,-0.115,-0.097
-0.109,-0.065,0.044,0.086,-0.076,-0.01,0.081,-0.091,-0.235,-0.16,-0.115,-0.102
-0.105,-0.064,0.041,0.085,-0.073,-0.011,0.079,-0.087,-0.235,-0.16,-0.115,-0.097
-0.096,-0.059,0.037,0.077,-0.066,-0.011,0.082,-0.085,-0.239,-0.16,-0.115,-0.095
-0.089,-0.061,0.029,0.075,-0.059,-0.016,0.076,-0.082,-0.24,-0.16,-0.115,-0.092
-0.086,-0.058,0.028,0.071,-0.057,-0.015,0.075,-0.079,-0.239,-0.159,-0.115,-0.088
-0.111,-0.054,0.057,0.082,-0.084,0.001,0.096,-0.085,-0.233,-0.155,-0.109,-0.098
-0.117,-0.056,0.061,0.087,-0.088,0.002,0.103,-0.094,-0.225,-0.152,-0.102,-0.101
-0.107,-0.047,0.06,0.077,-0.083,0.006,0.097,-0.096,-0.219,-0.148,-0.096,-0.092
-0.088,-0.029,0.059,0.059,-0.073,0.015,0.105,-0.085,-0.213,-0.146,-0.089,-0.084
-0.066,0.001,0.068,0.032,-0.067,0.034,0.12,-0.06,-0.203,-0.134,-0.082,-0.076
-0.059,0.025,0.085,0.017,-0.072,0.055,0.134,-0.032,-0.181,-0.108,-0.07,-0.069
-0.038,0.034,0.072,0.001,-0.055,0.053,0.146,-0.009,-0.152,-0.087,-0.057,-0.065
-0.029,0.033,0.063,-0.002,-0.046,0.048,0.131,-0.007,-0.137,-0.077,-0.055,-0.065
-0.048,0.004,0.052,0.022,-0.05,0.028,0.113,-0.033,-0.155,-0.084,-0.053,-0.064
-0.068,-0.029,0.039,0.048,-0.053,0.005,0.098,-0.056,-0.18,-0.106,-0.062,-0.066
-0.064,-0.036,0.028,0.05,-0.046,-0.004,0.088,-0.077,-0.202,-0.122,-0.074,-0.063
-0.059,-0.04,0.019,0.049,-0.039,-0.01,0.091,-0.086,-0.227,-0.144,-0.098,-0.078
-0.086,-0.071,0.016,0.078,-0.051,-0.027,0.089,-0.11,-0.251,-0.171,-0.123,-0.11
-0.095,-0.084,0.01,0.089,-0.052,-0.036,0.09,-0.116,-0.249,-0.168,-0.117,-0.118
-0.106,-0.086,0.02,0.096,-0.062,-0.032,0.09,-0.116,-0.25,-0.172,-0.123,-0.122
-0.14,-0.085,0.056,0.112,-0.098,-0.014,0.088,-0.126,-0.256,-0.167,-0.117,-0.118
-0.144,-0.084,0.06,0.114,-0.102,-0.012,0.086,-0.115,-0.25,-0.164,-0.122,-0.121
-0.129,-0.087,0.041,0.108,-0.085,-0.023,0.083,-0.14,-0.263,-0.167,-0.119,-0.12
-0.122,-0.08,0.043,0.101,-0.082,-0.018,0.112,-0.099,-0.236,-0.16,-0.122,-0.118
-0.127,-0.082,0.044,0.104,-0.085,-0.019,0.115,-0.14,-0.254,-0.173,-0.13,-0.113
-0.096,-0.054,0.041,0.075,-0.068,-0.006,0.122,-0.075,-0.212,-0.154,-0.117,-0.1
-0.098,-0.069,0.029,0.083,-0.064,-0.02,0.12,-0.146,-0.243,-0.177,-0.133,-0.104
-0.142,-0.02,0.122,0.081,-0.132,0.05,0.138,0.017,-0.125,-0.074,-0.04,-0.065
0.011,0.014,0.004,-0.013,0.003,0.009,0.088,0.172,0.197,0.247,0.178,0.068
0.567,0.323,-0.243,-0.445,0.405,0.04,-0.626,-1.257,-0.057,0.939,1.054,0.787
1.272,0.604,-0.669,-0.938,0.97,-0.032,-1.489,-2.238,-0.559,1.067,1.512,1.368
1.172,0.05,-1.122,-0.611,1.147,-0.536,-1.259,-1.688,-0.987,-0.118,0.38,0.698
0.353,-0.21,-0.563,-0.071,0.458,-0.386,-0.403,-0.874,-0.806,-0.562,-0.267,0.017
-0.016,-0.051,-0.036,0.034,0.01,-0.043,0.003,-0.199,-0.196,-0.157,-0.086,-0.059
-0.019,-0.085,-0.066,0.053,0.023,-0.075,0.067,-0.005,-0.068,-0.091,-0.065,-0.071
-0.068,-0.061,0.007,0.065,-0.038,-0.026,0.121,0.071,-0.029,-0.056,-0.04,-0.064
-0.077,-0.075,0.003,0.076,-0.04,-0.036,0.138,0.123,0.02,-0.051,-0.049,-0.073
-0.083,-0.069,0.013,0.076,-0.048,-0.028,0.152,0.136,0.032,-0.029,-0.036,-0.067
-0.06,-0.05,0.01,0.055,-0.035,-0.019,0.151,0.167,0.059,-0.011,-0.032,-0.06
-0.049,-0.025,0.024,0.037,-0.036,-0.001,0.148,0.179,0.061,-0.011,-0.029,-0.055
-0.048,-0.014,0.035,0.031,-0.041,0.01,0.151,0.208,0.086,0.017,-0.016,-0.046
-0.031,-0.013,0.018,0.022,-0.024,0.002,0.149,0.239,0.109,0.033,-0.015,-0.042
-0.023,-0.003,0.02,0.013,-0.021,0.008,0.151,0.285,0.141,0.054,-0.004,-0.034
-0.001,0.005,0.006,-0.003,-0.003,0.005,0.145,0.311,0.175,0.078,0.016,-0.018
0.021,0.025,0.004,-0.023,0.008,0.014,0.137,0.348,0.214,0.102,0.048,0.008
0.047,0.032,-0.015,-0.04,0.031,0.008,0.128,0.396,0.262,0.139,0.071,0.018
0.085,0.059,-0.026,-0.072,0.055,0.016,0.118,0.446,0.317,0.177,0.093,0.026
0.104,0.066,-0.038,-0.085,0.071,0.014,0.106,0.517,0.379,0.217,0.125,0.061
0.138,0.08,-0.058,-0.109,0.097,0.011,0.095,0.586,0.45,0.274,0.156,0.084
0.197,0.127,-0.071,-0.162,0.134,0.028,0.079,0.668,0.525,0.324,0.196,0.114
0.242,0.151,-0.091,-0.196,0.166,0.029,0.057,0.746,0.601,0.388,0.248,0.162
0.261,0.174,-0.087,-0.217,0.174,0.043,0.039,0.804,0.671,0.45,0.303,0.209
0.324,0.219,-0.104,-0.271,0.214,0.057,0.012,0.832,0.721,0.511,0.361,0.264
0.378,0.254,-0.124,-0.316,0.251,0.065,-0.016,0.82,0.732,0.552,0.401,0.31
0.386,0.259,-0.127,-0.322,0.256,0.066,-0.04,0.803,0.721,0.567,0.437,0.348
0.425,0.277,-0.148,-0.351,0.287,0.064,-0.049,0.738,0.677,0.561,0.436,0.346
0.389,0.262,-0.126,-0.325,0.257,0.068,-0.04,0.622,0.586,0.498,0.404,0.329
0.288,0.207,-0.081,-0.247,0.184,0.063,-0.029,0.506,0.469,0.42,0.364,0.295
0.214,0.166,-0.048,-0.189,0.13,0.059,-0.008,0.38,0.333,0.319,0.274,0.219
0.138,0.109,-0.029,-0.123,0.083,0.039,0.02,0.248,0.202,0.205,0.18,0.148
0.078,0.057,-0.021,-0.067,0.049,0.017,0.047,0.151,0.097,0.119,0.107,0.078
0.017,0.01,-0.007,-0.013,0.011,0.002,0.069,0.078,0.019,0.043,0.044,0.025
-0.033,-0.021,0.012,0.027,-0.022,-0.005,0.083,0.022,-0.052,-0.011,-0.004,-0.016
-0.054,-0.031,0.023,0.042,-0.039,-0.004,0.105,-0.007,-0.097,-0.048,-0.042,-0.048
-0.072,-0.043,0.029,0.057,-0.05,-0.007,0.122,-0.031,-0.122,-0.073,-0.06,-0.058
-0.08,-0.046,0.034,0.063,-0.056,-0.006,0.119,-0.04,-0.139,-0.082,-0.059,-0.077
-0.095,-0.065,0.03,0.08,-0.062,-0.017,0.122,-0.047,-0.143,-0.093,-0.069,-0.087
-0.106,-0.078,0.027,0.092,-0.066,-0.025,0.126,-0.057,-0.151,-0.101,-0.081,-0.085
-0.096,-0.071,0.025,0.083,-0.061,-0.022,0.124,-0.055,-0.15,-0.109,-0.08,-0.085
-0.091,-0.071,0.02,0.081,-0.056,-0.025,0.125,-0.055,-0.15,-0.11,-0.079,-0.083
-0.087,-0.066,0.021,0.077,-0.054,-0.022,0.125,-0.051,-0.15,-0.105,-0.075,-0.08
-0.085,-0.065,0.021,0.075,-0.052,-0.022,0.125,-0.05,-0.15,-0.103,-0.074,-0.079
-0.113,-0.077,0.036,0.095,-0.074,-0.02,0.125,-0.049,-0.149,-0.098,-0.082,-0.088
-0.132,-0.075,0.056,0.103,-0.094,-0.01,0.125,-0.045,-0.144,-0.095,-0.085,-0.097
-0.115,-0.067,0.048,0.091,-0.081,-0.009,0.124,-0.046,-0.138,-0.099,-0.078,-0.092
-0.105,-0.061,0.044,0.083,-0.074,-0.008,0.12,-0.045,-0.135,-0.101,-0.074,-0.09
-0.096,-0.055,0.041,0.076,-0.068,-0.006,0.12,-0.045,-0.13,-0.1,-0.071,-0.087
-0.088,-0.055,0.033,0.071,-0.06,-0.011,0.12,-0.045,-0.125,-0.1,-0.064,-0.084
-0.096,-0.054,0.042,0.074,-0.068,-0.006,0.12,-0.049,-0.134,-0.1,-0.076,-0.096
-0.101,-0.049,0.051,0.075,-0.076,0.001,0.12,-0.055,-0.142,-0.101,-0.093,-0.106
-0.1,-0.05,0.05,0.075,-0.075,0.0,0.117,-0.066,-0.142,-0.106,-0.095,-0.104
-0.098,-0.05,0.048,0.074,-0.073,-0.001,0.112,-0.073,-0.147,-0.111,-0.098,-0.105
-0.094,-0.049,0.044,0.071,-0.069,-0.002,0.109,-0.076,-0.163,-0.114,-0.101,-0.105
-0.106,-0.061,0.045,0.083,-0.075,-0.008,0.105,-0.074,-0.164,-0.119,-0.104,-0.105
-0.108,-0.066,0.042,0.087,-0.075,-0.012,0.102,-0.077,-0.17,-0.122,-0.105,-0.109
-0.096,-0.061,0.035,0.078,-0.066,-0.012,0.098,-0.101,-0.193,-0.127,-0.112,-0.116
-0.092,-0.059,0.033,0.075,-0.062,-0.013,0.095,-0.106,-0.203,-0.13,-0.12,-0.125
-0.082,-0.057,0.025,0.069,-0.053,-0.015,0.095,-0.104,-0.205,-0.13,-0.12,-0.127
-0.079,-0.053,0.026,0.065,-0.052,-0.013,0.095,-0.105,-0.207,-0.132,-0.12,-0.125
-0.083,-0.077,0.006,0.08,-0.045,-0.035,0.095,-0.105,-0.209,-0.136,-0.12,-0.125
-0.085,-0.082,0.002,0.083,-0.043,-0.04,0.095,-0.105,-0.211,-0.135,-0.12,-0.12
-0.096,-0.054,0.042,0.075,-0.068,-0.006,0.098,-0.105,-0.214,-0.132,-0.119,-0.12
-0.107,-0.061,0.046,0.083,-0.076,-0.008,0.101,-0.117,-0.217,-0.129,-0.115,-0.12
-0.111,-0.067,0.044,0.088,-0.077,-0.011,0.103,-0.121,-0.219,-0.125,-0.115,-0.12
-0.108,-0.061,0.046,0.084,-0.077,-0.007,0.108,-0.119,-0.222,-0.124,-0.115,-0.12
-0.104,-0.061,0.043,0.082,-0.074,-0.008,0.109,-0.117,-0.226,-0.118,-0.115,-0.12
-0.103,-0.055,0.047,0.078,-0.075,-0.004,0.112,-0.114,-0.221,-0.125,-0.115,-0.12
-0.088,-0.057,0.031,0.072,-0.059,-0.013,0.114,-0.115,-0.204,-0.131,-0.113,-0.12
-0.084,-0.04,0.044,0.062,-0.063,0.002,0.115,-0.098,-0.181,-0.116,-0.102,-0.115
-0.062,-0.003,0.059,0.032,-0.061,0.028,0.128,-0.07,-0.158,-0.103,-0.093,-0.105
-0.019,0.023,0.042,-0.002,-0.031,0.032,0.145,-0.054,-0.147,-0.088,-0.082,-0.096
-0.036,0.031,0.067,0.002,-0.051,0.049,0.146,-0.041,-0.144,-0.08,-0.075,-0.095
-0.026,0.03,0.056,-0.002,-0.041,0.042,0.102,-0.052,-0.145,-0.08,-0.075,-0.095
0.022,0.014,-0.008,-0.018,0.015,0.003,0.076,-0.083,-0.145,-0.08,-0.072,-0.094
0.015,-0.01,-0.025,-0.002,0.02,-0.017,0.082,-0.095,-0.148,-0.079,-0.069,-0.096
-0.023,-0.034,-0.011,0.029,-0.006,-0.023,0.078,-0.108,-0.17,-0.088,-0.078,-0.093
-0.078,-0.065,0.013,0.071,-0.046,-0.025,0.081,-0.114,-0.203,-0.126,-0.113,-0.113
-0.098,-0.076,0.022,0.087,-0.06,-0.027,0.079,-0.139,-0.224,-0.145,-0.132,-0.135
-0.082,-0.062,0.02,0.072,-0.051,-0.021,0.077,-0.141,-0.215,-0.142,-0.127,-0.134
-0.088,-0.074,0.013,0.081,-0.05,-0.031,0.069,-0.15,-0.225,-0.15,-0.135,-0.136
-0.112,-0.094,0.019,0.103,-0.065,-0.037,0.064,-0.138,-0.216,-0.146,-0.131,-0.133
-0.122,-0.101,0.022,0.111,-0.072,-0.039,0.059,-0.141,-0.221,-0.154,-0.14,-0.137
-0.118,-0.081,0.037,0.099,-0.077,-0.022,0.053,-0.143,-0.222,-0.142,-0.127,-0.132
-0.106,-0.086,0.02,0.095,-0.062,-0.033,0.05,-0.133,-0.211,-0.147,-0.131,-0.143
-0.098,-0.071,0.026,0.084,-0.062,-0.023,0.037,-0.167,-0.228,-0.146,-0.116,-0.137
-0.085,-0.066,0.019,0.076,-0.052,-0.024,0.04,-0.113,-0.188,-0.14,-0.113,-0.139
-0.079,-0.043,0.035,0.061,-0.057,-0.004,0.016,-0.214,-0.25,-0.151,-0.111,-0.116
-0.083,0.008,0.091,0.037,-0.087,0.049,0.081,0.16,0.031,0.023,-0.023,-0.077
0.175,0.024,-0.152,-0.099,0.163,-0.064,-0.116,-0.077,0.26,0.53,0.432,0.223
0.856,0.525,-0.331,-0.69,0.593,0.097,-1.035,-1.622,-0.118,1.398,1.566,1.184
1.322,0.537,-0.785,-0.929,1.054,-0.124,-1.573,-2.017,-0.632,1.037,1.455,1.378
0.815,-0.108,-0.923,-0.353,0.869,-0.515,-0.949,-1.314,-0.99,-0.317,0.091,0.431
0.099,-0.133,-0.232,0.017,0.166,-0.183,-0.22,-0.57,-0.565,-0.394,-0.221,-0.052
-0.008,-0.065,-0.057,0.036,0.025,-0.061,-0.032,-0.107,-0.092,-0.067,-0.077,-0.082
0.007,-0.057,-0.064,0.025,0.036,-0.06,0.0,-0.024,-0.062,-0.07,-0.078,-0.09
-0.024,-0.023,0.001,0.023,-0.012,-0.011,0.047,0.057,0.009,-0.026,-0.048,-0.088
-0.025,-0.036,-0.012,0.03,-0.006,-0.024,0.056,0.083,0.015,-0.04,-0.066,-0.099
-0.025,-0.006,0.019,0.015,-0.022,0.007,0.055,0.112,0.04,-0.013,-0.044,-0.081
-0.007,-0.013,-0.006,0.01,-0.001,-0.009,0.055,0.136,0.054,0.003,-0.052,-0.082
-0.005,0.007,0.012,-0.002,-0.009,0.009,0.055,0.149,0.07,0.025,-0.038,-0.071
0.005,0.006,0.001,-0.006,0.002,0.003,0.055,0.175,0.099,0.043,-0.024,-0.065
0.015,0.022,0.007,-0.019,0.003,0.014,0.048,0.206,0.12,0.064,-0.004,-0.056
0.027,0.022,-0.006,-0.025,0.016,0.008,0.04,0.233,0.156,0.078,0.008,-0.047
0.069,0.034,-0.034,-0.051,0.052,0.0,0.032,0.253,0.189,0.111,0.021,-0.04
0.091,0.064,-0.027,-0.077,0.059,0.018,0.024,0.297,0.234,0.142,0.051,-0.023
0.09,0.066,-0.024,-0.078,0.057,0.021,0.016,0.335,0.276,0.161,0.069,0.002
0.121,0.085,-0.036,-0.103,0.078,0.025,0.0,0.39,0.331,0.216,0.096,0.032
0.149,0.096,-0.054,-0.122,0.101,0.021,-0.016,0.459,0.404,0.261,0.126,0.052
0.192,0.116,-0.077,-0.153,0.134,0.019,-0.028,0.529,0.478,0.318,0.168,0.083
0.24,0.154,-0.086,-0.196,0.163,0.033,-0.041,0.608,0.558,0.388,0.224,0.127
0.273,0.186,-0.087,-0.229,0.18,0.049,-0.062,0.677,0.641,0.456,0.279,0.173
0.32,0.218,-0.102,-0.269,0.211,0.058,-0.089,0.727,0.707,0.523,0.335,0.227
0.381,0.255,-0.126,-0.317,0.253,0.064,-0.119,0.746,0.744,0.574,0.389,0.278
0.423,0.287,-0.136,-0.354,0.279,0.075,-0.146,0.739,0.753,0.613,0.433,0.326
0.432,0.295,-0.137,-0.363,0.284,0.078,-0.168,0.704,0.731,0.613,0.458,0.341
0.428,0.286,-0.142,-0.356,0.284,0.072,-0.168,0.626,0.67,0.581,0.461,0.334
0.392,0.274,-0.118,-0.333,0.254,0.078,-0.157,0.522,0.57,0.52,0.427,0.326
0.31,0.24,-0.07,-0.274,0.19,0.084,-0.143,0.401,0.445,0.417,0.35,0.263
0.209,0.173,-0.036,-0.19,0.122,0.068,-0.116,0.275,0.301,0.304,0.247,0.178
0.124,0.116,-0.008,-0.12,0.066,0.053,-0.079,0.172,0.161,0.195,0.143,0.102
0.077,0.075,-0.002,-0.076,0.04,0.036,-0.044,0.098,0.058,0.107,0.064,0.036
0.035,0.038,0.003,-0.036,0.016,0.02,-0.025,0.038,-0.013,0.045,0.016,-0.011
-0.03,0.003,0.033,0.013,-0.032,0.018,-0.012,-0.004,-0.065,0.0,-0.026,-0.046
-0.057,-0.02,0.037,0.038,-0.047,0.008,-0.001,-0.037,-0.114,-0.04,-0.058,-0.071
-0.062,-0.029,0.034,0.045,-0.048,0.002,0.001,-0.059,-0.138,-0.072,-0.072,-0.09
-0.069,-0.033,0.036,0.051,-0.052,0.001,-0.002,-0.071,-0.145,-0.08,-0.083,-0.096
-0.064,-0.03,0.034,0.047,-0.049,0.002,0.005,-0.08,-0.152,-0.084,-0.089,-0.105
-0.06,-0.025,0.035,0.042,-0.047,0.005,0.016,-0.075,-0.146,-0.093,-0.098,-0.114
-0.055,-0.023,0.032,0.039,-0.043,0.004,0.015,-0.07,-0.144,-0.099,-0.103,-0.115
-0.046,-0.018,0.028,0.032,-0.037,0.005,0.013,-0.067,-0.139,-0.097,-0.099,-0.115
-0.04,-0.014,0.026,0.027,-0.033,0.006,0.01,-0.061,-0.136,-0.09,-0.1,-0.115
-0.046,-0.026,0.02,0.036,-0.033,-0.003,0.009,-0.058,-0.133,-0.085,-0.1,-0.116
-0.059,-0.038,0.021,0.048,-0.039,-0.008,0.014,-0.054,-0.129,-0.08,-0.1,-0.113
-0.078,-0.033,0.044,0.055,-0.06,0.005,0.016,-0.05,-0.131,-0.073,-0.099,-0.11
-0.084,-0.031,0.053,0.058,-0.068,0.011,0.013,-0.048,-0.126,-0.071,-0.096,-0.108
-0.077,-0.028,0.048,0.053,-0.062,0.01,0.01,-0.041,-0.125,-0.075,-0.094,-0.105
-0.073,-0.025,0.048,0.048,-0.06,0.011,0.007,-0.042,-0.125,-0.075,-0.09,-0.102
-0.069,-0.025,0.044,0.047,-0.056,0.01,0.005,-0.061,-0.131,-0.075,-0.088,-0.099
-0.069,-0.025,0.044,0.046,-0.056,0.009,0.003,-0.067,-0.138,-0.075,-0.084,-0.104
-0.084,-0.025,0.059,0.054,-0.071,0.017,0.0,-0.063,-0.147,-0.075,-0.088,-0.105
-0.09,-0.025,0.066,0.057,-0.077,0.02,0.005,-0.067,-0.156,-0.079,-0.09,-0.105
-0.084,-0.025,0.059,0.055,-0.071,0.017,0.009,-0.078,-0.155,-0.079,-0.09,-0.109
-0.082,-0.025,0.057,0.053,-0.069,0.016,0.011,-0.082,-0.162,-0.084,-0.095,-0.11
-0.081,-0.028,0.053,0.054,-0.067,0.013,0.016,-0.078,-0.155,-0.091,-0.095,-0.109
-0.082,-0.034,0.048,0.058,-0.065,0.007,0.019,-0.082,-0.154,-0.091,-0.099,-0.111
-0.086,-0.032,0.054,0.059,-0.069,0.011,0.02,-0.078,-0.161,-0.083,-0.1,-0.108
-0.113,-0.04,0.073,0.076,-0.092,0.016,0.02,-0.086,-0.162,-0.092,-0.102,-0.113
-0.121,-0.048,0.074,0.084,-0.097,0.013,0.02,-0.105,-0.17,-0.115,-0.106,-0.125
-0.1,-0.036,0.064,0.068,-0.082,0.014,0.02,-0.105,-0.16,-0.115,-0.105,-0.125
-0.093,-0.028,0.065,0.06,-0.078,0.018,0.02,-0.105,-0.175,-0.115,-0.105,-0.123
-0.083,-0.028,0.055,0.055,-0.069,0.013,0.02,-0.105,-0.193,-0.115,-0.105,-0.12
-0.088,-0.03,0.058,0.059,-0.073,0.013,0.015,-0.105,-0.189,-0.115,-0.105,-0.12
-0.121,-0.03,0.091,0.075,-0.106,0.03,0.015,-0.103,-0.188,-0.112,-0.1,-0.118
-0.126,-0.03,0.096,0.077,-0.111,0.033,0.015,-0.092,-0.184,-0.103,-0.096,-0.108
-0.125,-0.028,0.096,0.076,-0.111,0.034,0.02,-0.082,-0.186,-0.094,-0.091,-0.101
-0.101,0.001,0.101,0.05,-0.101,0.051,0.044,-0.073,-0.178,-0.087,-0.087,-0.093
-0.064,0.034,0.098,0.014,-0.081,0.066,0.046,-0.061,-0.156,-0.072,-0.081,-0.086
-0.049,0.043,0.092,0.002,-0.071,0.067,0.068,-0.055,-0.12,-0.057,-0.065,-0.081
-0.024,0.054,0.078,-0.015,-0.051,0.065,0.085,-0.053,-0.096,-0.054,-0.063,-0.077
-0.025,0.05,0.075,-0.013,-0.05,0.062,0.046,-0.056,-0.1,-0.056,-0.067,-0.074
0.007,0.033,0.026,-0.02,-0.01,0.029,0.023,-0.053,-0.111,-0.055,-0.063,-0.069
0.037,0.026,-0.011,-0.032,0.024,0.007,0.009,-0.06,-0.14,-0.055,-0.067,-0.066
-0.009,0.013,0.022,-0.002,-0.015,0.017,0.001,-0.095,-0.166,-0.066,-0.062,-0.067
-0.069,-0.025,0.044,0.047,-0.057,0.009,0.008,-0.102,-0.174,-0.085,-0.078,-0.095
-0.094,-0.049,0.045,0.071,-0.069,-0.002,0.007,-0.129,-0.206,-0.118,-0.116,-0.122
-0.085,-0.042,0.043,0.064,-0.063,0.0,0.013,-0.127,-0.209,-0.128,-0.119,-0.124
-0.073,-0.047,0.026,0.06,-0.049,-0.01,0.014,-0.132,-0.206,-0.127,-0.122,-0.13
-0.082,-0.038,0.043,0.06,-0.063,0.003,0.016,-0.131,-0.206,-0.12,-0.121,-0.13
-0.105,-0.041,0.064,0.073,-0.085,0.011,0.021,-0.125,-0.2,-0.119,-0.127,-0.137
-0.107,-0.041,0.066,0.074,-0.087,0.012,0.018,-0.141,-0.207,-0.115,-0.124,-0.13
-0.108,-0.043,0.065,0.075,-0.086,0.01,0.025,-0.106,-0.189,-0.107,-0.119,-0.129
-0.107,-0.051,0.056,0.079,-0.082,0.002,0.021,-0.149,-0.214,-0.115,-0.117,-0.126
-0.111,-0.044,0.066,0.077,-0.089,0.011,0.03,-0.075,-0.171,-0.087,-0.101,-0.119
-0.105,-0.044,0.061,0.074,-0.083,0.009,0.02,-0.186,-0.23,-0.11,-0.11,-0.12
-0.107,0.03,0.137,0.038,-0.122,0.083,0.067,0.075,-0.031,0.014,-0.027,-0.075
0.063,0.065,0.002,-0.064,0.03,0.033,-0.041,0.03,0.233,0.4,0.287,0.127
0.676,0.441,-0.235,-0.558,0.456,0.102,-0.86,-1.552,-0.154,1.122,1.253,0.939
1.323,0.602,-0.721,-0.962,1.022,-0.059,-1.614,-2.234,-0.633,1.071,1.485,1.382
1.111,-0.012,-1.123,-0.549,1.117,-0.568,-1.224,-1.557,-0.998,-0.185,0.242,0.584
0.289,-0.167,-0.456,-0.061,0.373,-0.311,-0.386,-0.755,-0.702,-0.473,-0.251,-0.015
-0.025,-0.022,0.003,0.024,-0.014,-0.009,-0.042,-0.156,-0.121,-0.061,-0.064,-0.062
0.017,-0.023,-0.04,0.003,0.028,-0.032,0.006,-0.007,-0.035,-0.03,-0.078,-0.086
-0.012,0.021,0.033,-0.005,-0.023,0.027,0.05,0.07,0.023,0.022,-0.045,-0.072
-0.005,0.005,0.01,-0.001,-0.008,0.007,0.065,0.103,0.043,0.028,-0.057,-0.077
-0.027,0.026,0.053,0.0,-0.04,0.039,0.071,0.135,0.058,0.036,-0.039,-0.065
-0.033,0.025,0.058,0.004,-0.046,0.041,0.07,0.163,0.08,0.04,-0.034,-0.065
-0.018,0.034,0.052,-0.008,-0.036,0.043,0.072,0.185,0.099,0.056,-0.019,-0.059
-0.012,0.04,0.052,-0.015,-0.032,0.046,0.076,0.217,0.132,0.077,-0.003,-0.054
0.005,0.044,0.039,-0.025,-0.017,0.041,0.075,0.232,0.152,0.097,0.008,-0.046
0.016,0.057,0.041,-0.037,-0.013,0.049,0.071,0.265,0.193,0.134,0.026,-0.028
0.033,0.063,0.029,-0.048,0.002,0.046,0.066,0.294,0.216,0.154,0.039,-0.018
0.053,0.078,0.024,-0.066,0.014,0.051,0.062,0.34,0.255,0.18,0.063,-0.002
0.066,0.078,0.012,-0.072,0.027,0.045,0.058,0.392,0.302,0.207,0.072,0.01
0.113,0.106,-0.007,-0.109,0.06,0.049,0.053,0.454,0.358,0.25,0.102,0.037
0.135,0.131,-0.005,-0.133,0.07,0.063,0.039,0.522,0.424,0.293,0.138,0.061
0.148,0.137,-0.011,-0.142,0.079,0.063,0.024,0.602,0.496,0.347,0.169,0.086
0.198,0.17,-0.028,-0.183,0.112,0.07,0.015,0.687,0.575,0.406,0.213,0.122
0.241,0.199,-0.042,-0.22,0.141,0.078,0.005,0.759,0.656,0.469,0.267,0.165
0.315,0.247,-0.068,-0.281,0.191,0.089,-0.03,0.817,0.72,0.533,0.326,0.218
0.358,0.283,-0.075,-0.321,0.216,0.104,-0.059,0.831,0.762,0.585,0.374,0.265
0.396,0.298,-0.098,-0.347,0.247,0.1,-0.076,0.811,0.774,0.624,0.421,0.32
0.435,0.325,-0.11,-0.38,0.272,0.108,-0.106,0.79,0.758,0.625,0.445,0.349
0.413,0.324,-0.089,-0.368,0.251,0.117,-0.123,0.716,0.702,0.601,0.447,0.345
0.388,0.308,-0.079,-0.348,0.233,0.114,-0.124,0.597,0.601,0.548,0.42,0.339
0.324,0.26,-0.064,-0.292,0.194,0.098,-0.103,0.478,0.486,0.457,0.351,0.288
0.226,0.196,-0.03,-0.211,0.128,0.083,-0.072,0.341,0.345,0.354,0.267,0.21
0.138,0.144,0.006,-0.141,0.066,0.075,-0.045,0.21,0.208,0.252,0.175,0.14
0.073,0.099,0.027,-0.086,0.022,0.063,-0.022,0.113,0.107,0.168,0.096,0.075
0.025,0.06,0.036,-0.043,-0.006,0.048,-0.002,0.045,0.034,0.094,0.037,0.019
-0.023,0.032,0.055,-0.004,-0.039,0.043,0.024,-0.004,-0.021,0.043,-0.007,-0.024
-0.054,0.018,0.072,0.018,-0.064,0.045,0.039,-0.046,-0.072,0.013,-0.031,-0.04
-0.067,0.0,0.067,0.033,-0.067,0.033,0.04,-0.072,-0.097,-0.008,-0.049,-0.062
-0.077,-0.012,0.065,0.044,-0.071,0.026,0.04,-0.078,-0.111,-0.02,-0.06,-0.077
-0.09,-0.028,0.062,0.059,-0.075,0.017,0.04,-0.081,-0.124,-0.029,-0.066,-0.074
-0.081,-0.021,0.06,0.051,-0.07,0.019,0.04,-0.086,-0.134,-0.038,-0.066,-0.076
-0.081,-0.025,0.056,0.053,-0.068,0.015,0.04,-0.083,-0.146,-0.047,-0.054,-0.074
-0.107,-0.057,0.05,0.082,-0.078,-0.004,0.052,-0.091,-0.138,-0.047,-0.071,-0.085
-0.085,-0.04,0.045,0.062,-0.065,0.003,0.056,-0.098,-0.135,-0.044,-0.086,-0.091
-0.063,-0.023,0.04,0.042,-0.051,0.008,0.051,-0.089,-0.13,-0.042,-0.076,-0.089
-0.06,-0.027,0.033,0.043,-0.046,0.003,0.049,-0.083,-0.125,-0.038,-0.073,-0.09
-0.054,-0.022,0.031,0.038,-0.042,0.004,0.046,-0.076,-0.122,-0.036,-0.066,-0.09
-0.073,-0.022,0.051,0.047,-0.062,0.015,0.044,-0.073,-0.12,-0.034,-0.061,-0.09
-0.078,-0.017,0.061,0.048,-0.07,0.022,0.041,-0.07,-0.12,-0.03,-0.064,-0.087
-0.095,-0.037,0.058,0.065,-0.077,0.011,0.038,-0.065,-0.116,-0.03,-0.065,-0.084
-0.103,-0.052,0.051,0.077,-0.077,-0.001,0.036,-0.062,-0.114,-0.03,-0.065,-0.081
-0.104,-0.042,0.062,0.073,-0.082,0.01,0.032,-0.059,-0.117,-0.03,-0.065,-0.079
-0.123,-0.041,0.083,0.082,-0.103,0.021,0.03,-0.077,-0.119,-0.03,-0.065,-0.075
-0.112,-0.035,0.077,0.073,-0.094,0.021,0.032,-0.091,-0.122,-0.033,-0.066,-0.077
-0.105,-0.03,0.074,0.067,-0.089,0.021,0.04,-0.09,-0.135,-0.037,-0.07,-0.081
-0.106,-0.033,0.073,0.07,-0.089,0.019,0.044,-0.089,-0.149,-0.042,-0.072,-0.08
-0.102,-0.036,0.067,0.069,-0.084,0.015,0.047,-0.097,-0.154,-0.05,-0.075,-0.08
-0.113,-0.04,0.074,0.076,-0.093,0.017,0.05,-0.11,-0.155,-0.055,-0.079,-0.081
-0.123,-0.041,0.083,0.082,-0.103,0.021,0.052,-0.11,-0.155,-0.058,-0.08,-0.079
-0.12,-0.047,0.073,0.083,-0.096,0.013,0.056,-0.11,-0.155,-0.063,-0.084,-0.082
-0.109,-0.042,0.067,0.075,-0.088,0.012,0.052,-0.114,-0.157,-0.065,-0.085,-0.092
-0.106,-0.047,0.059,0.076,-0.083,0.006,0.049,-0.115,-0.162,-0.065,-0.085,-0.091
-0.111,-0.06,0.051,0.085,-0.08,-0.004,0.051,-0.114,-0.165,-0.065,-0.089,-0.089
-0.121,-0.053,0.068,0.087,-0.094,0.007,0.046,-0.11,-0.169,-0.065,-0.09,-0.091
-0.132,-0.049,0.083,0.09,-0.107,0.017,0.045,-0.11,-0.171,-0.065,-0.089,-0.089
-0.122,-0.043,0.079,0.082,-0.101,0.018,0.044,-0.11,-0.168,-0.059,-0.082,-0.091
-0.116,-0.038,0.079,0.077,-0.097,0.02,0.051,-0.11,-0.179,-0.052,-0.076,-0.085
-0.115,-0.031,0.083,0.073,-0.098,0.025,0.054,-0.11,-0.179,-0.046,-0.069,-0.077
-0.092,-0.019,0.073,0.055,-0.082,0.027,0.059,-0.104,-0.162,-0.039,-0.063,-0.069
-0.099,0.005,0.104,0.047,-0.101,0.054,0.063,-0.082,-0.143,-0.032,-0.052,-0.061
-0.093,0.032,0.125,0.03,-0.11,0.078,0.067,-0.064,-0.122,-0.019,-0.036,-0.054
-0.07,0.042,0.112,0.014,-0.091,0.077,0.102,-0.04,-0.104,-0.007,-0.034,-0.05
-0.051,0.052,0.103,-0.001,-0.078,0.077,0.084,-0.029,-0.08,0.0,-0.036,-0.051
-0.012,0.051,0.063,-0.02,-0.038,0.057,0.047,-0.065,-0.079,0.011,-0.034,-0.047
-0.023,0.035,0.058,-0.006,-0.041,0.047,0.047,-0.07,-0.101,0.012,-0.036,-0.045
-0.047,0.018,0.066,0.014,-0.057,0.042,0.039,-0.085,-0.12,-0.006,-0.034,-0.044
-0.072,-0.005,0.067,0.038,-0.069,0.031,0.035,-0.109,-0.143,-0.034,-0.045,-0.055
-0.116,-0.046,0.07,0.081,-0.093,0.012,0.028,-0.12,-0.177,-0.071,-0.079,-0.088
-0.132,-0.066,0.065,0.099,-0.098,-0.001,0.025,-0.14,-0.195,-0.076,-0.086,-0.099
-0.13,-0.066,0.064,0.097,-0.096,-0.001,0.031,-0.134,-0.196,-0.073,-0.084,-0.1
-0.126,-0.066,0.059,0.096,-0.092,-0.003,0.028,-0.149,-0.21,-0.082,-0.087,-0.101
-0.121,-0.061,0.059,0.091,-0.09,-0.001,0.034,-0.129,-0.194,-0.076,-0.077,-0.102
-0.122,-0.071,0.052,0.096,-0.087,-0.01,0.034,-0.153,-0.202,-0.086,-0.085,-0.108
-0.113,-0.056,0.057,0.085,-0.085,0.001,0.035,-0.128,-0.184,-0.067,-0.072,-0.1
-0.125,-0.08,0.045,0.103,-0.085,-0.017,0.039,-0.149,-0.192,-0.075,-0.082,-0.105
-0.157,-0.072,0.085,0.115,-0.121,0.006,0.05,-0.13,-0.178,-0.053,-0.067,-0.089
-0.148,-0.073,0.074,0.111,-0.111,0.0,0.04,-0.132,-0.186,-0.06,-0.077,-0.099
-0.133,-0.021,0.112,0.077,-0.122,0.045,0.037,-0.147,-0.189,-0.038,-0.039,-0.071
-0.08,0.028,0.107,0.025,-0.094,0.067,0.098,0.231,0.166,0.207,0.102,0.009
0.295,0.178,-0.117,-0.237,0.206,0.03,-0.356,-0.739,0.082,0.748,0.718,0.485
1.053,0.615,-0.438,-0.833,0.745,0.088,-1.342,-2.216,-0.456,1.226,1.538,1.298
1.341,0.279,-1.062,-0.81,1.202,-0.392,-1.546,-2.022,-0.897,0.378,0.837,1.024
0.649,-0.212,-0.861,-0.218,0.756,-0.537,-0.746,-1.187,-0.941,-0.508,-0.176,0.171
0.005,-0.08,-0.084,0.038,0.045,-0.082,-0.113,-0.405,-0.337,-0.184,-0.114,-0.034
-0.039,-0.053,-0.015,0.046,-0.012,-0.034,0.009,-0.052,-0.03,0.021,-0.037,-0.047
-0.033,-0.026,0.007,0.029,-0.02,-0.009,0.048,0.012,-0.003,0.04,-0.018,-0.046
-0.069,-0.018,0.051,0.043,-0.06,0.017,0.089,0.089,0.056,0.059,-0.008,-0.05
-0.065,-0.022,0.042,0.044,-0.053,0.01,0.1,0.104,0.054,0.048,-0.012,-0.056
-0.064,-0.006,0.058,0.035,-0.061,0.026,0.106,0.15,0.109,0.083,0.005,-0.041
-0.048,-0.013,0.035,0.03,-0.041,0.01,0.104,0.163,0.125,0.083,0.0,-0.044
-0.059,0.001,0.06,0.029,-0.059,0.031,0.105,0.2,0.161,0.115,0.024,-0.033
-0.067,0.001,0.068,0.032,-0.067,0.034,0.105,0.224,0.183,0.13,0.026,-0.026
-0.043,0.015,0.058,0.014,-0.051,0.036,0.105,0.25,0.205,0.148,0.049,-0.009
-0.018,0.021,0.039,-0.002,-0.029,0.03,0.101,0.291,0.239,0.165,0.064,0.003
0.0,0.03,0.029,-0.015,-0.015,0.03,0.095,0.318,0.268,0.191,0.076,0.018
0.016,0.038,0.022,-0.027,-0.003,0.03,0.089,0.368,0.323,0.226,0.1,0.032
0.044,0.055,0.011,-0.05,0.016,0.033,0.083,0.424,0.371,0.26,0.123,0.045
0.068,0.072,0.004,-0.07,0.032,0.038,0.079,0.489,0.428,0.299,0.147,0.067
0.088,0.095,0.007,-0.092,0.04,0.051,0.07,0.566,0.498,0.346,0.179,0.097
0.131,0.122,-0.009,-0.126,0.07,0.056,0.054,0.646,0.571,0.402,0.219,0.129
0.183,0.15,-0.033,-0.166,0.108,0.058,0.031,0.724,0.647,0.457,0.264,0.163
0.241,0.194,-0.047,-0.217,0.144,0.073,0.006,0.789,0.712,0.519,0.317,0.209
0.286,0.229,-0.057,-0.257,0.172,0.086,-0.024,0.833,0.773,0.577,0.374,0.258
0.33,0.266,-0.064,-0.298,0.197,0.101,-0.043,0.846,0.806,0.618,0.424,0.304
0.39,0.295,-0.095,-0.343,0.243,0.1,-0.069,0.825,0.798,0.638,0.466,0.354
0.404,0.306,-0.097,-0.355,0.25,0.104,-0.095,0.763,0.762,0.631,0.489,0.362
0.358,0.299,-0.06,-0.328,0.208,0.119,-0.085,0.656,0.682,0.59,0.467,0.35
0.311,0.262,-0.05,-0.286,0.181,0.106,-0.072,0.533,0.575,0.521,0.412,0.333
0.232,0.205,-0.027,-0.218,0.129,0.089,-0.051,0.409,0.45,0.426,0.332,0.259
0.124,0.138,0.014,-0.131,0.055,0.076,-0.018,0.284,0.319,0.322,0.243,0.183
0.069,0.094,0.026,-0.082,0.021,0.06,0.01,0.178,0.206,0.226,0.166,0.121
0.008,0.052,0.045,-0.03,-0.019,0.048,0.036,0.092,0.111,0.15,0.097,0.063
-0.059,0.004,0.062,0.027,-0.06,0.033,0.049,0.037,0.041,0.097,0.047,0.018
-0.077,-0.023,0.053,0.05,-0.065,0.015,0.063,0.008,-0.007,0.048,0.011,-0.017
-0.09,-0.025,0.066,0.057,-0.078,0.02,0.063,-0.028,-0.034,0.014,-0.01,-0.034
-0.121,-0.035,0.086,0.077,-0.103,0.025,0.058,-0.048,-0.045,0.002,-0.015,-0.045
-0.126,-0.043,0.082,0.084,-0.104,0.019,0.063,-0.057,-0.059,-0.004,-0.02,-0.053
-0.122,-0.043,0.079,0.082,-0.1,0.018,0.065,-0.067,-0.066,-0.011,-0.026,-0.059
-0.137,-0.063,0.074,0.1,-0.105,0.005,0.066,-0.065,-0.06,-0.018,-0.032,-0.064
-0.134,-0.066,0.068,0.1,-0.101,0.001,0.064,-0.063,-0.058,-0.024,-0.036,-0.065
-0.129,-0.064,0.065,0.096,-0.096,0.001,0.061,-0.06,-0.053,-0.029,-0.041,-0.065
-0.121,-0.061,0.059,0.091,-0.09,-0.001,0.059,-0.06,-0.05,-0.033,-0.044,-0.065
-0.116,-0.06,0.056,0.087,-0.086,-0.001,0.064,-0.057,-0.046,-0.037,-0.042,-0.065
-0.11,-0.059,0.051,0.085,-0.08,-0.004,0.071,-0.054,-0.04,-0.04,-0.039,-0.065
-0.104,-0.054,0.05,0.079,-0.077,-0.002,0.07,-0.051,-0.035,-0.04,-0.036,-0.065
-0.1,-0.056,0.045,0.078,-0.072,-0.005,0.07,-0.049,-0.03,-0.043,-0.034,-0.065
-0.101,-0.052,0.048,0.076,-0.074,-0.002,0.071,-0.045,-0.023,-0.046,-0.03,-0.065
-0.121,-0.05,0.071,0.086,-0.096,0.011,0.069,-0.046,-0.022,-0.045,-0.032,-0.065
-0.118,-0.05,0.069,0.084,-0.093,0.009,0.072,-0.051,-0.025,-0.049,-0.04,-0.065
-0.125,-0.054,0.071,0.09,-0.098,0.008,0.075,-0.05,-0.026,-0.051,-0.04,-0.069
-0.12,-0.056,0.064,0.087,-0.091,0.004,0.075,-0.054,-0.029,-0.05,-0.04,-0.07
-0.127,-0.061,0.066,0.094,-0.096,0.002,0.077,-0.06,-0.031,-0.051,-0.04,-0.07
-0.126,-0.062,0.064,0.093,-0.094,0.001,0.08,-0.06,-0.026,-0.065,-0.04,-0.075
-0.093,-0.066,0.027,0.079,-0.06,-0.019,0.08,-0.06,-0.024,-0.071,-0.041,-0.075
-0.153,-0.076,0.078,0.114,-0.115,0.001,0.076,-0.069,-0.045,-0.07,-0.046,-0.075
-0.165,-0.059,0.107,0.112,-0.136,0.024,0.075,-0.084,-0.058,-0.075,-0.051,-0.075
-0.135,-0.052,0.082,0.093,-0.108,0.015,0.075,-0.089,-0.053,-0.075,-0.054,-0.075
-0.137,-0.057,0.08,0.097,-0.108,0.011,0.07,-0.092,-0.06,-0.079,-0.059,-0.075
-0.123,-0.054,0.069,0.088,-0.095,0.007,0.07,-0.095,-0.06,-0.08,-0.06,-0.075
-0.121,-0.052,0.069,0.086,-0.095,0.008,0.069,-0.095,-0.06,-0.082,-0.06,-0.075
-0.115,-0.05,0.065,0.082,-0.09,0.007,0.065,-0.095,-0.065,-0.086,-0.065,-0.079
-0.11,-0.049,0.062,0.079,-0.086,0.006,0.065,-0.095,-0.065,-0.083,-0.065,-0.08
-0.117,-0.056,0.061,0.086,-0.089,0.003,0.065,-0.095,-0.065,-0.08,-0.064,-0.08
-0.126,-0.07,0.056,0.098,-0.091,-0.006,0.064,-0.095,-0.065,-0.077,-0.059,-0.08
-0.127,-0.071,0.056,0.099,-0.091,-0.007,0.066,-0.095,-0.065,-0.075,-0.056,-0.08
-0.118,-0.068,0.051,0.093,-0.085,-0.008,0.067,-0.088,-0.063,-0.071,-0.053,-0.079
-0.124,-0.075,0.049,0.099,-0.086,-0.013,0.073,-0.079,-0.052,-0.07,-0.048,-0.071
-0.136,-0.068,0.068,0.102,-0.102,0.0,0.087,-0.07,-0.042,-0.064,-0.045,-0.064
-0.112,-0.023,0.089,0.067,-0.1,0.033,0.089,-0.062,-0.033,-0.051,-0.04,-0.058
-0.083,0.013,0.096,0.034,-0.09,0.054,0.1,-0.051,-0.007,-0.04,-0.03,-0.051
-0.069,0.02,0.089,0.024,-0.079,0.054,0.13,-0.045,0.022,-0.023,-0.004,-0.042
-0.054,0.022,0.075,0.016,-0.064,0.048,0.131,-0.044,0.046,-0.003,0.007,-0.036
-0.048,0.016,0.065,0.016,-0.057,0.04,0.092,-0.046,0.035,0.008,-0.001,-0.04
-0.061,0.0,0.06,0.03,-0.06,0.03,0.044,-0.044,0.001,-0.002,-0.005,-0.043
-0.082,-0.025,0.057,0.053,-0.069,0.016,0.043,-0.05,-0.01,-0.014,-0.012,-0.047
-0.092,-0.037,0.055,0.064,-0.073,0.009,0.056,-0.073,-0.023,-0.034,-0.016,-0.049
-0.109,-0.058,0.052,0.084,-0.08,-0.003,0.058,-0.088,-0.045,-0.068,-0.04,-0.061
-0.131,-0.082,0.049,0.107,-0.09,-0.016,0.066,-0.111,-0.064,-0.081,-0.06,-0.081
-0.138,-0.083,0.055,0.11,-0.096,-0.014,0.065,-0.099,-0.059,-0.078,-0.059,-0.084
-0.144,-0.089,0.055,0.116,-0.099,-0.017,0.066,-0.113,-0.069,-0.082,-0.068,-0.086
-0.14,-0.075,0.065,0.107,-0.102,-0.004,0.063,-0.11,-0.066,-0.081,-0.065,-0.085
-0.16,-0.097,0.063,0.129,-0.111,-0.017,0.073,-0.111,-0.071,-0.099,-0.073,-0.093
-0.193,-0.1,0.093,0.147,-0.143,-0.003,0.094,-0.112,-0.07,-0.087,-0.061,-0.088
-0.182,-0.087,0.095,0.134,-0.138,0.004,0.099,-0.091,-0.051,-0.086,-0.064,-0.088
-0.169,-0.075,0.094,0.122,-0.131,0.009,0.096,-0.123,-0.07,-0.085,-0.058,-0.081
-0.176,-0.076,0.099,0.125,-0.137,0.012,0.109,-0.057,-0.024,-0.067,-0.052,-0.076
-0.165,-0.075,0.09,0.12,-0.127,0.007,0.094,-0.163,-0.087,-0.088,-0.052,-0.076
-0.153,0.011,0.164,0.071,-0.159,0.087,0.137,0.161,0.153,0.075,0.048,-0.031
0.075,0.06,-0.015,-0.068,0.045,0.022,-0.055,-0.114,0.354,0.487,0.419,0.233
0.75,0.463,-0.288,-0.606,0.519,0.087,-0.944,-1.752,-0.072,1.155,1.368,1.069
1.323,0.489,-0.834,-0.905,1.078,-0.172,-1.586,-2.205,-0.578,0.821,1.304,1.301
0.938,-0.123,-1.06,-0.407,0.999,-0.591,-1.052,-1.458,-0.87,-0.349,0.096,0.457
0.124,-0.181,-0.305,0.029,0.215,-0.243,-0.24,-0.629,-0.439,-0.355,-0.16,0.006
-0.084,-0.071,0.014,0.078,-0.049,-0.028,0.02,-0.083,0.066,-0.022,-0.005,-0.019
-0.061,-0.07,-0.008,0.065,-0.026,-0.039,0.069,0.025,0.126,-0.011,-0.003,-0.033
-0.111,-0.042,0.069,0.076,-0.09,0.014,0.114,0.111,0.179,0.05,0.04,-0.018
-0.093,-0.057,0.036,0.075,-0.064,-0.011,0.119,0.139,0.187,0.04,0.017,-0.03
-0.095,-0.035,0.06,0.065,-0.077,0.012,0.123,0.172,0.218,0.067,0.04,-0.021
-0.082,-0.038,0.044,0.06,-0.063,0.003,0.116,0.198,0.228,0.08,0.03,-0.025
-0.078,-0.026,0.052,0.052,-0.065,0.013,0.115,0.214,0.242,0.099,0.042,-0.011
-0.07,-0.021,0.049,0.045,-0.059,0.014,0.111,0.241,0.267,0.101,0.05,-0.003
-0.053,-0.012,0.041,0.033,-0.047,0.014,0.11,0.268,0.293,0.122,0.058,0.007
-0.041,-0.003,0.038,0.022,-0.039,0.017,0.107,0.305,0.328,0.153,0.078,0.018
-0.024,0.003,0.027,0.01,-0.026,0.015,0.099,0.333,0.358,0.166,0.089,0.027
-0.011,0.012,0.023,-0.001,-0.017,0.018,0.096,0.384,0.398,0.198,0.111,0.037
0.016,0.033,0.016,-0.025,0.0,0.024,0.089,0.432,0.439,0.229,0.132,0.051
0.044,0.052,0.008,-0.048,0.018,0.029,0.084,0.485,0.494,0.266,0.151,0.071
0.067,0.066,-0.001,-0.067,0.034,0.032,0.079,0.556,0.556,0.309,0.178,0.09
0.118,0.097,-0.022,-0.107,0.07,0.037,0.067,0.638,0.631,0.364,0.222,0.129
0.159,0.117,-0.043,-0.138,0.101,0.037,0.057,0.721,0.709,0.426,0.27,0.169
0.205,0.156,-0.049,-0.18,0.127,0.053,0.036,0.785,0.78,0.486,0.317,0.206
0.286,0.202,-0.084,-0.243,0.185,0.059,0.003,0.836,0.839,0.544,0.371,0.26
0.327,0.241,-0.086,-0.284,0.207,0.077,-0.025,0.863,0.892,0.598,0.418,0.304
0.355,0.273,-0.082,-0.314,0.218,0.095,-0.056,0.849,0.893,0.624,0.459,0.339
0.382,0.282,-0.1,-0.332,0.241,0.091,-0.079,0.798,0.861,0.631,0.474,0.372
0.363,0.275,-0.088,-0.319,0.225,0.093,-0.082,0.721,0.816,0.611,0.47,0.377
0.329,0.246,-0.083,-0.287,0.206,0.081,-0.077,0.611,0.72,0.55,0.45,0.356
0.265,0.202,-0.063,-0.233,0.164,0.069,-0.063,0.472,0.6,0.463,0.378,0.296
0.18,0.147,-0.033,-0.163,0.106,0.057,-0.036,0.345,0.466,0.355,0.289,0.223
0.107,0.09,-0.017,-0.098,0.062,0.036,-0.001,0.226,0.351,0.259,0.213,0.15
0.032,0.037,0.005,-0.034,0.014,0.021,0.044,0.141,0.259,0.178,0.141,0.09
-0.039,-0.003,0.036,0.02,-0.037,0.016,0.062,0.076,0.178,0.108,0.084,0.05
-0.095,-0.038,0.057,0.066,-0.076,0.009,0.072,0.024,0.13,0.057,0.046,0.011
-0.106,-0.058,0.048,0.082,-0.077,-0.005,0.082,0.002,0.109,0.031,0.022,-0.017
-0.13,-0.06,0.07,0.095,-0.1,0.005,0.079,-0.029,0.109,0.022,0.007,-0.037
-0.139,-0.065,0.074,0.102,-0.106,0.005,0.081,-0.05,0.105,0.002,-0.002,-0.045
-0.12,-0.065,0.055,0.092,-0.087,-0.004,0.08,-0.05,0.102,-0.013,-0.01,-0.045
-0.128,-0.066,0.062,0.097,-0.095,-0.001,0.08,-0.05,0.1,-0.018,-0.02,-0.045
-0.122,-0.063,0.059,0.093,-0.09,-0.002,0.08,-0.05,0.099,-0.027,-0.028,-0.045
-0.129,-0.069,0.061,0.099,-0.095,-0.004,0.08,-0.05,0.1,-0.028,-0.03,-0.045
-0.122,-0.063,0.059,0.092,-0.09,-0.002,0.08,-0.048,0.099,-0.025,-0.03,-0.045
-0.125,-0.071,0.054,0.098,-0.09,-0.008,0.08,-0.044,0.11,-0.026,-0.03,-0.045
-0.147,-0.091,0.056,0.119,-0.101,-0.017,0.08,-0.04,0.119,-0.021,-0.03,-0.045
-0.125,-0.073,0.052,0.099,-0.088,-0.01,0.082,-0.035,0.125,-0.02,-0.03,-0.045
-0.118,-0.068,0.05,0.093,-0.084,-0.009,0.087,-0.036,0.129,-0.02,-0.025,-0.045
-0.119,-0.069,0.05,0.094,-0.085,-0.01,0.09,-0.034,0.131,-0.015,-0.025,-0.046
-0.134,-0.081,0.053,0.107,-0.094,-0.013,0.085,-0.03,0.131,-0.016,-0.024,-0.049
-0.146,-0.091,0.056,0.118,-0.101,-0.017,0.085,-0.03,0.128,-0.014,-0.02,-0.051
-0.135,-0.081,0.054,0.108,-0.095,-0.013,0.084,-0.032,0.125,-0.01,-0.02,-0.056
-0.134,-0.078,0.056,0.106,-0.095,-0.011,0.079,-0.039,0.122,-0.01,-0.022,-0.053
-0.124,-0.071,0.054,0.097,-0.089,-0.008,0.081,-0.045,0.12,-0.012,-0.025,-0.05
-0.116,-0.067,0.05,0.091,-0.083,-0.008,0.077,-0.05,0.118,-0.019,-0.028,-0.05
-0.115,-0.064,0.051,0.09,-0.082,-0.006,0.075,-0.05,0.112,-0.024,-0.031,-0.05
-0.114,-0.066,0.047,0.09,-0.08,-0.009,0.075,-0.052,0.107,-0.03,-0.034,-0.05
-0.123,-0.079,0.045,0.101,-0.084,-0.017,0.071,-0.063,0.103,-0.035,-0.035,-0.05
-0.125,-0.08,0.045,0.102,-0.085,-0.017,0.069,-0.07,0.099,-0.035,-0.035,-0.055
-0.125,-0.08,0.045,0.102,-0.085,-0.017,0.071,-0.07,0.094,-0.036,-0.035,-0.054
-0.124,-0.079,0.045,0.101,-0.084,-0.017,0.074,-0.07,0.091,-0.04,-0.037,-0.059
-0.119,-0.075,0.045,0.096,-0.082,-0.015,0.075,-0.069,0.09,-0.04,-0.048,-0.07
-0.121,-0.075,0.046,0.098,-0.083,-0.015,0.075,-0.073,0.09,-0.04,-0.055,-0.07
-0.117,-0.075,0.042,0.095,-0.079,-0.016,0.075,-0.075,0.09,-0.04,-0.055,-0.07
-0.13,-0.075,0.055,0.103,-0.092,-0.01,0.075,-0.075,0.09,-0.04,-0.055,-0.07
-0.135,-0.074,0.06,0.104,-0.097,-0.007,0.075,-0.079,0.09,-0.04,-0.055,-0.07
-0.134,-0.08,0.054,0.107,-0.094,-0.013,0.075,-0.08,0.089,-0.04,-0.055,-0.07
-0.148,-0.088,0.06,0.118,-0.104,-0.014,0.075,-0.08,0.091,-0.04,-0.053,-0.07
-0.143,-0.083,0.06,0.113,-0.101,-0.011,0.075,-0.08,0.089,-0.034,-0.046,-0.07
-0.136,-0.076,0.06,0.105,-0.098,-0.007,0.08,-0.08,0.091,-0.027,-0.041,-0.064
-0.136,-0.069,0.066,0.102,-0.101,-0.001,0.08,-0.08,0.089,-0.021,-0.036,-0.057
-0.126,-0.062,0.064,0.094,-0.095,0.0,0.083,-0.081,0.096,-0.014,-0.029,-0.051
-0.117,-0.053,0.064,0.085,-0.091,0.005,0.1,-0.063,0.122,-0.008,-0.026,-0.044
-0.089,-0.032,0.057,0.06,-0.073,0.013,0.111,-0.045,0.137,-0.002,-0.014,-0.038
-0.08,-0.024,0.056,0.052,-0.068,0.016,0.14,-0.045,0.159,0.016,0.003,-0.037
-0.105,-0.026,0.079,0.065,-0.091,0.026,0.135,-0.044,0.172,0.031,0.005,-0.041
-0.068,-0.023,0.045,0.045,-0.056,0.011,0.07,-0.046,0.159,0.027,0.009,-0.04
-0.056,-0.039,0.017,0.047,-0.036,-0.011,0.048,-0.043,0.15,0.014,0.011,-0.043
-0.06,-0.043,0.017,0.051,-0.038,-0.013,0.05,-0.063,0.133,0.004,0.003,-0.047
-0.057,-0.052,0.005,0.054,-0.031,-0.023,0.055,-0.083,0.107,-0.012,-0.011,-0.043
-0.119,-0.093,0.026,0.106,-0.072,-0.034,0.076,-0.085,0.084,-0.049,-0.045,-0.066
-0.146,-0.108,0.038,0.126,-0.091,-0.035,0.076,-0.108,0.071,-0.062,-0.062,-0.087
-0.128,-0.096,0.032,0.112,-0.08,-0.031,0.075,-0.092,0.077,-0.066,-0.058,-0.084
-0.148,-0.112,0.036,0.129,-0.092,-0.037,0.07,-0.102,0.065,-0.08,-0.063,-0.087
-0.182,-0.126,0.056,0.154,-0.119,-0.035,0.069,-0.088,0.071,-0.066,-0.056,-0.082
-0.177,-0.133,0.045,0.155,-0.111,-0.044,0.065,-0.091,0.062,-0.073,-0.066,-0.088
-0.172,-0.119,0.053,0.145,-0.112,-0.033,0.065,-0.095,0.061,-0.059,-0.052,-0.079
-0.165,-0.125,0.04,0.144,-0.103,-0.042,0.073,-0.088,0.064,-0.063,-0.056,-0.081
-0.162,-0.114,0.047,0.137,-0.104,-0.033,0.072,-0.122,0.049,-0.056,-0.04,-0.07
-0.16,-0.111,0.049,0.136,-0.104,-0.031,0.085,-0.07,0.081,-0.051,-0.038,-0.071
-0.144,-0.092,0.052,0.118,-0.098,-0.02,0.064,-0.165,0.023,-0.063,-0.035,-0.064
-0.136,-0.033,0.103,0.085,-0.12,0.035,0.141,0.217,0.321,0.118,0.061,-0.018
0.129,0.018,-0.111,-0.074,0.119,-0.046,-0.091,-0.132,0.507,0.601,0.509,0.301
0.835,0.496,-0.339,-0.665,0.586,0.078,-1.038,-1.726,0.109,1.376,1.561,1.211
1.313,0.458,-0.855,-0.885,1.084,-0.199,-1.556,-2.031,-0.385,0.937,1.365,1.344
0.802,-0.171,-0.973,-0.315,0.888,-0.572,-0.93,-1.308,-0.708,-0.318,0.085,0.422
0.064,-0.171,-0.235,0.053,0.15,-0.203,-0.186,-0.542,-0.258,-0.299,-0.14,-0.013
-0.061,-0.097,-0.036,0.079,-0.012,-0.066,0.021,-0.061,0.206,0.014,-0.006,-0.036
-0.04,-0.088,-0.047,0.064,0.004,-0.067,0.064,0.019,0.243,0.023,0.004,-0.046
-0.061,-0.054,0.007,0.058,-0.033,-0.023,0.108,0.112,0.306,0.068,0.037,-0.035
-0.058,-0.076,-0.018,0.067,-0.019,-0.047,0.122,0.137,0.304,0.056,0.015,-0.045
-0.095,-0.048,0.047,0.071,-0.071,0.0,0.128,0.169,0.333,0.09,0.033,-0.037
-0.112,-0.074,0.038,0.093,-0.075,-0.018,0.123,0.19,0.34,0.088,0.019,-0.038
-0.104,-0.071,0.033,0.087,-0.069,-0.019,0.126,0.208,0.359,0.101,0.034,-0.023
-0.081,-0.061,0.02,0.071,-0.05,-0.021,0.124,0.239,0.389,0.125,0.047,-0.016
-0.069,-0.05,0.019,0.06,-0.044,-0.016,0.126,0.259,0.411,0.16,0.07,-0.002
-0.067,-0.044,0.023,0.055,-0.044,-0.011,0.119,0.291,0.443,0.176,0.079,0.009
-0.055,-0.039,0.017,0.047,-0.036,-0.011,0.107,0.321,0.469,0.194,0.093,0.022
-0.051,-0.027,0.024,0.039,-0.037,-0.002,0.096,0.364,0.516,0.224,0.121,0.04
-0.024,-0.009,0.015,0.017,-0.02,0.003,0.084,0.41,0.566,0.259,0.141,0.06
0.017,0.014,-0.003,-0.016,0.01,0.006,0.07,0.467,0.626,0.307,0.179,0.092
0.061,0.041,-0.02,-0.051,0.04,0.01,0.052,0.534,0.69,0.351,0.215,0.11
0.124,0.068,-0.056,-0.096,0.09,0.006,0.039,0.606,0.765,0.412,0.256,0.137
0.162,0.082,-0.08,-0.122,0.121,0.001,0.026,0.687,0.85,0.477,0.301,0.184
0.207,0.13,-0.077,-0.169,0.142,0.026,0.018,0.746,0.918,0.537,0.347,0.218
0.238,0.162,-0.076,-0.2,0.157,0.043,0.002,0.791,0.983,0.596,0.402,0.269
0.31,0.197,-0.113,-0.253,0.212,0.042,-0.026,0.812,1.024,0.659,0.469,0.337
0.374,0.245,-0.129,-0.309,0.251,0.058,-0.062,0.796,1.027,0.69,0.507,0.374
0.353,0.24,-0.113,-0.296,0.233,0.063,-0.073,0.76,1.005,0.688,0.518,0.392
0.33,0.224,-0.107,-0.277,0.218,0.059,-0.119,0.683,0.943,0.664,0.512,0.393
0.282,0.201,-0.082,-0.242,0.182,0.059,-0.11,0.573,0.843,0.598,0.477,0.365
