-0.095,0.075,0.17,0.01,-0.133,0.122,-0.065,0.555,0.05,0.08,0.25,-0.01
-0.096,0.072,0.168,0.012,-0.132,0.119,-0.065,0.555,0.05,0.08,0.25,-0.01
-0.096,0.066,0.162,0.015,-0.13,0.114,-0.065,0.555,0.05,0.08,0.25,-0.01
-0.096,0.061,0.157,0.017,-0.127,0.109,-0.061,0.554,0.05,0.08,0.25,-0.007
-0.098,0.054,0.152,0.022,-0.125,0.103,-0.06,0.555,0.05,0.08,0.25,-0.004
-0.093,0.052,0.144,0.02,-0.119,0.098,-0.06,0.554,0.05,0.079,0.249,-0.006
-0.101,0.055,0.156,0.023,-0.128,0.105,-0.055,0.55,0.05,0.076,0.245,-0.01
-0.107,0.05,0.157,0.028,-0.132,0.103,-0.055,0.55,0.05,0.071,0.241,-0.01
-0.091,0.045,0.136,0.023,-0.114,0.09,-0.055,0.548,0.05,0.068,0.239,-0.011
-0.087,0.039,0.126,0.023,-0.107,0.083,-0.055,0.545,0.05,0.065,0.234,-0.015
-0.091,0.033,0.124,0.028,-0.108,0.079,-0.055,0.544,0.05,0.06,0.231,-0.015
-0.096,0.029,0.125,0.033,-0.111,0.077,-0.053,0.547,0.053,0.062,0.227,-0.013
-0.101,0.024,0.125,0.038,-0.113,0.074,-0.048,0.55,0.055,0.065,0.221,-0.01
-0.107,0.019,0.125,0.043,-0.116,0.072,-0.042,0.55,0.055,0.065,0.216,-0.007
-0.109,0.015,0.124,0.047,-0.117,0.069,-0.039,0.549,0.055,0.065,0.211,-0.004
-0.105,0.01,0.115,0.047,-0.11,0.062,-0.033,0.55,0.055,0.065,0.205,0.0
-0.1,0.006,0.105,0.047,-0.103,0.055,-0.03,0.549,0.054,0.064,0.2,0.0
-0.105,0.0,0.105,0.052,-0.105,0.053,-0.035,0.545,0.051,0.061,0.195,-0.005
-0.112,-0.008,0.104,0.059,-0.107,0.048,-0.035,0.539,0.048,0.056,0.191,-0.005
-0.109,-0.015,0.095,0.062,-0.102,0.04,-0.037,0.535,0.046,0.054,0.189,-0.006
-0.105,-0.019,0.086,0.061,-0.095,0.033,-0.04,0.531,0.042,0.049,0.184,-0.01
-0.087,-0.015,0.072,0.05,-0.079,0.028,-0.041,0.526,0.039,0.045,0.18,-0.01
-0.086,-0.008,0.078,0.046,-0.082,0.035,-0.036,0.527,0.044,0.045,0.177,-0.008
-0.086,-0.006,0.08,0.046,-0.082,0.036,-0.029,0.535,0.055,0.045,0.174,-0.005
-0.065,0.002,0.067,0.031,-0.066,0.035,-0.018,0.535,0.058,0.046,0.175,-0.001
-0.076,0.001,0.077,0.037,-0.077,0.039,-0.013,0.537,0.065,0.055,0.174,-0.001
-0.056,0.022,0.077,0.017,-0.067,0.049,0.011,0.588,0.094,0.082,0.194,0.023
0.021,0.053,0.032,-0.037,-0.005,0.042,0.019,0.631,0.123,0.107,0.217,0.047
0.074,0.05,-0.024,-0.062,0.049,0.013,-0.042,0.621,0.138,0.098,0.208,0.041
0.044,0.019,-0.025,-0.031,0.035,-0.003,-0.057,0.582,0.105,0.081,0.191,0.033
-0.017,-0.026,-0.009,0.022,-0.003,-0.017,-0.034,0.555,0.071,0.071,0.182,0.029
-0.019,-0.024,-0.006,0.022,-0.006,-0.015,-0.032,0.54,0.063,0.049,0.166,0.019
-0.059,-0.049,0.011,0.054,-0.035,-0.019,-0.019,0.533,0.061,0.04,0.159,0.016
-0.121,-0.104,0.017,0.112,-0.069,-0.043,-0.015,0.525,0.052,0.026,0.138,0.009
-0.118,-0.091,0.027,0.104,-0.072,-0.032,-0.004,0.52,0.052,0.024,0.125,0.005
-0.094,-0.098,-0.003,0.096,-0.045,-0.05,0.001,0.527,0.049,0.016,0.114,0.004
-0.104,-0.095,0.009,0.099,-0.056,-0.042,0.014,0.505,0.039,0.003,0.104,-0.008
-0.103,-0.092,0.011,0.098,-0.056,-0.04,0.015,0.533,0.048,0.01,0.108,0.003
-0.118,-0.101,0.017,0.109,-0.067,-0.042,0.002,0.502,0.036,-0.003,0.084,-0.006
-0.191,-0.085,0.106,0.138,-0.148,0.01,0.191,0.821,0.151,0.05,0.095,-0.056
0.01,0.017,0.007,-0.014,0.001,0.012,0.2,0.983,0.335,0.209,0.217,0.025
0.563,0.608,0.045,-0.585,0.259,0.326,-0.445,0.094,0.602,0.771,0.905,0.681
0.743,0.808,0.066,-0.776,0.338,0.437,-1.054,-0.857,0.305,0.711,1.137,1.093
0.36,0.207,-0.153,-0.283,0.256,0.027,-0.863,-0.826,-0.392,-0.138,0.364,0.521
0.068,-0.071,-0.139,0.002,0.104,-0.105,-0.308,0.04,-0.229,-0.17,0.112,0.127
-0.031,-0.096,-0.065,0.064,0.017,-0.08,-0.038,0.55,0.055,0.007,0.141,0.074
-0.057,-0.111,-0.053,0.084,-0.002,-0.082,0.034,0.596,0.055,-0.011,0.095,0.012
-0.049,-0.093,-0.044,0.071,-0.002,-0.068,0.057,0.655,0.082,0.039,0.13,0.021
-0.063,-0.12,-0.057,0.091,-0.003,-0.088,0.065,0.649,0.073,0.012,0.098,0.003
-0.062,-0.115,-0.054,0.089,-0.004,-0.084,0.084,0.678,0.111,0.039,0.118,0.014
-0.07,-0.115,-0.045,0.092,-0.012,-0.079,0.076,0.683,0.105,0.03,0.106,0.004
-0.06,-0.107,-0.047,0.084,-0.006,-0.077,0.074,0.691,0.114,0.041,0.117,0.005
-0.07,-0.105,-0.036,0.088,-0.017,-0.07,0.073,0.707,0.118,0.044,0.118,0.007
-0.07,-0.098,-0.027,0.084,-0.022,-0.062,0.066,0.715,0.118,0.046,0.121,0.01
-0.047,-0.112,-0.065,0.08,0.009,-0.089,0.081,0.73,0.127,0.052,0.126,0.018
-0.044,-0.112,-0.068,0.078,0.012,-0.089,0.096,0.764,0.138,0.06,0.12,0.019
0.0,-0.089,-0.088,0.045,0.044,-0.088,0.095,0.782,0.148,0.068,0.121,0.026
0.01,-0.109,-0.12,0.05,0.065,-0.114,0.1,0.791,0.161,0.055,0.119,0.028
-0.01,-0.112,-0.102,0.061,0.046,-0.107,0.1,0.819,0.174,0.076,0.138,0.042
0.023,-0.096,-0.119,0.036,0.071,-0.107,0.097,0.85,0.185,0.094,0.143,0.05
0.007,-0.096,-0.103,0.044,0.055,-0.099,0.087,0.893,0.209,0.116,0.162,0.061
0.007,-0.081,-0.088,0.037,0.048,-0.085,0.09,0.939,0.222,0.142,0.189,0.072
0.088,-0.047,-0.135,-0.02,0.112,-0.091,0.113,0.984,0.257,0.161,0.201,0.09
0.13,-0.005,-0.135,-0.062,0.133,-0.07,0.115,1.025,0.286,0.19,0.22,0.112
0.173,0.016,-0.158,-0.094,0.165,-0.071,0.115,1.061,0.316,0.218,0.255,0.14
0.188,0.015,-0.173,-0.102,0.181,-0.079,0.11,1.082,0.351,0.246,0.287,0.172
0.216,0.048,-0.168,-0.132,0.191,-0.06,0.086,1.088,0.358,0.272,0.312,0.199
0.25,0.074,-0.176,-0.162,0.213,-0.051,0.069,1.077,0.36,0.284,0.335,0.235
0.238,0.066,-0.172,-0.151,0.205,-0.053,0.054,1.033,0.356,0.279,0.337,0.236
0.233,0.054,-0.18,-0.143,0.206,-0.063,0.043,0.954,0.338,0.264,0.324,0.219
0.161,0.029,-0.132,-0.095,0.146,-0.051,0.039,0.864,0.292,0.219,0.286,0.206
0.097,-0.015,-0.112,-0.041,0.105,-0.063,0.037,0.771,0.223,0.154,0.227,0.156
0.022,-0.075,-0.098,0.027,0.06,-0.086,0.034,0.695,0.173,0.106,0.175,0.105
-0.01,-0.099,-0.089,0.055,0.039,-0.094,0.031,0.646,0.139,0.076,0.136,0.076
-0.014,-0.128,-0.114,0.071,0.05,-0.121,0.029,0.614,0.113,0.048,0.105,0.051
-0.064,-0.156,-0.092,0.111,0.014,-0.124,0.025,0.605,0.092,0.03,0.085,0.038
-0.04,-0.156,-0.116,0.099,0.038,-0.136,0.025,0.594,0.076,0.019,0.074,0.031
-0.046,-0.175,-0.13,0.111,0.042,-0.152,0.023,0.587,0.071,0.007,0.062,0.024
-0.059,-0.179,-0.12,0.119,0.031,-0.149,0.021,0.582,0.066,0.005,0.06,0.016
-0.057,-0.187,-0.13,0.123,0.036,-0.158,0.018,0.576,0.063,0.005,0.06,0.009
-0.053,-0.173,-0.12,0.114,0.033,-0.146,0.025,0.571,0.057,0.001,0.06,0.002
-0.046,-0.178,-0.133,0.112,0.044,-0.155,0.042,0.564,0.054,0.0,0.06,0.0
-0.072,-0.202,-0.129,0.137,0.029,-0.165,0.047,0.575,0.056,0.0,0.059,0.0
-0.068,-0.186,-0.118,0.127,0.026,-0.152,0.048,0.586,0.054,-0.005,0.055,-0.004
-0.067,-0.207,-0.14,0.137,0.036,-0.174,0.052,0.587,0.066,-0.005,0.05,-0.005
-0.075,-0.213,-0.137,0.144,0.031,-0.175,0.054,0.592,0.077,-0.006,0.045,-0.005
-0.076,-0.207,-0.131,0.142,0.028,-0.169,0.055,0.594,0.079,-0.001,0.042,0.012
-0.084,-0.213,-0.128,0.149,0.022,-0.17,0.067,0.591,0.08,0.014,0.035,0.027
-0.086,-0.208,-0.122,0.147,0.018,-0.164,0.07,0.589,0.079,0.015,0.043,0.024
-0.095,-0.214,-0.119,0.154,0.012,-0.167,0.064,0.59,0.08,0.015,0.052,0.025
-0.101,-0.214,-0.113,0.158,0.007,-0.164,0.063,0.589,0.08,0.015,0.047,0.025
-0.105,-0.215,-0.11,0.16,0.003,-0.162,0.056,0.59,0.08,0.015,0.045,0.025
-0.114,-0.218,-0.105,0.166,-0.004,-0.161,0.056,0.588,0.079,0.015,0.041,0.025
-0.12,-0.22,-0.101,0.17,-0.009,-0.161,0.06,0.583,0.075,0.01,0.04,0.02
-0.125,-0.219,-0.095,0.172,-0.015,-0.157,0.06,0.578,0.075,0.005,0.037,0.017
-0.11,-0.215,-0.105,0.163,-0.002,-0.16,0.06,0.574,0.075,0.0,0.034,0.013
-0.1,-0.215,-0.115,0.157,0.008,-0.165,0.06,0.57,0.075,-0.004,0.036,0.01
-0.11,-0.214,-0.104,0.162,-0.002,-0.159,0.06,0.565,0.075,-0.009,0.034,0.005
-0.11,-0.21,-0.1,0.16,-0.005,-0.155,0.059,0.561,0.071,-0.01,0.035,0.007
-0.117,-0.21,-0.092,0.164,-0.013,-0.151,0.055,0.554,0.066,-0.01,0.034,0.012
-0.128,-0.213,-0.085,0.171,-0.022,-0.149,0.052,0.55,0.061,-0.01,0.029,0.014
-0.114,-0.215,-0.101,0.165,-0.006,-0.158,0.05,0.544,0.058,-0.01,0.026,0.011
-0.094,-0.207,-0.113,0.151,0.01,-0.16,0.046,0.538,0.052,-0.01,0.022,0.006
-0.095,-0.2,-0.105,0.148,0.005,-0.152,0.045,0.535,0.051,-0.01,0.019,0.004
-0.092,-0.196,-0.104,0.144,0.006,-0.15,0.042,0.534,0.055,-0.015,0.014,-0.001
-0.083,-0.183,-0.1,0.133,0.009,-0.141,0.039,0.547,0.055,-0.015,0.022,-0.004
-0.118,-0.211,-0.093,0.165,-0.012,-0.152,0.041,0.548,0.055,-0.015,0.033,-0.005
-0.131,-0.239,-0.109,0.185,-0.011,-0.174,0.039,0.542,0.055,-0.016,0.029,-0.005
-0.111,-0.233,-0.122,0.172,0.006,-0.177,0.041,0.538,0.055,-0.014,0.023,-0.005
-0.116,-0.236,-0.12,0.176,0.003,-0.177,0.038,0.534,0.059,-0.022,0.02,-0.005
-0.117,-0.235,-0.118,0.176,0.001,-0.176,0.046,0.529,0.06,-0.032,0.014,-0.005
-0.105,-0.235,-0.13,0.171,0.013,-0.182,0.057,0.527,0.06,-0.03,0.01,-0.006
-0.087,-0.231,-0.144,0.16,0.028,-0.188,0.053,0.524,0.06,-0.026,0.013,-0.005
-0.092,-0.224,-0.132,0.158,0.02,-0.178,0.052,0.518,0.06,-0.026,0.018,-0.006
-0.068,-0.218,-0.15,0.143,0.041,-0.183,0.047,0.533,0.061,-0.019,0.023,-0.001
-0.046,-0.195,-0.15,0.121,0.052,-0.172,0.069,0.559,0.072,0.009,0.035,0.016
-0.056,-0.167,-0.112,0.112,0.028,-0.139,0.074,0.612,0.106,0.041,0.067,0.048
0.012,-0.14,-0.152,0.064,0.082,-0.145,0.034,0.625,0.131,0.048,0.09,0.069
0.044,-0.143,-0.187,0.05,0.116,-0.164,0.024,0.593,0.104,0.034,0.073,0.053
0.0,-0.184,-0.185,0.092,0.093,-0.184,0.024,0.568,0.077,0.024,0.057,0.038
-0.043,-0.211,-0.168,0.127,0.063,-0.189,0.036,0.567,0.061,0.002,0.041,0.025
-0.079,-0.21,-0.131,0.145,0.027,-0.17,0.065,0.545,0.043,-0.009,0.021,0.009
-0.087,-0.242,-0.156,0.165,0.035,-0.199,0.064,0.512,0.042,-0.011,0.009,-0.006
-0.13,-0.266,-0.135,0.198,0.002,-0.2,0.058,0.492,0.036,-0.026,-0.003,-0.022
-0.123,-0.254,-0.131,0.188,0.004,-0.192,0.06,0.468,0.044,-0.021,0.006,-0.022
-0.117,-0.267,-0.151,0.192,0.017,-0.209,0.048,0.5,0.026,-0.043,-0.013,-0.033
-0.131,-0.251,-0.12,0.191,-0.006,-0.185,0.056,0.243,0.045,-0.02,0.001,-0.033
-0.129,-0.27,-0.141,0.2,0.006,-0.206,0.039,-0.255,0.029,-0.024,-0.021,-0.043
-0.208,-0.238,-0.03,0.224,-0.089,-0.134,0.136,-0.226,0.074,-0.003,-0.04,-0.055
-0.105,-0.204,-0.099,0.155,-0.002,-0.151,0.322,0.183,0.236,0.071,-0.011,-0.083
0.34,0.134,-0.206,-0.237,0.273,-0.036,-0.031,-0.196,0.476,0.449,0.425,0.309
0.733,0.686,-0.047,-0.71,0.39,0.319,-0.764,-1.31,0.525,0.826,1.051,1.005
0.506,0.338,-0.167,-0.422,0.336,0.085,-0.937,-1.855,-0.166,0.147,0.572,0.779
0.088,-0.188,-0.275,0.051,0.182,-0.231,-0.479,-1.24,-0.423,-0.315,-0.003,0.187
-0.025,-0.208,-0.184,0.117,0.08,-0.196,-0.072,-0.454,-0.052,-0.07,0.045,0.069
-0.062,-0.226,-0.164,0.144,0.051,-0.195,0.046,-0.274,0.017,-0.047,-0.01,0.014
-0.053,-0.232,-0.179,0.142,0.063,-0.205,0.092,-0.219,0.056,-0.011,0.0,-0.006
-0.073,-0.254,-0.181,0.164,0.054,-0.217,0.108,-0.189,0.056,-0.015,-0.013,-0.021
-0.079,-0.25,-0.171,0.165,0.046,-0.21,0.103,-0.177,0.058,-0.014,-0.016,-0.023
-0.071,-0.246,-0.174,0.159,0.052,-0.21,0.121,-0.149,0.078,-0.003,-0.003,-0.012
-0.081,-0.247,-0.166,0.164,0.043,-0.206,0.126,-0.138,0.074,-0.011,-0.008,-0.014
-0.062,-0.242,-0.18,0.152,0.06,-0.211,0.124,-0.11,0.088,0.002,0.006,-0.004
-0.047,-0.247,-0.2,0.147,0.077,-0.223,0.126,-0.109,0.084,-0.003,0.002,-0.004
-0.043,-0.243,-0.2,0.143,0.079,-0.221,0.124,-0.099,0.096,0.012,0.013,0.004
-0.048,-0.245,-0.197,0.147,0.075,-0.221,0.125,-0.096,0.102,0.009,0.014,0.008
-0.037,-0.232,-0.195,0.135,0.08,-0.213,0.146,-0.078,0.11,0.03,0.024,0.017
-0.026,-0.22,-0.194,0.124,0.084,-0.207,0.157,-0.051,0.122,0.035,0.028,0.022
-0.013,-0.21,-0.196,0.112,0.092,-0.203,0.154,-0.034,0.13,0.038,0.036,0.03
-0.007,-0.2,-0.193,0.104,0.093,-0.196,0.156,0.006,0.141,0.058,0.042,0.035
0.01,-0.19,-0.199,0.091,0.105,-0.194,0.155,0.04,0.151,0.062,0.05,0.042
0.044,-0.183,-0.227,0.07,0.136,-0.205,0.155,0.065,0.167,0.083,0.063,0.053
0.063,-0.168,-0.232,0.053,0.148,-0.2,0.151,0.099,0.195,0.103,0.077,0.057
0.092,-0.136,-0.228,0.022,0.16,-0.182,0.15,0.145,0.225,0.137,0.113,0.091
0.137,-0.095,-0.232,-0.021,0.184,-0.163,0.147,0.19,0.258,0.176,0.142,0.122
0.17,-0.058,-0.228,-0.056,0.199,-0.143,0.144,0.212,0.29,0.207,0.172,0.15
0.195,-0.037,-0.233,-0.079,0.214,-0.135,0.143,0.232,0.316,0.239,0.204,0.178
0.215,-0.028,-0.244,-0.093,0.229,-0.136,0.132,0.23,0.323,0.255,0.231,0.203
0.21,-0.031,-0.241,-0.089,0.225,-0.136,0.125,0.195,0.316,0.254,0.24,0.217
0.205,-0.028,-0.233,-0.088,0.219,-0.131,0.125,0.151,0.292,0.241,0.232,0.209
0.19,-0.039,-0.229,-0.075,0.21,-0.134,0.125,0.077,0.248,0.214,0.212,0.202
0.14,-0.08,-0.22,-0.03,0.18,-0.149,0.125,-0.009,0.201,0.16,0.164,0.162
0.09,-0.121,-0.21,0.016,0.15,-0.165,0.124,-0.083,0.15,0.106,0.107,0.109
0.029,-0.171,-0.199,0.071,0.114,-0.185,0.128,-0.143,0.106,0.056,0.06,0.067
-0.002,-0.192,-0.19,0.097,0.094,-0.191,0.13,-0.176,0.072,0.015,0.019,0.023
-0.023,-0.204,-0.182,0.114,0.08,-0.193,0.131,-0.197,0.047,-0.006,-0.015,0.001
-0.062,-0.236,-0.174,0.149,0.056,-0.204,0.136,-0.21,0.031,-0.023,-0.02,-0.003
-0.075,-0.242,-0.166,0.159,0.046,-0.204,0.135,-0.215,0.015,-0.034,-0.026,-0.006
-0.082,-0.238,-0.156,0.16,0.037,-0.197,0.135,-0.22,0.006,-0.041,-0.039,-0.009
-0.07,-0.238,-0.168,0.154,0.049,-0.203,0.135,-0.22,-0.001,-0.049,-0.042,-0.014
-0.056,-0.233,-0.177,0.145,0.061,-0.205,0.135,-0.22,-0.008,-0.05,-0.048,-0.016
-0.062,-0.236,-0.174,0.149,0.056,-0.205,0.135,-0.22,-0.016,-0.05,-0.048,-0.024
-0.073,-0.245,-0.172,0.16,0.049,-0.208,0.135,-0.22,-0.023,-0.05,-0.058,-0.036
-0.072,-0.241,-0.169,0.156,0.049,-0.205,0.135,-0.218,-0.022,-0.05,-0.066,-0.036
-0.061,-0.231,-0.17,0.146,0.055,-0.2,0.135,-0.211,-0.019,-0.05,-0.065,-0.035
-0.043,-0.208,-0.165,0.126,0.061,-0.186,0.135,-0.206,-0.016,-0.05,-0.065,-0.035
-0.059,-0.224,-0.165,0.142,0.053,-0.194,0.135,-0.2,-0.014,-0.05,-0.065,-0.031
-0.079,-0.243,-0.164,0.161,0.043,-0.203,0.133,-0.195,-0.01,-0.05,-0.073,-0.029
-0.059,-0.218,-0.159,0.139,0.05,-0.189,0.128,-0.195,-0.011,-0.05,-0.076,-0.032
-0.061,-0.221,-0.16,0.141,0.05,-0.19,0.125,-0.193,-0.026,-0.05,-0.075,-0.035
-0.06,-0.22,-0.16,0.14,0.05,-0.19,0.121,-0.19,-0.031,-0.05,-0.072,-0.036
-0.055,-0.215,-0.16,0.135,0.053,-0.187,0.117,-0.189,-0.029,-0.05,-0.07,-0.039
-0.055,-0.215,-0.16,0.135,0.053,-0.187,0.115,-0.193,-0.031,-0.05,-0.07,-0.041
-0.061,-0.216,-0.155,0.139,0.048,-0.185,0.109,-0.202,-0.028,-0.05,-0.065,-0.036
-0.069,-0.22,-0.151,0.145,0.041,-0.186,0.118,-0.206,-0.036,-0.05,-0.065,-0.035
-0.075,-0.223,-0.149,0.149,0.037,-0.186,0.126,-0.204,-0.05,-0.049,-0.065,-0.035
-0.081,-0.225,-0.144,0.154,0.032,-0.184,0.118,-0.205,-0.05,-0.058,-0.065,-0.035
-0.083,-0.225,-0.142,0.154,0.029,-0.183,0.115,-0.205,-0.05,-0.066,-0.065,-0.035
-0.094,-0.229,-0.135,0.162,0.021,-0.182,0.11,-0.205,-0.05,-0.067,-0.067,-0.036
-0.084,-0.23,-0.146,0.158,0.031,-0.188,0.104,-0.207,-0.049,-0.07,-0.073,-0.041
-0.073,-0.228,-0.156,0.151,0.042,-0.192,0.114,-0.21,-0.052,-0.073,-0.082,-0.044
-0.077,-0.225,-0.148,0.151,0.036,-0.186,0.121,-0.213,-0.056,-0.075,-0.086,-0.049
-0.08,-0.225,-0.145,0.153,0.033,-0.185,0.115,-0.216,-0.054,-0.078,-0.084,-0.05
-0.083,-0.223,-0.14,0.153,0.029,-0.181,0.113,-0.219,-0.056,-0.081,-0.085,-0.05
-0.084,-0.219,-0.135,0.152,0.026,-0.176,0.108,-0.22,-0.059,-0.079,-0.084,-0.05
-0.083,-0.221,-0.138,0.152,0.028,-0.18,0.105,-0.215,-0.061,-0.081,-0.086,-0.05
-0.077,-0.215,-0.138,0.146,0.03,-0.176,0.102,-0.206,-0.06,-0.08,-0.083,-0.05
-0.085,-0.211,-0.126,0.148,0.021,-0.169,0.101,-0.202,-0.06,-0.08,-0.076,-0.041
-0.069,-0.203,-0.134,0.136,0.033,-0.168,0.114,-0.191,-0.061,-0.069,-0.071,-0.034
-0.044,-0.2,-0.155,0.123,0.056,-0.177,0.121,-0.191,-0.056,-0.061,-0.064,-0.024
-0.039,-0.191,-0.152,0.115,0.056,-0.171,0.125,-0.173,-0.045,-0.061,-0.061,-0.019
-0.008,-0.151,-0.143,0.08,0.068,-0.147,0.129,-0.13,-0.014,-0.033,-0.04,-0.003
0.043,-0.112,-0.156,0.035,0.1,-0.134,0.115,-0.11,0.012,-0.004,-0.017,0.021
0.065,-0.107,-0.172,0.022,0.118,-0.139,0.102,-0.132,0.003,-0.014,-0.029,0.01
0.013,-0.154,-0.166,0.071,0.09,-0.16,0.103,-0.177,-0.025,-0.049,-0.049,-0.003
-0.041,-0.182,-0.141,0.112,0.05,-0.161,0.098,-0.184,-0.057,-0.074,-0.065,-0.021
-0.061,-0.199,-0.139,0.13,0.039,-0.169,0.096,-0.204,-0.078,-0.085,-0.083,-0.043
-0.074,-0.223,-0.149,0.149,0.037,-0.185,0.095,-0.225,-0.098,-0.1,-0.101,-0.052
-0.089,-0.215,-0.127,0.152,0.019,-0.171,0.088,-0.24,-0.104,-0.103,-0.108,-0.061
-0.077,-0.211,-0.134,0.144,0.029,-0.172,0.089,-0.233,-0.093,-0.094,-0.1,-0.064
-0.076,-0.212,-0.136,0.144,0.03,-0.174,0.076,-0.246,-0.109,-0.108,-0.111,-0.067
-0.091,-0.2,-0.109,0.146,0.009,-0.154,0.084,-0.212,-0.088,-0.09,-0.098,-0.063
-0.087,-0.212,-0.126,0.15,0.02,-0.169,0.068,-0.226,-0.115,-0.111,-0.109,-0.064
-0.14,-0.217,-0.077,0.179,-0.032,-0.147,0.163,-0.098,-0.061,-0.092,-0.118,-0.096
-0.063,-0.219,-0.156,0.141,0.047,-0.187,0.344,0.373,0.104,-0.021,-0.14,-0.177
0.363,0.214,-0.149,-0.288,0.255,0.033,0.031,0.09,0.439,0.484,0.414,0.319
0.632,0.802,0.17,-0.717,0.231,0.486,-0.596,-1.054,0.508,0.901,1.116,1.088
0.277,0.438,0.162,-0.358,0.058,0.3,-0.751,-1.726,-0.306,0.072,0.476,0.743
-0.022,-0.111,-0.089,0.066,0.033,-0.1,-0.399,-1.161,-0.593,-0.422,-0.163,0.102
0.004,-0.171,-0.176,0.084,0.09,-0.173,-0.062,-0.35,-0.202,-0.141,-0.078,-0.006
-0.034,-0.18,-0.146,0.107,0.056,-0.163,0.069,-0.183,-0.116,-0.111,-0.102,-0.045
-0.037,-0.161,-0.124,0.1,0.043,-0.142,0.093,-0.14,-0.091,-0.078,-0.077,-0.044
-0.033,-0.161,-0.128,0.097,0.048,-0.144,0.11,-0.097,-0.094,-0.075,-0.082,-0.056
-0.038,-0.153,-0.115,0.096,0.038,-0.133,0.133,-0.079,-0.084,-0.07,-0.077,-0.056
-0.032,-0.145,-0.113,0.089,0.041,-0.128,0.127,-0.071,-0.075,-0.063,-0.067,-0.048
-0.026,-0.143,-0.117,0.084,0.046,-0.13,0.121,-0.076,-0.074,-0.066,-0.071,-0.05
0.001,-0.125,-0.127,0.062,0.064,-0.126,0.114,-0.067,-0.061,-0.055,-0.057,-0.041
-0.006,-0.13,-0.125,0.069,0.06,-0.127,0.11,-0.07,-0.061,-0.057,-0.06,-0.042
0.0,-0.122,-0.122,0.061,0.061,-0.122,0.108,-0.044,-0.047,-0.042,-0.05,-0.035
0.013,-0.108,-0.121,0.047,0.067,-0.114,0.104,-0.023,-0.042,-0.039,-0.049,-0.031
0.006,-0.111,-0.116,0.053,0.061,-0.114,0.102,-0.013,-0.032,-0.028,-0.043,-0.025
0.026,-0.106,-0.132,0.04,0.079,-0.119,0.098,0.003,-0.023,-0.021,-0.036,-0.019
0.046,-0.105,-0.151,0.03,0.099,-0.127,0.109,0.013,-0.011,-0.007,-0.025,-0.014
0.037,-0.105,-0.142,0.034,0.09,-0.123,0.114,0.037,0.005,0.008,-0.013,-0.007
0.047,-0.088,-0.135,0.021,0.091,-0.111,0.105,0.079,0.015,0.019,0.002,0.012
0.088,-0.059,-0.147,-0.014,0.118,-0.103,0.099,0.101,0.031,0.035,0.016,0.033
0.127,-0.031,-0.158,-0.048,0.143,-0.094,0.092,0.141,0.057,0.055,0.044,0.05
0.143,-0.001,-0.143,-0.071,0.143,-0.071,0.086,0.183,0.087,0.087,0.079,0.074
0.159,0.023,-0.135,-0.091,0.147,-0.056,0.08,0.209,0.124,0.124,0.105,0.097
0.207,0.049,-0.159,-0.128,0.183,-0.055,0.074,0.236,0.156,0.159,0.144,0.131
0.242,0.082,-0.16,-0.162,0.2,-0.039,0.068,0.244,0.183,0.182,0.18,0.163
0.234,0.093,-0.142,-0.163,0.188,-0.024,0.046,0.245,0.193,0.207,0.208,0.19
0.267,0.122,-0.144,-0.194,0.205,-0.011,0.024,0.227,0.176,0.21,0.213,0.205
0.265,0.13,-0.135,-0.197,0.2,-0.003,0.022,0.179,0.166,0.197,0.205,0.196
0.209,0.084,-0.125,-0.146,0.167,-0.02,0.011,0.095,0.133,0.17,0.18,0.182
0.146,0.044,-0.102,-0.095,0.124,-0.028,0.018,0.021,0.073,0.105,0.12,0.135
0.087,0.01,-0.077,-0.048,0.082,-0.033,0.048,-0.039,0.026,0.056,0.051,0.073
0.028,-0.036,-0.064,0.004,0.046,-0.05,0.055,-0.097,-0.022,0.009,-0.015,0.035
-0.024,-0.06,-0.037,0.042,0.007,-0.048,0.055,-0.112,-0.052,-0.033,-0.049,0.011
-0.018,-0.068,-0.05,0.043,0.016,-0.058,0.055,-0.139,-0.08,-0.054,-0.069,-0.006
-0.05,-0.089,-0.039,0.07,-0.005,-0.064,0.065,-0.162,-0.1,-0.071,-0.081,-0.026
-0.041,-0.091,-0.05,0.067,0.004,-0.07,0.078,-0.153,-0.102,-0.079,-0.083,-0.039
-0.014,-0.088,-0.075,0.051,0.031,-0.081,0.08,-0.155,-0.106,-0.08,-0.086,-0.043
-0.057,-0.086,-0.03,0.072,-0.013,-0.058,0.08,-0.16,-0.104,-0.08,-0.084,-0.046
-0.066,-0.084,-0.018,0.075,-0.024,-0.051,0.08,-0.16,-0.105,-0.08,-0.085,-0.049
-0.037,-0.085,-0.047,0.061,0.005,-0.066,0.08,-0.16,-0.105,-0.08,-0.085,-0.053
-0.024,-0.079,-0.054,0.052,0.015,-0.066,0.08,-0.16,-0.105,-0.077,-0.085,-0.055
-0.052,-0.076,-0.024,0.064,-0.013,-0.05,0.078,-0.16,-0.104,-0.075,-0.083,-0.055
-0.058,-0.072,-0.014,0.066,-0.022,-0.043,0.073,-0.158,-0.1,-0.075,-0.079,-0.058
-0.029,-0.068,-0.039,0.049,0.005,-0.054,0.067,-0.153,-0.1,-0.071,-0.077,-0.061
-0.025,-0.065,-0.04,0.046,0.008,-0.052,0.064,-0.15,-0.1,-0.07,-0.074,-0.059
-0.038,-0.061,-0.023,0.05,-0.007,-0.042,0.058,-0.147,-0.1,-0.07,-0.071,-0.056
-0.039,-0.06,-0.021,0.049,-0.009,-0.04,0.055,-0.142,-0.1,-0.07,-0.069,-0.05
-0.049,-0.06,-0.011,0.055,-0.019,-0.035,0.059,-0.14,-0.096,-0.07,-0.066,-0.046
-0.074,-0.06,0.015,0.067,-0.044,-0.022,0.06,-0.145,-0.095,-0.07,-0.065,-0.042
-0.083,-0.06,0.023,0.072,-0.053,-0.019,0.06,-0.145,-0.095,-0.07,-0.065,-0.036
-0.077,-0.059,0.018,0.068,-0.047,-0.02,0.06,-0.145,-0.095,-0.07,-0.065,-0.038
-0.071,-0.054,0.017,0.062,-0.044,-0.018,0.06,-0.146,-0.095,-0.072,-0.065,-0.04
-0.061,-0.048,0.013,0.054,-0.037,-0.017,0.058,-0.161,-0.096,-0.075,-0.067,-0.041
-0.068,-0.045,0.024,0.056,-0.046,-0.01,0.054,-0.18,-0.103,-0.078,-0.072,-0.045
-0.077,-0.04,0.037,0.058,-0.057,-0.001,0.052,-0.18,-0.105,-0.081,-0.075,-0.045
-0.068,-0.034,0.034,0.051,-0.051,0.0,0.049,-0.18,-0.105,-0.085,-0.08,-0.049
-0.077,-0.042,0.035,0.059,-0.056,-0.004,0.046,-0.18,-0.105,-0.085,-0.08,-0.05
-0.077,-0.048,0.029,0.062,-0.053,-0.009,0.044,-0.18,-0.105,-0.08,-0.08,-0.05
-0.075,-0.044,0.031,0.059,-0.052,-0.006,0.041,-0.177,-0.105,-0.076,-0.08,-0.05
-0.073,-0.046,0.028,0.059,-0.05,-0.008,0.038,-0.174,-0.105,-0.073,-0.079,-0.049
-0.061,-0.045,0.016,0.052,-0.038,-0.014,0.035,-0.175,-0.105,-0.07,-0.083,-0.053
-0.084,-0.045,0.039,0.064,-0.061,-0.003,0.032,-0.175,-0.105,-0.064,-0.085,-0.055
-0.095,-0.044,0.051,0.07,-0.072,0.003,0.029,-0.175,-0.106,-0.072,-0.085,-0.055
-0.087,-0.036,0.051,0.061,-0.069,0.007,0.033,-0.174,-0.104,-0.074,-0.085,-0.055
-0.076,-0.029,0.048,0.053,-0.062,0.009,0.035,-0.182,-0.106,-0.065,-0.085,-0.055
-0.072,-0.019,0.053,0.046,-0.062,0.016,0.037,-0.181,-0.1,-0.059,-0.085,-0.055
-0.061,-0.013,0.047,0.037,-0.054,0.017,0.038,-0.178,-0.095,-0.053,-0.075,-0.048
-0.039,0.003,0.042,0.018,-0.04,0.022,0.044,-0.151,-0.087,-0.046,-0.058,-0.036
-0.019,0.041,0.06,-0.011,-0.039,0.05,0.045,-0.128,-0.056,-0.04,-0.053,-0.033
0.01,0.051,0.042,-0.031,-0.016,0.046,0.021,-0.135,-0.026,-0.025,-0.054,-0.035
0.01,0.034,0.023,-0.022,-0.007,0.028,-0.007,-0.138,-0.038,-0.018,-0.057,-0.034
0.021,0.022,0.001,-0.022,0.01,0.011,-0.008,-0.159,-0.079,-0.049,-0.06,-0.036
-0.002,0.004,0.007,-0.001,-0.005,0.005,0.011,-0.161,-0.092,-0.075,-0.06,-0.039
-0.072,-0.031,0.041,0.051,-0.056,0.005,0.022,-0.181,-0.099,-0.081,-0.068,-0.053
-0.11,-0.06,0.05,0.084,-0.08,-0.005,0.026,-0.199,-0.117,-0.096,-0.089,-0.072
-0.118,-0.061,0.057,0.089,-0.088,-0.002,0.023,-0.213,-0.126,-0.105,-0.099,-0.078
-0.103,-0.05,0.053,0.077,-0.078,0.002,0.028,-0.196,-0.111,-0.088,-0.09,-0.076
-0.101,-0.058,0.043,0.079,-0.072,-0.007,0.02,-0.214,-0.121,-0.102,-0.101,-0.085
-0.117,-0.04,0.077,0.079,-0.097,0.018,0.032,-0.199,-0.115,-0.079,-0.089,-0.083
-0.133,-0.051,0.082,0.092,-0.107,0.015,0.011,-0.205,-0.13,-0.093,-0.099,-0.084
-0.157,-0.034,0.122,0.095,-0.139,0.044,0.087,-0.109,-0.074,-0.079,-0.099,-0.105
-0.136,0.001,0.137,0.068,-0.137,0.069,0.284,0.323,0.076,-0.001,-0.098,-0.155
0.244,0.368,0.124,-0.306,0.06,0.246,-0.052,-0.044,0.357,0.413,0.35,0.239
0.725,0.951,0.226,-0.838,0.249,0.588,-0.803,-1.149,0.484,0.888,1.07,0.997
0.52,0.607,0.088,-0.564,0.216,0.347,-1.017,-1.697,-0.267,0.177,0.602,0.805
0.14,0.052,-0.088,-0.096,0.114,-0.018,-0.574,-1.164,-0.609,-0.386,-0.091,0.166
0.037,0.034,-0.003,-0.035,0.02,0.015,-0.143,-0.342,-0.204,-0.127,-0.076,0.023
-0.066,0.003,0.069,0.031,-0.068,0.036,0.001,-0.156,-0.127,-0.103,-0.097,-0.045
-0.085,0.004,0.089,0.041,-0.087,0.046,0.041,-0.112,-0.094,-0.068,-0.078,-0.063
-0.106,-0.014,0.092,0.06,-0.099,0.039,0.05,-0.081,-0.083,-0.067,-0.073,-0.072
-0.11,-0.015,0.094,0.062,-0.102,0.039,0.055,-0.076,-0.081,-0.071,-0.071,-0.082
-0.078,0.011,0.089,0.033,-0.084,0.05,0.063,-0.05,-0.068,-0.057,-0.058,-0.068
-0.071,-0.007,0.064,0.039,-0.068,0.029,0.065,-0.054,-0.071,-0.065,-0.063,-0.071
-0.09,-0.009,0.081,0.049,-0.085,0.036,0.065,-0.031,-0.05,-0.045,-0.048,-0.058
-0.115,-0.007,0.107,0.061,-0.111,0.05,0.065,-0.022,-0.049,-0.049,-0.052,-0.058
-0.078,0.013,0.091,0.033,-0.085,0.051,0.065,0.005,-0.033,-0.034,-0.041,-0.05
-0.08,0.018,0.098,0.031,-0.09,0.057,0.065,0.02,-0.03,-0.033,-0.041,-0.045
-0.093,0.013,0.106,0.04,-0.1,0.059,0.065,0.032,-0.022,-0.024,-0.034,-0.041
-0.053,0.037,0.09,0.008,-0.072,0.063,0.065,0.039,-0.016,-0.015,-0.027,-0.034
-0.033,0.047,0.08,-0.007,-0.057,0.063,0.065,0.062,-0.009,-0.005,-0.021,-0.029
-0.032,0.046,0.079,-0.007,-0.056,0.062,0.065,0.1,0.005,0.002,-0.014,-0.024
-0.023,0.058,0.081,-0.017,-0.053,0.069,0.066,0.133,0.029,0.018,-0.006,-0.015
0.005,0.08,0.075,-0.043,-0.035,0.077,0.064,0.171,0.046,0.045,0.012,-0.006
0.033,0.109,0.076,-0.071,-0.021,0.092,0.072,0.213,0.078,0.065,0.039,0.012
0.059,0.124,0.064,-0.092,-0.002,0.094,0.074,0.265,0.114,0.098,0.068,0.03
0.1,0.156,0.056,-0.128,0.022,0.106,0.063,0.298,0.146,0.134,0.098,0.051
0.146,0.187,0.041,-0.167,0.052,0.113,0.055,0.332,0.175,0.157,0.133,0.08
0.19,0.219,0.029,-0.205,0.081,0.124,0.046,0.356,0.196,0.19,0.166,0.115
0.204,0.253,0.049,-0.229,0.077,0.151,0.034,0.35,0.22,0.216,0.199,0.15
0.197,0.256,0.06,-0.227,0.068,0.158,0.009,0.321,0.21,0.214,0.203,0.153
0.197,0.244,0.048,-0.221,0.074,0.146,-0.011,0.257,0.182,0.206,0.199,0.151
0.185,0.219,0.034,-0.202,0.075,0.126,-0.02,0.174,0.147,0.171,0.175,0.137
0.106,0.181,0.075,-0.144,0.015,0.128,-0.034,0.071,0.087,0.111,0.119,0.093
0.021,0.131,0.11,-0.077,-0.045,0.12,-0.038,-0.011,0.027,0.051,0.067,0.043
-0.004,0.089,0.093,-0.043,-0.049,0.091,-0.033,-0.063,-0.016,0.004,0.018,-0.007
-0.022,0.074,0.096,-0.026,-0.059,0.085,-0.03,-0.101,-0.05,-0.025,-0.016,-0.04
-0.047,0.063,0.109,-0.008,-0.079,0.086,-0.027,-0.122,-0.072,-0.049,-0.04,-0.054
-0.057,0.054,0.111,0.001,-0.084,0.082,-0.022,-0.139,-0.086,-0.063,-0.053,-0.068
-0.058,0.05,0.108,0.004,-0.083,0.079,-0.02,-0.146,-0.096,-0.073,-0.062,-0.074
-0.06,0.045,0.105,0.007,-0.083,0.075,-0.019,-0.151,-0.103,-0.084,-0.074,-0.077
-0.064,0.042,0.106,0.01,-0.085,0.073,-0.022,-0.15,-0.103,-0.086,-0.071,-0.082
-0.068,0.035,0.103,0.016,-0.086,0.069,-0.035,-0.15,-0.099,-0.09,-0.069,-0.085
-0.079,0.037,0.116,0.02,-0.098,0.077,-0.035,-0.15,-0.101,-0.088,-0.071,-0.085
-0.09,0.043,0.132,0.024,-0.111,0.087,-0.035,-0.15,-0.096,-0.083,-0.069,-0.085
-0.082,0.046,0.129,0.018,-0.106,0.087,-0.035,-0.148,-0.095,-0.08,-0.071,-0.085
-0.083,0.05,0.133,0.016,-0.108,0.091,-0.035,-0.143,-0.095,-0.076,-0.068,-0.085
-0.091,0.044,0.135,0.023,-0.114,0.09,-0.034,-0.14,-0.09,-0.073,-0.065,-0.085
-0.093,0.041,0.134,0.025,-0.114,0.087,-0.03,-0.137,-0.09,-0.069,-0.065,-0.085
-0.105,0.034,0.139,0.035,-0.122,0.086,-0.03,-0.132,-0.089,-0.071,-0.065,-0.085
-0.094,0.045,0.14,0.025,-0.118,0.092,-0.03,-0.13,-0.085,-0.069,-0.065,-0.085
-0.086,0.054,0.14,0.016,-0.113,0.097,-0.03,-0.135,-0.085,-0.074,-0.065,-0.085
-0.1,0.039,0.14,0.031,-0.12,0.089,-0.03,-0.135,-0.087,-0.086,-0.069,-0.086
-0.082,0.06,0.141,0.011,-0.111,0.1,-0.03,-0.136,-0.09,-0.085,-0.071,-0.09
-0.069,0.078,0.146,-0.005,-0.108,0.112,-0.03,-0.14,-0.093,-0.085,-0.07,-0.09
-0.077,0.074,0.15,0.002,-0.114,0.112,-0.03,-0.139,-0.096,-0.085,-0.07,-0.092
-0.079,0.076,0.155,0.001,-0.117,0.115,-0.03,-0.142,-0.099,-0.084,-0.07,-0.095
-0.077,0.074,0.151,0.001,-0.115,0.113,-0.03,-0.149,-0.1,-0.088,-0.071,-0.095
-0.074,0.075,0.149,-0.001,-0.112,0.112,-0.031,-0.155,-0.1,-0.09,-0.075,-0.095
-0.078,0.073,0.15,0.003,-0.114,0.111,-0.037,-0.157,-0.1,-0.09,-0.078,-0.095
-0.08,0.069,0.149,0.005,-0.115,0.109,-0.041,-0.161,-0.1,-0.094,-0.082,-0.095
-0.084,0.067,0.151,0.008,-0.118,0.108,-0.039,-0.164,-0.1,-0.095,-0.085,-0.095
-0.084,0.064,0.148,0.01,-0.117,0.105,-0.045,-0.165,-0.099,-0.095,-0.085,-0.095
-0.083,0.061,0.144,0.011,-0.114,0.102,-0.056,-0.168,-0.102,-0.095,-0.085,-0.096
-0.078,0.059,0.137,0.009,-0.108,0.098,-0.053,-0.17,-0.105,-0.095,-0.085,-0.101
-0.068,0.067,0.136,0.0,-0.102,0.101,-0.05,-0.172,-0.105,-0.095,-0.085,-0.104
-0.051,0.078,0.129,-0.013,-0.09,0.103,-0.048,-0.176,-0.108,-0.094,-0.085,-0.109
-0.047,0.08,0.127,-0.017,-0.087,0.103,-0.043,-0.178,-0.111,-0.096,-0.084,-0.11
-0.064,0.08,0.144,-0.008,-0.104,0.111,-0.052,-0.18,-0.109,-0.093,-0.078,-0.11
-0.083,0.079,0.163,0.002,-0.123,0.121,-0.064,-0.184,-0.104,-0.086,-0.071,-0.11
-0.098,0.081,0.178,0.008,-0.138,0.129,-0.052,-0.184,-0.092,-0.081,-0.064,-0.11
-0.095,0.079,0.173,0.008,-0.134,0.126,-0.046,-0.17,-0.087,-0.075,-0.057,-0.109
-0.059,0.106,0.165,-0.023,-0.113,0.135,-0.036,-0.142,-0.072,-0.071,-0.051,-0.093
-0.001,0.158,0.159,-0.079,-0.081,0.158,-0.016,-0.108,-0.05,-0.05,-0.05,-0.069
0.02,0.173,0.153,-0.097,-0.066,0.163,-0.055,-0.083,-0.03,-0.028,-0.051,-0.036
0.013,0.158,0.145,-0.086,-0.067,0.151,-0.085,-0.098,-0.029,-0.034,-0.049,-0.034
-0.013,0.133,0.146,-0.061,-0.08,0.139,-0.072,-0.148,-0.072,-0.058,-0.053,-0.061
-0.041,0.103,0.144,-0.031,-0.093,0.123,-0.072,-0.157,-0.091,-0.075,-0.061,-0.073
-0.057,0.087,0.143,-0.016,-0.1,0.115,-0.066,-0.168,-0.095,-0.087,-0.075,-0.093
-0.091,0.082,0.173,0.004,-0.132,0.127,-0.06,-0.182,-0.113,-0.097,-0.093,-0.105
-0.111,0.072,0.182,0.02,-0.147,0.127,-0.059,-0.21,-0.13,-0.111,-0.106,-0.118
-0.086,0.075,0.16,0.005,-0.123,0.117,-0.052,-0.2,-0.118,-0.098,-0.093,-0.12
-0.104,0.061,0.165,0.021,-0.135,0.113,-0.059,-0.208,-0.128,-0.112,-0.106,-0.125
-0.132,0.066,0.198,0.033,-0.165,0.131,-0.051,-0.207,-0.111,-0.099,-0.095,-0.127
-0.119,0.058,0.177,0.03,-0.148,0.117,-0.061,-0.193,-0.118,-0.107,-0.102,-0.127
-0.168,0.065,0.233,0.051,-0.201,0.149,0.003,-0.149,-0.085,-0.099,-0.112,-0.141
-0.173,0.076,0.249,0.048,-0.211,0.163,0.21,0.263,0.059,-0.025,-0.108,-0.181
0.154,0.361,0.208,-0.258,-0.027,0.284,-0.031,0.045,0.266,0.27,0.198,0.09
0.692,0.984,0.292,-0.838,0.2,0.637,-0.794,-1.05,0.45,0.787,0.93,0.83
0.611,0.79,0.179,-0.701,0.215,0.484,-1.122,-1.715,-0.156,0.278,0.675,0.819
0.139,0.196,0.058,-0.167,0.04,0.127,-0.704,-1.271,-0.591,-0.375,-0.054,0.18
0.005,0.129,0.124,-0.067,-0.06,0.126,-0.217,-0.4,-0.224,-0.15,-0.072,-0.01
-0.052,0.111,0.163,-0.03,-0.107,0.137,-0.056,-0.15,-0.11,-0.102,-0.082,-0.079
-0.088,0.111,0.2,-0.012,-0.144,0.155,-0.026,-0.112,-0.081,-0.095,-0.082,-0.109
-0.073,0.118,0.191,-0.023,-0.132,0.154,0.001,-0.062,-0.062,-0.069,-0.068,-0.111
-0.08,0.111,0.191,-0.016,-0.136,0.151,0.013,-0.054,-0.072,-0.081,-0.083,-0.125
-0.105,0.118,0.224,-0.007,-0.165,0.171,0.021,-0.024,-0.053,-0.057,-0.066,-0.106
-0.087,0.112,0.199,-0.013,-0.143,0.155,0.036,-0.039,-0.062,-0.067,-0.074,-0.113
-0.086,0.116,0.201,-0.015,-0.144,0.158,0.038,-0.017,-0.045,-0.049,-0.058,-0.101
-0.094,0.121,0.215,-0.014,-0.154,0.167,0.028,-0.012,-0.043,-0.052,-0.062,-0.101
-0.048,0.147,0.195,-0.05,-0.122,0.171,0.026,0.007,-0.028,-0.039,-0.052,-0.095
-0.051,0.144,0.195,-0.047,-0.123,0.169,0.017,0.021,-0.021,-0.035,-0.05,-0.09
-0.044,0.145,0.189,-0.051,-0.117,0.167,0.018,0.043,-0.01,-0.028,-0.043,-0.087
-0.052,0.145,0.196,-0.047,-0.125,0.17,0.041,0.068,-0.004,-0.02,-0.035,-0.08
-0.055,0.148,0.203,-0.047,-0.129,0.175,0.046,0.09,0.008,-0.016,-0.027,-0.078
-0.023,0.162,0.185,-0.07,-0.104,0.173,0.046,0.126,0.026,-0.004,-0.02,-0.067
-0.008,0.156,0.164,-0.074,-0.086,0.16,0.052,0.149,0.048,0.017,-0.01,-0.057
-0.012,0.165,0.177,-0.077,-0.094,0.171,0.048,0.188,0.055,0.04,0.001,-0.049
-0.01,0.181,0.191,-0.086,-0.101,0.185,0.046,0.24,0.078,0.061,0.02,-0.033
0.025,0.199,0.174,-0.113,-0.074,0.187,0.043,0.281,0.115,0.08,0.045,-0.015
0.074,0.237,0.163,-0.156,-0.044,0.2,0.04,0.32,0.142,0.113,0.072,0.028
0.125,0.269,0.144,-0.197,-0.01,0.206,0.037,0.368,0.183,0.16,0.115,0.061
0.159,0.296,0.137,-0.228,0.011,0.216,0.035,0.395,0.203,0.181,0.138,0.076
0.17,0.309,0.139,-0.24,0.015,0.224,0.025,0.391,0.214,0.204,0.165,0.106
0.165,0.304,0.139,-0.234,0.013,0.221,-0.013,0.365,0.214,0.209,0.179,0.12
0.146,0.291,0.144,-0.219,0.001,0.217,-0.043,0.306,0.195,0.197,0.174,0.126
0.139,0.281,0.142,-0.21,-0.002,0.211,-0.043,0.217,0.161,0.176,0.159,0.107
0.106,0.26,0.154,-0.184,-0.025,0.207,-0.038,0.114,0.102,0.119,0.106,0.065
0.04,0.22,0.179,-0.13,-0.07,0.199,-0.035,0.032,0.046,0.058,0.041,0.021
0.007,0.19,0.182,-0.099,-0.088,0.186,-0.032,-0.028,-0.004,0.013,-0.005,-0.023
-0.021,0.161,0.183,-0.071,-0.102,0.172,-0.027,-0.083,-0.039,-0.017,-0.041,-0.062
-0.063,0.128,0.191,-0.033,-0.127,0.159,-0.025,-0.108,-0.06,-0.047,-0.073,-0.088
-0.083,0.117,0.2,-0.017,-0.142,0.158,-0.03,-0.115,-0.075,-0.071,-0.081,-0.095
-0.088,0.113,0.2,-0.012,-0.144,0.156,-0.03,-0.13,-0.08,-0.07,-0.085,-0.103
-0.092,0.107,0.199,-0.008,-0.146,0.153,-0.03,-0.129,-0.082,-0.07,-0.085,-0.105
-0.099,0.102,0.201,-0.001,-0.15,0.151,-0.03,-0.131,-0.085,-0.071,-0.087,-0.105
-0.105,0.095,0.199,0.005,-0.152,0.147,-0.029,-0.144,-0.085,-0.069,-0.091,-0.105
-0.088,0.11,0.198,-0.012,-0.143,0.154,-0.033,-0.145,-0.085,-0.071,-0.089,-0.105
-0.074,0.119,0.193,-0.023,-0.134,0.156,-0.035,-0.138,-0.085,-0.074,-0.094,-0.105
-0.083,0.107,0.19,-0.012,-0.136,0.149,-0.035,-0.135,-0.085,-0.075,-0.095,-0.105
-0.084,0.103,0.187,-0.01,-0.136,0.145,-0.038,-0.13,-0.086,-0.075,-0.096,-0.11
-0.088,0.093,0.181,-0.003,-0.135,0.137,-0.041,-0.125,-0.083,-0.075,-0.099,-0.118
-0.094,0.087,0.181,0.003,-0.138,0.134,-0.039,-0.122,-0.08,-0.074,-0.101,-0.12
-0.079,0.1,0.179,-0.011,-0.129,0.139,-0.036,-0.117,-0.078,-0.078,-0.099,-0.12
-0.085,0.107,0.191,-0.011,-0.138,0.149,-0.035,-0.114,-0.075,-0.08,-0.095,-0.12
-0.101,0.104,0.205,-0.002,-0.154,0.154,-0.035,-0.111,-0.072,-0.08,-0.095,-0.12
-0.092,0.102,0.195,-0.005,-0.144,0.148,-0.035,-0.106,-0.069,-0.084,-0.092,-0.12
-0.091,0.099,0.189,-0.004,-0.14,0.144,-0.036,-0.105,-0.074,-0.085,-0.09,-0.115
-0.081,0.101,0.183,-0.01,-0.132,0.142,-0.032,-0.113,-0.076,-0.085,-0.09,-0.115
-0.069,0.105,0.175,-0.018,-0.122,0.14,-0.03,-0.118,-0.074,-0.085,-0.095,-0.113
-0.081,0.104,0.186,-0.012,-0.134,0.145,-0.03,-0.128,-0.076,-0.085,-0.104,-0.11
-0.096,0.101,0.197,-0.003,-0.146,0.148,-0.03,-0.139,-0.073,-0.085,-0.105,-0.109
-0.101,0.098,0.199,0.001,-0.15,0.148,-0.03,-0.14,-0.082,-0.085,-0.105,-0.113
-0.105,0.096,0.2,0.005,-0.153,0.148,-0.03,-0.145,-0.096,-0.084,-0.105,-0.122
-0.107,0.093,0.2,0.007,-0.154,0.146,-0.03,-0.145,-0.095,-0.088,-0.105,-0.121
-0.089,0.111,0.2,-0.011,-0.145,0.155,-0.03,-0.145,-0.094,-0.09,-0.104,-0.119
-0.081,0.119,0.2,-0.019,-0.141,0.159,-0.03,-0.145,-0.09,-0.09,-0.099,-0.12
-0.094,0.106,0.2,-0.006,-0.147,0.153,-0.03,-0.145,-0.09,-0.09,-0.1,-0.12
-0.097,0.102,0.199,-0.002,-0.148,0.15,-0.029,-0.145,-0.09,-0.09,-0.1,-0.12
-0.105,0.09,0.194,0.007,-0.15,0.142,-0.033,-0.145,-0.089,-0.09,-0.099,-0.122
-0.095,0.101,0.195,-0.004,-0.145,0.148,-0.035,-0.157,-0.102,-0.085,-0.119,-0.125
-0.067,0.125,0.193,-0.029,-0.13,0.159,-0.035,-0.158,-0.105,-0.085,-0.127,-0.125
-0.06,0.129,0.189,-0.034,-0.125,0.159,-0.035,-0.15,-0.099,-0.085,-0.121,-0.129
-0.067,0.124,0.191,-0.028,-0.129,0.157,-0.034,-0.147,-0.097,-0.085,-0.12,-0.131
-0.082,0.103,0.185,-0.011,-0.133,0.143,-0.035,-0.138,-0.091,-0.085,-0.115,-0.129
-0.093,0.084,0.178,0.004,-0.136,0.131,-0.027,-0.137,-0.09,-0.082,-0.116,-0.123
-0.061,0.109,0.17,-0.024,-0.116,0.139,-0.019,-0.116,-0.078,-0.081,-0.103,-0.112
-0.009,0.155,0.164,-0.074,-0.086,0.159,-0.005,-0.093,-0.054,-0.056,-0.084,-0.1
0.033,0.187,0.154,-0.11,-0.061,0.17,-0.01,-0.085,-0.033,-0.023,-0.062,-0.076
0.03,0.185,0.155,-0.108,-0.063,0.17,-0.05,-0.075,-0.017,-0.012,-0.043,-0.064
-0.011,0.155,0.166,-0.072,-0.088,0.16,-0.059,-0.106,-0.047,-0.03,-0.071,-0.086
-0.023,0.132,0.155,-0.055,-0.089,0.143,-0.041,-0.124,-0.078,-0.057,-0.096,-0.101
-0.064,0.106,0.17,-0.021,-0.117,0.137,-0.035,-0.143,-0.088,-0.074,-0.113,-0.123
-0.093,0.084,0.178,0.004,-0.136,0.131,-0.026,-0.155,-0.101,-0.087,-0.126,-0.14
-0.097,0.077,0.174,0.01,-0.136,0.126,-0.026,-0.162,-0.119,-0.105,-0.139,-0.146
-0.139,0.08,0.219,0.029,-0.18,0.149,-0.021,-0.16,-0.104,-0.091,-0.133,-0.144
-0.138,0.069,0.207,0.034,-0.173,0.138,-0.016,-0.15,-0.103,-0.095,-0.135,-0.145
-0.118,0.092,0.21,0.013,-0.165,0.15,-0.02,-0.164,-0.099,-0.09,-0.137,-0.147
-0.105,0.097,0.201,0.004,-0.153,0.149,-0.028,-0.131,-0.083,-0.078,-0.128,-0.141
-0.12,0.083,0.203,0.019,-0.162,0.143,-0.013,-0.169,-0.098,-0.098,-0.148,-0.156
-0.192,0.065,0.257,0.063,-0.225,0.161,0.179,0.184,0.019,-0.056,-0.167,-0.219
0.078,0.186,0.107,-0.132,-0.015,0.146,0.154,0.4,0.214,0.131,-0.024,-0.114
0.603,0.836,0.233,-0.72,0.185,0.534,-0.433,-0.463,0.501,0.718,0.727,0.625
0.587,0.997,0.41,-0.792,0.088,0.703,-0.911,-1.505,0.124,0.542,0.839,0.936
0.142,0.367,0.225,-0.255,-0.042,0.296,-0.748,-1.519,-0.579,-0.314,-0.008,0.284
-0.065,0.124,0.189,-0.03,-0.127,0.156,-0.302,-0.631,-0.375,-0.283,-0.198,-0.064
-0.067,0.125,0.193,-0.029,-0.13,0.159,-0.066,-0.159,-0.119,-0.11,-0.131,-0.104
-0.073,0.113,0.186,-0.02,-0.13,0.15,-0.021,-0.121,-0.112,-0.111,-0.162,-0.137
-0.07,0.123,0.193,-0.026,-0.132,0.157,-0.005,-0.06,-0.083,-0.077,-0.131,-0.126
-0.081,0.108,0.189,-0.014,-0.135,0.148,0.002,-0.072,-0.097,-0.101,-0.16,-0.146
-0.089,0.12,0.209,-0.016,-0.149,0.164,0.013,-0.047,-0.073,-0.073,-0.156,-0.135
-0.076,0.116,0.192,-0.02,-0.134,0.153,0.031,-0.04,-0.077,-0.084,-0.162,-0.137
-0.071,0.126,0.196,-0.028,-0.134,0.161,0.036,-0.018,-0.062,-0.068,-0.146,-0.127
-0.068,0.126,0.195,-0.029,-0.132,0.16,0.034,-0.007,-0.058,-0.067,-0.143,-0.123
-0.054,0.131,0.185,-0.039,-0.12,0.157,0.035,0.001,-0.053,-0.062,-0.138,-0.118
-0.043,0.13,0.173,-0.044,-0.108,0.151,0.035,0.018,-0.045,-0.058,-0.131,-0.112
-0.034,0.129,0.163,-0.048,-0.098,0.146,0.035,0.034,-0.04,-0.061,-0.127,-0.109
-0.012,0.145,0.157,-0.067,-0.084,0.15,0.031,0.049,-0.025,-0.043,-0.12,-0.104
0.003,0.151,0.148,-0.077,-0.073,0.15,0.03,0.064,-0.015,-0.033,-0.116,-0.102
0.007,0.149,0.143,-0.078,-0.068,0.146,0.03,0.098,-0.006,-0.017,-0.107,-0.097
0.012,0.151,0.139,-0.081,-0.064,0.145,0.025,0.117,0.009,-0.002,-0.097,-0.095
0.028,0.169,0.141,-0.099,-0.056,0.155,0.025,0.146,0.025,0.009,-0.079,-0.084
0.056,0.184,0.128,-0.12,-0.036,0.155,0.024,0.191,0.055,0.037,-0.052,-0.062
0.091,0.203,0.112,-0.147,-0.011,0.157,0.018,0.224,0.079,0.054,-0.024,-0.041
0.125,0.231,0.106,-0.178,0.009,0.168,0.013,0.264,0.112,0.09,0.013,-0.005
0.167,0.266,0.099,-0.216,0.033,0.182,0.006,0.301,0.152,0.129,0.037,0.018
0.207,0.302,0.095,-0.255,0.056,0.198,0.002,0.311,0.161,0.136,0.054,0.046
0.227,0.313,0.087,-0.27,0.07,0.2,-0.008,0.309,0.19,0.173,0.101,0.097
0.249,0.33,0.082,-0.29,0.083,0.206,-0.027,0.302,0.196,0.183,0.113,0.108
0.251,0.324,0.072,-0.288,0.089,0.198,-0.04,0.275,0.185,0.176,0.115,0.109
0.232,0.31,0.079,-0.271,0.076,0.194,-0.05,0.205,0.167,0.166,0.113,0.109
0.177,0.301,0.124,-0.239,0.026,0.212,-0.046,0.125,0.108,0.113,0.066,0.073
0.096,0.241,0.145,-0.169,-0.025,0.193,-0.037,0.055,0.044,0.052,0.0,0.012
0.038,0.184,0.146,-0.112,-0.054,0.165,-0.028,-0.012,-0.007,-0.001,-0.069,-0.056
0.003,0.153,0.15,-0.078,-0.074,0.151,-0.021,-0.056,-0.053,-0.048,-0.112,-0.093
-0.015,0.137,0.152,-0.062,-0.084,0.144,-0.019,-0.071,-0.08,-0.083,-0.14,-0.11
-0.03,0.126,0.156,-0.049,-0.093,0.141,-0.016,-0.085,-0.085,-0.09,-0.155,-0.125
-0.034,0.117,0.152,-0.042,-0.093,0.134,-0.014,-0.099,-0.095,-0.101,-0.156,-0.13
-0.032,0.115,0.147,-0.042,-0.09,0.13,-0.01,-0.13,-0.105,-0.111,-0.167,-0.14
-0.03,0.108,0.138,-0.04,-0.084,0.123,-0.011,-0.161,-0.115,-0.109,-0.181,-0.151
-0.028,0.106,0.134,-0.039,-0.081,0.12,-0.018,-0.155,-0.112,-0.114,-0.178,-0.148
-0.025,0.099,0.123,-0.037,-0.074,0.111,-0.015,-0.15,-0.108,-0.115,-0.175,-0.145
-0.019,0.105,0.124,-0.043,-0.072,0.114,-0.01,-0.147,-0.106,-0.114,-0.173,-0.143
-0.03,0.11,0.141,-0.04,-0.086,0.125,-0.008,-0.141,-0.099,-0.116,-0.169,-0.139
-0.032,0.116,0.149,-0.043,-0.091,0.132,-0.003,-0.138,-0.107,-0.114,-0.173,-0.143
-0.016,0.142,0.157,-0.063,-0.087,0.149,0.0,-0.134,-0.109,-0.123,-0.175,-0.145
-0.003,0.135,0.138,-0.067,-0.07,0.136,-0.003,-0.136,-0.102,-0.134,-0.178,-0.148
-0.007,0.126,0.133,-0.06,-0.07,0.129,-0.006,-0.131,-0.097,-0.125,-0.181,-0.151
-0.03,0.112,0.142,-0.041,-0.086,0.127,-0.009,-0.129,-0.091,-0.117,-0.184,-0.154
-0.023,0.111,0.135,-0.044,-0.079,0.123,-0.012,-0.131,-0.086,-0.109,-0.185,-0.155
0.0,0.136,0.136,-0.069,-0.068,0.136,-0.014,-0.134,-0.085,-0.107,-0.18,-0.15
-0.004,0.129,0.134,-0.063,-0.069,0.131,-0.017,-0.136,-0.084,-0.111,-0.177,-0.145
-0.006,0.125,0.131,-0.06,-0.069,0.128,-0.02,-0.134,-0.087,-0.109,-0.173,-0.141
-0.006,0.122,0.128,-0.058,-0.068,0.125,-0.02,-0.14,-0.098,-0.114,-0.17,-0.136
-0.019,0.116,0.135,-0.048,-0.077,0.125,-0.022,-0.15,-0.101,-0.115,-0.165,-0.131
-0.033,0.113,0.146,-0.04,-0.09,0.129,-0.026,-0.152,-0.104,-0.115,-0.167,-0.132
-0.035,0.109,0.144,-0.037,-0.09,0.126,-0.025,-0.156,-0.107,-0.115,-0.171,-0.136
-0.034,0.111,0.145,-0.039,-0.09,0.127,-0.028,-0.159,-0.11,-0.115,-0.17,-0.138
-0.036,0.109,0.145,-0.037,-0.09,0.127,-0.033,-0.163,-0.109,-0.115,-0.17,-0.141
-0.034,0.111,0.145,-0.039,-0.089,0.127,-0.034,-0.165,-0.104,-0.115,-0.17,-0.144
-0.038,0.109,0.147,-0.036,-0.093,0.128,-0.03,-0.165,-0.105,-0.115,-0.169,-0.145
-0.046,0.105,0.15,-0.03,-0.098,0.127,-0.026,-0.169,-0.103,-0.113,-0.166,-0.145
-0.054,0.096,0.15,-0.021,-0.102,0.123,-0.024,-0.169,-0.099,-0.109,-0.159,-0.145
-0.058,0.092,0.149,-0.017,-0.104,0.12,-0.018,-0.17,-0.1,-0.107,-0.157,-0.146
-0.069,0.082,0.152,-0.007,-0.111,0.117,-0.03,-0.159,-0.104,-0.101,-0.15,-0.144
-0.052,0.093,0.145,-0.02,-0.099,0.119,-0.047,-0.151,-0.096,-0.101,-0.148,-0.147
-0.004,0.153,0.157,-0.074,-0.081,0.155,-0.028,-0.127,-0.064,-0.079,-0.136,-0.137
0.023,0.177,0.154,-0.1,-0.066,0.165,-0.015,-0.093,-0.037,-0.057,-0.103,-0.103
0.046,0.183,0.137,-0.114,-0.046,0.16,-0.042,-0.076,-0.026,-0.053,-0.079,-0.08
0.042,0.184,0.143,-0.113,-0.051,0.163,-0.057,-0.101,-0.044,-0.057,-0.091,-0.088
0.0,0.149,0.149,-0.075,-0.075,0.149,-0.046,-0.138,-0.073,-0.073,-0.127,-0.114
-0.033,0.115,0.148,-0.041,-0.09,0.131,-0.043,-0.153,-0.084,-0.085,-0.144,-0.124
-0.064,0.098,0.163,-0.018,-0.114,0.13,-0.036,-0.173,-0.103,-0.106,-0.15,-0.139
-0.083,0.094,0.177,-0.006,-0.13,0.135,-0.03,-0.18,-0.117,-0.117,-0.156,-0.152
-0.085,0.087,0.173,-0.001,-0.129,0.13,-0.029,-0.191,-0.113,-0.115,-0.156,-0.15
-0.093,0.085,0.178,0.003,-0.136,0.132,-0.021,-0.166,-0.104,-0.105,-0.151,-0.149
-0.097,0.072,0.17,0.012,-0.134,0.121,-0.031,-0.186,-0.111,-0.116,-0.161,-0.152
-0.095,0.087,0.182,0.003,-0.139,0.135,-0.016,-0.149,-0.093,-0.094,-0.148,-0.148
-0.066,0.096,0.162,-0.015,-0.114,0.129,-0.04,-0.184,-0.1,-0.119,-0.164,-0.152
-0.132,0.083,0.216,0.024,-0.174,0.15,0.06,-0.039,-0.036,-0.107,-0.186,-0.194
-0.142,0.084,0.226,0.029,-0.184,0.155,0.243,0.421,0.125,-0.007,-0.186,-0.244
0.324,0.565,0.241,-0.445,0.041,0.403,-0.135,0.0,0.478,0.529,0.417,0.293
0.653,1.103,0.45,-0.878,0.102,0.776,-0.795,-1.147,0.494,0.893,1.07,1.019
0.33,0.649,0.319,-0.489,0.006,0.483,-0.919,-1.698,-0.361,0.019,0.387,0.633
0.06,0.175,0.115,-0.118,-0.028,0.145,-0.522,-1.066,-0.585,-0.419,-0.22,0.017
0.019,0.161,0.143,-0.09,-0.062,0.151,-0.154,-0.28,-0.17,-0.127,-0.128,-0.077
-0.037,0.116,0.153,-0.039,-0.095,0.134,-0.043,-0.144,-0.096,-0.114,-0.137,-0.124
-0.037,0.127,0.163,-0.045,-0.1,0.144,-0.015,-0.096,-0.064,-0.073,-0.111,-0.121
-0.052,0.109,0.162,-0.028,-0.107,0.135,-0.001,-0.069,-0.064,-0.082,-0.124,-0.135
-0.088,0.103,0.191,-0.008,-0.139,0.147,0.001,-0.047,-0.05,-0.071,-0.12,-0.135
-0.088,0.104,0.193,-0.008,-0.141,0.148,0.009,-0.031,-0.038,-0.06,-0.118,-0.125
-0.079,0.102,0.18,-0.012,-0.13,0.141,0.013,-0.035,-0.033,-0.057,-0.122,-0.125
-0.074,0.116,0.189,-0.021,-0.132,0.152,0.02,-0.018,-0.017,-0.037,-0.109,-0.113
-0.07,0.11,0.179,-0.02,-0.125,0.144,0.016,-0.019,-0.018,-0.038,-0.109,-0.113
-0.045,0.122,0.168,-0.039,-0.107,0.145,0.014,-0.003,-0.005,-0.022,-0.096,-0.105
-0.048,0.121,0.169,-0.037,-0.109,0.145,0.035,-0.001,-0.003,-0.021,-0.094,-0.102
-0.042,0.118,0.159,-0.038,-0.101,0.138,0.042,0.03,0.007,-0.009,-0.084,-0.097
-0.023,0.136,0.158,-0.057,-0.091,0.147,0.039,0.052,0.014,-0.007,-0.075,-0.092
-0.024,0.135,0.158,-0.056,-0.091,0.146,0.041,0.064,0.025,0.001,-0.065,-0.088
0.017,0.157,0.139,-0.087,-0.061,0.147,0.04,0.097,0.048,0.024,-0.048,-0.078
0.012,0.161,0.149,-0.087,-0.069,0.154,0.04,0.121,0.062,0.037,-0.033,-0.065
0.026,0.163,0.138,-0.095,-0.056,0.15,0.035,0.164,0.087,0.063,-0.02,-0.053
0.078,0.19,0.112,-0.134,-0.017,0.15,0.031,0.208,0.121,0.094,0.005,-0.031
0.089,0.198,0.109,-0.144,-0.01,0.154,0.026,0.242,0.141,0.114,0.031,-0.007
0.137,0.238,0.102,-0.188,0.017,0.17,0.022,0.273,0.166,0.143,0.064,0.03
0.169,0.268,0.1,-0.219,0.034,0.184,0.016,0.301,0.199,0.172,0.097,0.067
0.203,0.28,0.077,-0.242,0.063,0.179,0.002,0.316,0.223,0.203,0.129,0.091
0.223,0.298,0.076,-0.261,0.073,0.187,-0.012,0.303,0.238,0.224,0.161,0.122
0.187,0.29,0.103,-0.239,0.042,0.196,-0.034,0.281,0.237,0.22,0.167,0.134
0.18,0.28,0.099,-0.23,0.04,0.189,-0.045,0.219,0.207,0.211,0.164,0.129
0.166,0.269,0.103,-0.218,0.031,0.185,-0.039,0.135,0.162,0.179,0.134,0.103
0.103,0.225,0.123,-0.164,-0.01,0.174,-0.036,0.054,0.113,0.115,0.071,0.049
0.056,0.18,0.123,-0.118,-0.034,0.151,-0.031,-0.008,0.062,0.049,0.013,-0.003
0.001,0.14,0.139,-0.071,-0.07,0.139,-0.027,-0.057,0.013,0.009,-0.031,-0.046
-0.056,0.103,0.159,-0.024,-0.108,0.131,-0.022,-0.103,-0.031,-0.011,-0.072,-0.079
-0.055,0.092,0.147,-0.018,-0.101,0.119,-0.02,-0.118,-0.047,-0.037,-0.096,-0.099
-0.062,0.086,0.148,-0.012,-0.105,0.117,-0.02,-0.115,-0.043,-0.049,-0.1,-0.102
-0.063,0.079,0.142,-0.008,-0.103,0.11,-0.016,-0.117,-0.049,-0.054,-0.105,-0.106
-0.064,0.072,0.137,-0.004,-0.101,0.104,-0.015,-0.138,-0.06,-0.063,-0.109,-0.114
-0.088,0.066,0.154,0.011,-0.122,0.11,-0.015,-0.146,-0.06,-0.06,-0.11,-0.115
-0.096,0.064,0.16,0.016,-0.129,0.112,-0.011,-0.138,-0.06,-0.057,-0.11,-0.115
-0.086,0.061,0.147,0.012,-0.117,0.104,-0.01,-0.138,-0.06,-0.054,-0.11,-0.115
-0.072,0.058,0.131,0.007,-0.102,0.094,-0.011,-0.132,-0.06,-0.051,-0.11,-0.115
-0.097,0.055,0.152,0.021,-0.125,0.103,-0.009,-0.13,-0.059,-0.05,-0.109,-0.115
-0.107,0.056,0.163,0.026,-0.135,0.109,-0.011,-0.142,-0.056,-0.05,-0.105,-0.112
-0.089,0.061,0.149,0.014,-0.119,0.105,-0.009,-0.146,-0.053,-0.05,-0.105,-0.109
-0.094,0.062,0.155,0.016,-0.125,0.108,-0.012,-0.141,-0.051,-0.05,-0.105,-0.106
-0.094,0.06,0.155,0.016,-0.124,0.107,-0.029,-0.14,-0.047,-0.05,-0.105,-0.103
-0.096,0.06,0.155,0.017,-0.125,0.107,-0.03,-0.135,-0.045,-0.049,-0.105,-0.1
-0.095,0.06,0.155,0.017,-0.125,0.107,-0.025,-0.135,-0.048,-0.053,-0.101,-0.101
-0.095,0.061,0.156,0.017,-0.125,0.108,-0.024,-0.139,-0.05,-0.055,-0.1,-0.105
-0.096,0.058,0.154,0.018,-0.125,0.106,-0.02,-0.142,-0.053,-0.055,-0.1,-0.105
-0.097,0.059,0.157,0.019,-0.127,0.108,-0.02,-0.146,-0.056,-0.058,-0.1,-0.105
-0.102,0.049,0.151,0.026,-0.127,0.1,-0.02,-0.149,-0.059,-0.061,-0.1,-0.105
-0.07,0.073,0.142,-0.002,-0.106,0.107,-0.025,-0.151,-0.06,-0.059,-0.101,-0.105
-0.067,0.097,0.164,-0.016,-0.116,0.13,-0.026,-0.149,-0.055,-0.055,-0.105,-0.105
-0.079,0.068,0.147,0.005,-0.113,0.107,-0.025,-0.159,-0.055,-0.055,-0.105,-0.105
-0.07,0.061,0.131,0.005,-0.101,0.096,-0.023,-0.17,-0.055,-0.054,-0.105,-0.105
-0.096,0.057,0.153,0.019,-0.125,0.105,-0.019,-0.17,-0.055,-0.05,-0.105,-0.105
-0.102,0.05,0.152,0.026,-0.127,0.101,-0.02,-0.17,-0.055,-0.05,-0.105,-0.105
-0.1,0.046,0.146,0.027,-0.123,0.096,-0.023,-0.17,-0.055,-0.053,-0.105,-0.105
-0.104,0.039,0.143,0.032,-0.123,0.09,-0.026,-0.17,-0.054,-0.055,-0.105,-0.105
-0.086,0.052,0.138,0.017,-0.112,0.094,-0.025,-0.168,-0.056,-0.055,-0.105,-0.105
-0.079,0.054,0.133,0.012,-0.106,0.093,-0.03,-0.165,-0.054,-0.055,-0.105,-0.105
-0.083,0.046,0.129,0.018,-0.107,0.088,-0.03,-0.164,-0.058,-0.055,-0.106,-0.105
-0.078,0.044,0.122,0.017,-0.101,0.083,-0.028,-0.165,-0.069,-0.055,-0.104,-0.105
-0.082,0.038,0.121,0.022,-0.102,0.079,-0.022,-0.164,-0.069,-0.048,-0.096,-0.104
-0.079,0.034,0.114,0.022,-0.097,0.074,-0.012,-0.166,-0.061,-0.041,-0.084,-0.092
-0.048,0.064,0.111,-0.008,-0.08,0.087,-0.012,-0.141,-0.042,-0.028,-0.077,-0.081
-0.015,0.109,0.124,-0.047,-0.069,0.116,0.015,-0.106,-0.009,-0.004,-0.057,-0.066
0.021,0.12,0.098,-0.071,-0.039,0.109,0.007,-0.107,0.018,0.025,-0.036,-0.051
0.023,0.106,0.083,-0.065,-0.03,0.094,-0.055,-0.101,0.011,0.039,-0.037,-0.048
-0.005,0.093,0.098,-0.045,-0.052,0.096,-0.05,-0.129,-0.01,-0.001,-0.049,-0.054
-0.03,0.066,0.096,-0.018,-0.063,0.081,-0.033,-0.142,-0.025,-0.023,-0.061,-0.065
-0.072,0.034,0.107,0.019,-0.09,0.07,-0.034,-0.146,-0.044,-0.026,-0.061,-0.074
-0.083,0.027,0.11,0.028,-0.097,0.068,-0.023,-0.176,-0.047,-0.044,-0.076,-0.09
-0.091,0.006,0.097,0.043,-0.094,0.051,-0.026,-0.2,-0.067,-0.061,-0.102,-0.108
-0.118,0.009,0.127,0.054,-0.123,0.068,-0.014,-0.189,-0.052,-0.05,-0.089,-0.103
-0.126,0.002,0.128,0.062,-0.127,0.064,-0.019,-0.182,-0.054,-0.054,-0.106,-0.102
-0.129,0.005,0.133,0.062,-0.131,0.069,-0.018,-0.193,-0.048,-0.041,-0.111,-0.101
-0.126,0.0,0.126,0.063,-0.126,0.063,-0.021,-0.152,-0.037,-0.03,-0.106,-0.096
-0.153,-0.005,0.148,0.079,-0.15,0.071,0.0,-0.173,-0.048,-0.037,-0.118,-0.109
-0.18,0.023,0.204,0.078,-0.192,0.113,0.215,0.186,0.085,0.01,-0.11,-0.164
0.066,0.192,0.126,-0.129,-0.031,0.159,0.135,0.228,0.284,0.218,0.076,-0.014
0.62,0.825,0.206,-0.723,0.207,0.515,-0.577,-0.769,0.573,0.829,0.846,0.72
0.69,0.866,0.176,-0.778,0.257,0.521,-1.09,-1.633,0.138,0.591,0.907,0.98
0.269,0.224,-0.045,-0.246,0.157,0.089,-0.814,-1.442,-0.533,-0.249,0.083,0.355
0.058,0.058,0.0,-0.058,0.028,0.029,-0.283,-0.551,-0.264,-0.177,-0.086,0.027
-0.038,0.049,0.087,-0.005,-0.063,0.068,-0.049,-0.144,-0.05,-0.046,-0.055,-0.04
-0.081,0.033,0.114,0.024,-0.098,0.074,0.006,-0.109,-0.039,-0.046,-0.084,-0.085
-0.089,0.039,0.128,0.024,-0.109,0.084,0.036,-0.052,0.004,-0.006,-0.057,-0.069
-0.104,0.019,0.123,0.042,-0.113,0.07,0.043,-0.06,-0.014,-0.03,-0.081,-0.081
-0.101,0.026,0.127,0.037,-0.114,0.076,0.047,-0.026,0.013,-0.001,-0.061,-0.071
-0.101,0.023,0.124,0.039,-0.112,0.073,0.058,-0.025,0.005,-0.012,-0.067,-0.078
-0.085,0.04,0.126,0.022,-0.106,0.083,0.066,-0.003,0.02,0.004,-0.05,-0.074
-0.08,0.039,0.119,0.021,-0.1,0.079,0.071,0.007,0.021,0.004,-0.046,-0.073
-0.076,0.04,0.116,0.017,-0.096,0.077,0.076,0.022,0.041,0.013,-0.037,-0.066
-0.064,0.047,0.111,0.009,-0.088,0.079,0.074,0.04,0.053,0.02,-0.03,-0.061
-0.056,0.05,0.107,0.003,-0.082,0.078,0.078,0.052,0.054,0.025,-0.026,-0.057
-0.05,0.052,0.102,-0.001,-0.076,0.077,0.08,0.076,0.065,0.034,-0.019,-0.049
-0.049,0.047,0.096,0.001,-0.073,0.071,0.081,0.107,0.076,0.042,-0.015,-0.046
-0.044,0.044,0.089,0.0,-0.067,0.066,0.075,0.14,0.089,0.059,-0.008,-0.037
-0.014,0.069,0.083,-0.027,-0.049,0.076,0.065,0.166,0.099,0.066,-0.003,-0.028
0.007,0.084,0.076,-0.046,-0.034,0.08,0.087,0.209,0.126,0.086,0.017,-0.014
0.031,0.093,0.062,-0.063,-0.016,0.078,0.094,0.259,0.157,0.117,0.041,0.007
0.048,0.124,0.076,-0.086,-0.014,0.099,0.082,0.312,0.188,0.146,0.064,0.028
0.07,0.14,0.071,-0.105,-0.001,0.105,0.079,0.352,0.223,0.173,0.091,0.045
0.113,0.165,0.052,-0.139,0.03,0.109,0.07,0.382,0.247,0.208,0.129,0.079
0.141,0.197,0.057,-0.17,0.042,0.127,0.064,0.405,0.276,0.239,0.162,0.114
0.166,0.222,0.056,-0.194,0.055,0.139,0.071,0.416,0.298,0.263,0.196,0.148
0.178,0.239,0.062,-0.209,0.058,0.15,0.056,0.406,0.294,0.272,0.223,0.165
0.173,0.232,0.059,-0.202,0.057,0.145,0.032,0.339,0.277,0.263,0.222,0.155
0.152,0.213,0.061,-0.183,0.045,0.137,0.02,0.25,0.249,0.244,0.2,0.151
0.122,0.181,0.06,-0.151,0.031,0.12,0.01,0.153,0.196,0.195,0.157,0.121
0.073,0.131,0.059,-0.102,0.007,0.095,0.01,0.061,0.126,0.126,0.097,0.071
0.015,0.087,0.072,-0.051,-0.029,0.079,0.01,0.001,0.075,0.078,0.044,0.027
-0.014,0.056,0.07,-0.021,-0.042,0.063,0.009,-0.046,0.041,0.045,0.006,-0.01
-0.051,0.039,0.089,0.006,-0.07,0.064,0.011,-0.079,0.017,0.017,-0.026,-0.031
-0.073,0.023,0.096,0.025,-0.084,0.059,0.009,-0.089,0.0,0.0,-0.042,-0.043
-0.058,0.013,0.071,0.022,-0.065,0.042,0.006,-0.098,-0.016,-0.017,-0.047,-0.055
-0.056,0.006,0.062,0.025,-0.06,0.034,0.003,-0.107,-0.021,-0.025,-0.053,-0.056
-0.081,-0.002,0.079,0.041,-0.08,0.039,0.0,-0.115,-0.02,-0.025,-0.057,-0.054
-0.098,-0.008,0.09,0.052,-0.093,0.041,-0.003,-0.119,-0.019,-0.025,-0.062,-0.055
-0.095,-0.018,0.077,0.056,-0.086,0.029,-0.006,-0.115,-0.026,-0.025,-0.064,-0.055
-0.089,-0.016,0.074,0.052,-0.081,0.028,-0.003,-0.11,-0.031,-0.025,-0.061,-0.055
-0.079,-0.014,0.065,0.046,-0.072,0.025,0.0,-0.106,-0.024,-0.025,-0.058,-0.055
-0.061,-0.002,0.059,0.032,-0.06,0.028,0.0,-0.101,-0.021,-0.025,-0.055,-0.055
-0.082,-0.007,0.075,0.045,-0.078,0.034,0.004,-0.097,-0.017,-0.025,-0.053,-0.055
-0.11,-0.031,0.08,0.07,-0.095,0.024,0.005,-0.092,-0.011,-0.025,-0.049,-0.055
-0.079,-0.008,0.071,0.044,-0.075,0.031,0.005,-0.09,-0.012,-0.025,-0.053,-0.055
-0.074,-0.004,0.069,0.039,-0.071,0.032,0.011,-0.087,-0.016,-0.025,-0.055,-0.055
-0.078,-0.015,0.063,0.047,-0.071,0.024,0.015,-0.084,-0.015,-0.025,-0.055,-0.06
-0.076,-0.017,0.06,0.046,-0.068,0.021,0.015,-0.081,-0.019,-0.025,-0.055,-0.06
-0.096,-0.026,0.07,0.061,-0.083,0.022,0.015,-0.079,-0.02,-0.025,-0.055,-0.06
-0.091,-0.02,0.072,0.056,-0.081,0.026,0.015,-0.081,-0.02,-0.025,-0.06,-0.06
-0.082,-0.016,0.066,0.049,-0.073,0.025,0.015,-0.078,-0.025,-0.024,-0.06,-0.06
-0.078,-0.014,0.064,0.046,-0.071,0.025,0.014,-0.091,-0.025,-0.034,-0.06,-0.057
-0.075,-0.016,0.059,0.045,-0.066,0.021,0.011,-0.107,-0.026,-0.041,-0.06,-0.055
-0.071,-0.015,0.056,0.042,-0.063,0.021,0.008,-0.104,-0.031,-0.04,-0.06,-0.055
-0.067,-0.015,0.052,0.041,-0.059,0.019,0.006,-0.105,-0.029,-0.038,-0.06,-0.051
-0.084,-0.034,0.05,0.059,-0.066,0.007,0.002,-0.108,-0.033,-0.035,-0.06,-0.049
-0.089,-0.039,0.05,0.064,-0.069,0.006,0.0,-0.113,-0.035,-0.035,-0.06,-0.051
-0.073,-0.027,0.046,0.05,-0.059,0.009,-0.002,-0.115,-0.035,-0.04,-0.06,-0.054
-0.069,-0.024,0.045,0.046,-0.057,0.01,-0.005,-0.114,-0.039,-0.045,-0.061,-0.055
-0.059,-0.015,0.044,0.036,-0.051,0.015,-0.005,-0.115,-0.04,-0.045,-0.064,-0.055
-0.055,-0.011,0.044,0.033,-0.049,0.016,-0.005,-0.115,-0.039,-0.045,-0.065,-0.055
-0.07,-0.024,0.046,0.046,-0.058,0.011,-0.005,-0.115,-0.035,-0.045,-0.065,-0.054
-0.07,-0.025,0.044,0.047,-0.056,0.01,-0.005,-0.115,-0.035,-0.045,-0.065,-0.058
-0.071,-0.025,0.045,0.048,-0.058,0.01,-0.01,-0.112,-0.035,-0.042,-0.065,-0.06
-0.069,-0.024,0.044,0.046,-0.056,0.01,-0.01,-0.11,-0.035,-0.039,-0.063,-0.06
-0.073,-0.028,0.046,0.05,-0.059,0.009,-0.01,-0.11,-0.036,-0.041,-0.058,-0.06
-0.091,-0.044,0.048,0.067,-0.069,0.002,-0.01,-0.11,-0.032,-0.039,-0.055,-0.06
-0.09,-0.038,0.053,0.064,-0.071,0.007,-0.01,-0.109,-0.023,-0.04,-0.052,-0.06
-0.082,-0.028,0.054,0.055,-0.068,0.013,-0.007,-0.109,-0.014,-0.039,-0.047,-0.049
-0.055,0.004,0.059,0.026,-0.058,0.032,0.012,-0.081,-0.008,-0.023,-0.046,-0.027
-0.01,0.048,0.058,-0.019,-0.035,0.053,0.029,-0.06,0.02,-0.005,-0.022,-0.008
0.032,0.057,0.025,-0.045,0.003,0.041,0.007,-0.05,0.05,0.028,0.002,0.012
0.045,0.053,0.008,-0.049,0.018,0.03,-0.024,-0.042,0.033,0.025,-0.012,0.016
0.031,0.03,-0.001,-0.03,0.016,0.014,-0.025,-0.086,0.012,-0.009,-0.033,0.001
-0.012,-0.019,-0.007,0.016,-0.003,-0.012,-0.018,-0.108,-0.001,-0.019,-0.05,-0.011
-0.05,-0.025,0.025,0.037,-0.037,0.0,-0.015,-0.115,-0.024,-0.034,-0.059,-0.028
-0.074,-0.035,0.038,0.054,-0.056,0.001,-0.007,-0.123,-0.042,-0.048,-0.064,-0.045
-0.131,-0.103,0.028,0.117,-0.079,-0.037,-0.004,-0.15,-0.057,-0.066,-0.093,-0.054
-0.131,-0.1,0.032,0.115,-0.081,-0.034,0.003,-0.146,-0.04,-0.054,-0.095,-0.047
-0.118,-0.102,0.016,0.11,-0.067,-0.043,-0.003,-0.146,-0.05,-0.066,-0.106,-0.052
-0.116,-0.09,0.025,0.103,-0.07,-0.032,0.004,-0.141,-0.034,-0.055,-0.095,-0.05
-0.098,-0.091,0.007,0.094,-0.053,-0.042,-0.007,-0.131,-0.04,-0.062,-0.103,-0.047
-0.172,-0.099,0.073,0.136,-0.122,-0.013,0.032,-0.105,-0.023,-0.051,-0.102,-0.063
-0.171,-0.066,0.105,0.118,-0.138,0.02,0.233,0.294,0.114,0.017,-0.086,-0.116
0.187,0.195,0.008,-0.192,0.089,0.102,0.06,0.16,0.326,0.276,0.18,0.115
0.696,0.807,0.112,-0.752,0.292,0.459,-0.698,-0.904,0.521,0.804,0.902,0.845
0.655,0.68,0.025,-0.667,0.314,0.353,-1.095,-1.642,-0.036,0.373,0.733,0.902
0.231,0.085,-0.147,-0.158,0.189,-0.031,-0.694,-1.255,-0.508,-0.31,0.019,0.271
0.038,-0.028,-0.065,-0.005,0.052,-0.046,-0.194,-0.381,-0.171,-0.128,-0.043,0.056
-0.05,-0.056,-0.006,0.053,-0.022,-0.031,-0.012,-0.094,-0.034,-0.048,-0.061,0.0
-0.088,-0.064,0.024,0.076,-0.056,-0.02,0.025,-0.054,-0.029,-0.037,-0.065,-0.041
-0.094,-0.063,0.031,0.079,-0.062,-0.016,0.046,-0.004,-0.003,-0.013,-0.053,-0.036
-0.093,-0.066,0.027,0.079,-0.06,-0.019,0.068,-0.017,-0.008,-0.03,-0.068,-0.045
-0.081,-0.056,0.025,0.068,-0.053,-0.015,0.077,0.009,0.018,-0.008,-0.053,-0.036
-0.085,-0.063,0.022,0.074,-0.053,-0.02,0.074,0.01,0.013,-0.02,-0.062,-0.043
-0.069,-0.051,0.018,0.06,-0.043,-0.016,0.073,0.036,0.035,-0.004,-0.045,-0.038
-0.075,-0.053,0.023,0.064,-0.049,-0.015,0.069,0.049,0.035,-0.008,-0.048,-0.039
-0.077,-0.047,0.03,0.061,-0.053,-0.008,0.072,0.064,0.035,0.004,-0.037,-0.03
-0.059,-0.043,0.016,0.051,-0.037,-0.013,0.064,0.082,0.05,0.009,-0.031,-0.026
-0.045,-0.041,0.004,0.043,-0.025,-0.018,0.064,0.097,0.053,0.015,-0.022,-0.021
-0.02,-0.035,-0.015,0.028,-0.002,-0.025,0.068,0.118,0.071,0.027,-0.013,-0.014
-0.01,-0.03,-0.02,0.021,0.005,-0.025,0.059,0.133,0.085,0.037,-0.004,-0.011
0.004,-0.021,-0.026,0.009,0.015,-0.023,0.08,0.17,0.095,0.052,0.009,-0.002
0.018,-0.017,-0.034,-0.001,0.026,-0.025,0.092,0.206,0.113,0.063,0.02,0.004
0.016,-0.008,-0.024,-0.004,0.02,-0.016,0.088,0.244,0.129,0.082,0.037,0.017
0.061,0.015,-0.046,-0.038,0.053,-0.015,0.091,0.292,0.161,0.1,0.05,0.04
0.088,0.035,-0.053,-0.061,0.07,-0.009,0.089,0.336,0.181,0.129,0.081,0.061
0.1,0.067,-0.033,-0.083,0.067,0.016,0.091,0.374,0.21,0.162,0.112,0.084
0.167,0.096,-0.071,-0.132,0.119,0.012,0.086,0.414,0.246,0.192,0.141,0.119
0.232,0.136,-0.096,-0.184,0.164,0.02,0.079,0.437,0.278,0.23,0.18,0.147
0.252,0.166,-0.086,-0.209,0.169,0.04,0.073,0.427,0.292,0.255,0.208,0.173
0.263,0.17,-0.093,-0.217,0.178,0.038,0.05,0.417,0.278,0.253,0.212,0.192
0.276,0.176,-0.1,-0.226,0.188,0.038,0.03,0.37,0.264,0.239,0.199,0.191
0.229,0.145,-0.084,-0.186,0.156,0.03,0.027,0.28,0.235,0.223,0.192,0.186
0.16,0.099,-0.061,-0.129,0.11,0.019,0.021,0.188,0.185,0.182,0.166,0.152
0.119,0.054,-0.065,-0.086,0.092,-0.006,0.018,0.098,0.13,0.129,0.115,0.104
0.071,0.019,-0.052,-0.045,0.061,-0.016,0.012,0.031,0.084,0.082,0.07,0.062
0.026,-0.004,-0.03,-0.011,0.028,-0.016,0.01,-0.007,0.049,0.042,0.022,0.025
-0.007,-0.036,-0.029,0.022,0.011,-0.032,0.021,-0.037,0.027,0.02,-0.014,0.006
-0.04,-0.061,-0.021,0.051,-0.009,-0.041,0.022,-0.047,0.017,0.01,-0.029,-0.006
-0.041,-0.067,-0.026,0.054,-0.007,-0.046,0.019,-0.054,0.013,0.0,-0.031,-0.012
-0.033,-0.065,-0.032,0.049,0.0,-0.048,0.02,-0.062,0.007,-0.009,-0.029,-0.023
-0.036,-0.065,-0.029,0.051,-0.003,-0.047,0.02,-0.058,0.001,-0.01,-0.03,-0.029
-0.035,-0.062,-0.027,0.049,-0.004,-0.044,0.02,-0.07,-0.004,-0.01,-0.03,-0.025
-0.036,-0.06,-0.024,0.049,-0.006,-0.042,0.02,-0.074,-0.005,-0.01,-0.03,-0.025
-0.034,-0.058,-0.024,0.047,-0.005,-0.041,0.02,-0.067,-0.005,-0.01,-0.034,-0.023
-0.035,-0.069,-0.034,0.052,0.0,-0.051,0.02,-0.063,-0.005,-0.01,-0.035,-0.02
-0.043,-0.086,-0.043,0.064,0.0,-0.064,0.021,-0.056,-0.005,-0.014,-0.035,-0.02
-0.051,-0.085,-0.034,0.069,-0.008,-0.059,0.019,-0.052,-0.005,-0.015,-0.039,-0.024
-0.045,-0.082,-0.038,0.064,-0.003,-0.06,0.021,-0.046,-0.004,-0.017,-0.041,-0.028
-0.067,-0.08,-0.013,0.074,-0.027,-0.046,0.018,-0.045,0.0,-0.021,-0.038,-0.033
-0.071,-0.08,-0.008,0.076,-0.031,-0.044,0.024,-0.045,0.002,-0.018,-0.035,-0.034
-0.035,-0.08,-0.046,0.058,0.006,-0.063,0.048,-0.041,0.005,-0.015,-0.035,-0.03
-0.052,-0.08,-0.028,0.066,-0.012,-0.053,0.046,-0.04,0.008,-0.015,-0.035,-0.03
-0.067,-0.081,-0.013,0.074,-0.027,-0.047,0.036,-0.041,0.01,-0.015,-0.035,-0.028
-0.063,-0.08,-0.017,0.072,-0.023,-0.048,0.033,-0.047,0.007,-0.015,-0.035,-0.024
-0.068,-0.08,-0.012,0.075,-0.028,-0.046,0.022,-0.055,0.001,-0.014,-0.038,-0.026
-0.054,-0.08,-0.026,0.067,-0.014,-0.052,0.024,-0.058,-0.003,-0.022,-0.041,-0.028
-0.044,-0.08,-0.035,0.062,-0.005,-0.057,0.031,-0.064,-0.008,-0.035,-0.044,-0.031
-0.052,-0.08,-0.029,0.066,-0.012,-0.054,0.03,-0.075,-0.012,-0.035,-0.047,-0.034
-0.056,-0.079,-0.023,0.068,-0.017,-0.051,0.03,-0.075,-0.018,-0.036,-0.05,-0.037
-0.062,-0.082,-0.02,0.072,-0.021,-0.051,0.025,-0.075,-0.027,-0.04,-0.049,-0.04
-0.069,-0.076,-0.007,0.072,-0.031,-0.041,0.025,-0.075,-0.026,-0.043,-0.045,-0.04
-0.049,-0.087,-0.039,0.068,-0.005,-0.063,0.024,-0.074,-0.024,-0.047,-0.045,-0.043
-0.046,-0.108,-0.062,0.077,0.009,-0.084,0.02,-0.076,-0.025,-0.05,-0.045,-0.046
-0.061,-0.104,-0.043,0.083,-0.008,-0.073,0.02,-0.08,-0.025,-0.05,-0.045,-0.044
-0.059,-0.105,-0.046,0.083,-0.006,-0.076,0.02,-0.085,-0.025,-0.05,-0.045,-0.045
-0.061,-0.105,-0.044,0.084,-0.008,-0.074,0.02,-0.081,-0.029,-0.05,-0.045,-0.044
-0.064,-0.105,-0.041,0.084,-0.011,-0.072,0.02,-0.08,-0.033,-0.05,-0.045,-0.046
-0.063,-0.102,-0.039,0.082,-0.011,-0.071,0.023,-0.079,-0.038,-0.05,-0.045,-0.05
-0.058,-0.099,-0.041,0.078,-0.009,-0.07,0.026,-0.076,-0.039,-0.05,-0.045,-0.05
-0.055,-0.101,-0.046,0.079,-0.005,-0.073,0.024,-0.074,-0.035,-0.05,-0.047,-0.05
-0.049,-0.099,-0.05,0.074,0.0,-0.074,0.026,-0.077,-0.035,-0.05,-0.047,-0.05
-0.033,-0.102,-0.069,0.068,0.018,-0.085,0.025,-0.098,-0.035,-0.051,-0.044,-0.051
-0.023,-0.097,-0.074,0.06,0.026,-0.085,0.025,-0.098,-0.035,-0.049,-0.04,-0.046
-0.038,-0.096,-0.057,0.067,0.01,-0.076,0.019,-0.086,-0.036,-0.052,-0.037,-0.04
-0.016,-0.069,-0.053,0.043,0.019,-0.061,0.029,-0.065,-0.024,-0.036,-0.032,-0.032
0.049,-0.027,-0.076,-0.011,0.063,-0.051,0.057,-0.028,0.009,-0.004,-0.009,-0.012
0.047,-0.031,-0.079,-0.008,0.063,-0.054,0.05,0.008,0.038,0.019,0.02,0.015
0.041,-0.024,-0.065,-0.008,0.053,-0.044,0.033,0.008,0.031,0.019,0.019,0.026
0.038,-0.036,-0.075,-0.001,0.057,-0.055,0.031,-0.047,0.005,-0.015,-0.013,0.007
0.021,-0.061,-0.083,0.02,0.052,-0.072,0.025,-0.07,-0.019,-0.033,-0.029,-0.023
0.004,-0.063,-0.067,0.029,0.036,-0.065,0.021,-0.085,-0.036,-0.04,-0.041,-0.046
-0.044,-0.097,-0.052,0.071,0.004,-0.074,0.017,-0.093,-0.041,-0.051,-0.057,-0.057
-0.083,-0.129,-0.046,0.106,-0.018,-0.087,0.014,-0.111,-0.059,-0.062,-0.07,-0.068
-0.076,-0.127,-0.05,0.102,-0.013,-0.088,0.04,-0.101,-0.04,-0.049,-0.055,-0.062
-0.041,-0.132,-0.091,0.086,0.025,-0.111,0.039,-0.104,-0.043,-0.06,-0.059,-0.067
-0.049,-0.121,-0.072,0.085,0.012,-0.096,0.047,-0.103,-0.032,-0.046,-0.05,-0.065
-0.051,-0.124,-0.073,0.088,0.011,-0.098,0.047,-0.091,-0.022,-0.05,-0.042,-0.062
-0.091,-0.119,-0.029,0.106,-0.031,-0.074,0.057,-0.091,-0.032,-0.054,-0.065,-0.081
-0.118,-0.126,-0.008,0.122,-0.055,-0.066,0.249,0.336,0.096,0.001,-0.091,-0.156
0.242,0.089,-0.153,-0.166,0.197,-0.032,0.125,0.362,0.315,0.245,0.156,0.053
0.715,0.737,0.022,-0.726,0.346,0.379,-0.518,-0.632,0.538,0.809,0.931,0.859
0.586,0.709,0.123,-0.648,0.231,0.416,-0.901,-1.543,0.023,0.418,0.795,0.953
0.165,0.079,-0.086,-0.122,0.125,-0.003,-0.629,-1.327,-0.55,-0.341,-0.023,0.248
0.045,-0.085,-0.13,0.02,0.088,-0.107,-0.197,-0.436,-0.249,-0.187,-0.08,0.009
0.027,-0.081,-0.108,0.027,0.067,-0.094,-0.012,-0.095,-0.072,-0.075,-0.047,-0.03
0.006,-0.083,-0.089,0.039,0.047,-0.086,0.042,-0.052,-0.06,-0.06,-0.059,-0.048
0.008,-0.093,-0.101,0.043,0.055,-0.097,0.054,-0.004,-0.023,-0.032,-0.036,-0.033
-0.007,-0.109,-0.102,0.058,0.048,-0.105,0.064,-0.002,-0.038,-0.051,-0.054,-0.047
-0.005,-0.093,-0.087,0.049,0.041,-0.09,0.07,0.041,-0.015,-0.027,-0.032,-0.034
-0.009,-0.096,-0.087,0.053,0.039,-0.091,0.064,0.043,-0.023,-0.039,-0.046,-0.045
-0.013,-0.084,-0.07,0.049,0.029,-0.077,0.066,0.055,-0.009,-0.025,-0.031,-0.035
0.006,-0.083,-0.089,0.039,0.048,-0.086,0.064,0.055,-0.008,-0.027,-0.032,-0.036
0.037,-0.075,-0.113,0.019,0.075,-0.094,0.065,0.065,0.0,-0.018,-0.025,-0.035
0.037,-0.075,-0.112,0.019,0.075,-0.093,0.065,0.073,0.006,-0.013,-0.02,-0.031
0.043,-0.074,-0.118,0.016,0.081,-0.096,0.068,0.084,0.011,-0.009,-0.018,-0.031
0.054,-0.065,-0.119,0.006,0.087,-0.092,0.073,0.105,0.022,-0.001,-0.011,-0.029
0.065,-0.059,-0.124,-0.002,0.095,-0.091,0.074,0.119,0.029,0.002,-0.004,-0.024
0.082,-0.052,-0.135,-0.015,0.109,-0.093,0.069,0.138,0.039,0.02,0.008,-0.011
0.081,-0.043,-0.124,-0.019,0.103,-0.083,0.065,0.16,0.056,0.031,0.025,-0.004
0.107,-0.028,-0.135,-0.039,0.121,-0.081,0.063,0.192,0.077,0.032,0.045,0.002
0.13,-0.015,-0.145,-0.057,0.138,-0.079,0.058,0.236,0.099,0.066,0.06,0.015
0.166,0.012,-0.154,-0.089,0.16,-0.071,0.056,0.273,0.125,0.093,0.076,0.041
0.202,0.039,-0.163,-0.12,0.182,-0.062,0.051,0.304,0.154,0.127,0.104,0.082
0.227,0.068,-0.16,-0.147,0.193,-0.046,0.042,0.331,0.18,0.169,0.14,0.111
0.306,0.114,-0.193,-0.21,0.249,-0.039,0.034,0.343,0.202,0.184,0.171,0.141
0.326,0.125,-0.201,-0.225,0.263,-0.037,0.018,0.333,0.222,0.212,0.198,0.172
0.306,0.115,-0.191,-0.21,0.248,-0.038,0.005,0.319,0.221,0.216,0.212,0.188
0.301,0.109,-0.192,-0.205,0.246,-0.041,0.0,0.289,0.21,0.216,0.209,0.193
0.273,0.104,-0.17,-0.188,0.221,-0.033,-0.006,0.222,0.182,0.197,0.196,0.18
0.223,0.082,-0.141,-0.152,0.181,-0.029,-0.012,0.15,0.13,0.144,0.154,0.143
0.155,0.039,-0.116,-0.097,0.135,-0.038,-0.014,0.075,0.079,0.09,0.096,0.084
0.11,0.005,-0.105,-0.057,0.107,-0.05,-0.001,0.023,0.034,0.036,0.05,0.028
0.07,-0.035,-0.105,-0.017,0.088,-0.07,0.015,-0.012,-0.004,-0.006,0.011,-0.008
0.03,-0.075,-0.105,0.023,0.068,-0.089,0.016,-0.047,-0.035,-0.037,-0.013,-0.024
0.01,-0.094,-0.105,0.042,0.058,-0.099,0.015,-0.06,-0.057,-0.056,-0.035,-0.04
0.009,-0.096,-0.105,0.044,0.058,-0.101,0.014,-0.063,-0.066,-0.06,-0.051,-0.046
0.01,-0.092,-0.102,0.041,0.057,-0.097,0.011,-0.072,-0.064,-0.06,-0.058,-0.045
0.009,-0.09,-0.1,0.04,0.054,-0.095,0.009,-0.075,-0.071,-0.066,-0.061,-0.048
0.01,-0.09,-0.1,0.04,0.055,-0.095,0.012,-0.07,-0.076,-0.07,-0.059,-0.054
-0.008,-0.108,-0.1,0.058,0.046,-0.103,0.015,-0.068,-0.083,-0.076,-0.06,-0.059
-0.015,-0.115,-0.1,0.065,0.043,-0.107,0.015,-0.064,-0.087,-0.081,-0.06,-0.055
-0.004,-0.104,-0.1,0.054,0.048,-0.102,0.015,-0.06,-0.082,-0.083,-0.06,-0.055
0.004,-0.1,-0.104,0.049,0.054,-0.102,0.015,-0.057,-0.08,-0.086,-0.06,-0.053
0.017,-0.091,-0.109,0.037,0.063,-0.1,0.015,-0.054,-0.076,-0.085,-0.06,-0.049
0.023,-0.087,-0.11,0.032,0.067,-0.098,0.015,-0.052,-0.074,-0.085,-0.06,-0.051
0.023,-0.087,-0.11,0.032,0.067,-0.098,0.015,-0.048,-0.08,-0.085,-0.06,-0.052
0.008,-0.102,-0.11,0.047,0.059,-0.106,0.015,-0.045,-0.086,-0.085,-0.065,-0.065
-0.004,-0.114,-0.11,0.059,0.053,-0.112,0.015,-0.045,-0.085,-0.085,-0.066,-0.071
0.008,-0.102,-0.11,0.047,0.059,-0.106,0.015,-0.044,-0.085,-0.087,-0.065,-0.07
0.011,-0.099,-0.11,0.044,0.061,-0.104,0.014,-0.056,-0.085,-0.091,-0.065,-0.068
0.01,-0.094,-0.105,0.042,0.058,-0.099,0.009,-0.068,-0.085,-0.09,-0.065,-0.064
0.013,-0.093,-0.106,0.04,0.059,-0.099,0.006,-0.074,-0.089,-0.09,-0.065,-0.065
0.017,-0.086,-0.103,0.035,0.06,-0.094,0.003,-0.075,-0.09,-0.09,-0.07,-0.068
0.014,-0.086,-0.1,0.036,0.057,-0.093,-0.002,-0.076,-0.095,-0.091,-0.069,-0.071
0.01,-0.09,-0.1,0.04,0.055,-0.095,-0.004,-0.083,-0.094,-0.094,-0.075,-0.07
0.001,-0.092,-0.094,0.046,0.048,-0.093,-0.01,-0.086,-0.089,-0.095,-0.083,-0.07
-0.013,-0.123,-0.111,0.068,0.049,-0.117,-0.017,-0.089,-0.091,-0.095,-0.08,-0.07
-0.017,-0.133,-0.117,0.076,0.05,-0.125,-0.025,-0.091,-0.088,-0.095,-0.08,-0.071
-0.023,-0.132,-0.109,0.078,0.043,-0.12,-0.028,-0.101,-0.104,-0.097,-0.077,-0.075
-0.028,-0.138,-0.11,0.083,0.041,-0.124,-0.026,-0.106,-0.117,-0.1,-0.074,-0.075
-0.036,-0.139,-0.103,0.088,0.034,-0.121,-0.022,-0.104,-0.114,-0.103,-0.076,-0.075
-0.032,-0.14,-0.107,0.086,0.038,-0.123,-0.02,-0.106,-0.115,-0.105,-0.08,-0.075
-0.022,-0.132,-0.11,0.077,0.044,-0.121,-0.017,-0.105,-0.115,-0.11,-0.081,-0.076
-0.009,-0.126,-0.117,0.068,0.054,-0.122,-0.013,-0.104,-0.115,-0.109,-0.08,-0.071
-0.002,-0.119,-0.117,0.061,0.058,-0.118,-0.027,-0.1,-0.111,-0.106,-0.081,-0.062
0.007,-0.113,-0.12,0.053,0.063,-0.116,-0.026,-0.091,-0.1,-0.099,-0.079,-0.054
0.045,-0.099,-0.144,0.028,0.095,-0.121,-0.015,-0.091,-0.094,-0.099,-0.081,-0.046
0.08,-0.066,-0.146,-0.007,0.113,-0.105,-0.002,-0.072,-0.082,-0.086,-0.062,-0.039
0.106,-0.039,-0.146,-0.033,0.126,-0.092,0.015,-0.043,-0.055,-0.052,-0.044,-0.023
0.139,-0.012,-0.15,-0.064,0.145,-0.08,-0.014,-0.023,-0.036,-0.037,-0.038,-0.005
0.133,-0.018,-0.151,-0.057,0.142,-0.085,-0.039,-0.046,-0.054,-0.049,-0.035,-0.001
0.078,-0.067,-0.145,-0.005,0.112,-0.106,-0.03,-0.08,-0.087,-0.074,-0.055,-0.017
0.045,-0.092,-0.137,0.024,0.091,-0.114,-0.03,-0.083,-0.093,-0.088,-0.065,-0.039
0.013,-0.107,-0.119,0.047,0.066,-0.113,-0.024,-0.111,-0.11,-0.101,-0.085,-0.059
-0.012,-0.129,-0.118,0.071,0.053,-0.123,-0.025,-0.129,-0.139,-0.129,-0.114,-0.075
-0.024,-0.136,-0.112,0.081,0.044,-0.124,-0.026,-0.136,-0.134,-0.122,-0.107,-0.077
-0.021,-0.132,-0.11,0.076,0.045,-0.121,-0.023,-0.119,-0.127,-0.114,-0.1,-0.071
-0.021,-0.131,-0.11,0.076,0.044,-0.12,-0.029,-0.139,-0.134,-0.123,-0.106,-0.073
-0.024,-0.123,-0.099,0.074,0.038,-0.111,-0.014,-0.107,-0.115,-0.098,-0.086,-0.066
-0.013,-0.123,-0.11,0.069,0.048,-0.116,-0.03,-0.148,-0.13,-0.128,-0.107,-0.073
-0.091,-0.133,-0.042,0.113,-0.024,-0.087,0.11,0.063,-0.049,-0.1,-0.127,-0.129
0.032,-0.104,-0.136,0.036,0.084,-0.119,0.238,0.493,0.13,0.008,-0.093,-0.143
0.506,0.43,-0.076,-0.468,0.291,0.177,-0.198,-0.054,0.482,0.588,0.576,0.463
0.715,0.887,0.172,-0.802,0.271,0.529,-0.822,-1.21,0.392,0.84,1.119,1.117
0.355,0.367,0.013,-0.361,0.171,0.19,-0.878,-1.635,-0.451,-0.096,0.345,0.635
0.079,-0.087,-0.166,0.004,0.123,-0.126,-0.449,-0.911,-0.544,-0.406,-0.146,0.079
0.06,-0.105,-0.165,0.022,0.113,-0.134,-0.113,-0.188,-0.162,-0.114,-0.033,0.02
0.007,-0.121,-0.128,0.057,0.067,-0.124,-0.022,-0.088,-0.123,-0.109,-0.074,-0.043
0.027,-0.102,-0.129,0.038,0.078,-0.115,-0.002,-0.029,-0.089,-0.075,-0.054,-0.037
0.039,-0.108,-0.148,0.035,0.094,-0.128,0.026,-0.015,-0.093,-0.094,-0.066,-0.042
0.025,-0.099,-0.124,0.037,0.074,-0.111,0.044,0.0,-0.075,-0.078,-0.053,-0.04
0.035,-0.098,-0.133,0.031,0.084,-0.115,0.045,0.015,-0.067,-0.081,-0.051,-0.035
0.035,-0.095,-0.13,0.031,0.083,-0.113,0.049,0.019,-0.06,-0.078,-0.049,-0.037
0.031,-0.094,-0.126,0.032,0.079,-0.11,0.051,0.037,-0.047,-0.062,-0.039,-0.033
0.006,-0.093,-0.099,0.043,0.053,-0.096,0.055,0.038,-0.045,-0.055,-0.039,-0.031
0.002,-0.088,-0.09,0.044,0.046,-0.089,0.054,0.064,-0.032,-0.041,-0.026,-0.022
0.034,-0.091,-0.124,0.029,0.079,-0.107,0.05,0.076,-0.029,-0.04,-0.025,-0.019
0.056,-0.083,-0.139,0.014,0.098,-0.111,0.048,0.08,-0.02,-0.032,-0.014,-0.012
0.056,-0.075,-0.131,0.01,0.094,-0.103,0.044,0.1,-0.016,-0.026,-0.011,-0.008
0.063,-0.067,-0.13,0.003,0.096,-0.098,0.042,0.115,-0.01,-0.012,0.001,0.003
0.1,-0.059,-0.159,-0.02,0.13,-0.108,0.039,0.136,0.002,0.002,0.016,0.012
0.116,-0.054,-0.171,-0.031,0.144,-0.112,0.037,0.168,0.02,0.017,0.026,0.023
0.112,-0.056,-0.169,-0.028,0.141,-0.112,0.031,0.199,0.035,0.032,0.037,0.036
0.139,-0.03,-0.17,-0.055,0.155,-0.1,0.027,0.247,0.061,0.055,0.06,0.064
0.185,0.005,-0.179,-0.095,0.182,-0.087,0.023,0.292,0.097,0.085,0.094,0.09
0.223,0.032,-0.191,-0.127,0.207,-0.079,0.018,0.319,0.128,0.12,0.129,0.118
0.257,0.06,-0.197,-0.158,0.227,-0.068,0.013,0.341,0.16,0.153,0.16,0.154
0.3,0.096,-0.203,-0.198,0.251,-0.053,0.001,0.345,0.181,0.182,0.192,0.176
0.304,0.112,-0.192,-0.208,0.248,-0.04,-0.014,0.335,0.173,0.201,0.216,0.201
0.28,0.095,-0.185,-0.187,0.232,-0.045,-0.026,0.312,0.163,0.201,0.228,0.203
0.264,0.087,-0.177,-0.175,0.22,-0.045,-0.027,0.25,0.153,0.19,0.215,0.196
0.236,0.065,-0.171,-0.151,0.204,-0.053,-0.019,0.17,0.121,0.144,0.172,0.179
0.192,0.024,-0.168,-0.108,0.18,-0.072,-0.013,0.094,0.061,0.076,0.113,0.129
0.118,-0.029,-0.147,-0.044,0.132,-0.088,-0.006,0.029,-0.004,0.018,0.047,0.076
0.064,-0.066,-0.131,0.001,0.098,-0.098,0.001,-0.019,-0.044,-0.025,0.005,0.034
0.046,-0.078,-0.124,0.016,0.085,-0.101,0.007,-0.056,-0.069,-0.058,-0.019,0.014
0.014,-0.103,-0.117,0.045,0.066,-0.11,0.01,-0.082,-0.083,-0.074,-0.044,-0.001
0.0,-0.112,-0.111,0.056,0.056,-0.111,0.01,-0.092,-0.091,-0.081,-0.055,-0.012
-0.012,-0.114,-0.103,0.063,0.046,-0.109,0.01,-0.091,-0.095,-0.086,-0.059,-0.016
-0.02,-0.124,-0.104,0.072,0.042,-0.114,0.01,-0.09,-0.102,-0.089,-0.062,-0.022
-0.012,-0.122,-0.111,0.067,0.05,-0.116,0.01,-0.09,-0.113,-0.091,-0.069,-0.028
-0.009,-0.12,-0.11,0.065,0.05,-0.115,0.006,-0.09,-0.112,-0.089,-0.075,-0.03
-0.012,-0.12,-0.108,0.066,0.048,-0.114,0.005,-0.09,-0.109,-0.09,-0.07,-0.03
-0.014,-0.12,-0.106,0.067,0.046,-0.112,0.005,-0.088,-0.106,-0.09,-0.07,-0.033
-0.017,-0.12,-0.103,0.069,0.043,-0.111,0.0,-0.083,-0.103,-0.09,-0.069,-0.036
-0.01,-0.119,-0.109,0.065,0.049,-0.113,0.0,-0.077,-0.101,-0.086,-0.065,-0.035
0.003,-0.116,-0.119,0.057,0.062,-0.117,-0.001,-0.074,-0.099,-0.085,-0.065,-0.029
0.005,-0.113,-0.118,0.054,0.062,-0.115,-0.005,-0.068,-0.095,-0.085,-0.063,-0.024
0.0,-0.111,-0.111,0.056,0.056,-0.111,-0.005,-0.066,-0.095,-0.081,-0.06,-0.019
0.005,-0.107,-0.112,0.051,0.059,-0.109,-0.007,-0.07,-0.093,-0.08,-0.057,-0.013
-0.003,-0.105,-0.102,0.054,0.05,-0.104,-0.01,-0.07,-0.089,-0.081,-0.054,-0.006
0.003,-0.107,-0.11,0.052,0.057,-0.108,-0.01,-0.073,-0.091,-0.085,-0.051,-0.009
0.017,-0.112,-0.129,0.047,0.073,-0.12,-0.007,-0.075,-0.086,-0.085,-0.05,-0.026
-0.001,-0.116,-0.115,0.059,0.057,-0.115,-0.001,-0.077,-0.086,-0.087,-0.056,-0.031
0.018,-0.106,-0.124,0.044,0.071,-0.115,0.004,-0.084,-0.083,-0.091,-0.063,-0.029
0.002,-0.124,-0.126,0.061,0.065,-0.124,0.007,-0.092,-0.092,-0.09,-0.065,-0.034
-0.026,-0.135,-0.109,0.08,0.042,-0.121,0.013,-0.096,-0.106,-0.09,-0.065,-0.035
-0.019,-0.127,-0.108,0.073,0.045,-0.117,0.014,-0.102,-0.105,-0.09,-0.065,-0.034
-0.031,-0.131,-0.1,0.081,0.035,-0.115,0.01,-0.106,-0.104,-0.09,-0.065,-0.031
-0.034,-0.132,-0.098,0.083,0.033,-0.115,0.01,-0.104,-0.1,-0.09,-0.069,-0.028
-0.044,-0.135,-0.091,0.09,0.024,-0.113,0.01,-0.105,-0.1,-0.089,-0.07,-0.025
-0.042,-0.136,-0.094,0.089,0.027,-0.115,0.01,-0.105,-0.098,-0.092,-0.07,-0.023
-0.033,-0.14,-0.107,0.087,0.037,-0.123,0.01,-0.105,-0.094,-0.091,-0.07,-0.019
-0.037,-0.14,-0.103,0.089,0.033,-0.121,0.005,-0.105,-0.095,-0.09,-0.07,-0.023
-0.045,-0.145,-0.1,0.095,0.028,-0.122,-0.004,-0.105,-0.095,-0.089,-0.07,-0.025
-0.045,-0.143,-0.098,0.095,0.027,-0.12,-0.013,-0.105,-0.095,-0.086,-0.07,-0.025
-0.052,-0.145,-0.093,0.099,0.021,-0.119,-0.018,-0.105,-0.094,-0.084,-0.07,-0.03
-0.065,-0.165,-0.1,0.116,0.017,-0.132,-0.016,-0.106,-0.096,-0.087,-0.07,-0.03
-0.051,-0.158,-0.107,0.104,0.029,-0.132,-0.011,-0.103,-0.093,-0.09,-0.07,-0.03
-0.057,-0.15,-0.093,0.104,0.019,-0.122,-0.011,-0.112,-0.102,-0.095,-0.07,-0.03
-0.06,-0.145,-0.085,0.103,0.013,-0.115,-0.004,-0.112,-0.104,-0.091,-0.063,-0.031
-0.02,-0.135,-0.115,0.077,0.048,-0.125,-0.008,-0.104,-0.098,-0.088,-0.053,-0.027
0.007,-0.12,-0.127,0.056,0.067,-0.123,0.015,-0.087,-0.089,-0.083,-0.042,-0.018
0.028,-0.085,-0.112,0.029,0.07,-0.099,0.049,-0.057,-0.064,-0.05,-0.033,0.006
0.077,-0.063,-0.14,-0.006,0.109,-0.102,0.013,-0.036,-0.059,-0.024,-0.028,0.027
0.113,-0.056,-0.168,-0.028,0.14,-0.111,-0.034,-0.044,-0.067,-0.025,-0.025,0.017
0.068,-0.097,-0.165,0.015,0.117,-0.13,-0.033,-0.083,-0.077,-0.057,-0.033,0.007
0.018,-0.135,-0.153,0.059,0.086,-0.144,-0.013,-0.092,-0.079,-0.07,-0.045,-0.002
-0.003,-0.128,-0.124,0.066,0.061,-0.126,-0.007,-0.104,-0.088,-0.073,-0.058,-0.017
-0.056,-0.167,-0.111,0.112,0.028,-0.139,0.0,-0.114,-0.111,-0.097,-0.071,-0.029
-0.072,-0.192,-0.12,0.133,0.025,-0.156,0.002,-0.146,-0.127,-0.107,-0.089,-0.04
-0.071,-0.177,-0.107,0.124,0.019,-0.142,0.013,-0.138,-0.112,-0.092,-0.081,-0.032
-0.077,-0.193,-0.116,0.135,0.02,-0.154,0.011,-0.141,-0.128,-0.107,-0.089,-0.036
-0.072,-0.177,-0.105,0.124,0.017,-0.14,0.012,-0.13,-0.113,-0.087,-0.082,-0.029
-0.094,-0.192,-0.098,0.144,0.003,-0.145,-0.001,-0.123,-0.125,-0.1,-0.085,-0.029
-0.129,-0.175,-0.046,0.152,-0.041,-0.11,0.052,-0.095,-0.098,-0.095,-0.094,-0.052
-0.115,-0.154,-0.039,0.134,-0.038,-0.096,0.257,0.328,0.053,-0.029,-0.105,-0.106
0.243,0.117,-0.126,-0.18,0.185,-0.005,0.033,0.128,0.273,0.271,0.208,0.167
0.745,0.751,0.006,-0.748,0.369,0.378,-0.721,-0.959,0.477,0.817,0.964,0.932
0.654,0.565,-0.089,-0.61,0.372,0.238,-1.063,-1.635,-0.129,0.308,0.725,0.942
0.238,-0.05,-0.288,-0.094,0.263,-0.169,-0.661,-1.225,-0.604,-0.379,-0.03,0.293
0.058,-0.145,-0.203,0.044,0.13,-0.173,-0.188,-0.362,-0.249,-0.177,-0.066,0.078
-0.006,-0.155,-0.15,0.081,0.072,-0.152,-0.02,-0.094,-0.133,-0.111,-0.069,0.017
-0.054,-0.165,-0.112,0.11,0.029,-0.138,0.024,-0.058,-0.101,-0.089,-0.075,-0.011
-0.047,-0.175,-0.128,0.112,0.041,-0.152,0.049,-0.017,-0.074,-0.068,-0.063,-0.007
-0.037,-0.172,-0.136,0.105,0.05,-0.154,0.07,-0.024,-0.085,-0.081,-0.078,-0.019
-0.048,-0.165,-0.117,0.106,0.035,-0.14,0.074,0.009,-0.061,-0.057,-0.061,-0.012
-0.044,-0.167,-0.123,0.105,0.04,-0.144,0.069,0.01,-0.07,-0.068,-0.069,-0.024
-0.044,-0.157,-0.112,0.101,0.034,-0.134,0.071,0.033,-0.051,-0.049,-0.053,-0.017
-0.049,-0.166,-0.117,0.108,0.034,-0.141,0.07,0.041,-0.055,-0.053,-0.057,-0.014
-0.058,-0.164,-0.106,0.111,0.025,-0.135,0.07,0.058,-0.045,-0.04,-0.047,-0.007
-0.045,-0.165,-0.119,0.105,0.037,-0.141,0.069,0.075,-0.043,-0.037,-0.045,-0.002
-0.013,-0.158,-0.145,0.086,0.066,-0.151,0.075,0.085,-0.039,-0.029,-0.038,0.003
-0.008,-0.154,-0.145,0.082,0.069,-0.15,0.081,0.096,-0.024,-0.022,-0.029,0.009
-0.008,-0.151,-0.144,0.08,0.068,-0.147,0.079,0.122,-0.014,-0.017,-0.022,0.014
0.004,-0.142,-0.147,0.069,0.076,-0.144,0.08,0.152,0.005,-0.003,-0.014,0.025
0.014,-0.129,-0.143,0.058,0.079,-0.136,0.08,0.181,0.018,0.007,-0.005,0.031
0.036,-0.114,-0.15,0.039,0.094,-0.132,0.08,0.223,0.039,0.028,0.019,0.043
0.05,-0.107,-0.158,0.029,0.104,-0.132,0.081,0.266,0.067,0.047,0.034,0.061
0.064,-0.089,-0.153,0.013,0.108,-0.12,0.086,0.311,0.093,0.069,0.053,0.078
0.12,-0.069,-0.189,-0.025,0.155,-0.128,0.096,0.36,0.137,0.107,0.092,0.105
0.167,-0.042,-0.209,-0.062,0.189,-0.126,0.088,0.386,0.164,0.14,0.124,0.134
0.192,-0.011,-0.203,-0.09,0.197,-0.106,0.073,0.403,0.183,0.17,0.153,0.165
0.203,-0.003,-0.206,-0.1,0.205,-0.104,0.058,0.412,0.19,0.193,0.191,0.191
0.229,0.024,-0.205,-0.126,0.217,-0.09,0.035,0.379,0.171,0.197,0.2,0.21
0.234,0.029,-0.204,-0.131,0.219,-0.087,0.005,0.323,0.166,0.183,0.2,0.193
0.193,-0.009,-0.201,-0.092,0.197,-0.105,-0.006,0.234,0.143,0.157,0.171,0.192
0.152,-0.041,-0.194,-0.056,0.173,-0.117,-0.005,0.139,0.091,0.108,0.127,0.151
0.093,-0.079,-0.172,-0.007,0.133,-0.125,-0.003,0.052,0.02,0.048,0.067,0.113
