0.148,0.263,0.115,-0.206,0.016,0.189,-0.141,0.324,0.409,0.423,0.259,0.21
0.114,0.236,0.122,-0.175,-0.004,0.179,-0.14,0.307,0.386,0.406,0.248,0.204
0.054,0.185,0.131,-0.12,-0.039,0.158,-0.117,0.269,0.339,0.363,0.206,0.172
0.034,0.14,0.106,-0.087,-0.036,0.122,-0.073,0.234,0.291,0.289,0.122,0.105
0.008,0.087,0.079,-0.048,-0.035,0.082,-0.024,0.195,0.236,0.204,0.037,0.032
-0.03,0.032,0.062,-0.001,-0.046,0.046,0.006,0.159,0.178,0.125,-0.044,-0.028
-0.061,-0.01,0.05,0.035,-0.055,0.019,0.034,0.133,0.131,0.056,-0.121,-0.076
-0.103,-0.061,0.041,0.082,-0.072,-0.01,0.064,0.119,0.093,0.009,-0.164,-0.112
-0.119,-0.083,0.036,0.101,-0.077,-0.023,0.072,0.107,0.071,-0.024,-0.181,-0.131
-0.145,-0.114,0.032,0.129,-0.089,-0.041,0.075,0.1,0.069,-0.045,-0.192,-0.13
-0.148,-0.122,0.027,0.135,-0.088,-0.047,0.077,0.1,0.07,-0.051,-0.202,-0.128
-0.116,-0.092,0.023,0.104,-0.069,-0.034,0.08,0.1,0.069,-0.046,-0.198,-0.126
-0.12,-0.102,0.018,0.111,-0.068,-0.042,0.08,0.1,0.071,-0.043,-0.195,-0.123
-0.112,-0.096,0.015,0.103,-0.063,-0.04,0.075,0.1,0.07,-0.039,-0.192,-0.13
-0.097,-0.085,0.013,0.091,-0.055,-0.035,0.076,0.102,0.064,-0.035,-0.189,-0.137
-0.094,-0.086,0.008,0.09,-0.051,-0.038,0.074,0.106,0.057,-0.039,-0.194,-0.135
-0.1,-0.078,0.022,0.089,-0.061,-0.028,0.07,0.11,0.051,-0.046,-0.197,-0.135
-0.11,-0.078,0.032,0.094,-0.07,-0.023,0.07,0.111,0.044,-0.051,-0.202,-0.132
-0.096,-0.071,0.025,0.083,-0.06,-0.023,0.068,0.105,0.039,-0.057,-0.205,-0.129
-0.09,-0.07,0.02,0.08,-0.055,-0.025,0.064,0.1,0.031,-0.064,-0.205,-0.132
-0.106,-0.091,0.015,0.098,-0.06,-0.038,0.066,0.094,0.017,-0.072,-0.204,-0.133
-0.112,-0.104,0.007,0.108,-0.059,-0.048,0.064,0.088,0.001,-0.088,-0.215,-0.152
-0.113,-0.106,0.007,0.109,-0.059,-0.05,0.067,0.084,-0.015,-0.099,-0.222,-0.167
-0.119,-0.11,0.009,0.114,-0.064,-0.05,0.079,0.077,-0.028,-0.101,-0.219,-0.164
-0.1,-0.106,-0.007,0.103,-0.046,-0.056,0.081,0.071,-0.038,-0.115,-0.226,-0.168
-0.082,-0.099,-0.017,0.091,-0.033,-0.057,0.079,0.064,-0.051,-0.123,-0.229,-0.17
-0.101,-0.115,-0.014,0.108,-0.043,-0.064,0.08,0.057,-0.055,-0.136,-0.237,-0.17
-0.117,-0.133,-0.015,0.125,-0.051,-0.074,0.08,0.051,-0.056,-0.152,-0.246,-0.17
-0.114,-0.129,-0.015,0.122,-0.05,-0.071,0.08,0.046,-0.072,-0.149,-0.244,-0.17
-0.115,-0.13,-0.015,0.123,-0.05,-0.072,0.08,0.042,-0.081,-0.153,-0.248,-0.17
-0.115,-0.134,-0.019,0.125,-0.048,-0.076,0.08,0.039,-0.082,-0.156,-0.25,-0.17
-0.116,-0.141,-0.025,0.129,-0.046,-0.083,0.08,0.035,-0.086,-0.154,-0.25,-0.17
-0.108,-0.139,-0.031,0.124,-0.038,-0.085,0.08,0.032,-0.088,-0.156,-0.25,-0.171
-0.106,-0.141,-0.034,0.124,-0.036,-0.087,0.08,0.028,-0.091,-0.154,-0.25,-0.175
-0.11,-0.139,-0.029,0.124,-0.04,-0.084,0.076,0.025,-0.09,-0.159,-0.25,-0.175
-0.104,-0.135,-0.031,0.12,-0.036,-0.083,0.075,0.025,-0.09,-0.165,-0.25,-0.177
-0.14,-0.169,-0.028,0.154,-0.056,-0.098,0.07,0.025,-0.09,-0.16,-0.25,-0.181
-0.132,-0.169,-0.036,0.151,-0.048,-0.102,0.07,0.025,-0.09,-0.155,-0.248,-0.179
-0.083,-0.135,-0.052,0.109,-0.016,-0.094,0.062,0.025,-0.09,-0.153,-0.245,-0.177
-0.092,-0.14,-0.048,0.116,-0.022,-0.094,0.074,0.025,-0.089,-0.144,-0.245,-0.174
-0.098,-0.144,-0.046,0.122,-0.026,-0.094,0.096,0.025,-0.091,-0.152,-0.243,-0.171
-0.092,-0.134,-0.042,0.113,-0.024,-0.088,0.095,0.025,-0.089,-0.163,-0.239,-0.168
-0.093,-0.133,-0.04,0.113,-0.026,-0.086,0.095,0.024,-0.091,-0.155,-0.241,-0.165
-0.086,-0.124,-0.037,0.105,-0.024,-0.08,0.095,0.026,-0.085,-0.147,-0.236,-0.165
-0.098,-0.122,-0.025,0.111,-0.037,-0.073,0.097,0.026,-0.077,-0.141,-0.227,-0.158
-0.107,-0.12,-0.013,0.114,-0.047,-0.066,0.09,0.048,-0.069,-0.128,-0.219,-0.152
-0.086,-0.068,0.018,0.077,-0.052,-0.025,0.099,0.082,-0.025,-0.09,-0.184,-0.139
-0.068,-0.01,0.058,0.039,-0.063,0.024,0.101,0.07,-0.004,-0.075,-0.155,-0.116
-0.038,0.041,0.079,-0.001,-0.058,0.06,0.083,0.055,-0.009,-0.074,-0.154,-0.109
-0.046,0.05,0.097,-0.002,-0.072,0.073,0.056,0.041,-0.02,-0.077,-0.156,-0.11
-0.027,0.011,0.038,0.008,-0.033,0.024,0.013,0.037,-0.022,-0.072,-0.153,-0.105
0.007,-0.038,-0.045,0.016,0.026,-0.041,0.038,0.028,-0.031,-0.079,-0.157,-0.105
-0.049,-0.091,-0.042,0.07,-0.004,-0.066,0.069,0.02,-0.062,-0.108,-0.176,-0.119
-0.09,-0.129,-0.038,0.11,-0.026,-0.083,0.072,0.017,-0.081,-0.133,-0.212,-0.154
-0.112,-0.159,-0.047,0.136,-0.032,-0.103,0.069,0.005,-0.102,-0.154,-0.221,-0.165
-0.1,-0.171,-0.072,0.136,-0.013,-0.121,0.071,0.027,-0.084,-0.131,-0.211,-0.163
-0.099,-0.159,-0.061,0.129,-0.019,-0.11,0.07,-0.001,-0.109,-0.165,-0.218,-0.162
-0.107,-0.169,-0.062,0.138,-0.022,-0.115,0.068,0.035,-0.071,-0.12,-0.194,-0.153
-0.113,-0.164,-0.051,0.138,-0.03,-0.107,0.073,-0.008,-0.11,-0.172,-0.217,-0.161
-0.116,-0.162,-0.045,0.139,-0.035,-0.103,0.055,0.039,-0.069,-0.117,-0.182,-0.15
-0.116,-0.171,-0.055,0.144,-0.03,-0.113,0.098,0.028,-0.08,-0.163,-0.233,-0.197
-0.082,-0.122,-0.041,0.102,-0.02,-0.081,0.134,0.266,-0.001,-0.195,-0.238,-0.185
0.073,0.084,0.01,-0.078,0.031,0.047,0.105,0.585,0.458,0.215,0.058,0.037
0.257,1.102,0.844,-0.68,-0.294,0.973,-0.358,-0.746,0.346,1.347,1.319,0.997
0.206,1.631,1.425,-0.919,-0.61,1.528,-0.75,-1.778,0.416,3.068,2.432,1.61
-0.156,0.471,0.626,-0.158,-0.391,0.548,-0.333,-1.221,0.139,1.7,0.929,0.482
-0.239,-0.278,-0.039,0.258,-0.1,-0.158,0.004,-0.547,-0.362,-0.363,-0.36,-0.26
-0.101,-0.202,-0.101,0.152,0.0,-0.151,0.046,-0.113,-0.018,-0.1,-0.145,-0.12
-0.104,-0.185,-0.081,0.144,-0.011,-0.132,0.096,-0.003,0.001,-0.172,-0.207,-0.165
-0.067,-0.148,-0.081,0.108,0.007,-0.114,0.09,0.068,0.005,-0.158,-0.158,-0.129
-0.054,-0.156,-0.102,0.106,0.024,-0.129,0.098,0.088,0.037,-0.126,-0.168,-0.139
-0.054,-0.142,-0.088,0.099,0.017,-0.115,0.084,0.099,0.008,-0.168,-0.168,-0.13
-0.045,-0.137,-0.092,0.091,0.024,-0.114,0.084,0.118,0.049,-0.11,-0.148,-0.12
-0.048,-0.133,-0.086,0.091,0.019,-0.109,0.076,0.105,0.024,-0.153,-0.164,-0.123
-0.039,-0.123,-0.084,0.082,0.023,-0.104,0.07,0.124,0.051,-0.103,-0.13,-0.108
-0.032,-0.121,-0.089,0.077,0.029,-0.105,0.073,0.122,0.045,-0.113,-0.135,-0.111
-0.021,-0.111,-0.09,0.066,0.035,-0.1,0.067,0.149,0.077,-0.066,-0.107,-0.098
0.004,-0.086,-0.09,0.041,0.047,-0.087,0.062,0.152,0.096,-0.065,-0.102,-0.095
0.014,-0.058,-0.072,0.022,0.043,-0.065,0.053,0.156,0.114,-0.054,-0.083,-0.077
0.012,-0.051,-0.063,0.02,0.038,-0.056,0.049,0.176,0.13,-0.023,-0.06,-0.064
0.027,-0.039,-0.066,0.006,0.047,-0.052,0.037,0.199,0.161,0.009,-0.034,-0.043
0.05,-0.013,-0.063,-0.018,0.057,-0.038,0.024,0.23,0.208,0.053,-0.005,-0.017
0.079,0.022,-0.057,-0.05,0.067,-0.017,0.008,0.265,0.236,0.089,0.026,0.011
0.085,0.044,-0.042,-0.064,0.063,0.001,-0.013,0.31,0.285,0.138,0.08,0.052
0.113,0.083,-0.029,-0.098,0.071,0.027,-0.037,0.347,0.342,0.2,0.141,0.084
0.156,0.142,-0.014,-0.149,0.085,0.064,-0.068,0.383,0.387,0.269,0.209,0.136
0.188,0.207,0.018,-0.198,0.085,0.112,-0.104,0.397,0.423,0.341,0.29,0.204
0.199,0.257,0.059,-0.228,0.07,0.158,-0.142,0.389,0.434,0.4,0.358,0.247
0.2,0.304,0.104,-0.252,0.048,0.204,-0.157,0.382,0.424,0.443,0.416,0.291
0.219,0.33,0.111,-0.275,0.053,0.221,-0.162,0.376,0.417,0.474,0.457,0.305
0.208,0.318,0.11,-0.263,0.049,0.214,-0.156,0.367,0.396,0.472,0.459,0.292
0.176,0.295,0.119,-0.236,0.029,0.206,-0.142,0.324,0.362,0.431,0.412,0.271
0.132,0.225,0.093,-0.179,0.019,0.158,-0.111,0.267,0.318,0.354,0.327,0.211
0.07,0.148,0.078,-0.109,-0.004,0.113,-0.066,0.217,0.255,0.264,0.24,0.147
0.026,0.09,0.064,-0.058,-0.019,0.076,-0.05,0.159,0.191,0.178,0.152,0.086
0.005,0.029,0.025,-0.017,-0.01,0.027,-0.014,0.122,0.141,0.101,0.078,0.024
-0.013,-0.012,0.001,0.013,-0.007,-0.005,0.017,0.103,0.089,0.044,0.028,-0.017
-0.022,-0.029,-0.006,0.026,-0.008,-0.017,0.031,0.082,0.05,0.003,0.006,-0.032
-0.047,-0.062,-0.015,0.054,-0.016,-0.038,0.05,0.074,0.044,-0.015,0.003,-0.038
-0.071,-0.096,-0.026,0.084,-0.022,-0.061,0.05,0.075,0.046,-0.015,-0.001,-0.042
-0.061,-0.088,-0.027,0.075,-0.017,-0.058,0.05,0.075,0.044,-0.015,-0.004,-0.038
-0.044,-0.083,-0.039,0.064,-0.003,-0.06,0.05,0.075,0.046,-0.015,-0.008,-0.035
-0.034,-0.078,-0.044,0.056,0.005,-0.06,0.05,0.076,0.044,-0.015,-0.012,-0.033
-0.038,-0.07,-0.032,0.055,-0.003,-0.051,0.048,0.071,0.048,-0.015,-0.015,-0.029
-0.035,-0.068,-0.033,0.052,-0.001,-0.05,0.045,0.081,0.048,-0.019,-0.015,-0.033
-0.029,-0.056,-0.027,0.042,-0.001,-0.041,0.042,0.091,0.041,-0.02,-0.015,-0.035
-0.034,-0.071,-0.037,0.053,0.002,-0.054,0.039,0.085,0.036,-0.021,-0.015,-0.035
-0.027,-0.083,-0.056,0.055,0.014,-0.069,0.035,0.083,0.031,-0.019,-0.015,-0.039
-0.024,-0.078,-0.055,0.052,0.016,-0.066,0.035,0.078,0.025,-0.022,-0.02,-0.04
-0.026,-0.082,-0.055,0.054,0.014,-0.068,0.05,0.075,0.02,-0.026,-0.028,-0.041
-0.024,-0.078,-0.054,0.051,0.015,-0.066,0.056,0.071,0.009,-0.037,-0.034,-0.039
-0.027,-0.084,-0.057,0.056,0.015,-0.07,0.058,0.061,-0.01,-0.057,-0.041,-0.05
-0.036,-0.085,-0.049,0.06,0.007,-0.066,0.061,0.054,-0.019,-0.052,-0.046,-0.062
-0.041,-0.106,-0.065,0.074,0.012,-0.085,0.064,0.047,-0.044,-0.074,-0.044,-0.059
-0.038,-0.127,-0.088,0.083,0.026,-0.108,0.065,0.041,-0.068,-0.098,-0.048,-0.061
-0.042,-0.125,-0.084,0.084,0.021,-0.104,0.06,0.034,-0.067,-0.096,-0.05,-0.06
-0.038,-0.123,-0.086,0.081,0.024,-0.105,0.061,0.027,-0.072,-0.101,-0.05,-0.06
-0.035,-0.12,-0.085,0.078,0.025,-0.102,0.058,0.021,-0.074,-0.103,-0.054,-0.063
-0.049,-0.134,-0.085,0.092,0.018,-0.109,0.055,0.018,-0.08,-0.111,-0.056,-0.066
-0.055,-0.137,-0.082,0.096,0.014,-0.109,0.054,0.014,-0.089,-0.117,-0.054,-0.069
-0.042,-0.121,-0.079,0.082,0.019,-0.1,0.059,0.011,-0.09,-0.12,-0.057,-0.07
-0.047,-0.127,-0.08,0.087,0.016,-0.104,0.07,0.005,-0.09,-0.12,-0.06,-0.071
-0.083,-0.158,-0.075,0.121,-0.004,-0.116,0.07,0.007,-0.09,-0.12,-0.06,-0.07
-0.085,-0.16,-0.075,0.123,-0.005,-0.117,0.07,0.017,-0.09,-0.12,-0.06,-0.07
-0.08,-0.156,-0.076,0.119,-0.001,-0.116,0.07,0.014,-0.09,-0.12,-0.06,-0.07
-0.071,-0.152,-0.08,0.112,0.005,-0.116,0.069,0.008,-0.09,-0.124,-0.06,-0.07
-0.074,-0.153,-0.08,0.113,0.003,-0.116,0.071,0.005,-0.09,-0.125,-0.06,-0.07
-0.06,-0.142,-0.082,0.101,0.012,-0.112,0.074,0.0,-0.09,-0.125,-0.06,-0.065
-0.041,-0.127,-0.086,0.084,0.023,-0.106,0.075,-0.005,-0.09,-0.125,-0.06,-0.06
-0.079,-0.163,-0.084,0.122,0.003,-0.124,0.076,-0.002,-0.09,-0.125,-0.06,-0.055
-0.077,-0.166,-0.089,0.122,0.006,-0.127,0.08,0.001,-0.089,-0.123,-0.06,-0.052
-0.069,-0.159,-0.09,0.114,0.01,-0.124,0.08,0.0,-0.085,-0.12,-0.061,-0.045
-0.068,-0.16,-0.093,0.114,0.013,-0.126,0.077,0.0,-0.083,-0.117,-0.065,-0.051
-0.058,-0.153,-0.095,0.106,0.019,-0.124,0.075,0.0,-0.079,-0.115,-0.065,-0.061
-0.061,-0.157,-0.096,0.109,0.018,-0.126,0.075,-0.001,-0.078,-0.111,-0.065,-0.06
-0.06,-0.162,-0.102,0.111,0.021,-0.132,0.075,0.001,-0.073,-0.109,-0.065,-0.06
-0.064,-0.169,-0.105,0.117,0.021,-0.137,0.074,-0.001,-0.077,-0.122,-0.064,-0.06
-0.056,-0.166,-0.11,0.111,0.027,-0.138,0.076,0.001,-0.1,-0.126,-0.062,-0.06
-0.059,-0.165,-0.106,0.112,0.024,-0.135,0.079,-0.001,-0.107,-0.124,-0.053,-0.056
-0.063,-0.163,-0.099,0.113,0.018,-0.131,0.08,0.001,-0.104,-0.122,-0.049,-0.055
-0.068,-0.16,-0.092,0.115,0.012,-0.126,0.081,-0.003,-0.106,-0.119,-0.041,-0.053
-0.071,-0.158,-0.087,0.115,0.008,-0.122,0.079,-0.008,-0.102,-0.123,-0.035,-0.05
-0.052,-0.128,-0.076,0.09,0.012,-0.102,0.088,0.04,-0.06,-0.095,-0.028,-0.048
-0.013,-0.052,-0.038,0.033,0.013,-0.045,0.107,0.067,-0.024,-0.063,0.006,-0.019
0.014,0.017,0.003,-0.015,0.005,0.01,0.116,0.067,-0.025,-0.067,0.012,0.006
-0.004,0.024,0.027,-0.011,-0.016,0.026,0.083,0.056,-0.018,-0.066,0.026,0.009
0.006,0.026,0.02,-0.016,-0.008,0.023,0.049,0.02,-0.018,-0.073,0.04,0.017
0.026,-0.015,-0.041,-0.005,0.034,-0.028,0.049,0.022,-0.015,-0.072,0.023,0.019
0.014,-0.086,-0.1,0.036,0.057,-0.093,0.052,0.007,-0.044,-0.077,0.008,0.003
-0.031,-0.123,-0.091,0.077,0.03,-0.107,0.062,0.003,-0.073,-0.097,-0.015,-0.023
-0.073,-0.171,-0.098,0.122,0.013,-0.135,0.076,-0.002,-0.086,-0.115,-0.051,-0.064
-0.064,-0.183,-0.118,0.124,0.027,-0.15,0.08,-0.011,-0.099,-0.12,-0.059,-0.069
-0.057,-0.18,-0.123,0.119,0.033,-0.151,0.089,0.0,-0.079,-0.104,-0.062,-0.07
-0.051,-0.167,-0.116,0.109,0.033,-0.142,0.082,-0.025,-0.106,-0.132,-0.071,-0.072
-0.07,-0.193,-0.123,0.132,0.027,-0.158,0.082,0.004,-0.083,-0.108,-0.055,-0.066
-0.081,-0.199,-0.117,0.14,0.018,-0.158,0.081,-0.038,-0.128,-0.172,-0.087,-0.078
-0.048,-0.167,-0.119,0.108,0.036,-0.143,0.076,0.031,-0.08,-0.107,-0.048,-0.053
-0.082,-0.19,-0.108,0.136,0.014,-0.149,0.119,-0.002,-0.102,-0.172,-0.107,-0.097
-0.026,-0.12,-0.094,0.074,0.034,-0.107,0.14,0.313,0.035,-0.128,-0.091,-0.092
0.139,0.137,-0.002,-0.138,0.071,0.067,0.083,0.464,0.399,0.272,0.251,0.18
0.31,1.155,0.845,-0.733,-0.267,1.0,-0.416,-1.029,0.29,1.434,1.566,1.196
0.226,1.56,1.334,-0.893,-0.554,1.447,-0.728,-1.867,0.44,2.957,2.5,1.687
-0.155,0.314,0.469,-0.08,-0.311,0.391,-0.264,-1.227,0.072,1.379,0.866,0.479
-0.188,-0.335,-0.147,0.261,-0.02,-0.241,0.026,-0.528,-0.36,-0.367,-0.253,-0.176
-0.077,-0.215,-0.138,0.146,0.031,-0.177,0.063,-0.095,-0.001,-0.034,-0.018,-0.034
-0.094,-0.224,-0.13,0.159,0.019,-0.177,0.104,-0.018,-0.013,-0.155,-0.105,-0.092
-0.065,-0.193,-0.128,0.129,0.032,-0.16,0.088,0.061,-0.009,-0.106,-0.05,-0.053
-0.073,-0.205,-0.132,0.139,0.03,-0.168,0.1,0.079,0.007,-0.107,-0.069,-0.07
-0.07,-0.19,-0.12,0.13,0.025,-0.155,0.092,0.094,-0.012,-0.128,-0.059,-0.059
-0.067,-0.186,-0.119,0.127,0.026,-0.153,0.097,0.116,0.012,-0.089,-0.045,-0.057
-0.06,-0.171,-0.111,0.116,0.026,-0.141,0.093,0.109,-0.006,-0.128,-0.054,-0.058
-0.043,-0.148,-0.106,0.096,0.032,-0.127,0.087,0.136,0.02,-0.084,-0.041,-0.046
-0.03,-0.148,-0.117,0.089,0.044,-0.132,0.081,0.125,0.022,-0.112,-0.058,-0.053
-0.019,-0.137,-0.119,0.078,0.05,-0.128,0.073,0.138,0.062,-0.057,-0.03,-0.039
-0.007,-0.118,-0.112,0.063,0.053,-0.115,0.068,0.153,0.073,-0.037,-0.029,-0.044
0.007,-0.103,-0.109,0.048,0.058,-0.106,0.061,0.165,0.093,-0.012,-0.01,-0.025
0.013,-0.09,-0.103,0.039,0.058,-0.096,0.056,0.194,0.123,0.009,0.006,0.006
0.02,-0.081,-0.101,0.03,0.061,-0.091,0.044,0.221,0.147,0.029,0.027,0.023
0.044,-0.061,-0.105,0.009,0.075,-0.083,0.036,0.249,0.188,0.07,0.061,0.034
0.072,-0.027,-0.099,-0.022,0.086,-0.063,0.023,0.281,0.232,0.102,0.089,0.048
0.083,0.007,-0.075,-0.045,0.079,-0.034,0.004,0.317,0.272,0.15,0.123,0.066
0.106,0.058,-0.047,-0.082,0.076,0.005,-0.025,0.357,0.321,0.212,0.19,0.112
0.137,0.107,-0.03,-0.122,0.083,0.038,-0.054,0.394,0.369,0.281,0.256,0.169
0.178,0.172,-0.006,-0.175,0.092,0.083,-0.088,0.415,0.418,0.354,0.323,0.218
0.198,0.217,0.019,-0.208,0.089,0.118,-0.118,0.416,0.434,0.412,0.396,0.267
0.221,0.269,0.048,-0.246,0.086,0.158,-0.13,0.412,0.42,0.461,0.449,0.311
0.249,0.317,0.068,-0.283,0.09,0.192,-0.141,0.394,0.415,0.477,0.48,0.327
0.228,0.303,0.074,-0.266,0.077,0.188,-0.133,0.365,0.395,0.46,0.477,0.311
0.206,0.278,0.071,-0.242,0.067,0.174,-0.118,0.327,0.355,0.443,0.439,0.295
0.147,0.192,0.045,-0.17,0.051,0.118,-0.092,0.28,0.31,0.382,0.357,0.239
0.093,0.117,0.024,-0.105,0.034,0.071,-0.052,0.23,0.258,0.286,0.261,0.158
0.066,0.066,0.0,-0.066,0.033,0.032,-0.017,0.18,0.193,0.204,0.178,0.093
0.032,0.02,-0.012,-0.026,0.022,0.004,0.023,0.134,0.137,0.124,0.103,0.039
0.003,-0.031,-0.033,0.014,0.018,-0.032,0.042,0.102,0.088,0.057,0.052,0.001
-0.039,-0.095,-0.056,0.067,0.009,-0.076,0.051,0.088,0.05,0.008,0.009,-0.034
-0.026,-0.082,-0.056,0.054,0.015,-0.069,0.062,0.075,0.029,-0.011,-0.02,-0.051
-0.02,-0.101,-0.081,0.061,0.03,-0.09,0.059,0.069,0.024,-0.014,-0.029,-0.058
-0.056,-0.132,-0.076,0.094,0.01,-0.104,0.056,0.066,0.026,-0.024,-0.04,-0.061
-0.042,-0.115,-0.073,0.079,0.016,-0.094,0.054,0.063,0.025,-0.021,-0.045,-0.059
-0.028,-0.108,-0.08,0.068,0.026,-0.094,0.05,0.058,0.025,-0.02,-0.044,-0.057
-0.024,-0.092,-0.069,0.058,0.023,-0.08,0.05,0.054,0.025,-0.02,-0.047,-0.054
-0.016,-0.084,-0.067,0.05,0.026,-0.075,0.05,0.071,0.019,-0.016,-0.051,-0.055
-0.02,-0.079,-0.059,0.05,0.02,-0.069,0.05,0.077,0.012,-0.015,-0.049,-0.062
-0.018,-0.073,-0.056,0.046,0.019,-0.064,0.05,0.07,0.006,-0.016,-0.054,-0.07
-0.023,-0.068,-0.046,0.046,0.012,-0.057,0.05,0.07,-0.001,-0.028,-0.061,-0.072
-0.029,-0.062,-0.033,0.046,0.002,-0.047,0.05,0.059,-0.007,-0.04,-0.068,-0.077
-0.035,-0.058,-0.023,0.047,-0.006,-0.04,0.046,0.044,-0.015,-0.046,-0.074,-0.078
-0.035,-0.054,-0.019,0.045,-0.008,-0.036,0.045,0.033,-0.03,-0.06,-0.079,-0.085
-0.031,-0.052,-0.021,0.041,-0.005,-0.037,0.045,0.025,-0.053,-0.075,-0.097,-0.089
-0.034,-0.049,-0.015,0.042,-0.009,-0.032,0.04,0.019,-0.068,-0.082,-0.106,-0.096
-0.03,-0.046,-0.016,0.038,-0.007,-0.031,0.04,0.012,-0.076,-0.1,-0.111,-0.113
-0.031,-0.045,-0.014,0.039,-0.008,-0.029,0.04,0.006,-0.083,-0.106,-0.124,-0.115
-0.033,-0.051,-0.018,0.042,-0.007,-0.034,0.04,0.0,-0.087,-0.105,-0.129,-0.115
-0.042,-0.069,-0.027,0.056,-0.007,-0.048,0.04,-0.006,-0.105,-0.134,-0.145,-0.123
-0.069,-0.077,-0.008,0.073,-0.03,-0.042,0.04,-0.013,-0.111,-0.151,-0.152,-0.126
-0.074,-0.07,0.004,0.072,-0.039,-0.033,0.04,-0.019,-0.109,-0.147,-0.147,-0.123
-0.07,-0.07,0.0,0.07,-0.035,-0.034,0.04,-0.026,-0.116,-0.162,-0.17,-0.142
-0.057,-0.065,-0.008,0.061,-0.024,-0.037,0.043,-0.033,-0.128,-0.176,-0.187,-0.157
-0.051,-0.065,-0.013,0.058,-0.019,-0.039,0.046,-0.035,-0.141,-0.174,-0.184,-0.154
-0.066,-0.058,0.008,0.062,-0.037,-0.025,0.049,-0.035,-0.14,-0.178,-0.185,-0.156
-0.071,-0.054,0.017,0.062,-0.044,-0.018,0.052,-0.035,-0.138,-0.18,-0.185,-0.155
-0.097,-0.089,0.008,0.093,-0.053,-0.04,0.055,-0.036,-0.135,-0.181,-0.185,-0.155
-0.116,-0.113,0.003,0.114,-0.059,-0.054,0.054,-0.034,-0.134,-0.174,-0.189,-0.158
-0.104,-0.109,-0.005,0.107,-0.049,-0.057,0.049,-0.043,-0.134,-0.178,-0.19,-0.161
-0.105,-0.114,-0.01,0.11,-0.047,-0.061,0.046,-0.056,-0.126,-0.197,-0.189,-0.164
-0.099,-0.119,-0.021,0.109,-0.039,-0.07,0.042,-0.052,-0.141,-0.193,-0.191,-0.166
-0.081,-0.11,-0.03,0.096,-0.025,-0.07,0.039,-0.048,-0.157,-0.19,-0.186,-0.17
-0.08,-0.103,-0.024,0.092,-0.028,-0.063,0.034,-0.045,-0.153,-0.188,-0.2,-0.169
-0.084,-0.102,-0.018,0.094,-0.033,-0.06,0.04,-0.04,-0.157,-0.184,-0.213,-0.165
-0.092,-0.106,-0.014,0.099,-0.038,-0.06,0.046,-0.038,-0.147,-0.186,-0.206,-0.163
-0.1,-0.105,-0.005,0.103,-0.047,-0.054,0.044,-0.034,-0.13,-0.184,-0.205,-0.159
-0.067,-0.085,-0.018,0.077,-0.024,-0.052,0.048,-0.035,-0.13,-0.185,-0.202,-0.157
-0.065,-0.104,-0.038,0.085,-0.013,-0.071,0.05,-0.035,-0.13,-0.185,-0.199,-0.154
-0.077,-0.107,-0.03,0.092,-0.023,-0.068,0.05,-0.035,-0.132,-0.185,-0.2,-0.152
-0.054,-0.083,-0.03,0.069,-0.012,-0.056,0.053,-0.035,-0.136,-0.185,-0.2,-0.15
-0.059,-0.083,-0.024,0.072,-0.018,-0.053,0.056,-0.03,-0.135,-0.18,-0.2,-0.15
-0.055,-0.076,-0.021,0.066,-0.017,-0.048,0.059,-0.029,-0.131,-0.181,-0.201,-0.151
-0.056,-0.075,-0.019,0.066,-0.019,-0.047,0.061,-0.023,-0.121,-0.176,-0.199,-0.148
-0.058,-0.065,-0.007,0.062,-0.026,-0.036,0.066,-0.022,-0.113,-0.177,-0.206,-0.156
-0.043,-0.05,-0.007,0.046,-0.018,-0.028,0.062,-0.013,-0.103,-0.169,-0.191,-0.143
-0.032,0.01,0.041,0.011,-0.036,0.025,0.064,0.015,-0.073,-0.129,-0.162,-0.118
-0.026,0.063,0.089,-0.019,-0.058,0.076,0.077,0.027,-0.051,-0.119,-0.167,-0.12
-0.031,0.089,0.12,-0.029,-0.076,0.104,0.055,0.015,-0.046,-0.121,-0.163,-0.12
0.013,0.145,0.132,-0.079,-0.06,0.138,0.003,-0.037,-0.043,-0.128,-0.17,-0.12
0.028,0.107,0.08,-0.068,-0.026,0.093,-0.011,-0.058,-0.041,-0.127,-0.169,-0.12
-0.028,0.012,0.04,0.008,-0.034,0.026,0.004,-0.052,-0.077,-0.14,-0.17,-0.12
-0.035,-0.014,0.02,0.024,-0.027,0.003,0.014,-0.06,-0.127,-0.181,-0.2,-0.139
-0.051,-0.039,0.012,0.044,-0.031,-0.013,0.043,-0.048,-0.132,-0.192,-0.225,-0.172
-0.104,-0.086,0.019,0.095,-0.061,-0.033,0.044,-0.065,-0.156,-0.214,-0.239,-0.179
-0.11,-0.104,0.006,0.107,-0.058,-0.049,0.045,-0.04,-0.133,-0.19,-0.232,-0.173
-0.106,-0.097,0.009,0.101,-0.057,-0.044,0.05,-0.064,-0.158,-0.224,-0.244,-0.179
-0.101,-0.103,-0.002,0.102,-0.049,-0.052,0.047,-0.036,-0.129,-0.184,-0.22,-0.168
-0.103,-0.106,-0.003,0.105,-0.05,-0.054,0.056,-0.062,-0.148,-0.224,-0.246,-0.184
-0.095,-0.103,-0.007,0.099,-0.043,-0.055,0.035,-0.043,-0.14,-0.192,-0.211,-0.162
-0.089,-0.103,-0.014,0.096,-0.038,-0.058,0.07,-0.011,-0.108,-0.209,-0.265,-0.197
-0.076,-0.069,0.006,0.073,-0.041,-0.031,0.085,0.119,-0.106,-0.281,-0.314,-0.236
0.082,0.092,0.01,-0.087,0.036,0.051,0.089,0.584,0.41,0.115,-0.062,-0.065
0.292,1.011,0.719,-0.652,-0.213,0.865,-0.313,-0.424,0.426,1.123,1.07,0.813
0.262,1.718,1.455,-0.99,-0.596,1.587,-0.794,-1.656,0.356,2.966,2.385,1.564
-0.105,0.751,0.856,-0.324,-0.481,0.803,-0.403,-1.268,0.158,1.957,1.119,0.592
-0.245,-0.174,0.07,0.209,-0.157,-0.052,-0.002,-0.658,-0.422,-0.352,-0.387,-0.273
-0.106,-0.168,-0.062,0.137,-0.022,-0.115,0.03,-0.217,-0.135,-0.188,-0.233,-0.163
-0.089,-0.124,-0.035,0.107,-0.027,-0.079,0.071,-0.061,-0.023,-0.187,-0.286,-0.198
-0.062,-0.093,-0.031,0.078,-0.015,-0.062,0.053,-0.016,-0.069,-0.229,-0.265,-0.178
-0.052,-0.084,-0.032,0.068,-0.01,-0.058,0.064,0.038,-0.011,-0.164,-0.256,-0.179
-0.049,-0.074,-0.025,0.062,-0.012,-0.049,0.054,0.022,-0.051,-0.237,-0.273,-0.18
-0.035,-0.061,-0.026,0.049,-0.005,-0.043,0.055,0.047,-0.006,-0.168,-0.245,-0.166
-0.036,-0.057,-0.022,0.046,-0.007,-0.039,0.055,0.052,-0.028,-0.214,-0.267,-0.175
-0.028,-0.044,-0.015,0.036,-0.006,-0.03,0.046,0.066,0.002,-0.152,-0.234,-0.157
-0.028,-0.041,-0.013,0.034,-0.007,-0.026,0.043,0.065,0.004,-0.165,-0.245,-0.162
-0.026,-0.032,-0.006,0.029,-0.01,-0.018,0.033,0.075,0.022,-0.136,-0.225,-0.15
-0.022,-0.027,-0.005,0.025,-0.008,-0.015,0.029,0.086,0.041,-0.124,-0.221,-0.147
-0.014,-0.007,0.006,0.01,-0.01,-0.001,0.018,0.093,0.061,-0.098,-0.197,-0.142
-0.01,0.017,0.027,-0.004,-0.018,0.022,0.008,0.103,0.09,-0.068,-0.177,-0.132
0.006,0.038,0.032,-0.022,-0.013,0.035,-0.005,0.121,0.108,-0.053,-0.16,-0.115
0.017,0.045,0.028,-0.031,-0.006,0.036,-0.015,0.137,0.148,-0.008,-0.136,-0.097
0.043,0.074,0.032,-0.058,0.005,0.053,-0.043,0.166,0.187,0.027,-0.107,-0.074
0.075,0.103,0.028,-0.089,0.023,0.065,-0.065,0.197,0.231,0.071,-0.062,-0.046
0.105,0.139,0.034,-0.122,0.035,0.086,-0.076,0.237,0.286,0.136,-0.004,-0.012
0.123,0.201,0.078,-0.162,0.022,0.139,-0.106,0.279,0.334,0.207,0.062,0.036
0.168,0.265,0.097,-0.217,0.035,0.18,-0.134,0.296,0.364,0.275,0.133,0.097
0.19,0.319,0.129,-0.254,0.03,0.224,-0.173,0.301,0.372,0.337,0.198,0.143
0.169,0.337,0.168,-0.253,0.0,0.253,-0.207,0.289,0.368,0.378,0.243,0.175
0.203,0.369,0.166,-0.287,0.018,0.267,-0.216,0.273,0.362,0.39,0.278,0.212
0.216,0.4,0.184,-0.309,0.016,0.292,-0.206,0.249,0.335,0.38,0.284,0.228
0.187,0.384,0.197,-0.286,-0.005,0.29,-0.192,0.217,0.296,0.356,0.258,0.206
0.143,0.32,0.177,-0.232,-0.017,0.248,-0.167,0.185,0.254,0.296,0.187,0.15
0.104,0.246,0.142,-0.175,-0.019,0.194,-0.12,0.145,0.206,0.218,0.094,0.076
0.076,0.193,0.117,-0.134,-0.021,0.155,-0.084,0.105,0.147,0.133,0.012,0.009
0.027,0.133,0.106,-0.08,-0.04,0.119,-0.053,0.069,0.088,0.052,-0.064,-0.051
-0.015,0.077,0.092,-0.031,-0.054,0.084,-0.027,0.035,0.051,-0.005,-0.117,-0.104
-0.049,0.034,0.082,0.007,-0.066,0.058,-0.012,0.019,0.018,-0.043,-0.152,-0.132
-0.061,0.013,0.074,0.023,-0.068,0.044,0.0,0.017,0.001,-0.073,-0.173,-0.146
-0.057,0.007,0.064,0.025,-0.061,0.035,0.009,0.013,0.0,-0.08,-0.176,-0.156
-0.056,0.002,0.057,0.027,-0.057,0.029,0.014,0.01,0.0,-0.071,-0.175,-0.157
-0.053,-0.007,0.046,0.03,-0.049,0.019,0.017,0.005,0.0,-0.068,-0.173,-0.16
-0.064,-0.004,0.06,0.034,-0.062,0.028,0.023,0.007,-0.002,-0.061,-0.169,-0.163
-0.054,0.024,0.079,0.015,-0.067,0.051,0.024,0.013,0.021,-0.056,-0.17,-0.166
-0.03,0.032,0.062,-0.001,-0.046,0.046,0.019,0.017,0.028,-0.058,-0.166,-0.159
-0.034,0.024,0.058,0.005,-0.046,0.041,0.014,0.021,0.015,-0.066,-0.165,-0.146
-0.04,0.021,0.061,0.01,-0.05,0.041,0.01,0.026,0.008,-0.071,-0.165,-0.136
-0.043,0.016,0.059,0.013,-0.052,0.038,0.005,0.03,-0.002,-0.075,-0.16,-0.135
-0.051,0.01,0.06,0.02,-0.056,0.035,0.001,0.025,-0.013,-0.08,-0.16,-0.135
-0.043,0.016,0.06,0.013,-0.051,0.038,-0.004,0.02,-0.026,-0.083,-0.161,-0.135
-0.028,0.032,0.06,-0.002,-0.044,0.046,-0.004,0.016,-0.041,-0.103,-0.167,-0.135
-0.025,0.03,0.054,-0.003,-0.039,0.042,0.0,0.011,-0.06,-0.11,-0.169,-0.135
-0.018,0.03,0.047,-0.006,-0.032,0.038,0.0,0.007,-0.074,-0.117,-0.177,-0.138
-0.01,0.031,0.041,-0.01,-0.026,0.036,0.0,0.001,-0.082,-0.13,-0.187,-0.145
-0.016,0.018,0.034,-0.002,-0.025,0.026,0.001,-0.01,-0.092,-0.136,-0.184,-0.154
-0.025,0.006,0.031,0.01,-0.028,0.018,-0.001,-0.023,-0.111,-0.162,-0.188,-0.155
-0.038,-0.01,0.028,0.024,-0.033,0.009,0.008,-0.029,-0.126,-0.173,-0.195,-0.155
-0.046,-0.021,0.025,0.033,-0.035,0.002,0.016,-0.033,-0.129,-0.173,-0.195,-0.155
-0.043,-0.021,0.023,0.032,-0.033,0.001,0.014,-0.035,-0.135,-0.178,-0.195,-0.155
-0.038,-0.019,0.019,0.029,-0.028,0.0,0.018,-0.035,-0.139,-0.18,-0.195,-0.155
-0.044,-0.021,0.023,0.032,-0.034,0.001,0.02,-0.04,-0.138,-0.184,-0.195,-0.158
-0.047,-0.02,0.027,0.033,-0.037,0.004,0.02,-0.04,-0.134,-0.186,-0.192,-0.16
-0.044,-0.019,0.025,0.031,-0.034,0.002,0.016,-0.044,-0.135,-0.19,-0.189,-0.16
-0.054,-0.029,0.025,0.041,-0.039,-0.002,0.015,-0.045,-0.135,-0.192,-0.19,-0.16
-0.056,-0.031,0.025,0.043,-0.04,-0.003,0.015,-0.047,-0.135,-0.196,-0.186,-0.16
-0.071,-0.046,0.025,0.058,-0.048,-0.011,0.01,-0.05,-0.134,-0.192,-0.185,-0.159
-0.081,-0.056,0.025,0.068,-0.053,-0.015,0.01,-0.05,-0.131,-0.189,-0.185,-0.153
-0.07,-0.046,0.025,0.058,-0.047,-0.01,0.009,-0.05,-0.13,-0.19,-0.18,-0.145
-0.069,-0.044,0.025,0.056,-0.047,-0.009,0.005,-0.05,-0.13,-0.186,-0.18,-0.139
-0.064,-0.039,0.025,0.051,-0.044,-0.007,0.005,-0.051,-0.13,-0.185,-0.18,-0.132
-0.057,-0.032,0.025,0.044,-0.041,-0.003,0.005,-0.041,-0.129,-0.184,-0.18,-0.126
-0.068,-0.045,0.023,0.056,-0.045,-0.011,0.005,-0.056,-0.139,-0.194,-0.18,-0.125
-0.075,-0.056,0.019,0.065,-0.047,-0.018,0.004,-0.071,-0.144,-0.201,-0.177,-0.125
-0.071,-0.051,0.021,0.061,-0.046,-0.015,0.012,-0.061,-0.137,-0.195,-0.175,-0.126
-0.063,-0.047,0.016,0.054,-0.039,-0.015,0.023,-0.058,-0.132,-0.193,-0.172,-0.123
-0.059,-0.045,0.015,0.051,-0.037,-0.015,0.02,-0.051,-0.127,-0.188,-0.169,-0.13
-0.053,-0.038,0.015,0.045,-0.034,-0.011,0.015,-0.046,-0.12,-0.185,-0.166,-0.14
-0.044,-0.034,0.01,0.039,-0.027,-0.012,0.014,-0.048,-0.127,-0.182,-0.164,-0.132
-0.061,-0.052,0.009,0.056,-0.035,-0.021,0.007,-0.053,-0.137,-0.179,-0.161,-0.126
-0.058,-0.054,0.004,0.055,-0.031,-0.025,0.006,-0.055,-0.135,-0.181,-0.156,-0.119
-0.048,-0.044,0.004,0.046,-0.026,-0.019,0.016,-0.047,-0.135,-0.179,-0.154,-0.113
-0.042,-0.045,-0.003,0.044,-0.019,-0.024,0.022,-0.042,-0.131,-0.182,-0.149,-0.107
-0.041,-0.036,0.004,0.038,-0.022,-0.016,0.015,-0.032,-0.13,-0.178,-0.147,-0.099
-0.049,-0.035,0.015,0.042,-0.031,-0.01,0.017,-0.029,-0.128,-0.176,-0.139,-0.089
-0.024,0.003,0.027,0.011,-0.025,0.014,0.045,-0.011,-0.089,-0.15,-0.118,-0.082
-0.005,0.089,0.095,-0.042,-0.05,0.092,0.051,0.013,-0.06,-0.108,-0.092,-0.067
0.0,0.132,0.132,-0.066,-0.066,0.131,0.044,0.017,-0.06,-0.105,-0.079,-0.051
0.019,0.142,0.123,-0.081,-0.052,0.132,0.024,0.001,-0.053,-0.106,-0.08,-0.05
0.04,0.134,0.094,-0.088,-0.027,0.114,-0.025,-0.041,-0.055,-0.116,-0.081,-0.05
0.038,0.077,0.039,-0.058,-0.001,0.057,-0.025,-0.049,-0.045,-0.108,-0.078,-0.05
0.022,0.02,-0.002,-0.021,0.012,0.009,-0.002,-0.059,-0.086,-0.128,-0.083,-0.05
-0.017,-0.034,-0.017,0.026,0.0,-0.025,0.0,-0.056,-0.125,-0.162,-0.104,-0.071
-0.061,-0.073,-0.012,0.067,-0.024,-0.042,0.007,-0.06,-0.138,-0.185,-0.127,-0.1
-0.042,-0.067,-0.025,0.055,-0.009,-0.046,0.006,-0.053,-0.134,-0.181,-0.114,-0.091
-0.044,-0.084,-0.04,0.065,-0.002,-0.062,0.015,-0.054,-0.134,-0.182,-0.123,-0.098
-0.06,-0.09,-0.03,0.075,-0.014,-0.059,0.013,-0.061,-0.15,-0.2,-0.113,-0.093
-0.067,-0.101,-0.034,0.084,-0.016,-0.067,0.024,-0.042,-0.119,-0.169,-0.111,-0.095
-0.075,-0.087,-0.013,0.081,-0.031,-0.05,0.031,-0.075,-0.155,-0.216,-0.123,-0.1
-0.069,-0.094,-0.024,0.082,-0.023,-0.059,0.036,-0.007,-0.094,-0.136,-0.087,-0.093
-0.091,-0.085,0.006,0.088,-0.048,-0.039,0.069,-0.035,-0.158,-0.251,-0.177,-0.136
0.018,-0.016,-0.033,-0.001,0.026,-0.024,0.108,0.407,0.108,-0.115,-0.102,-0.096
0.207,0.398,0.191,-0.303,0.008,0.294,-0.033,0.218,0.382,0.377,0.394,0.312
0.351,1.525,1.174,-0.939,-0.411,1.35,-0.61,-1.404,0.235,1.863,1.908,1.425
0.159,1.464,1.305,-0.811,-0.574,1.384,-0.753,-1.836,0.367,2.936,2.295,1.499
-0.178,0.15,0.328,0.014,-0.253,0.239,-0.241,-1.082,-0.134,0.784,0.392,0.182
-0.104,-0.188,-0.084,0.146,-0.009,-0.136,-0.025,-0.437,-0.339,-0.425,-0.259,-0.176
-0.042,-0.102,-0.06,0.072,0.009,-0.081,0.002,-0.106,-0.008,-0.054,-0.04,-0.047
-0.08,-0.132,-0.052,0.106,-0.014,-0.091,0.043,-0.048,-0.07,-0.239,-0.15,-0.098
-0.047,-0.1,-0.053,0.073,0.004,-0.076,0.053,0.025,-0.017,-0.121,-0.074,-0.058
-0.026,-0.118,-0.092,0.072,0.033,-0.105,0.062,0.034,-0.036,-0.176,-0.119,-0.084
-0.013,-0.096,-0.083,0.054,0.036,-0.089,0.049,0.059,-0.027,-0.147,-0.082,-0.062
-0.03,-0.104,-0.075,0.067,0.023,-0.089,0.051,0.061,-0.015,-0.14,-0.091,-0.074
-0.006,-0.077,-0.071,0.042,0.033,-0.073,0.043,0.076,-0.025,-0.148,-0.079,-0.065
0.021,-0.045,-0.066,0.012,0.044,-0.055,0.04,0.093,-0.002,-0.116,-0.063,-0.062
0.031,-0.032,-0.062,0.001,0.047,-0.047,0.036,0.092,-0.005,-0.132,-0.065,-0.063
0.029,-0.027,-0.056,-0.001,0.043,-0.042,0.034,0.105,0.022,-0.101,-0.045,-0.052
0.028,-0.022,-0.05,-0.003,0.039,-0.036,0.032,0.11,0.039,-0.099,-0.04,-0.043
0.031,-0.009,-0.04,-0.011,0.036,-0.024,0.029,0.129,0.067,-0.053,-0.004,-0.017
0.045,0.012,-0.034,-0.028,0.039,-0.011,0.026,0.146,0.092,-0.034,0.02,-0.017
0.081,0.055,-0.025,-0.068,0.053,0.015,-0.007,0.171,0.119,-0.008,0.033,0.0
0.105,0.074,-0.031,-0.09,0.068,0.022,-0.035,0.202,0.156,0.026,0.055,0.036
0.123,0.099,-0.024,-0.111,0.073,0.037,-0.036,0.245,0.202,0.073,0.099,0.064
0.128,0.126,-0.002,-0.127,0.065,0.062,-0.06,0.288,0.248,0.128,0.147,0.098
0.146,0.171,0.025,-0.159,0.06,0.098,-0.097,0.324,0.292,0.18,0.195,0.135
0.188,0.247,0.059,-0.217,0.064,0.153,-0.115,0.366,0.345,0.253,0.272,0.194
0.23,0.306,0.076,-0.268,0.077,0.191,-0.145,0.391,0.383,0.337,0.359,0.259
0.241,0.351,0.11,-0.297,0.066,0.23,-0.179,0.39,0.394,0.392,0.423,0.303
0.258,0.392,0.134,-0.325,0.062,0.263,-0.198,0.381,0.389,0.429,0.477,0.342
0.272,0.424,0.152,-0.348,0.06,0.287,-0.208,0.36,0.372,0.459,0.506,0.369
0.231,0.401,0.17,-0.316,0.031,0.285,-0.204,0.321,0.355,0.444,0.495,0.361
0.195,0.35,0.155,-0.273,0.02,0.253,-0.183,0.281,0.325,0.399,0.45,0.322
0.155,0.305,0.15,-0.231,0.002,0.228,-0.145,0.229,0.274,0.332,0.371,0.259
0.103,0.232,0.129,-0.168,-0.013,0.18,-0.107,0.169,0.207,0.241,0.278,0.186
0.071,0.151,0.08,-0.111,-0.004,0.115,-0.074,0.122,0.141,0.158,0.194,0.124
0.073,0.105,0.032,-0.089,0.02,0.068,-0.041,0.083,0.084,0.082,0.127,0.063
0.044,0.056,0.012,-0.051,0.016,0.034,-0.021,0.058,0.04,0.014,0.074,0.018
0.002,0.016,0.014,-0.01,-0.006,0.015,-0.014,0.041,0.013,-0.027,0.04,0.0
0.011,0.013,0.002,-0.012,0.004,0.008,-0.001,0.025,-0.008,-0.048,0.032,-0.016
0.0,-0.008,-0.007,0.004,0.004,-0.007,0.012,0.019,-0.032,-0.051,0.028,-0.025
-0.001,-0.018,-0.017,0.009,0.009,-0.017,0.009,0.021,-0.032,-0.049,0.023,-0.025
0.019,-0.008,-0.027,-0.005,0.023,-0.017,0.006,0.02,-0.018,-0.051,0.019,-0.025
0.019,-0.006,-0.025,-0.006,0.023,-0.016,0.002,0.02,-0.006,-0.05,0.015,-0.025
0.021,-0.001,-0.022,-0.01,0.022,-0.011,0.001,0.035,0.006,-0.05,0.015,-0.026
0.022,0.004,-0.018,-0.013,0.02,-0.006,0.015,0.042,-0.001,-0.055,0.015,-0.022
0.017,0.002,-0.016,-0.009,0.016,-0.007,0.015,0.039,-0.008,-0.055,0.015,-0.02
0.008,-0.001,-0.009,-0.003,0.008,-0.004,0.011,0.037,-0.014,-0.055,0.015,-0.02
0.025,0.008,-0.017,-0.017,0.021,-0.004,0.009,0.034,-0.024,-0.055,0.015,-0.017
0.034,-0.005,-0.039,-0.014,0.036,-0.022,0.005,0.035,-0.028,-0.056,0.013,-0.014
0.007,-0.033,-0.04,0.013,0.024,-0.036,0.004,0.028,-0.04,-0.071,0.006,-0.016
0.022,-0.018,-0.04,-0.002,0.031,-0.029,0.0,0.02,-0.05,-0.069,0.001,-0.021
0.047,0.007,-0.04,-0.027,0.044,-0.016,0.0,0.013,-0.063,-0.075,-0.004,-0.031
0.034,-0.006,-0.04,-0.014,0.037,-0.023,0.0,0.002,-0.072,-0.084,-0.01,-0.038
0.018,-0.022,-0.04,0.002,0.029,-0.031,0.007,0.009,-0.083,-0.091,-0.015,-0.041
0.022,-0.018,-0.04,-0.002,0.031,-0.029,0.02,0.012,-0.106,-0.111,-0.022,-0.043
0.015,-0.025,-0.04,0.005,0.027,-0.032,0.019,-0.001,-0.113,-0.12,-0.033,-0.046
-0.009,-0.052,-0.043,0.031,0.017,-0.047,0.021,-0.009,-0.122,-0.132,-0.042,-0.049
0.01,-0.041,-0.05,0.016,0.03,-0.045,0.024,-0.015,-0.13,-0.137,-0.046,-0.05
0.014,-0.036,-0.05,0.011,0.032,-0.043,0.025,-0.02,-0.13,-0.139,-0.044,-0.05
-0.022,-0.073,-0.051,0.048,0.015,-0.062,0.025,-0.026,-0.13,-0.146,-0.049,-0.05
-0.016,-0.071,-0.055,0.044,0.02,-0.063,0.015,-0.031,-0.132,-0.149,-0.05,-0.05
-0.001,-0.056,-0.055,0.029,0.027,-0.056,0.028,-0.036,-0.139,-0.154,-0.05,-0.05
-0.01,-0.063,-0.052,0.037,0.021,-0.057,0.043,-0.04,-0.145,-0.157,-0.055,-0.049
-0.02,-0.07,-0.05,0.045,0.015,-0.06,0.039,-0.04,-0.15,-0.161,-0.055,-0.053
-0.02,-0.07,-0.05,0.045,0.015,-0.06,0.04,-0.04,-0.15,-0.163,-0.059,-0.055
-0.023,-0.07,-0.047,0.047,0.012,-0.058,0.035,-0.04,-0.15,-0.166,-0.06,-0.055
-0.026,-0.07,-0.044,0.048,0.009,-0.056,0.035,-0.044,-0.15,-0.169,-0.062,-0.06
-0.024,-0.07,-0.046,0.047,0.011,-0.058,0.034,-0.045,-0.15,-0.171,-0.066,-0.06
-0.022,-0.07,-0.049,0.046,0.014,-0.059,0.029,-0.045,-0.147,-0.174,-0.065,-0.06
-0.011,-0.063,-0.052,0.037,0.021,-0.057,0.026,-0.05,-0.144,-0.175,-0.065,-0.06
-0.014,-0.069,-0.055,0.042,0.021,-0.062,0.022,-0.05,-0.145,-0.175,-0.065,-0.06
-0.021,-0.074,-0.053,0.048,0.016,-0.063,0.019,-0.05,-0.141,-0.175,-0.065,-0.06
-0.018,-0.068,-0.05,0.043,0.016,-0.059,0.014,-0.05,-0.14,-0.175,-0.07,-0.06
-0.01,-0.059,-0.049,0.034,0.02,-0.054,0.027,-0.05,-0.139,-0.172,-0.07,-0.059
-0.01,-0.076,-0.066,0.043,0.028,-0.07,0.038,-0.05,-0.145,-0.169,-0.07,-0.061
-0.023,-0.098,-0.075,0.06,0.027,-0.086,0.032,-0.05,-0.151,-0.17,-0.07,-0.066
-0.024,-0.09,-0.066,0.058,0.021,-0.078,0.029,-0.05,-0.149,-0.166,-0.07,-0.065
-0.026,-0.089,-0.063,0.058,0.019,-0.076,0.026,-0.054,-0.15,-0.165,-0.07,-0.063
-0.028,-0.084,-0.056,0.057,0.014,-0.07,0.021,-0.055,-0.149,-0.165,-0.07,-0.06
-0.03,-0.081,-0.051,0.055,0.011,-0.066,0.019,-0.055,-0.15,-0.16,-0.07,-0.06
-0.025,-0.079,-0.054,0.053,0.014,-0.066,0.014,-0.059,-0.146,-0.16,-0.07,-0.068
-0.015,-0.08,-0.065,0.048,0.025,-0.073,0.015,-0.061,-0.145,-0.16,-0.07,-0.07
-0.009,-0.08,-0.071,0.044,0.031,-0.075,0.015,-0.059,-0.143,-0.16,-0.07,-0.063
-0.011,-0.082,-0.071,0.047,0.03,-0.076,0.014,-0.047,-0.139,-0.162,-0.065,-0.061
-0.007,-0.087,-0.08,0.048,0.036,-0.083,0.032,-0.036,-0.139,-0.155,-0.059,-0.054
0.012,-0.031,-0.043,0.01,0.028,-0.037,0.057,-0.017,-0.108,-0.124,-0.049,-0.052
0.019,0.017,-0.002,-0.018,0.01,0.007,0.071,0.009,-0.086,-0.108,-0.023,-0.038
0.03,0.067,0.038,-0.049,-0.004,0.052,0.064,0.008,-0.083,-0.108,-0.005,-0.013
0.025,0.109,0.084,-0.068,-0.029,0.096,0.033,-0.032,-0.08,-0.109,0.007,-0.003
0.027,0.07,0.043,-0.049,-0.008,0.057,-0.018,-0.064,-0.077,-0.113,0.011,-0.001
0.052,0.021,-0.031,-0.037,0.042,-0.005,-0.024,-0.056,-0.078,-0.105,-0.005,-0.005
0.022,-0.024,-0.046,0.001,0.034,-0.035,0.003,-0.065,-0.126,-0.139,-0.036,-0.031
-0.021,-0.061,-0.04,0.041,0.01,-0.05,0.012,-0.054,-0.143,-0.156,-0.069,-0.067
-0.035,-0.098,-0.063,0.067,0.014,-0.08,0.024,-0.066,-0.168,-0.188,-0.096,-0.079
-0.028,-0.111,-0.083,0.069,0.027,-0.097,0.031,-0.057,-0.162,-0.183,-0.084,-0.081
-0.034,-0.114,-0.08,0.074,0.023,-0.097,0.043,-0.066,-0.156,-0.188,-0.096,-0.101
-0.044,-0.124,-0.08,0.084,0.018,-0.102,0.036,-0.069,-0.158,-0.189,-0.085,-0.092
-0.039,-0.129,-0.09,0.084,0.026,-0.109,0.048,-0.053,-0.129,-0.171,-0.101,-0.105
-0.03,-0.107,-0.077,0.069,0.024,-0.092,0.041,-0.088,-0.163,-0.212,-0.112,-0.102
-0.029,-0.125,-0.095,0.077,0.033,-0.109,0.048,-0.01,-0.093,-0.14,-0.096,-0.102
-0.043,-0.114,-0.071,0.079,0.014,-0.092,0.09,-0.005,-0.173,-0.261,-0.16,-0.132
0.063,-0.041,-0.104,-0.011,0.083,-0.073,0.128,0.469,0.16,-0.052,-0.058,-0.084
0.257,0.51,0.254,-0.384,0.001,0.382,-0.085,0.096,0.437,0.538,0.582,0.441
0.373,1.587,1.213,-0.98,-0.42,1.4,-0.67,-1.495,0.346,2.2,2.159,1.562
0.121,1.263,1.141,-0.692,-0.51,1.202,-0.644,-1.685,0.376,2.745,2.064,1.299
-0.191,0.016,0.207,0.087,-0.199,0.111,-0.137,-0.962,-0.262,0.363,0.132,0.009
-0.109,-0.219,-0.11,0.165,0.001,-0.165,0.0,-0.392,-0.322,-0.385,-0.239,-0.168
-0.051,-0.137,-0.086,0.094,0.018,-0.112,0.037,-0.098,-0.012,-0.073,-0.086,-0.093
-0.042,-0.137,-0.095,0.09,0.027,-0.116,0.07,-0.055,-0.09,-0.254,-0.158,-0.133
0.003,-0.109,-0.111,0.053,0.057,-0.11,0.075,0.022,-0.016,-0.119,-0.086,-0.092
-0.005,-0.119,-0.113,0.062,0.054,-0.116,0.074,0.027,-0.051,-0.201,-0.137,-0.114
0.003,-0.098,-0.102,0.048,0.053,-0.1,0.061,0.053,-0.023,-0.142,-0.094,-0.085
-0.001,-0.102,-0.101,0.052,0.05,-0.101,0.06,0.057,-0.023,-0.163,-0.114,-0.094
0.006,-0.088,-0.093,0.041,0.05,-0.09,0.048,0.067,-0.02,-0.154,-0.109,-0.078
0.013,-0.083,-0.096,0.036,0.055,-0.089,0.047,0.07,0.001,-0.141,-0.115,-0.078
0.018,-0.076,-0.095,0.029,0.057,-0.085,0.047,0.074,0.002,-0.143,-0.102,-0.071
0.027,-0.068,-0.095,0.021,0.061,-0.081,0.041,0.084,0.032,-0.103,-0.085,-0.064
0.034,-0.061,-0.095,0.014,0.065,-0.078,0.034,0.095,0.044,-0.091,-0.069,-0.062
0.047,-0.048,-0.095,0.001,0.071,-0.072,0.027,0.122,0.063,-0.057,-0.058,-0.048
0.049,-0.041,-0.091,-0.004,0.07,-0.066,0.021,0.138,0.09,-0.041,-0.048,-0.035
0.056,-0.023,-0.08,-0.016,0.068,-0.052,0.011,0.159,0.124,-0.006,-0.012,-0.022
0.075,0.005,-0.07,-0.04,0.072,-0.032,-0.006,0.184,0.163,0.029,0.017,-0.008
0.103,0.043,-0.061,-0.073,0.082,-0.009,-0.028,0.223,0.211,0.07,0.044,0.013
0.146,0.098,-0.048,-0.122,0.096,0.025,-0.053,0.262,0.253,0.116,0.082,0.049
0.174,0.144,-0.029,-0.159,0.101,0.057,-0.081,0.31,0.311,0.189,0.151,0.104
0.194,0.188,-0.006,-0.191,0.1,0.09,-0.111,0.337,0.358,0.259,0.219,0.152
0.23,0.26,0.03,-0.245,0.1,0.145,-0.136,0.35,0.393,0.334,0.296,0.203
0.261,0.322,0.061,-0.291,0.1,0.191,-0.169,0.347,0.402,0.396,0.351,0.236
0.26,0.343,0.084,-0.302,0.088,0.213,-0.199,0.32,0.384,0.416,0.392,0.27
0.259,0.362,0.103,-0.311,0.078,0.232,-0.199,0.303,0.378,0.43,0.422,0.28
0.271,0.378,0.106,-0.325,0.082,0.241,-0.191,0.275,0.354,0.421,0.415,0.263
0.223,0.326,0.102,-0.275,0.06,0.214,-0.179,0.242,0.317,0.381,0.363,0.248
0.16,0.246,0.086,-0.203,0.037,0.166,-0.146,0.199,0.269,0.304,0.27,0.19
0.143,0.201,0.058,-0.173,0.042,0.129,-0.101,0.144,0.199,0.209,0.186,0.125
0.127,0.147,0.02,-0.137,0.053,0.083,-0.062,0.1,0.137,0.131,0.099,0.059
0.078,0.072,-0.005,-0.075,0.041,0.033,-0.034,0.067,0.082,0.058,0.025,0.001
0.044,0.019,-0.025,-0.031,0.034,-0.003,-0.015,0.039,0.033,-0.019,-0.042,-0.05
0.058,-0.003,-0.062,-0.027,0.06,-0.032,-0.007,0.027,-0.001,-0.059,-0.089,-0.082
0.058,-0.012,-0.071,-0.023,0.065,-0.041,-0.004,0.021,-0.024,-0.076,-0.099,-0.091
0.058,-0.023,-0.081,-0.017,0.07,-0.052,-0.001,0.014,-0.031,-0.082,-0.111,-0.107
0.058,-0.03,-0.088,-0.014,0.073,-0.059,0.002,0.008,-0.028,-0.076,-0.11,-0.103
0.063,-0.03,-0.093,-0.016,0.078,-0.061,0.005,0.001,-0.024,-0.074,-0.109,-0.1
0.069,-0.03,-0.099,-0.019,0.084,-0.064,0.005,0.004,-0.021,-0.069,-0.111,-0.098
0.049,-0.03,-0.079,-0.009,0.064,-0.054,0.005,0.011,-0.016,-0.065,-0.109,-0.094
0.039,-0.03,-0.069,-0.004,0.054,-0.049,0.005,0.017,-0.016,-0.066,-0.113,-0.098
0.05,-0.03,-0.08,-0.01,0.065,-0.055,0.005,0.024,-0.023,-0.084,-0.115,-0.1
0.057,-0.025,-0.082,-0.016,0.07,-0.053,0.005,0.031,-0.029,-0.097,-0.115,-0.1
0.033,-0.026,-0.059,-0.003,0.046,-0.042,0.004,0.034,-0.037,-0.101,-0.115,-0.1
0.027,-0.023,-0.05,-0.002,0.039,-0.036,0.009,0.029,-0.041,-0.103,-0.115,-0.1
0.016,-0.032,-0.048,0.009,0.032,-0.04,0.013,0.024,-0.054,-0.111,-0.125,-0.1
-0.004,-0.044,-0.04,0.024,0.018,-0.041,0.019,0.02,-0.062,-0.117,-0.124,-0.108
0.0,-0.036,-0.036,0.018,0.019,-0.036,0.018,0.015,-0.072,-0.128,-0.128,-0.115
0.0,-0.028,-0.028,0.014,0.015,-0.028,0.014,0.011,-0.095,-0.151,-0.144,-0.116
0.011,-0.034,-0.044,0.012,0.028,-0.039,0.032,0.006,-0.098,-0.149,-0.151,-0.12
0.009,-0.057,-0.065,0.024,0.038,-0.061,0.042,0.0,-0.104,-0.16,-0.161,-0.122
-0.012,-0.072,-0.059,0.042,0.023,-0.065,0.038,-0.008,-0.118,-0.178,-0.169,-0.125
-0.018,-0.07,-0.052,0.045,0.017,-0.061,0.044,-0.013,-0.127,-0.178,-0.177,-0.125
-0.02,-0.066,-0.047,0.043,0.014,-0.056,0.044,-0.023,-0.132,-0.184,-0.187,-0.129
-0.029,-0.067,-0.038,0.048,0.005,-0.052,0.046,-0.038,-0.133,-0.194,-0.193,-0.13
-0.023,-0.06,-0.037,0.042,0.007,-0.048,0.037,-0.047,-0.138,-0.201,-0.192,-0.13
-0.035,-0.074,-0.039,0.054,0.002,-0.056,0.022,-0.049,-0.139,-0.199,-0.198,-0.135
-0.042,-0.09,-0.048,0.066,0.003,-0.069,0.047,-0.045,-0.136,-0.201,-0.212,-0.135
-0.04,-0.092,-0.052,0.066,0.006,-0.072,0.063,-0.045,-0.133,-0.205,-0.207,-0.135
-0.041,-0.087,-0.046,0.064,0.002,-0.066,0.056,-0.045,-0.13,-0.205,-0.204,-0.135
-0.038,-0.081,-0.043,0.06,0.002,-0.062,0.056,-0.045,-0.128,-0.207,-0.214,-0.137
-0.076,-0.113,-0.037,0.095,-0.019,-0.075,0.051,-0.045,-0.124,-0.212,-0.216,-0.14
-0.074,-0.11,-0.035,0.093,-0.019,-0.072,0.05,-0.041,-0.129,-0.215,-0.215,-0.14
-0.058,-0.092,-0.034,0.076,-0.012,-0.063,0.047,-0.04,-0.136,-0.215,-0.215,-0.14
-0.049,-0.091,-0.042,0.07,-0.003,-0.066,0.042,-0.04,-0.135,-0.215,-0.216,-0.14
-0.037,-0.089,-0.052,0.063,0.007,-0.071,0.039,-0.04,-0.135,-0.215,-0.213,-0.14
-0.039,-0.089,-0.049,0.064,0.005,-0.069,0.035,-0.04,-0.135,-0.215,-0.225,-0.14
-0.035,-0.083,-0.048,0.059,0.007,-0.066,0.031,-0.041,-0.134,-0.215,-0.237,-0.14
-0.044,-0.087,-0.044,0.066,0.0,-0.066,0.03,-0.042,-0.137,-0.213,-0.234,-0.14
-0.029,-0.075,-0.046,0.052,0.009,-0.06,0.044,-0.038,-0.141,-0.209,-0.236,-0.14
-0.039,-0.091,-0.052,0.065,0.007,-0.072,0.051,-0.053,-0.142,-0.21,-0.234,-0.14
-0.055,-0.109,-0.054,0.082,0.0,-0.081,0.049,-0.059,-0.136,-0.21,-0.236,-0.139
-0.056,-0.1,-0.044,0.078,-0.006,-0.071,0.048,-0.052,-0.129,-0.209,-0.233,-0.132
-0.059,-0.1,-0.041,0.079,-0.009,-0.07,0.044,-0.047,-0.146,-0.224,-0.241,-0.146
-0.036,-0.096,-0.06,0.066,0.012,-0.077,0.046,-0.041,-0.158,-0.235,-0.248,-0.155
-0.009,-0.078,-0.069,0.044,0.031,-0.073,0.049,-0.033,-0.135,-0.219,-0.229,-0.136
0.022,-0.022,-0.044,0.0,0.033,-0.033,0.071,-0.011,-0.091,-0.179,-0.208,-0.118
0.022,0.018,-0.004,-0.02,0.012,0.007,0.084,-0.001,-0.077,-0.154,-0.187,-0.102
0.027,0.06,0.032,-0.044,-0.003,0.046,0.067,0.013,-0.083,-0.138,-0.177,-0.092
0.034,0.107,0.073,-0.071,-0.019,0.09,0.046,-0.004,-0.082,-0.133,-0.18,-0.083
0.028,0.078,0.05,-0.053,-0.011,0.064,0.003,-0.06,-0.091,-0.139,-0.181,-0.071
0.068,0.033,-0.036,-0.05,0.052,-0.002,0.0,-0.063,-0.084,-0.135,-0.177,-0.077
0.074,-0.002,-0.076,-0.036,0.075,-0.039,0.019,-0.069,-0.104,-0.176,-0.193,-0.105
0.021,-0.066,-0.088,0.023,0.055,-0.077,0.026,-0.06,-0.117,-0.196,-0.223,-0.132
-0.02,-0.117,-0.097,0.069,0.039,-0.107,0.04,-0.07,-0.159,-0.242,-0.256,-0.151
-0.037,-0.127,-0.09,0.083,0.027,-0.109,0.044,-0.061,-0.163,-0.24,-0.255,-0.167
-0.038,-0.133,-0.095,0.085,0.029,-0.114,0.05,-0.066,-0.156,-0.243,-0.266,-0.181
-0.025,-0.133,-0.108,0.079,0.042,-0.12,0.039,-0.07,-0.163,-0.241,-0.255,-0.169
-0.003,-0.12,-0.117,0.061,0.057,-0.118,0.052,-0.053,-0.132,-0.221,-0.262,-0.181
-0.016,-0.115,-0.099,0.066,0.042,-0.107,0.037,-0.087,-0.175,-0.254,-0.262,-0.171
-0.016,-0.142,-0.125,0.079,0.055,-0.133,0.054,-0.026,-0.088,-0.198,-0.26,-0.178
-0.019,-0.107,-0.089,0.063,0.035,-0.098,0.101,-0.011,-0.154,-0.322,-0.326,-0.212
0.057,-0.066,-0.124,0.005,0.091,-0.095,0.133,0.486,0.215,-0.088,-0.217,-0.156
0.281,0.544,0.263,-0.413,0.009,0.403,-0.087,0.141,0.502,0.571,0.482,0.399
0.367,1.637,1.271,-1.002,-0.452,1.454,-0.69,-1.373,0.31,2.373,2.092,1.458
0.077,1.232,1.154,-0.655,-0.539,1.193,-0.616,-1.51,0.317,2.853,1.868,1.109
-0.178,0.027,0.204,0.076,-0.191,0.115,-0.103,-0.854,-0.286,0.32,-0.068,-0.086
-0.086,-0.212,-0.126,0.149,0.02,-0.169,0.006,-0.369,-0.316,-0.42,-0.351,-0.201
-0.053,-0.165,-0.112,0.109,0.03,-0.138,0.067,-0.091,0.013,-0.108,-0.227,-0.146
-0.047,-0.139,-0.092,0.093,0.023,-0.115,0.079,-0.053,-0.079,-0.292,-0.306,-0.181
-0.034,-0.13,-0.096,0.082,0.032,-0.113,0.067,0.01,-0.006,-0.154,-0.231,-0.15
-0.07,-0.165,-0.095,0.118,0.013,-0.13,0.074,0.017,-0.044,-0.241,-0.281,-0.17
-0.039,-0.133,-0.094,0.086,0.028,-0.113,0.062,0.054,-0.018,-0.18,-0.234,-0.143
-0.031,-0.127,-0.097,0.08,0.033,-0.112,0.068,0.048,-0.019,-0.201,-0.255,-0.153
-0.018,-0.111,-0.093,0.065,0.037,-0.102,0.058,0.064,-0.013,-0.173,-0.226,-0.138
-0.014,-0.101,-0.086,0.058,0.036,-0.093,0.056,0.082,0.016,-0.151,-0.221,-0.135
-0.013,-0.087,-0.074,0.05,0.031,-0.08,0.05,0.078,0.021,-0.155,-0.209,-0.118
-0.005,-0.071,-0.066,0.038,0.031,-0.068,0.046,0.088,0.049,-0.12,-0.185,-0.105
-0.004,-0.059,-0.055,0.032,0.026,-0.057,0.042,0.091,0.063,-0.114,-0.171,-0.097
0.013,-0.043,-0.056,0.016,0.035,-0.049,0.036,0.103,0.084,-0.074,-0.144,-0.087
0.022,-0.03,-0.052,0.004,0.037,-0.041,0.024,0.114,0.101,-0.057,-0.13,-0.078
0.037,-0.014,-0.051,-0.012,0.044,-0.032,0.008,0.136,0.135,-0.024,-0.104,-0.056
0.074,0.026,-0.048,-0.05,0.061,-0.011,-0.008,0.161,0.179,0.017,-0.072,-0.03
0.099,0.058,-0.041,-0.078,0.07,0.008,-0.024,0.192,0.225,0.065,-0.025,-0.008
0.104,0.08,-0.024,-0.092,0.064,0.028,-0.048,0.226,0.274,0.114,0.014,0.014
0.143,0.142,-0.001,-0.143,0.072,0.07,-0.075,0.265,0.329,0.182,0.076,0.061
0.183,0.193,0.01,-0.188,0.087,0.101,-0.112,0.296,0.365,0.255,0.158,0.114
0.197,0.252,0.055,-0.224,0.071,0.153,-0.145,0.314,0.402,0.328,0.226,0.176
0.229,0.311,0.082,-0.27,0.074,0.196,-0.165,0.311,0.407,0.382,0.294,0.224
0.239,0.347,0.108,-0.293,0.066,0.227,-0.188,0.293,0.394,0.412,0.331,0.268
0.215,0.358,0.143,-0.287,0.035,0.25,-0.199,0.272,0.373,0.422,0.326,0.292
0.197,0.334,0.137,-0.266,0.03,0.235,-0.205,0.237,0.328,0.389,0.325,0.269
0.164,0.296,0.133,-0.23,0.016,0.214,-0.178,0.201,0.292,0.346,0.29,0.228
0.116,0.235,0.118,-0.176,-0.001,0.176,-0.127,0.16,0.248,0.269,0.212,0.16
0.086,0.179,0.093,-0.133,-0.004,0.136,-0.087,0.111,0.189,0.181,0.116,0.093
0.053,0.112,0.059,-0.083,-0.003,0.085,-0.054,0.077,0.129,0.113,0.031,0.03
0.023,0.049,0.027,-0.036,-0.002,0.038,-0.028,0.049,0.082,0.04,-0.022,-0.019
0.004,0.031,0.027,-0.018,-0.012,0.029,-0.007,0.027,0.038,-0.018,-0.078,-0.051
-0.007,0.008,0.015,0.0,-0.012,0.011,0.009,0.02,0.011,-0.053,-0.11,-0.076
-0.047,-0.042,0.005,0.044,-0.026,-0.018,0.021,0.02,0.01,-0.055,-0.109,-0.074
-0.054,-0.057,-0.002,0.056,-0.026,-0.029,0.022,0.02,0.005,-0.049,-0.11,-0.075
-0.025,-0.039,-0.014,0.032,-0.005,-0.026,0.018,0.02,0.006,-0.048,-0.11,-0.075
-0.053,-0.028,0.025,0.04,-0.039,-0.001,0.015,0.02,0.011,-0.041,-0.11,-0.075
-0.061,-0.022,0.039,0.041,-0.05,0.008,0.013,0.016,0.013,-0.041,-0.11,-0.074
-0.064,-0.041,0.023,0.052,-0.043,-0.009,0.009,0.016,0.017,-0.044,-0.109,-0.069
-0.067,-0.045,0.022,0.056,-0.044,-0.011,0.015,0.032,0.02,-0.045,-0.105,-0.071
-0.049,-0.036,0.014,0.042,-0.031,-0.011,0.023,0.038,0.016,-0.047,-0.105,-0.067
-0.046,-0.035,0.011,0.041,-0.028,-0.012,0.02,0.032,0.005,-0.058,-0.103,-0.065
-0.034,-0.028,0.006,0.03,-0.02,-0.011,0.017,0.03,-0.001,-0.067,-0.1,-0.065
-0.027,-0.026,0.002,0.026,-0.014,-0.012,0.014,0.025,-0.015,-0.074,-0.1,-0.069
-0.027,-0.03,-0.003,0.029,-0.012,-0.016,0.011,0.021,-0.039,-0.086,-0.104,-0.07
-0.024,-0.033,-0.009,0.029,-0.007,-0.021,0.01,0.019,-0.049,-0.097,-0.112,-0.07
-0.022,-0.038,-0.016,0.03,-0.003,-0.027,0.019,0.01,-0.064,-0.112,-0.115,-0.075
-0.018,-0.04,-0.022,0.029,0.002,-0.031,0.033,0.0,-0.078,-0.121,-0.12,-0.075
-0.011,-0.041,-0.03,0.026,0.01,-0.036,0.038,-0.01,-0.086,-0.13,-0.12,-0.076
-0.01,-0.059,-0.049,0.034,0.019,-0.054,0.035,-0.02,-0.104,-0.148,-0.122,-0.081
-0.011,-0.06,-0.049,0.036,0.019,-0.055,0.032,-0.021,-0.113,-0.153,-0.133,-0.08
-0.015,-0.059,-0.044,0.038,0.015,-0.051,0.029,-0.031,-0.123,-0.156,-0.136,-0.08
-0.017,-0.063,-0.046,0.04,0.015,-0.054,0.026,-0.046,-0.122,-0.165,-0.133,-0.085
-0.022,-0.064,-0.042,0.043,0.011,-0.053,0.024,-0.045,-0.127,-0.17,-0.13,-0.086
-0.05,-0.09,-0.04,0.07,-0.004,-0.065,0.021,-0.045,-0.146,-0.17,-0.13,-0.085
-0.049,-0.088,-0.039,0.069,-0.005,-0.063,0.018,-0.045,-0.145,-0.17,-0.13,-0.083
-0.029,-0.078,-0.049,0.053,0.01,-0.063,0.016,-0.045,-0.145,-0.174,-0.13,-0.08
-0.025,-0.082,-0.057,0.054,0.016,-0.069,0.012,-0.045,-0.145,-0.175,-0.13,-0.079
-0.022,-0.077,-0.054,0.05,0.016,-0.065,0.01,-0.045,-0.145,-0.177,-0.136,-0.087
-0.02,-0.075,-0.055,0.048,0.018,-0.065,0.012,-0.044,-0.143,-0.181,-0.141,-0.092
-0.02,-0.075,-0.055,0.048,0.018,-0.065,0.02,-0.046,-0.139,-0.18,-0.139,-0.086
-0.039,-0.094,-0.055,0.067,0.008,-0.074,0.024,-0.062,-0.141,-0.18,-0.14,-0.081
-0.041,-0.099,-0.058,0.07,0.009,-0.078,0.021,-0.066,-0.136,-0.18,-0.14,-0.078
-0.026,-0.087,-0.061,0.056,0.018,-0.074,0.02,-0.064,-0.135,-0.18,-0.14,-0.071
-0.026,-0.085,-0.059,0.055,0.017,-0.072,0.02,-0.066,-0.135,-0.18,-0.136,-0.072
-0.01,-0.073,-0.063,0.042,0.026,-0.068,0.02,-0.065,-0.14,-0.18,-0.13,-0.079
-0.007,-0.072,-0.065,0.04,0.029,-0.068,0.02,-0.064,-0.142,-0.184,-0.125,-0.08
-0.017,-0.083,-0.065,0.051,0.024,-0.074,0.022,-0.06,-0.149,-0.184,-0.119,-0.081
-0.039,-0.103,-0.064,0.071,0.013,-0.083,0.025,-0.057,-0.16,-0.179,-0.114,-0.081
-0.051,-0.111,-0.059,0.081,0.004,-0.084,0.025,-0.056,-0.153,-0.178,-0.108,-0.079
-0.015,-0.077,-0.062,0.046,0.024,-0.069,0.024,-0.049,-0.149,-0.173,-0.103,-0.076
-0.019,-0.074,-0.055,0.047,0.018,-0.064,0.027,-0.053,-0.138,-0.173,-0.093,-0.076
-0.009,-0.05,-0.041,0.029,0.016,-0.045,0.036,-0.034,-0.111,-0.156,-0.09,-0.063
0.005,0.023,0.018,-0.015,-0.006,0.02,0.049,-0.007,-0.078,-0.123,-0.07,-0.033
-0.018,0.056,0.074,-0.019,-0.046,0.065,0.045,-0.003,-0.067,-0.114,-0.052,-0.012
0.002,0.089,0.088,-0.046,-0.043,0.088,0.041,-0.01,-0.073,-0.108,-0.036,0.0
0.025,0.104,0.079,-0.065,-0.027,0.091,0.015,-0.061,-0.069,-0.108,-0.015,0.003
0.043,0.061,0.018,-0.052,0.012,0.039,-0.026,-0.071,-0.064,-0.095,-0.02,0.008
0.031,0.009,-0.022,-0.019,0.026,-0.006,-0.013,-0.071,-0.095,-0.115,-0.035,0.008
0.007,-0.04,-0.047,0.017,0.027,-0.043,0.005,-0.067,-0.124,-0.146,-0.059,-0.024
-0.029,-0.089,-0.061,0.059,0.016,-0.075,0.014,-0.064,-0.152,-0.178,-0.097,-0.056
-0.03,-0.097,-0.067,0.064,0.019,-0.081,0.019,-0.068,-0.165,-0.189,-0.099,-0.055
0.005,-0.094,-0.099,0.045,0.052,-0.097,0.029,-0.062,-0.151,-0.18,-0.106,-0.068
-0.013,-0.1,-0.087,0.057,0.038,-0.093,0.026,-0.081,-0.174,-0.21,-0.108,-0.066
-0.02,-0.115,-0.095,0.068,0.038,-0.105,0.03,-0.054,-0.14,-0.17,-0.096,-0.062
-0.026,-0.105,-0.079,0.066,0.027,-0.092,0.02,-0.092,-0.186,-0.23,-0.12,-0.067
-0.006,-0.095,-0.088,0.051,0.041,-0.091,0.02,-0.028,-0.12,-0.161,-0.083,-0.049
-0.024,-0.095,-0.071,0.06,0.023,-0.083,0.071,-0.051,-0.16,-0.245,-0.142,-0.088
0.005,-0.059,-0.065,0.027,0.035,-0.062,0.099,0.318,0.022,-0.159,-0.099,-0.076
0.178,0.266,0.088,-0.222,0.045,0.176,0.027,0.334,0.393,0.286,0.308,0.246
0.357,1.365,1.008,-0.861,-0.326,1.186,-0.525,-1.221,0.255,1.631,1.734,1.318
0.236,1.563,1.328,-0.9,-0.546,1.445,-0.778,-1.888,0.371,2.997,2.43,1.619
-0.121,0.279,0.4,-0.079,-0.26,0.339,-0.276,-1.181,-0.065,1.077,0.644,0.356
-0.112,-0.233,-0.121,0.173,0.005,-0.177,-0.021,-0.528,-0.403,-0.448,-0.266,-0.166
-0.027,-0.128,-0.101,0.078,0.037,-0.114,0.022,-0.141,-0.046,-0.069,-0.023,-0.03
-0.057,-0.156,-0.099,0.107,0.021,-0.127,0.063,-0.063,-0.088,-0.24,-0.126,-0.075
-0.018,-0.113,-0.095,0.066,0.039,-0.104,0.049,0.004,-0.051,-0.152,-0.058,-0.029
-0.037,-0.121,-0.083,0.079,0.023,-0.102,0.06,0.02,-0.058,-0.187,-0.089,-0.05
0.007,-0.097,-0.103,0.046,0.055,-0.1,0.052,0.031,-0.064,-0.187,-0.065,-0.03
0.045,-0.084,-0.13,0.02,0.088,-0.107,0.057,0.05,-0.036,-0.162,-0.061,-0.028
0.014,-0.089,-0.103,0.037,0.059,-0.095,0.054,0.045,-0.053,-0.181,-0.062,-0.032
0.007,-0.09,-0.097,0.042,0.052,-0.093,0.054,0.058,-0.023,-0.131,-0.042,-0.032
0.012,-0.082,-0.094,0.035,0.053,-0.088,0.051,0.07,-0.02,-0.141,-0.043,-0.023
0.025,-0.062,-0.087,0.018,0.056,-0.074,0.044,0.084,0.012,-0.103,-0.019,-0.004
0.04,-0.045,-0.085,0.003,0.063,-0.065,0.043,0.096,0.026,-0.099,-0.012,0.003
0.045,-0.034,-0.079,-0.005,0.062,-0.056,0.035,0.105,0.045,-0.061,0.015,0.02
0.048,-0.027,-0.075,-0.01,0.062,-0.051,0.022,0.119,0.068,-0.044,0.031,0.026
0.07,-0.006,-0.076,-0.031,0.073,-0.041,0.008,0.143,0.098,-0.01,0.052,0.04
0.096,0.026,-0.07,-0.06,0.082,-0.022,-0.007,0.179,0.133,0.023,0.081,0.061
0.122,0.051,-0.072,-0.087,0.097,-0.01,-0.022,0.223,0.179,0.055,0.123,0.091
0.151,0.09,-0.061,-0.12,0.106,0.014,-0.042,0.259,0.227,0.112,0.167,0.124
0.16,0.141,-0.019,-0.15,0.089,0.061,-0.06,0.316,0.28,0.174,0.23,0.17
0.205,0.189,-0.016,-0.197,0.111,0.086,-0.091,0.35,0.331,0.242,0.297,0.222
0.261,0.258,-0.003,-0.26,0.131,0.128,-0.129,0.37,0.363,0.313,0.372,0.279
0.28,0.309,0.03,-0.295,0.125,0.169,-0.16,0.374,0.371,0.371,0.442,0.33
0.295,0.362,0.067,-0.329,0.114,0.214,-0.18,0.363,0.364,0.412,0.491,0.371
0.289,0.395,0.106,-0.342,0.091,0.25,-0.187,0.346,0.362,0.427,0.531,0.4
0.269,0.371,0.102,-0.32,0.083,0.236,-0.192,0.306,0.349,0.419,0.53,0.395
0.26,0.352,0.092,-0.307,0.084,0.222,-0.179,0.265,0.315,0.401,0.489,0.363
0.215,0.295,0.079,-0.255,0.068,0.187,-0.145,0.221,0.255,0.336,0.414,0.301
0.154,0.225,0.071,-0.19,0.041,0.148,-0.107,0.168,0.195,0.255,0.326,0.235
0.106,0.157,0.051,-0.132,0.028,0.103,-0.062,0.099,0.14,0.161,0.236,0.165
0.07,0.083,0.012,-0.077,0.029,0.047,-0.035,0.057,0.075,0.078,0.162,0.103
0.048,0.046,-0.002,-0.047,0.025,0.022,-0.023,0.039,0.028,0.029,0.117,0.066
0.039,0.012,-0.027,-0.025,0.033,-0.007,0.007,0.019,-0.002,-0.022,0.078,0.045
0.042,-0.014,-0.056,-0.013,0.05,-0.035,0.022,0.015,-0.018,-0.048,0.054,0.04
0.03,-0.024,-0.054,-0.003,0.043,-0.039,0.021,0.011,-0.028,-0.051,0.049,0.035
0.034,-0.021,-0.055,-0.006,0.045,-0.038,0.019,0.008,-0.041,-0.05,0.051,0.029
0.039,-0.017,-0.056,-0.01,0.048,-0.036,0.015,0.004,-0.042,-0.048,0.046,0.024
0.04,-0.008,-0.048,-0.015,0.044,-0.028,0.013,-0.001,-0.039,-0.044,0.045,0.02
0.042,-0.025,-0.067,-0.008,0.054,-0.046,0.009,0.004,-0.041,-0.045,0.045,0.02
0.025,-0.045,-0.07,0.01,0.048,-0.058,0.013,0.008,-0.039,-0.049,0.04,0.02
0.032,-0.033,-0.065,0.001,0.049,-0.049,0.016,0.012,-0.041,-0.053,0.04,0.02
0.039,-0.025,-0.064,-0.007,0.052,-0.044,0.014,0.018,-0.038,-0.058,0.04,0.02
0.039,-0.02,-0.06,-0.01,0.05,-0.04,0.017,0.019,-0.035,-0.059,0.04,0.019
0.04,-0.02,-0.06,-0.01,0.05,-0.04,0.003,0.012,-0.041,-0.067,0.04,0.028
0.029,-0.018,-0.047,-0.006,0.038,-0.032,-0.005,0.005,-0.054,-0.075,0.037,0.031
0.043,-0.023,-0.066,-0.01,0.055,-0.044,0.005,0.0,-0.078,-0.092,0.031,0.022
0.044,-0.027,-0.071,-0.008,0.058,-0.049,0.01,-0.009,-0.089,-0.113,0.024,0.016
0.035,-0.023,-0.058,-0.006,0.047,-0.04,0.018,-0.012,-0.091,-0.109,0.017,0.008
0.047,-0.021,-0.068,-0.013,0.058,-0.044,0.024,-0.022,-0.104,-0.111,0.011,0.001
0.049,-0.02,-0.069,-0.014,0.059,-0.044,0.029,-0.03,-0.113,-0.117,0.005,-0.006
0.049,-0.021,-0.07,-0.014,0.06,-0.046,0.03,-0.033,-0.126,-0.124,-0.001,-0.01
0.035,-0.036,-0.071,0.001,0.053,-0.054,0.03,-0.039,-0.144,-0.143,-0.008,-0.012
0.023,-0.051,-0.074,0.014,0.049,-0.062,0.035,-0.045,-0.148,-0.152,-0.014,-0.016
0.026,-0.05,-0.076,0.013,0.051,-0.062,0.035,-0.05,-0.151,-0.149,-0.021,-0.018
0.022,-0.05,-0.072,0.014,0.047,-0.061,0.036,-0.051,-0.154,-0.15,-0.027,-0.02
0.018,-0.051,-0.069,0.017,0.043,-0.059,0.04,-0.065,-0.157,-0.164,-0.033,-0.031
0.012,-0.049,-0.061,0.019,0.037,-0.055,0.04,-0.072,-0.16,-0.172,-0.035,-0.036
0.007,-0.053,-0.06,0.023,0.034,-0.056,0.042,-0.068,-0.16,-0.169,-0.035,-0.034
-0.008,-0.06,-0.052,0.035,0.022,-0.056,0.045,-0.071,-0.164,-0.171,-0.035,-0.036
-0.008,-0.059,-0.051,0.034,0.021,-0.055,0.045,-0.069,-0.165,-0.17,-0.035,-0.035
0.018,-0.061,-0.079,0.022,0.048,-0.07,0.042,-0.071,-0.165,-0.17,-0.036,-0.036
0.029,-0.057,-0.086,0.015,0.057,-0.071,0.036,-0.074,-0.165,-0.175,-0.039,-0.039
0.015,-0.063,-0.078,0.024,0.047,-0.07,0.031,-0.075,-0.165,-0.175,-0.042,-0.04
0.009,-0.068,-0.078,0.03,0.044,-0.073,0.028,-0.075,-0.165,-0.176,-0.044,-0.04
0.006,-0.066,-0.072,0.03,0.04,-0.069,0.022,-0.074,-0.165,-0.18,-0.048,-0.041
-0.009,-0.079,-0.07,0.044,0.031,-0.074,0.021,-0.076,-0.165,-0.179,-0.05,-0.039
-0.008,-0.083,-0.075,0.046,0.034,-0.079,0.029,-0.072,-0.167,-0.183,-0.051,-0.045
-0.031,-0.101,-0.07,0.066,0.02,-0.085,0.03,-0.083,-0.17,-0.188,-0.056,-0.053
-0.036,-0.104,-0.068,0.07,0.016,-0.086,0.03,-0.095,-0.17,-0.184,-0.055,-0.049
-0.031,-0.095,-0.064,0.063,0.017,-0.079,0.03,-0.091,-0.17,-0.185,-0.055,-0.05
-0.038,-0.096,-0.058,0.067,0.011,-0.077,0.03,-0.086,-0.171,-0.182,-0.055,-0.05
-0.002,-0.084,-0.083,0.043,0.041,-0.083,0.022,-0.082,-0.169,-0.18,-0.056,-0.05
0.012,-0.077,-0.089,0.033,0.051,-0.083,0.026,-0.073,-0.171,-0.182,-0.053,-0.051
0.014,-0.05,-0.064,0.018,0.039,-0.057,0.059,-0.035,-0.141,-0.15,-0.033,-0.031
0.021,0.019,-0.002,-0.02,0.012,0.008,0.069,-0.02,-0.103,-0.115,-0.013,-0.009
0.043,0.079,0.036,-0.061,0.003,0.057,0.055,-0.015,-0.101,-0.108,0.0,0.0
0.037,0.101,0.064,-0.069,-0.014,0.082,0.039,-0.026,-0.097,-0.106,0.01,0.006
0.027,0.081,0.054,-0.054,-0.013,0.067,0.024,-0.082,-0.097,-0.103,0.02,0.02
0.05,0.02,-0.03,-0.035,0.04,-0.005,0.006,-0.089,-0.091,-0.097,0.017,0.019
0.04,-0.013,-0.053,-0.013,0.047,-0.033,-0.001,-0.091,-0.124,-0.128,-0.012,-0.01
0.026,-0.05,-0.076,0.012,0.051,-0.063,0.016,-0.081,-0.151,-0.15,-0.032,-0.028
-0.011,-0.093,-0.082,0.052,0.036,-0.088,0.023,-0.085,-0.177,-0.191,-0.074,-0.055
-0.027,-0.104,-0.077,0.065,0.026,-0.09,0.017,-0.078,-0.19,-0.186,-0.089,-0.063
-0.049,-0.133,-0.084,0.091,0.018,-0.108,0.023,-0.079,-0.186,-0.192,-0.1,-0.072
-0.059,-0.133,-0.074,0.096,0.008,-0.103,0.011,-0.086,-0.195,-0.202,-0.092,-0.07
-0.049,-0.138,-0.089,0.093,0.02,-0.113,0.018,-0.081,-0.167,-0.194,-0.094,-0.077
-0.052,-0.127,-0.075,0.09,0.012,-0.1,0.016,-0.115,-0.206,-0.253,-0.102,-0.079
-0.03,-0.134,-0.104,0.082,0.037,-0.119,0.035,-0.041,-0.141,-0.181,-0.079,-0.075
-0.061,-0.125,-0.064,0.093,0.002,-0.094,0.091,-0.049,-0.192,-0.294,-0.157,-0.11
0.053,-0.051,-0.104,-0.001,0.078,-0.077,0.119,0.424,0.105,-0.087,-0.076,-0.071
0.257,0.474,0.216,-0.366,0.02,0.345,-0.062,0.166,0.456,0.488,0.537,0.416
0.375,1.56,1.184,-0.968,-0.404,1.371,-0.653,-1.422,0.382,2.137,2.108,1.526
0.151,1.327,1.175,-0.739,-0.512,1.251,-0.69,-1.701,0.372,2.839,2.151,1.362
-0.183,0.073,0.256,0.055,-0.22,0.165,-0.148,-0.994,-0.253,0.454,0.212,0.072
-0.104,-0.235,-0.132,0.169,0.015,-0.183,0.005,-0.454,-0.38,-0.435,-0.241,-0.156
-0.032,-0.139,-0.108,0.086,0.038,-0.123,0.04,-0.135,-0.046,-0.103,-0.066,-0.069
-0.036,-0.117,-0.081,0.077,0.023,-0.099,0.062,-0.078,-0.126,-0.294,-0.155,-0.109
-0.028,-0.12,-0.092,0.074,0.033,-0.106,0.049,-0.009,-0.066,-0.155,-0.084,-0.074
-0.031,-0.143,-0.112,0.087,0.041,-0.127,0.061,-0.011,-0.09,-0.233,-0.138,-0.103
-0.001,-0.113,-0.112,0.057,0.056,-0.112,0.05,0.009,-0.073,-0.179,-0.1,-0.081
-0.002,-0.107,-0.104,0.055,0.051,-0.105,0.059,0.013,-0.067,-0.188,-0.123,-0.096
-0.005,-0.102,-0.097,0.054,0.046,-0.1,0.048,0.017,-0.06,-0.174,-0.105,-0.081
-0.016,-0.108,-0.091,0.062,0.038,-0.099,0.041,0.041,-0.025,-0.148,-0.098,-0.079
0.005,-0.077,-0.083,0.036,0.044,-0.08,0.032,0.043,-0.026,-0.149,-0.094,-0.073
0.019,-0.057,-0.076,0.019,0.048,-0.066,0.023,0.054,-0.003,-0.115,-0.077,-0.066
0.024,-0.046,-0.069,0.011,0.047,-0.057,0.014,0.061,0.009,-0.117,-0.074,-0.063
0.043,-0.019,-0.062,-0.012,0.053,-0.04,0.005,0.072,0.033,-0.081,-0.054,-0.044
0.051,-0.009,-0.06,-0.021,0.056,-0.034,-0.003,0.094,0.055,-0.064,-0.046,-0.035
0.068,0.009,-0.059,-0.038,0.063,-0.024,-0.014,0.114,0.097,-0.028,-0.018,-0.019
0.094,0.039,-0.055,-0.066,0.074,-0.008,-0.02,0.136,0.131,-0.001,0.005,-0.006
0.104,0.05,-0.055,-0.076,0.079,-0.002,-0.047,0.171,0.173,0.043,0.041,0.024
0.132,0.093,-0.039,-0.113,0.085,0.027,-0.068,0.212,0.223,0.098,0.087,0.062
0.152,0.144,-0.008,-0.148,0.08,0.068,-0.094,0.251,0.272,0.155,0.14,0.095
0.182,0.199,0.017,-0.191,0.082,0.108,-0.126,0.288,0.334,0.239,0.219,0.162
0.197,0.259,0.062,-0.229,0.067,0.161,-0.146,0.302,0.37,0.303,0.286,0.218
0.203,0.301,0.098,-0.252,0.052,0.199,-0.184,0.292,0.368,0.351,0.339,0.252
0.25,0.355,0.105,-0.303,0.072,0.23,-0.203,0.283,0.363,0.392,0.391,0.292
0.244,0.38,0.137,-0.312,0.053,0.258,-0.203,0.273,0.36,0.391,0.405,0.306
0.24,0.382,0.142,-0.311,0.048,0.262,-0.202,0.241,0.333,0.378,0.398,0.303
0.204,0.333,0.129,-0.269,0.037,0.231,-0.187,0.192,0.286,0.349,0.359,0.272
0.145,0.265,0.12,-0.205,0.012,0.192,-0.147,0.146,0.234,0.286,0.28,0.21
0.103,0.202,0.099,-0.153,0.002,0.151,-0.108,0.104,0.173,0.193,0.181,0.139
0.052,0.137,0.085,-0.095,-0.016,0.111,-0.075,0.066,0.102,0.1,0.087,0.062
0.051,0.093,0.042,-0.073,0.004,0.068,-0.038,0.024,0.043,0.024,0.017,-0.002
0.044,0.041,-0.002,-0.042,0.022,0.02,-0.007,0.004,0.01,-0.04,-0.037,-0.036
0.023,0.003,-0.02,-0.012,0.021,-0.009,0.014,0.002,-0.015,-0.068,-0.067,-0.053
0.006,-0.03,-0.036,0.012,0.021,-0.033,0.018,-0.002,-0.026,-0.087,-0.088,-0.067
-0.014,-0.045,-0.031,0.03,0.009,-0.038,0.023,-0.005,-0.025,-0.091,-0.091,-0.073
-0.022,-0.038,-0.017,0.03,-0.002,-0.027,0.024,-0.01,-0.024,-0.084,-0.088,-0.081
-0.019,-0.033,-0.014,0.026,-0.003,-0.023,0.019,-0.008,-0.021,-0.083,-0.093,-0.081
-0.021,-0.028,-0.006,0.025,-0.007,-0.017,0.02,-0.003,-0.019,-0.078,-0.104,-0.075
-0.017,-0.022,-0.005,0.02,-0.006,-0.013,0.02,0.0,-0.022,-0.075,-0.106,-0.074
-0.019,-0.016,0.003,0.017,-0.01,-0.007,0.02,0.003,-0.024,-0.079,-0.099,-0.068
-0.036,-0.033,0.003,0.034,-0.02,-0.014,0.02,0.008,-0.026,-0.085,-0.1,-0.066
-0.026,-0.043,-0.017,0.035,-0.005,-0.03,0.024,0.01,-0.029,-0.089,-0.093,-0.064
-0.015,-0.035,-0.02,0.026,0.003,-0.027,0.025,0.004,-0.042,-0.104,-0.1,-0.066
-0.022,-0.034,-0.012,0.028,-0.005,-0.023,0.025,-0.003,-0.059,-0.108,-0.105,-0.064
-0.02,-0.03,-0.01,0.025,-0.005,-0.02,0.03,-0.009,-0.059,-0.116,-0.104,-0.068
-0.02,-0.023,-0.003,0.022,-0.008,-0.013,0.03,-0.016,-0.087,-0.141,-0.128,-0.084
-0.054,-0.041,0.013,0.047,-0.033,-0.014,0.031,-0.022,-0.108,-0.153,-0.141,-0.086
-0.072,-0.058,0.014,0.065,-0.042,-0.022,0.035,-0.028,-0.108,-0.162,-0.147,-0.089
-0.058,-0.052,0.006,0.055,-0.032,-0.022,0.037,-0.037,-0.123,-0.176,-0.155,-0.09
-0.054,-0.049,0.004,0.051,-0.029,-0.022,0.04,-0.046,-0.124,-0.189,-0.159,-0.082
-0.046,-0.048,-0.002,0.047,-0.022,-0.025,0.043,-0.052,-0.135,-0.196,-0.17,-0.1
-0.037,-0.042,-0.005,0.04,-0.015,-0.023,0.046,-0.058,-0.14,-0.206,-0.163,-0.117
-0.044,-0.054,-0.011,0.049,-0.016,-0.032,0.041,-0.064,-0.143,-0.225,-0.17,-0.114
-0.064,-0.08,-0.016,0.072,-0.024,-0.048,0.039,-0.07,-0.165,-0.225,-0.201,-0.115
-0.058,-0.081,-0.023,0.07,-0.018,-0.051,0.041,-0.075,-0.165,-0.224,-0.207,-0.115
-0.055,-0.078,-0.023,0.067,-0.016,-0.051,0.039,-0.075,-0.165,-0.226,-0.208,-0.115
-0.065,-0.084,-0.019,0.074,-0.023,-0.051,0.044,-0.076,-0.165,-0.224,-0.213,-0.118
-0.058,-0.078,-0.02,0.068,-0.018,-0.049,0.051,-0.08,-0.164,-0.226,-0.214,-0.127
-0.072,-0.092,-0.02,0.082,-0.026,-0.056,0.05,-0.079,-0.166,-0.23,-0.217,-0.129
-0.078,-0.097,-0.02,0.087,-0.029,-0.058,0.05,-0.083,-0.164,-0.24,-0.22,-0.125
-0.062,-0.083,-0.021,0.073,-0.021,-0.052,0.051,-0.085,-0.165,-0.247,-0.22,-0.123
-0.087,-0.096,-0.009,0.092,-0.039,-0.052,0.049,-0.085,-0.164,-0.245,-0.22,-0.12
-0.092,-0.098,-0.006,0.095,-0.042,-0.052,0.053,-0.085,-0.165,-0.245,-0.22,-0.117
-0.059,-0.09,-0.031,0.075,-0.014,-0.06,0.058,-0.085,-0.165,-0.242,-0.22,-0.114
-0.05,-0.087,-0.037,0.069,-0.006,-0.062,0.066,-0.085,-0.165,-0.239,-0.217,-0.121
-0.046,-0.079,-0.033,0.063,-0.006,-0.056,0.067,-0.065,-0.163,-0.243,-0.205,-0.121
-0.038,-0.076,-0.038,0.058,0.0,-0.057,0.076,-0.04,-0.131,-0.215,-0.195,-0.11
-0.056,-0.036,0.021,0.046,-0.038,-0.008,0.083,-0.04,-0.103,-0.187,-0.185,-0.1
-0.057,0.027,0.083,0.015,-0.07,0.055,0.077,-0.041,-0.108,-0.192,-0.168,-0.083
-0.023,0.062,0.085,-0.02,-0.055,0.073,0.077,-0.039,-0.101,-0.188,-0.157,-0.065
-0.002,0.086,0.088,-0.043,-0.045,0.087,0.026,-0.072,-0.104,-0.193,-0.162,-0.063
0.007,0.048,0.041,-0.028,-0.017,0.044,0.002,-0.079,-0.096,-0.186,-0.162,-0.056
-0.028,-0.034,-0.006,0.031,-0.011,-0.019,0.022,-0.082,-0.104,-0.193,-0.169,-0.057
-0.061,-0.088,-0.027,0.075,-0.017,-0.057,0.037,-0.078,-0.134,-0.21,-0.198,-0.095
-0.074,-0.125,-0.05,0.099,-0.012,-0.087,0.061,-0.08,-0.161,-0.247,-0.235,-0.12
-0.084,-0.132,-0.048,0.108,-0.018,-0.09,0.052,-0.083,-0.18,-0.256,-0.244,-0.13
-0.085,-0.138,-0.053,0.111,-0.015,-0.095,0.059,-0.069,-0.17,-0.247,-0.258,-0.152
-0.085,-0.13,-0.045,0.108,-0.02,-0.087,0.049,-0.086,-0.187,-0.272,-0.253,-0.147
-0.074,-0.131,-0.057,0.102,-0.009,-0.094,0.052,-0.05,-0.147,-0.234,-0.241,-0.155
-0.093,-0.135,-0.042,0.114,-0.026,-0.088,0.048,-0.094,-0.191,-0.296,-0.261,-0.163
-0.082,-0.153,-0.071,0.118,-0.005,-0.111,0.056,-0.026,-0.127,-0.214,-0.22,-0.155
-0.089,-0.134,-0.046,0.112,-0.021,-0.09,0.094,-0.058,-0.178,-0.326,-0.306,-0.19
-0.037,-0.1,-0.062,0.069,0.013,-0.081,0.133,0.313,0.024,-0.232,-0.267,-0.167
0.157,0.278,0.121,-0.218,0.018,0.2,0.06,0.431,0.503,0.311,0.212,0.195
0.301,1.398,1.097,-0.85,-0.399,1.247,-0.538,-1.007,0.386,1.865,1.735,1.269
0.121,1.496,1.375,-0.809,-0.627,1.435,-0.725,-1.602,0.367,3.193,2.268,1.409
-0.222,0.256,0.479,-0.017,-0.35,0.367,-0.17,-0.987,-0.135,1.01,0.358,0.15
-0.197,-0.27,-0.074,0.234,-0.061,-0.172,0.052,-0.488,-0.434,-0.515,-0.421,-0.226
-0.076,-0.205,-0.129,0.141,0.027,-0.167,0.073,-0.146,-0.054,-0.114,-0.196,-0.105
-0.063,-0.167,-0.104,0.115,0.021,-0.135,0.097,-0.074,-0.084,-0.3,-0.315,-0.174
-0.064,-0.16,-0.096,0.113,0.016,-0.128,0.084,-0.013,-0.038,-0.194,-0.232,-0.126
-0.098,-0.192,-0.094,0.145,-0.002,-0.143,0.095,-0.001,-0.043,-0.237,-0.278,-0.147
-0.084,-0.171,-0.088,0.128,0.002,-0.129,0.082,0.018,-0.053,-0.224,-0.247,-0.123
-0.08,-0.167,-0.087,0.124,0.004,-0.127,0.087,0.034,-0.034,-0.204,-0.254,-0.125
-0.056,-0.136,-0.081,0.096,0.013,-0.108,0.083,0.041,-0.038,-0.22,-0.247,-0.117
-0.046,-0.125,-0.079,0.085,0.017,-0.102,0.08,0.061,0.0,-0.165,-0.23,-0.109
-0.035,-0.12,-0.085,0.077,0.025,-0.102,0.072,0.049,0.009,-0.172,-0.23,-0.107
-0.013,-0.108,-0.095,0.06,0.042,-0.101,0.066,0.051,0.039,-0.13,-0.199,-0.094
-0.016,-0.105,-0.088,0.061,0.036,-0.096,0.059,0.057,0.036,-0.136,-0.195,-0.094
-0.011,-0.094,-0.083,0.052,0.036,-0.088,0.052,0.081,0.068,-0.104,-0.168,-0.076
-0.013,-0.09,-0.077,0.052,0.032,-0.083,0.042,0.091,0.089,-0.085,-0.158,-0.067
0.022,-0.054,-0.076,0.017,0.049,-0.065,0.033,0.111,0.125,-0.051,-0.138,-0.047
0.058,-0.023,-0.082,-0.017,0.07,-0.052,0.018,0.132,0.165,-0.008,-0.106,-0.029
0.054,-0.001,-0.055,-0.026,0.055,-0.028,0.001,0.153,0.204,0.034,-0.057,0.006
0.076,0.046,-0.031,-0.061,0.053,0.007,-0.015,0.2,0.27,0.1,-0.008,0.04
0.125,0.08,-0.045,-0.102,0.085,0.017,-0.059,0.224,0.315,0.155,0.034,0.061
0.152,0.133,-0.02,-0.142,0.086,0.056,-0.087,0.252,0.365,0.231,0.117,0.12
0.164,0.195,0.032,-0.18,0.066,0.113,-0.117,0.276,0.402,0.307,0.196,0.178
0.186,0.245,0.059,-0.216,0.064,0.152,-0.156,0.265,0.406,0.364,0.256,0.22
0.201,0.288,0.087,-0.245,0.057,0.187,-0.172,0.254,0.398,0.404,0.311,0.259
0.194,0.301,0.107,-0.248,0.043,0.204,-0.176,0.243,0.383,0.393,0.313,0.272
0.166,0.292,0.125,-0.229,0.02,0.208,-0.163,0.216,0.352,0.381,0.299,0.266
0.141,0.256,0.114,-0.199,0.013,0.185,-0.157,0.174,0.306,0.353,0.268,0.232
0.122,0.206,0.084,-0.164,0.019,0.145,-0.126,0.139,0.248,0.269,0.179,0.167
0.095,0.152,0.057,-0.124,0.019,0.104,-0.077,0.105,0.177,0.172,0.089,0.102
0.027,0.068,0.041,-0.048,-0.007,0.054,-0.032,0.068,0.122,0.089,0.012,0.039
-0.019,0.006,0.025,0.006,-0.022,0.015,-0.001,0.039,0.074,0.015,-0.061,-0.026
-0.035,-0.019,0.016,0.026,-0.025,-0.001,0.007,0.021,0.024,-0.045,-0.114,-0.062
-0.073,-0.058,0.015,0.065,-0.043,-0.021,0.031,0.018,0.004,-0.085,-0.146,-0.089
-0.053,-0.071,-0.017,0.062,-0.018,-0.044,0.04,0.014,0.004,-0.09,-0.151,-0.097
-0.031,-0.07,-0.039,0.051,0.004,-0.054,0.045,0.011,0.0,-0.081,-0.146,-0.094
-0.02,-0.069,-0.049,0.045,0.014,-0.059,0.063,0.006,-0.002,-0.08,-0.144,-0.095
-0.017,-0.069,-0.051,0.043,0.017,-0.06,0.058,0.006,-0.005,-0.073,-0.141,-0.095
-0.046,-0.094,-0.049,0.07,0.002,-0.071,0.05,0.014,-0.005,-0.071,-0.139,-0.095
-0.043,-0.094,-0.051,0.068,0.004,-0.072,0.044,0.022,-0.005,-0.074,-0.136,-0.089
-0.031,-0.08,-0.05,0.056,0.01,-0.065,0.034,0.022,-0.006,-0.076,-0.134,-0.084
-0.029,-0.077,-0.048,0.054,0.009,-0.062,0.033,0.018,-0.004,-0.074,-0.129,-0.078
-0.036,-0.08,-0.044,0.058,0.004,-0.062,0.049,0.016,-0.013,-0.078,-0.129,-0.074
-0.041,-0.08,-0.038,0.06,-0.002,-0.059,0.048,0.013,-0.021,-0.09,-0.122,-0.065
-0.043,-0.083,-0.04,0.063,-0.001,-0.061,0.04,0.01,-0.031,-0.102,-0.134,-0.072
-0.057,-0.085,-0.028,0.072,-0.014,-0.056,0.039,0.009,-0.038,-0.113,-0.15,-0.074
-0.048,-0.084,-0.036,0.066,-0.005,-0.06,0.031,0.001,-0.055,-0.124,-0.152,-0.083
-0.052,-0.094,-0.041,0.073,-0.005,-0.067,0.034,-0.007,-0.084,-0.13,-0.159,-0.096
-0.062,-0.1,-0.038,0.081,-0.012,-0.068,0.041,-0.015,-0.089,-0.14,-0.159,-0.094
-0.068,-0.128,-0.06,0.098,-0.003,-0.094,0.04,-0.022,-0.121,-0.169,-0.186,-0.115
-0.085,-0.136,-0.05,0.111,-0.017,-0.093,0.039,-0.033,-0.147,-0.178,-0.197,-0.122
-0.068,-0.123,-0.055,0.096,-0.006,-0.089,0.036,-0.044,-0.145,-0.174,-0.196,-0.118
-0.079,-0.126,-0.047,0.102,-0.015,-0.086,0.034,-0.047,-0.15,-0.183,-0.202,-0.122
-0.072,-0.114,-0.041,0.093,-0.015,-0.077,0.037,-0.052,-0.152,-0.197,-0.195,-0.118
-0.062,-0.123,-0.062,0.093,0.001,-0.092,0.04,-0.055,-0.155,-0.201,-0.195,-0.122
-0.088,-0.141,-0.053,0.115,-0.018,-0.097,0.04,-0.057,-0.158,-0.199,-0.191,-0.125
-0.091,-0.139,-0.048,0.115,-0.021,-0.094,0.04,-0.061,-0.16,-0.201,-0.188,-0.125
-0.093,-0.137,-0.045,0.115,-0.024,-0.091,0.04,-0.063,-0.16,-0.199,-0.185,-0.127
-0.099,-0.132,-0.033,0.116,-0.032,-0.082,0.039,-0.066,-0.163,-0.201,-0.186,-0.13
-0.103,-0.149,-0.046,0.126,-0.028,-0.097,0.044,-0.065,-0.166,-0.205,-0.193,-0.13
-0.092,-0.161,-0.069,0.126,-0.011,-0.115,0.045,-0.065,-0.164,-0.205,-0.19,-0.127
-0.081,-0.153,-0.071,0.117,-0.005,-0.112,0.045,-0.066,-0.16,-0.205,-0.19,-0.121
-0.082,-0.15,-0.068,0.116,-0.007,-0.109,0.049,-0.063,-0.153,-0.204,-0.19,-0.117
-0.073,-0.145,-0.071,0.109,-0.001,-0.108,0.05,-0.062,-0.15,-0.206,-0.19,-0.112
-0.072,-0.141,-0.07,0.107,-0.001,-0.105,0.049,-0.057,-0.142,-0.201,-0.192,-0.108
-0.063,-0.13,-0.067,0.096,0.002,-0.099,0.042,-0.063,-0.138,-0.191,-0.183,-0.104
-0.056,-0.106,-0.05,0.081,-0.003,-0.078,0.054,-0.044,-0.128,-0.18,-0.162,-0.091
-0.074,-0.07,0.004,0.072,-0.039,-0.033,0.077,-0.01,-0.095,-0.144,-0.124,-0.076
-0.066,-0.021,0.046,0.043,-0.056,0.013,0.076,-0.02,-0.085,-0.116,-0.1,-0.063
-0.039,0.034,0.073,0.002,-0.056,0.053,0.059,-0.032,-0.084,-0.113,-0.094,-0.051
-0.043,0.05,0.093,-0.004,-0.068,0.071,0.017,-0.07,-0.087,-0.118,-0.09,-0.049
-0.029,0.009,0.038,0.01,-0.033,0.023,-0.022,-0.082,-0.083,-0.112,-0.082,-0.051
-0.012,-0.04,-0.028,0.026,0.008,-0.034,-0.004,-0.079,-0.088,-0.119,-0.083,-0.048
-0.068,-0.095,-0.027,0.082,-0.02,-0.061,0.031,-0.082,-0.121,-0.15,-0.117,-0.068
-0.095,-0.157,-0.061,0.126,-0.017,-0.109,0.049,-0.076,-0.15,-0.185,-0.15,-0.1
-0.09,-0.163,-0.073,0.127,-0.008,-0.118,0.043,-0.087,-0.169,-0.204,-0.144,-0.093
-0.099,-0.167,-0.068,0.133,-0.015,-0.117,0.046,-0.064,-0.147,-0.178,-0.142,-0.095
-0.076,-0.163,-0.088,0.12,0.007,-0.125,0.04,-0.082,-0.177,-0.208,-0.152,-0.097
-0.069,-0.164,-0.095,0.117,0.013,-0.129,0.039,-0.043,-0.14,-0.16,-0.133,-0.09
-0.116,-0.194,-0.079,0.155,-0.018,-0.136,0.044,-0.075,-0.181,-0.207,-0.161,-0.103
-0.115,-0.191,-0.076,0.153,-0.019,-0.133,0.031,-0.026,-0.136,-0.157,-0.13,-0.083
-0.079,-0.156,-0.077,0.118,-0.001,-0.117,0.079,-0.049,-0.141,-0.209,-0.176,-0.119
-0.055,-0.111,-0.056,0.084,0.001,-0.084,0.119,0.202,-0.05,-0.216,-0.17,-0.124
0.089,0.095,0.006,-0.092,0.041,0.051,0.084,0.508,0.405,0.197,0.127,0.098
0.277,1.108,0.831,-0.693,-0.277,0.969,-0.412,-0.822,0.274,1.379,1.421,1.068
0.192,1.603,1.411,-0.898,-0.61,1.507,-0.805,-1.802,0.345,3.145,2.52,1.647
-0.151,0.441,0.591,-0.145,-0.371,0.516,-0.358,-1.235,0.066,1.711,0.972,0.53
-0.218,-0.305,-0.088,0.262,-0.065,-0.197,-0.02,-0.593,-0.429,-0.374,-0.292,-0.189
-0.111,-0.231,-0.12,0.171,0.005,-0.176,0.023,-0.175,-0.077,-0.095,-0.073,-0.061
-0.113,-0.217,-0.104,0.165,-0.004,-0.16,0.08,-0.075,-0.056,-0.172,-0.139,-0.099
-0.068,-0.184,-0.116,0.127,0.024,-0.15,0.067,-0.011,-0.049,-0.154,-0.088,-0.066
-0.06,-0.192,-0.133,0.126,0.037,-0.162,0.077,0.022,-0.018,-0.123,-0.103,-0.076
-0.064,-0.179,-0.115,0.122,0.026,-0.147,0.067,0.028,-0.047,-0.164,-0.1,-0.067
-0.063,-0.177,-0.114,0.12,0.026,-0.145,0.068,0.054,-0.006,-0.104,-0.083,-0.06
-0.042,-0.17,-0.128,0.106,0.043,-0.149,0.064,0.051,-0.031,-0.151,-0.099,-0.063
-0.019,-0.153,-0.134,0.086,0.058,-0.143,0.06,0.067,-0.002,-0.101,-0.063,-0.038
-0.019,-0.145,-0.126,0.082,0.053,-0.135,0.061,0.061,0.003,-0.123,-0.057,-0.029
-0.007,-0.128,-0.121,0.068,0.057,-0.124,0.052,0.09,0.035,-0.086,-0.021,-0.012
-0.022,-0.137,-0.115,0.08,0.047,-0.126,0.043,0.104,0.047,-0.076,-0.016,-0.007
0.002,-0.108,-0.11,0.053,0.056,-0.109,0.035,0.096,0.06,-0.052,0.008,0.007
0.024,-0.079,-0.103,0.028,0.064,-0.091,0.025,0.119,0.091,-0.013,0.028,0.028
0.023,-0.072,-0.095,0.024,0.059,-0.083,0.017,0.138,0.123,0.016,0.053,0.043
0.049,-0.038,-0.087,-0.006,0.069,-0.062,0.012,0.168,0.165,0.058,0.089,0.062
0.045,-0.034,-0.079,-0.005,0.063,-0.056,-0.009,0.206,0.202,0.085,0.121,0.092
0.071,0.0,-0.072,-0.035,0.071,-0.035,-0.03,0.238,0.253,0.139,0.171,0.125
0.125,0.071,-0.054,-0.098,0.089,0.008,-0.054,0.287,0.308,0.206,0.23,0.164
0.137,0.107,-0.029,-0.122,0.083,0.039,-0.09,0.313,0.35,0.264,0.297,0.204
0.161,0.17,0.009,-0.166,0.076,0.09,-0.126,0.34,0.396,0.348,0.382,0.275
0.181,0.231,0.05,-0.207,0.065,0.14,-0.15,0.35,0.412,0.411,0.457,0.323
0.2,0.276,0.075,-0.238,0.062,0.175,-0.162,0.34,0.398,0.45,0.511,0.363
0.21,0.3,0.09,-0.256,0.06,0.195,-0.189,0.329,0.391,0.479,0.526,0.391
0.206,0.294,0.088,-0.25,0.059,0.191,-0.191,0.295,0.378,0.47,0.518,0.381
0.205,0.278,0.073,-0.242,0.066,0.175,-0.16,0.256,0.338,0.43,0.502,0.366
0.16,0.224,0.064,-0.192,0.047,0.144,-0.128,0.211,0.291,0.362,0.428,0.307
0.096,0.144,0.048,-0.121,0.024,0.096,-0.09,0.164,0.231,0.273,0.338,0.241
0.056,0.068,0.011,-0.063,0.022,0.039,-0.051,0.115,0.158,0.18,0.253,0.177
0.02,0.007,-0.013,-0.013,0.016,-0.003,-0.018,0.07,0.105,0.107,0.182,0.117
-0.001,-0.033,-0.032,0.018,0.015,-0.032,0.011,0.039,0.057,0.045,0.142,0.079
-0.011,-0.057,-0.046,0.034,0.018,-0.052,0.029,0.028,0.017,0.001,0.11,0.053
-0.028,-0.081,-0.053,0.054,0.013,-0.067,0.03,0.026,0.0,-0.013,0.097,0.05
-0.034,-0.095,-0.061,0.065,0.014,-0.078,0.029,0.022,-0.001,-0.015,0.094,0.05
-0.025,-0.095,-0.07,0.061,0.023,-0.083,0.031,0.019,0.0,-0.02,0.09,0.05
-0.038,-0.112,-0.074,0.075,0.018,-0.093,0.029,0.013,0.0,-0.025,0.089,0.05
-0.048,-0.118,-0.071,0.083,0.012,-0.094,0.032,0.027,0.0,-0.025,0.083,0.049
-0.014,-0.102,-0.088,0.058,0.037,-0.094,0.035,0.037,0.0,-0.025,0.091,0.054
-0.002,-0.1,-0.098,0.051,0.048,-0.098,0.035,0.034,-0.004,-0.025,0.105,0.054
-0.008,-0.1,-0.093,0.055,0.042,-0.096,0.037,0.035,-0.011,-0.025,0.105,0.056
-0.006,-0.099,-0.093,0.053,0.044,-0.096,0.041,0.03,-0.017,-0.025,0.105,0.06
-0.013,-0.101,-0.088,0.057,0.037,-0.094,0.04,0.03,-0.024,-0.026,0.105,0.06
-0.007,-0.099,-0.092,0.053,0.043,-0.096,0.037,0.029,-0.031,-0.032,0.105,0.064
0.005,-0.107,-0.111,0.051,0.058,-0.109,0.035,0.025,-0.036,-0.04,0.103,0.065
0.004,-0.112,-0.116,0.055,0.06,-0.114,0.035,0.023,-0.045,-0.051,0.096,0.068
-0.013,-0.127,-0.114,0.071,0.051,-0.121,0.035,0.019,-0.055,-0.054,0.091,0.07
-0.033,-0.148,-0.115,0.091,0.041,-0.131,0.035,0.017,-0.067,-0.066,0.085,0.07
-0.037,-0.153,-0.116,0.096,0.039,-0.134,0.036,0.014,-0.077,-0.078,0.08,0.07
-0.04,-0.153,-0.113,0.097,0.037,-0.133,0.04,0.012,-0.089,-0.087,0.075,0.07
-0.046,-0.157,-0.111,0.101,0.033,-0.133,0.04,0.004,-0.1,-0.099,0.07,0.069
-0.046,-0.153,-0.107,0.1,0.031,-0.13,0.04,0.001,-0.11,-0.103,0.07,0.065
-0.052,-0.157,-0.105,0.105,0.027,-0.131,0.04,-0.006,-0.119,-0.115,0.069,0.065
-0.059,-0.16,-0.102,0.109,0.022,-0.131,0.039,-0.012,-0.123,-0.116,0.065,0.063
-0.054,-0.152,-0.098,0.103,0.022,-0.125,0.046,-0.014,-0.125,-0.113,0.065,0.059
-0.052,-0.183,-0.13,0.117,0.039,-0.156,0.051,-0.036,-0.125,-0.126,0.065,0.06
-0.055,-0.197,-0.143,0.126,0.044,-0.17,0.05,-0.047,-0.125,-0.131,0.065,0.06
-0.052,-0.184,-0.133,0.118,0.041,-0.158,0.05,-0.044,-0.125,-0.13,0.065,0.06
-0.056,-0.186,-0.13,0.121,0.037,-0.157,0.05,-0.046,-0.125,-0.13,0.065,0.06
-0.054,-0.177,-0.123,0.116,0.034,-0.149,0.05,-0.045,-0.125,-0.13,0.064,0.06
-0.057,-0.176,-0.119,0.117,0.032,-0.147,0.054,-0.045,-0.121,-0.13,0.066,0.06
-0.071,-0.18,-0.109,0.126,0.019,-0.144,0.055,-0.04,-0.12,-0.125,0.075,0.061
-0.055,-0.184,-0.128,0.12,0.037,-0.156,0.055,-0.04,-0.119,-0.125,0.076,0.065
-0.024,-0.172,-0.148,0.098,0.062,-0.16,0.059,-0.039,-0.116,-0.125,0.074,0.064
-0.026,-0.17,-0.144,0.098,0.059,-0.157,0.06,-0.035,-0.114,-0.125,0.076,0.068
-0.055,-0.198,-0.143,0.126,0.044,-0.17,0.06,-0.035,-0.117,-0.125,0.074,0.07
-0.061,-0.2,-0.139,0.131,0.039,-0.17,0.06,-0.037,-0.121,-0.122,0.076,0.07
-0.055,-0.195,-0.14,0.125,0.043,-0.167,0.06,-0.04,-0.126,-0.12,0.08,0.07
-0.058,-0.194,-0.136,0.126,0.039,-0.165,0.06,-0.04,-0.129,-0.12,0.08,0.07
-0.06,-0.19,-0.13,0.125,0.035,-0.159,0.06,-0.04,-0.127,-0.121,0.08,0.07
-0.066,-0.191,-0.125,0.129,0.029,-0.157,0.06,-0.04,-0.121,-0.119,0.079,0.07
-0.083,-0.202,-0.119,0.143,0.018,-0.161,0.064,-0.039,-0.118,-0.131,0.08,0.08
-0.067,-0.18,-0.113,0.124,0.023,-0.146,0.066,-0.021,-0.114,-0.128,0.093,0.081
-0.024,-0.116,-0.093,0.07,0.034,-0.104,0.082,0.013,-0.08,-0.096,0.122,0.101
-0.019,-0.079,-0.06,0.049,0.021,-0.069,0.104,0.031,-0.062,-0.069,0.151,0.125
0.001,-0.031,-0.031,0.015,0.016,-0.031,0.09,0.032,-0.068,-0.055,0.164,0.137
0.015,0.007,-0.008,-0.01,0.011,0.0,0.043,0.019,-0.069,-0.055,0.172,0.151
0.004,-0.029,-0.033,0.013,0.019,-0.031,0.019,0.006,-0.075,-0.05,0.161,0.141
0.033,-0.085,-0.118,0.026,0.075,-0.101,0.02,-0.008,-0.074,-0.055,0.151,0.138
0.021,-0.13,-0.152,0.055,0.086,-0.141,0.028,-0.025,-0.106,-0.087,0.138,0.128
-0.035,-0.176,-0.141,0.106,0.053,-0.158,0.059,-0.039,-0.136,-0.112,0.108,0.098
-0.056,-0.212,-0.155,0.134,0.05,-0.183,0.067,-0.053,-0.141,-0.129,0.093,0.083
-0.07,-0.227,-0.158,0.149,0.045,-0.192,0.064,-0.045,-0.14,-0.131,0.088,0.079
-0.083,-0.221,-0.138,0.152,0.027,-0.179,0.067,-0.054,-0.141,-0.137,0.085,0.076
-0.073,-0.221,-0.148,0.148,0.037,-0.184,0.063,-0.044,-0.141,-0.143,0.079,0.069
-0.058,-0.212,-0.154,0.135,0.048,-0.183,0.069,-0.054,-0.139,-0.14,0.077,0.068
-0.069,-0.215,-0.146,0.142,0.038,-0.181,0.049,-0.046,-0.141,-0.143,0.067,0.058
-0.043,-0.2,-0.157,0.122,0.057,-0.179,0.056,-0.047,-0.126,-0.136,0.057,0.056
-0.03,-0.172,-0.142,0.101,0.056,-0.157,0.134,0.085,-0.112,-0.163,0.03,0.033
0.07,-0.079,-0.149,0.005,0.109,-0.114,0.158,0.489,0.18,-0.027,0.143,0.121
0.26,0.573,0.313,-0.416,-0.027,0.442,-0.128,-0.147,0.482,0.805,0.987,0.775
