-0.078,-0.123,-0.044,0.101,-0.016,-0.083,0.02,-0.039,-0.165,-0.13,-0.125,-0.015
-0.069,-0.114,-0.045,0.092,-0.012,-0.079,0.02,-0.037,-0.165,-0.13,-0.125,-0.016
-0.092,-0.144,-0.053,0.118,-0.019,-0.098,0.017,-0.05,-0.165,-0.13,-0.125,-0.019
-0.102,-0.156,-0.054,0.13,-0.024,-0.105,0.014,-0.056,-0.166,-0.13,-0.125,-0.023
-0.074,-0.138,-0.063,0.106,-0.005,-0.1,0.01,-0.055,-0.163,-0.13,-0.14,-0.025
-0.079,-0.151,-0.072,0.115,-0.004,-0.111,0.01,-0.054,-0.177,-0.131,-0.146,-0.02
-0.075,-0.141,-0.067,0.108,-0.003,-0.104,0.016,-0.063,-0.174,-0.128,-0.144,-0.021
-0.088,-0.153,-0.065,0.121,-0.011,-0.109,0.026,-0.072,-0.178,-0.146,-0.145,-0.018
-0.112,-0.174,-0.061,0.143,-0.025,-0.117,0.028,-0.069,-0.187,-0.157,-0.145,-0.015
-0.101,-0.161,-0.06,0.131,-0.02,-0.11,0.021,-0.071,-0.178,-0.154,-0.145,-0.014
-0.105,-0.161,-0.056,0.133,-0.024,-0.108,0.016,-0.069,-0.178,-0.156,-0.145,-0.019
-0.104,-0.154,-0.05,0.129,-0.027,-0.102,0.012,-0.071,-0.172,-0.155,-0.145,-0.036
-0.095,-0.14,-0.045,0.118,-0.025,-0.092,0.004,-0.064,-0.169,-0.155,-0.145,-0.036
-0.097,-0.137,-0.041,0.117,-0.028,-0.088,0.002,-0.056,-0.164,-0.147,-0.144,-0.032
-0.082,-0.113,-0.031,0.098,-0.025,-0.072,0.004,-0.048,-0.151,-0.138,-0.146,-0.029
-0.069,-0.107,-0.039,0.088,-0.015,-0.073,0.016,-0.037,-0.145,-0.126,-0.141,-0.026
-0.028,-0.089,-0.06,0.058,0.016,-0.074,0.045,-0.017,-0.123,-0.123,-0.124,-0.023
0.013,-0.047,-0.061,0.017,0.037,-0.054,0.037,0.029,-0.108,-0.124,-0.117,-0.012
-0.017,-0.076,-0.059,0.047,0.021,-0.067,0.005,0.004,-0.114,-0.127,-0.124,-0.006
-0.033,-0.095,-0.062,0.064,0.014,-0.078,-0.019,-0.056,-0.118,-0.129,-0.122,0.006
-0.066,-0.124,-0.059,0.095,-0.003,-0.091,-0.019,-0.075,-0.144,-0.131,-0.133,-0.021
-0.117,-0.176,-0.059,0.146,-0.029,-0.117,-0.022,-0.096,-0.173,-0.151,-0.166,-0.051
-0.102,-0.154,-0.053,0.128,-0.024,-0.104,-0.018,-0.092,-0.176,-0.156,-0.172,-0.049
-0.087,-0.136,-0.049,0.112,-0.019,-0.093,-0.015,-0.095,-0.176,-0.149,-0.169,-0.051
-0.12,-0.169,-0.049,0.145,-0.035,-0.109,-0.018,-0.086,-0.174,-0.147,-0.167,-0.048
-0.134,-0.171,-0.038,0.153,-0.048,-0.104,-0.005,-0.088,-0.171,-0.143,-0.165,-0.055
-0.112,-0.159,-0.047,0.135,-0.033,-0.103,-0.007,-0.086,-0.17,-0.136,-0.162,-0.041
-0.158,-0.194,-0.036,0.176,-0.061,-0.115,0.078,-0.031,-0.178,-0.176,-0.193,-0.099
-0.153,-0.222,-0.069,0.188,-0.042,-0.145,0.147,0.181,-0.178,-0.202,-0.212,-0.14
0.102,0.177,0.074,-0.139,0.014,0.125,-0.035,0.244,0.101,0.127,0.11,0.2
0.523,0.876,0.353,-0.7,0.085,0.614,-0.58,-0.512,0.777,0.952,0.9,0.917
0.552,0.901,0.349,-0.727,0.101,0.625,-0.796,-1.154,1.093,1.324,1.18,1.087
0.037,0.281,0.244,-0.16,-0.104,0.262,-0.432,-1.006,0.386,0.586,0.407,0.375
-0.189,-0.122,0.067,0.156,-0.128,-0.027,-0.207,-0.595,-0.251,-0.098,-0.156,-0.058
-0.115,-0.178,-0.063,0.147,-0.026,-0.12,-0.079,-0.197,-0.168,-0.162,-0.147,-0.04
-0.149,-0.193,-0.044,0.171,-0.052,-0.118,-0.005,-0.098,-0.144,-0.159,-0.159,-0.056
-0.138,-0.191,-0.053,0.164,-0.043,-0.121,0.014,-0.081,-0.165,-0.161,-0.152,-0.05
-0.13,-0.182,-0.052,0.156,-0.039,-0.117,0.043,-0.049,-0.146,-0.158,-0.149,-0.057
-0.118,-0.179,-0.061,0.148,-0.028,-0.119,0.025,-0.055,-0.162,-0.162,-0.152,-0.055
-0.113,-0.172,-0.06,0.143,-0.026,-0.116,0.028,-0.038,-0.15,-0.156,-0.144,-0.049
-0.113,-0.167,-0.053,0.141,-0.03,-0.109,0.021,-0.039,-0.153,-0.152,-0.141,-0.044
-0.107,-0.162,-0.055,0.135,-0.026,-0.108,0.015,-0.027,-0.13,-0.143,-0.131,-0.034
-0.147,-0.194,-0.047,0.17,-0.05,-0.12,0.022,-0.024,-0.122,-0.138,-0.127,-0.03
-0.107,-0.162,-0.055,0.134,-0.025,-0.108,0.036,-0.018,-0.11,-0.131,-0.118,-0.022
-0.075,-0.141,-0.066,0.108,-0.004,-0.103,0.035,-0.011,-0.101,-0.121,-0.114,-0.018
-0.116,-0.179,-0.063,0.148,-0.026,-0.121,0.035,-0.008,-0.094,-0.109,-0.105,-0.007
-0.103,-0.18,-0.076,0.142,-0.014,-0.128,0.032,0.004,-0.078,-0.094,-0.095,0.003
-0.096,-0.179,-0.082,0.138,-0.007,-0.13,0.03,0.02,-0.058,-0.072,-0.085,0.012
-0.075,-0.145,-0.07,0.11,-0.003,-0.107,0.029,0.044,-0.019,-0.054,-0.073,0.033
-0.043,-0.114,-0.07,0.079,0.014,-0.092,0.026,0.082,0.01,-0.031,-0.049,0.046
-0.034,-0.104,-0.07,0.069,0.019,-0.086,0.012,0.125,0.045,0.001,-0.01,0.057
0.031,-0.039,-0.07,0.004,0.051,-0.054,-0.017,0.186,0.114,0.054,0.039,0.103
0.081,0.012,-0.07,-0.046,0.076,-0.029,-0.044,0.259,0.196,0.118,0.104,0.164
0.121,0.068,-0.052,-0.094,0.086,0.008,-0.078,0.332,0.279,0.186,0.18,0.223
0.171,0.135,-0.036,-0.153,0.103,0.049,-0.111,0.391,0.364,0.265,0.251,0.288
0.215,0.18,-0.035,-0.197,0.124,0.073,-0.134,0.438,0.442,0.329,0.314,0.346
0.246,0.213,-0.033,-0.229,0.139,0.09,-0.135,0.472,0.497,0.381,0.365,0.387
0.258,0.229,-0.029,-0.244,0.143,0.1,-0.142,0.47,0.522,0.405,0.383,0.399
0.263,0.231,-0.032,-0.247,0.147,0.1,-0.138,0.443,0.511,0.39,0.363,0.374
0.205,0.17,-0.035,-0.187,0.12,0.067,-0.098,0.376,0.447,0.339,0.307,0.318
0.149,0.114,-0.035,-0.131,0.091,0.039,-0.06,0.28,0.337,0.258,0.218,0.234
0.084,0.043,-0.04,-0.064,0.062,0.001,-0.026,0.182,0.214,0.153,0.112,0.15
0.01,-0.029,-0.039,0.009,0.025,-0.033,-0.002,0.087,0.106,0.072,0.038,0.08
-0.041,-0.086,-0.045,0.064,0.002,-0.065,0.016,0.013,0.026,0.019,-0.012,0.025
-0.067,-0.127,-0.06,0.097,-0.003,-0.093,0.029,-0.018,-0.016,-0.025,-0.049,-0.004
-0.071,-0.132,-0.06,0.101,-0.005,-0.096,0.03,-0.046,-0.049,-0.051,-0.067,-0.011
-0.111,-0.17,-0.059,0.14,-0.026,-0.114,0.03,-0.072,-0.079,-0.074,-0.082,-0.018
-0.093,-0.157,-0.064,0.125,-0.014,-0.11,0.03,-0.067,-0.08,-0.076,-0.085,-0.024
-0.064,-0.14,-0.076,0.102,0.007,-0.108,0.03,-0.064,-0.08,-0.074,-0.089,-0.032
-0.068,-0.148,-0.08,0.108,0.007,-0.114,0.03,-0.061,-0.079,-0.077,-0.094,-0.034
-0.064,-0.143,-0.08,0.103,0.009,-0.111,0.029,-0.056,-0.074,-0.079,-0.094,-0.03
-0.064,-0.145,-0.08,0.104,0.009,-0.112,0.045,-0.055,-0.073,-0.084,-0.096,-0.03
-0.077,-0.157,-0.08,0.117,0.002,-0.118,0.052,-0.055,-0.069,-0.085,-0.093,-0.03
-0.096,-0.176,-0.08,0.136,-0.008,-0.128,0.046,-0.055,-0.068,-0.085,-0.09,-0.031
-0.089,-0.168,-0.08,0.129,-0.004,-0.124,0.045,-0.055,-0.063,-0.085,-0.09,-0.029
-0.081,-0.162,-0.08,0.122,0.0,-0.121,0.041,-0.055,-0.069,-0.085,-0.09,-0.038
-0.083,-0.163,-0.08,0.123,-0.001,-0.121,0.039,-0.055,-0.088,-0.085,-0.09,-0.043
-0.085,-0.165,-0.08,0.125,-0.002,-0.122,0.036,-0.059,-0.092,-0.085,-0.09,-0.037
-0.091,-0.171,-0.08,0.131,-0.005,-0.126,0.035,-0.067,-0.104,-0.085,-0.09,-0.034
-0.091,-0.17,-0.08,0.131,-0.005,-0.125,0.035,-0.079,-0.12,-0.094,-0.09,-0.031
-0.097,-0.179,-0.082,0.138,-0.006,-0.13,0.035,-0.087,-0.126,-0.103,-0.091,-0.026
-0.105,-0.19,-0.085,0.148,-0.01,-0.138,0.035,-0.083,-0.128,-0.096,-0.089,-0.025
-0.09,-0.179,-0.088,0.135,-0.001,-0.133,0.037,-0.088,-0.139,-0.114,-0.095,-0.053
-0.075,-0.166,-0.09,0.12,0.008,-0.128,0.04,-0.101,-0.152,-0.115,-0.106,-0.07
-0.065,-0.154,-0.09,0.11,0.013,-0.122,0.04,-0.1,-0.148,-0.1,-0.1,-0.057
-0.078,-0.168,-0.09,0.123,0.006,-0.129,0.04,-0.1,-0.145,-0.112,-0.095,-0.047
-0.098,-0.188,-0.09,0.143,-0.004,-0.138,0.04,-0.1,-0.143,-0.11,-0.092,-0.042
-0.094,-0.184,-0.09,0.139,-0.002,-0.136,0.039,-0.1,-0.139,-0.11,-0.085,-0.047
-0.092,-0.183,-0.09,0.137,-0.001,-0.136,0.036,-0.1,-0.138,-0.111,-0.088,-0.051
-0.092,-0.18,-0.088,0.137,-0.002,-0.134,0.033,-0.1,-0.134,-0.109,-0.09,-0.054
-0.095,-0.178,-0.083,0.137,-0.006,-0.13,0.03,-0.1,-0.136,-0.115,-0.09,-0.055
-0.104,-0.184,-0.08,0.144,-0.012,-0.132,0.027,-0.1,-0.134,-0.114,-0.093,-0.055
-0.123,-0.2,-0.077,0.162,-0.023,-0.138,0.024,-0.1,-0.136,-0.116,-0.096,-0.055
-0.12,-0.192,-0.072,0.156,-0.024,-0.132,0.028,-0.099,-0.15,-0.119,-0.094,-0.055
-0.121,-0.191,-0.069,0.156,-0.026,-0.13,0.03,-0.095,-0.16,-0.121,-0.089,-0.057
-0.132,-0.198,-0.066,0.166,-0.033,-0.132,0.03,-0.095,-0.164,-0.119,-0.083,-0.06
-0.117,-0.182,-0.065,0.15,-0.026,-0.123,0.03,-0.095,-0.16,-0.112,-0.079,-0.063
-0.114,-0.18,-0.065,0.148,-0.024,-0.122,0.03,-0.095,-0.155,-0.121,-0.073,-0.066
-0.08,-0.145,-0.064,0.113,-0.008,-0.104,0.03,-0.095,-0.151,-0.126,-0.066,-0.069
-0.074,-0.141,-0.068,0.108,-0.003,-0.104,0.03,-0.097,-0.147,-0.124,-0.071,-0.07
-0.114,-0.185,-0.07,0.15,-0.022,-0.127,0.03,-0.104,-0.142,-0.123,-0.076,-0.066
-0.104,-0.174,-0.07,0.139,-0.017,-0.122,0.03,-0.11,-0.14,-0.119,-0.07,-0.06
-0.088,-0.158,-0.07,0.123,-0.009,-0.114,0.03,-0.1,-0.14,-0.121,-0.069,-0.056
-0.094,-0.163,-0.07,0.128,-0.012,-0.116,0.028,-0.088,-0.139,-0.112,-0.062,-0.051
-0.097,-0.167,-0.07,0.132,-0.013,-0.118,0.041,-0.075,-0.141,-0.103,-0.061,-0.047
-0.073,-0.137,-0.064,0.105,-0.004,-0.1,0.066,-0.047,-0.117,-0.089,-0.052,-0.041
-0.044,-0.102,-0.058,0.073,0.007,-0.08,0.083,-0.041,-0.093,-0.067,-0.034,-0.024
-0.051,-0.102,-0.051,0.077,0.0,-0.076,0.066,-0.036,-0.099,-0.058,-0.037,-0.024
-0.056,-0.1,-0.044,0.078,-0.006,-0.072,0.019,-0.056,-0.105,-0.068,-0.043,-0.029
-0.073,-0.111,-0.038,0.092,-0.017,-0.074,0.016,-0.089,-0.118,-0.094,-0.056,-0.035
-0.114,-0.15,-0.036,0.133,-0.039,-0.093,0.031,-0.1,-0.143,-0.114,-0.076,-0.056
-0.13,-0.176,-0.046,0.153,-0.042,-0.11,0.022,-0.114,-0.158,-0.122,-0.089,-0.064
-0.124,-0.156,-0.032,0.14,-0.046,-0.094,0.03,-0.104,-0.16,-0.126,-0.097,-0.067
-0.125,-0.16,-0.035,0.143,-0.044,-0.097,0.018,-0.108,-0.161,-0.128,-0.094,-0.063
-0.156,-0.178,-0.022,0.167,-0.067,-0.099,0.033,-0.091,-0.158,-0.131,-0.099,-0.067
-0.141,-0.163,-0.022,0.152,-0.059,-0.092,0.016,-0.103,-0.163,-0.135,-0.101,-0.064
-0.158,-0.174,-0.016,0.166,-0.071,-0.095,0.037,-0.079,-0.155,-0.135,-0.1,-0.074
-0.207,-0.217,-0.01,0.212,-0.098,-0.113,0.171,0.047,-0.157,-0.162,-0.14,-0.154
-0.103,-0.077,0.026,0.09,-0.064,-0.025,0.165,0.255,-0.069,-0.061,-0.033,-0.044
0.234,0.532,0.298,-0.383,-0.032,0.415,-0.215,0.06,0.432,0.563,0.573,0.522
0.588,0.962,0.374,-0.775,0.107,0.668,-0.715,-0.708,1.091,1.339,1.26,1.082
0.309,0.596,0.287,-0.453,0.01,0.442,-0.565,-1.021,0.811,1.113,0.945,0.73
-0.187,0.053,0.241,0.066,-0.214,0.147,-0.214,-0.815,-0.118,0.211,0.11,0.011
-0.205,-0.146,0.059,0.175,-0.132,-0.043,-0.135,-0.43,-0.3,-0.141,-0.11,-0.093
-0.153,-0.16,-0.006,0.156,-0.073,-0.083,0.004,-0.123,-0.159,-0.127,-0.085,-0.049
-0.157,-0.163,-0.006,0.16,-0.076,-0.084,0.053,-0.114,-0.194,-0.141,-0.103,-0.084
-0.14,-0.151,-0.011,0.145,-0.064,-0.081,0.048,-0.091,-0.167,-0.135,-0.085,-0.071
-0.136,-0.147,-0.011,0.142,-0.062,-0.079,0.053,-0.087,-0.176,-0.143,-0.094,-0.076
-0.116,-0.139,-0.023,0.128,-0.047,-0.081,0.042,-0.083,-0.165,-0.138,-0.087,-0.067
-0.115,-0.134,-0.018,0.124,-0.048,-0.075,0.048,-0.071,-0.162,-0.134,-0.087,-0.067
-0.138,-0.159,-0.021,0.148,-0.058,-0.089,0.042,-0.07,-0.155,-0.124,-0.079,-0.061
-0.138,-0.16,-0.022,0.149,-0.058,-0.09,0.039,-0.051,-0.137,-0.115,-0.076,-0.059
-0.113,-0.146,-0.033,0.13,-0.04,-0.09,0.032,-0.045,-0.127,-0.107,-0.072,-0.054
-0.112,-0.138,-0.027,0.125,-0.042,-0.082,0.027,-0.031,-0.111,-0.098,-0.066,-0.049
-0.113,-0.126,-0.012,0.12,-0.05,-0.069,0.022,-0.024,-0.107,-0.09,-0.063,-0.045
-0.098,-0.109,-0.011,0.103,-0.043,-0.06,0.014,-0.016,-0.096,-0.081,-0.052,-0.04
-0.072,-0.091,-0.019,0.082,-0.026,-0.055,0.024,-0.005,-0.077,-0.069,-0.043,-0.034
-0.084,-0.101,-0.016,0.093,-0.033,-0.058,0.028,0.01,-0.048,-0.055,-0.029,-0.022
-0.063,-0.072,-0.008,0.068,-0.027,-0.04,0.011,0.032,-0.007,-0.038,-0.004,-0.008
-0.021,-0.027,-0.006,0.024,-0.007,-0.016,-0.006,0.057,0.022,0.0,0.02,0.015
-0.007,-0.003,0.004,0.005,-0.006,0.0,-0.02,0.107,0.065,0.037,0.062,0.052
0.033,0.032,-0.001,-0.033,0.017,0.015,-0.047,0.168,0.133,0.087,0.115,0.093
0.104,0.091,-0.012,-0.097,0.058,0.039,-0.085,0.229,0.212,0.15,0.174,0.145
0.168,0.169,0.001,-0.168,0.083,0.085,-0.11,0.296,0.308,0.221,0.248,0.211
0.188,0.203,0.015,-0.196,0.086,0.109,-0.142,0.355,0.38,0.29,0.308,0.263
0.246,0.27,0.024,-0.258,0.111,0.147,-0.171,0.418,0.456,0.351,0.375,0.314
0.279,0.316,0.036,-0.298,0.121,0.176,-0.171,0.437,0.503,0.393,0.415,0.35
0.256,0.292,0.036,-0.274,0.11,0.164,-0.165,0.419,0.496,0.397,0.399,0.338
0.244,0.279,0.035,-0.262,0.104,0.157,-0.155,0.401,0.465,0.377,0.368,0.301
0.171,0.219,0.048,-0.195,0.061,0.134,-0.112,0.339,0.374,0.309,0.291,0.231
0.109,0.147,0.038,-0.128,0.035,0.092,-0.068,0.243,0.252,0.211,0.19,0.144
0.073,0.092,0.019,-0.083,0.027,0.056,-0.04,0.155,0.131,0.127,0.109,0.056
0.013,0.042,0.029,-0.028,-0.008,0.036,-0.006,0.08,0.043,0.049,0.044,0.009
-0.014,-0.007,0.007,0.01,-0.01,0.0,-0.002,0.023,-0.014,-0.003,-0.001,-0.02
-0.034,-0.055,-0.022,0.045,-0.006,-0.038,-0.02,-0.014,-0.071,-0.039,-0.048,-0.063
-0.035,-0.063,-0.028,0.049,-0.003,-0.045,-0.009,-0.035,-0.095,-0.063,-0.072,-0.071
-0.027,-0.067,-0.04,0.047,0.007,-0.053,0.004,-0.034,-0.1,-0.058,-0.071,-0.076
-0.039,-0.083,-0.044,0.061,0.003,-0.064,0.005,-0.036,-0.104,-0.067,-0.074,-0.08
-0.011,-0.079,-0.068,0.045,0.028,-0.073,0.0,-0.05,-0.105,-0.083,-0.085,-0.086
-0.003,-0.074,-0.071,0.039,0.034,-0.072,0.002,-0.047,-0.105,-0.076,-0.096,-0.097
-0.019,-0.079,-0.061,0.049,0.022,-0.07,0.01,-0.044,-0.104,-0.092,-0.096,-0.089
0.011,-0.054,-0.065,0.022,0.038,-0.059,0.006,-0.041,-0.106,-0.112,-0.093,-0.089
-0.019,-0.07,-0.051,0.045,0.017,-0.06,0.002,-0.036,-0.103,-0.109,-0.105,-0.083
-0.037,-0.098,-0.061,0.068,0.012,-0.08,-0.005,-0.034,-0.107,-0.113,-0.122,-0.08
-0.021,-0.078,-0.057,0.05,0.018,-0.067,-0.005,-0.028,-0.107,-0.116,-0.119,-0.089
-0.018,-0.078,-0.06,0.049,0.021,-0.069,-0.015,-0.041,-0.116,-0.114,-0.122,-0.09
-0.014,-0.081,-0.068,0.048,0.027,-0.074,-0.01,-0.034,-0.128,-0.119,-0.126,-0.09
-0.039,-0.079,-0.04,0.059,0.0,-0.059,-0.009,-0.042,-0.128,-0.126,-0.124,-0.086
-0.017,-0.081,-0.063,0.049,0.023,-0.072,-0.035,-0.083,-0.159,-0.129,-0.129,-0.085
-0.01,-0.081,-0.071,0.046,0.031,-0.075,-0.019,-0.086,-0.168,-0.125,-0.13,-0.085
-0.017,-0.074,-0.058,0.046,0.021,-0.066,-0.005,-0.084,-0.163,-0.125,-0.13,-0.081
-0.024,-0.084,-0.06,0.054,0.019,-0.072,-0.004,-0.086,-0.171,-0.126,-0.13,-0.078
-0.046,-0.096,-0.05,0.071,0.003,-0.073,0.006,-0.084,-0.17,-0.123,-0.13,-0.075
-0.037,-0.086,-0.05,0.061,0.007,-0.068,0.0,-0.087,-0.169,-0.138,-0.13,-0.073
-0.039,-0.083,-0.044,0.061,0.003,-0.064,-0.005,-0.09,-0.165,-0.152,-0.13,-0.069
-0.038,-0.081,-0.043,0.06,0.002,-0.062,-0.01,-0.09,-0.162,-0.149,-0.13,-0.074
-0.028,-0.067,-0.039,0.048,0.006,-0.053,-0.016,-0.09,-0.16,-0.15,-0.13,-0.085
-0.053,-0.089,-0.037,0.071,-0.008,-0.063,-0.021,-0.091,-0.156,-0.15,-0.13,-0.085
-0.09,-0.124,-0.034,0.108,-0.028,-0.079,-0.027,-0.089,-0.155,-0.15,-0.13,-0.085
-0.083,-0.118,-0.035,0.101,-0.024,-0.076,-0.03,-0.098,-0.159,-0.15,-0.133,-0.085
-0.067,-0.115,-0.049,0.091,-0.009,-0.081,-0.03,-0.102,-0.16,-0.15,-0.135,-0.085
-0.069,-0.116,-0.047,0.093,-0.01,-0.081,-0.03,-0.099,-0.161,-0.15,-0.135,-0.085
-0.069,-0.109,-0.041,0.089,-0.014,-0.075,-0.03,-0.1,-0.165,-0.15,-0.135,-0.085
-0.065,-0.103,-0.038,0.084,-0.013,-0.07,-0.03,-0.095,-0.167,-0.15,-0.135,-0.085
-0.063,-0.095,-0.032,0.079,-0.015,-0.063,-0.026,-0.095,-0.17,-0.151,-0.135,-0.085
-0.063,-0.092,-0.029,0.078,-0.017,-0.06,-0.025,-0.096,-0.174,-0.157,-0.135,-0.085
-0.07,-0.095,-0.025,0.083,-0.022,-0.06,-0.025,-0.105,-0.175,-0.164,-0.135,-0.087
-0.072,-0.095,-0.023,0.084,-0.024,-0.058,-0.02,-0.107,-0.172,-0.161,-0.135,-0.09
-0.078,-0.097,-0.02,0.087,-0.029,-0.058,-0.02,-0.102,-0.169,-0.16,-0.135,-0.09
-0.084,-0.101,-0.016,0.093,-0.034,-0.058,-0.019,-0.099,-0.166,-0.16,-0.147,-0.09
-0.085,-0.1,-0.015,0.093,-0.035,-0.057,-0.015,-0.096,-0.163,-0.155,-0.151,-0.09
-0.086,-0.097,-0.011,0.092,-0.037,-0.054,-0.015,-0.091,-0.16,-0.156,-0.15,-0.089
-0.084,-0.095,-0.01,0.089,-0.036,-0.052,-0.015,-0.088,-0.159,-0.154,-0.151,-0.094
-0.086,-0.095,-0.009,0.09,-0.038,-0.051,-0.015,-0.085,-0.153,-0.148,-0.15,-0.098
-0.073,-0.079,-0.007,0.076,-0.033,-0.043,-0.014,-0.082,-0.146,-0.142,-0.15,-0.092
-0.065,-0.068,-0.002,0.067,-0.031,-0.034,-0.025,-0.081,-0.139,-0.138,-0.145,-0.089
-0.034,-0.048,-0.014,0.041,-0.01,-0.03,-0.023,-0.068,-0.133,-0.131,-0.137,-0.083
0.013,-0.017,-0.031,0.002,0.022,-0.024,-0.003,-0.048,-0.113,-0.126,-0.133,-0.081
0.017,-0.01,-0.027,-0.003,0.022,-0.018,-0.012,-0.007,-0.068,-0.128,-0.129,-0.084
0.015,-0.008,-0.023,-0.003,0.019,-0.015,-0.038,-0.002,-0.076,-0.134,-0.13,-0.087
-0.004,-0.025,-0.02,0.014,0.008,-0.022,-0.054,-0.056,-0.114,-0.138,-0.13,-0.091
-0.029,-0.044,-0.015,0.037,-0.007,-0.029,-0.046,-0.074,-0.126,-0.139,-0.128,-0.093
-0.065,-0.077,-0.012,0.072,-0.026,-0.045,-0.045,-0.092,-0.152,-0.159,-0.153,-0.104
-0.091,-0.102,-0.011,0.096,-0.04,-0.056,-0.041,-0.096,-0.162,-0.172,-0.166,-0.11
-0.083,-0.091,-0.008,0.087,-0.037,-0.049,-0.034,-0.099,-0.156,-0.169,-0.166,-0.109
-0.074,-0.088,-0.014,0.081,-0.03,-0.051,-0.039,-0.09,-0.156,-0.168,-0.163,-0.102
-0.077,-0.081,-0.005,0.079,-0.036,-0.043,-0.027,-0.087,-0.15,-0.165,-0.168,-0.106
-0.058,-0.075,-0.017,0.067,-0.02,-0.046,-0.049,-0.087,-0.151,-0.164,-0.161,-0.093
-0.086,-0.094,-0.008,0.09,-0.038,-0.051,0.025,-0.022,-0.154,-0.178,-0.181,-0.124
-0.122,-0.144,-0.022,0.133,-0.05,-0.083,0.144,0.144,-0.166,-0.213,-0.247,-0.192
0.08,0.157,0.078,-0.119,0.001,0.117,0.039,0.308,0.034,0.009,-0.003,0.047
0.501,0.868,0.366,-0.685,0.067,0.617,-0.472,-0.286,0.648,0.772,0.743,0.729
0.681,1.114,0.433,-0.898,0.124,0.773,-0.836,-1.045,1.127,1.366,1.238,1.104
0.254,0.578,0.323,-0.416,-0.034,0.45,-0.533,-1.006,0.615,0.827,0.641,0.506
-0.069,0.091,0.159,-0.011,-0.114,0.125,-0.244,-0.63,-0.151,0.001,-0.083,-0.076
0.017,0.049,0.032,-0.033,-0.008,0.041,-0.112,-0.202,-0.158,-0.149,-0.143,-0.092
0.032,0.06,0.027,-0.046,0.002,0.043,0.002,-0.033,-0.072,-0.127,-0.137,-0.096
0.034,0.05,0.016,-0.042,0.008,0.033,0.009,-0.028,-0.106,-0.141,-0.143,-0.094
0.038,0.059,0.021,-0.049,0.008,0.04,0.029,0.007,-0.077,-0.13,-0.13,-0.087
0.031,0.05,0.02,-0.04,0.005,0.035,0.024,-0.003,-0.091,-0.139,-0.14,-0.093
0.037,0.056,0.019,-0.046,0.008,0.037,0.026,0.019,-0.076,-0.13,-0.129,-0.083
0.017,0.038,0.021,-0.027,-0.002,0.029,0.025,0.028,-0.078,-0.128,-0.129,-0.082
0.035,0.054,0.019,-0.044,0.008,0.036,0.028,0.04,-0.07,-0.118,-0.119,-0.07
0.066,0.086,0.021,-0.076,0.022,0.053,0.037,0.047,-0.063,-0.113,-0.117,-0.067
0.042,0.061,0.019,-0.051,0.011,0.04,0.028,0.046,-0.06,-0.106,-0.109,-0.058
0.04,0.06,0.02,-0.05,0.01,0.04,0.027,0.057,-0.052,-0.1,-0.105,-0.054
0.069,0.089,0.02,-0.079,0.025,0.054,0.021,0.073,-0.042,-0.093,-0.098,-0.045
0.067,0.089,0.022,-0.079,0.023,0.055,0.017,0.083,-0.025,-0.082,-0.087,-0.037
0.056,0.086,0.03,-0.071,0.013,0.057,0.012,0.099,-0.01,-0.07,-0.078,-0.028
0.054,0.088,0.034,-0.072,0.009,0.061,0.004,0.129,0.015,-0.046,-0.064,-0.018
0.082,0.119,0.037,-0.101,0.022,0.078,-0.002,0.159,0.049,-0.023,-0.038,-0.005
0.092,0.14,0.048,-0.116,0.021,0.094,-0.01,0.202,0.097,0.001,-0.011,0.023
0.113,0.161,0.048,-0.137,0.032,0.105,-0.025,0.262,0.156,0.04,0.024,0.05
0.151,0.209,0.058,-0.18,0.046,0.133,-0.055,0.326,0.223,0.097,0.081,0.098
0.189,0.258,0.069,-0.223,0.059,0.163,-0.08,0.402,0.312,0.169,0.15,0.159
0.253,0.335,0.082,-0.294,0.085,0.208,-0.113,0.471,0.397,0.239,0.221,0.219
0.282,0.396,0.114,-0.339,0.084,0.255,-0.146,0.512,0.469,0.302,0.28,0.274
0.327,0.452,0.125,-0.39,0.101,0.288,-0.16,0.554,0.537,0.364,0.332,0.313
0.366,0.489,0.124,-0.428,0.121,0.306,-0.171,0.562,0.563,0.39,0.365,0.338
0.357,0.477,0.119,-0.417,0.119,0.298,-0.161,0.535,0.566,0.392,0.353,0.336
0.314,0.427,0.113,-0.371,0.1,0.27,-0.125,0.487,0.516,0.364,0.305,0.29
0.235,0.345,0.11,-0.291,0.062,0.227,-0.087,0.389,0.405,0.275,0.223,0.204
0.158,0.262,0.105,-0.211,0.026,0.183,-0.058,0.28,0.286,0.172,0.123,0.115
0.094,0.195,0.101,-0.145,-0.004,0.148,-0.029,0.183,0.169,0.08,0.032,0.043
0.044,0.14,0.096,-0.092,-0.026,0.118,-0.011,0.114,0.085,0.003,-0.035,-0.014
0.011,0.1,0.089,-0.056,-0.039,0.094,-0.009,0.061,0.033,-0.048,-0.071,-0.054
0.0,0.083,0.082,-0.042,-0.041,0.083,-0.006,0.025,0.0,-0.072,-0.092,-0.068
-0.011,0.065,0.076,-0.027,-0.044,0.07,-0.003,0.022,-0.023,-0.089,-0.106,-0.075
-0.012,0.057,0.069,-0.023,-0.041,0.063,-0.001,0.016,-0.041,-0.101,-0.118,-0.084
-0.013,0.051,0.064,-0.02,-0.038,0.057,0.002,0.013,-0.042,-0.105,-0.121,-0.091
-0.015,0.044,0.058,-0.015,-0.037,0.051,0.025,0.007,-0.038,-0.105,-0.119,-0.094
-0.017,0.037,0.055,-0.01,-0.036,0.046,0.038,0.005,-0.036,-0.105,-0.12,-0.09
-0.018,0.032,0.05,-0.007,-0.034,0.041,0.034,0.014,-0.032,-0.105,-0.12,-0.09
-0.017,0.028,0.045,-0.006,-0.031,0.036,0.036,0.02,-0.03,-0.104,-0.12,-0.088
-0.012,0.036,0.048,-0.013,-0.03,0.042,0.034,0.028,-0.032,-0.106,-0.12,-0.084
-0.001,0.051,0.052,-0.025,-0.027,0.051,0.036,0.027,-0.036,-0.11,-0.12,-0.085
-0.01,0.045,0.055,-0.018,-0.033,0.049,0.033,0.021,-0.04,-0.11,-0.12,-0.088
-0.015,0.04,0.055,-0.013,-0.035,0.047,0.03,0.017,-0.045,-0.11,-0.12,-0.091
-0.018,0.036,0.055,-0.01,-0.037,0.045,0.028,0.012,-0.049,-0.11,-0.12,-0.09
-0.024,0.031,0.055,-0.004,-0.04,0.043,0.025,0.007,-0.049,-0.114,-0.121,-0.09
-0.027,0.028,0.055,-0.001,-0.041,0.041,0.022,0.003,-0.056,-0.122,-0.129,-0.091
-0.028,0.024,0.052,0.002,-0.04,0.038,0.019,-0.004,-0.068,-0.125,-0.13,-0.089
-0.02,0.026,0.046,-0.003,-0.033,0.036,0.024,-0.011,-0.074,-0.129,-0.13,-0.085
-0.021,0.021,0.042,0.0,-0.031,0.031,0.025,-0.018,-0.081,-0.136,-0.13,-0.085
-0.018,0.02,0.037,-0.001,-0.028,0.028,0.025,-0.026,-0.087,-0.141,-0.13,-0.085
-0.012,0.021,0.032,-0.005,-0.022,0.026,0.025,-0.032,-0.09,-0.145,-0.13,-0.085
-0.006,0.023,0.03,-0.009,-0.018,0.026,0.025,-0.04,-0.09,-0.145,-0.13,-0.085
0.002,0.032,0.03,-0.017,-0.014,0.031,0.024,-0.045,-0.092,-0.145,-0.13,-0.089
-0.015,0.018,0.033,-0.002,-0.025,0.026,0.019,-0.045,-0.096,-0.145,-0.13,-0.09
-0.032,0.004,0.035,0.013,-0.034,0.02,0.016,-0.045,-0.094,-0.145,-0.13,-0.09
-0.032,0.002,0.035,0.014,-0.034,0.018,0.012,-0.045,-0.099,-0.149,-0.13,-0.094
-0.037,-0.002,0.035,0.019,-0.036,0.016,0.009,-0.044,-0.1,-0.15,-0.128,-0.096
-0.04,-0.005,0.035,0.022,-0.037,0.015,0.004,-0.049,-0.1,-0.15,-0.125,-0.093
-0.044,-0.01,0.034,0.027,-0.039,0.012,0.012,-0.05,-0.104,-0.154,-0.125,-0.09
-0.043,-0.012,0.031,0.027,-0.037,0.009,0.023,-0.052,-0.105,-0.156,-0.125,-0.09
-0.044,-0.016,0.028,0.03,-0.036,0.005,0.018,-0.063,-0.104,-0.153,-0.125,-0.088
-0.039,-0.013,0.026,0.025,-0.032,0.006,0.012,-0.066,-0.1,-0.15,-0.125,-0.084
-0.017,0.005,0.022,0.006,-0.02,0.013,0.008,-0.069,-0.1,-0.15,-0.125,-0.085
-0.021,0.0,0.02,0.011,-0.021,0.01,0.001,-0.071,-0.1,-0.147,-0.125,-0.088
-0.037,-0.02,0.017,0.028,-0.027,-0.001,-0.004,-0.069,-0.1,-0.145,-0.125,-0.096
-0.02,-0.005,0.015,0.012,-0.018,0.005,-0.002,-0.07,-0.1,-0.145,-0.125,-0.1
-0.018,-0.003,0.015,0.01,-0.016,0.006,0.004,-0.07,-0.096,-0.149,-0.125,-0.1
-0.043,-0.031,0.012,0.037,-0.027,-0.009,0.008,-0.07,-0.095,-0.15,-0.124,-0.1
-0.038,-0.029,0.009,0.033,-0.023,-0.01,0.013,-0.071,-0.095,-0.15,-0.12,-0.1
-0.036,-0.025,0.011,0.031,-0.023,-0.006,0.018,-0.065,-0.091,-0.155,-0.121,-0.1
-0.046,-0.022,0.024,0.034,-0.035,0.001,0.019,-0.065,-0.09,-0.155,-0.118,-0.101
-0.043,-0.017,0.026,0.029,-0.034,0.004,0.015,-0.064,-0.089,-0.154,-0.114,-0.095
-0.039,-0.015,0.024,0.027,-0.031,0.004,0.009,-0.066,-0.082,-0.145,-0.115,-0.087
-0.011,0.009,0.019,0.001,-0.015,0.013,0.022,-0.062,-0.077,-0.139,-0.109,-0.079
0.02,0.041,0.021,-0.03,-0.001,0.031,0.051,-0.036,-0.063,-0.123,-0.095,-0.071
0.036,0.07,0.034,-0.053,0.001,0.052,0.068,0.001,-0.038,-0.099,-0.087,-0.065
0.035,0.067,0.032,-0.051,0.002,0.049,0.051,0.033,-0.016,-0.102,-0.09,-0.064
0.03,0.054,0.024,-0.042,0.003,0.039,0.009,-0.004,-0.021,-0.109,-0.097,-0.066
0.027,0.044,0.017,-0.036,0.005,0.03,0.002,-0.043,-0.054,-0.116,-0.097,-0.062
-0.008,0.004,0.012,0.001,-0.01,0.008,0.013,-0.056,-0.077,-0.133,-0.11,-0.081
-0.028,-0.025,0.003,0.027,-0.015,-0.011,0.007,-0.083,-0.092,-0.145,-0.125,-0.099
-0.034,-0.021,0.013,0.027,-0.023,-0.004,0.022,-0.079,-0.095,-0.153,-0.125,-0.11
-0.031,-0.017,0.014,0.024,-0.022,-0.001,0.014,-0.088,-0.096,-0.151,-0.125,-0.121
-0.035,-0.013,0.022,0.024,-0.028,0.004,0.028,-0.072,-0.094,-0.148,-0.124,-0.119
-0.034,-0.006,0.028,0.02,-0.031,0.01,0.023,-0.088,-0.096,-0.148,-0.126,-0.121
-0.039,-0.01,0.029,0.024,-0.034,0.01,0.022,-0.071,-0.095,-0.139,-0.123,-0.117
-0.112,-0.069,0.043,0.09,-0.077,-0.013,0.132,0.034,-0.085,-0.183,-0.163,-0.163
-0.048,-0.024,0.024,0.036,-0.036,-0.001,0.163,0.258,-0.047,-0.147,-0.131,-0.134
0.265,0.513,0.249,-0.389,0.008,0.381,-0.107,0.186,0.329,0.337,0.337,0.311
0.646,1.093,0.447,-0.869,0.099,0.77,-0.654,-0.616,1.034,1.166,1.114,0.988
0.514,0.89,0.375,-0.702,0.069,0.632,-0.675,-1.074,1.065,1.249,1.098,0.875
-0.007,0.282,0.289,-0.137,-0.149,0.285,-0.293,-0.874,0.189,0.376,0.24,0.119
-0.106,0.016,0.122,0.045,-0.114,0.068,-0.158,-0.478,-0.223,-0.134,-0.138,-0.137
-0.063,-0.012,0.051,0.037,-0.057,0.019,-0.026,-0.113,-0.081,-0.133,-0.1,-0.103
-0.098,-0.035,0.063,0.066,-0.08,0.014,0.018,-0.069,-0.092,-0.145,-0.124,-0.123
-0.072,-0.028,0.044,0.05,-0.058,0.008,0.019,-0.053,-0.084,-0.135,-0.109,-0.105
-0.077,-0.031,0.046,0.054,-0.061,0.008,0.046,-0.036,-0.079,-0.136,-0.118,-0.114
-0.064,-0.031,0.033,0.047,-0.049,0.001,0.047,-0.036,-0.08,-0.135,-0.114,-0.107
-0.069,-0.029,0.04,0.049,-0.054,0.005,0.054,-0.02,-0.07,-0.131,-0.108,-0.105
-0.068,-0.028,0.04,0.048,-0.053,0.006,0.047,-0.022,-0.067,-0.127,-0.1,-0.099
-0.063,-0.023,0.04,0.043,-0.051,0.008,0.052,-0.007,-0.047,-0.122,-0.089,-0.094
-0.071,-0.026,0.045,0.048,-0.058,0.01,0.049,-0.003,-0.042,-0.119,-0.083,-0.091
-0.053,-0.009,0.045,0.031,-0.049,0.017,0.051,0.009,-0.028,-0.11,-0.073,-0.085
-0.042,0.002,0.044,0.02,-0.043,0.023,0.046,0.015,-0.021,-0.102,-0.067,-0.081
-0.017,0.022,0.039,-0.003,-0.028,0.031,0.04,0.03,-0.009,-0.093,-0.057,-0.07
0.011,0.051,0.04,-0.031,-0.014,0.045,0.035,0.042,0.006,-0.082,-0.052,-0.063
0.003,0.039,0.036,-0.021,-0.017,0.037,0.028,0.06,0.026,-0.061,-0.038,-0.053
0.034,0.068,0.033,-0.051,0.0,0.05,0.024,0.084,0.051,-0.035,-0.027,-0.039
0.055,0.107,0.052,-0.081,0.001,0.08,0.012,0.114,0.083,-0.007,-0.004,-0.017
0.043,0.104,0.061,-0.074,-0.009,0.082,-0.002,0.162,0.128,0.02,0.032,0.013
0.071,0.134,0.063,-0.103,0.004,0.098,-0.023,0.217,0.19,0.069,0.083,0.057
0.114,0.18,0.066,-0.147,0.024,0.122,-0.045,0.288,0.278,0.139,0.16,0.105
0.18,0.249,0.069,-0.214,0.055,0.159,-0.071,0.363,0.368,0.216,0.232,0.16
0.231,0.302,0.071,-0.266,0.08,0.186,-0.109,0.415,0.444,0.289,0.298,0.227
0.279,0.347,0.068,-0.313,0.105,0.207,-0.135,0.459,0.517,0.347,0.367,0.279
0.315,0.397,0.082,-0.356,0.116,0.239,-0.137,0.484,0.577,0.4,0.411,0.315
0.319,0.406,0.088,-0.363,0.115,0.247,-0.128,0.469,0.6,0.422,0.418,0.319
0.291,0.391,0.1,-0.341,0.095,0.245,-0.124,0.458,0.574,0.413,0.404,0.301
0.224,0.333,0.109,-0.278,0.057,0.221,-0.101,0.394,0.494,0.35,0.331,0.236
0.187,0.285,0.098,-0.236,0.044,0.191,-0.055,0.296,0.384,0.263,0.241,0.147
0.118,0.211,0.093,-0.165,0.012,0.152,-0.014,0.204,0.262,0.165,0.15,0.077
0.038,0.122,0.084,-0.08,-0.023,0.103,0.011,0.108,0.154,0.068,0.059,0.009
0.02,0.097,0.077,-0.059,-0.029,0.087,0.017,0.051,0.069,0.011,0.008,-0.037
-0.004,0.068,0.072,-0.032,-0.038,0.069,0.027,0.01,0.016,-0.03,-0.024,-0.077
-0.015,0.054,0.069,-0.02,-0.042,0.061,0.035,0.0,0.004,-0.04,-0.037,-0.095
-0.014,0.053,0.066,-0.02,-0.04,0.059,0.035,-0.005,-0.01,-0.054,-0.056,-0.097
-0.016,0.047,0.063,-0.016,-0.039,0.055,0.035,-0.013,-0.023,-0.065,-0.068,-0.107
-0.015,0.045,0.06,-0.015,-0.038,0.052,0.035,-0.018,-0.034,-0.059,-0.069,-0.117
-0.021,0.04,0.061,-0.01,-0.041,0.05,0.034,-0.025,-0.045,-0.061,-0.071,-0.125
-0.028,0.038,0.065,-0.006,-0.047,0.051,0.037,-0.02,-0.045,-0.058,-0.072,-0.125
-0.034,0.034,0.068,0.0,-0.051,0.051,0.042,-0.015,-0.046,-0.069,-0.076,-0.125
-0.036,0.035,0.072,0.0,-0.055,0.053,0.04,-0.01,-0.05,-0.082,-0.074,-0.125
-0.044,0.031,0.075,0.006,-0.06,0.053,0.04,-0.007,-0.05,-0.079,-0.079,-0.124
-0.042,0.03,0.072,0.006,-0.057,0.05,0.038,-0.001,-0.051,-0.083,-0.081,-0.128
-0.037,0.03,0.067,0.003,-0.052,0.048,0.034,-0.002,-0.056,-0.086,-0.08,-0.13
-0.04,0.024,0.064,0.008,-0.053,0.044,0.036,-0.012,-0.059,-0.084,-0.081,-0.13
-0.043,0.018,0.06,0.013,-0.052,0.039,0.034,-0.018,-0.067,-0.093,-0.079,-0.13
-0.046,0.01,0.057,0.017,-0.052,0.033,0.036,-0.042,-0.081,-0.104,-0.082,-0.13
-0.048,0.004,0.053,0.022,-0.051,0.029,0.035,-0.053,-0.09,-0.106,-0.085,-0.13
-0.054,-0.003,0.051,0.029,-0.052,0.023,0.035,-0.048,-0.098,-0.11,-0.088,-0.13
-0.05,-0.003,0.047,0.026,-0.048,0.022,0.035,-0.052,-0.104,-0.115,-0.09,-0.13
-0.045,0.0,0.045,0.022,-0.045,0.022,0.034,-0.041,-0.109,-0.118,-0.093,-0.13
-0.041,0.0,0.041,0.021,-0.041,0.02,0.054,-0.044,-0.112,-0.121,-0.096,-0.13
-0.036,0.003,0.039,0.016,-0.038,0.021,0.06,-0.074,-0.115,-0.124,-0.091,-0.13
-0.046,0.006,0.052,0.02,-0.05,0.029,0.051,-0.081,-0.12,-0.127,-0.088,-0.13
-0.05,0.004,0.054,0.023,-0.052,0.029,0.049,-0.079,-0.123,-0.129,-0.084,-0.13
-0.051,-0.005,0.046,0.028,-0.049,0.02,0.043,-0.084,-0.127,-0.133,-0.081,-0.13
-0.064,-0.019,0.044,0.041,-0.054,0.012,0.04,-0.085,-0.13,-0.135,-0.075,-0.13
-0.061,-0.022,0.038,0.041,-0.049,0.008,0.036,-0.085,-0.13,-0.139,-0.078,-0.13
-0.051,-0.016,0.035,0.033,-0.042,0.009,0.033,-0.08,-0.129,-0.14,-0.09,-0.13
-0.056,-0.01,0.046,0.032,-0.051,0.018,0.03,-0.08,-0.132,-0.143,-0.094,-0.13
-0.057,-0.002,0.055,0.029,-0.056,0.027,0.027,-0.078,-0.143,-0.145,-0.099,-0.129
-0.052,0.003,0.055,0.024,-0.054,0.029,0.025,-0.075,-0.152,-0.145,-0.098,-0.136
-0.043,0.012,0.055,0.015,-0.049,0.033,0.025,-0.074,-0.155,-0.145,-0.094,-0.14
-0.061,-0.006,0.055,0.033,-0.058,0.024,0.043,-0.085,-0.155,-0.145,-0.092,-0.133
-0.082,-0.027,0.055,0.054,-0.068,0.013,0.05,-0.097,-0.154,-0.145,-0.089,-0.13
-0.06,-0.005,0.055,0.032,-0.057,0.025,0.041,-0.094,-0.155,-0.145,-0.085,-0.125
-0.061,-0.006,0.055,0.033,-0.058,0.024,0.04,-0.096,-0.155,-0.145,-0.085,-0.12
-0.071,-0.016,0.055,0.043,-0.063,0.02,0.033,-0.095,-0.152,-0.145,-0.095,-0.124
-0.07,-0.01,0.059,0.04,-0.064,0.024,0.031,-0.095,-0.149,-0.145,-0.097,-0.128
-0.066,-0.006,0.06,0.036,-0.062,0.027,0.045,-0.091,-0.147,-0.146,-0.089,-0.133
-0.056,0.005,0.061,0.026,-0.059,0.033,0.053,-0.083,-0.143,-0.14,-0.086,-0.134
-0.06,0.005,0.065,0.027,-0.063,0.035,0.044,-0.079,-0.14,-0.132,-0.081,-0.128
-0.039,0.026,0.065,0.006,-0.053,0.045,0.046,-0.069,-0.139,-0.124,-0.075,-0.122
-0.013,0.049,0.063,-0.018,-0.038,0.056,0.067,-0.065,-0.123,-0.116,-0.083,-0.116
0.015,0.071,0.056,-0.043,-0.021,0.063,0.08,-0.02,-0.112,-0.108,-0.061,-0.118
0.045,0.094,0.048,-0.07,-0.002,0.071,0.081,0.01,-0.116,-0.105,-0.043,-0.12
0.028,0.072,0.044,-0.05,-0.008,0.058,0.054,-0.042,-0.119,-0.104,-0.051,-0.12
0.007,0.041,0.034,-0.025,-0.013,0.037,0.039,-0.084,-0.121,-0.117,-0.06,-0.119
-0.012,0.019,0.032,-0.004,-0.022,0.025,0.05,-0.107,-0.135,-0.147,-0.088,-0.122
-0.038,0.004,0.042,0.017,-0.04,0.023,0.04,-0.116,-0.152,-0.158,-0.1,-0.124
-0.056,-0.003,0.053,0.029,-0.054,0.025,0.051,-0.102,-0.153,-0.164,-0.102,-0.126
-0.052,-0.013,0.038,0.032,-0.045,0.012,0.038,-0.115,-0.157,-0.162,-0.1,-0.125
-0.062,-0.021,0.041,0.041,-0.051,0.01,0.046,-0.095,-0.152,-0.158,-0.099,-0.127
-0.067,-0.034,0.033,0.05,-0.05,0.0,0.026,-0.114,-0.158,-0.162,-0.101,-0.136
-0.057,-0.03,0.026,0.043,-0.041,-0.002,0.037,-0.094,-0.153,-0.157,-0.099,-0.129
-0.118,-0.069,0.048,0.093,-0.083,-0.01,0.16,0.017,-0.146,-0.192,-0.142,-0.2
-0.058,-0.023,0.035,0.04,-0.046,0.006,0.197,0.211,-0.099,-0.146,-0.095,-0.16
0.253,0.522,0.269,-0.388,-0.008,0.395,-0.074,0.186,0.308,0.362,0.392,0.322
0.63,1.077,0.447,-0.853,0.091,0.762,-0.633,-0.521,1.002,1.201,1.154,0.957
0.483,0.856,0.373,-0.669,0.054,0.614,-0.634,-0.978,0.97,1.23,1.072,0.803
-0.031,0.28,0.31,-0.125,-0.171,0.295,-0.26,-0.839,0.063,0.345,0.223,0.077
-0.119,0.004,0.123,0.057,-0.121,0.063,-0.128,-0.496,-0.299,-0.145,-0.118,-0.145
-0.066,-0.023,0.044,0.044,-0.055,0.01,-0.005,-0.139,-0.138,-0.159,-0.094,-0.113
-0.077,-0.018,0.06,0.047,-0.069,0.021,0.045,-0.091,-0.155,-0.17,-0.111,-0.134
-0.064,-0.025,0.04,0.044,-0.052,0.007,0.071,-0.07,-0.136,-0.162,-0.094,-0.114
-0.082,-0.036,0.046,0.059,-0.064,0.004,0.079,-0.05,-0.132,-0.167,-0.1,-0.125
-0.065,-0.032,0.033,0.048,-0.049,0.0,0.071,-0.048,-0.128,-0.165,-0.093,-0.116
-0.063,-0.028,0.035,0.045,-0.049,0.003,0.079,-0.029,-0.116,-0.161,-0.092,-0.116
-0.051,-0.025,0.026,0.038,-0.038,0.0,0.072,-0.035,-0.116,-0.153,-0.084,-0.112
-0.046,-0.02,0.026,0.033,-0.036,0.002,0.076,-0.023,-0.102,-0.145,-0.077,-0.107
-0.048,-0.017,0.031,0.033,-0.039,0.007,0.069,-0.023,-0.097,-0.139,-0.072,-0.106
-0.036,-0.004,0.032,0.019,-0.034,0.014,0.068,-0.005,-0.083,-0.127,-0.063,-0.099
-0.031,0.007,0.038,0.012,-0.035,0.022,0.065,0.006,-0.076,-0.116,-0.06,-0.091
-0.017,0.022,0.039,-0.002,-0.028,0.03,0.061,0.02,-0.063,-0.105,-0.051,-0.079
-0.01,0.034,0.045,-0.013,-0.028,0.039,0.06,0.032,-0.049,-0.094,-0.048,-0.064
0.005,0.049,0.045,-0.028,-0.02,0.047,0.054,0.042,-0.016,-0.064,-0.033,-0.046
0.019,0.064,0.045,-0.042,-0.013,0.054,0.041,0.066,0.022,-0.037,-0.002,-0.034
0.04,0.085,0.045,-0.063,-0.002,0.064,0.03,0.089,0.043,-0.017,0.023,-0.018
0.083,0.128,0.045,-0.106,0.019,0.086,0.013,0.131,0.087,0.015,0.048,0.005
0.092,0.158,0.067,-0.125,0.012,0.112,-0.011,0.188,0.154,0.061,0.096,0.045
0.128,0.205,0.077,-0.167,0.026,0.14,-0.032,0.254,0.234,0.126,0.165,0.108
0.188,0.265,0.077,-0.227,0.055,0.171,-0.058,0.323,0.321,0.201,0.233,0.165
0.241,0.322,0.081,-0.281,0.079,0.202,-0.091,0.37,0.401,0.27,0.303,0.228
0.304,0.391,0.086,-0.348,0.109,0.238,-0.111,0.417,0.474,0.337,0.367,0.282
0.329,0.427,0.098,-0.378,0.115,0.262,-0.125,0.434,0.523,0.385,0.403,0.313
0.327,0.429,0.101,-0.378,0.113,0.265,-0.129,0.414,0.532,0.396,0.412,0.321
0.309,0.414,0.105,-0.362,0.102,0.259,-0.108,0.407,0.514,0.383,0.392,0.288
0.26,0.376,0.116,-0.318,0.072,0.246,-0.07,0.349,0.444,0.325,0.321,0.227
0.182,0.296,0.114,-0.239,0.034,0.205,-0.032,0.252,0.327,0.23,0.215,0.146
0.116,0.222,0.105,-0.169,0.005,0.163,-0.001,0.166,0.204,0.131,0.124,0.064
0.075,0.174,0.099,-0.124,-0.013,0.136,0.031,0.086,0.098,0.048,0.057,0.002
0.024,0.117,0.093,-0.07,-0.034,0.104,0.045,0.032,0.033,-0.004,0.001,-0.041
0.001,0.089,0.088,-0.045,-0.044,0.089,0.046,-0.012,-0.011,-0.042,-0.024,-0.064
-0.006,0.079,0.085,-0.037,-0.046,0.082,0.05,-0.03,-0.034,-0.066,-0.041,-0.08
-0.014,0.067,0.082,-0.026,-0.048,0.074,0.053,-0.033,-0.051,-0.08,-0.065,-0.094
-0.014,0.063,0.077,-0.024,-0.046,0.07,0.055,-0.049,-0.061,-0.085,-0.072,-0.095
-0.017,0.057,0.074,-0.021,-0.046,0.065,0.056,-0.047,-0.059,-0.087,-0.082,-0.096
-0.017,0.054,0.07,-0.019,-0.044,0.062,0.06,-0.041,-0.061,-0.09,-0.087,-0.108
-0.021,0.049,0.07,-0.014,-0.046,0.059,0.06,-0.038,-0.06,-0.093,-0.084,-0.11
-0.024,0.044,0.069,-0.01,-0.047,0.056,0.055,-0.031,-0.06,-0.095,-0.086,-0.11
-0.024,0.041,0.065,-0.009,-0.044,0.052,0.055,-0.032,-0.06,-0.095,-0.084,-0.11
-0.026,0.039,0.065,-0.007,-0.045,0.052,0.055,-0.035,-0.064,-0.1,-0.087,-0.11
-0.022,0.04,0.063,-0.009,-0.043,0.051,0.055,-0.035,-0.069,-0.1,-0.09,-0.11
-0.019,0.039,0.058,-0.01,-0.038,0.048,0.056,-0.035,-0.073,-0.101,-0.09,-0.11
-0.014,0.041,0.055,-0.014,-0.035,0.048,0.052,-0.035,-0.076,-0.108,-0.093,-0.11
-0.015,0.037,0.051,-0.011,-0.033,0.044,0.05,-0.035,-0.086,-0.114,-0.095,-0.11
-0.018,0.03,0.047,-0.006,-0.033,0.038,0.05,-0.038,-0.09,-0.119,-0.095,-0.11
-0.022,0.022,0.044,0.0,-0.034,0.033,0.046,-0.043,-0.092,-0.12,-0.099,-0.11
-0.025,0.016,0.041,0.004,-0.033,0.028,0.045,-0.046,-0.103,-0.123,-0.101,-0.106
-0.032,0.006,0.039,0.013,-0.036,0.022,0.045,-0.055,-0.106,-0.125,-0.099,-0.105
-0.032,0.003,0.035,0.014,-0.034,0.018,0.045,-0.061,-0.109,-0.126,-0.102,-0.104
-0.007,0.026,0.033,-0.01,-0.02,0.029,0.045,-0.06,-0.112,-0.132,-0.105,-0.101
0.001,0.03,0.029,-0.015,-0.014,0.029,0.045,-0.06,-0.115,-0.13,-0.105,-0.099
-0.009,0.021,0.03,-0.006,-0.02,0.025,0.045,-0.06,-0.115,-0.13,-0.105,-0.103
-0.024,0.02,0.044,0.002,-0.034,0.032,0.045,-0.06,-0.117,-0.13,-0.105,-0.115
-0.031,0.013,0.043,0.009,-0.037,0.028,0.042,-0.061,-0.121,-0.13,-0.105,-0.115
-0.029,0.01,0.039,0.009,-0.034,0.024,0.04,-0.065,-0.12,-0.13,-0.105,-0.114
-0.031,0.005,0.036,0.012,-0.034,0.021,0.04,-0.065,-0.12,-0.134,-0.105,-0.116
-0.027,0.005,0.031,0.011,-0.029,0.018,0.036,-0.065,-0.12,-0.135,-0.105,-0.114
-0.026,0.003,0.029,0.012,-0.027,0.015,0.035,-0.065,-0.12,-0.135,-0.105,-0.118
-0.028,-0.003,0.025,0.015,-0.026,0.01,0.035,-0.065,-0.12,-0.14,-0.105,-0.12
-0.011,0.014,0.025,-0.002,-0.018,0.019,0.031,-0.065,-0.119,-0.14,-0.106,-0.12
0.002,0.027,0.025,-0.015,-0.012,0.026,0.028,-0.065,-0.121,-0.14,-0.11,-0.12
0.0,0.025,0.025,-0.013,-0.013,0.025,0.025,-0.065,-0.125,-0.14,-0.113,-0.12
-0.002,0.023,0.025,-0.011,-0.014,0.024,0.022,-0.064,-0.125,-0.14,-0.116,-0.12
-0.003,0.019,0.022,-0.008,-0.012,0.02,0.02,-0.066,-0.127,-0.14,-0.119,-0.119
0.004,0.021,0.017,-0.012,-0.007,0.019,0.019,-0.07,-0.131,-0.14,-0.12,-0.123
0.001,0.016,0.015,-0.009,-0.007,0.015,0.021,-0.07,-0.13,-0.14,-0.12,-0.126
-0.001,0.009,0.01,-0.004,-0.005,0.009,0.019,-0.073,-0.127,-0.137,-0.12,-0.122
-0.006,0.002,0.007,0.002,-0.007,0.004,0.021,-0.075,-0.121,-0.135,-0.12,-0.12
-0.004,-0.003,0.001,0.004,-0.002,-0.001,0.019,-0.076,-0.117,-0.135,-0.12,-0.117
-0.001,-0.012,-0.011,0.007,0.005,-0.011,0.022,-0.067,-0.112,-0.13,-0.12,-0.115
-0.005,-0.012,-0.007,0.009,0.002,-0.01,0.047,-0.054,-0.107,-0.13,-0.115,-0.111
0.011,0.007,-0.004,-0.008,0.008,0.001,0.053,-0.039,-0.104,-0.129,-0.106,-0.102
0.027,0.027,-0.001,-0.027,0.013,0.013,0.058,-0.025,-0.087,-0.113,-0.097,-0.095
0.054,0.057,0.004,-0.056,0.025,0.03,0.058,0.004,-0.078,-0.107,-0.091,-0.092
0.054,0.06,0.006,-0.057,0.024,0.033,0.046,0.042,-0.081,-0.111,-0.095,-0.094
0.026,0.039,0.013,-0.033,0.007,0.026,0.027,0.017,-0.08,-0.109,-0.1,-0.097
0.009,0.026,0.017,-0.018,-0.004,0.021,0.01,-0.026,-0.08,-0.111,-0.102,-0.091
-0.024,0.0,0.024,0.012,-0.024,0.012,0.011,-0.063,-0.102,-0.127,-0.123,-0.111
-0.05,-0.024,0.026,0.037,-0.038,0.001,0.007,-0.081,-0.122,-0.144,-0.133,-0.129
-0.068,-0.031,0.037,0.049,-0.053,0.003,0.014,-0.073,-0.118,-0.152,-0.142,-0.131
-0.059,-0.031,0.028,0.045,-0.044,-0.002,0.004,-0.078,-0.122,-0.149,-0.146,-0.131
-0.059,-0.026,0.033,0.042,-0.046,0.004,0.018,-0.063,-0.117,-0.15,-0.148,-0.135
-0.054,-0.027,0.027,0.041,-0.04,-0.001,0.001,-0.075,-0.122,-0.151,-0.156,-0.14
-0.055,-0.024,0.031,0.04,-0.043,0.003,0.029,-0.05,-0.119,-0.144,-0.15,-0.136
-0.12,-0.088,0.032,0.104,-0.076,-0.028,0.159,0.077,-0.146,-0.201,-0.214,-0.214
-0.016,0.009,0.025,0.003,-0.02,0.017,0.169,0.297,-0.082,-0.127,-0.146,-0.14
0.344,0.617,0.273,-0.481,0.035,0.445,-0.204,0.007,0.389,0.449,0.424,0.405
0.688,1.136,0.449,-0.912,0.119,0.792,-0.748,-0.872,1.042,1.254,1.161,1.033
0.453,0.829,0.375,-0.641,0.039,0.602,-0.653,-1.13,0.95,1.159,0.975,0.786
-0.048,0.182,0.23,-0.067,-0.139,0.206,-0.276,-0.788,0.089,0.242,0.112,0.032
-0.096,-0.031,0.064,0.063,-0.08,0.016,-0.124,-0.363,-0.222,-0.16,-0.173,-0.148
-0.061,-0.028,0.033,0.044,-0.047,0.002,-0.006,-0.08,-0.084,-0.133,-0.136,-0.111
-0.069,-0.048,0.021,0.058,-0.045,-0.013,0.029,-0.064,-0.123,-0.153,-0.16,-0.138
-0.042,-0.035,0.007,0.038,-0.024,-0.014,0.048,-0.037,-0.103,-0.14,-0.143,-0.124
-0.051,-0.043,0.008,0.047,-0.029,-0.017,0.05,-0.03,-0.106,-0.148,-0.155,-0.133
-0.036,-0.038,-0.002,0.037,-0.017,-0.02,0.049,-0.022,-0.107,-0.144,-0.147,-0.122
-0.035,-0.037,-0.001,0.036,-0.016,-0.019,0.052,-0.01,-0.1,-0.14,-0.152,-0.124
-0.023,-0.033,-0.011,0.028,-0.006,-0.022,0.048,-0.009,-0.097,-0.134,-0.161,-0.12
-0.023,-0.03,-0.007,0.027,-0.008,-0.018,0.052,0.003,-0.083,-0.128,-0.152,-0.117
-0.026,-0.027,-0.001,0.027,-0.012,-0.014,0.049,0.006,-0.08,-0.123,-0.14,-0.11
-0.02,-0.014,0.006,0.017,-0.013,-0.004,0.05,0.014,-0.069,-0.117,-0.13,-0.1
-0.015,-0.002,0.013,0.008,-0.014,0.005,0.043,0.026,-0.06,-0.11,-0.12,-0.094
-0.013,0.007,0.019,0.003,-0.016,0.013,0.042,0.053,-0.038,-0.086,-0.11,-0.085
-0.004,0.021,0.025,-0.009,-0.015,0.023,0.037,0.066,-0.018,-0.075,-0.097,-0.075
0.017,0.042,0.025,-0.03,-0.004,0.033,0.033,0.078,0.01,-0.063,-0.08,-0.059
0.028,0.053,0.025,-0.041,0.001,0.039,0.03,0.11,0.038,-0.043,-0.063,-0.045
0.044,0.069,0.025,-0.057,0.009,0.047,0.024,0.148,0.072,-0.01,-0.033,-0.022
0.06,0.085,0.025,-0.073,0.017,0.054,0.01,0.199,0.125,0.029,0.013,0.003
0.096,0.12,0.024,-0.108,0.035,0.072,-0.023,0.27,0.187,0.074,0.057,0.039
0.157,0.184,0.027,-0.171,0.065,0.106,-0.041,0.343,0.27,0.142,0.118,0.094
0.21,0.247,0.038,-0.229,0.086,0.142,-0.066,0.418,0.366,0.225,0.199,0.167
0.257,0.311,0.054,-0.284,0.101,0.182,-0.086,0.482,0.447,0.3,0.27,0.23
0.305,0.366,0.061,-0.336,0.122,0.214,-0.111,0.521,0.523,0.362,0.332,0.279
0.342,0.401,0.06,-0.371,0.141,0.23,-0.139,0.547,0.566,0.407,0.372,0.318
0.358,0.415,0.057,-0.387,0.151,0.235,-0.123,0.532,0.574,0.419,0.374,0.318
0.317,0.372,0.055,-0.345,0.131,0.213,-0.108,0.476,0.546,0.394,0.345,0.286
0.246,0.301,0.055,-0.274,0.095,0.178,-0.066,0.404,0.463,0.326,0.276,0.215
0.178,0.224,0.046,-0.201,0.066,0.135,-0.021,0.299,0.346,0.237,0.183,0.131
0.113,0.147,0.034,-0.131,0.039,0.09,0.008,0.19,0.22,0.138,0.088,0.061
0.067,0.09,0.023,-0.079,0.022,0.056,0.035,0.114,0.122,0.052,0.007,-0.006
0.017,0.029,0.013,-0.023,0.002,0.021,0.038,0.054,0.051,0.0,-0.037,-0.047
-0.01,-0.001,0.009,0.005,-0.009,0.004,0.046,0.008,0.0,-0.037,-0.066,-0.069
-0.02,-0.015,0.005,0.017,-0.012,-0.005,0.052,-0.011,-0.027,-0.05,-0.081,-0.081
-0.038,-0.036,0.002,0.037,-0.02,-0.017,0.055,-0.012,-0.031,-0.062,-0.087,-0.086
-0.038,-0.041,-0.003,0.04,-0.018,-0.022,0.06,-0.023,-0.037,-0.071,-0.099,-0.101
-0.035,-0.04,-0.005,0.038,-0.015,-0.022,0.063,-0.031,-0.052,-0.069,-0.101,-0.111
-0.032,-0.037,-0.005,0.035,-0.013,-0.021,0.066,-0.023,-0.046,-0.07,-0.1,-0.11
-0.029,-0.034,-0.005,0.032,-0.012,-0.02,0.069,-0.018,-0.043,-0.07,-0.1,-0.11
-0.031,-0.036,-0.005,0.034,-0.012,-0.02,0.072,-0.012,-0.04,-0.069,-0.1,-0.11
-0.035,-0.04,-0.005,0.038,-0.015,-0.022,0.075,-0.01,-0.035,-0.072,-0.1,-0.11
-0.044,-0.048,-0.005,0.047,-0.019,-0.026,0.074,-0.01,-0.038,-0.075,-0.1,-0.107
-0.043,-0.05,-0.007,0.046,-0.018,-0.028,0.07,-0.006,-0.044,-0.076,-0.1,-0.104
-0.038,-0.051,-0.013,0.045,-0.013,-0.031,0.07,-0.005,-0.051,-0.08,-0.1,-0.101
-0.031,-0.049,-0.018,0.04,-0.007,-0.033,0.07,-0.006,-0.054,-0.08,-0.1,-0.099
-0.035,-0.056,-0.021,0.046,-0.007,-0.039,0.07,-0.011,-0.058,-0.084,-0.1,-0.095
-0.046,-0.072,-0.026,0.059,-0.01,-0.049,0.07,-0.018,-0.06,-0.087,-0.101,-0.096
-0.038,-0.068,-0.03,0.053,-0.004,-0.049,0.07,-0.024,-0.067,-0.092,-0.108,-0.1
-0.035,-0.065,-0.03,0.05,-0.002,-0.047,0.07,-0.031,-0.078,-0.102,-0.11,-0.096
-0.033,-0.063,-0.03,0.048,-0.001,-0.046,0.07,-0.037,-0.088,-0.1,-0.11,-0.095
-0.028,-0.058,-0.03,0.043,0.001,-0.044,0.07,-0.043,-0.095,-0.1,-0.11,-0.095
-0.036,-0.066,-0.03,0.051,-0.003,-0.048,0.07,-0.053,-0.096,-0.1,-0.11,-0.095
-0.04,-0.07,-0.03,0.055,-0.005,-0.05,0.069,-0.06,-0.1,-0.1,-0.11,-0.095
-0.042,-0.07,-0.028,0.056,-0.007,-0.048,0.064,-0.062,-0.103,-0.1,-0.111,-0.096
-0.045,-0.07,-0.025,0.058,-0.01,-0.047,0.061,-0.065,-0.105,-0.104,-0.115,-0.1
-0.048,-0.07,-0.022,0.059,-0.013,-0.046,0.058,-0.068,-0.107,-0.111,-0.114,-0.102
-0.051,-0.07,-0.019,0.061,-0.016,-0.045,0.053,-0.07,-0.11,-0.116,-0.117,-0.105
-0.051,-0.066,-0.016,0.059,-0.017,-0.041,0.05,-0.072,-0.113,-0.12,-0.12,-0.105
-0.05,-0.065,-0.015,0.058,-0.017,-0.04,0.054,-0.077,-0.116,-0.12,-0.119,-0.105
-0.05,-0.065,-0.015,0.058,-0.017,-0.04,0.055,-0.082,-0.119,-0.12,-0.124,-0.105
-0.05,-0.065,-0.015,0.058,-0.017,-0.04,0.055,-0.084,-0.12,-0.12,-0.125,-0.105
-0.05,-0.065,-0.015,0.058,-0.017,-0.04,0.059,-0.08,-0.12,-0.12,-0.125,-0.105
-0.051,-0.066,-0.015,0.059,-0.018,-0.041,0.06,-0.08,-0.12,-0.124,-0.125,-0.106
-0.056,-0.07,-0.014,0.064,-0.021,-0.042,0.059,-0.079,-0.12,-0.125,-0.125,-0.11
-0.052,-0.069,-0.018,0.061,-0.017,-0.043,0.055,-0.075,-0.121,-0.125,-0.124,-0.11
-0.052,-0.073,-0.02,0.062,-0.016,-0.046,0.055,-0.074,-0.119,-0.125,-0.119,-0.11
-0.055,-0.075,-0.02,0.065,-0.017,-0.047,0.053,-0.081,-0.126,-0.125,-0.121,-0.11
-0.051,-0.076,-0.025,0.064,-0.013,-0.05,0.049,-0.085,-0.131,-0.124,-0.118,-0.11
-0.042,-0.071,-0.028,0.057,-0.007,-0.049,0.051,-0.076,-0.123,-0.119,-0.115,-0.111
-0.029,-0.062,-0.033,0.046,0.002,-0.047,0.049,-0.071,-0.119,-0.114,-0.116,-0.109
-0.019,-0.054,-0.035,0.037,0.008,-0.045,0.052,-0.063,-0.112,-0.11,-0.111,-0.101
-0.011,-0.045,-0.035,0.029,0.012,-0.04,0.059,-0.059,-0.108,-0.105,-0.107,-0.094
-0.004,-0.039,-0.035,0.022,0.016,-0.037,0.071,-0.048,-0.099,-0.1,-0.102,-0.087
0.021,-0.014,-0.034,-0.003,0.028,-0.024,0.085,-0.028,-0.078,-0.104,-0.101,-0.088
0.032,-0.003,-0.035,-0.014,0.034,-0.019,0.078,0.0,-0.074,-0.105,-0.105,-0.09
0.018,-0.011,-0.03,-0.003,0.024,-0.02,0.056,0.005,-0.085,-0.105,-0.108,-0.09
0.011,-0.016,-0.027,0.003,0.02,-0.022,0.024,-0.038,-0.08,-0.105,-0.11,-0.09
-0.029,-0.052,-0.023,0.04,-0.002,-0.037,0.028,-0.069,-0.093,-0.106,-0.113,-0.089
-0.066,-0.085,-0.019,0.075,-0.023,-0.052,0.038,-0.091,-0.124,-0.12,-0.116,-0.092
-0.075,-0.091,-0.016,0.084,-0.029,-0.054,0.041,-0.091,-0.132,-0.133,-0.117,-0.099
-0.081,-0.096,-0.014,0.089,-0.033,-0.055,0.041,-0.103,-0.144,-0.136,-0.123,-0.104
-0.075,-0.1,-0.025,0.088,-0.025,-0.063,0.036,-0.097,-0.146,-0.134,-0.117,-0.096
-0.086,-0.1,-0.014,0.093,-0.036,-0.057,0.048,-0.091,-0.141,-0.136,-0.124,-0.103
-0.074,-0.109,-0.035,0.092,-0.019,-0.072,0.029,-0.098,-0.14,-0.133,-0.114,-0.085
-0.098,-0.111,-0.013,0.105,-0.043,-0.062,0.117,-0.026,-0.144,-0.142,-0.135,-0.125
-0.113,-0.14,-0.026,0.127,-0.043,-0.083,0.21,0.157,-0.156,-0.168,-0.176,-0.181
0.09,0.164,0.074,-0.127,0.008,0.119,0.082,0.31,0.072,0.084,0.095,0.092
0.497,0.864,0.368,-0.681,0.064,0.616,-0.417,-0.286,0.726,0.873,0.847,0.773
0.631,1.012,0.382,-0.822,0.124,0.697,-0.728,-1.017,1.159,1.384,1.264,1.067
0.167,0.443,0.276,-0.305,-0.055,0.359,-0.396,-0.994,0.539,0.756,0.594,0.421
-0.147,-0.019,0.128,0.083,-0.138,0.054,-0.165,-0.65,-0.207,-0.01,-0.065,-0.094
-0.087,-0.102,-0.014,0.095,-0.036,-0.058,-0.054,-0.223,-0.173,-0.13,-0.093,-0.092
-0.088,-0.088,0.0,0.088,-0.044,-0.043,0.053,-0.06,-0.102,-0.123,-0.096,-0.105
-0.082,-0.089,-0.007,0.086,-0.037,-0.048,0.061,-0.058,-0.133,-0.127,-0.096,-0.096
-0.076,-0.081,-0.004,0.079,-0.036,-0.043,0.092,-0.026,-0.113,-0.118,-0.092,-0.094
-0.074,-0.079,-0.004,0.077,-0.035,-0.041,0.082,-0.037,-0.126,-0.123,-0.099,-0.097
-0.068,-0.073,-0.005,0.071,-0.031,-0.039,0.085,-0.018,-0.109,-0.117,-0.088,-0.09
-0.071,-0.069,0.002,0.07,-0.036,-0.033,0.08,-0.019,-0.113,-0.115,-0.088,-0.089
-0.063,-0.064,-0.001,0.063,-0.03,-0.032,0.079,-0.008,-0.104,-0.107,-0.078,-0.083
-0.059,-0.059,0.0,0.059,-0.03,-0.029,0.08,-0.002,-0.101,-0.105,-0.076,-0.082
-0.066,-0.055,0.01,0.061,-0.038,-0.022,0.07,0.003,-0.096,-0.099,-0.068,-0.076
-0.067,-0.05,0.017,0.058,-0.042,-0.017,0.069,0.012,-0.084,-0.096,-0.064,-0.074
-0.051,-0.04,0.011,0.045,-0.031,-0.014,0.062,0.016,-0.079,-0.088,-0.055,-0.066
-0.025,-0.017,0.009,0.021,-0.017,-0.004,0.059,0.024,-0.067,-0.068,-0.045,-0.056
-0.003,0.001,0.004,0.0,-0.004,0.003,0.055,0.03,-0.056,-0.048,-0.034,-0.049
-0.014,0.011,0.025,0.001,-0.02,0.018,0.048,0.048,-0.025,-0.039,-0.019,-0.031
0.006,0.044,0.038,-0.025,-0.016,0.041,0.041,0.084,0.013,-0.009,0.006,0.003
0.014,0.05,0.036,-0.033,-0.011,0.043,0.03,0.126,0.043,0.031,0.047,0.029
0.035,0.078,0.042,-0.057,-0.004,0.06,0.016,0.181,0.099,0.065,0.093,0.056
0.099,0.142,0.043,-0.121,0.028,0.092,-0.016,0.246,0.175,0.123,0.148,0.102
0.142,0.188,0.046,-0.165,0.047,0.117,-0.048,0.32,0.263,0.189,0.219,0.163
0.205,0.259,0.054,-0.232,0.075,0.157,-0.072,0.38,0.349,0.264,0.288,0.226
0.257,0.32,0.062,-0.289,0.097,0.191,-0.107,0.426,0.418,0.334,0.357,0.277
0.313,0.378,0.065,-0.346,0.124,0.221,-0.121,0.473,0.492,0.396,0.419,0.332
0.341,0.407,0.066,-0.375,0.138,0.236,-0.123,0.478,0.525,0.433,0.443,0.357
0.307,0.382,0.075,-0.345,0.116,0.228,-0.111,0.465,0.513,0.419,0.435,0.337
0.263,0.347,0.084,-0.305,0.09,0.215,-0.081,0.413,0.465,0.384,0.384,0.288
0.184,0.272,0.088,-0.228,0.048,0.18,-0.036,0.318,0.36,0.313,0.305,0.209
0.108,0.189,0.082,-0.149,0.013,0.135,-0.001,0.221,0.234,0.213,0.207,0.125
0.054,0.121,0.068,-0.088,-0.007,0.095,0.019,0.125,0.116,0.119,0.119,0.05
0.006,0.064,0.058,-0.035,-0.026,0.061,0.054,0.053,0.029,0.049,0.072,-0.001
-0.023,0.028,0.051,-0.003,-0.037,0.039,0.067,0.002,-0.026,0.002,0.029,-0.029
-0.057,-0.011,0.046,0.034,-0.051,0.017,0.064,-0.021,-0.063,-0.019,0.002,-0.05
-0.069,-0.028,0.041,0.048,-0.054,0.006,0.066,-0.033,-0.077,-0.027,-0.012,-0.062
-0.058,-0.024,0.035,0.041,-0.046,0.005,0.064,-0.037,-0.073,-0.041,-0.022,-0.067
-0.055,-0.026,0.03,0.04,-0.042,0.002,0.066,-0.034,-0.077,-0.041,-0.027,-0.074
-0.051,-0.025,0.026,0.038,-0.038,0.0,0.06,-0.035,-0.088,-0.04,-0.031,-0.079
-0.044,-0.025,0.019,0.034,-0.031,-0.002,0.057,-0.03,-0.091,-0.04,-0.03,-0.08
-0.062,-0.026,0.036,0.044,-0.049,0.005,0.069,-0.03,-0.089,-0.04,-0.03,-0.08
-0.083,-0.03,0.053,0.056,-0.068,0.011,0.071,-0.031,-0.091,-0.041,-0.03,-0.08
-0.079,-0.03,0.049,0.055,-0.064,0.01,0.066,-0.035,-0.09,-0.039,-0.03,-0.08
-0.08,-0.032,0.048,0.056,-0.063,0.008,0.065,-0.035,-0.091,-0.054,-0.03,-0.08
-0.081,-0.036,0.045,0.058,-0.063,0.005,0.06,-0.035,-0.096,-0.067,-0.03,-0.08
-0.078,-0.035,0.043,0.056,-0.06,0.004,0.06,-0.036,-0.099,-0.065,-0.031,-0.08
-0.087,-0.032,0.055,0.059,-0.071,0.012,0.06,-0.033,-0.105,-0.064,-0.029,-0.08
-0.096,-0.029,0.066,0.062,-0.081,0.018,0.06,-0.044,-0.12,-0.073,-0.032,-0.08
-0.087,-0.026,0.061,0.056,-0.074,0.018,0.06,-0.052,-0.136,-0.081,-0.04,-0.08
-0.082,-0.024,0.058,0.053,-0.07,0.016,0.06,-0.067,-0.128,-0.082,-0.04,-0.083
-0.074,-0.019,0.055,0.046,-0.065,0.018,0.06,-0.082,-0.128,-0.086,-0.04,-0.087
-0.082,-0.025,0.058,0.053,-0.07,0.017,0.058,-0.079,-0.146,-0.088,-0.04,-0.089
-0.107,-0.045,0.061,0.076,-0.084,0.008,0.054,-0.083,-0.144,-0.092,-0.04,-0.094
-0.108,-0.045,0.064,0.076,-0.085,0.009,0.055,-0.085,-0.153,-0.095,-0.04,-0.094
-0.107,-0.04,0.067,0.073,-0.087,0.013,0.055,-0.085,-0.162,-0.099,-0.04,-0.09
-0.109,-0.039,0.07,0.074,-0.089,0.015,0.055,-0.081,-0.159,-0.099,-0.04,-0.09
-0.104,-0.035,0.069,0.069,-0.086,0.017,0.054,-0.08,-0.158,-0.094,-0.04,-0.088
-0.097,-0.035,0.062,0.066,-0.079,0.013,0.05,-0.074,-0.154,-0.095,-0.048,-0.085
-0.091,-0.035,0.056,0.063,-0.073,0.01,0.05,-0.082,-0.155,-0.092,-0.051,-0.085
-0.084,-0.035,0.049,0.059,-0.066,0.007,0.048,-0.106,-0.155,-0.089,-0.05,-0.094
-0.078,-0.035,0.043,0.056,-0.06,0.004,0.045,-0.105,-0.155,-0.09,-0.048,-0.101
-0.069,-0.035,0.034,0.052,-0.051,-0.001,0.043,-0.106,-0.155,-0.093,-0.044,-0.099
-0.074,-0.034,0.04,0.054,-0.056,0.003,0.056,-0.11,-0.156,-0.102,-0.045,-0.1
-0.093,-0.04,0.052,0.067,-0.072,0.006,0.067,-0.11,-0.157,-0.104,-0.042,-0.1
-0.094,-0.048,0.047,0.071,-0.07,0.0,0.059,-0.108,-0.154,-0.1,-0.039,-0.1
-0.09,-0.045,0.045,0.067,-0.067,0.0,0.058,-0.104,-0.155,-0.1,-0.044,-0.1
-0.087,-0.045,0.042,0.066,-0.064,-0.001,0.053,-0.106,-0.155,-0.098,-0.051,-0.1
-0.084,-0.046,0.039,0.065,-0.061,-0.003,0.049,-0.104,-0.156,-0.095,-0.049,-0.101
-0.089,-0.045,0.045,0.067,-0.067,0.0,0.059,-0.105,-0.154,-0.096,-0.046,-0.1
-0.089,-0.045,0.044,0.067,-0.066,-0.001,0.062,-0.105,-0.147,-0.091,-0.042,-0.1
-0.088,-0.041,0.047,0.064,-0.067,0.003,0.052,-0.094,-0.142,-0.084,-0.04,-0.099
-0.081,-0.029,0.052,0.055,-0.066,0.011,0.041,-0.08,-0.136,-0.077,-0.038,-0.09
-0.08,-0.021,0.059,0.05,-0.069,0.019,0.067,-0.063,-0.131,-0.071,-0.031,-0.08
-0.052,0.013,0.066,0.019,-0.059,0.039,0.08,-0.032,-0.126,-0.065,-0.023,-0.071
-0.025,0.04,0.065,-0.008,-0.045,0.052,0.066,0.0,-0.125,-0.065,-0.016,-0.069
-0.021,0.045,0.066,-0.013,-0.044,0.055,0.062,-0.027,-0.125,-0.064,-0.008,-0.071
-0.015,0.049,0.063,-0.017,-0.039,0.056,0.053,-0.073,-0.126,-0.071,-0.01,-0.07
-0.06,0.008,0.068,0.025,-0.064,0.038,0.052,-0.106,-0.153,-0.101,-0.046,-0.098
-0.093,-0.033,0.06,0.063,-0.077,0.013,0.041,-0.125,-0.175,-0.116,-0.059,-0.114
-0.108,-0.044,0.064,0.076,-0.085,0.009,0.042,-0.114,-0.174,-0.12,-0.063,-0.116
-0.105,-0.049,0.056,0.077,-0.08,0.003,0.031,-0.127,-0.176,-0.12,-0.065,-0.115
-0.107,-0.048,0.059,0.077,-0.083,0.005,0.039,-0.111,-0.173,-0.12,-0.064,-0.114
-0.108,-0.056,0.052,0.082,-0.08,-0.002,0.032,-0.132,-0.177,-0.121,-0.068,-0.117
-0.111,-0.052,0.059,0.081,-0.085,0.003,0.051,-0.088,-0.171,-0.117,-0.058,-0.116
-0.183,-0.09,0.094,0.136,-0.138,0.002,0.165,0.019,-0.185,-0.168,-0.126,-0.199
-0.092,-0.004,0.089,0.048,-0.091,0.043,0.183,0.213,-0.131,-0.118,-0.073,-0.146
0.243,0.574,0.331,-0.409,-0.045,0.452,-0.111,0.145,0.319,0.429,0.459,0.361
0.588,1.078,0.491,-0.833,0.048,0.784,-0.647,-0.609,1.024,1.253,1.205,0.983
0.396,0.807,0.411,-0.602,-0.008,0.609,-0.62,-1.02,0.943,1.211,1.068,0.776
-0.103,0.238,0.341,-0.068,-0.222,0.289,-0.235,-0.853,0.017,0.323,0.222,0.037
-0.151,0.012,0.163,0.069,-0.157,0.087,-0.12,-0.491,-0.317,-0.136,-0.072,-0.162
-0.074,0.01,0.084,0.031,-0.079,0.047,-0.002,-0.152,-0.15,-0.139,-0.053,-0.127
-0.085,-0.01,0.075,0.048,-0.08,0.032,0.048,-0.111,-0.171,-0.143,-0.075,-0.145
-0.088,-0.023,0.065,0.055,-0.076,0.021,0.056,-0.075,-0.156,-0.132,-0.056,-0.127
-0.098,-0.023,0.075,0.06,-0.086,0.026,0.071,-0.067,-0.155,-0.132,-0.066,-0.135
-0.084,-0.018,0.065,0.051,-0.074,0.023,0.06,-0.066,-0.154,-0.125,-0.056,-0.125
-0.089,-0.013,0.077,0.051,-0.083,0.032,0.069,-0.051,-0.146,-0.122,-0.068,-0.127
-0.088,-0.01,0.078,0.049,-0.083,0.034,0.062,-0.053,-0.144,-0.119,-0.07,-0.122
-0.09,-0.004,0.086,0.047,-0.088,0.041,0.067,-0.037,-0.13,-0.114,-0.062,-0.12
-0.089,0.002,0.091,0.044,-0.09,0.046,0.062,-0.032,-0.127,-0.112,-0.057,-0.117
-0.081,0.009,0.09,0.036,-0.086,0.049,0.054,-0.019,-0.116,-0.108,-0.048,-0.115
-0.062,0.027,0.089,0.017,-0.076,0.058,0.048,-0.01,-0.109,-0.098,-0.044,-0.109
-0.043,0.042,0.085,0.0,-0.065,0.063,0.04,0.0,-0.093,-0.082,-0.035,-0.092
-0.026,0.057,0.083,-0.016,-0.055,0.07,0.032,0.01,-0.079,-0.069,-0.023,-0.08
-0.025,0.07,0.095,-0.023,-0.06,0.082,0.027,0.021,-0.058,-0.055,-0.007,-0.065
-0.029,0.077,0.106,-0.024,-0.068,0.091,0.024,0.035,-0.031,-0.039,0.005,-0.052
-0.001,0.104,0.105,-0.052,-0.053,0.104,0.016,0.071,0.012,-0.011,0.032,-0.034
0.02,0.124,0.104,-0.073,-0.042,0.114,0.003,0.12,0.059,0.024,0.065,-0.005
0.055,0.16,0.106,-0.108,-0.026,0.133,-0.016,0.17,0.112,0.065,0.108,0.038
0.109,0.213,0.104,-0.162,0.003,0.158,-0.038,0.242,0.195,0.13,0.175,0.089
0.161,0.274,0.112,-0.218,0.024,0.193,-0.07,0.311,0.287,0.208,0.249,0.16
0.218,0.343,0.125,-0.28,0.046,0.234,-0.096,0.373,0.372,0.279,0.317,0.224
0.261,0.39,0.128,-0.326,0.066,0.259,-0.123,0.422,0.442,0.343,0.376,0.267
0.283,0.434,0.151,-0.358,0.066,0.292,-0.127,0.429,0.488,0.385,0.418,0.303
0.293,0.455,0.162,-0.374,0.065,0.308,-0.116,0.421,0.493,0.391,0.418,0.296
0.263,0.422,0.159,-0.343,0.051,0.29,-0.112,0.403,0.459,0.369,0.392,0.265
0.193,0.359,0.166,-0.277,0.013,0.263,-0.087,0.348,0.381,0.309,0.32,0.203
0.132,0.293,0.161,-0.213,-0.015,0.227,-0.045,0.25,0.263,0.216,0.22,0.112
0.077,0.232,0.156,-0.155,-0.04,0.194,-0.009,0.15,0.147,0.12,0.14,0.044
0.015,0.165,0.15,-0.09,-0.068,0.157,0.003,0.078,0.05,0.042,0.061,-0.013
-0.021,0.124,0.145,-0.052,-0.083,0.134,0.012,0.008,-0.022,-0.017,-0.003,-0.061
-0.045,0.093,0.138,-0.024,-0.092,0.115,0.023,-0.035,-0.064,-0.063,-0.033,-0.086
-0.064,0.063,0.127,0.0,-0.095,0.094,0.029,-0.045,-0.088,-0.085,-0.045,-0.098
-0.06,0.06,0.12,0.0,-0.09,0.09,0.042,-0.047,-0.101,-0.086,-0.055,-0.107
-0.063,0.057,0.12,0.003,-0.092,0.088,0.046,-0.043,-0.105,-0.084,-0.062,-0.117
-0.066,0.054,0.12,0.006,-0.094,0.087,0.045,-0.038,-0.105,-0.089,-0.067,-0.12
-0.069,0.051,0.12,0.009,-0.094,0.085,0.045,-0.032,-0.105,-0.102,-0.074,-0.12
-0.071,0.049,0.12,0.011,-0.096,0.085,0.045,-0.026,-0.105,-0.106,-0.075,-0.12
-0.069,0.05,0.119,0.009,-0.094,0.085,0.044,-0.021,-0.104,-0.104,-0.075,-0.12
-0.066,0.049,0.115,0.008,-0.09,0.082,0.041,-0.023,-0.107,-0.109,-0.08,-0.12
-0.059,0.05,0.11,0.004,-0.084,0.08,0.038,-0.027,-0.11,-0.11,-0.079,-0.119
-0.056,0.049,0.105,0.003,-0.081,0.077,0.035,-0.032,-0.11,-0.111,-0.082,-0.123
-0.051,0.05,0.101,0.0,-0.076,0.076,0.033,-0.037,-0.115,-0.115,-0.085,-0.125
-0.049,0.047,0.096,0.001,-0.073,0.072,0.029,-0.045,-0.125,-0.123,-0.086,-0.125
-0.05,0.044,0.095,0.002,-0.073,0.07,0.033,-0.045,-0.136,-0.125,-0.088,-0.125
-0.05,0.045,0.095,0.002,-0.073,0.07,0.036,-0.045,-0.139,-0.126,-0.093,-0.126
-0.054,0.041,0.095,0.006,-0.074,0.068,0.035,-0.067,-0.151,-0.138,-0.101,-0.131
-0.055,0.04,0.095,0.007,-0.075,0.067,0.035,-0.077,-0.162,-0.141,-0.101,-0.13
-0.055,0.04,0.095,0.007,-0.075,0.067,0.035,-0.074,-0.159,-0.139,-0.099,-0.13
-0.055,0.04,0.094,0.007,-0.074,0.067,0.035,-0.076,-0.163,-0.141,-0.1,-0.13
-0.051,0.04,0.09,0.005,-0.071,0.065,0.03,-0.075,-0.166,-0.139,-0.1,-0.13
-0.049,0.04,0.09,0.005,-0.07,0.065,0.025,-0.075,-0.164,-0.141,-0.099,-0.13
-0.051,0.039,0.09,0.006,-0.07,0.065,0.021,-0.081,-0.167,-0.144,-0.107,-0.125
-0.049,0.041,0.09,0.004,-0.069,0.065,0.016,-0.095,-0.17,-0.145,-0.112,-0.125
-0.053,0.037,0.09,0.008,-0.072,0.063,0.012,-0.095,-0.17,-0.145,-0.109,-0.125
-0.058,0.029,0.088,0.014,-0.073,0.058,0.007,-0.09,-0.17,-0.145,-0.11,-0.125
-0.06,0.022,0.082,0.019,-0.071,0.052,0.005,-0.089,-0.17,-0.145,-0.11,-0.125
-0.061,0.017,0.078,0.021,-0.069,0.047,0.005,-0.084,-0.169,-0.145,-0.109,-0.125
-0.041,0.033,0.073,0.004,-0.057,0.053,0.005,-0.087,-0.173,-0.145,-0.111,-0.125
-0.049,0.02,0.069,0.014,-0.059,0.045,0.005,-0.09,-0.183,-0.145,-0.115,-0.125
-0.059,0.005,0.064,0.026,-0.061,0.034,0.005,-0.086,-0.182,-0.145,-0.115,-0.125
-0.036,0.024,0.06,0.006,-0.049,0.042,-0.001,-0.085,-0.179,-0.145,-0.117,-0.125
-0.031,0.024,0.055,0.003,-0.043,0.039,-0.003,-0.085,-0.18,-0.145,-0.121,-0.125
-0.031,0.019,0.05,0.006,-0.04,0.034,0.004,-0.085,-0.175,-0.145,-0.12,-0.126
-0.031,0.017,0.047,0.007,-0.039,0.032,0.001,-0.085,-0.176,-0.145,-0.117,-0.125
-0.025,0.013,0.038,0.006,-0.032,0.025,-0.001,-0.083,-0.174,-0.145,-0.114,-0.126
-0.048,0.006,0.055,0.021,-0.052,0.03,-0.004,-0.075,-0.169,-0.145,-0.111,-0.124
-0.076,-0.003,0.073,0.039,-0.074,0.035,-0.015,-0.066,-0.18,-0.146,-0.108,-0.126
-0.068,0.001,0.068,0.034,-0.068,0.034,-0.002,-0.059,-0.176,-0.141,-0.105,-0.121
-0.045,0.026,0.071,0.009,-0.058,0.048,0.025,-0.04,-0.144,-0.122,-0.103,-0.104
-0.008,0.061,0.069,-0.027,-0.039,0.065,0.042,-0.002,-0.116,-0.108,-0.101,-0.099
0.004,0.074,0.07,-0.039,-0.033,0.072,0.022,0.02,-0.108,-0.105,-0.098,-0.1
0.002,0.068,0.066,-0.035,-0.032,0.067,-0.022,-0.017,-0.116,-0.096,-0.097,-0.101
-0.003,0.055,0.058,-0.026,-0.031,0.056,-0.034,-0.066,-0.144,-0.105,-0.091,-0.096
-0.028,0.026,0.054,0.0,-0.041,0.04,-0.033,-0.091,-0.174,-0.138,-0.111,-0.114
-0.059,-0.016,0.044,0.037,-0.051,0.013,-0.03,-0.085,-0.198,-0.149,-0.133,-0.135
-0.068,-0.026,0.042,0.047,-0.054,0.008,-0.018,-0.086,-0.206,-0.151,-0.136,-0.136
-0.057,-0.026,0.032,0.041,-0.044,0.003,-0.023,-0.106,-0.201,-0.149,-0.134,-0.133
-0.081,-0.024,0.057,0.052,-0.069,0.017,-0.001,-0.086,-0.196,-0.15,-0.135,-0.137
-0.091,-0.026,0.065,0.058,-0.077,0.019,-0.03,-0.095,-0.196,-0.15,-0.136,-0.134
-0.09,-0.027,0.063,0.058,-0.076,0.018,0.008,-0.062,-0.185,-0.149,-0.134,-0.14
-0.122,-0.062,0.06,0.092,-0.091,-0.001,0.121,0.039,-0.213,-0.214,-0.206,-0.223
-0.029,0.037,0.067,-0.004,-0.048,0.052,0.109,0.275,-0.141,-0.136,-0.13,-0.139
0.321,0.638,0.316,-0.48,0.002,0.477,-0.244,0.028,0.343,0.452,0.453,0.419
0.651,1.141,0.49,-0.896,0.08,0.816,-0.766,-0.851,1.011,1.246,1.179,1.03
0.389,0.797,0.407,-0.593,-0.009,0.602,-0.648,-1.107,0.871,1.109,0.949,0.731
-0.093,0.172,0.265,-0.04,-0.179,0.218,-0.305,-0.808,-0.013,0.207,0.1,-0.008
-0.143,-0.032,0.111,0.087,-0.127,0.04,-0.177,-0.394,-0.298,-0.171,-0.153,-0.163
-0.093,-0.028,0.064,0.06,-0.078,0.018,-0.043,-0.101,-0.171,-0.151,-0.123,-0.134
-0.098,-0.043,0.055,0.07,-0.076,0.005,-0.025,-0.095,-0.202,-0.166,-0.145,-0.153
-0.098,-0.053,0.044,0.075,-0.071,-0.004,-0.02,-0.062,-0.179,-0.156,-0.136,-0.139
-0.105,-0.065,0.04,0.085,-0.073,-0.012,-0.018,-0.059,-0.184,-0.163,-0.147,-0.15
-0.082,-0.051,0.03,0.066,-0.056,-0.01,-0.022,-0.049,-0.177,-0.158,-0.136,-0.14
-0.069,-0.046,0.023,0.057,-0.046,-0.012,-0.018,-0.035,-0.171,-0.156,-0.142,-0.14
-0.068,-0.037,0.031,0.052,-0.049,-0.003,-0.02,-0.031,-0.168,-0.151,-0.139,-0.134
-0.095,-0.035,0.06,0.065,-0.077,0.012,-0.007,-0.014,-0.157,-0.148,-0.14,-0.132
-0.095,-0.035,0.06,0.065,-0.077,0.012,-0.002,-0.012,-0.155,-0.145,-0.14,-0.128
-0.095,-0.035,0.06,0.065,-0.077,0.012,-0.01,-0.005,-0.144,-0.141,-0.129,-0.124
-0.093,-0.033,0.06,0.063,-0.076,0.013,-0.017,-0.002,-0.137,-0.134,-0.121,-0.119
-0.072,-0.012,0.061,0.042,-0.066,0.024,-0.016,0.017,-0.123,-0.112,-0.11,-0.108
-0.066,-0.007,0.059,0.036,-0.062,0.026,-0.012,0.038,-0.109,-0.093,-0.099,-0.101
-0.048,0.008,0.056,0.02,-0.052,0.032,-0.016,0.055,-0.08,-0.08,-0.084,-0.088
-0.046,0.031,0.078,0.008,-0.062,0.054,-0.043,0.083,-0.046,-0.063,-0.055,-0.068
-0.035,0.047,0.081,-0.006,-0.058,0.064,-0.057,0.125,-0.002,-0.031,-0.022,-0.038
-0.009,0.069,0.078,-0.03,-0.044,0.074,-0.057,0.178,0.048,0.009,0.008,-0.002
0.039,0.12,0.081,-0.08,-0.021,0.101,-0.071,0.247,0.11,0.06,0.059,0.04
0.106,0.184,0.078,-0.145,0.013,0.131,-0.111,0.319,0.189,0.121,0.118,0.091
0.161,0.244,0.083,-0.203,0.039,0.164,-0.133,0.393,0.281,0.204,0.195,0.16
0.213,0.31,0.097,-0.262,0.058,0.203,-0.151,0.46,0.374,0.284,0.272,0.231
0.246,0.354,0.108,-0.3,0.069,0.231,-0.18,0.498,0.439,0.337,0.327,0.279
0.26,0.371,0.111,-0.315,0.074,0.241,-0.176,0.506,0.482,0.386,0.363,0.311
0.246,0.361,0.115,-0.304,0.065,0.238,-0.169,0.499,0.487,0.399,0.366,0.317
0.235,0.344,0.109,-0.29,0.063,0.226,-0.153,0.463,0.451,0.375,0.336,0.281
0.19,0.293,0.103,-0.242,0.044,0.198,-0.121,0.371,0.367,0.297,0.248,0.211
0.108,0.203,0.095,-0.156,0.006,0.149,-0.08,0.266,0.24,0.192,0.145,0.122
0.037,0.127,0.09,-0.082,-0.027,0.108,-0.044,0.175,0.125,0.106,0.061,0.04
-0.017,0.061,0.078,-0.022,-0.048,0.069,-0.041,0.098,0.032,0.031,-0.006,-0.016
-0.034,0.007,0.041,0.013,-0.037,0.023,-0.027,0.044,-0.038,-0.019,-0.052,-0.052
-0.06,-0.036,0.024,0.047,-0.042,-0.006,-0.018,0.006,-0.084,-0.061,-0.08,-0.077
-0.081,-0.057,0.024,0.069,-0.052,-0.016,-0.026,-0.009,-0.111,-0.09,-0.102,-0.094
-0.072,-0.053,0.02,0.063,-0.046,-0.016,-0.017,-0.012,-0.114,-0.093,-0.117,-0.095
-0.079,-0.062,0.018,0.07,-0.048,-0.022,-0.011,-0.018,-0.117,-0.097,-0.111,-0.097
-0.099,-0.084,0.015,0.091,-0.057,-0.034,-0.005,-0.023,-0.121,-0.101,-0.11,-0.101
-0.094,-0.081,0.013,0.087,-0.053,-0.034,0.003,-0.029,-0.119,-0.099,-0.109,-0.099
-0.082,-0.073,0.01,0.078,-0.046,-0.031,0.003,-0.026,-0.12,-0.101,-0.106,-0.1
-0.081,-0.071,0.01,0.076,-0.045,-0.03,0.0,-0.014,-0.12,-0.099,-0.103,-0.1
-0.069,-0.059,0.01,0.064,-0.039,-0.024,0.0,-0.01,-0.121,-0.101,-0.111,-0.1
-0.085,-0.075,0.01,0.08,-0.048,-0.032,0.0,-0.008,-0.125,-0.105,-0.13,-0.1
-0.102,-0.092,0.01,0.097,-0.056,-0.041,0.0,-0.005,-0.125,-0.105,-0.13,-0.1
-0.095,-0.084,0.011,0.09,-0.052,-0.036,-0.001,-0.002,-0.129,-0.109,-0.129,-0.1
-0.098,-0.089,0.009,0.093,-0.053,-0.04,-0.004,0.001,-0.131,-0.11,-0.131,-0.1
-0.102,-0.091,0.012,0.096,-0.057,-0.039,-0.007,-0.005,-0.132,-0.112,-0.129,-0.1
-0.094,-0.09,0.004,0.092,-0.049,-0.043,-0.009,-0.013,-0.144,-0.119,-0.133,-0.1
-0.072,-0.09,-0.019,0.081,-0.027,-0.054,-0.013,-0.019,-0.149,-0.125,-0.135,-0.1
-0.069,-0.09,-0.021,0.079,-0.024,-0.055,-0.015,-0.027,-0.155,-0.13,-0.135,-0.1
-0.072,-0.091,-0.019,0.081,-0.026,-0.055,-0.013,-0.035,-0.164,-0.13,-0.138,-0.1
-0.075,-0.096,-0.021,0.085,-0.027,-0.058,-0.008,-0.04,-0.166,-0.13,-0.141,-0.1
-0.075,-0.094,-0.019,0.085,-0.028,-0.056,-0.005,-0.04,-0.164,-0.13,-0.139,-0.099
-0.07,-0.092,-0.022,0.081,-0.024,-0.056,-0.002,-0.044,-0.168,-0.13,-0.136,-0.103
-0.082,-0.108,-0.025,0.095,-0.028,-0.066,0.003,-0.045,-0.184,-0.127,-0.135,-0.106
-0.079,-0.108,-0.029,0.093,-0.024,-0.068,0.005,-0.045,-0.186,-0.125,-0.135,-0.105
-0.066,-0.099,-0.034,0.083,-0.016,-0.066,0.001,-0.045,-0.184,-0.125,-0.135,-0.105
-0.064,-0.099,-0.035,0.082,-0.014,-0.067,-0.002,-0.044,-0.181,-0.125,-0.134,-0.105
-0.055,-0.09,-0.035,0.073,-0.009,-0.062,-0.005,-0.051,-0.179,-0.125,-0.138,-0.105
-0.054,-0.094,-0.04,0.074,-0.007,-0.067,-0.007,-0.056,-0.179,-0.125,-0.141,-0.103
-0.072,-0.112,-0.04,0.092,-0.016,-0.076,-0.011,-0.054,-0.174,-0.129,-0.14,-0.099
-0.076,-0.117,-0.041,0.097,-0.017,-0.078,-0.007,-0.055,-0.175,-0.13,-0.139,-0.1
-0.072,-0.118,-0.046,0.095,-0.013,-0.082,-0.005,-0.055,-0.175,-0.13,-0.135,-0.1
-0.074,-0.122,-0.048,0.098,-0.012,-0.085,-0.005,-0.055,-0.175,-0.13,-0.135,-0.1
-0.078,-0.126,-0.048,0.102,-0.015,-0.087,-0.005,-0.059,-0.175,-0.13,-0.133,-0.1
-0.094,-0.136,-0.042,0.115,-0.026,-0.089,-0.005,-0.06,-0.172,-0.129,-0.13,-0.095
-0.076,-0.131,-0.054,0.104,-0.011,-0.092,-0.004,-0.06,-0.17,-0.125,-0.131,-0.088
-0.05,-0.13,-0.08,0.09,0.015,-0.105,0.001,-0.059,-0.17,-0.121,-0.13,-0.081
-0.061,-0.146,-0.085,0.104,0.013,-0.115,0.014,-0.06,-0.165,-0.118,-0.13,-0.074
-0.054,-0.142,-0.087,0.098,0.017,-0.114,0.021,-0.058,-0.165,-0.112,-0.13,-0.068
-0.034,-0.128,-0.094,0.081,0.03,-0.11,0.035,-0.026,-0.164,-0.112,-0.124,-0.061
-0.003,-0.097,-0.094,0.05,0.046,-0.095,0.052,0.015,-0.137,-0.098,-0.122,-0.05
0.034,-0.062,-0.096,0.015,0.065,-0.079,0.06,0.055,-0.119,-0.075,-0.125,-0.037
0.021,-0.074,-0.095,0.027,0.058,-0.084,0.061,0.043,-0.12,-0.066,-0.125,-0.04
-0.011,-0.105,-0.094,0.059,0.041,-0.099,0.039,-0.001,-0.121,-0.087,-0.125,-0.043
-0.017,-0.125,-0.108,0.071,0.046,-0.116,0.04,-0.021,-0.141,-0.117,-0.124,-0.048
-0.046,-0.148,-0.103,0.097,0.029,-0.125,0.03,-0.056,-0.167,-0.123,-0.126,-0.068
-0.086,-0.166,-0.08,0.126,-0.003,-0.123,0.027,-0.051,-0.174,-0.125,-0.129,-0.08
-0.094,-0.171,-0.077,0.133,-0.009,-0.124,0.022,-0.059,-0.176,-0.126,-0.132,-0.09
-0.094,-0.171,-0.077,0.133,-0.008,-0.123,0.013,-0.052,-0.175,-0.119,-0.128,-0.084
-0.109,-0.176,-0.066,0.143,-0.021,-0.121,0.022,-0.056,-0.174,-0.122,-0.133,-0.079
-0.106,-0.179,-0.072,0.143,-0.017,-0.125,0.001,-0.057,-0.178,-0.118,-0.126,-0.056
-0.133,-0.194,-0.062,0.164,-0.035,-0.128,0.1,0.031,-0.167,-0.13,-0.145,-0.097
-0.14,-0.231,-0.091,0.186,-0.024,-0.161,0.195,0.21,-0.172,-0.156,-0.182,-0.151
0.088,0.122,0.034,-0.105,0.027,0.078,0.044,0.332,0.062,0.124,0.106,0.153
0.523,0.807,0.284,-0.666,0.119,0.546,-0.464,-0.305,0.756,0.936,0.886,0.855
0.614,0.885,0.271,-0.75,0.172,0.578,-0.724,-0.997,1.148,1.381,1.232,1.087
0.119,0.302,0.183,-0.21,-0.032,0.242,-0.387,-0.939,0.457,0.694,0.517,0.402
-0.161,-0.128,0.034,0.144,-0.098,-0.047,-0.166,-0.583,-0.248,-0.022,-0.085,-0.066
-0.088,-0.196,-0.108,0.142,0.01,-0.152,-0.057,-0.161,-0.186,-0.103,-0.105,-0.039
-0.097,-0.193,-0.096,0.145,0.0,-0.144,0.037,-0.029,-0.141,-0.099,-0.112,-0.054
-0.092,-0.193,-0.1,0.143,0.004,-0.147,0.045,-0.02,-0.163,-0.102,-0.105,-0.042
-0.081,-0.186,-0.105,0.134,0.012,-0.145,0.064,0.019,-0.14,-0.098,-0.101,-0.042
-0.073,-0.188,-0.115,0.131,0.021,-0.151,0.066,0.012,-0.154,-0.103,-0.102,-0.041
-0.063,-0.18,-0.117,0.122,0.027,-0.148,0.072,0.042,-0.139,-0.095,-0.095,-0.034
-0.078,-0.189,-0.112,0.134,0.017,-0.15,0.071,0.048,-0.14,-0.093,-0.094,-0.032
-0.082,-0.193,-0.112,0.138,0.015,-0.153,0.076,0.051,-0.121,-0.083,-0.084,-0.023
-0.066,-0.174,-0.108,0.12,0.021,-0.141,0.075,0.049,-0.114,-0.079,-0.082,-0.02
-0.049,-0.164,-0.115,0.107,0.033,-0.139,0.075,0.054,-0.106,-0.07,-0.07,-0.013
-0.051,-0.178,-0.127,0.115,0.038,-0.152,0.075,0.063,-0.088,-0.061,-0.057,-0.009
-0.058,-0.189,-0.131,0.123,0.037,-0.159,0.075,0.092,-0.068,-0.044,-0.042,-0.005
-0.048,-0.178,-0.129,0.113,0.041,-0.153,0.073,0.113,-0.047,-0.021,-0.028,0.002
-0.03,-0.164,-0.134,0.097,0.052,-0.148,0.062,0.113,-0.034,-0.008,-0.009,0.023
-0.007,-0.142,-0.135,0.075,0.065,-0.138,0.053,0.139,-0.008,0.006,0.014,0.034
0.016,-0.118,-0.134,0.051,0.076,-0.126,0.042,0.164,0.018,0.027,0.031,0.059
0.039,-0.092,-0.13,0.026,0.085,-0.111,0.036,0.208,0.058,0.063,0.064,0.093
0.089,-0.036,-0.125,-0.026,0.107,-0.08,0.031,0.27,0.126,0.116,0.114,0.127
0.129,0.007,-0.122,-0.068,0.125,-0.057,0.02,0.332,0.197,0.171,0.171,0.174
0.172,0.056,-0.116,-0.114,0.143,-0.029,-0.01,0.404,0.286,0.243,0.247,0.237
0.237,0.132,-0.105,-0.184,0.171,0.013,-0.05,0.465,0.383,0.329,0.324,0.304
0.263,0.172,-0.091,-0.217,0.177,0.04,-0.081,0.519,0.461,0.398,0.394,0.363
0.286,0.2,-0.086,-0.242,0.186,0.057,-0.101,0.55,0.517,0.444,0.448,0.408
0.296,0.212,-0.084,-0.253,0.19,0.064,-0.116,0.556,0.537,0.473,0.464,0.418
0.279,0.194,-0.086,-0.236,0.182,0.054,-0.103,0.541,0.525,0.469,0.454,0.404
0.253,0.169,-0.084,-0.21,0.169,0.042,-0.056,0.482,0.47,0.427,0.398,0.352
0.176,0.091,-0.085,-0.133,0.13,0.003,-0.016,0.386,0.359,0.343,0.306,0.264
0.103,0.016,-0.088,-0.059,0.095,-0.036,0.027,0.286,0.236,0.244,0.22,0.186
0.043,-0.044,-0.087,0.0,0.065,-0.065,0.056,0.207,0.128,0.161,0.138,0.124
-0.007,-0.118,-0.111,0.063,0.052,-0.114,0.072,0.131,0.046,0.097,0.075,0.073
-0.025,-0.141,-0.116,0.084,0.046,-0.128,0.087,0.075,0.001,0.058,0.044,0.047
-0.043,-0.165,-0.122,0.105,0.039,-0.143,0.085,0.066,-0.038,0.028,0.03,0.033
-0.063,-0.204,-0.141,0.133,0.04,-0.172,0.085,0.071,-0.056,0.018,0.023,0.02
-0.064,-0.205,-0.141,0.134,0.039,-0.172,0.085,0.067,-0.055,0.017,0.015,0.015
-0.067,-0.205,-0.138,0.136,0.036,-0.171,0.088,0.065,-0.053,0.012,0.007,0.012
-0.064,-0.205,-0.142,0.135,0.039,-0.173,0.091,0.061,-0.051,0.009,0.001,0.01
-0.045,-0.204,-0.159,0.125,0.057,-0.181,0.09,0.06,-0.048,0.005,0.0,0.006
-0.044,-0.206,-0.162,0.125,0.059,-0.183,0.09,0.06,-0.056,0.002,0.0,0.005
-0.035,-0.192,-0.157,0.114,0.061,-0.174,0.09,0.06,-0.075,-0.001,0.0,0.009
-0.047,-0.203,-0.156,0.126,0.055,-0.179,0.089,0.059,-0.076,-0.004,0.0,0.01
-0.078,-0.232,-0.154,0.155,0.038,-0.193,0.085,0.062,-0.074,-0.007,-0.001,0.009
-0.063,-0.221,-0.158,0.142,0.048,-0.189,0.08,0.065,-0.076,-0.01,-0.006,0.01
-0.032,-0.212,-0.181,0.122,0.075,-0.196,0.078,0.06,-0.074,-0.01,-0.012,0.009
-0.018,-0.211,-0.192,0.115,0.087,-0.202,0.073,0.054,-0.079,-0.01,-0.015,0.004
-0.017,-0.203,-0.186,0.11,0.085,-0.195,0.07,0.049,-0.083,-0.01,-0.02,0.012
-0.031,-0.216,-0.185,0.124,0.077,-0.201,0.082,0.044,-0.094,-0.013,-0.025,0.018
-0.053,-0.235,-0.181,0.144,0.064,-0.207,0.083,0.038,-0.107,-0.016,-0.022,0.011
-0.056,-0.236,-0.179,0.146,0.062,-0.207,0.073,0.032,-0.109,-0.019,-0.016,0.01
-0.057,-0.234,-0.177,0.146,0.06,-0.205,0.068,0.027,-0.114,-0.022,-0.012,0.005
-0.063,-0.236,-0.174,0.15,0.056,-0.205,0.06,0.021,-0.115,-0.024,-0.008,0.001
-0.062,-0.233,-0.171,0.147,0.055,-0.201,0.056,0.016,-0.115,-0.027,-0.002,0.001
-0.068,-0.236,-0.169,0.152,0.051,-0.202,0.059,0.011,-0.115,-0.029,0.0,0.006
-0.054,-0.218,-0.164,0.137,0.055,-0.191,0.06,0.009,-0.114,-0.033,-0.007,0.01
-0.054,-0.222,-0.168,0.139,0.057,-0.195,0.06,0.011,-0.117,-0.035,-0.01,0.006
-0.077,-0.26,-0.183,0.169,0.054,-0.221,0.06,0.009,-0.12,-0.039,-0.015,0.013
-0.066,-0.251,-0.185,0.159,0.06,-0.218,0.06,0.011,-0.122,-0.04,-0.019,0.016
-0.051,-0.235,-0.184,0.144,0.067,-0.209,0.058,0.008,-0.125,-0.036,-0.017,0.014
-0.053,-0.238,-0.185,0.146,0.067,-0.212,0.053,0.004,-0.129,-0.035,-0.014,0.015
-0.07,-0.254,-0.185,0.163,0.058,-0.219,0.05,0.006,-0.131,-0.036,-0.011,0.015
-0.074,-0.26,-0.186,0.167,0.057,-0.223,0.047,0.002,-0.13,-0.035,-0.009,0.014
-0.048,-0.239,-0.191,0.144,0.072,-0.215,0.043,0.001,-0.13,-0.035,-0.005,0.019
-0.036,-0.232,-0.195,0.134,0.08,-0.213,0.039,-0.002,-0.131,-0.035,-0.005,0.025
-0.054,-0.253,-0.199,0.154,0.073,-0.226,0.043,0.013,-0.128,-0.024,0.004,0.033
-0.039,-0.242,-0.204,0.141,0.083,-0.223,0.061,0.03,-0.115,-0.017,0.007,0.039
0.011,-0.194,-0.205,0.092,0.109,-0.2,0.082,0.05,-0.08,0.005,0.024,0.046
0.037,-0.173,-0.21,0.068,0.123,-0.191,0.082,0.094,-0.039,0.034,0.055,0.06
0.045,-0.165,-0.21,0.06,0.128,-0.187,0.057,0.083,-0.044,0.024,0.044,0.053
0.031,-0.186,-0.216,0.078,0.124,-0.201,0.041,0.043,-0.088,-0.002,0.027,0.04
-0.008,-0.22,-0.212,0.115,0.102,-0.216,0.049,0.023,-0.119,-0.027,0.008,0.03
-0.042,-0.253,-0.211,0.147,0.085,-0.231,0.041,0.007,-0.134,-0.038,-0.004,0.025
-0.071,-0.28,-0.209,0.175,0.07,-0.245,0.049,0.013,-0.134,-0.046,-0.006,0.02
-0.074,-0.283,-0.209,0.178,0.068,-0.246,0.043,-0.001,-0.131,-0.046,-0.015,0.014
-0.07,-0.282,-0.212,0.176,0.071,-0.247,0.046,0.002,-0.127,-0.037,-0.015,0.009
-0.073,-0.279,-0.206,0.176,0.067,-0.242,0.06,-0.005,-0.124,-0.039,-0.03,0.005
-0.059,-0.272,-0.213,0.166,0.077,-0.242,0.044,0.009,-0.12,-0.023,-0.011,0.027
-0.118,-0.307,-0.188,0.213,0.035,-0.247,0.144,0.098,-0.125,-0.064,-0.059,-0.046
-0.114,-0.322,-0.208,0.219,0.047,-0.265,0.204,0.261,-0.115,-0.082,-0.08,-0.07
0.136,0.102,-0.034,-0.119,0.085,0.034,0.033,0.368,0.189,0.293,0.306,0.307
0.541,0.728,0.187,-0.635,0.177,0.458,-0.488,-0.2,0.92,1.15,1.091,0.993
0.562,0.676,0.114,-0.619,0.224,0.394,-0.673,-0.812,1.183,1.46,1.289,1.079
0.04,0.115,0.075,-0.078,-0.018,0.095,-0.289,-0.782,0.331,0.666,0.487,0.355
-0.159,-0.234,-0.074,0.196,-0.042,-0.154,-0.133,-0.485,-0.273,0.019,0.011,-0.014
-0.048,-0.282,-0.234,0.165,0.093,-0.258,-0.029,-0.099,-0.123,-0.047,0.031,0.046
-0.069,-0.281,-0.212,0.175,0.071,-0.246,0.06,0.015,-0.1,-0.05,-0.01,0.034
-0.061,-0.285,-0.224,0.173,0.082,-0.254,0.059,0.023,-0.103,-0.04,-0.001,0.044
-0.061,-0.279,-0.218,0.17,0.078,-0.249,0.084,0.07,-0.085,-0.038,-0.01,0.037
-0.06,-0.28,-0.22,0.17,0.08,-0.25,0.075,0.069,-0.089,-0.033,-0.002,0.035
-0.061,-0.281,-0.22,0.171,0.079,-0.25,0.084,0.084,-0.07,-0.028,0.001,0.035
-0.067,-0.279,-0.213,0.174,0.073,-0.245,0.083,0.08,-0.074,-0.022,0.002,0.036
-0.053,-0.275,-0.222,0.164,0.085,-0.248,0.086,0.088,-0.059,-0.012,0.011,0.044
-0.071,-0.29,-0.219,0.181,0.074,-0.254,0.085,0.084,-0.055,-0.006,0.009,0.045
-0.06,-0.28,-0.22,0.17,0.08,-0.25,0.084,0.102,-0.041,0.003,0.021,0.051
-0.033,-0.263,-0.23,0.148,0.099,-0.246,0.086,0.114,-0.034,0.012,0.025,0.057
-0.024,-0.261,-0.236,0.143,0.106,-0.248,0.081,0.116,-0.012,0.031,0.045,0.067
-0.018,-0.252,-0.234,0.135,0.109,-0.243,0.075,0.143,0.014,0.039,0.065,0.079
-0.008,-0.243,-0.235,0.126,0.114,-0.239,0.067,0.15,0.025,0.05,0.077,0.092
0.007,-0.228,-0.235,0.111,0.121,-0.232,0.061,0.17,0.051,0.06,0.091,0.099
0.021,-0.213,-0.234,0.096,0.128,-0.223,0.051,0.201,0.085,0.089,0.113,0.118
0.044,-0.187,-0.231,0.071,0.138,-0.209,0.047,0.241,0.135,0.132,0.145,0.148
0.084,-0.144,-0.228,0.03,0.156,-0.186,0.021,0.297,0.2,0.177,0.197,0.191
0.117,-0.108,-0.225,-0.004,0.171,-0.166,-0.02,0.358,0.277,0.245,0.267,0.251
0.159,-0.063,-0.222,-0.048,0.191,-0.143,-0.049,0.425,0.359,0.308,0.329,0.307
0.22,0.001,-0.22,-0.111,0.22,-0.109,-0.081,0.487,0.446,0.388,0.402,0.371
0.263,0.045,-0.218,-0.154,0.24,-0.086,-0.099,0.539,0.518,0.453,0.461,0.425
0.299,0.089,-0.21,-0.194,0.255,-0.061,-0.108,0.562,0.564,0.49,0.497,0.448
0.313,0.109,-0.204,-0.211,0.258,-0.047,-0.107,0.575,0.574,0.518,0.52,0.457
0.281,0.084,-0.197,-0.182,0.239,-0.056,-0.082,0.549,0.545,0.493,0.483,0.435
0.226,0.035,-0.191,-0.131,0.208,-0.078,-0.039,0.483,0.481,0.44,0.413,0.372
0.154,-0.04,-0.195,-0.057,0.174,-0.117,0.004,0.401,0.358,0.353,0.32,0.286
0.091,-0.107,-0.198,0.008,0.145,-0.152,0.044,0.296,0.251,0.254,0.231,0.206
0.027,-0.177,-0.204,0.075,0.115,-0.19,0.069,0.222,0.16,0.176,0.164,0.151
-0.015,-0.225,-0.21,0.12,0.098,-0.217,0.071,0.174,0.093,0.115,0.107,0.112
-0.024,-0.25,-0.227,0.137,0.102,-0.238,0.086,0.142,0.058,0.08,0.081,0.083
-0.026,-0.267,-0.242,0.146,0.108,-0.254,0.092,0.126,0.022,0.064,0.069,0.073
-0.025,-0.264,-0.239,0.144,0.107,-0.251,0.088,0.114,0.014,0.06,0.062,0.069
-0.046,-0.288,-0.243,0.167,0.098,-0.265,0.092,0.114,0.016,0.056,0.056,0.064
-0.04,-0.285,-0.245,0.163,0.103,-0.264,0.088,0.115,0.012,0.051,0.049,0.06
-0.045,-0.29,-0.245,0.168,0.1,-0.267,0.094,0.115,0.01,0.047,0.043,0.055
-0.071,-0.312,-0.241,0.192,0.085,-0.276,0.105,0.115,0.01,0.042,0.037,0.052
-0.064,-0.299,-0.235,0.182,0.086,-0.266,0.105,0.117,0.007,0.04,0.035,0.049
-0.065,-0.294,-0.23,0.18,0.083,-0.262,0.105,0.12,0.002,0.04,0.035,0.051
-0.063,-0.288,-0.225,0.176,0.081,-0.256,0.105,0.12,-0.001,0.04,0.035,0.049
-0.062,-0.279,-0.217,0.171,0.078,-0.248,0.106,0.12,-0.005,0.04,0.035,0.053
-0.066,-0.283,-0.217,0.175,0.076,-0.25,0.104,0.114,-0.009,0.04,0.035,0.061
-0.064,-0.298,-0.234,0.181,0.085,-0.265,0.098,0.107,-0.011,0.034,0.029,0.06
-0.067,-0.301,-0.235,0.184,0.084,-0.268,0.092,0.101,-0.018,0.028,0.023,0.059
-0.069,-0.304,-0.235,0.187,0.084,-0.27,0.087,0.094,-0.023,0.024,0.019,0.055
-0.072,-0.306,-0.234,0.19,0.081,-0.27,0.082,0.087,-0.028,0.017,0.012,0.055
-0.073,-0.311,-0.237,0.192,0.082,-0.273,0.074,0.082,-0.034,0.012,0.007,0.054
-0.046,-0.308,-0.262,0.178,0.108,-0.285,0.09,0.08,-0.039,0.007,0.002,0.049
-0.038,-0.305,-0.266,0.172,0.114,-0.285,0.1,0.077,-0.044,0.004,0.0,0.05
-0.042,-0.306,-0.264,0.174,0.112,-0.285,0.092,0.074,-0.045,0.005,0.0,0.05
-0.037,-0.302,-0.266,0.17,0.115,-0.284,0.087,0.071,-0.045,0.005,0.0,0.05
-0.058,-0.322,-0.264,0.19,0.104,-0.293,0.082,0.069,-0.05,0.005,0.0,0.05
-0.046,-0.31,-0.264,0.179,0.109,-0.287,0.075,0.07,-0.05,0.005,0.0,0.05
-0.044,-0.304,-0.259,0.174,0.108,-0.281,0.077,0.069,-0.05,0.0,0.0,0.05
-0.061,-0.32,-0.26,0.19,0.1,-0.29,0.096,0.07,-0.05,-0.003,0.0,0.05
-0.059,-0.32,-0.261,0.19,0.101,-0.29,0.102,0.069,-0.05,-0.008,0.0,0.05
-0.067,-0.326,-0.259,0.196,0.096,-0.292,0.099,0.07,-0.05,-0.01,0.0,0.049
-0.058,-0.32,-0.262,0.189,0.102,-0.291,0.101,0.072,-0.051,-0.014,-0.001,0.051
-0.067,-0.32,-0.253,0.194,0.093,-0.286,0.1,0.076,-0.05,-0.016,0.003,0.056
-0.059,-0.317,-0.258,0.188,0.1,-0.287,0.101,0.082,-0.045,-0.019,0.008,0.06
-0.037,-0.316,-0.28,0.177,0.122,-0.298,0.109,0.092,-0.035,-0.021,0.015,0.065
-0.028,-0.309,-0.281,0.168,0.127,-0.294,0.111,0.11,-0.024,0.0,0.02,0.068
0.006,-0.274,-0.279,0.134,0.143,-0.276,0.125,0.132,-0.015,0.027,0.024,0.078
0.029,-0.251,-0.281,0.111,0.155,-0.265,0.135,0.181,0.033,0.049,0.042,0.098
0.018,-0.263,-0.28,0.123,0.15,-0.271,0.123,0.19,0.047,0.048,0.04,0.101
0.029,-0.247,-0.276,0.109,0.153,-0.261,0.104,0.134,0.013,0.036,0.024,0.098
0.01,-0.28,-0.29,0.135,0.15,-0.285,0.096,0.106,-0.009,0.018,0.012,0.093
-0.029,-0.337,-0.308,0.184,0.14,-0.322,0.088,0.085,-0.028,-0.008,0.004,0.079
-0.064,-0.364,-0.3,0.214,0.118,-0.331,0.091,0.085,-0.032,-0.017,-0.002,0.063
-0.058,-0.355,-0.297,0.207,0.12,-0.326,0.092,0.082,-0.03,-0.02,-0.011,0.049
-0.053,-0.349,-0.296,0.202,0.122,-0.323,0.085,0.075,-0.028,-0.023,-0.016,0.052
-0.088,-0.374,-0.285,0.231,0.099,-0.329,0.1,0.082,-0.026,-0.028,-0.027,0.046
-0.026,-0.325,-0.3,0.176,0.137,-0.312,0.073,0.064,-0.021,-0.022,-0.015,0.055
-0.107,-0.397,-0.29,0.252,0.092,-0.343,0.135,0.12,-0.037,-0.033,-0.039,0.036
-0.051,-0.361,-0.31,0.206,0.13,-0.335,0.22,0.26,-0.048,-0.07,-0.098,-0.031
-0.059,-0.276,-0.217,0.168,0.079,-0.246,0.185,0.472,0.081,0.085,0.069,0.136
0.502,0.547,0.045,-0.525,0.228,0.296,-0.253,0.127,0.69,0.824,0.776,0.786
0.581,0.674,0.093,-0.628,0.244,0.383,-0.675,-0.669,1.238,1.481,1.323,1.202
0.521,0.551,0.03,-0.536,0.245,0.291,-0.45,-0.84,0.833,1.091,0.878,0.75
