-0.037,-0.03,0.008,0.033,-0.023,-0.011,-0.03,-0.056,-0.025,-0.03,0.05,-0.05
-0.023,-0.025,-0.002,0.024,-0.01,-0.013,-0.031,-0.062,-0.025,-0.03,0.05,-0.05
-0.041,-0.021,0.019,0.031,-0.03,-0.001,-0.028,-0.066,-0.026,-0.03,0.05,-0.05
-0.058,-0.019,0.039,0.038,-0.048,0.01,-0.031,-0.064,-0.03,-0.03,0.046,-0.05
-0.047,-0.014,0.034,0.03,-0.04,0.01,-0.047,-0.069,-0.03,-0.031,0.045,-0.05
-0.047,-0.012,0.034,0.029,-0.041,0.011,-0.043,-0.07,-0.034,-0.029,0.045,-0.049
-0.032,-0.002,0.03,0.017,-0.031,0.013,-0.04,-0.07,-0.035,-0.034,0.045,-0.046
-0.02,0.01,0.03,0.005,-0.025,0.02,-0.038,-0.07,-0.035,-0.045,0.045,-0.045
-0.027,0.001,0.028,0.013,-0.028,0.014,-0.034,-0.07,-0.035,-0.045,0.045,-0.045
-0.036,-0.013,0.023,0.024,-0.029,0.005,-0.038,-0.071,-0.035,-0.045,0.045,-0.045
-0.04,-0.02,0.02,0.03,-0.03,0.0,-0.044,-0.068,-0.037,-0.044,0.045,-0.045
-0.049,-0.033,0.016,0.041,-0.033,-0.008,-0.05,-0.079,-0.044,-0.051,0.042,-0.047
-0.053,-0.04,0.013,0.046,-0.033,-0.014,-0.05,-0.091,-0.05,-0.061,0.039,-0.05
-0.045,-0.036,0.009,0.04,-0.027,-0.013,-0.051,-0.089,-0.05,-0.059,0.04,-0.051
-0.054,-0.032,0.022,0.043,-0.038,-0.005,-0.055,-0.09,-0.05,-0.06,0.036,-0.055
-0.055,-0.029,0.027,0.042,-0.041,-0.001,-0.055,-0.09,-0.05,-0.06,0.035,-0.055
-0.046,-0.025,0.021,0.035,-0.033,-0.002,-0.053,-0.09,-0.05,-0.06,0.034,-0.05
-0.04,-0.021,0.019,0.031,-0.03,-0.001,-0.05,-0.094,-0.054,-0.064,0.031,-0.05
-0.053,-0.038,0.014,0.045,-0.033,-0.012,-0.047,-0.095,-0.055,-0.065,0.028,-0.049
-0.057,-0.046,0.011,0.051,-0.033,-0.017,-0.044,-0.095,-0.055,-0.066,0.025,-0.051
-0.042,-0.035,0.007,0.039,-0.025,-0.014,-0.04,-0.095,-0.055,-0.069,0.023,-0.049
-0.04,-0.036,0.005,0.037,-0.022,-0.015,-0.04,-0.095,-0.054,-0.071,0.019,-0.052
-0.031,-0.027,0.004,0.028,-0.017,-0.011,-0.045,-0.094,-0.056,-0.068,0.023,-0.065
-0.027,-0.028,-0.001,0.028,-0.013,-0.014,-0.045,-0.09,-0.06,-0.065,0.025,-0.062
-0.044,-0.044,0.0,0.044,-0.022,-0.021,-0.045,-0.09,-0.06,-0.065,0.025,-0.056
-0.06,-0.044,0.016,0.052,-0.038,-0.014,-0.045,-0.09,-0.06,-0.063,0.025,-0.053
-0.06,-0.038,0.022,0.049,-0.041,-0.008,-0.045,-0.089,-0.06,-0.059,0.025,-0.047
-0.05,-0.036,0.014,0.043,-0.032,-0.011,-0.045,-0.091,-0.06,-0.06,0.025,-0.046
-0.042,-0.031,0.011,0.036,-0.026,-0.01,-0.045,-0.085,-0.057,-0.063,0.02,-0.052
-0.035,-0.028,0.007,0.031,-0.021,-0.011,-0.045,-0.088,-0.054,-0.072,0.02,-0.059
-0.025,-0.026,0.0,0.025,-0.012,-0.013,-0.045,-0.096,-0.055,-0.075,0.019,-0.057
-0.032,-0.023,0.009,0.027,-0.02,-0.007,-0.045,-0.095,-0.054,-0.077,0.014,-0.054
-0.057,-0.043,0.014,0.05,-0.036,-0.014,-0.045,-0.095,-0.056,-0.08,0.016,-0.055
-0.046,-0.039,0.007,0.042,-0.026,-0.016,-0.04,-0.095,-0.053,-0.083,0.012,-0.055
-0.044,-0.041,0.003,0.042,-0.023,-0.019,-0.04,-0.095,-0.05,-0.086,0.01,-0.055
-0.057,-0.061,-0.004,0.06,-0.026,-0.033,-0.04,-0.094,-0.05,-0.081,0.01,-0.056
-0.031,-0.038,-0.007,0.035,-0.011,-0.023,-0.04,-0.09,-0.05,-0.08,0.006,-0.06
-0.01,-0.032,-0.022,0.021,0.007,-0.027,-0.041,-0.088,-0.05,-0.08,0.004,-0.063
-0.009,-0.04,-0.031,0.025,0.011,-0.035,-0.037,-0.084,-0.049,-0.075,0.006,-0.065
-0.019,-0.038,-0.02,0.029,0.001,-0.029,-0.035,-0.082,-0.055,-0.075,0.009,-0.069
-0.028,-0.037,-0.009,0.033,-0.009,-0.023,-0.034,-0.079,-0.058,-0.075,0.012,-0.07
-0.029,-0.025,0.004,0.027,-0.016,-0.01,-0.032,-0.082,-0.055,-0.075,0.014,-0.067
-0.021,-0.023,-0.002,0.022,-0.009,-0.012,-0.028,-0.079,-0.055,-0.075,0.018,-0.064
-0.022,-0.044,-0.023,0.033,0.001,-0.033,-0.032,-0.073,-0.055,-0.075,0.02,-0.061
-0.029,-0.041,-0.011,0.035,-0.009,-0.026,-0.033,-0.069,-0.055,-0.074,0.02,-0.058
-0.013,-0.012,0.001,0.013,-0.007,-0.005,-0.035,-0.062,-0.056,-0.076,0.02,-0.056
0.001,0.006,0.005,-0.004,-0.002,0.006,-0.055,-0.058,-0.048,-0.064,0.03,-0.054
0.009,0.025,0.016,-0.017,-0.004,0.02,-0.062,-0.05,-0.025,-0.036,0.048,-0.039
0.017,0.039,0.022,-0.029,-0.002,0.03,-0.059,-0.045,0.004,-0.005,0.064,-0.022
0.031,0.066,0.035,-0.049,-0.002,0.05,-0.061,-0.024,0.039,0.024,0.082,-0.004
0.045,0.059,0.014,-0.052,0.015,0.036,-0.096,-0.027,0.022,0.01,0.076,0.008
0.025,0.027,0.002,-0.026,0.011,0.014,-0.115,-0.074,-0.027,-0.029,0.048,-0.002
0.038,0.019,-0.018,-0.028,0.028,0.0,-0.101,-0.081,-0.033,-0.051,0.038,-0.015
0.043,-0.005,-0.049,-0.019,0.046,-0.027,-0.09,-0.079,-0.046,-0.056,0.03,-0.025
0.0,-0.023,-0.024,0.012,0.012,-0.023,-0.063,-0.085,-0.058,-0.055,0.021,-0.035
-0.021,-0.045,-0.024,0.033,0.002,-0.034,-0.048,-0.086,-0.066,-0.069,0.012,-0.056
-0.022,-0.054,-0.032,0.038,0.005,-0.043,-0.043,-0.095,-0.079,-0.084,0.004,-0.065
-0.027,-0.064,-0.037,0.046,0.005,-0.05,-0.035,-0.089,-0.073,-0.089,-0.005,-0.07
-0.047,-0.078,-0.03,0.063,-0.008,-0.053,-0.03,-0.083,-0.071,-0.093,-0.009,-0.079
-0.043,-0.067,-0.024,0.055,-0.01,-0.045,-0.022,-0.076,-0.062,-0.086,-0.002,-0.079
-0.036,-0.066,-0.03,0.051,-0.003,-0.048,-0.024,-0.068,-0.06,-0.094,-0.008,-0.09
-0.039,-0.05,-0.011,0.045,-0.014,-0.03,-0.023,-0.066,-0.051,-0.087,-0.001,-0.079
-0.053,-0.058,-0.005,0.055,-0.024,-0.031,0.011,-0.046,-0.042,-0.075,-0.009,-0.094
-0.148,-0.028,0.12,0.088,-0.133,0.045,0.105,0.087,0.102,0.025,0.028,-0.139
-0.125,-0.008,0.118,0.066,-0.122,0.055,0.095,0.161,0.267,0.19,0.167,-0.048
0.451,0.152,-0.299,-0.301,0.374,-0.073,-0.359,-0.212,0.096,0.353,0.62,0.562
0.941,0.415,-0.526,-0.678,0.733,-0.056,-0.868,-0.813,-0.296,0.341,0.94,1.169
0.615,0.372,-0.243,-0.493,0.429,0.064,-0.864,-1.247,-0.959,-0.335,0.32,0.797
0.205,0.092,-0.113,-0.149,0.159,-0.01,-0.557,-1.048,-1.159,-0.835,-0.342,0.123
0.068,-0.145,-0.213,0.038,0.141,-0.179,-0.223,-0.356,-0.539,-0.529,-0.312,-0.129
0.014,-0.105,-0.119,0.045,0.067,-0.112,-0.045,-0.037,-0.124,-0.179,-0.081,-0.116
0.023,-0.031,-0.054,0.004,0.039,-0.042,-0.026,0.009,0.003,-0.048,0.02,-0.057
-0.008,-0.032,-0.024,0.02,0.008,-0.028,-0.024,0.02,0.053,-0.019,0.029,-0.048
0.007,0.007,0.0,-0.007,0.003,0.004,-0.024,0.019,0.058,0.001,0.06,-0.035
0.04,0.0,-0.04,-0.02,0.04,-0.019,-0.019,0.063,0.103,0.01,0.064,-0.032
0.019,-0.007,-0.026,-0.006,0.023,-0.016,-0.021,0.058,0.11,0.018,0.073,-0.024
0.006,-0.014,-0.02,0.004,0.013,-0.016,-0.016,0.06,0.109,0.039,0.076,-0.017
0.013,-0.007,-0.021,-0.003,0.017,-0.014,-0.014,0.06,0.11,0.038,0.074,-0.013
0.021,-0.003,-0.025,-0.009,0.023,-0.014,-0.015,0.079,0.128,0.061,0.091,-0.008
0.019,0.001,-0.018,-0.01,0.018,-0.008,-0.01,0.095,0.145,0.076,0.096,-0.006
0.023,0.032,0.008,-0.027,0.007,0.02,-0.011,0.094,0.149,0.08,0.104,-0.002
0.047,0.036,-0.011,-0.042,0.029,0.012,-0.009,0.115,0.163,0.094,0.12,0.003
0.08,0.033,-0.047,-0.056,0.063,-0.007,-0.005,0.134,0.188,0.099,0.123,0.005
0.083,0.038,-0.045,-0.06,0.063,-0.003,-0.005,0.155,0.211,0.123,0.126,0.012
0.068,0.028,-0.04,-0.048,0.053,-0.005,-0.003,0.169,0.231,0.144,0.143,0.022
0.087,0.047,-0.04,-0.067,0.063,0.004,0.001,0.195,0.263,0.165,0.158,0.033
0.1,0.067,-0.033,-0.083,0.066,0.017,0.0,0.239,0.304,0.205,0.189,0.043
0.117,0.079,-0.038,-0.098,0.077,0.02,-0.003,0.278,0.349,0.235,0.214,0.05
0.131,0.08,-0.051,-0.106,0.091,0.014,-0.008,0.333,0.407,0.278,0.241,0.068
0.127,0.085,-0.042,-0.106,0.084,0.022,-0.01,0.393,0.472,0.33,0.283,0.093
0.169,0.13,-0.039,-0.15,0.104,0.045,-0.015,0.459,0.542,0.399,0.328,0.124
0.193,0.152,-0.041,-0.172,0.116,0.055,-0.018,0.517,0.611,0.461,0.372,0.153
0.238,0.202,-0.036,-0.22,0.137,0.083,-0.021,0.564,0.685,0.524,0.422,0.194
0.278,0.243,-0.035,-0.26,0.156,0.103,-0.028,0.601,0.753,0.593,0.481,0.252
0.297,0.264,-0.034,-0.28,0.165,0.115,-0.05,0.589,0.769,0.622,0.52,0.296
0.339,0.301,-0.038,-0.32,0.188,0.132,-0.088,0.535,0.74,0.621,0.53,0.334
0.321,0.293,-0.028,-0.306,0.174,0.132,-0.121,0.456,0.687,0.583,0.532,0.352
0.339,0.277,-0.062,-0.308,0.2,0.107,-0.156,0.36,0.607,0.529,0.51,0.351
0.368,0.26,-0.108,-0.314,0.238,0.076,-0.17,0.267,0.506,0.458,0.462,0.346
0.323,0.229,-0.094,-0.276,0.208,0.068,-0.157,0.186,0.385,0.363,0.397,0.299
0.254,0.174,-0.079,-0.214,0.166,0.047,-0.152,0.11,0.27,0.267,0.312,0.232
0.216,0.124,-0.092,-0.17,0.154,0.016,-0.137,0.056,0.178,0.179,0.235,0.167
0.165,0.092,-0.073,-0.128,0.119,0.009,-0.102,0.026,0.1,0.112,0.16,0.097
0.105,0.054,-0.05,-0.079,0.077,0.002,-0.071,0.004,0.048,0.059,0.105,0.05
0.08,0.019,-0.061,-0.049,0.07,-0.021,-0.054,-0.023,0.014,0.022,0.073,0.011
0.03,-0.015,-0.045,-0.007,0.037,-0.03,-0.047,-0.033,-0.003,-0.009,0.042,-0.017
0.016,-0.033,-0.049,0.009,0.033,-0.041,-0.043,-0.029,-0.011,-0.042,0.018,-0.033
0.007,-0.048,-0.055,0.02,0.031,-0.051,-0.039,-0.024,-0.019,-0.046,0.007,-0.042
-0.017,-0.057,-0.04,0.037,0.012,-0.048,-0.034,-0.02,-0.032,-0.047,0.003,-0.047
-0.009,-0.054,-0.044,0.032,0.018,-0.049,-0.03,-0.035,-0.041,-0.051,-0.003,-0.051
-0.028,-0.056,-0.028,0.042,0.001,-0.042,-0.025,-0.042,-0.04,-0.051,-0.009,-0.053
-0.018,-0.055,-0.037,0.036,0.01,-0.045,-0.024,-0.039,-0.044,-0.056,-0.014,-0.056
0.0,-0.055,-0.055,0.028,0.028,-0.055,-0.019,-0.037,-0.052,-0.055,-0.012,-0.059
-0.01,-0.058,-0.048,0.035,0.019,-0.053,-0.023,-0.034,-0.054,-0.055,-0.01,-0.061
-0.002,-0.061,-0.059,0.032,0.028,-0.06,-0.043,-0.036,-0.05,-0.055,-0.01,-0.06
-0.01,-0.064,-0.054,0.038,0.022,-0.059,-0.037,-0.035,-0.046,-0.055,-0.01,-0.06
-0.009,-0.067,-0.057,0.038,0.025,-0.062,-0.031,-0.035,-0.042,-0.052,-0.01,-0.06
-0.01,-0.07,-0.06,0.041,0.025,-0.065,-0.036,-0.035,-0.036,-0.05,-0.012,-0.06
-0.029,-0.069,-0.041,0.049,0.006,-0.054,-0.035,-0.035,-0.031,-0.05,-0.024,-0.061
-0.022,-0.063,-0.041,0.043,0.01,-0.051,-0.035,-0.035,-0.028,-0.045,-0.026,-0.057
-0.004,-0.056,-0.052,0.03,0.024,-0.054,-0.035,-0.035,-0.022,-0.045,-0.022,-0.055
0.003,-0.049,-0.052,0.023,0.028,-0.051,-0.035,-0.035,-0.021,-0.045,-0.02,-0.051
0.001,-0.042,-0.043,0.021,0.022,-0.042,-0.032,-0.035,-0.03,-0.045,-0.016,-0.049
0.005,-0.036,-0.041,0.016,0.023,-0.038,-0.029,-0.035,-0.03,-0.045,-0.015,-0.045
-0.006,-0.038,-0.032,0.022,0.013,-0.035,-0.026,-0.035,-0.031,-0.045,-0.018,-0.045
-0.017,-0.047,-0.03,0.032,0.007,-0.038,-0.023,-0.036,-0.035,-0.045,-0.021,-0.055
-0.004,-0.05,-0.046,0.027,0.021,-0.048,-0.02,-0.039,-0.035,-0.045,-0.019,-0.056
-0.01,-0.057,-0.047,0.034,0.019,-0.052,-0.021,-0.04,-0.038,-0.049,-0.021,-0.054
-0.031,-0.069,-0.038,0.05,0.004,-0.053,-0.025,-0.04,-0.04,-0.05,-0.018,-0.055
-0.034,-0.071,-0.036,0.053,0.001,-0.053,-0.025,-0.04,-0.043,-0.05,-0.025,-0.055
-0.043,-0.069,-0.026,0.056,-0.008,-0.048,-0.025,-0.04,-0.046,-0.055,-0.04,-0.055
-0.037,-0.066,-0.028,0.052,-0.004,-0.047,-0.025,-0.04,-0.05,-0.055,-0.04,-0.057
-0.019,-0.065,-0.046,0.042,0.014,-0.055,-0.025,-0.04,-0.05,-0.056,-0.04,-0.06
-0.02,-0.064,-0.044,0.042,0.013,-0.054,-0.021,-0.039,-0.046,-0.06,-0.04,-0.06
-0.025,-0.059,-0.034,0.042,0.005,-0.046,-0.019,-0.045,-0.043,-0.059,-0.04,-0.06
-0.025,-0.056,-0.031,0.041,0.003,-0.043,-0.02,-0.051,-0.04,-0.063,-0.038,-0.06
-0.011,-0.053,-0.041,0.032,0.015,-0.047,-0.02,-0.05,-0.037,-0.065,-0.034,-0.06
-0.007,-0.048,-0.042,0.028,0.018,-0.045,-0.02,-0.05,-0.034,-0.065,-0.036,-0.06
-0.014,-0.045,-0.03,0.03,0.009,-0.037,-0.019,-0.05,-0.037,-0.062,-0.034,-0.06
-0.029,-0.057,-0.028,0.043,0.0,-0.042,-0.015,-0.05,-0.04,-0.059,-0.036,-0.06
-0.045,-0.062,-0.016,0.054,-0.015,-0.039,-0.015,-0.046,-0.043,-0.06,-0.034,-0.06
-0.038,-0.058,-0.02,0.048,-0.008,-0.039,-0.015,-0.044,-0.046,-0.059,-0.031,-0.06
-0.038,-0.074,-0.036,0.056,-0.001,-0.055,-0.015,-0.045,-0.045,-0.061,-0.028,-0.06
-0.043,-0.078,-0.035,0.061,-0.004,-0.056,-0.015,-0.045,-0.045,-0.058,-0.025,-0.06
-0.032,-0.067,-0.035,0.05,0.002,-0.05,-0.011,-0.046,-0.045,-0.055,-0.023,-0.06
-0.035,-0.065,-0.03,0.05,-0.002,-0.047,-0.01,-0.044,-0.045,-0.05,-0.018,-0.06
-0.035,-0.065,-0.03,0.05,-0.002,-0.047,-0.01,-0.04,-0.045,-0.048,-0.027,-0.06
-0.036,-0.065,-0.029,0.051,-0.003,-0.047,-0.005,-0.035,-0.043,-0.043,-0.036,-0.059
-0.042,-0.064,-0.022,0.053,-0.009,-0.043,-0.005,-0.033,-0.04,-0.04,-0.035,-0.056
-0.048,-0.066,-0.018,0.057,-0.015,-0.041,-0.004,-0.028,-0.04,-0.056,-0.035,-0.053
-0.051,-0.063,-0.012,0.058,-0.019,-0.038,0.0,-0.025,-0.04,-0.062,-0.035,-0.05
-0.051,-0.058,-0.007,0.055,-0.022,-0.032,0.002,-0.03,-0.04,-0.059,-0.035,-0.047
-0.053,-0.052,0.001,0.053,-0.027,-0.025,0.006,-0.029,-0.04,-0.061,-0.032,-0.044
-0.032,-0.048,-0.015,0.04,-0.008,-0.031,0.008,-0.022,-0.039,-0.06,-0.029,-0.047
-0.008,-0.041,-0.033,0.025,0.013,-0.037,0.011,-0.018,-0.044,-0.06,-0.026,-0.051
-0.008,-0.035,-0.027,0.021,0.01,-0.031,0.003,-0.011,-0.05,-0.055,-0.024,-0.05
-0.042,-0.066,-0.024,0.054,-0.009,-0.045,-0.009,-0.006,-0.05,-0.055,-0.019,-0.05
-0.062,-0.084,-0.022,0.073,-0.02,-0.053,-0.01,-0.009,-0.05,-0.055,-0.023,-0.05
-0.063,-0.077,-0.014,0.071,-0.024,-0.045,-0.01,-0.015,-0.05,-0.055,-0.035,-0.05
-0.065,-0.085,-0.021,0.076,-0.022,-0.053,-0.01,-0.021,-0.05,-0.055,-0.035,-0.055
-0.049,-0.084,-0.035,0.067,-0.007,-0.059,-0.01,-0.024,-0.046,-0.053,-0.035,-0.055
-0.058,-0.085,-0.028,0.072,-0.015,-0.056,-0.01,-0.021,-0.041,-0.048,-0.035,-0.057
-0.059,-0.08,-0.02,0.07,-0.019,-0.05,-0.007,-0.017,-0.036,-0.042,-0.035,-0.06
-0.062,-0.077,-0.015,0.07,-0.024,-0.045,-0.004,-0.016,-0.033,-0.039,-0.035,-0.061
-0.06,-0.069,-0.008,0.065,-0.026,-0.038,-0.001,-0.01,-0.027,-0.033,-0.027,-0.056
-0.025,-0.029,-0.004,0.028,-0.01,-0.016,0.002,-0.011,-0.023,-0.031,-0.022,-0.039
-0.004,-0.003,0.001,0.004,-0.003,-0.001,0.005,-0.002,-0.016,-0.018,-0.014,-0.027
0.014,0.018,0.004,-0.017,0.005,0.011,0.007,0.012,0.003,0.002,0.01,-0.018
0.013,0.024,0.011,-0.018,0.0,0.017,0.009,0.025,0.022,0.018,0.03,-0.007
0.035,0.039,0.004,-0.037,0.015,0.022,-0.006,0.051,0.053,0.037,0.059,0.001
0.051,0.05,-0.001,-0.05,0.026,0.024,-0.036,0.025,0.041,0.016,0.058,0.009
0.018,0.0,-0.017,-0.009,0.018,-0.008,-0.037,-0.012,-0.002,-0.013,0.02,0.003
0.03,-0.015,-0.045,-0.007,0.038,-0.03,-0.027,-0.014,-0.012,-0.018,0.011,-0.008
0.018,-0.023,-0.042,0.003,0.03,-0.032,-0.018,-0.023,-0.023,-0.032,-0.002,-0.017
-0.008,-0.044,-0.036,0.026,0.014,-0.039,-0.01,-0.029,-0.032,-0.037,-0.012,-0.029
-0.023,-0.056,-0.033,0.04,0.005,-0.045,-0.002,-0.036,-0.051,-0.051,-0.024,-0.042
-0.048,-0.075,-0.027,0.062,-0.011,-0.051,0.004,-0.04,-0.076,-0.076,-0.046,-0.06
-0.053,-0.077,-0.024,0.066,-0.014,-0.05,0.011,-0.034,-0.073,-0.08,-0.051,-0.074
-0.054,-0.072,-0.019,0.063,-0.017,-0.045,0.02,-0.033,-0.078,-0.081,-0.05,-0.069
-0.056,-0.07,-0.014,0.064,-0.021,-0.042,0.023,-0.03,-0.071,-0.078,-0.049,-0.07
-0.059,-0.07,-0.011,0.065,-0.024,-0.04,0.038,-0.024,-0.079,-0.083,-0.052,-0.071
-0.083,-0.088,-0.005,0.086,-0.039,-0.046,0.022,-0.031,-0.072,-0.077,-0.046,-0.067
-0.104,-0.086,0.018,0.095,-0.061,-0.033,0.06,0.015,-0.034,-0.056,-0.045,-0.082
-0.155,-0.021,0.134,0.088,-0.144,0.056,0.18,0.18,0.129,0.06,0.0,-0.12
-0.098,-0.01,0.088,0.054,-0.093,0.039,0.121,0.179,0.226,0.195,0.142,0.002
0.519,0.16,-0.359,-0.34,0.439,-0.099,-0.387,-0.273,-0.01,0.33,0.599,0.631
0.943,0.363,-0.58,-0.653,0.761,-0.108,-0.854,-0.863,-0.414,0.249,0.805,1.081
0.601,0.242,-0.359,-0.421,0.48,-0.058,-0.779,-1.233,-1.055,-0.457,0.106,0.638
0.257,-0.033,-0.291,-0.112,0.274,-0.162,-0.477,-0.926,-1.131,-0.844,-0.446,0.045
0.076,-0.198,-0.274,0.061,0.175,-0.236,-0.151,-0.233,-0.471,-0.455,-0.319,-0.135
0.001,-0.114,-0.115,0.057,0.059,-0.114,0.028,0.041,-0.097,-0.118,-0.09,-0.093
-0.017,-0.062,-0.045,0.04,0.014,-0.053,0.035,0.086,0.005,-0.02,-0.017,-0.063
-0.027,-0.054,-0.027,0.041,0.0,-0.041,0.049,0.098,0.041,-0.002,-0.019,-0.056
-0.021,-0.039,-0.018,0.03,-0.001,-0.028,0.066,0.1,0.053,0.016,0.003,-0.042
-0.045,-0.06,-0.014,0.053,-0.015,-0.037,0.066,0.12,0.078,0.041,0.016,-0.039
-0.046,-0.036,0.01,0.041,-0.028,-0.012,0.064,0.121,0.094,0.057,0.035,-0.028
-0.055,-0.045,0.011,0.05,-0.032,-0.017,0.066,0.142,0.099,0.072,0.041,-0.023
-0.045,-0.044,0.001,0.044,-0.023,-0.021,0.064,0.157,0.099,0.086,0.047,-0.016
-0.031,-0.034,-0.002,0.033,-0.014,-0.018,0.067,0.164,0.117,0.089,0.054,-0.011
-0.002,-0.021,-0.019,0.012,0.009,-0.02,0.07,0.17,0.126,0.094,0.059,-0.006
0.021,-0.006,-0.027,-0.007,0.024,-0.017,0.07,0.18,0.142,0.106,0.06,0.001
0.02,-0.005,-0.025,-0.007,0.023,-0.015,0.07,0.188,0.156,0.112,0.061,0.004
0.025,0.004,-0.021,-0.015,0.023,-0.008,0.07,0.205,0.177,0.133,0.069,0.013
0.029,0.008,-0.021,-0.019,0.025,-0.006,0.074,0.225,0.203,0.148,0.082,0.02
0.046,0.004,-0.043,-0.025,0.044,-0.019,0.075,0.243,0.226,0.166,0.102,0.03
0.046,0.004,-0.043,-0.025,0.044,-0.019,0.076,0.271,0.25,0.185,0.116,0.037
0.054,0.019,-0.035,-0.037,0.044,-0.008,0.08,0.313,0.294,0.217,0.139,0.047
0.077,0.045,-0.032,-0.061,0.054,0.007,0.081,0.361,0.348,0.264,0.16,0.067
0.082,0.059,-0.023,-0.07,0.052,0.017,0.079,0.419,0.404,0.309,0.199,0.084
0.093,0.07,-0.022,-0.081,0.057,0.024,0.073,0.485,0.476,0.36,0.239,0.103
0.099,0.103,0.004,-0.101,0.047,0.053,0.065,0.548,0.547,0.422,0.276,0.129
0.113,0.139,0.026,-0.126,0.043,0.082,0.06,0.607,0.62,0.493,0.333,0.165
0.157,0.183,0.027,-0.171,0.065,0.105,0.052,0.66,0.694,0.551,0.383,0.207
0.2,0.219,0.019,-0.21,0.09,0.119,0.043,0.687,0.751,0.612,0.441,0.255
0.217,0.24,0.024,-0.228,0.096,0.132,0.021,0.66,0.764,0.641,0.472,0.296
0.255,0.264,0.009,-0.26,0.123,0.137,-0.021,0.593,0.727,0.625,0.472,0.331
0.329,0.274,-0.055,-0.301,0.192,0.109,-0.049,0.514,0.666,0.592,0.468,0.352
0.341,0.263,-0.078,-0.301,0.209,0.092,-0.092,0.409,0.572,0.529,0.447,0.341
0.333,0.229,-0.103,-0.281,0.218,0.063,-0.129,0.298,0.459,0.452,0.398,0.334
0.31,0.191,-0.119,-0.25,0.214,0.036,-0.117,0.216,0.345,0.358,0.328,0.295
0.218,0.145,-0.073,-0.181,0.145,0.036,-0.103,0.136,0.232,0.262,0.261,0.228
0.161,0.094,-0.066,-0.128,0.114,0.014,-0.083,0.083,0.138,0.181,0.186,0.162
0.1,0.053,-0.047,-0.076,0.073,0.003,-0.054,0.041,0.072,0.111,0.116,0.088
0.031,0.01,-0.021,-0.02,0.026,-0.006,-0.03,0.014,0.024,0.06,0.067,0.039
0.016,-0.03,-0.046,0.007,0.031,-0.037,-0.01,0.017,-0.013,0.023,0.028,0.004
0.001,-0.035,-0.037,0.017,0.019,-0.036,-0.005,0.007,-0.039,-0.006,0.003,-0.018
-0.009,-0.04,-0.031,0.024,0.012,-0.035,0.014,-0.006,-0.061,-0.023,-0.01,-0.03
-0.028,-0.068,-0.04,0.048,0.006,-0.054,0.042,-0.019,-0.053,-0.032,-0.017,-0.039
-0.062,-0.071,-0.009,0.066,-0.027,-0.04,0.046,-0.021,-0.053,-0.046,-0.025,-0.042
-0.07,-0.069,0.001,0.07,-0.035,-0.034,0.045,-0.02,-0.076,-0.054,-0.033,-0.047
-0.039,-0.075,-0.036,0.058,-0.001,-0.055,0.045,-0.021,-0.075,-0.055,-0.035,-0.05
-0.033,-0.075,-0.042,0.054,0.005,-0.058,0.045,-0.02,-0.075,-0.055,-0.035,-0.05
-0.078,-0.074,0.004,0.076,-0.04,-0.035,0.045,-0.033,-0.075,-0.055,-0.037,-0.051
-0.074,-0.07,0.005,0.072,-0.04,-0.032,0.04,-0.034,-0.075,-0.055,-0.037,-0.046
-0.034,-0.068,-0.034,0.051,0.0,-0.051,0.036,-0.028,-0.073,-0.055,-0.035,-0.048
-0.036,-0.065,-0.029,0.051,-0.003,-0.047,0.03,-0.025,-0.069,-0.052,-0.035,-0.057
-0.028,-0.061,-0.033,0.045,0.002,-0.047,0.041,-0.02,-0.071,-0.046,-0.035,-0.054
-0.031,-0.061,-0.03,0.046,0.0,-0.045,0.052,-0.015,-0.066,-0.041,-0.035,-0.051
-0.03,-0.055,-0.025,0.043,-0.002,-0.04,0.045,-0.01,-0.065,-0.038,-0.035,-0.049
-0.037,-0.056,-0.019,0.047,-0.009,-0.037,0.043,-0.007,-0.064,-0.031,-0.035,-0.044
-0.069,-0.047,0.022,0.058,-0.045,-0.013,0.039,0.0,-0.061,-0.033,-0.035,-0.047
-0.074,-0.058,0.016,0.065,-0.045,-0.021,0.033,-0.003,-0.058,-0.041,-0.039,-0.057
-0.07,-0.072,-0.002,0.071,-0.034,-0.036,0.046,-0.008,-0.055,-0.04,-0.041,-0.056
-0.078,-0.05,0.027,0.064,-0.052,-0.011,0.057,-0.004,-0.053,-0.04,-0.037,-0.052
-0.097,-0.054,0.043,0.075,-0.07,-0.005,0.055,0.001,-0.048,-0.041,-0.035,-0.05
-0.06,-0.058,0.002,0.059,-0.031,-0.028,0.053,-0.011,-0.059,-0.039,-0.031,-0.046
-0.069,-0.053,0.016,0.061,-0.042,-0.019,0.05,-0.02,-0.066,-0.042,-0.03,-0.045
-0.084,-0.056,0.028,0.07,-0.056,-0.014,0.05,-0.021,-0.06,-0.048,-0.03,-0.045
-0.048,-0.055,-0.007,0.052,-0.02,-0.031,0.054,-0.019,-0.058,-0.051,-0.029,-0.045
-0.086,-0.054,0.031,0.07,-0.058,-0.011,0.055,-0.001,-0.054,-0.049,-0.031,-0.045
-0.095,-0.055,0.039,0.074,-0.067,-0.008,0.055,-0.001,-0.048,-0.05,-0.027,-0.045
-0.071,-0.045,0.026,0.058,-0.048,-0.009,0.055,-0.009,-0.061,-0.05,-0.036,-0.045
-0.082,-0.046,0.036,0.064,-0.059,-0.005,0.055,-0.011,-0.072,-0.049,-0.047,-0.046
-0.074,-0.07,0.004,0.072,-0.039,-0.033,0.055,-0.017,-0.066,-0.061,-0.044,-0.05
-0.07,-0.07,0.001,0.07,-0.035,-0.034,0.055,-0.02,-0.065,-0.071,-0.043,-0.05
-0.094,-0.068,0.026,0.081,-0.06,-0.021,0.055,-0.025,-0.061,-0.069,-0.039,-0.05
-0.089,-0.072,0.018,0.08,-0.053,-0.027,0.055,-0.025,-0.059,-0.07,-0.04,-0.05
-0.06,-0.073,-0.014,0.067,-0.023,-0.043,0.055,-0.026,-0.069,-0.07,-0.043,-0.05
-0.048,-0.076,-0.028,0.062,-0.009,-0.052,0.055,-0.03,-0.071,-0.07,-0.047,-0.054
-0.055,-0.071,-0.016,0.063,-0.019,-0.044,0.055,-0.03,-0.07,-0.067,-0.05,-0.056
-0.047,-0.068,-0.02,0.058,-0.013,-0.044,0.058,-0.028,-0.07,-0.064,-0.054,-0.06
-0.052,-0.064,-0.012,0.058,-0.019,-0.038,0.062,-0.024,-0.07,-0.061,-0.054,-0.059
-0.071,-0.06,0.011,0.066,-0.041,-0.025,0.065,-0.025,-0.07,-0.058,-0.049,-0.055
-0.076,-0.057,0.019,0.066,-0.047,-0.019,0.069,-0.025,-0.07,-0.055,-0.05,-0.055
-0.076,-0.053,0.023,0.064,-0.049,-0.015,0.069,-0.025,-0.07,-0.056,-0.047,-0.052
-0.063,-0.05,0.013,0.056,-0.038,-0.018,0.065,-0.025,-0.07,-0.064,-0.045,-0.05
-0.069,-0.05,0.019,0.059,-0.044,-0.015,0.063,-0.02,-0.07,-0.065,-0.045,-0.05
-0.063,-0.05,0.014,0.056,-0.038,-0.018,0.059,-0.017,-0.069,-0.065,-0.049,-0.053
-0.065,-0.051,0.014,0.058,-0.04,-0.018,0.057,-0.013,-0.072,-0.065,-0.05,-0.055
-0.094,-0.048,0.046,0.071,-0.07,-0.001,0.054,-0.01,-0.075,-0.065,-0.05,-0.055
-0.097,-0.057,0.04,0.076,-0.068,-0.008,0.058,-0.005,-0.077,-0.065,-0.054,-0.055
-0.095,-0.064,0.031,0.079,-0.063,-0.016,0.073,-0.007,-0.081,-0.065,-0.056,-0.055
-0.086,-0.059,0.027,0.072,-0.056,-0.016,0.074,-0.016,-0.076,-0.065,-0.053,-0.054
-0.075,-0.06,0.015,0.067,-0.045,-0.022,0.07,-0.024,-0.075,-0.065,-0.05,-0.05
-0.075,-0.06,0.014,0.067,-0.044,-0.023,0.067,-0.03,-0.075,-0.065,-0.047,-0.05
-0.053,-0.059,-0.006,0.056,-0.024,-0.032,0.062,-0.03,-0.075,-0.065,-0.045,-0.05
-0.06,-0.064,-0.004,0.062,-0.028,-0.034,0.059,-0.028,-0.076,-0.064,-0.042,-0.05
-0.096,-0.07,0.026,0.083,-0.061,-0.022,0.055,-0.024,-0.073,-0.06,-0.039,-0.05
-0.091,-0.067,0.024,0.079,-0.057,-0.021,0.055,-0.022,-0.07,-0.06,-0.037,-0.047
-0.082,-0.061,0.021,0.071,-0.051,-0.02,0.053,-0.019,-0.065,-0.06,-0.033,-0.044
-0.068,-0.05,0.018,0.059,-0.042,-0.016,0.066,-0.016,-0.064,-0.06,-0.032,-0.041
-0.051,-0.037,0.014,0.044,-0.032,-0.011,0.077,-0.014,-0.057,-0.06,-0.028,-0.038
-0.058,-0.041,0.017,0.049,-0.037,-0.012,0.07,-0.006,-0.057,-0.055,-0.026,-0.036
-0.052,-0.04,0.012,0.045,-0.031,-0.014,0.068,0.006,-0.04,-0.038,-0.022,-0.034
-0.034,-0.004,0.03,0.019,-0.032,0.013,0.064,0.024,0.0,-0.016,-0.001,-0.022
-0.007,0.031,0.038,-0.012,-0.023,0.034,0.06,0.028,0.014,0.016,0.028,-0.011
0.018,0.051,0.033,-0.035,-0.007,0.042,0.057,0.018,0.033,0.042,0.049,0.004
0.005,0.026,0.02,-0.016,-0.008,0.023,0.053,0.01,0.008,0.012,0.021,0.01
-0.008,-0.001,0.007,0.004,-0.008,0.003,0.051,0.0,-0.036,-0.032,-0.007,0.0
0.013,-0.01,-0.023,-0.001,0.018,-0.016,0.046,-0.008,-0.051,-0.051,-0.014,-0.012
-0.004,-0.043,-0.038,0.024,0.017,-0.04,0.044,-0.017,-0.06,-0.05,-0.026,-0.032
-0.033,-0.052,-0.019,0.043,-0.007,-0.035,0.067,-0.028,-0.061,-0.05,-0.034,-0.046
-0.043,-0.07,-0.026,0.057,-0.008,-0.048,0.078,-0.056,-0.093,-0.075,-0.054,-0.055
-0.064,-0.094,-0.03,0.079,-0.017,-0.062,0.072,-0.062,-0.101,-0.08,-0.067,-0.068
-0.062,-0.089,-0.028,0.076,-0.017,-0.058,0.08,-0.055,-0.1,-0.081,-0.067,-0.074
-0.064,-0.088,-0.024,0.076,-0.02,-0.056,0.098,-0.056,-0.1,-0.078,-0.06,-0.074
-0.065,-0.094,-0.029,0.08,-0.018,-0.061,0.11,-0.048,-0.1,-0.082,-0.063,-0.084
-0.064,-0.084,-0.02,0.074,-0.022,-0.052,0.08,-0.053,-0.101,-0.08,-0.053,-0.081
-0.089,-0.093,-0.004,0.091,-0.042,-0.048,0.096,-0.03,-0.082,-0.079,-0.059,-0.092
-0.152,-0.045,0.107,0.098,-0.129,0.031,0.212,0.101,0.037,-0.006,-0.031,-0.115
-0.202,-0.021,0.181,0.111,-0.192,0.08,0.275,0.238,0.235,0.165,0.075,-0.088
0.267,0.085,-0.183,-0.176,0.225,-0.049,-0.092,-0.057,0.114,0.297,0.414,0.372
0.931,0.346,-0.586,-0.638,0.758,-0.12,-0.672,-0.683,-0.241,0.336,0.798,1.025
0.742,0.341,-0.402,-0.541,0.572,-0.031,-0.767,-1.205,-0.848,-0.19,0.368,0.854
0.256,0.121,-0.134,-0.188,0.195,-0.006,-0.504,-1.189,-1.239,-0.795,-0.316,0.202
0.071,-0.129,-0.2,0.029,0.136,-0.164,-0.173,-0.527,-0.734,-0.622,-0.377,-0.119
-0.02,-0.158,-0.138,0.089,0.059,-0.147,0.054,-0.087,-0.208,-0.229,-0.17,-0.126
-0.031,-0.057,-0.026,0.045,-0.002,-0.041,0.102,-0.018,-0.042,-0.059,-0.042,-0.065
-0.061,-0.068,-0.007,0.065,-0.027,-0.038,0.117,0.022,0.019,-0.023,-0.028,-0.055
-0.069,-0.038,0.031,0.053,-0.049,-0.003,0.134,0.032,0.035,0.0,0.004,-0.043
-0.047,-0.027,0.021,0.037,-0.034,-0.002,0.141,0.049,0.068,0.021,0.03,-0.041
-0.059,-0.015,0.044,0.037,-0.051,0.014,0.131,0.051,0.067,0.026,0.04,-0.034
-0.05,-0.004,0.046,0.026,-0.048,0.021,0.129,0.055,0.08,0.041,0.05,-0.028
-0.031,0.0,0.031,0.016,-0.031,0.015,0.124,0.061,0.092,0.053,0.049,-0.024
-0.02,0.008,0.028,0.006,-0.024,0.017,0.119,0.08,0.102,0.056,0.057,-0.019
-0.006,0.007,0.014,-0.001,-0.01,0.01,0.116,0.081,0.109,0.056,0.053,-0.018
0.005,0.016,0.011,-0.011,-0.003,0.013,0.111,0.081,0.123,0.08,0.061,-0.014
0.017,0.021,0.005,-0.019,0.006,0.013,0.109,0.091,0.139,0.09,0.075,-0.012
0.029,0.031,0.002,-0.03,0.013,0.016,0.105,0.102,0.151,0.096,0.085,-0.009
0.037,0.032,-0.004,-0.034,0.02,0.014,0.099,0.128,0.175,0.13,0.095,-0.006
0.032,0.029,-0.003,-0.031,0.017,0.013,0.108,0.145,0.194,0.146,0.105,0.004
0.012,0.018,0.007,-0.015,0.002,0.012,0.117,0.169,0.219,0.153,0.121,0.011
0.019,0.031,0.012,-0.026,0.004,0.021,0.114,0.205,0.251,0.18,0.141,0.025
0.045,0.065,0.02,-0.055,0.012,0.042,0.116,0.246,0.294,0.214,0.163,0.038
0.046,0.071,0.025,-0.059,0.01,0.048,0.115,0.297,0.354,0.263,0.198,0.051
0.058,0.083,0.025,-0.071,0.016,0.054,0.115,0.356,0.416,0.314,0.232,0.079
0.084,0.11,0.025,-0.097,0.029,0.067,0.11,0.418,0.482,0.363,0.271,0.104
0.128,0.151,0.023,-0.14,0.052,0.087,0.1,0.484,0.558,0.433,0.329,0.136
0.176,0.192,0.016,-0.184,0.08,0.103,0.093,0.547,0.632,0.494,0.383,0.174
0.216,0.225,0.009,-0.221,0.103,0.117,0.082,0.579,0.698,0.558,0.432,0.224
0.257,0.26,0.003,-0.259,0.127,0.131,0.064,0.569,0.724,0.592,0.476,0.267
0.28,0.275,-0.005,-0.277,0.142,0.135,0.035,0.532,0.716,0.581,0.484,0.297
0.289,0.28,-0.009,-0.284,0.149,0.135,-0.004,0.453,0.667,0.572,0.472,0.324
0.315,0.285,-0.03,-0.3,0.172,0.127,-0.04,0.349,0.58,0.526,0.458,0.324
0.332,0.275,-0.057,-0.303,0.194,0.109,-0.051,0.254,0.482,0.447,0.425,0.319
0.287,0.233,-0.054,-0.26,0.17,0.089,-0.041,0.175,0.366,0.36,0.369,0.293
0.227,0.182,-0.045,-0.204,0.135,0.068,-0.033,0.098,0.257,0.262,0.299,0.237
0.17,0.133,-0.036,-0.151,0.103,0.048,-0.024,0.026,0.159,0.176,0.227,0.168
0.103,0.081,-0.021,-0.092,0.062,0.03,-0.008,-0.013,0.076,0.105,0.167,0.103
0.055,0.046,-0.009,-0.05,0.031,0.019,0.007,-0.041,0.018,0.044,0.113,0.054
0.016,0.019,0.003,-0.018,0.006,0.011,0.032,-0.065,-0.022,0.003,0.062,0.005
-0.028,-0.019,0.009,0.023,-0.018,-0.005,0.059,-0.084,-0.048,-0.023,0.034,-0.019
-0.053,-0.038,0.016,0.045,-0.034,-0.011,0.065,-0.105,-0.064,-0.039,0.025,-0.026
-0.064,-0.041,0.023,0.052,-0.043,-0.009,0.065,-0.105,-0.072,-0.046,0.012,-0.035
-0.075,-0.05,0.025,0.062,-0.05,-0.012,0.065,-0.105,-0.074,-0.055,0.002,-0.044
-0.091,-0.062,0.028,0.076,-0.059,-0.017,0.065,-0.105,-0.07,-0.061,-0.004,-0.058
-0.096,-0.066,0.031,0.081,-0.063,-0.017,0.065,-0.105,-0.077,-0.063,-0.009,-0.06
-0.099,-0.065,0.034,0.081,-0.066,-0.015,0.072,-0.103,-0.081,-0.066,-0.014,-0.06
-0.104,-0.069,0.035,0.086,-0.069,-0.017,0.076,-0.097,-0.08,-0.065,-0.021,-0.064
-0.1,-0.07,0.03,0.085,-0.065,-0.02,0.074,-0.093,-0.08,-0.065,-0.024,-0.065
-0.095,-0.07,0.025,0.082,-0.06,-0.022,0.079,-0.088,-0.08,-0.066,-0.021,-0.065
-0.085,-0.065,0.02,0.075,-0.052,-0.022,0.081,-0.084,-0.079,-0.064,-0.02,-0.061
-0.078,-0.061,0.017,0.069,-0.047,-0.021,0.079,-0.079,-0.076,-0.06,-0.019,-0.06
-0.064,-0.054,0.01,0.059,-0.037,-0.022,0.076,-0.092,-0.073,-0.06,-0.015,-0.06
-0.068,-0.053,0.015,0.061,-0.041,-0.019,0.073,-0.106,-0.071,-0.06,-0.014,-0.06
-0.065,-0.043,0.022,0.054,-0.043,-0.01,0.071,-0.102,-0.067,-0.06,-0.022,-0.061
-0.062,-0.053,0.009,0.057,-0.035,-0.022,0.067,-0.098,-0.066,-0.06,-0.031,-0.058
-0.07,-0.071,-0.001,0.071,-0.034,-0.036,0.065,-0.096,-0.062,-0.063,-0.025,-0.055
-0.048,-0.046,0.002,0.047,-0.025,-0.022,0.063,-0.088,-0.053,-0.066,-0.021,-0.055
-0.074,-0.045,0.029,0.06,-0.052,-0.008,0.058,-0.098,-0.073,-0.064,-0.017,-0.055
-0.108,-0.066,0.042,0.087,-0.075,-0.012,0.052,-0.116,-0.087,-0.065,-0.011,-0.055
-0.104,-0.07,0.034,0.087,-0.069,-0.018,0.049,-0.112,-0.084,-0.064,-0.012,-0.054
-0.104,-0.07,0.034,0.087,-0.069,-0.018,0.043,-0.108,-0.084,-0.066,-0.018,-0.05
-0.096,-0.07,0.026,0.083,-0.061,-0.022,0.04,-0.106,-0.08,-0.07,-0.022,-0.05
-0.097,-0.07,0.028,0.083,-0.062,-0.02,0.045,-0.099,-0.079,-0.07,-0.025,-0.05
-0.082,-0.066,0.016,0.074,-0.049,-0.024,0.053,-0.105,-0.083,-0.07,-0.03,-0.05
-0.087,-0.063,0.024,0.075,-0.055,-0.019,0.055,-0.112,-0.088,-0.07,-0.03,-0.05
-0.114,-0.06,0.053,0.087,-0.083,-0.003,0.055,-0.109,-0.084,-0.071,-0.03,-0.052
-0.094,-0.057,0.036,0.075,-0.065,-0.01,0.058,-0.103,-0.086,-0.069,-0.03,-0.056
-0.095,-0.055,0.039,0.075,-0.066,-0.008,0.061,-0.114,-0.092,-0.075,-0.03,-0.059
-0.096,-0.052,0.044,0.074,-0.07,-0.004,0.059,-0.131,-0.104,-0.086,-0.03,-0.06
-0.059,-0.05,0.01,0.054,-0.035,-0.02,0.056,-0.126,-0.112,-0.081,-0.03,-0.06
-0.069,-0.05,0.019,0.059,-0.044,-0.016,0.049,-0.123,-0.107,-0.078,-0.03,-0.06
-0.097,-0.05,0.046,0.073,-0.072,-0.002,0.046,-0.119,-0.105,-0.075,-0.03,-0.059
-0.091,-0.05,0.041,0.07,-0.066,-0.004,0.04,-0.115,-0.101,-0.069,-0.03,-0.063
-0.069,-0.051,0.018,0.06,-0.044,-0.016,0.037,-0.113,-0.1,-0.076,-0.03,-0.065
-0.063,-0.051,0.013,0.057,-0.038,-0.019,0.031,-0.107,-0.1,-0.081,-0.025,-0.065
-0.062,-0.05,0.012,0.056,-0.037,-0.019,0.025,-0.104,-0.101,-0.081,-0.026,-0.068
-0.071,-0.05,0.021,0.06,-0.046,-0.014,0.037,-0.099,-0.099,-0.078,-0.023,-0.071
-0.093,-0.05,0.043,0.072,-0.068,-0.003,0.041,-0.118,-0.105,-0.076,-0.021,-0.069
-0.076,-0.05,0.026,0.063,-0.051,-0.012,0.039,-0.136,-0.115,-0.072,-0.018,-0.065
-0.082,-0.05,0.032,0.066,-0.057,-0.009,0.041,-0.127,-0.108,-0.082,-0.028,-0.058
-0.095,-0.05,0.045,0.072,-0.07,-0.002,0.04,-0.12,-0.104,-0.106,-0.045,-0.054
-0.073,-0.05,0.023,0.061,-0.048,-0.013,0.039,-0.115,-0.098,-0.101,-0.039,-0.048
-0.068,-0.05,0.018,0.059,-0.043,-0.016,0.034,-0.105,-0.091,-0.102,-0.033,-0.041
-0.077,-0.049,0.029,0.063,-0.053,-0.01,0.035,-0.113,-0.094,-0.106,-0.029,-0.048
-0.085,-0.06,0.025,0.072,-0.055,-0.017,0.033,-0.126,-0.095,-0.104,-0.02,-0.056
-0.093,-0.076,0.017,0.084,-0.055,-0.029,0.028,-0.125,-0.091,-0.106,-0.025,-0.047
-0.076,-0.06,0.016,0.068,-0.045,-0.022,0.032,-0.124,-0.087,-0.105,-0.041,-0.045
-0.058,-0.056,0.002,0.057,-0.03,-0.027,0.022,-0.12,-0.084,-0.105,-0.038,-0.04
-0.088,-0.065,0.023,0.076,-0.056,-0.021,0.026,-0.12,-0.078,-0.098,-0.034,-0.035
-0.065,-0.031,0.033,0.048,-0.049,0.001,0.046,-0.118,-0.088,-0.087,-0.032,-0.041
-0.045,-0.008,0.038,0.026,-0.042,0.015,0.046,-0.113,-0.083,-0.077,-0.026,-0.038
-0.067,0.02,0.087,0.023,-0.077,0.053,0.041,-0.109,-0.052,-0.057,-0.008,-0.032
-0.054,0.031,0.085,0.011,-0.07,0.058,0.041,-0.105,-0.035,-0.03,0.019,-0.018
-0.035,0.048,0.083,-0.007,-0.06,0.066,0.033,-0.105,-0.025,0.0,0.031,0.001
0.01,0.098,0.087,-0.054,-0.039,0.092,-0.005,-0.104,-0.01,0.024,0.058,0.021
0.015,0.058,0.043,-0.037,-0.014,0.05,-0.029,-0.106,-0.023,0.002,0.053,0.03
-0.008,0.017,0.025,-0.005,-0.016,0.021,-0.029,-0.103,-0.052,-0.042,0.013,0.011
0.004,0.016,0.012,-0.011,-0.004,0.014,-0.032,-0.115,-0.078,-0.063,0.002,-0.004
0.003,0.007,0.004,-0.005,-0.001,0.005,-0.005,-0.132,-0.099,-0.08,-0.007,-0.019
-0.03,-0.02,0.01,0.025,-0.02,-0.005,0.023,-0.126,-0.101,-0.089,-0.023,-0.038
-0.034,-0.06,-0.026,0.047,-0.004,-0.042,0.019,-0.124,-0.102,-0.091,-0.043,-0.054
-0.036,-0.081,-0.045,0.059,0.005,-0.063,0.02,-0.119,-0.107,-0.104,-0.054,-0.064
-0.066,-0.08,-0.015,0.073,-0.025,-0.047,0.03,-0.116,-0.105,-0.104,-0.047,-0.051
-0.084,-0.084,0.0,0.084,-0.042,-0.042,0.05,-0.114,-0.104,-0.106,-0.053,-0.06
-0.049,-0.068,-0.019,0.059,-0.015,-0.043,0.054,-0.121,-0.108,-0.105,-0.047,-0.05
-0.021,-0.068,-0.047,0.045,0.013,-0.057,0.035,-0.12,-0.095,-0.106,-0.052,-0.064
-0.106,-0.058,0.048,0.082,-0.076,-0.005,0.114,-0.031,-0.024,-0.052,-0.042,-0.086
-0.171,-0.013,0.159,0.092,-0.165,0.073,0.221,0.151,0.19,0.121,0.042,-0.079
0.088,0.017,-0.071,-0.052,0.079,-0.027,0.008,0.004,0.169,0.222,0.264,0.172
0.765,0.214,-0.551,-0.489,0.658,-0.168,-0.59,-0.553,-0.167,0.287,0.682,0.839
0.921,0.312,-0.609,-0.616,0.765,-0.148,-0.866,-1.118,-0.696,-0.041,0.518,0.943
0.425,0.108,-0.317,-0.266,0.371,-0.105,-0.658,-1.322,-1.266,-0.759,-0.238,0.327
0.15,-0.15,-0.3,0.001,0.225,-0.225,-0.352,-0.783,-0.981,-0.796,-0.488,-0.092
0.023,-0.218,-0.242,0.098,0.133,-0.23,-0.062,-0.179,-0.315,-0.332,-0.254,-0.147
0.0,-0.112,-0.112,0.056,0.056,-0.112,0.026,-0.032,-0.071,-0.097,-0.061,-0.061
0.016,-0.081,-0.097,0.033,0.056,-0.089,0.051,0.007,0.005,-0.041,-0.031,-0.047
0.0,-0.066,-0.066,0.033,0.033,-0.066,0.072,0.025,0.036,-0.011,-0.011,-0.045
0.011,-0.062,-0.073,0.026,0.042,-0.067,0.068,0.053,0.074,0.019,0.022,-0.033
0.0,-0.068,-0.068,0.034,0.034,-0.068,0.078,0.047,0.074,0.03,0.019,-0.032
-0.009,-0.069,-0.06,0.039,0.026,-0.064,0.068,0.037,0.09,0.038,0.029,-0.021
-0.032,-0.083,-0.05,0.058,0.009,-0.066,0.066,0.062,0.106,0.046,0.036,-0.021
-0.007,-0.047,-0.039,0.027,0.016,-0.043,0.06,0.084,0.106,0.064,0.051,-0.011
0.023,-0.012,-0.034,-0.005,0.029,-0.023,0.057,0.088,0.117,0.067,0.05,-0.008
0.015,-0.021,-0.036,0.004,0.026,-0.028,0.051,0.088,0.12,0.068,0.049,-0.002
0.013,-0.019,-0.032,0.003,0.023,-0.025,0.052,0.097,0.135,0.074,0.052,0.0
0.015,-0.006,-0.021,-0.004,0.018,-0.013,0.056,0.098,0.137,0.072,0.047,-0.001
0.014,0.016,0.001,-0.015,0.006,0.008,0.054,0.127,0.16,0.101,0.058,0.004
0.027,0.036,0.009,-0.032,0.009,0.022,0.056,0.16,0.191,0.127,0.075,0.005
0.047,0.036,-0.012,-0.041,0.029,0.012,0.054,0.195,0.218,0.142,0.084,0.006
0.034,0.034,0.0,-0.034,0.017,0.016,0.056,0.242,0.257,0.164,0.102,0.013
0.055,0.036,-0.019,-0.045,0.037,0.008,0.06,0.286,0.295,0.192,0.128,0.031
0.089,0.053,-0.036,-0.071,0.062,0.009,0.06,0.345,0.348,0.24,0.154,0.049
0.098,0.076,-0.021,-0.087,0.059,0.027,0.06,0.413,0.413,0.29,0.196,0.069
0.128,0.11,-0.018,-0.118,0.073,0.046,0.058,0.469,0.479,0.343,0.232,0.098
0.134,0.133,-0.001,-0.133,0.067,0.066,0.051,0.517,0.551,0.404,0.272,0.126
0.136,0.159,0.023,-0.148,0.056,0.091,0.045,0.571,0.631,0.466,0.33,0.163
0.174,0.209,0.035,-0.191,0.069,0.122,0.041,0.609,0.696,0.533,0.377,0.21
0.232,0.257,0.025,-0.245,0.103,0.141,0.016,0.612,0.739,0.58,0.429,0.25
0.253,0.289,0.036,-0.271,0.108,0.162,-0.022,0.58,0.731,0.568,0.454,0.286
0.302,0.306,0.005,-0.304,0.148,0.155,-0.054,0.501,0.681,0.552,0.448,0.314
0.341,0.306,-0.035,-0.324,0.188,0.136,-0.089,0.395,0.605,0.518,0.426,0.307
0.329,0.295,-0.034,-0.312,0.181,0.13,-0.121,0.292,0.503,0.442,0.383,0.293
0.352,0.268,-0.084,-0.309,0.218,0.091,-0.14,0.192,0.385,0.364,0.343,0.285
0.296,0.212,-0.084,-0.254,0.19,0.064,-0.138,0.111,0.268,0.267,0.279,0.242
0.198,0.148,-0.049,-0.173,0.123,0.049,-0.11,0.045,0.17,0.175,0.195,0.174
0.145,0.093,-0.051,-0.119,0.098,0.021,-0.074,-0.008,0.083,0.099,0.125,0.111
0.078,0.042,-0.035,-0.06,0.056,0.004,-0.04,-0.021,0.032,0.044,0.074,0.047
0.023,0.004,-0.018,-0.013,0.02,-0.006,-0.022,-0.036,-0.002,0.008,0.039,-0.003
-0.002,-0.019,-0.018,0.011,0.008,-0.018,-0.015,-0.065,-0.036,-0.027,0.007,-0.03
-0.027,-0.034,-0.007,0.031,-0.01,-0.02,-0.006,-0.065,-0.062,-0.055,-0.029,-0.045
-0.031,-0.033,-0.002,0.033,-0.014,-0.017,0.0,-0.064,-0.073,-0.068,-0.056,-0.054
-0.016,-0.025,-0.009,0.021,-0.003,-0.017,0.014,-0.066,-0.081,-0.074,-0.061,-0.058
-0.032,-0.031,0.002,0.031,-0.016,-0.014,0.019,-0.065,-0.099,-0.09,-0.063,-0.064
-0.066,-0.057,0.009,0.061,-0.037,-0.024,0.012,-0.064,-0.101,-0.09,-0.066,-0.071
-0.068,-0.061,0.007,0.065,-0.037,-0.027,0.008,-0.059,-0.1,-0.098,-0.069,-0.074
-0.082,-0.054,0.027,0.068,-0.054,-0.013,0.001,-0.062,-0.1,-0.108,-0.073,-0.076
-0.096,-0.052,0.044,0.074,-0.07,-0.004,-0.004,-0.058,-0.108,-0.101,-0.075,-0.074
-0.086,-0.048,0.038,0.067,-0.061,-0.005,-0.001,-0.068,-0.113,-0.101,-0.08,-0.076
-0.087,-0.045,0.042,0.066,-0.064,-0.001,0.009,-0.084,-0.101,-0.097,-0.078,-0.074
-0.078,-0.04,0.038,0.059,-0.058,-0.001,0.014,-0.073,-0.094,-0.095,-0.074,-0.08
-0.085,-0.042,0.042,0.063,-0.063,0.0,0.01,-0.058,-0.086,-0.092,-0.076,-0.091
-0.077,-0.05,0.028,0.063,-0.052,-0.011,0.011,-0.05,-0.083,-0.089,-0.075,-0.085
-0.067,-0.055,0.012,0.06,-0.039,-0.021,0.007,-0.05,-0.079,-0.086,-0.076,-0.08
-0.101,-0.05,0.051,0.075,-0.075,0.0,0.005,-0.05,-0.076,-0.083,-0.074,-0.077
-0.104,-0.042,0.062,0.073,-0.083,0.01,0.005,-0.05,-0.072,-0.08,-0.071,-0.07
-0.088,-0.036,0.051,0.062,-0.069,0.007,0.002,-0.051,-0.068,-0.081,-0.068,-0.073
-0.08,-0.029,0.051,0.054,-0.065,0.011,-0.001,-0.047,-0.079,-0.085,-0.065,-0.075
-0.067,-0.023,0.044,0.045,-0.055,0.01,-0.004,-0.041,-0.087,-0.085,-0.063,-0.075
-0.058,-0.017,0.041,0.037,-0.049,0.012,-0.007,-0.035,-0.084,-0.085,-0.059,-0.078
-0.056,-0.015,0.041,0.036,-0.048,0.012,-0.01,-0.051,-0.083,-0.085,-0.062,-0.081
-0.054,-0.015,0.039,0.034,-0.046,0.012,-0.009,-0.072,-0.079,-0.09,-0.068,-0.079
-0.05,-0.015,0.035,0.032,-0.042,0.01,-0.002,-0.075,-0.08,-0.097,-0.071,-0.076
-0.046,-0.015,0.031,0.031,-0.038,0.008,0.002,-0.086,-0.091,-0.096,-0.075,-0.075
-0.043,-0.015,0.028,0.029,-0.035,0.007,0.008,-0.091,-0.096,-0.095,-0.075,-0.075
-0.056,-0.034,0.022,0.044,-0.039,-0.005,0.014,-0.089,-0.095,-0.095,-0.077,-0.075
-0.073,-0.042,0.031,0.057,-0.052,-0.006,0.019,-0.09,-0.094,-0.095,-0.08,-0.074
-0.08,-0.039,0.042,0.059,-0.061,0.001,0.017,-0.089,-0.104,-0.103,-0.083,-0.084
-0.08,-0.041,0.039,0.061,-0.06,-0.001,0.012,-0.091,-0.111,-0.106,-0.086,-0.091
-0.079,-0.039,0.04,0.059,-0.06,0.0,0.009,-0.073,-0.11,-0.104,-0.089,-0.09
-0.081,-0.041,0.04,0.061,-0.061,0.0,0.006,-0.058,-0.108,-0.105,-0.09,-0.088
-0.077,-0.037,0.04,0.057,-0.058,0.001,0.001,-0.061,-0.104,-0.104,-0.085,-0.084
-0.07,-0.033,0.037,0.051,-0.053,0.001,0.001,-0.06,-0.105,-0.106,-0.085,-0.085
-0.061,-0.027,0.034,0.043,-0.047,0.004,0.005,-0.06,-0.101,-0.109,-0.084,-0.081
-0.06,-0.025,0.036,0.042,-0.047,0.005,0.007,-0.06,-0.099,-0.112,-0.08,-0.079
-0.052,-0.018,0.034,0.034,-0.043,0.008,0.01,-0.06,-0.1,-0.114,-0.08,-0.08
-0.052,-0.017,0.035,0.034,-0.043,0.01,0.013,-0.06,-0.1,-0.118,-0.082,-0.08
-0.079,-0.045,0.034,0.062,-0.056,-0.006,0.015,-0.06,-0.1,-0.12,-0.086,-0.08
-0.081,-0.052,0.029,0.066,-0.055,-0.011,0.015,-0.06,-0.101,-0.12,-0.085,-0.08
-0.072,-0.048,0.024,0.06,-0.048,-0.012,0.015,-0.059,-0.105,-0.12,-0.085,-0.08
-0.07,-0.051,0.019,0.061,-0.045,-0.016,0.015,-0.061,-0.105,-0.12,-0.085,-0.08
-0.065,-0.049,0.016,0.057,-0.04,-0.016,0.015,-0.057,-0.105,-0.12,-0.085,-0.08
-0.059,-0.05,0.009,0.055,-0.034,-0.021,0.015,-0.055,-0.109,-0.12,-0.09,-0.08
-0.062,-0.045,0.017,0.053,-0.039,-0.013,0.014,-0.055,-0.11,-0.12,-0.09,-0.08
-0.077,-0.04,0.037,0.058,-0.056,-0.002,0.01,-0.054,-0.11,-0.12,-0.091,-0.085
-0.076,-0.035,0.041,0.056,-0.058,0.002,0.01,-0.056,-0.11,-0.12,-0.095,-0.087
-0.071,-0.031,0.04,0.051,-0.055,0.004,0.01,-0.053,-0.11,-0.12,-0.095,-0.084
-0.066,-0.026,0.04,0.046,-0.053,0.006,0.01,-0.064,-0.109,-0.12,-0.092,-0.081
-0.066,-0.025,0.04,0.045,-0.052,0.007,0.01,-0.078,-0.105,-0.12,-0.09,-0.079
-0.081,-0.042,0.039,0.062,-0.06,-0.001,0.006,-0.085,-0.105,-0.118,-0.09,-0.074
-0.087,-0.049,0.038,0.068,-0.062,-0.006,0.005,-0.092,-0.105,-0.114,-0.087,-0.078
-0.07,-0.04,0.03,0.055,-0.05,-0.005,0.005,-0.09,-0.105,-0.112,-0.084,-0.09
-0.072,-0.034,0.038,0.053,-0.055,0.002,0.0,-0.089,-0.105,-0.109,-0.086,-0.09
-0.084,-0.028,0.056,0.056,-0.07,0.014,0.0,-0.091,-0.101,-0.105,-0.09,-0.09
-0.07,-0.02,0.05,0.045,-0.06,0.015,0.0,-0.089,-0.099,-0.105,-0.09,-0.09
-0.072,-0.028,0.045,0.049,-0.058,0.008,0.0,-0.09,-0.1,-0.105,-0.091,-0.09
-0.075,-0.033,0.043,0.054,-0.059,0.005,0.0,-0.098,-0.099,-0.105,-0.095,-0.089
-0.061,-0.028,0.034,0.044,-0.047,0.003,0.0,-0.097,-0.101,-0.105,-0.095,-0.083
-0.07,-0.026,0.045,0.048,-0.057,0.009,0.0,-0.089,-0.099,-0.105,-0.092,-0.08
-0.083,-0.021,0.063,0.052,-0.073,0.021,0.001,-0.083,-0.093,-0.109,-0.083,-0.074
-0.077,-0.019,0.058,0.048,-0.067,0.019,-0.001,-0.075,-0.086,-0.109,-0.075,-0.071
-0.049,0.024,0.073,0.012,-0.061,0.048,0.001,-0.07,-0.078,-0.098,-0.066,-0.065
-0.049,0.04,0.089,0.004,-0.069,0.064,-0.002,-0.054,-0.063,-0.082,-0.059,-0.057
-0.054,0.021,0.075,0.017,-0.065,0.047,0.006,-0.032,-0.049,-0.071,-0.052,-0.049
-0.024,0.079,0.103,-0.027,-0.064,0.09,0.009,-0.03,-0.042,-0.036,-0.049,-0.014
-0.009,0.105,0.114,-0.048,-0.062,0.109,-0.043,-0.03,-0.026,-0.026,-0.047,-0.001
-0.004,0.064,0.068,-0.031,-0.036,0.066,-0.068,-0.032,-0.05,-0.064,-0.044,-0.02
-0.018,0.035,0.053,-0.009,-0.035,0.043,-0.052,-0.054,-0.097,-0.079,-0.057,-0.035
-0.035,0.009,0.044,0.012,-0.039,0.026,-0.042,-0.043,-0.102,-0.097,-0.074,-0.042
-0.049,-0.014,0.035,0.031,-0.042,0.01,-0.022,-0.043,-0.102,-0.106,-0.077,-0.055
-0.055,-0.028,0.027,0.042,-0.041,-0.001,-0.008,-0.083,-0.111,-0.117,-0.092,-0.078
-0.053,-0.046,0.007,0.049,-0.029,-0.02,-0.004,-0.093,-0.119,-0.135,-0.114,-0.085
-0.104,-0.07,0.034,0.087,-0.068,-0.018,0.005,-0.089,-0.122,-0.136,-0.123,-0.093
-0.127,-0.061,0.066,0.094,-0.096,0.003,0.011,-0.087,-0.114,-0.133,-0.118,-0.087
-0.125,-0.069,0.056,0.097,-0.09,-0.006,0.016,-0.084,-0.117,-0.136,-0.121,-0.093
-0.125,-0.061,0.064,0.093,-0.094,0.002,0.025,-0.079,-0.13,-0.134,-0.113,-0.098
-0.123,-0.068,0.055,0.096,-0.088,-0.006,0.024,-0.085,-0.118,-0.137,-0.116,-0.106
-0.142,-0.062,0.08,0.102,-0.111,0.009,0.091,-0.012,-0.047,-0.108,-0.108,-0.127
-0.214,-0.018,0.196,0.116,-0.205,0.088,0.199,0.178,0.158,0.059,-0.033,-0.142
0.023,0.027,0.004,-0.025,0.009,0.016,0.0,0.055,0.159,0.195,0.196,0.122
0.734,0.259,-0.476,-0.496,0.605,-0.108,-0.581,-0.491,-0.129,0.312,0.686,0.845
0.872,0.384,-0.488,-0.628,0.68,-0.052,-0.879,-1.073,-0.652,0.016,0.589,1.022
0.441,0.237,-0.204,-0.338,0.322,0.016,-0.69,-1.293,-1.245,-0.725,-0.197,0.404
0.145,-0.041,-0.186,-0.052,0.166,-0.114,-0.362,-0.773,-1.007,-0.822,-0.515,-0.076
-0.023,-0.173,-0.151,0.098,0.065,-0.162,-0.069,-0.168,-0.365,-0.397,-0.335,-0.175
-0.032,-0.07,-0.038,0.051,0.003,-0.054,0.024,-0.029,-0.103,-0.146,-0.144,-0.108
-0.045,-0.035,0.009,0.04,-0.027,-0.013,0.043,0.011,-0.026,-0.076,-0.089,-0.076
-0.05,-0.016,0.034,0.033,-0.041,0.009,0.055,0.029,-0.023,-0.061,-0.086,-0.07
-0.064,-0.011,0.053,0.038,-0.058,0.021,0.045,0.026,-0.008,-0.045,-0.066,-0.066
-0.06,0.003,0.064,0.029,-0.062,0.033,0.049,0.038,0.014,-0.039,-0.064,-0.066
-0.028,0.029,0.058,-0.001,-0.043,0.043,0.042,0.066,0.045,-0.023,-0.051,-0.059
-0.036,0.021,0.057,0.007,-0.046,0.039,0.048,0.074,0.053,-0.013,-0.046,-0.061
-0.03,0.024,0.054,0.002,-0.042,0.039,0.049,0.063,0.048,-0.003,-0.037,-0.055
-0.041,0.014,0.055,0.013,-0.048,0.035,0.051,0.085,0.067,0.008,-0.029,-0.05
-0.016,0.01,0.026,0.003,-0.021,0.018,0.055,0.084,0.071,0.016,-0.021,-0.045
-0.015,0.023,0.038,-0.004,-0.027,0.03,0.055,0.093,0.082,0.031,-0.014,-0.041
-0.035,0.038,0.073,-0.002,-0.054,0.056,0.052,0.123,0.101,0.046,-0.006,-0.037
-0.017,0.041,0.058,-0.012,-0.037,0.049,0.048,0.131,0.121,0.062,0.006,-0.032
-0.013,0.038,0.051,-0.013,-0.032,0.044,0.044,0.152,0.137,0.08,0.013,-0.024
0.005,0.045,0.039,-0.025,-0.017,0.042,0.041,0.181,0.161,0.096,0.03,-0.015
0.024,0.059,0.035,-0.042,-0.006,0.047,0.035,0.21,0.199,0.127,0.048,0.0
0.031,0.064,0.033,-0.048,-0.002,0.048,0.037,0.249,0.237,0.159,0.07,0.024
0.052,0.081,0.029,-0.067,0.011,0.055,0.05,0.296,0.284,0.192,0.093,0.036
0.069,0.097,0.028,-0.083,0.02,0.063,0.045,0.355,0.35,0.249,0.126,0.055
0.1,0.122,0.022,-0.112,0.039,0.072,0.04,0.421,0.42,0.307,0.172,0.084
0.117,0.159,0.042,-0.138,0.037,0.1,0.034,0.478,0.49,0.366,0.214,0.112
0.129,0.18,0.052,-0.155,0.038,0.116,0.029,0.535,0.567,0.434,0.271,0.153
0.178,0.224,0.046,-0.201,0.066,0.134,0.023,0.588,0.632,0.498,0.324,0.196
0.237,0.271,0.035,-0.254,0.101,0.152,0.001,0.602,0.685,0.559,0.372,0.242
0.271,0.309,0.038,-0.29,0.117,0.173,-0.027,0.571,0.686,0.568,0.402,0.283
0.261,0.318,0.056,-0.29,0.102,0.187,-0.062,0.503,0.64,0.543,0.402,0.314
0.281,0.304,0.022,-0.293,0.129,0.163,-0.098,0.413,0.576,0.507,0.382,0.326
0.326,0.294,-0.032,-0.31,0.179,0.131,-0.123,0.313,0.475,0.442,0.347,0.324
0.297,0.25,-0.047,-0.273,0.172,0.101,-0.131,0.22,0.37,0.355,0.298,0.301
0.235,0.204,-0.031,-0.22,0.133,0.087,-0.123,0.142,0.251,0.26,0.226,0.248
0.185,0.165,-0.019,-0.175,0.102,0.073,-0.117,0.083,0.137,0.173,0.155,0.184
0.12,0.109,-0.011,-0.114,0.065,0.049,-0.085,0.043,0.064,0.087,0.081,0.112
0.058,0.064,0.005,-0.061,0.027,0.034,-0.042,0.018,0.005,0.031,0.022,0.057
0.005,0.037,0.032,-0.021,-0.014,0.034,-0.027,-0.001,-0.044,-0.014,-0.019,0.009
-0.031,0.021,0.051,0.005,-0.041,0.036,-0.013,-0.013,-0.073,-0.054,-0.061,-0.027
-0.044,0.005,0.05,0.019,-0.047,0.027,-0.004,-0.027,-0.091,-0.07,-0.082,-0.039
-0.055,-0.005,0.05,0.03,-0.052,0.022,0.002,-0.044,-0.109,-0.096,-0.098,-0.058
-0.062,-0.011,0.05,0.037,-0.056,0.019,0.009,-0.045,-0.11,-0.103,-0.11,-0.064
-0.071,-0.021,0.05,0.046,-0.06,0.014,0.016,-0.048,-0.11,-0.103,-0.109,-0.06
-0.075,-0.027,0.048,0.051,-0.061,0.01,0.022,-0.049,-0.111,-0.11,-0.11,-0.059
-0.076,-0.035,0.04,0.055,-0.058,0.002,0.028,-0.055,-0.114,-0.108,-0.118,-0.071
-0.08,-0.044,0.035,0.061,-0.057,-0.004,0.03,-0.065,-0.117,-0.106,-0.122,-0.082
-0.085,-0.045,0.04,0.065,-0.062,-0.002,0.025,-0.057,-0.112,-0.102,-0.117,-0.075
-0.085,-0.045,0.041,0.065,-0.063,-0.002,0.025,-0.051,-0.111,-0.1,-0.115,-0.073
-0.092,-0.045,0.046,0.068,-0.069,0.001,0.025,-0.045,-0.106,-0.097,-0.111,-0.068
-0.086,-0.045,0.041,0.065,-0.063,-0.002,0.025,-0.037,-0.105,-0.095,-0.109,-0.065
-0.081,-0.046,0.036,0.063,-0.058,-0.005,0.026,-0.035,-0.114,-0.097,-0.119,-0.074
-0.099,-0.041,0.058,0.07,-0.078,0.009,0.022,-0.035,-0.116,-0.095,-0.121,-0.076
-0.096,-0.035,0.061,0.065,-0.078,0.012,0.02,-0.031,-0.114,-0.092,-0.12,-0.071
-0.085,-0.03,0.055,0.057,-0.07,0.012,0.02,-0.03,-0.115,-0.089,-0.118,-0.069
-0.079,-0.025,0.054,0.051,-0.066,0.015,0.021,-0.03,-0.115,-0.086,-0.114,-0.065
-0.067,-0.018,0.05,0.043,-0.058,0.016,0.019,-0.025,-0.115,-0.085,-0.115,-0.065
-0.067,-0.018,0.049,0.042,-0.058,0.015,0.022,-0.022,-0.119,-0.085,-0.119,-0.07
-0.076,-0.034,0.042,0.055,-0.059,0.004,0.035,-0.018,-0.12,-0.087,-0.12,-0.07
-0.07,-0.034,0.036,0.052,-0.053,0.001,0.032,-0.016,-0.12,-0.092,-0.12,-0.07
-0.058,-0.029,0.029,0.043,-0.043,0.0,0.026,-0.008,-0.12,-0.088,-0.12,-0.071
-0.062,-0.039,0.023,0.05,-0.042,-0.008,0.023,-0.023,-0.121,-0.099,-0.121,-0.067
-0.055,-0.04,0.015,0.047,-0.035,-0.012,0.016,-0.043,-0.126,-0.117,-0.125,-0.065
-0.065,-0.036,0.029,0.05,-0.046,-0.003,0.017,-0.038,-0.13,-0.113,-0.124,-0.065
-0.08,-0.032,0.048,0.056,-0.064,0.008,0.02,-0.035,-0.134,-0.11,-0.127,-0.065
-0.053,-0.03,0.024,0.041,-0.039,-0.003,0.025,-0.033,-0.139,-0.108,-0.13,-0.065
-0.044,-0.022,0.021,0.033,-0.032,0.0,0.024,-0.028,-0.14,-0.103,-0.129,-0.065
-0.082,-0.036,0.046,0.059,-0.064,0.005,0.025,-0.038,-0.14,-0.11,-0.134,-0.07
-0.111,-0.066,0.045,0.088,-0.078,-0.01,0.025,-0.051,-0.14,-0.121,-0.135,-0.07
-0.108,-0.064,0.044,0.086,-0.075,-0.01,0.024,-0.047,-0.14,-0.115,-0.135,-0.071
-0.1,-0.06,0.04,0.08,-0.07,-0.01,0.042,-0.043,-0.138,-0.11,-0.135,-0.075
-0.099,-0.059,0.04,0.079,-0.07,-0.009,0.044,-0.04,-0.135,-0.107,-0.135,-0.075
-0.092,-0.054,0.038,0.073,-0.065,-0.008,0.038,-0.034,-0.132,-0.099,-0.134,-0.072
-0.088,-0.054,0.034,0.071,-0.061,-0.01,0.036,-0.042,-0.13,-0.109,-0.13,-0.07
-0.085,-0.049,0.036,0.067,-0.061,-0.006,0.031,-0.051,-0.126,-0.121,-0.13,-0.07
-0.079,-0.045,0.033,0.062,-0.056,-0.006,0.029,-0.05,-0.124,-0.119,-0.13,-0.07
-0.085,-0.048,0.037,0.067,-0.061,-0.005,0.025,-0.05,-0.133,-0.12,-0.13,-0.07
-0.076,-0.051,0.026,0.063,-0.051,-0.012,0.025,-0.05,-0.136,-0.12,-0.13,-0.071
-0.086,-0.055,0.032,0.07,-0.059,-0.011,0.023,-0.05,-0.135,-0.12,-0.134,-0.074
-0.093,-0.056,0.037,0.074,-0.065,-0.009,0.019,-0.046,-0.135,-0.117,-0.135,-0.077
-0.085,-0.061,0.024,0.073,-0.055,-0.018,0.021,-0.045,-0.135,-0.114,-0.135,-0.079
-0.095,-0.059,0.036,0.076,-0.065,-0.011,0.023,-0.045,-0.135,-0.111,-0.139,-0.083
-0.088,-0.054,0.033,0.07,-0.06,-0.01,0.029,-0.04,-0.13,-0.108,-0.14,-0.085
-0.104,-0.074,0.03,0.089,-0.067,-0.022,0.029,-0.04,-0.13,-0.106,-0.138,-0.083
-0.102,-0.075,0.028,0.088,-0.065,-0.023,0.024,-0.039,-0.13,-0.103,-0.135,-0.078
-0.087,-0.062,0.025,0.073,-0.056,-0.018,0.021,-0.035,-0.13,-0.101,-0.135,-0.075
-0.072,-0.053,0.02,0.062,-0.046,-0.016,0.017,-0.033,-0.13,-0.097,-0.135,-0.071
-0.035,-0.045,-0.01,0.04,-0.012,-0.027,0.014,-0.029,-0.132,-0.095,-0.135,-0.067
-0.025,-0.042,-0.017,0.034,-0.004,-0.029,0.008,-0.027,-0.135,-0.092,-0.135,-0.064
-0.029,-0.038,-0.009,0.033,-0.01,-0.023,0.025,-0.023,-0.135,-0.089,-0.131,-0.06
-0.03,-0.036,-0.006,0.033,-0.011,-0.021,0.043,-0.038,-0.135,-0.107,-0.126,-0.06
-0.027,-0.028,-0.001,0.027,-0.013,-0.014,0.038,-0.056,-0.135,-0.117,-0.121,-0.059
-0.05,-0.046,0.004,0.048,-0.027,-0.021,0.036,-0.052,-0.134,-0.114,-0.118,-0.055
-0.064,-0.061,0.003,0.062,-0.033,-0.028,0.033,-0.049,-0.131,-0.116,-0.111,-0.055
-0.048,-0.051,-0.003,0.05,-0.022,-0.027,0.03,-0.046,-0.128,-0.115,-0.112,-0.058
-0.042,-0.048,-0.006,0.045,-0.017,-0.027,0.03,-0.041,-0.125,-0.115,-0.124,-0.06
-0.03,-0.041,-0.011,0.036,-0.009,-0.026,0.03,-0.041,-0.122,-0.11,-0.125,-0.06
-0.021,-0.036,-0.016,0.029,-0.002,-0.026,0.03,-0.045,-0.119,-0.11,-0.125,-0.063
-0.023,-0.03,-0.007,0.027,-0.007,-0.019,0.03,-0.045,-0.122,-0.109,-0.122,-0.066
-0.033,-0.034,-0.001,0.033,-0.016,-0.017,0.03,-0.045,-0.125,-0.104,-0.119,-0.064
-0.059,-0.048,0.01,0.053,-0.034,-0.019,0.029,-0.046,-0.125,-0.106,-0.12,-0.06
-0.082,-0.062,0.021,0.072,-0.052,-0.02,0.034,-0.041,-0.125,-0.102,-0.115,-0.054
-0.072,-0.058,0.014,0.064,-0.043,-0.021,0.035,-0.035,-0.125,-0.094,-0.113,-0.051
-0.064,-0.056,0.007,0.06,-0.035,-0.024,0.035,-0.03,-0.125,-0.086,-0.109,-0.046
-0.046,-0.045,0.001,0.045,-0.023,-0.022,0.039,-0.024,-0.118,-0.078,-0.107,-0.042
-0.007,0.015,0.021,-0.004,-0.014,0.018,0.041,-0.019,-0.106,-0.07,-0.101,-0.036
0.001,0.05,0.049,-0.026,-0.025,0.049,0.039,-0.013,-0.094,-0.061,-0.084,-0.022
-0.001,0.039,0.039,-0.019,-0.02,0.039,0.027,-0.01,-0.072,-0.047,-0.068,-0.008
0.008,0.07,0.063,-0.039,-0.028,0.066,0.009,-0.008,-0.058,-0.042,-0.063,0.002
0.02,0.11,0.09,-0.065,-0.035,0.1,-0.022,-0.024,-0.068,-0.045,-0.067,0.014
0.026,0.075,0.048,-0.051,-0.011,0.061,-0.035,-0.037,-0.077,-0.045,-0.072,0.017
0.03,0.055,0.025,-0.043,0.003,0.039,-0.024,-0.034,-0.092,-0.062,-0.074,0.008
0.005,0.027,0.022,-0.016,-0.009,0.024,-0.016,-0.039,-0.105,-0.078,-0.081,-0.003
-0.03,-0.017,0.013,0.023,-0.022,-0.002,-0.001,-0.042,-0.109,-0.086,-0.094,-0.016
-0.047,-0.038,0.008,0.042,-0.027,-0.015,0.011,-0.047,-0.123,-0.107,-0.113,-0.041
-0.076,-0.082,-0.006,0.079,-0.035,-0.044,0.023,-0.053,-0.141,-0.122,-0.134,-0.059
-0.057,-0.085,-0.028,0.071,-0.014,-0.056,0.031,-0.05,-0.139,-0.118,-0.135,-0.063
-0.042,-0.079,-0.037,0.061,-0.002,-0.057,0.041,-0.045,-0.139,-0.123,-0.136,-0.07
-0.066,-0.098,-0.032,0.083,-0.017,-0.065,0.044,-0.044,-0.134,-0.117,-0.133,-0.067
-0.074,-0.114,-0.04,0.094,-0.017,-0.077,0.051,-0.037,-0.132,-0.123,-0.137,-0.069
-0.067,-0.089,-0.022,0.079,-0.022,-0.056,0.053,-0.035,-0.13,-0.118,-0.132,-0.051
-0.072,-0.097,-0.024,0.085,-0.024,-0.06,0.055,-0.033,-0.125,-0.102,-0.138,-0.065
-0.141,-0.067,0.074,0.104,-0.107,0.004,0.14,0.08,-0.03,-0.042,-0.111,-0.09
-0.169,-0.015,0.154,0.092,-0.162,0.069,0.218,0.227,0.185,0.123,-0.011,-0.068
0.233,0.058,-0.175,-0.145,0.203,-0.058,-0.11,-0.053,0.07,0.223,0.284,0.317
0.868,0.29,-0.578,-0.579,0.723,-0.144,-0.705,-0.649,-0.301,0.26,0.682,0.981
0.817,0.313,-0.504,-0.565,0.66,-0.095,-0.845,-1.162,-0.876,-0.191,0.327,0.884
0.338,0.069,-0.269,-0.203,0.303,-0.1,-0.595,-1.191,-1.315,-0.854,-0.416,0.22
0.096,-0.177,-0.273,0.041,0.184,-0.225,-0.263,-0.536,-0.838,-0.714,-0.517,-0.11
0.013,-0.177,-0.191,0.082,0.102,-0.184,-0.001,-0.041,-0.256,-0.274,-0.268,-0.115
0.003,-0.072,-0.075,0.035,0.039,-0.073,0.052,0.053,-0.084,-0.108,-0.132,-0.052
-0.012,-0.066,-0.055,0.039,0.022,-0.06,0.062,0.082,-0.026,-0.064,-0.118,-0.034
-0.021,-0.048,-0.027,0.034,0.003,-0.037,0.079,0.085,-0.01,-0.034,-0.091,-0.024
-0.015,-0.047,-0.032,0.031,0.009,-0.039,0.086,0.105,0.027,-0.008,-0.069,-0.021
-0.016,-0.04,-0.024,0.029,0.004,-0.032,0.085,0.113,0.03,-0.003,-0.067,-0.015
-0.033,-0.057,-0.024,0.045,-0.004,-0.04,0.08,0.135,0.047,0.008,-0.056,-0.008
-0.032,-0.051,-0.019,0.042,-0.006,-0.035,0.081,0.14,0.057,0.017,-0.052,-0.005
-0.01,-0.031,-0.021,0.02,0.006,-0.025,0.079,0.147,0.07,0.039,-0.043,0.001
0.009,-0.03,-0.039,0.011,0.024,-0.034,0.076,0.152,0.083,0.046,-0.039,-0.001
0.016,-0.02,-0.035,0.002,0.026,-0.027,0.069,0.171,0.096,0.051,-0.032,0.003
0.015,-0.014,-0.029,0.0,0.022,-0.021,0.066,0.183,0.111,0.065,-0.025,0.005
0.017,-0.008,-0.025,-0.004,0.021,-0.016,0.062,0.183,0.124,0.075,-0.015,0.005
0.016,-0.001,-0.017,-0.007,0.017,-0.008,0.055,0.21,0.143,0.1,-0.006,0.009
0.02,0.001,-0.019,-0.01,0.019,-0.009,0.059,0.225,0.156,0.116,0.006,0.02
0.023,-0.014,-0.037,-0.004,0.03,-0.026,0.065,0.249,0.188,0.125,0.016,0.03
0.06,0.018,-0.042,-0.039,0.05,-0.011,0.069,0.287,0.226,0.154,0.04,0.04
0.088,0.045,-0.043,-0.066,0.065,0.001,0.08,0.336,0.271,0.195,0.075,0.055
0.091,0.044,-0.047,-0.067,0.068,-0.002,0.081,0.387,0.323,0.236,0.099,0.069
0.105,0.062,-0.043,-0.083,0.074,0.009,0.077,0.448,0.387,0.284,0.138,0.089
0.13,0.082,-0.048,-0.105,0.089,0.017,0.071,0.517,0.457,0.345,0.185,0.119
0.159,0.124,-0.034,-0.141,0.096,0.045,0.063,0.575,0.534,0.41,0.239,0.157
0.184,0.159,-0.025,-0.171,0.104,0.067,0.058,0.635,0.607,0.477,0.287,0.193
0.216,0.185,-0.032,-0.2,0.124,0.076,0.05,0.674,0.67,0.54,0.34,0.236
0.249,0.222,-0.027,-0.236,0.138,0.098,0.034,0.684,0.71,0.584,0.387,0.276
0.291,0.255,-0.036,-0.273,0.164,0.109,0.009,0.635,0.685,0.59,0.406,0.317
0.306,0.265,-0.04,-0.285,0.173,0.112,-0.032,0.557,0.655,0.565,0.419,0.345
0.308,0.255,-0.053,-0.281,0.18,0.101,-0.08,0.459,0.58,0.517,0.389,0.331
0.341,0.243,-0.097,-0.292,0.219,0.073,-0.116,0.352,0.473,0.439,0.338,0.321
0.338,0.197,-0.141,-0.267,0.239,0.027,-0.122,0.267,0.371,0.36,0.294,0.308
0.279,0.15,-0.129,-0.215,0.204,0.011,-0.11,0.167,0.252,0.272,0.227,0.262
0.208,0.117,-0.092,-0.162,0.15,0.012,-0.099,0.107,0.159,0.182,0.16,0.208
0.15,0.072,-0.078,-0.111,0.114,-0.003,-0.074,0.078,0.07,0.111,0.087,0.14
0.072,0.018,-0.055,-0.045,0.063,-0.018,-0.04,0.049,0.008,0.048,0.022,0.075
0.028,-0.023,-0.052,-0.002,0.04,-0.037,-0.02,0.013,-0.025,0.006,-0.012,0.036
0.018,-0.037,-0.054,0.01,0.036,-0.045,-0.008,-0.002,-0.048,-0.019,-0.042,0.013
-0.01,-0.069,-0.06,0.04,0.025,-0.064,0.002,0.012,-0.072,-0.049,-0.075,-0.014
-0.058,-0.082,-0.024,0.07,-0.017,-0.052,0.008,0.005,-0.09,-0.066,-0.088,-0.054
-0.068,-0.079,-0.01,0.073,-0.029,-0.045,0.012,-0.001,-0.089,-0.068,-0.083,-0.07
-0.036,-0.093,-0.056,0.065,0.01,-0.074,0.018,-0.004,-0.097,-0.075,-0.086,-0.07
-0.049,-0.096,-0.047,0.073,0.0,-0.071,0.02,-0.014,-0.098,-0.075,-0.085,-0.07
-0.039,-0.094,-0.055,0.067,0.008,-0.074,0.028,-0.01,-0.094,-0.075,-0.085,-0.07
-0.032,-0.092,-0.06,0.063,0.014,-0.076,0.049,-0.008,-0.096,-0.075,-0.101,-0.07
-0.045,-0.089,-0.044,0.067,-0.001,-0.066,0.048,-0.017,-0.094,-0.075,-0.107,-0.07
-0.039,-0.091,-0.052,0.065,0.007,-0.071,0.044,-0.016,-0.096,-0.073,-0.101,-0.074
-0.037,-0.095,-0.058,0.067,0.011,-0.076,0.041,-0.014,-0.095,-0.069,-0.1,-0.075
-0.038,-0.087,-0.05,0.063,0.006,-0.068,0.036,-0.016,-0.09,-0.071,-0.095,-0.075
-0.054,-0.103,-0.048,0.079,-0.003,-0.075,0.033,-0.015,-0.083,-0.07,-0.096,-0.075
-0.059,-0.11,-0.052,0.085,-0.003,-0.081,0.03,-0.015,-0.076,-0.071,-0.106,-0.075
-0.052,-0.098,-0.045,0.075,-0.003,-0.071,0.03,-0.015,-0.07,-0.07,-0.103,-0.075
-0.056,-0.098,-0.042,0.077,-0.006,-0.07,0.03,-0.015,-0.061,-0.066,-0.097,-0.075
-0.051,-0.086,-0.035,0.069,-0.008,-0.06,0.046,-0.015,-0.07,-0.062,-0.094,-0.079
-0.068,-0.102,-0.034,0.085,-0.017,-0.068,0.052,-0.015,-0.082,-0.058,-0.088,-0.08
-0.072,-0.097,-0.025,0.085,-0.023,-0.061,0.046,-0.015,-0.079,-0.055,-0.086,-0.08
-0.045,-0.075,-0.029,0.061,-0.008,-0.052,0.045,-0.015,-0.08,-0.048,-0.09,-0.08
-0.043,-0.102,-0.059,0.073,0.008,-0.08,0.04,-0.015,-0.08,-0.061,-0.09,-0.08
-0.046,-0.106,-0.06,0.076,0.008,-0.083,0.039,-0.015,-0.08,-0.077,-0.089,-0.079
-0.049,-0.104,-0.055,0.077,0.003,-0.079,0.036,-0.015,-0.083,-0.074,-0.09,-0.075
-0.055,-0.111,-0.056,0.083,0.0,-0.083,0.035,-0.027,-0.097,-0.075,-0.09,-0.076
-0.055,-0.109,-0.054,0.083,-0.001,-0.081,0.035,-0.031,-0.101,-0.075,-0.09,-0.072
-0.053,-0.109,-0.056,0.082,0.001,-0.082,0.035,-0.026,-0.096,-0.075,-0.1,-0.07
-0.054,-0.104,-0.05,0.079,-0.001,-0.076,0.035,-0.025,-0.095,-0.078,-0.106,-0.07
-0.055,-0.101,-0.046,0.078,-0.005,-0.073,0.035,-0.02,-0.09,-0.081,-0.109,-0.066
-0.059,-0.097,-0.038,0.078,-0.01,-0.068,0.035,-0.02,-0.09,-0.084,-0.11,-0.064
-0.057,-0.094,-0.037,0.076,-0.01,-0.065,0.035,-0.025,-0.095,-0.086,-0.11,-0.061
-0.064,-0.088,-0.025,0.076,-0.019,-0.057,0.035,-0.025,-0.095,-0.09,-0.11,-0.058
-0.065,-0.098,-0.033,0.082,-0.016,-0.065,0.035,-0.025,-0.095,-0.089,-0.11,-0.055
-0.057,-0.112,-0.055,0.084,-0.001,-0.083,0.036,-0.025,-0.095,-0.085,-0.112,-0.056
-0.068,-0.109,-0.041,0.089,-0.013,-0.075,0.039,-0.025,-0.095,-0.085,-0.115,-0.065
-0.06,-0.11,-0.051,0.085,-0.004,-0.08,0.042,-0.028,-0.095,-0.085,-0.118,-0.07
-0.062,-0.11,-0.047,0.086,-0.008,-0.078,0.045,-0.03,-0.095,-0.085,-0.121,-0.07
-0.077,-0.11,-0.034,0.094,-0.021,-0.072,0.047,-0.03,-0.095,-0.085,-0.124,-0.07
-0.076,-0.108,-0.031,0.092,-0.022,-0.069,0.051,-0.03,-0.095,-0.088,-0.125,-0.074
-0.084,-0.104,-0.02,0.094,-0.032,-0.062,0.047,-0.03,-0.095,-0.09,-0.12,-0.075
-0.068,-0.106,-0.038,0.087,-0.014,-0.071,0.044,-0.03,-0.095,-0.09,-0.12,-0.075
-0.046,-0.104,-0.059,0.075,0.007,-0.081,0.045,-0.03,-0.095,-0.09,-0.119,-0.075
-0.05,-0.106,-0.056,0.078,0.004,-0.08,0.041,-0.03,-0.095,-0.09,-0.114,-0.075
-0.059,-0.104,-0.045,0.082,-0.007,-0.074,0.04,-0.03,-0.095,-0.09,-0.115,-0.074
-0.057,-0.101,-0.044,0.079,-0.006,-0.072,0.04,-0.03,-0.095,-0.09,-0.112,-0.07
-0.07,-0.099,-0.03,0.085,-0.02,-0.064,0.035,-0.03,-0.094,-0.09,-0.106,-0.07
-0.065,-0.099,-0.034,0.082,-0.015,-0.066,0.035,-0.03,-0.098,-0.09,-0.101,-0.07
-0.061,-0.108,-0.047,0.085,-0.007,-0.077,0.035,-0.03,-0.1,-0.09,-0.096,-0.07
-0.061,-0.111,-0.05,0.086,-0.005,-0.081,0.035,-0.03,-0.1,-0.09,-0.09,-0.07
-0.045,-0.109,-0.064,0.077,0.01,-0.087,0.036,-0.03,-0.1,-0.086,-0.085,-0.07
-0.062,-0.111,-0.048,0.087,-0.007,-0.079,0.032,-0.03,-0.1,-0.085,-0.085,-0.07
-0.048,-0.11,-0.061,0.079,0.007,-0.085,0.03,-0.03,-0.099,-0.085,-0.085,-0.07
-0.043,-0.109,-0.066,0.076,0.012,-0.088,0.03,-0.025,-0.095,-0.08,-0.085,-0.07
-0.06,-0.104,-0.044,0.082,-0.007,-0.074,0.03,-0.025,-0.095,-0.08,-0.085,-0.07
-0.058,-0.105,-0.047,0.082,-0.005,-0.076,0.03,-0.024,-0.094,-0.08,-0.085,-0.069
-0.052,-0.105,-0.053,0.079,0.001,-0.079,0.03,-0.02,-0.09,-0.08,-0.082,-0.064
-0.048,-0.105,-0.056,0.077,0.005,-0.08,0.035,-0.02,-0.09,-0.08,-0.079,-0.061
-0.081,-0.118,-0.037,0.099,-0.022,-0.077,0.035,-0.023,-0.092,-0.08,-0.08,-0.058
-0.062,-0.103,-0.041,0.083,-0.01,-0.072,0.036,-0.025,-0.095,-0.08,-0.08,-0.053
-0.043,-0.089,-0.046,0.066,0.001,-0.067,0.04,-0.025,-0.098,-0.08,-0.08,-0.05
-0.05,-0.09,-0.041,0.07,-0.005,-0.065,0.04,-0.029,-0.101,-0.083,-0.079,-0.054
-0.033,-0.091,-0.058,0.062,0.013,-0.075,0.038,-0.031,-0.105,-0.086,-0.076,-0.058
-0.063,-0.11,-0.047,0.087,-0.008,-0.078,0.034,-0.029,-0.105,-0.089,-0.073,-0.063
-0.06,-0.11,-0.05,0.085,-0.005,-0.08,0.035,-0.025,-0.1,-0.089,-0.071,-0.064
-0.06,-0.11,-0.05,0.085,-0.005,-0.079,0.035,-0.025,-0.095,-0.082,-0.067,-0.056
-0.074,-0.109,-0.035,0.092,-0.02,-0.071,0.035,-0.024,-0.093,-0.077,-0.065,-0.048
-0.047,-0.079,-0.031,0.063,-0.008,-0.055,0.035,-0.019,-0.083,-0.072,-0.062,-0.04
-0.031,-0.049,-0.018,0.04,-0.007,-0.033,0.029,-0.02,-0.059,-0.062,-0.049,-0.033
-0.008,-0.021,-0.013,0.015,0.002,-0.016,0.017,-0.017,-0.052,-0.044,-0.038,-0.024
-0.021,-0.009,0.012,0.015,-0.016,0.001,0.009,-0.009,-0.056,-0.019,-0.015,-0.01
-0.028,0.017,0.045,0.005,-0.037,0.031,-0.007,-0.001,-0.054,-0.01,0.007,-0.005
0.001,0.047,0.046,-0.024,-0.023,0.046,-0.039,-0.016,-0.056,-0.024,-0.003,-0.004
0.023,0.036,0.013,-0.03,0.005,0.024,-0.042,-0.038,-0.054,-0.036,-0.013,-0.001
0.022,0.0,-0.022,-0.011,0.022,-0.011,-0.028,-0.039,-0.06,-0.047,-0.02,0.002
0.002,-0.049,-0.051,0.024,0.027,-0.05,-0.014,-0.05,-0.087,-0.071,-0.042,-0.013
-0.021,-0.081,-0.06,0.051,0.02,-0.07,0.007,-0.056,-0.099,-0.082,-0.054,-0.034
-0.053,-0.116,-0.063,0.084,0.005,-0.089,0.026,-0.048,-0.098,-0.086,-0.07,-0.055
-0.045,-0.127,-0.082,0.086,0.019,-0.105,0.036,-0.048,-0.105,-0.1,-0.081,-0.065
-0.052,-0.13,-0.078,0.092,0.013,-0.104,0.042,-0.041,-0.104,-0.105,-0.082,-0.069
-0.066,-0.136,-0.07,0.101,0.002,-0.102,0.045,-0.04,-0.107,-0.106,-0.08,-0.071
-0.051,-0.13,-0.079,0.091,0.014,-0.104,0.048,-0.034,-0.1,-0.103,-0.074,-0.075
-0.052,-0.126,-0.074,0.089,0.011,-0.1,0.049,-0.027,-0.101,-0.107,-0.075,-0.08
-0.066,-0.114,-0.049,0.09,-0.008,-0.081,0.035,-0.029,-0.102,-0.104,-0.064,-0.083
-0.108,-0.117,-0.009,0.112,-0.049,-0.062,0.083,0.015,-0.065,-0.086,-0.071,-0.101
-0.204,-0.093,0.111,0.148,-0.157,0.009,0.205,0.188,0.127,0.05,-0.031,-0.117
-0.087,-0.051,0.036,0.069,-0.061,-0.008,0.131,0.194,0.238,0.206,0.153,0.036
0.572,0.122,-0.45,-0.346,0.51,-0.164,-0.411,-0.291,-0.016,0.317,0.61,0.692
0.936,0.301,-0.635,-0.618,0.785,-0.167,-0.835,-0.896,-0.479,0.176,0.736,1.099
0.53,0.219,-0.311,-0.374,0.421,-0.046,-0.733,-1.246,-1.115,-0.522,0.033,0.61
0.162,-0.059,-0.221,-0.051,0.192,-0.14,-0.425,-0.898,-1.122,-0.846,-0.469,0.032
0.035,-0.235,-0.27,0.1,0.153,-0.252,-0.097,-0.209,-0.465,-0.461,-0.345,-0.158
-0.007,-0.16,-0.152,0.084,0.073,-0.156,0.018,0.029,-0.114,-0.151,-0.129,-0.099
-0.018,-0.108,-0.091,0.063,0.037,-0.099,0.042,0.077,-0.006,-0.067,-0.062,-0.058
-0.033,-0.101,-0.068,0.067,0.018,-0.084,0.073,0.092,0.027,-0.044,-0.064,-0.068
-0.026,-0.085,-0.06,0.056,0.017,-0.072,0.061,0.1,0.054,-0.008,-0.039,-0.052
-0.029,-0.088,-0.059,0.059,0.015,-0.073,0.068,0.116,0.072,0.005,-0.032,-0.054
-0.022,-0.076,-0.054,0.049,0.016,-0.064,0.063,0.105,0.065,0.01,-0.022,-0.043
-0.013,-0.075,-0.062,0.044,0.025,-0.068,0.066,0.121,0.087,0.022,-0.017,-0.04
-0.01,-0.069,-0.059,0.039,0.024,-0.063,0.065,0.128,0.092,0.025,-0.012,-0.032
-0.002,-0.063,-0.061,0.033,0.03,-0.062,0.063,0.141,0.106,0.039,-0.003,-0.026
-0.003,-0.063,-0.06,0.033,0.028,-0.061,0.061,0.145,0.121,0.046,0.008,-0.02
0.006,-0.051,-0.057,0.023,0.031,-0.054,0.057,0.161,0.132,0.056,0.021,-0.012
-0.005,-0.057,-0.053,0.031,0.024,-0.055,0.055,0.168,0.143,0.073,0.027,-0.007
-0.005,-0.053,-0.049,0.029,0.022,-0.051,0.051,0.181,0.159,0.086,0.038,0.002
0.017,-0.03,-0.047,0.007,0.032,-0.038,0.05,0.21,0.185,0.105,0.053,0.007
0.015,-0.025,-0.04,0.006,0.027,-0.033,0.053,0.228,0.21,0.124,0.065,0.015
0.02,-0.023,-0.043,0.002,0.032,-0.033,0.062,0.25,0.235,0.144,0.076,0.019
0.045,-0.006,-0.051,-0.02,0.048,-0.028,0.064,0.288,0.28,0.181,0.102,0.036
0.085,0.035,-0.05,-0.06,0.067,-0.007,0.06,0.34,0.336,0.226,0.134,0.058
0.08,0.03,-0.05,-0.055,0.065,-0.01,0.06,0.393,0.392,0.265,0.164,0.073
0.094,0.045,-0.049,-0.07,0.071,-0.002,0.06,0.45,0.455,0.322,0.202,0.102
0.099,0.064,-0.035,-0.081,0.066,0.014,0.06,0.495,0.515,0.374,0.236,0.12
0.123,0.102,-0.021,-0.112,0.072,0.04,0.061,0.562,0.598,0.449,0.298,0.167
0.218,0.193,-0.026,-0.206,0.122,0.084,0.049,0.625,0.68,0.532,0.364,0.221
0.229,0.198,-0.031,-0.214,0.13,0.084,0.016,0.63,0.726,0.58,0.408,0.259
0.246,0.226,-0.02,-0.236,0.133,0.103,0.003,0.618,0.743,0.622,0.452,0.309
0.291,0.267,-0.024,-0.279,0.157,0.121,-0.021,0.57,0.726,0.614,0.453,0.338
0.3,0.263,-0.037,-0.281,0.168,0.112,-0.059,0.485,0.672,0.587,0.443,0.366
0.325,0.256,-0.068,-0.29,0.196,0.094,-0.087,0.392,0.579,0.521,0.425,0.372
0.331,0.222,-0.109,-0.276,0.219,0.056,-0.123,0.291,0.472,0.425,0.368,0.346
0.276,0.173,-0.104,-0.224,0.189,0.034,-0.122,0.205,0.358,0.347,0.307,0.303
0.213,0.121,-0.092,-0.167,0.152,0.015,-0.106,0.133,0.243,0.247,0.232,0.241
0.145,0.062,-0.083,-0.104,0.114,-0.01,-0.088,0.073,0.154,0.16,0.157,0.173
0.077,0.005,-0.072,-0.041,0.075,-0.033,-0.052,0.047,0.084,0.088,0.089,0.104
0.038,-0.025,-0.063,-0.007,0.051,-0.044,-0.022,0.017,0.024,0.025,0.032,0.052
-0.002,-0.054,-0.052,0.028,0.025,-0.053,0.012,-0.006,-0.011,-0.019,-0.004,0.009
-0.024,-0.068,-0.045,0.046,0.011,-0.056,0.031,-0.014,-0.032,-0.042,-0.041,-0.013
-0.046,-0.081,-0.035,0.064,-0.005,-0.058,0.03,-0.026,-0.046,-0.061,-0.056,-0.017
-0.069,-0.098,-0.03,0.084,-0.019,-0.064,0.03,-0.032,-0.049,-0.072,-0.062,-0.025
-0.076,-0.093,-0.017,0.085,-0.029,-0.055,0.026,-0.03,-0.048,-0.073,-0.075,-0.03
-0.071,-0.096,-0.025,0.083,-0.023,-0.06,0.024,-0.03,-0.06,-0.076,-0.075,-0.038
-0.053,-0.095,-0.042,0.074,-0.005,-0.068,0.026,-0.031,-0.072,-0.07,-0.075,-0.044
-0.061,-0.095,-0.033,0.078,-0.014,-0.064,0.023,-0.03,-0.067,-0.07,-0.075,-0.046
-0.069,-0.099,-0.031,0.084,-0.019,-0.065,0.036,-0.031,-0.065,-0.069,-0.075,-0.045
-0.074,-0.1,-0.025,0.087,-0.025,-0.062,0.047,-0.025,-0.062,-0.078,-0.075,-0.045
-0.08,-0.101,-0.021,0.091,-0.03,-0.061,0.042,-0.024,-0.06,-0.088,-0.09,-0.045
-0.077,-0.099,-0.022,0.088,-0.027,-0.06,0.04,-0.031,-0.057,-0.082,-0.097,-0.045
-0.061,-0.104,-0.042,0.083,-0.01,-0.072,0.037,-0.028,-0.054,-0.08,-0.094,-0.049
-0.071,-0.111,-0.04,0.091,-0.016,-0.076,0.032,-0.023,-0.052,-0.077,-0.095,-0.054
-0.107,-0.108,-0.001,0.107,-0.052,-0.054,0.04,-0.022,-0.048,-0.073,-0.095,-0.062
-0.097,-0.104,-0.006,0.101,-0.045,-0.055,0.05,-0.014,-0.046,-0.083,-0.095,-0.064
-0.094,-0.101,-0.007,0.098,-0.043,-0.054,0.043,-0.019,-0.044,-0.091,-0.09,-0.058
-0.095,-0.096,-0.001,0.095,-0.047,-0.048,0.039,-0.042,-0.063,-0.086,-0.089,-0.053
-0.099,-0.095,0.004,0.097,-0.051,-0.046,0.037,-0.047,-0.077,-0.084,-0.082,-0.047
-0.077,-0.095,-0.018,0.086,-0.029,-0.056,0.027,-0.044,-0.074,-0.08,-0.084,-0.042
-0.092,-0.095,-0.003,0.093,-0.044,-0.048,0.042,-0.045,-0.076,-0.076,-0.069,-0.034
-0.141,-0.107,0.034,0.124,-0.087,-0.036,0.055,-0.045,-0.074,-0.075,-0.069,-0.046
-0.118,-0.111,0.007,0.114,-0.062,-0.052,0.047,-0.043,-0.076,-0.073,-0.098,-0.067
-0.106,-0.106,-0.001,0.106,-0.052,-0.053,0.042,-0.048,-0.069,-0.069,-0.091,-0.059
-0.104,-0.104,0.0,0.104,-0.052,-0.052,0.037,-0.062,-0.057,-0.072,-0.088,-0.055
-0.104,-0.101,0.004,0.102,-0.054,-0.048,0.031,-0.059,-0.082,-0.091,-0.086,-0.052
-0.081,-0.099,-0.018,0.09,-0.031,-0.058,0.03,-0.06,-0.097,-0.101,-0.078,-0.044
-0.074,-0.096,-0.021,0.085,-0.026,-0.058,0.046,-0.061,-0.087,-0.1,-0.092,-0.054
-0.095,-0.089,0.006,0.092,-0.05,-0.042,0.049,-0.058,-0.085,-0.098,-0.101,-0.061
-0.091,-0.086,0.006,0.088,-0.048,-0.04,0.041,-0.071,-0.08,-0.094,-0.1,-0.06
-0.091,-0.082,0.01,0.087,-0.05,-0.036,0.039,-0.079,-0.074,-0.095,-0.098,-0.058
-0.073,-0.075,-0.001,0.074,-0.036,-0.038,0.033,-0.072,-0.084,-0.098,-0.094,-0.054
-0.086,-0.086,0.001,0.086,-0.043,-0.042,0.029,-0.067,-0.092,-0.107,-0.095,-0.055
-0.105,-0.097,0.008,0.101,-0.056,-0.044,0.026,-0.062,-0.089,-0.109,-0.091,-0.051
-0.078,-0.094,-0.016,0.087,-0.031,-0.055,0.021,-0.054,-0.091,-0.105,-0.09,-0.05
-0.077,-0.093,-0.016,0.085,-0.031,-0.054,0.018,-0.066,-0.089,-0.103,-0.09,-0.05
-0.077,-0.089,-0.012,0.084,-0.033,-0.05,0.015,-0.077,-0.091,-0.099,-0.09,-0.05
-0.083,-0.09,-0.007,0.087,-0.038,-0.048,0.008,-0.072,-0.084,-0.097,-0.089,-0.049
-0.096,-0.087,0.01,0.091,-0.053,-0.038,0.023,-0.07,-0.086,-0.093,-0.091,-0.052
-0.119,-0.084,0.035,0.101,-0.077,-0.024,0.038,-0.066,-0.105,-0.103,-0.104,-0.062
-0.146,-0.097,0.049,0.121,-0.097,-0.024,0.031,-0.065,-0.105,-0.112,-0.106,-0.061
-0.149,-0.106,0.042,0.127,-0.095,-0.032,0.03,-0.062,-0.105,-0.107,-0.104,-0.057
-0.151,-0.105,0.047,0.127,-0.098,-0.029,0.026,-0.059,-0.105,-0.105,-0.105,-0.055
-0.149,-0.105,0.044,0.127,-0.096,-0.031,0.025,-0.061,-0.104,-0.101,-0.104,-0.051
-0.151,-0.105,0.046,0.127,-0.098,-0.03,0.021,-0.059,-0.105,-0.1,-0.106,-0.049
-0.154,-0.105,0.049,0.13,-0.101,-0.027,0.012,-0.062,-0.104,-0.1,-0.101,-0.054
-0.156,-0.102,0.054,0.128,-0.105,-0.023,0.006,-0.055,-0.105,-0.101,-0.1,-0.06
-0.149,-0.096,0.053,0.122,-0.101,-0.021,0.001,-0.07,-0.104,-0.102,-0.1,-0.06
-0.139,-0.093,0.046,0.116,-0.092,-0.023,0.012,-0.085,-0.106,-0.099,-0.095,-0.06
-0.128,-0.087,0.041,0.107,-0.084,-0.023,0.025,-0.075,-0.104,-0.1,-0.095,-0.06
-0.122,-0.086,0.036,0.103,-0.078,-0.025,0.027,-0.075,-0.101,-0.1,-0.095,-0.06
-0.13,-0.09,0.039,0.11,-0.084,-0.026,0.023,-0.075,-0.098,-0.1,-0.095,-0.06
-0.134,-0.093,0.041,0.113,-0.087,-0.026,0.019,-0.075,-0.095,-0.099,-0.095,-0.064
-0.136,-0.097,0.039,0.116,-0.087,-0.029,0.016,-0.075,-0.093,-0.095,-0.095,-0.065
-0.141,-0.1,0.041,0.12,-0.091,-0.03,0.01,-0.075,-0.088,-0.095,-0.095,-0.068
-0.135,-0.096,0.039,0.116,-0.087,-0.028,0.013,-0.074,-0.099,-0.095,-0.095,-0.07
-0.13,-0.09,0.041,0.11,-0.085,-0.024,0.033,-0.069,-0.106,-0.095,-0.092,-0.071
-0.139,-0.085,0.054,0.112,-0.097,-0.015,0.037,-0.065,-0.098,-0.095,-0.089,-0.085
-0.136,-0.08,0.056,0.107,-0.095,-0.012,0.031,-0.063,-0.095,-0.091,-0.086,-0.092
-0.115,-0.073,0.043,0.094,-0.079,-0.015,0.031,-0.057,-0.09,-0.084,-0.083,-0.085
-0.108,-0.07,0.039,0.089,-0.073,-0.015,0.025,-0.056,-0.085,-0.078,-0.081,-0.082
-0.113,-0.041,0.072,0.077,-0.092,0.015,0.026,-0.049,-0.081,-0.071,-0.078,-0.078
-0.12,-0.019,0.101,0.069,-0.11,0.041,0.032,-0.041,-0.068,-0.063,-0.064,-0.072
-0.095,0.007,0.102,0.043,-0.098,0.054,0.039,-0.032,-0.063,-0.058,-0.045,-0.069
-0.054,0.066,0.12,-0.006,-0.088,0.093,0.015,-0.025,-0.065,-0.024,-0.035,-0.037
-0.054,0.066,0.12,-0.006,-0.087,0.093,-0.031,-0.059,-0.072,-0.004,-0.017,-0.024
-0.048,0.049,0.097,-0.001,-0.073,0.073,-0.032,-0.079,-0.073,-0.031,-0.018,-0.03
-0.037,0.044,0.081,-0.003,-0.059,0.062,-0.019,-0.073,-0.08,-0.05,-0.047,-0.04
-0.061,0.004,0.065,0.028,-0.063,0.034,-0.008,-0.076,-0.097,-0.068,-0.062,-0.072
-0.096,-0.046,0.05,0.071,-0.073,0.002,0.013,-0.075,-0.102,-0.079,-0.072,-0.088
-0.114,-0.078,0.036,0.096,-0.075,-0.021,0.033,-0.074,-0.117,-0.099,-0.098,-0.112
-0.131,-0.089,0.041,0.11,-0.086,-0.024,0.042,-0.083,-0.125,-0.12,-0.112,-0.117
-0.144,-0.104,0.039,0.124,-0.091,-0.032,0.045,-0.086,-0.118,-0.12,-0.118,-0.12
-0.127,-0.097,0.03,0.112,-0.078,-0.033,0.051,-0.082,-0.122,-0.119,-0.119,-0.125
-0.122,-0.102,0.02,0.111,-0.071,-0.041,0.048,-0.077,-0.118,-0.112,-0.122,-0.128
-0.127,-0.095,0.032,0.111,-0.079,-0.031,0.053,-0.072,-0.122,-0.119,-0.129,-0.136
-0.117,-0.094,0.023,0.105,-0.069,-0.035,0.044,-0.071,-0.121,-0.11,-0.116,-0.132
-0.144,-0.097,0.047,0.121,-0.095,-0.025,0.089,-0.017,-0.085,-0.092,-0.117,-0.155
-0.234,-0.056,0.178,0.145,-0.206,0.06,0.216,0.161,0.111,0.033,-0.056,-0.174
-0.098,-0.026,0.072,0.062,-0.085,0.023,0.113,0.138,0.204,0.196,0.142,-0.001
0.54,0.19,-0.351,-0.365,0.445,-0.08,-0.438,-0.355,-0.051,0.346,0.651,0.705
0.862,0.383,-0.479,-0.622,0.67,-0.048,-0.837,-0.94,-0.508,0.202,0.785,1.136
0.44,0.268,-0.171,-0.354,0.305,0.048,-0.717,-1.257,-1.156,-0.557,0.006,0.579
0.08,-0.032,-0.112,-0.024,0.096,-0.072,-0.409,-0.879,-1.129,-0.864,-0.504,-0.028
-0.035,-0.21,-0.175,0.123,0.07,-0.192,-0.09,-0.208,-0.459,-0.458,-0.355,-0.182
-0.064,-0.118,-0.053,0.091,-0.005,-0.085,0.036,0.011,-0.132,-0.166,-0.149,-0.133
-0.067,-0.071,-0.004,0.069,-0.031,-0.037,0.053,0.044,-0.032,-0.075,-0.091,-0.095
-0.099,-0.059,0.04,0.079,-0.069,-0.009,0.074,0.048,0.004,-0.049,-0.083,-0.092
-0.106,-0.049,0.057,0.078,-0.081,0.004,0.075,0.059,0.025,-0.024,-0.055,-0.083
-0.086,-0.045,0.041,0.065,-0.063,-0.002,0.09,0.087,0.041,-0.014,-0.053,-0.085
-0.081,-0.024,0.057,0.052,-0.069,0.016,0.08,0.087,0.029,-0.003,-0.043,-0.077
-0.109,-0.04,0.069,0.074,-0.089,0.014,0.081,0.094,0.047,0.009,-0.038,-0.076
-0.102,-0.03,0.072,0.066,-0.087,0.021,0.077,0.094,0.055,0.016,-0.031,-0.072
-0.086,-0.02,0.066,0.052,-0.076,0.023,0.074,0.094,0.058,0.028,-0.025,-0.066
-0.076,-0.011,0.066,0.043,-0.071,0.027,0.073,0.115,0.08,0.038,-0.02,-0.062
-0.064,0.001,0.065,0.031,-0.064,0.033,0.066,0.13,0.092,0.057,-0.014,-0.057
-0.052,0.009,0.061,0.021,-0.057,0.035,0.065,0.138,0.105,0.063,-0.007,-0.053
-0.042,0.018,0.06,0.012,-0.051,0.039,0.06,0.16,0.131,0.066,-0.004,-0.049
-0.034,0.025,0.059,0.004,-0.047,0.042,0.056,0.174,0.154,0.094,0.007,-0.042
-0.03,0.027,0.056,0.001,-0.043,0.041,0.056,0.189,0.175,0.11,0.03,-0.037
-0.024,0.029,0.053,-0.003,-0.039,0.041,0.062,0.223,0.203,0.134,0.051,-0.027
-0.008,0.053,0.06,-0.023,-0.034,0.056,0.078,0.265,0.249,0.17,0.076,-0.011
0.008,0.079,0.071,-0.043,-0.032,0.075,0.079,0.306,0.297,0.205,0.1,0.008
0.013,0.083,0.07,-0.048,-0.029,0.076,0.072,0.364,0.357,0.261,0.132,0.026
0.036,0.103,0.067,-0.07,-0.016,0.085,0.07,0.427,0.422,0.306,0.17,0.051
0.067,0.131,0.063,-0.1,0.002,0.097,0.062,0.49,0.493,0.368,0.218,0.081
0.1,0.176,0.076,-0.138,0.012,0.125,0.061,0.554,0.572,0.436,0.277,0.119
0.117,0.221,0.104,-0.169,0.006,0.162,0.048,0.605,0.64,0.5,0.326,0.158
0.134,0.238,0.104,-0.186,0.015,0.17,0.036,0.619,0.698,0.559,0.376,0.199
0.2,0.297,0.097,-0.249,0.052,0.197,0.015,0.602,0.714,0.585,0.416,0.257
0.216,0.314,0.098,-0.265,0.059,0.205,-0.031,0.552,0.679,0.575,0.413,0.29
0.223,0.292,0.069,-0.258,0.077,0.18,-0.062,0.454,0.614,0.531,0.401,0.303
0.23,0.288,0.058,-0.259,0.086,0.173,-0.103,0.354,0.519,0.472,0.377,0.297
0.237,0.272,0.035,-0.254,0.101,0.153,-0.12,0.264,0.415,0.401,0.333,0.277
0.252,0.267,0.016,-0.26,0.118,0.141,-0.106,0.177,0.307,0.305,0.281,0.253
0.176,0.215,0.039,-0.196,0.069,0.127,-0.099,0.103,0.192,0.208,0.2,0.188
0.1,0.14,0.04,-0.12,0.03,0.09,-0.075,0.042,0.094,0.126,0.124,0.119
0.054,0.111,0.057,-0.083,-0.001,0.084,-0.048,0.005,0.026,0.049,0.064,0.057
0.015,0.086,0.071,-0.051,-0.028,0.078,-0.027,-0.017,-0.028,0.0,0.011,-0.001
-0.032,0.054,0.086,-0.011,-0.059,0.07,-0.01,-0.038,-0.058,-0.033,-0.027,-0.03
-0.087,0.016,0.103,0.035,-0.095,0.06,0.001,-0.052,-0.083,-0.07,-0.057,-0.058
-0.096,0.003,0.098,0.047,-0.098,0.05,0.013,-0.059,-0.103,-0.08,-0.074,-0.084
-0.094,0.007,0.101,0.044,-0.098,0.053,0.018,-0.06,-0.104,-0.088,-0.08,-0.09
-0.097,0.003,0.1,0.047,-0.099,0.051,0.025,-0.06,-0.111,-0.102,-0.079,-0.09
-0.086,0.013,0.1,0.037,-0.093,0.056,0.029,-0.06,-0.11,-0.1,-0.087,-0.09
-0.08,0.017,0.097,0.032,-0.089,0.057,0.025,-0.06,-0.11,-0.1,-0.096,-0.09
-0.084,0.009,0.094,0.037,-0.089,0.051,0.025,-0.061,-0.111,-0.101,-0.094,-0.09
-0.086,0.005,0.091,0.041,-0.089,0.048,0.025,-0.057,-0.11,-0.099,-0.098,-0.094
-0.089,-0.001,0.088,0.045,-0.088,0.044,0.026,-0.055,-0.111,-0.103,-0.1,-0.095
-0.092,-0.007,0.085,0.049,-0.088,0.039,0.024,-0.051,-0.11,-0.112,-0.1,-0.095
-0.095,-0.009,0.086,0.051,-0.09,0.038,0.03,-0.05,-0.111,-0.111,-0.097,-0.096
-0.095,-0.002,0.094,0.048,-0.095,0.046,0.038,-0.045,-0.11,-0.11,-0.095,-0.095
-0.089,0.006,0.095,0.041,-0.092,0.051,0.035,-0.046,-0.111,-0.111,-0.095,-0.095
-0.083,0.012,0.095,0.035,-0.089,0.053,0.035,-0.067,-0.109,-0.11,-0.095,-0.091
-0.076,0.02,0.095,0.027,-0.086,0.057,0.035,-0.071,-0.105,-0.111,-0.095,-0.09
-0.076,0.019,0.094,0.028,-0.085,0.056,0.035,-0.07,-0.105,-0.107,-0.096,-0.09
-0.086,0.014,0.1,0.036,-0.093,0.057,0.034,-0.075,-0.103,-0.105,-0.1,-0.085
-0.081,0.029,0.11,0.026,-0.096,0.07,0.031,-0.075,-0.1,-0.101,-0.1,-0.085
-0.075,0.037,0.112,0.019,-0.094,0.074,0.028,-0.074,-0.1,-0.1,-0.1,-0.085
-0.075,0.034,0.109,0.021,-0.093,0.071,0.025,-0.07,-0.103,-0.095,-0.1,-0.085
-0.077,0.034,0.11,0.022,-0.094,0.072,0.022,-0.068,-0.108,-0.097,-0.1,-0.085
-0.081,0.029,0.11,0.026,-0.096,0.069,0.019,-0.065,-0.111,-0.116,-0.104,-0.085
-0.079,0.031,0.109,0.024,-0.094,0.07,0.023,-0.061,-0.115,-0.122,-0.105,-0.085
-0.079,0.033,0.112,0.023,-0.096,0.072,0.026,-0.06,-0.115,-0.123,-0.105,-0.085
-0.082,0.032,0.114,0.024,-0.098,0.073,0.02,-0.055,-0.12,-0.127,-0.105,-0.084
-0.088,0.029,0.117,0.029,-0.102,0.072,0.018,-0.06,-0.12,-0.13,-0.105,-0.086
-0.086,0.026,0.112,0.03,-0.1,0.069,0.013,-0.071,-0.116,-0.129,-0.105,-0.083
-0.099,0.024,0.123,0.037,-0.112,0.073,0.01,-0.065,-0.114,-0.124,-0.105,-0.09
-0.116,0.018,0.134,0.048,-0.125,0.076,0.029,-0.06,-0.11,-0.125,-0.105,-0.099
-0.102,0.023,0.125,0.039,-0.114,0.074,0.035,-0.058,-0.109,-0.125,-0.105,-0.086
-0.096,0.024,0.12,0.035,-0.108,0.072,0.026,-0.048,-0.103,-0.125,-0.105,-0.083
-0.076,0.035,0.111,0.021,-0.094,0.072,0.024,-0.063,-0.11,-0.125,-0.105,-0.085
-0.049,0.06,0.108,-0.006,-0.078,0.084,0.018,-0.083,-0.121,-0.121,-0.101,-0.085
-0.038,0.058,0.096,-0.01,-0.068,0.077,0.015,-0.078,-0.12,-0.12,-0.096,-0.088
-0.051,0.051,0.103,0.0,-0.077,0.077,0.027,-0.075,-0.119,-0.119,-0.091,-0.091
-0.072,0.052,0.124,0.01,-0.098,0.088,0.043,-0.072,-0.115,-0.116,-0.089,-0.089
-0.08,0.043,0.123,0.018,-0.102,0.082,0.045,-0.07,-0.115,-0.114,-0.08,-0.086
-0.067,0.046,0.112,0.01,-0.09,0.079,0.045,-0.069,-0.116,-0.119,-0.086,-0.083
-0.093,0.028,0.121,0.032,-0.107,0.074,0.045,-0.078,-0.129,-0.125,-0.101,-0.08
-0.14,0.002,0.142,0.069,-0.141,0.072,0.045,-0.087,-0.137,-0.126,-0.096,-0.078
-0.096,0.04,0.136,0.028,-0.116,0.088,0.045,-0.082,-0.132,-0.123,-0.093,-0.074
-0.069,0.057,0.126,0.006,-0.098,0.091,0.04,-0.08,-0.13,-0.121,-0.09,-0.081
-0.075,0.043,0.118,0.015,-0.097,0.08,0.04,-0.077,-0.126,-0.118,-0.085,-0.086
-0.087,0.04,0.127,0.023,-0.107,0.083,0.04,-0.074,-0.125,-0.124,-0.087,-0.085
-0.109,0.031,0.139,0.039,-0.124,0.084,0.04,-0.072,-0.121,-0.135,-0.095,-0.084
-0.105,0.023,0.128,0.04,-0.117,0.075,0.04,-0.069,-0.115,-0.128,-0.099,-0.079
-0.098,0.023,0.121,0.037,-0.11,0.072,0.038,-0.066,-0.109,-0.124,-0.096,-0.08
-0.11,0.022,0.132,0.043,-0.121,0.077,0.031,-0.065,-0.106,-0.118,-0.093,-0.078
-0.117,0.02,0.137,0.048,-0.127,0.078,0.029,-0.057,-0.096,-0.111,-0.09,-0.074
-0.093,0.04,0.132,0.026,-0.113,0.086,0.022,-0.069,-0.104,-0.118,-0.087,-0.075
-0.09,0.045,0.136,0.022,-0.113,0.09,0.02,-0.091,-0.125,-0.136,-0.085,-0.075
-0.1,0.035,0.135,0.032,-0.117,0.085,0.015,-0.088,-0.118,-0.13,-0.087,-0.075
-0.099,0.036,0.135,0.031,-0.118,0.085,0.035,-0.083,-0.11,-0.12,-0.092,-0.074
-0.108,0.027,0.135,0.04,-0.121,0.08,0.053,-0.083,-0.106,-0.126,-0.094,-0.07
-0.108,0.027,0.136,0.04,-0.123,0.081,0.032,-0.069,-0.095,-0.096,-0.091,-0.07
-0.091,0.043,0.134,0.023,-0.113,0.088,0.051,-0.033,-0.101,-0.147,-0.086,-0.07
-0.091,0.046,0.137,0.022,-0.114,0.091,0.018,-0.008,-0.115,-0.096,-0.084,-0.07
-0.092,0.044,0.136,0.023,-0.114,0.09,0.053,0.0,-0.115,0.017,-0.079,-0.07
-0.099,0.046,0.144,0.027,-0.122,0.094,-0.021,0.001,-0.114,-0.004,-0.076,-0.07
-0.084,0.044,0.129,0.02,-0.107,0.086,-0.065,-0.001,-0.116,0.0,-0.072,-0.07
-0.077,0.045,0.122,0.015,-0.1,0.084,0.059,0.001,-0.114,0.001,-0.053,-0.07
