0.012,-0.005,-0.017,-0.004,0.015,-0.011,0.045,-0.044,-0.149,-0.099,-0.085,-0.05
-0.004,-0.003,0.001,0.003,-0.002,-0.001,0.05,-0.022,-0.126,-0.092,-0.083,-0.05
-0.016,0.002,0.018,0.006,-0.017,0.009,0.071,0.022,-0.091,-0.082,-0.077,-0.05
-0.03,0.005,0.035,0.012,-0.033,0.02,0.081,0.052,-0.072,-0.072,-0.074,-0.05
-0.019,0.017,0.035,0.001,-0.027,0.026,0.08,0.074,-0.056,-0.053,-0.069,-0.05
0.008,0.037,0.03,-0.022,-0.011,0.033,0.086,0.098,-0.043,-0.032,-0.065,-0.05
0.015,0.044,0.029,-0.029,-0.008,0.036,0.084,0.12,-0.024,-0.019,-0.058,-0.043
0.029,0.05,0.021,-0.04,0.004,0.035,0.086,0.15,0.002,-0.008,-0.047,-0.034
0.026,0.06,0.034,-0.043,-0.004,0.047,0.087,0.191,0.04,0.015,-0.037,-0.027
0.008,0.067,0.058,-0.038,-0.026,0.063,0.084,0.24,0.077,0.04,-0.024,-0.014
0.022,0.074,0.052,-0.048,-0.016,0.063,0.102,0.299,0.126,0.073,0.0,-0.003
0.042,0.092,0.05,-0.067,-0.005,0.071,0.108,0.368,0.184,0.112,0.026,0.018
0.072,0.12,0.049,-0.096,0.011,0.084,0.098,0.447,0.235,0.146,0.052,0.043
0.097,0.138,0.041,-0.118,0.028,0.089,0.093,0.536,0.311,0.2,0.091,0.058
0.117,0.177,0.06,-0.147,0.028,0.118,0.083,0.646,0.406,0.266,0.144,0.094
0.156,0.224,0.067,-0.19,0.044,0.145,0.079,0.74,0.493,0.337,0.2,0.137
0.187,0.271,0.084,-0.229,0.051,0.177,0.064,0.804,0.573,0.411,0.266,0.183
0.226,0.331,0.105,-0.278,0.06,0.218,0.036,0.838,0.631,0.483,0.338,0.239
0.261,0.375,0.114,-0.318,0.073,0.244,0.012,0.829,0.657,0.549,0.397,0.289
0.275,0.415,0.14,-0.345,0.067,0.277,-0.01,0.78,0.651,0.575,0.443,0.329
0.289,0.437,0.148,-0.363,0.07,0.292,-0.039,0.689,0.616,0.576,0.461,0.346
0.28,0.424,0.144,-0.352,0.068,0.283,-0.051,0.558,0.55,0.552,0.439,0.34
0.26,0.391,0.132,-0.326,0.064,0.261,-0.032,0.407,0.425,0.464,0.38,0.302
0.194,0.313,0.119,-0.254,0.037,0.216,-0.002,0.273,0.289,0.347,0.281,0.225
0.105,0.214,0.109,-0.159,-0.002,0.161,0.021,0.168,0.169,0.231,0.174,0.144
0.062,0.148,0.086,-0.105,-0.012,0.117,0.035,0.086,0.062,0.129,0.091,0.073
0.024,0.094,0.07,-0.06,-0.023,0.082,0.061,0.03,-0.009,0.063,0.023,0.017
0.006,0.058,0.052,-0.032,-0.023,0.055,0.068,-0.002,-0.056,0.019,-0.013,-0.014
0.001,0.041,0.04,-0.021,-0.02,0.04,0.072,-0.021,-0.09,-0.011,-0.029,-0.034
-0.025,0.03,0.056,-0.003,-0.041,0.043,0.087,-0.037,-0.104,-0.023,-0.046,-0.039
-0.033,0.025,0.058,0.004,-0.046,0.041,0.079,-0.051,-0.095,-0.034,-0.048,-0.042
-0.031,0.017,0.048,0.007,-0.04,0.032,0.075,-0.052,-0.102,-0.046,-0.059,-0.047
-0.032,0.011,0.044,0.01,-0.038,0.027,0.072,-0.05,-0.116,-0.05,-0.072,-0.049
-0.031,0.003,0.035,0.014,-0.033,0.019,0.066,-0.05,-0.115,-0.05,-0.07,-0.051
-0.03,0.001,0.031,0.015,-0.031,0.016,0.065,-0.045,-0.115,-0.052,-0.07,-0.05
-0.027,0.007,0.034,0.009,-0.03,0.02,0.065,-0.045,-0.116,-0.056,-0.07,-0.05
-0.025,0.012,0.038,0.006,-0.032,0.025,0.065,-0.046,-0.114,-0.055,-0.07,-0.05
-0.023,0.017,0.04,0.003,-0.032,0.029,0.065,-0.05,-0.12,-0.052,-0.067,-0.047
-0.021,0.024,0.045,-0.002,-0.033,0.034,0.065,-0.053,-0.12,-0.05,-0.064,-0.045
-0.014,0.029,0.043,-0.008,-0.029,0.036,0.065,-0.055,-0.121,-0.05,-0.061,-0.045
-0.012,0.027,0.039,-0.007,-0.026,0.033,0.065,-0.063,-0.12,-0.046,-0.059,-0.045
-0.02,0.021,0.041,0.0,-0.03,0.03,0.065,-0.07,-0.119,-0.044,-0.053,-0.045
-0.019,0.017,0.036,0.001,-0.028,0.026,0.065,-0.086,-0.142,-0.049,-0.061,-0.046
-0.023,0.012,0.035,0.005,-0.029,0.023,0.065,-0.098,-0.152,-0.059,-0.08,-0.05
-0.027,0.008,0.035,0.009,-0.031,0.021,0.065,-0.108,-0.17,-0.076,-0.08,-0.05
-0.027,0.003,0.03,0.012,-0.029,0.016,0.063,-0.12,-0.184,-0.081,-0.08,-0.05
-0.027,0.0,0.027,0.013,-0.027,0.013,0.059,-0.122,-0.177,-0.079,-0.08,-0.054
-0.022,0.001,0.023,0.011,-0.023,0.011,0.057,-0.127,-0.182,-0.081,-0.08,-0.055
-0.023,-0.003,0.02,0.013,-0.022,0.009,0.054,-0.132,-0.178,-0.079,-0.078,-0.055
-0.019,-0.005,0.014,0.011,-0.016,0.004,0.051,-0.139,-0.182,-0.081,-0.074,-0.055
-0.027,-0.005,0.022,0.016,-0.024,0.008,0.049,-0.14,-0.183,-0.074,-0.075,-0.055
-0.049,-0.008,0.042,0.028,-0.045,0.017,0.046,-0.139,-0.19,-0.071,-0.075,-0.055
-0.048,-0.012,0.036,0.03,-0.042,0.012,0.044,-0.142,-0.186,-0.066,-0.075,-0.055
-0.042,-0.013,0.029,0.027,-0.035,0.007,0.04,-0.144,-0.169,-0.067,-0.076,-0.055
-0.041,-0.018,0.023,0.029,-0.032,0.003,0.038,-0.148,-0.201,-0.098,-0.074,-0.055
-0.034,-0.02,0.014,0.027,-0.024,-0.002,0.033,-0.149,-0.212,-0.106,-0.077,-0.055
-0.03,-0.018,0.012,0.024,-0.021,-0.003,0.04,-0.148,-0.203,-0.105,-0.084,-0.055
-0.016,0.001,0.017,0.007,-0.016,0.009,0.061,-0.135,-0.188,-0.086,-0.077,-0.052
-0.009,0.035,0.045,-0.013,-0.027,0.04,0.077,-0.12,-0.156,-0.063,-0.067,-0.047
-0.03,0.039,0.069,-0.004,-0.05,0.054,0.106,-0.088,-0.144,-0.066,-0.061,-0.046
-0.011,0.082,0.093,-0.036,-0.052,0.087,0.086,-0.067,-0.143,-0.064,-0.065,-0.05
0.006,0.116,0.109,-0.061,-0.052,0.112,0.043,-0.123,-0.146,-0.068,-0.064,-0.05
0.011,0.113,0.102,-0.062,-0.046,0.107,0.04,-0.152,-0.149,-0.07,-0.068,-0.05
0.013,0.093,0.08,-0.053,-0.034,0.086,0.036,-0.16,-0.174,-0.071,-0.071,-0.05
-0.012,0.014,0.026,-0.002,-0.019,0.02,0.034,-0.167,-0.195,-0.073,-0.068,-0.049
-0.031,-0.019,0.012,0.025,-0.021,-0.004,0.03,-0.175,-0.202,-0.085,-0.081,-0.057
-0.058,-0.05,0.009,0.054,-0.033,-0.02,0.03,-0.182,-0.216,-0.112,-0.097,-0.07
-0.063,-0.063,0.0,0.063,-0.032,-0.031,0.036,-0.196,-0.232,-0.121,-0.098,-0.071
-0.057,-0.056,0.0,0.057,-0.029,-0.028,0.034,-0.195,-0.216,-0.107,-0.089,-0.067
-0.048,-0.063,-0.016,0.056,-0.016,-0.039,0.037,-0.18,-0.224,-0.126,-0.103,-0.074
-0.043,-0.047,-0.004,0.045,-0.019,-0.025,0.035,-0.199,-0.216,-0.103,-0.085,-0.065
-0.036,-0.066,-0.03,0.052,-0.003,-0.048,0.044,-0.159,-0.21,-0.127,-0.107,-0.074
-0.027,-0.037,-0.011,0.032,-0.008,-0.024,0.037,-0.207,-0.23,-0.113,-0.083,-0.059
-0.011,-0.072,-0.06,0.042,0.025,-0.066,0.041,-0.135,-0.196,-0.127,-0.11,-0.075
-0.036,-0.059,-0.023,0.048,-0.007,-0.041,0.095,-0.09,-0.196,-0.147,-0.145,-0.118
-0.053,0.012,0.066,0.021,-0.06,0.039,0.283,0.38,0.096,-0.014,-0.103,-0.123
0.214,0.423,0.209,-0.319,0.002,0.316,0.116,0.324,0.528,0.56,0.407,0.265
0.485,1.008,0.523,-0.747,-0.019,0.765,-0.708,-1.274,0.846,1.801,1.601,1.139
0.297,0.472,0.175,-0.385,0.061,0.324,-0.993,-1.745,0.18,1.096,1.159,0.997
-0.016,-0.253,-0.237,0.135,0.111,-0.245,-0.62,-1.214,-0.94,-0.564,-0.18,0.131
-0.026,-0.25,-0.225,0.138,0.099,-0.237,-0.299,-0.672,-0.627,-0.388,-0.219,-0.059
0.011,-0.147,-0.158,0.068,0.084,-0.152,-0.047,-0.132,-0.177,-0.137,-0.11,-0.051
-0.027,-0.056,-0.029,0.042,0.001,-0.043,0.027,-0.074,-0.164,-0.112,-0.098,-0.06
-0.016,-0.047,-0.031,0.032,0.007,-0.039,0.051,0.006,-0.078,-0.04,-0.069,-0.049
-0.014,-0.033,-0.019,0.023,0.003,-0.026,0.057,0.02,-0.095,-0.071,-0.078,-0.061
-0.008,-0.02,-0.012,0.014,0.002,-0.016,0.058,0.053,-0.043,-0.028,-0.049,-0.049
-0.011,-0.016,-0.005,0.014,-0.003,-0.01,0.084,0.09,-0.037,-0.048,-0.059,-0.052
-0.013,0.001,0.014,0.006,-0.014,0.008,0.082,0.097,-0.006,-0.021,-0.035,-0.038
-0.008,0.004,0.012,0.001,-0.01,0.008,0.087,0.136,0.016,-0.019,-0.037,-0.036
0.002,0.02,0.018,-0.012,-0.008,0.019,0.084,0.149,0.024,-0.002,-0.023,-0.027
0.013,0.026,0.013,-0.02,0.0,0.019,0.085,0.203,0.07,0.019,-0.017,-0.018
0.022,0.038,0.016,-0.031,0.003,0.027,0.085,0.243,0.102,0.043,-0.004,-0.004
0.034,0.048,0.014,-0.041,0.009,0.031,0.081,0.306,0.148,0.077,0.022,0.011
0.037,0.056,0.019,-0.047,0.009,0.037,0.075,0.382,0.212,0.116,0.044,0.022
0.065,0.09,0.025,-0.078,0.02,0.057,0.07,0.455,0.275,0.159,0.08,0.042
0.085,0.116,0.03,-0.101,0.027,0.073,0.064,0.552,0.35,0.21,0.115,0.067
0.104,0.14,0.036,-0.122,0.033,0.088,0.058,0.652,0.438,0.275,0.163,0.101
0.143,0.185,0.042,-0.164,0.05,0.114,0.053,0.735,0.52,0.343,0.219,0.14
0.19,0.239,0.049,-0.215,0.071,0.144,0.028,0.786,0.584,0.41,0.278,0.188
0.235,0.29,0.054,-0.263,0.09,0.172,-0.002,0.794,0.64,0.48,0.35,0.246
0.264,0.324,0.061,-0.294,0.101,0.192,-0.023,0.78,0.654,0.537,0.413,0.297
0.287,0.363,0.076,-0.325,0.105,0.22,-0.048,0.727,0.638,0.556,0.453,0.335
0.278,0.384,0.106,-0.331,0.086,0.245,-0.055,0.63,0.601,0.551,0.463,0.343
0.247,0.364,0.117,-0.306,0.065,0.24,-0.047,0.502,0.521,0.519,0.439,0.323
0.22,0.319,0.098,-0.27,0.061,0.209,-0.038,0.36,0.4,0.425,0.363,0.274
0.169,0.243,0.074,-0.206,0.047,0.158,-0.007,0.239,0.259,0.296,0.246,0.191
0.103,0.154,0.052,-0.129,0.025,0.103,0.025,0.142,0.149,0.189,0.146,0.109
0.048,0.085,0.037,-0.067,0.005,0.061,0.037,0.067,0.052,0.094,0.071,0.05
0.013,0.04,0.028,-0.027,-0.008,0.034,0.051,0.017,-0.017,0.023,0.016,0.013
-0.01,0.008,0.018,0.001,-0.014,0.013,0.07,-0.022,-0.054,-0.01,-0.021,-0.018
-0.037,-0.026,0.011,0.031,-0.024,-0.008,0.074,-0.047,-0.081,-0.029,-0.047,-0.043
-0.046,-0.042,0.004,0.044,-0.025,-0.019,0.075,-0.056,-0.095,-0.052,-0.062,-0.057
-0.036,-0.039,-0.004,0.038,-0.016,-0.021,0.075,-0.059,-0.102,-0.066,-0.066,-0.061
-0.028,-0.04,-0.011,0.034,-0.009,-0.025,0.075,-0.06,-0.099,-0.065,-0.064,-0.06
-0.02,-0.036,-0.015,0.028,-0.002,-0.025,0.075,-0.06,-0.1,-0.065,-0.065,-0.06
-0.019,-0.034,-0.015,0.027,-0.002,-0.025,0.075,-0.06,-0.1,-0.065,-0.065,-0.06
-0.022,-0.037,-0.015,0.03,-0.003,-0.026,0.075,-0.06,-0.1,-0.065,-0.065,-0.06
-0.025,-0.04,-0.015,0.033,-0.005,-0.027,0.07,-0.06,-0.103,-0.066,-0.068,-0.064
-0.025,-0.04,-0.015,0.033,-0.005,-0.027,0.07,-0.061,-0.107,-0.064,-0.072,-0.066
-0.025,-0.04,-0.015,0.033,-0.005,-0.027,0.069,-0.068,-0.111,-0.071,-0.075,-0.065
-0.025,-0.04,-0.015,0.033,-0.005,-0.027,0.064,-0.073,-0.117,-0.082,-0.078,-0.065
-0.025,-0.04,-0.015,0.033,-0.005,-0.027,0.066,-0.08,-0.127,-0.085,-0.082,-0.065
-0.028,-0.044,-0.015,0.036,-0.006,-0.029,0.062,-0.079,-0.133,-0.09,-0.085,-0.066
-0.031,-0.046,-0.015,0.039,-0.008,-0.03,0.059,-0.086,-0.136,-0.086,-0.085,-0.071
-0.034,-0.049,-0.016,0.042,-0.009,-0.032,0.061,-0.106,-0.145,-0.087,-0.085,-0.07
-0.04,-0.052,-0.012,0.046,-0.014,-0.031,0.056,-0.113,-0.158,-0.104,-0.089,-0.073
-0.057,-0.055,0.001,0.056,-0.028,-0.027,0.055,-0.122,-0.167,-0.111,-0.09,-0.075
-0.054,-0.054,0.0,0.054,-0.027,-0.026,0.055,-0.133,-0.172,-0.117,-0.09,-0.075
-0.041,-0.049,-0.008,0.046,-0.016,-0.029,0.05,-0.139,-0.176,-0.12,-0.095,-0.079
-0.038,-0.051,-0.013,0.044,-0.012,-0.032,0.05,-0.14,-0.179,-0.12,-0.095,-0.08
-0.025,-0.047,-0.022,0.036,-0.001,-0.035,0.05,-0.139,-0.183,-0.125,-0.096,-0.08
-0.023,-0.045,-0.022,0.034,0.0,-0.033,0.05,-0.142,-0.187,-0.125,-0.1,-0.08
-0.026,-0.044,-0.018,0.036,-0.004,-0.031,0.05,-0.153,-0.192,-0.121,-0.102,-0.08
-0.039,-0.052,-0.013,0.046,-0.013,-0.033,0.052,-0.155,-0.194,-0.119,-0.105,-0.079
-0.051,-0.061,-0.01,0.056,-0.021,-0.036,0.056,-0.155,-0.19,-0.12,-0.108,-0.074
-0.028,-0.056,-0.028,0.042,0.0,-0.042,0.054,-0.158,-0.19,-0.12,-0.111,-0.071
-0.017,-0.055,-0.038,0.036,0.011,-0.047,0.056,-0.16,-0.189,-0.12,-0.106,-0.068
-0.023,-0.055,-0.032,0.039,0.005,-0.043,0.054,-0.16,-0.185,-0.119,-0.099,-0.063
-0.024,-0.055,-0.031,0.04,0.004,-0.043,0.056,-0.154,-0.185,-0.113,-0.092,-0.06
-0.027,-0.053,-0.026,0.04,0.0,-0.039,0.06,-0.148,-0.183,-0.111,-0.087,-0.056
-0.019,-0.031,-0.011,0.026,-0.004,-0.021,0.07,-0.135,-0.172,-0.105,-0.079,-0.05
-0.003,-0.002,0.001,0.002,-0.002,-0.001,0.092,-0.13,-0.163,-0.1,-0.075,-0.045
-0.003,0.026,0.029,-0.012,-0.016,0.027,0.097,-0.107,-0.163,-0.103,-0.073,-0.039
-0.015,0.057,0.072,-0.021,-0.043,0.064,0.077,-0.117,-0.167,-0.106,-0.069,-0.033
-0.013,0.067,0.079,-0.027,-0.046,0.073,0.03,-0.163,-0.162,-0.104,-0.067,-0.031
-0.009,0.039,0.048,-0.015,-0.029,0.043,0.02,-0.178,-0.173,-0.107,-0.063,-0.04
-0.033,-0.019,0.014,0.026,-0.023,-0.003,0.041,-0.19,-0.204,-0.139,-0.082,-0.055
-0.054,-0.067,-0.012,0.061,-0.021,-0.039,0.036,-0.208,-0.226,-0.161,-0.11,-0.074
-0.051,-0.094,-0.043,0.073,-0.004,-0.068,0.035,-0.212,-0.215,-0.158,-0.109,-0.087
-0.052,-0.108,-0.056,0.08,0.003,-0.082,0.036,-0.209,-0.228,-0.185,-0.122,-0.093
-0.059,-0.101,-0.042,0.08,-0.008,-0.071,0.029,-0.222,-0.242,-0.173,-0.114,-0.087
-0.051,-0.11,-0.059,0.081,0.004,-0.084,0.032,-0.195,-0.234,-0.186,-0.127,-0.093
-0.058,-0.098,-0.04,0.078,-0.008,-0.069,0.03,-0.229,-0.244,-0.177,-0.122,-0.087
-0.054,-0.112,-0.058,0.083,0.003,-0.085,0.036,-0.185,-0.219,-0.177,-0.125,-0.093
-0.046,-0.096,-0.05,0.072,0.002,-0.073,0.038,-0.224,-0.249,-0.191,-0.131,-0.096
-0.04,-0.104,-0.064,0.072,0.012,-0.083,0.037,-0.191,-0.197,-0.16,-0.11,-0.09
-0.044,-0.132,-0.088,0.089,0.022,-0.11,0.065,-0.124,-0.202,-0.235,-0.168,-0.124
-0.079,-0.075,0.004,0.077,-0.041,-0.035,0.215,0.177,-0.022,-0.135,-0.166,-0.162
0.111,0.221,0.11,-0.166,0.0,0.165,0.231,0.567,0.446,0.249,0.144,0.047
0.407,0.886,0.479,-0.647,-0.036,0.682,-0.46,-0.8,0.804,1.515,1.341,0.912
0.342,0.663,0.321,-0.502,0.01,0.492,-0.974,-1.788,0.457,1.549,1.5,1.134
0.021,-0.199,-0.22,0.089,0.121,-0.21,-0.705,-1.308,-0.76,-0.346,0.037,0.262
-0.057,-0.342,-0.284,0.2,0.114,-0.313,-0.379,-0.848,-0.842,-0.636,-0.333,-0.106
0.01,-0.222,-0.232,0.107,0.121,-0.227,-0.106,-0.256,-0.227,-0.218,-0.132,-0.08
-0.023,-0.14,-0.116,0.082,0.047,-0.128,0.01,-0.095,-0.173,-0.223,-0.14,-0.091
-0.024,-0.103,-0.079,0.064,0.027,-0.091,0.033,-0.037,-0.088,-0.115,-0.085,-0.066
-0.014,-0.087,-0.074,0.05,0.03,-0.08,0.072,0.016,-0.096,-0.15,-0.111,-0.078
-0.001,-0.061,-0.06,0.031,0.03,-0.06,0.058,0.018,-0.063,-0.105,-0.074,-0.059
0.005,-0.064,-0.069,0.03,0.037,-0.066,0.079,0.073,-0.032,-0.114,-0.081,-0.062
0.004,-0.049,-0.053,0.022,0.029,-0.05,0.08,0.05,-0.031,-0.097,-0.064,-0.052
0.01,-0.049,-0.059,0.02,0.035,-0.054,0.08,0.096,-0.001,-0.084,-0.058,-0.046
0.012,-0.037,-0.049,0.013,0.031,-0.043,0.081,0.115,0.009,-0.073,-0.049,-0.039
0.018,-0.032,-0.051,0.007,0.035,-0.041,0.079,0.149,0.055,-0.042,-0.025,-0.029
0.028,-0.022,-0.05,-0.003,0.039,-0.036,0.08,0.195,0.088,-0.024,-0.011,-0.024
0.038,-0.011,-0.049,-0.013,0.043,-0.029,0.075,0.246,0.143,0.01,0.003,-0.013
0.059,0.016,-0.043,-0.038,0.051,-0.013,0.074,0.318,0.234,0.045,0.026,0.0
0.079,0.044,-0.035,-0.061,0.056,0.004,0.07,0.403,0.318,0.099,0.06,0.027
0.084,0.054,-0.03,-0.068,0.057,0.011,0.067,0.498,0.401,0.155,0.099,0.058
0.113,0.091,-0.022,-0.101,0.067,0.034,0.065,0.589,0.47,0.208,0.138,0.084
0.147,0.13,-0.017,-0.138,0.082,0.056,0.061,0.676,0.537,0.269,0.184,0.114
0.197,0.188,-0.009,-0.192,0.103,0.089,0.044,0.747,0.624,0.352,0.256,0.165
0.237,0.241,0.004,-0.239,0.116,0.122,0.021,0.769,0.675,0.423,0.321,0.221
0.263,0.28,0.018,-0.272,0.122,0.149,-0.011,0.757,0.688,0.472,0.385,0.269
0.277,0.328,0.051,-0.303,0.113,0.189,-0.044,0.72,0.68,0.507,0.429,0.307
0.286,0.353,0.067,-0.32,0.11,0.21,-0.057,0.633,0.663,0.508,0.448,0.326
0.281,0.35,0.069,-0.315,0.106,0.209,-0.069,0.505,0.597,0.484,0.434,0.322
0.221,0.308,0.086,-0.265,0.067,0.197,-0.069,0.364,0.469,0.406,0.366,0.28
0.169,0.237,0.067,-0.203,0.051,0.152,-0.036,0.234,0.336,0.274,0.262,0.201
0.115,0.157,0.042,-0.136,0.037,0.099,-0.002,0.12,0.202,0.152,0.15,0.113
0.057,0.089,0.031,-0.073,0.013,0.06,0.021,0.046,0.093,0.057,0.069,0.046
0.013,0.029,0.016,-0.021,-0.002,0.022,0.039,-0.012,0.019,-0.017,0.001,0.005
-0.022,-0.017,0.005,0.019,-0.013,-0.006,0.05,-0.057,-0.032,-0.083,-0.054,-0.032
-0.018,-0.025,-0.007,0.022,-0.005,-0.016,0.05,-0.071,-0.058,-0.101,-0.071,-0.054
-0.005,-0.033,-0.028,0.019,0.012,-0.03,0.049,-0.077,-0.071,-0.109,-0.078,-0.06
-0.002,-0.042,-0.04,0.022,0.019,-0.041,0.051,-0.075,-0.07,-0.128,-0.081,-0.069
0.002,-0.039,-0.041,0.019,0.022,-0.04,0.049,-0.075,-0.07,-0.123,-0.084,-0.07
0.007,-0.038,-0.045,0.016,0.026,-0.041,0.053,-0.073,-0.07,-0.128,-0.084,-0.07
0.013,-0.034,-0.047,0.011,0.031,-0.04,0.069,-0.069,-0.07,-0.13,-0.079,-0.07
0.015,-0.036,-0.051,0.01,0.034,-0.043,0.076,-0.07,-0.071,-0.13,-0.081,-0.07
0.016,-0.031,-0.047,0.008,0.032,-0.039,0.075,-0.074,-0.069,-0.126,-0.077,-0.07
0.011,-0.03,-0.041,0.009,0.026,-0.035,0.073,-0.075,-0.071,-0.125,-0.075,-0.073
0.004,-0.03,-0.034,0.013,0.019,-0.031,0.069,-0.076,-0.068,-0.125,-0.074,-0.075
0.003,-0.025,-0.028,0.011,0.016,-0.026,0.071,-0.079,-0.08,-0.121,-0.086,-0.075
-0.005,-0.025,-0.02,0.015,0.008,-0.022,0.066,-0.081,-0.093,-0.12,-0.097,-0.075
-0.009,-0.025,-0.016,0.017,0.004,-0.02,0.06,-0.081,-0.088,-0.12,-0.094,-0.075
0.012,-0.026,-0.038,0.007,0.026,-0.032,0.055,-0.09,-0.104,-0.133,-0.096,-0.074
0.024,-0.023,-0.047,0.0,0.036,-0.035,0.05,-0.105,-0.112,-0.145,-0.095,-0.07
0.007,-0.036,-0.044,0.015,0.026,-0.04,0.042,-0.112,-0.11,-0.15,-0.095,-0.07
-0.006,-0.052,-0.046,0.03,0.02,-0.048,0.045,-0.126,-0.135,-0.143,-0.1,-0.07
-0.005,-0.049,-0.044,0.027,0.02,-0.046,0.056,-0.136,-0.14,-0.151,-0.11,-0.07
-0.012,-0.053,-0.041,0.032,0.015,-0.046,0.053,-0.144,-0.152,-0.167,-0.115,-0.07
-0.019,-0.056,-0.036,0.038,0.009,-0.046,0.05,-0.151,-0.168,-0.164,-0.115,-0.074
-0.021,-0.055,-0.034,0.038,0.007,-0.044,0.048,-0.153,-0.164,-0.169,-0.115,-0.075
-0.026,-0.055,-0.03,0.041,0.003,-0.042,0.045,-0.155,-0.163,-0.17,-0.115,-0.075
-0.03,-0.055,-0.025,0.043,-0.002,-0.04,0.043,-0.15,-0.159,-0.169,-0.115,-0.075
-0.028,-0.055,-0.027,0.042,0.0,-0.041,0.04,-0.15,-0.16,-0.17,-0.111,-0.075
-0.023,-0.055,-0.032,0.039,0.005,-0.043,0.036,-0.149,-0.163,-0.169,-0.109,-0.073
-0.02,-0.055,-0.035,0.038,0.008,-0.045,0.035,-0.144,-0.166,-0.17,-0.11,-0.07
-0.014,-0.057,-0.042,0.036,0.014,-0.049,0.03,-0.145,-0.169,-0.17,-0.11,-0.07
-0.014,-0.06,-0.045,0.037,0.016,-0.052,0.032,-0.147,-0.171,-0.17,-0.11,-0.07
-0.016,-0.061,-0.045,0.039,0.014,-0.052,0.044,-0.151,-0.175,-0.17,-0.109,-0.07
-0.013,-0.058,-0.045,0.036,0.016,-0.051,0.046,-0.155,-0.174,-0.17,-0.105,-0.07
-0.021,-0.065,-0.045,0.044,0.012,-0.055,0.044,-0.155,-0.167,-0.17,-0.105,-0.073
-0.031,-0.076,-0.045,0.054,0.008,-0.06,0.046,-0.155,-0.161,-0.166,-0.103,-0.075
-0.036,-0.075,-0.039,0.056,0.002,-0.056,0.045,-0.151,-0.154,-0.159,-0.099,-0.075
-0.037,-0.071,-0.034,0.055,-0.001,-0.053,0.046,-0.15,-0.148,-0.155,-0.101,-0.075
-0.043,-0.07,-0.027,0.057,-0.008,-0.048,0.053,-0.149,-0.139,-0.149,-0.095,-0.075
-0.042,-0.066,-0.024,0.054,-0.009,-0.044,0.058,-0.143,-0.134,-0.145,-0.088,-0.074
-0.023,-0.037,-0.014,0.03,-0.005,-0.025,0.068,-0.131,-0.125,-0.139,-0.079,-0.07
-0.025,-0.014,0.011,0.02,-0.018,-0.002,0.085,-0.123,-0.122,-0.135,-0.071,-0.07
-0.021,0.012,0.033,0.004,-0.027,0.022,0.099,-0.115,-0.124,-0.135,-0.065,-0.074
-0.003,0.049,0.052,-0.023,-0.028,0.05,0.073,-0.125,-0.126,-0.135,-0.065,-0.075
0.022,0.07,0.048,-0.046,-0.014,0.059,0.024,-0.149,-0.124,-0.135,-0.065,-0.075
0.029,0.074,0.045,-0.052,-0.008,0.059,0.023,-0.16,-0.128,-0.134,-0.063,-0.075
-0.005,-0.012,-0.007,0.009,0.001,-0.009,0.034,-0.172,-0.15,-0.149,-0.079,-0.074
-0.023,-0.074,-0.051,0.049,0.014,-0.062,0.042,-0.167,-0.167,-0.172,-0.098,-0.076
-0.033,-0.076,-0.043,0.055,0.005,-0.059,0.042,-0.183,-0.187,-0.184,-0.114,-0.079
-0.024,-0.096,-0.072,0.06,0.024,-0.083,0.04,-0.192,-0.208,-0.208,-0.137,-0.088
-0.019,-0.085,-0.066,0.052,0.023,-0.075,0.039,-0.205,-0.202,-0.195,-0.125,-0.087
-0.02,-0.095,-0.075,0.057,0.028,-0.085,0.036,-0.179,-0.192,-0.202,-0.131,-0.094
-0.027,-0.088,-0.061,0.058,0.017,-0.074,0.034,-0.206,-0.203,-0.202,-0.124,-0.096
-0.037,-0.106,-0.069,0.072,0.016,-0.087,0.033,-0.175,-0.177,-0.191,-0.121,-0.098
-0.033,-0.096,-0.063,0.065,0.015,-0.079,0.032,-0.198,-0.203,-0.212,-0.131,-0.106
-0.029,-0.102,-0.073,0.066,0.022,-0.087,0.025,-0.184,-0.162,-0.159,-0.098,-0.097
-0.016,-0.13,-0.114,0.073,0.049,-0.121,0.057,-0.115,-0.183,-0.238,-0.17,-0.128
-0.061,-0.075,-0.014,0.068,-0.023,-0.044,0.204,0.115,-0.048,-0.182,-0.185,-0.162
0.072,0.128,0.055,-0.1,0.008,0.091,0.266,0.571,0.385,0.11,0.027,-0.02
0.388,0.817,0.429,-0.603,-0.021,0.622,-0.386,-0.648,0.756,1.293,1.141,0.77
0.399,0.76,0.362,-0.579,0.018,0.561,-1.007,-1.785,0.648,1.724,1.607,1.183
0.086,-0.144,-0.231,0.029,0.159,-0.187,-0.779,-1.349,-0.545,-0.112,0.215,0.386
-0.053,-0.36,-0.308,0.207,0.128,-0.334,-0.423,-0.899,-0.886,-0.703,-0.354,-0.096
0.013,-0.234,-0.247,0.111,0.13,-0.241,-0.131,-0.283,-0.227,-0.215,-0.146,-0.072
-0.003,-0.142,-0.139,0.073,0.068,-0.14,0.015,-0.057,-0.145,-0.226,-0.162,-0.095
-0.017,-0.091,-0.074,0.054,0.029,-0.082,0.029,-0.03,-0.081,-0.128,-0.093,-0.068
-0.006,-0.085,-0.079,0.046,0.037,-0.082,0.08,0.035,-0.064,-0.161,-0.122,-0.077
0.003,-0.052,-0.055,0.025,0.029,-0.053,0.076,0.019,-0.045,-0.128,-0.094,-0.063
0.009,-0.058,-0.066,0.025,0.038,-0.062,0.089,0.081,-0.008,-0.119,-0.092,-0.062
0.002,-0.045,-0.047,0.021,0.025,-0.046,0.089,0.077,-0.008,-0.102,-0.078,-0.055
0.004,-0.047,-0.051,0.022,0.028,-0.048,0.092,0.121,0.022,-0.081,-0.065,-0.049
0.006,-0.035,-0.041,0.015,0.024,-0.038,0.096,0.131,0.031,-0.081,-0.062,-0.045
0.015,-0.023,-0.038,0.004,0.026,-0.03,0.097,0.17,0.081,-0.034,-0.047,-0.037
0.022,-0.012,-0.034,-0.004,0.028,-0.023,0.102,0.223,0.106,-0.017,-0.041,-0.035
0.037,0.007,-0.029,-0.022,0.033,-0.011,0.095,0.264,0.153,0.004,-0.016,-0.019
0.043,0.019,-0.024,-0.031,0.033,-0.003,0.095,0.338,0.212,0.032,0.009,-0.008
0.054,0.04,-0.014,-0.047,0.034,0.012,0.091,0.42,0.273,0.082,0.036,0.012
0.082,0.074,-0.007,-0.078,0.044,0.033,0.088,0.509,0.351,0.131,0.059,0.031
0.105,0.108,0.003,-0.107,0.051,0.055,0.086,0.609,0.434,0.194,0.111,0.063
0.137,0.149,0.012,-0.144,0.062,0.08,0.083,0.702,0.513,0.26,0.16,0.096
0.181,0.208,0.028,-0.195,0.076,0.118,0.07,0.781,0.59,0.338,0.228,0.145
0.21,0.25,0.04,-0.23,0.085,0.145,0.036,0.804,0.663,0.419,0.306,0.205
0.233,0.286,0.052,-0.26,0.09,0.169,-0.003,0.784,0.682,0.465,0.347,0.237
0.276,0.345,0.068,-0.311,0.104,0.206,-0.029,0.77,0.67,0.503,0.401,0.287
0.272,0.368,0.096,-0.32,0.088,0.231,-0.048,0.694,0.656,0.498,0.431,0.307
0.248,0.359,0.111,-0.303,0.068,0.235,-0.047,0.574,0.606,0.487,0.432,0.295
0.251,0.351,0.1,-0.301,0.075,0.225,-0.036,0.434,0.504,0.445,0.388,0.282
0.201,0.291,0.089,-0.246,0.056,0.19,-0.029,0.289,0.358,0.318,0.283,0.217
0.125,0.199,0.074,-0.163,0.026,0.137,-0.017,0.182,0.229,0.203,0.179,0.133
0.074,0.126,0.052,-0.1,0.011,0.089,0.0,0.089,0.117,0.096,0.084,0.06
0.036,0.072,0.036,-0.054,0.0,0.053,0.013,0.023,0.035,0.011,0.005,0.003
0.016,0.039,0.023,-0.028,-0.004,0.031,0.024,-0.021,-0.01,-0.034,-0.036,-0.034
0.001,0.014,0.013,-0.008,-0.006,0.013,0.049,-0.049,-0.061,-0.076,-0.063,-0.061
-0.017,-0.008,0.009,0.013,-0.013,0.001,0.057,-0.063,-0.087,-0.095,-0.094,-0.076
-0.035,-0.024,0.011,0.029,-0.022,-0.007,0.054,-0.066,-0.084,-0.095,-0.099,-0.08
-0.037,-0.027,0.01,0.032,-0.023,-0.008,0.055,-0.057,-0.084,-0.095,-0.091,-0.08
-0.034,-0.024,0.01,0.029,-0.022,-0.007,0.055,-0.056,-0.08,-0.095,-0.088,-0.08
-0.036,-0.025,0.01,0.03,-0.022,-0.007,0.055,-0.049,-0.08,-0.095,-0.081,-0.08
-0.025,-0.025,0.0,0.025,-0.012,-0.012,0.051,-0.046,-0.081,-0.096,-0.076,-0.08
-0.018,-0.025,-0.008,0.022,-0.004,-0.016,0.048,-0.048,-0.079,-0.102,-0.09,-0.08
-0.027,-0.025,0.002,0.026,-0.014,-0.011,0.045,-0.052,-0.082,-0.11,-0.097,-0.08
-0.039,-0.025,0.014,0.031,-0.026,-0.005,0.042,-0.053,-0.077,-0.111,-0.094,-0.08
-0.032,-0.025,0.007,0.028,-0.019,-0.009,0.04,-0.061,-0.093,-0.12,-0.095,-0.085
-0.043,-0.025,0.018,0.034,-0.03,-0.003,0.038,-0.08,-0.117,-0.135,-0.095,-0.091
-0.062,-0.025,0.037,0.044,-0.049,0.006,0.034,-0.08,-0.115,-0.135,-0.095,-0.09
-0.052,-0.025,0.027,0.038,-0.039,0.001,0.029,-0.083,-0.116,-0.137,-0.097,-0.09
-0.05,-0.025,0.025,0.037,-0.037,0.0,0.027,-0.092,-0.114,-0.14,-0.108,-0.09
-0.042,-0.025,0.017,0.033,-0.029,-0.004,0.021,-0.107,-0.122,-0.141,-0.111,-0.09
-0.038,-0.025,0.013,0.031,-0.025,-0.006,0.021,-0.112,-0.125,-0.137,-0.109,-0.094
-0.032,-0.025,0.007,0.029,-0.019,-0.009,0.03,-0.111,-0.136,-0.137,-0.111,-0.096
-0.017,-0.025,-0.008,0.021,-0.004,-0.016,0.03,-0.133,-0.163,-0.154,-0.108,-0.095
-0.035,-0.026,0.009,0.031,-0.022,-0.008,0.029,-0.146,-0.167,-0.156,-0.113,-0.095
-0.044,-0.03,0.014,0.037,-0.029,-0.008,0.025,-0.15,-0.169,-0.154,-0.124,-0.094
-0.034,-0.03,0.004,0.032,-0.019,-0.013,0.025,-0.15,-0.175,-0.155,-0.126,-0.096
-0.027,-0.034,-0.006,0.031,-0.01,-0.02,0.024,-0.149,-0.185,-0.155,-0.124,-0.1
-0.037,-0.041,-0.005,0.039,-0.016,-0.023,0.019,-0.15,-0.191,-0.155,-0.121,-0.1
-0.04,-0.045,-0.005,0.042,-0.017,-0.025,0.021,-0.149,-0.189,-0.155,-0.119,-0.102
-0.022,-0.045,-0.023,0.033,0.001,-0.034,0.017,-0.154,-0.193,-0.155,-0.122,-0.105
-0.028,-0.045,-0.017,0.036,-0.005,-0.031,0.015,-0.155,-0.195,-0.155,-0.133,-0.105
-0.029,-0.045,-0.016,0.038,-0.006,-0.03,0.014,-0.155,-0.195,-0.155,-0.136,-0.101
-0.033,-0.045,-0.012,0.039,-0.01,-0.028,0.023,-0.155,-0.199,-0.154,-0.135,-0.1
-0.035,-0.045,-0.01,0.04,-0.012,-0.027,0.032,-0.155,-0.2,-0.163,-0.135,-0.1
-0.034,-0.042,-0.008,0.038,-0.013,-0.024,0.026,-0.155,-0.2,-0.167,-0.135,-0.095
-0.048,-0.039,0.008,0.043,-0.028,-0.016,0.021,-0.155,-0.2,-0.164,-0.135,-0.095
-0.027,-0.04,-0.013,0.034,-0.007,-0.027,0.018,-0.155,-0.201,-0.165,-0.131,-0.096
-0.012,-0.04,-0.028,0.026,0.008,-0.033,0.011,-0.155,-0.205,-0.165,-0.129,-0.103
-0.02,-0.04,-0.02,0.03,0.0,-0.03,0.012,-0.155,-0.204,-0.165,-0.125,-0.102
-0.022,-0.041,-0.02,0.032,-0.001,-0.031,0.022,-0.156,-0.208,-0.164,-0.124,-0.099
-0.031,-0.045,-0.014,0.039,-0.008,-0.029,0.021,-0.154,-0.21,-0.16,-0.119,-0.1
-0.039,-0.05,-0.011,0.045,-0.014,-0.031,0.018,-0.158,-0.21,-0.157,-0.122,-0.095
-0.037,-0.045,-0.007,0.041,-0.015,-0.026,0.017,-0.158,-0.205,-0.155,-0.134,-0.095
-0.014,-0.036,-0.022,0.025,0.005,-0.029,0.013,-0.151,-0.195,-0.151,-0.126,-0.094
-0.013,-0.024,-0.011,0.018,-0.001,-0.017,0.028,-0.139,-0.185,-0.151,-0.115,-0.088
-0.041,-0.01,0.031,0.025,-0.035,0.01,0.064,-0.124,-0.174,-0.142,-0.105,-0.083
-0.02,0.02,0.04,0.0,-0.031,0.03,0.101,-0.094,-0.15,-0.125,-0.094,-0.076
0.003,0.057,0.055,-0.03,-0.026,0.056,0.078,-0.083,-0.128,-0.124,-0.089,-0.079
0.003,0.06,0.057,-0.032,-0.027,0.058,0.02,-0.135,-0.156,-0.128,-0.09,-0.08
0.013,0.057,0.044,-0.035,-0.016,0.051,0.0,-0.164,-0.189,-0.129,-0.089,-0.083
0.002,0.021,0.018,-0.012,-0.008,0.019,-0.011,-0.168,-0.201,-0.14,-0.095,-0.085
-0.019,-0.04,-0.022,0.03,0.002,-0.031,-0.01,-0.159,-0.209,-0.161,-0.117,-0.086
-0.043,-0.063,-0.021,0.053,-0.011,-0.042,-0.002,-0.174,-0.219,-0.172,-0.122,-0.094
-0.049,-0.088,-0.039,0.069,-0.005,-0.063,0.004,-0.184,-0.227,-0.185,-0.132,-0.102
-0.045,-0.089,-0.044,0.067,0.0,-0.066,0.012,-0.196,-0.239,-0.188,-0.142,-0.106
-0.044,-0.089,-0.045,0.067,0.0,-0.067,0.016,-0.182,-0.221,-0.172,-0.135,-0.103
-0.048,-0.095,-0.047,0.072,-0.001,-0.07,0.025,-0.182,-0.238,-0.189,-0.147,-0.108
-0.057,-0.09,-0.033,0.073,-0.011,-0.061,0.023,-0.186,-0.223,-0.16,-0.131,-0.1
-0.052,-0.104,-0.051,0.078,0.0,-0.077,0.033,-0.157,-0.232,-0.192,-0.15,-0.111
-0.061,-0.085,-0.024,0.073,-0.018,-0.054,0.028,-0.206,-0.235,-0.168,-0.131,-0.101
-0.046,-0.123,-0.077,0.085,0.016,-0.1,0.038,-0.121,-0.186,-0.194,-0.162,-0.12
-0.073,-0.099,-0.026,0.087,-0.023,-0.062,0.118,-0.053,-0.186,-0.214,-0.197,-0.166
-0.037,-0.002,0.035,0.02,-0.036,0.016,0.292,0.496,0.163,-0.06,-0.141,-0.15
0.256,0.516,0.26,-0.387,-0.002,0.388,-0.037,0.055,0.58,0.71,0.58,0.37
0.45,0.96,0.511,-0.705,-0.031,0.735,-0.87,-1.551,0.826,1.869,1.678,1.182
0.219,0.254,0.035,-0.236,0.092,0.144,-0.967,-1.62,0.019,0.766,0.888,0.807
-0.019,-0.326,-0.307,0.173,0.144,-0.316,-0.571,-1.098,-0.974,-0.701,-0.299,0.002
-0.003,-0.253,-0.25,0.128,0.124,-0.251,-0.259,-0.535,-0.496,-0.352,-0.21,-0.1
-0.008,-0.175,-0.167,0.092,0.08,-0.171,-0.018,-0.069,-0.155,-0.191,-0.156,-0.104
-0.028,-0.097,-0.069,0.062,0.021,-0.082,0.018,-0.049,-0.147,-0.151,-0.111,-0.097
-0.025,-0.089,-0.063,0.057,0.019,-0.076,0.055,0.051,-0.073,-0.115,-0.094,-0.09
-0.02,-0.06,-0.04,0.04,0.01,-0.05,0.068,0.044,-0.099,-0.134,-0.103,-0.091
-0.008,-0.052,-0.044,0.03,0.018,-0.048,0.069,0.073,-0.05,-0.096,-0.078,-0.079
-0.014,-0.049,-0.035,0.032,0.011,-0.042,0.083,0.081,-0.059,-0.112,-0.089,-0.083
-0.011,-0.04,-0.029,0.026,0.009,-0.034,0.082,0.113,-0.009,-0.067,-0.068,-0.071
-0.012,-0.038,-0.027,0.026,0.008,-0.032,0.092,0.156,0.01,-0.067,-0.073,-0.072
0.005,-0.03,-0.035,0.013,0.02,-0.032,0.092,0.171,0.033,-0.041,-0.054,-0.064
0.028,-0.024,-0.052,-0.002,0.04,-0.038,0.096,0.219,0.065,-0.02,-0.048,-0.06
0.034,-0.007,-0.04,-0.013,0.037,-0.023,0.095,0.266,0.105,0.008,-0.028,-0.046
0.041,0.004,-0.037,-0.022,0.039,-0.016,0.094,0.331,0.164,0.036,-0.016,-0.034
0.051,0.023,-0.029,-0.037,0.04,-0.003,0.097,0.406,0.217,0.068,0.004,-0.019
0.068,0.046,-0.022,-0.057,0.045,0.011,0.108,0.497,0.297,0.124,0.045,0.003
0.094,0.077,-0.017,-0.085,0.055,0.03,0.101,0.597,0.378,0.183,0.085,0.031
0.112,0.108,-0.004,-0.109,0.057,0.052,0.089,0.691,0.464,0.246,0.137,0.069
0.14,0.143,0.003,-0.142,0.068,0.073,0.08,0.772,0.541,0.314,0.192,0.11
0.169,0.197,0.028,-0.183,0.07,0.113,0.055,0.827,0.604,0.385,0.259,0.16
0.207,0.251,0.044,-0.23,0.081,0.147,0.029,0.835,0.652,0.448,0.323,0.211
0.243,0.298,0.055,-0.271,0.093,0.177,0.001,0.818,0.652,0.497,0.374,0.255
0.252,0.334,0.082,-0.293,0.085,0.208,-0.023,0.763,0.647,0.521,0.423,0.296
0.264,0.351,0.087,-0.308,0.088,0.219,-0.043,0.654,0.627,0.53,0.432,0.308
0.253,0.347,0.094,-0.301,0.079,0.22,-0.044,0.522,0.536,0.486,0.401,0.288
0.224,0.309,0.084,-0.267,0.07,0.196,-0.027,0.379,0.413,0.394,0.332,0.238
0.156,0.219,0.062,-0.187,0.047,0.14,-0.016,0.245,0.273,0.273,0.223,0.16
0.086,0.13,0.044,-0.108,0.021,0.086,0.002,0.14,0.16,0.155,0.123,0.08
0.054,0.065,0.012,-0.06,0.021,0.038,0.033,0.064,0.075,0.074,0.044,0.013
0.024,0.007,-0.017,-0.015,0.02,-0.005,0.043,0.018,0.002,0.001,-0.018,-0.03
0.005,-0.027,-0.032,0.011,0.019,-0.029,0.05,-0.011,-0.044,-0.048,-0.055,-0.062
-0.011,-0.041,-0.03,0.026,0.01,-0.035,0.065,-0.034,-0.069,-0.065,-0.079,-0.08
-0.018,-0.048,-0.031,0.033,0.007,-0.039,0.065,-0.047,-0.08,-0.079,-0.088,-0.086
-0.025,-0.053,-0.028,0.038,0.002,-0.04,0.065,-0.046,-0.086,-0.091,-0.091,-0.089
-0.02,-0.057,-0.037,0.038,0.009,-0.046,0.065,-0.044,-0.084,-0.09,-0.094,-0.094
-0.005,-0.06,-0.055,0.033,0.025,-0.057,0.065,-0.046,-0.085,-0.092,-0.097,-0.095
-0.012,-0.06,-0.048,0.036,0.018,-0.054,0.064,-0.044,-0.085,-0.096,-0.1,-0.095
-0.013,-0.056,-0.044,0.035,0.016,-0.05,0.06,-0.046,-0.085,-0.094,-0.1,-0.095
-0.017,-0.055,-0.038,0.036,0.011,-0.046,0.06,-0.048,-0.089,-0.099,-0.1,-0.095
-0.024,-0.055,-0.031,0.04,0.004,-0.043,0.06,-0.051,-0.091,-0.1,-0.1,-0.096
-0.026,-0.055,-0.029,0.041,0.002,-0.042,0.06,-0.054,-0.095,-0.1,-0.1,-0.094
-0.037,-0.055,-0.018,0.046,-0.009,-0.036,0.06,-0.057,-0.098,-0.105,-0.1,-0.104
-0.026,-0.056,-0.03,0.041,0.003,-0.043,0.056,-0.06,-0.102,-0.105,-0.1,-0.111
-0.014,-0.061,-0.047,0.038,0.016,-0.053,0.055,-0.061,-0.114,-0.106,-0.1,-0.105
-0.015,-0.06,-0.045,0.038,0.015,-0.052,0.055,-0.07,-0.126,-0.112,-0.1,-0.103
-0.019,-0.063,-0.044,0.041,0.013,-0.053,0.055,-0.077,-0.135,-0.114,-0.1,-0.098
-0.025,-0.066,-0.04,0.046,0.008,-0.052,0.055,-0.085,-0.138,-0.123,-0.1,-0.095
-0.025,-0.064,-0.039,0.045,0.008,-0.051,0.054,-0.099,-0.132,-0.131,-0.1,-0.095
-0.026,-0.069,-0.043,0.048,0.008,-0.056,0.05,-0.1,-0.142,-0.129,-0.1,-0.095
-0.024,-0.07,-0.045,0.048,0.01,-0.057,0.051,-0.116,-0.159,-0.134,-0.112,-0.107
-0.028,-0.073,-0.045,0.051,0.009,-0.058,0.047,-0.129,-0.163,-0.135,-0.116,-0.111
-0.027,-0.075,-0.049,0.051,0.012,-0.062,0.044,-0.131,-0.165,-0.135,-0.111,-0.109
-0.026,-0.076,-0.05,0.051,0.013,-0.062,0.045,-0.135,-0.165,-0.14,-0.11,-0.107
-0.035,-0.085,-0.05,0.06,0.008,-0.067,0.041,-0.13,-0.165,-0.14,-0.105,-0.104
-0.041,-0.091,-0.049,0.066,0.004,-0.07,0.04,-0.13,-0.165,-0.141,-0.105,-0.105
-0.041,-0.093,-0.052,0.067,0.006,-0.072,0.04,-0.128,-0.165,-0.145,-0.107,-0.105
-0.032,-0.097,-0.065,0.065,0.017,-0.081,0.04,-0.125,-0.17,-0.145,-0.104,-0.105
-0.035,-0.1,-0.065,0.068,0.015,-0.082,0.04,-0.124,-0.17,-0.145,-0.106,-0.105
-0.04,-0.1,-0.06,0.07,0.01,-0.08,0.041,-0.131,-0.174,-0.145,-0.104,-0.105
-0.041,-0.1,-0.059,0.071,0.009,-0.079,0.045,-0.141,-0.174,-0.145,-0.106,-0.105
-0.045,-0.1,-0.055,0.073,0.005,-0.077,0.045,-0.14,-0.183,-0.149,-0.115,-0.107
-0.045,-0.1,-0.055,0.073,0.005,-0.077,0.045,-0.14,-0.191,-0.15,-0.115,-0.11
-0.045,-0.1,-0.055,0.073,0.005,-0.077,0.045,-0.14,-0.182,-0.15,-0.115,-0.11
-0.046,-0.101,-0.055,0.074,0.004,-0.078,0.045,-0.139,-0.18,-0.15,-0.115,-0.11
-0.05,-0.105,-0.055,0.078,0.003,-0.08,0.045,-0.141,-0.175,-0.15,-0.115,-0.11
-0.05,-0.105,-0.055,0.078,0.003,-0.08,0.045,-0.139,-0.17,-0.149,-0.115,-0.11
-0.05,-0.105,-0.055,0.078,0.003,-0.08,0.045,-0.141,-0.179,-0.144,-0.11,-0.105
-0.054,-0.105,-0.05,0.08,-0.001,-0.077,0.045,-0.139,-0.176,-0.139,-0.105,-0.105
-0.066,-0.106,-0.04,0.086,-0.013,-0.073,0.045,-0.141,-0.165,-0.135,-0.1,-0.104
-0.063,-0.094,-0.031,0.079,-0.016,-0.062,0.046,-0.139,-0.155,-0.131,-0.097,-0.1
-0.043,-0.062,-0.019,0.053,-0.012,-0.04,0.066,-0.122,-0.149,-0.126,-0.091,-0.1
-0.03,-0.044,-0.014,0.037,-0.008,-0.029,0.09,-0.102,-0.15,-0.121,-0.092,-0.102
-0.024,-0.021,0.003,0.023,-0.013,-0.009,0.088,-0.065,-0.149,-0.12,-0.095,-0.106
-0.027,0.006,0.032,0.01,-0.03,0.018,0.046,-0.101,-0.152,-0.118,-0.095,-0.105
-0.002,0.023,0.025,-0.011,-0.014,0.023,0.019,-0.153,-0.146,-0.114,-0.095,-0.105
0.011,0.001,-0.01,-0.006,0.01,-0.004,0.02,-0.158,-0.16,-0.118,-0.096,-0.105
-0.023,-0.068,-0.045,0.046,0.011,-0.056,0.021,-0.175,-0.176,-0.144,-0.109,-0.105
-0.036,-0.096,-0.059,0.066,0.012,-0.077,0.034,-0.182,-0.18,-0.159,-0.122,-0.111
-0.048,-0.11,-0.062,0.079,0.007,-0.086,0.035,-0.182,-0.195,-0.154,-0.122,-0.112
-0.052,-0.125,-0.073,0.088,0.01,-0.098,0.035,-0.183,-0.209,-0.173,-0.137,-0.12
-0.052,-0.116,-0.064,0.084,0.006,-0.09,0.034,-0.19,-0.203,-0.157,-0.138,-0.121
-0.054,-0.131,-0.077,0.092,0.012,-0.103,0.036,-0.167,-0.204,-0.172,-0.155,-0.128
-0.057,-0.119,-0.062,0.088,0.003,-0.09,0.034,-0.188,-0.21,-0.161,-0.148,-0.122
-0.058,-0.136,-0.078,0.097,0.01,-0.107,0.042,-0.149,-0.195,-0.164,-0.155,-0.126
-0.064,-0.128,-0.064,0.096,0.0,-0.095,0.042,-0.181,-0.211,-0.173,-0.162,-0.126
-0.07,-0.141,-0.071,0.105,0.001,-0.106,0.043,-0.14,-0.163,-0.146,-0.147,-0.119
-0.056,-0.153,-0.097,0.105,0.021,-0.125,0.074,-0.104,-0.184,-0.215,-0.198,-0.159
-0.077,-0.099,-0.022,0.088,-0.027,-0.06,0.23,0.25,0.031,-0.112,-0.183,-0.192
0.108,0.178,0.07,-0.143,0.019,0.123,0.229,0.503,0.432,0.249,0.132,0.031
0.429,0.847,0.417,-0.638,0.006,0.632,-0.507,-0.942,0.799,1.502,1.328,0.899
0.364,0.637,0.273,-0.501,0.045,0.455,-1.01,-1.81,0.521,1.511,1.481,1.137
0.039,-0.203,-0.242,0.082,0.141,-0.222,-0.721,-1.329,-0.698,-0.323,0.052,0.273
-0.047,-0.347,-0.3,0.197,0.127,-0.323,-0.374,-0.808,-0.753,-0.557,-0.306,-0.109
0.003,-0.23,-0.233,0.114,0.118,-0.231,-0.092,-0.196,-0.165,-0.172,-0.138,-0.094
-0.009,-0.131,-0.122,0.07,0.056,-0.126,0.015,-0.052,-0.131,-0.183,-0.141,-0.112
-0.005,-0.098,-0.093,0.052,0.044,-0.095,0.035,0.01,-0.041,-0.081,-0.076,-0.09
-0.008,-0.099,-0.091,0.054,0.042,-0.095,0.072,0.062,-0.041,-0.119,-0.105,-0.102
-0.008,-0.084,-0.076,0.046,0.034,-0.08,0.067,0.065,-0.01,-0.073,-0.072,-0.086
-0.005,-0.09,-0.085,0.047,0.041,-0.087,0.072,0.111,0.004,-0.085,-0.082,-0.091
-0.006,-0.077,-0.071,0.042,0.032,-0.073,0.069,0.11,0.011,-0.062,-0.067,-0.08
-0.003,-0.078,-0.075,0.041,0.037,-0.076,0.07,0.152,0.043,-0.051,-0.063,-0.076
-0.01,-0.063,-0.053,0.037,0.022,-0.058,0.072,0.175,0.061,-0.035,-0.053,-0.07
-0.009,-0.056,-0.046,0.032,0.019,-0.051,0.084,0.218,0.104,-0.004,-0.033,-0.064
0.014,-0.04,-0.054,0.013,0.034,-0.046,0.086,0.255,0.132,0.011,-0.027,-0.055
0.023,-0.027,-0.05,0.002,0.036,-0.038,0.084,0.311,0.18,0.045,-0.006,-0.035
0.034,-0.009,-0.043,-0.012,0.038,-0.025,0.081,0.382,0.231,0.07,0.014,-0.031
0.054,0.018,-0.035,-0.036,0.044,-0.008,0.079,0.465,0.302,0.118,0.047,0.002
0.065,0.036,-0.03,-0.05,0.047,0.003,0.08,0.558,0.377,0.166,0.079,0.03
0.096,0.076,-0.02,-0.086,0.058,0.027,0.071,0.655,0.457,0.23,0.12,0.05
0.132,0.117,-0.015,-0.124,0.073,0.051,0.068,0.745,0.538,0.296,0.174,0.087
0.171,0.164,-0.008,-0.167,0.089,0.078,0.051,0.807,0.602,0.36,0.232,0.13
0.211,0.214,0.003,-0.213,0.104,0.108,0.018,0.843,0.668,0.435,0.299,0.184
0.242,0.262,0.02,-0.253,0.111,0.141,-0.013,0.836,0.704,0.49,0.363,0.235
0.257,0.315,0.057,-0.286,0.1,0.185,-0.037,0.795,0.696,0.53,0.413,0.282
0.257,0.331,0.074,-0.294,0.091,0.202,-0.054,0.703,0.653,0.535,0.435,0.305
0.252,0.33,0.078,-0.292,0.087,0.204,-0.068,0.576,0.595,0.513,0.423,0.305
0.214,0.297,0.083,-0.256,0.065,0.19,-0.061,0.443,0.506,0.452,0.376,0.274
0.158,0.225,0.067,-0.192,0.045,0.146,-0.048,0.301,0.368,0.328,0.278,0.196
0.103,0.145,0.042,-0.124,0.03,0.093,-0.024,0.183,0.237,0.211,0.159,0.111
0.065,0.069,0.004,-0.067,0.031,0.036,0.003,0.104,0.141,0.114,0.075,0.038
0.037,0.01,-0.027,-0.023,0.032,-0.008,0.012,0.04,0.062,0.04,0.015,-0.02
-0.011,-0.044,-0.033,0.028,0.011,-0.038,0.029,-0.004,0.011,-0.007,-0.039,-0.058
-0.024,-0.069,-0.045,0.047,0.01,-0.057,0.045,-0.026,-0.007,-0.042,-0.064,-0.07
-0.022,-0.074,-0.052,0.048,0.015,-0.063,0.044,-0.039,-0.028,-0.06,-0.077,-0.079
-0.039,-0.085,-0.046,0.062,0.004,-0.065,0.046,-0.042,-0.041,-0.07,-0.089,-0.099
-0.052,-0.096,-0.044,0.074,-0.004,-0.07,0.05,-0.04,-0.04,-0.076,-0.09,-0.107
-0.056,-0.098,-0.041,0.077,-0.007,-0.069,0.05,-0.04,-0.042,-0.083,-0.094,-0.102
-0.053,-0.091,-0.038,0.072,-0.007,-0.064,0.047,-0.04,-0.04,-0.086,-0.097,-0.1
-0.034,-0.086,-0.052,0.06,0.009,-0.069,0.044,-0.039,-0.037,-0.081,-0.1,-0.096
-0.019,-0.08,-0.061,0.05,0.021,-0.07,0.045,-0.042,-0.034,-0.08,-0.1,-0.094
-0.022,-0.075,-0.053,0.049,0.016,-0.064,0.041,-0.044,-0.031,-0.075,-0.1,-0.099
-0.021,-0.07,-0.05,0.046,0.015,-0.06,0.04,-0.048,-0.03,-0.075,-0.1,-0.1
-0.025,-0.07,-0.045,0.048,0.01,-0.057,0.04,-0.05,-0.037,-0.086,-0.1,-0.1
-0.029,-0.069,-0.04,0.049,0.006,-0.054,0.035,-0.054,-0.047,-0.096,-0.1,-0.1
-0.028,-0.065,-0.037,0.047,0.005,-0.051,0.035,-0.056,-0.052,-0.095,-0.1,-0.101
-0.03,-0.065,-0.035,0.048,0.003,-0.05,0.035,-0.054,-0.061,-0.098,-0.104,-0.099
-0.032,-0.067,-0.035,0.05,0.002,-0.051,0.035,-0.069,-0.072,-0.102,-0.105,-0.095
-0.036,-0.071,-0.035,0.054,0.0,-0.052,0.036,-0.078,-0.072,-0.097,-0.106,-0.095
-0.035,-0.07,-0.035,0.053,0.0,-0.052,0.032,-0.091,-0.089,-0.118,-0.109,-0.095
-0.034,-0.071,-0.036,0.053,0.001,-0.053,0.03,-0.107,-0.107,-0.132,-0.111,-0.095
-0.034,-0.074,-0.04,0.054,0.003,-0.057,0.03,-0.107,-0.104,-0.13,-0.108,-0.095
-0.038,-0.078,-0.04,0.058,0.001,-0.059,0.027,-0.11,-0.105,-0.129,-0.105,-0.099
-0.043,-0.083,-0.04,0.063,-0.001,-0.061,0.024,-0.115,-0.108,-0.13,-0.105,-0.1
-0.045,-0.085,-0.04,0.065,-0.002,-0.062,0.026,-0.124,-0.111,-0.149,-0.103,-0.1
-0.049,-0.088,-0.04,0.068,-0.004,-0.064,0.029,-0.125,-0.114,-0.15,-0.1,-0.1
-0.051,-0.091,-0.04,0.071,-0.005,-0.065,0.03,-0.127,-0.116,-0.145,-0.1,-0.1
-0.055,-0.094,-0.04,0.075,-0.007,-0.067,0.031,-0.131,-0.12,-0.144,-0.104,-0.099
-0.055,-0.095,-0.04,0.075,-0.007,-0.067,0.035,-0.128,-0.119,-0.139,-0.111,-0.095
-0.05,-0.09,-0.04,0.07,-0.005,-0.065,0.035,-0.125,-0.115,-0.14,-0.117,-0.095
-0.05,-0.09,-0.04,0.07,-0.005,-0.065,0.033,-0.125,-0.115,-0.14,-0.12,-0.095
-0.049,-0.089,-0.04,0.069,-0.004,-0.064,0.029,-0.125,-0.115,-0.14,-0.12,-0.095
-0.044,-0.085,-0.04,0.065,-0.002,-0.062,0.027,-0.125,-0.115,-0.14,-0.12,-0.095
-0.045,-0.085,-0.04,0.065,-0.002,-0.062,0.024,-0.137,-0.115,-0.144,-0.12,-0.099
-0.046,-0.083,-0.037,0.065,-0.004,-0.06,0.02,-0.141,-0.111,-0.146,-0.12,-0.104
-0.046,-0.078,-0.032,0.062,-0.007,-0.054,0.021,-0.139,-0.11,-0.144,-0.116,-0.099
-0.048,-0.078,-0.03,0.063,-0.009,-0.054,0.024,-0.141,-0.11,-0.146,-0.11,-0.096
-0.044,-0.069,-0.025,0.057,-0.009,-0.047,0.027,-0.139,-0.105,-0.144,-0.104,-0.093
-0.053,-0.075,-0.022,0.064,-0.016,-0.048,0.028,-0.142,-0.105,-0.146,-0.1,-0.088
-0.049,-0.068,-0.019,0.059,-0.015,-0.043,0.038,-0.13,-0.104,-0.142,-0.093,-0.086
-0.032,-0.037,-0.005,0.035,-0.013,-0.02,0.056,-0.124,-0.099,-0.133,-0.092,-0.08
-0.023,-0.016,0.007,0.019,-0.015,-0.005,0.074,-0.108,-0.104,-0.13,-0.095,-0.071
-0.009,0.022,0.032,-0.007,-0.021,0.027,0.055,-0.088,-0.106,-0.119,-0.084,-0.062
-0.012,0.04,0.052,-0.014,-0.033,0.046,0.007,-0.121,-0.111,-0.112,-0.076,-0.055
-0.017,0.03,0.047,-0.006,-0.033,0.038,-0.007,-0.136,-0.112,-0.096,-0.055,-0.046
-0.026,-0.019,0.006,0.022,-0.016,-0.006,-0.009,-0.154,-0.121,-0.119,-0.069,-0.059
-0.024,-0.076,-0.052,0.05,0.014,-0.063,-0.007,-0.17,-0.155,-0.181,-0.123,-0.095
-0.041,-0.089,-0.047,0.065,0.003,-0.068,-0.004,-0.181,-0.164,-0.179,-0.127,-0.107
-0.065,-0.116,-0.051,0.09,-0.007,-0.083,-0.001,-0.177,-0.155,-0.179,-0.131,-0.111
-0.058,-0.117,-0.059,0.088,0.0,-0.087,0.002,-0.191,-0.166,-0.183,-0.131,-0.11
-0.056,-0.121,-0.065,0.089,0.004,-0.093,0.004,-0.18,-0.152,-0.173,-0.126,-0.108
-0.061,-0.121,-0.06,0.091,0.0,-0.09,0.007,-0.19,-0.17,-0.192,-0.137,-0.113
-0.069,-0.117,-0.048,0.093,-0.011,-0.082,0.001,-0.196,-0.157,-0.17,-0.119,-0.105
-0.065,-0.127,-0.062,0.096,-0.001,-0.094,0.011,-0.175,-0.173,-0.203,-0.148,-0.122
-0.075,-0.109,-0.034,0.092,-0.02,-0.071,-0.004,-0.214,-0.171,-0.169,-0.117,-0.115
-0.054,-0.149,-0.095,0.102,0.021,-0.122,0.032,-0.121,-0.137,-0.218,-0.162,-0.138
-0.075,-0.103,-0.028,0.089,-0.024,-0.065,0.119,-0.008,-0.063,-0.189,-0.197,-0.176
-0.015,0.006,0.021,0.004,-0.018,0.013,0.252,0.536,0.291,-0.026,-0.122,-0.142
0.279,0.571,0.291,-0.426,-0.006,0.431,-0.074,-0.008,0.734,0.879,0.741,0.473
0.405,0.933,0.528,-0.669,-0.062,0.73,-0.825,-1.554,0.913,1.929,1.75,1.232
0.157,0.163,0.005,-0.16,0.076,0.084,-0.879,-1.578,-0.113,0.506,0.711,0.704
-0.06,-0.33,-0.27,0.195,0.105,-0.3,-0.522,-1.047,-0.918,-0.733,-0.34,-0.032
-0.021,-0.26,-0.239,0.141,0.109,-0.25,-0.236,-0.481,-0.349,-0.297,-0.185,-0.074
-0.011,-0.187,-0.176,0.1,0.083,-0.182,-0.023,-0.088,-0.1,-0.222,-0.164,-0.091
-0.033,-0.094,-0.061,0.064,0.015,-0.078,-0.001,-0.06,-0.057,-0.133,-0.114,-0.077
-0.026,-0.094,-0.067,0.06,0.021,-0.08,0.037,0.042,0.003,-0.125,-0.119,-0.078
-0.033,-0.07,-0.037,0.052,0.002,-0.054,0.049,0.031,-0.009,-0.126,-0.107,-0.077
-0.021,-0.067,-0.046,0.044,0.013,-0.056,0.049,0.074,0.049,-0.094,-0.091,-0.07
-0.022,-0.056,-0.034,0.039,0.006,-0.045,0.057,0.081,0.043,-0.106,-0.097,-0.07
-0.018,-0.047,-0.03,0.033,0.006,-0.039,0.052,0.104,0.074,-0.07,-0.078,-0.055
-0.019,-0.045,-0.026,0.032,0.004,-0.035,0.052,0.138,0.083,-0.073,-0.084,-0.056
-0.006,-0.03,-0.025,0.018,0.01,-0.027,0.046,0.17,0.127,-0.025,-0.048,-0.043
0.021,-0.02,-0.042,0.0,0.032,-0.031,0.046,0.212,0.164,-0.008,-0.03,-0.039
0.036,-0.003,-0.039,-0.017,0.038,-0.021,0.041,0.245,0.2,0.015,-0.011,-0.026
0.043,0.002,-0.04,-0.023,0.041,-0.019,0.04,0.311,0.252,0.031,0.0,-0.018
0.061,0.026,-0.035,-0.043,0.048,-0.004,0.035,0.378,0.309,0.073,0.031,-0.008
0.089,0.055,-0.035,-0.071,0.062,0.01,0.027,0.468,0.385,0.132,0.069,0.02
0.117,0.082,-0.035,-0.099,0.075,0.024,0.019,0.557,0.454,0.175,0.106,0.056
0.145,0.121,-0.025,-0.133,0.085,0.048,0.011,0.654,0.55,0.255,0.172,0.101
0.167,0.151,-0.016,-0.159,0.091,0.067,0.003,0.732,0.624,0.319,0.222,0.134
0.207,0.208,0.001,-0.208,0.102,0.104,-0.016,0.775,0.679,0.39,0.284,0.18
0.246,0.269,0.023,-0.258,0.111,0.146,-0.036,0.785,0.739,0.46,0.356,0.242
0.271,0.306,0.035,-0.289,0.118,0.17,-0.065,0.759,0.739,0.507,0.407,0.284
0.284,0.336,0.052,-0.31,0.116,0.194,-0.094,0.698,0.709,0.518,0.451,0.319
0.27,0.336,0.066,-0.303,0.102,0.201,-0.1,0.588,0.667,0.497,0.464,0.33
0.26,0.324,0.064,-0.292,0.097,0.194,-0.098,0.45,0.568,0.466,0.421,0.305
0.219,0.28,0.061,-0.249,0.078,0.17,-0.088,0.307,0.429,0.365,0.337,0.247
0.143,0.196,0.053,-0.17,0.045,0.124,-0.061,0.193,0.292,0.234,0.227,0.16
0.088,0.122,0.034,-0.105,0.027,0.077,-0.031,0.099,0.177,0.115,0.111,0.068
0.047,0.059,0.012,-0.054,0.017,0.035,-0.009,0.026,0.081,0.021,0.031,0.008
0.014,0.01,-0.004,-0.012,0.009,0.003,0.001,-0.014,0.022,-0.028,-0.01,-0.027
-0.014,-0.028,-0.014,0.021,0.001,-0.021,0.007,-0.04,-0.008,-0.066,-0.045,-0.056
-0.025,-0.043,-0.018,0.034,-0.003,-0.03,0.015,-0.06,-0.043,-0.089,-0.071,-0.073
-0.018,-0.048,-0.03,0.033,0.007,-0.039,0.021,-0.069,-0.059,-0.106,-0.085,-0.082
-0.008,-0.049,-0.041,0.029,0.017,-0.045,0.027,-0.067,-0.06,-0.12,-0.091,-0.085
-0.009,-0.044,-0.035,0.027,0.013,-0.04,0.032,-0.061,-0.06,-0.121,-0.089,-0.085
-0.013,-0.045,-0.033,0.029,0.011,-0.039,0.038,-0.057,-0.06,-0.125,-0.094,-0.085
-0.016,-0.045,-0.028,0.031,0.007,-0.036,0.038,-0.053,-0.06,-0.128,-0.096,-0.085
-0.021,-0.045,-0.025,0.033,0.003,-0.035,0.031,-0.048,-0.06,-0.13,-0.094,-0.085
-0.017,-0.045,-0.028,0.031,0.006,-0.036,0.027,-0.045,-0.064,-0.128,-0.091,-0.081
-0.009,-0.042,-0.033,0.026,0.012,-0.037,0.021,-0.051,-0.066,-0.124,-0.089,-0.08
-0.005,-0.039,-0.034,0.022,0.015,-0.036,0.015,-0.052,-0.065,-0.126,-0.091,-0.08
-0.006,-0.036,-0.03,0.021,0.012,-0.033,0.01,-0.059,-0.066,-0.124,-0.09,-0.076
-0.006,-0.033,-0.028,0.02,0.011,-0.03,0.005,-0.073,-0.066,-0.126,-0.09,-0.075
-0.005,-0.03,-0.025,0.018,0.01,-0.027,0.005,-0.083,-0.081,-0.125,-0.088,-0.076
-0.01,-0.031,-0.021,0.021,0.006,-0.026,0.005,-0.095,-0.091,-0.131,-0.084,-0.081
-0.017,-0.038,-0.02,0.027,0.002,-0.029,0.005,-0.097,-0.092,-0.137,-0.098,-0.085
-0.029,-0.044,-0.016,0.037,-0.006,-0.03,0.005,-0.114,-0.107,-0.143,-0.114,-0.089
-0.032,-0.048,-0.016,0.041,-0.008,-0.032,0.005,-0.133,-0.113,-0.164,-0.116,-0.09
-0.041,-0.053,-0.013,0.047,-0.014,-0.033,0.005,-0.133,-0.126,-0.172,-0.119,-0.09
-0.031,-0.054,-0.022,0.043,-0.004,-0.038,0.005,-0.139,-0.138,-0.169,-0.121,-0.09
-0.005,-0.05,-0.045,0.028,0.02,-0.047,0.005,-0.146,-0.137,-0.171,-0.119,-0.09
-0.009,-0.05,-0.04,0.03,0.016,-0.045,0.005,-0.149,-0.142,-0.169,-0.121,-0.09
-0.016,-0.05,-0.034,0.033,0.009,-0.042,0.005,-0.145,-0.144,-0.171,-0.119,-0.09
-0.02,-0.05,-0.03,0.035,0.005,-0.04,0.0,-0.145,-0.146,-0.174,-0.121,-0.09
-0.028,-0.05,-0.022,0.039,-0.003,-0.036,0.0,-0.145,-0.144,-0.175,-0.119,-0.09
-0.031,-0.053,-0.022,0.043,-0.004,-0.037,0.002,-0.145,-0.146,-0.179,-0.117,-0.09
-0.031,-0.057,-0.027,0.044,-0.002,-0.042,0.007,-0.145,-0.144,-0.179,-0.114,-0.09
-0.026,-0.061,-0.035,0.044,0.004,-0.047,0.01,-0.15,-0.148,-0.183,-0.116,-0.086
-0.021,-0.059,-0.038,0.04,0.008,-0.048,0.013,-0.152,-0.152,-0.187,-0.132,-0.085
-0.018,-0.062,-0.044,0.04,0.013,-0.053,0.019,-0.149,-0.143,-0.178,-0.133,-0.085
-0.003,-0.046,-0.043,0.025,0.02,-0.044,0.019,-0.149,-0.133,-0.168,-0.124,-0.081
0.007,-0.004,-0.011,-0.001,0.009,-0.008,0.033,-0.132,-0.124,-0.158,-0.118,-0.08
-0.008,0.016,0.024,-0.004,-0.017,0.02,0.046,-0.127,-0.122,-0.149,-0.111,-0.08
-0.004,0.046,0.05,-0.021,-0.027,0.048,0.035,-0.133,-0.125,-0.147,-0.115,-0.08
0.0,0.08,0.08,-0.041,-0.04,0.08,0.009,-0.135,-0.129,-0.152,-0.115,-0.08
-0.001,0.085,0.086,-0.043,-0.043,0.085,-0.018,-0.16,-0.128,-0.157,-0.115,-0.08
-0.001,0.054,0.055,-0.027,-0.028,0.055,-0.022,-0.186,-0.141,-0.16,-0.115,-0.08
-0.024,-0.013,0.012,0.018,-0.018,-0.001,-0.019,-0.179,-0.147,-0.181,-0.114,-0.08
-0.032,-0.044,-0.012,0.038,-0.009,-0.028,-0.019,-0.195,-0.151,-0.184,-0.119,-0.083
-0.033,-0.076,-0.043,0.054,0.006,-0.059,-0.014,-0.184,-0.164,-0.193,-0.131,-0.087
-0.04,-0.092,-0.051,0.066,0.005,-0.072,-0.015,-0.186,-0.175,-0.218,-0.142,-0.093
-0.041,-0.088,-0.047,0.065,0.003,-0.067,-0.013,-0.189,-0.174,-0.198,-0.141,-0.093
-0.037,-0.094,-0.056,0.065,0.01,-0.075,-0.007,-0.175,-0.184,-0.233,-0.156,-0.098
-0.044,-0.084,-0.04,0.064,-0.002,-0.062,-0.014,-0.202,-0.175,-0.224,-0.135,-0.093
-0.034,-0.099,-0.064,0.066,0.015,-0.081,-0.005,-0.159,-0.168,-0.246,-0.156,-0.105
-0.049,-0.082,-0.033,0.066,-0.008,-0.058,-0.015,-0.221,-0.18,-0.227,-0.136,-0.095
-0.04,-0.121,-0.082,0.081,0.021,-0.101,-0.005,-0.132,-0.146,-0.235,-0.151,-0.109
-0.038,-0.093,-0.054,0.066,0.008,-0.073,0.07,-0.08,-0.144,-0.251,-0.201,-0.145
-0.043,-0.021,0.022,0.032,-0.032,0.0,0.235,0.401,0.176,-0.103,-0.176,-0.16
0.208,0.437,0.228,-0.323,-0.01,0.332,0.049,0.344,0.644,0.539,0.421,0.267
0.414,0.989,0.575,-0.702,-0.081,0.782,-0.712,-1.276,0.887,1.844,1.642,1.131
0.219,0.365,0.146,-0.292,0.037,0.255,-0.943,-1.663,0.142,1.005,1.066,0.898
-0.044,-0.323,-0.279,0.183,0.118,-0.3,-0.608,-1.129,-0.93,-0.709,-0.288,0.051
-0.045,-0.29,-0.244,0.168,0.1,-0.267,-0.309,-0.643,-0.569,-0.468,-0.262,-0.089
0.001,-0.198,-0.199,0.099,0.101,-0.199,-0.062,-0.121,-0.125,-0.235,-0.162,-0.084
-0.018,-0.104,-0.086,0.061,0.034,-0.095,-0.005,-0.082,-0.111,-0.2,-0.14,-0.084
-0.016,-0.084,-0.068,0.051,0.026,-0.076,0.031,0.008,-0.018,-0.127,-0.102,-0.069
-0.026,-0.066,-0.04,0.046,0.008,-0.053,0.052,0.02,-0.021,-0.154,-0.115,-0.074
-0.018,-0.056,-0.038,0.037,0.01,-0.047,0.047,0.048,0.034,-0.102,-0.081,-0.058
-0.014,-0.05,-0.036,0.032,0.012,-0.043,0.053,0.079,0.03,-0.117,-0.092,-0.064
-0.012,-0.037,-0.025,0.025,0.006,-0.03,0.047,0.085,0.064,-0.079,-0.065,-0.054
-0.015,-0.04,-0.025,0.028,0.005,-0.032,0.053,0.127,0.084,-0.087,-0.067,-0.055
-0.006,-0.029,-0.022,0.017,0.009,-0.025,0.046,0.138,0.104,-0.066,-0.051,-0.05
0.016,-0.018,-0.034,0.001,0.025,-0.026,0.046,0.19,0.151,-0.04,-0.042,-0.04
0.025,-0.003,-0.028,-0.011,0.027,-0.015,0.045,0.226,0.179,-0.009,-0.025,-0.017
0.043,0.012,-0.031,-0.027,0.037,-0.009,0.042,0.285,0.231,0.023,-0.001,-0.001
0.063,0.032,-0.03,-0.047,0.046,0.001,0.039,0.353,0.293,0.051,0.017,0.015
0.079,0.052,-0.027,-0.065,0.052,0.012,0.041,0.439,0.372,0.112,0.054,0.039
0.097,0.077,-0.02,-0.087,0.058,0.028,0.043,0.539,0.453,0.168,0.093,0.06
0.119,0.108,-0.011,-0.113,0.065,0.048,0.047,0.638,0.539,0.241,0.152,0.101
0.152,0.144,-0.008,-0.148,0.079,0.068,0.036,0.724,0.627,0.317,0.216,0.149
0.185,0.203,0.018,-0.194,0.083,0.11,-0.005,0.788,0.706,0.395,0.285,0.2
0.211,0.258,0.047,-0.235,0.082,0.152,-0.026,0.824,0.762,0.474,0.361,0.249
0.242,0.295,0.054,-0.269,0.093,0.174,-0.044,0.805,0.77,0.52,0.412,0.296
0.258,0.329,0.071,-0.293,0.093,0.2,-0.072,0.739,0.746,0.529,0.445,0.334
0.262,0.345,0.083,-0.304,0.089,0.214,-0.095,0.623,0.702,0.526,0.46,0.344
0.26,0.343,0.082,-0.302,0.088,0.212,-0.094,0.485,0.62,0.5,0.441,0.328
0.211,0.292,0.081,-0.252,0.064,0.186,-0.077,0.346,0.473,0.381,0.35,0.272
0.134,0.201,0.067,-0.168,0.033,0.134,-0.065,0.214,0.324,0.241,0.225,0.182
0.086,0.122,0.036,-0.104,0.024,0.079,-0.03,0.109,0.201,0.136,0.127,0.096
0.047,0.059,0.012,-0.053,0.017,0.035,0.0,0.05,0.101,0.04,0.051,0.037
0.015,0.012,-0.003,-0.013,0.009,0.004,0.002,0.005,0.04,-0.034,-0.007,-0.003
-0.012,-0.028,-0.016,0.02,0.002,-0.021,0.008,-0.043,-0.009,-0.077,-0.047,-0.035
-0.035,-0.049,-0.015,0.042,-0.01,-0.032,0.011,-0.066,-0.034,-0.099,-0.073,-0.057
-0.035,-0.05,-0.015,0.043,-0.01,-0.032,0.018,-0.064,-0.039,-0.106,-0.081,-0.059
-0.035,-0.055,-0.02,0.045,-0.007,-0.037,0.035,-0.059,-0.046,-0.111,-0.086,-0.065
-0.03,-0.054,-0.024,0.042,-0.002,-0.039,0.036,-0.057,-0.051,-0.127,-0.107,-0.076
-0.02,-0.05,-0.029,0.035,0.004,-0.039,0.035,-0.052,-0.047,-0.13,-0.108,-0.075
-0.021,-0.048,-0.027,0.034,0.004,-0.038,0.033,-0.05,-0.043,-0.124,-0.1,-0.074
-0.019,-0.044,-0.025,0.032,0.003,-0.034,0.029,-0.055,-0.04,-0.122,-0.097,-0.07
-0.017,-0.042,-0.025,0.03,0.004,-0.033,0.031,-0.055,-0.035,-0.117,-0.089,-0.07
-0.017,-0.038,-0.021,0.028,0.002,-0.03,0.026,-0.055,-0.035,-0.115,-0.086,-0.068
-0.026,-0.045,-0.02,0.035,-0.003,-0.032,0.02,-0.056,-0.036,-0.12,-0.089,-0.064
-0.036,-0.057,-0.021,0.046,-0.007,-0.038,0.015,-0.054,-0.034,-0.123,-0.091,-0.065
-0.028,-0.053,-0.025,0.041,-0.001,-0.039,0.01,-0.059,-0.041,-0.128,-0.09,-0.065
-0.026,-0.05,-0.025,0.039,-0.001,-0.037,0.003,-0.062,-0.044,-0.13,-0.091,-0.065
-0.021,-0.048,-0.026,0.035,0.003,-0.037,0.002,-0.072,-0.059,-0.131,-0.09,-0.065
-0.015,-0.045,-0.03,0.03,0.008,-0.037,0.015,-0.089,-0.079,-0.13,-0.093,-0.065
-0.015,-0.045,-0.03,0.03,0.008,-0.037,0.014,-0.094,-0.072,-0.131,-0.097,-0.065
-0.017,-0.045,-0.028,0.031,0.006,-0.036,0.007,-0.105,-0.083,-0.145,-0.102,-0.065
-0.021,-0.045,-0.024,0.033,0.002,-0.034,0.003,-0.117,-0.105,-0.152,-0.105,-0.064
-0.019,-0.045,-0.026,0.033,0.004,-0.036,-0.005,-0.114,-0.104,-0.154,-0.101,-0.068
-0.035,-0.055,-0.02,0.045,-0.007,-0.037,-0.008,-0.119,-0.106,-0.155,-0.099,-0.071
-0.041,-0.062,-0.021,0.051,-0.01,-0.042,-0.007,-0.131,-0.11,-0.156,-0.1,-0.069
-0.041,-0.058,-0.017,0.049,-0.012,-0.037,-0.003,-0.134,-0.11,-0.16,-0.099,-0.07
-0.047,-0.057,-0.009,0.052,-0.019,-0.033,-0.001,-0.14,-0.108,-0.16,-0.101,-0.07
-0.029,-0.053,-0.025,0.041,-0.001,-0.039,0.002,-0.137,-0.101,-0.157,-0.097,-0.07
-0.039,-0.057,-0.018,0.048,-0.01,-0.038,0.005,-0.128,-0.095,-0.149,-0.094,-0.068
-0.042,-0.048,-0.006,0.046,-0.018,-0.027,0.007,-0.116,-0.088,-0.142,-0.092,-0.063
-0.023,-0.01,0.012,0.016,-0.017,0.001,0.033,-0.103,-0.081,-0.133,-0.087,-0.058
-0.024,0.017,0.042,0.003,-0.033,0.029,0.055,-0.083,-0.075,-0.126,-0.085,-0.055
-0.015,0.051,0.066,-0.018,-0.041,0.058,0.044,-0.075,-0.079,-0.119,-0.077,-0.06
-0.001,0.071,0.072,-0.035,-0.037,0.072,0.01,-0.112,-0.084,-0.116,-0.07,-0.059
0.002,0.064,0.063,-0.033,-0.031,0.063,-0.026,-0.134,-0.086,-0.11,-0.058,-0.061
-0.037,0.01,0.047,0.013,-0.042,0.028,-0.031,-0.158,-0.107,-0.123,-0.064,-0.059
-0.06,-0.057,0.003,0.059,-0.031,-0.027,-0.029,-0.174,-0.122,-0.162,-0.1,-0.064
-0.059,-0.07,-0.01,0.065,-0.024,-0.04,-0.031,-0.184,-0.138,-0.17,-0.105,-0.08
-0.068,-0.094,-0.026,0.082,-0.021,-0.06,-0.029,-0.173,-0.152,-0.189,-0.124,-0.086
-0.063,-0.096,-0.033,0.08,-0.015,-0.064,-0.031,-0.187,-0.165,-0.201,-0.133,-0.088
-0.065,-0.113,-0.048,0.089,-0.008,-0.08,-0.025,-0.175,-0.154,-0.188,-0.125,-0.089
-0.06,-0.118,-0.058,0.089,0.0,-0.088,-0.021,-0.181,-0.166,-0.206,-0.137,-0.088
-0.061,-0.109,-0.048,0.086,-0.006,-0.078,-0.02,-0.187,-0.155,-0.178,-0.114,-0.08
-0.057,-0.125,-0.068,0.092,0.006,-0.097,-0.011,-0.162,-0.162,-0.207,-0.139,-0.092
-0.064,-0.099,-0.034,0.082,-0.015,-0.066,-0.016,-0.213,-0.161,-0.171,-0.108,-0.076
-0.053,-0.146,-0.093,0.1,0.02,-0.119,0.005,-0.109,-0.134,-0.208,-0.147,-0.101
-0.083,-0.104,-0.021,0.094,-0.031,-0.062,0.086,-0.042,-0.107,-0.215,-0.179,-0.139
-0.042,0.015,0.057,0.013,-0.05,0.036,0.269,0.519,0.27,-0.05,-0.113,-0.113
0.283,0.567,0.284,-0.426,-0.001,0.425,-0.111,0.046,0.715,0.806,0.671,0.449
0.459,0.919,0.461,-0.689,-0.002,0.69,-0.935,-1.548,0.859,1.881,1.701,1.211
0.199,0.133,-0.066,-0.166,0.133,0.033,-0.961,-1.56,-0.071,0.582,0.758,0.739
-0.058,-0.368,-0.31,0.213,0.127,-0.339,-0.574,-1.055,-0.949,-0.758,-0.344,-0.009
-0.034,-0.268,-0.233,0.151,0.1,-0.25,-0.273,-0.505,-0.401,-0.342,-0.197,-0.077
-0.001,-0.165,-0.164,0.083,0.082,-0.164,-0.037,-0.066,-0.083,-0.204,-0.148,-0.092
-0.025,-0.078,-0.053,0.051,0.014,-0.065,-0.01,-0.063,-0.082,-0.141,-0.102,-0.074
-0.021,-0.08,-0.059,0.051,0.019,-0.069,0.015,0.033,-0.011,-0.116,-0.097,-0.071
-0.027,-0.058,-0.031,0.043,0.002,-0.044,0.021,0.02,-0.011,-0.123,-0.096,-0.066
-0.024,-0.06,-0.036,0.042,0.006,-0.048,0.028,0.061,0.05,-0.091,-0.078,-0.056
-0.025,-0.05,-0.025,0.038,0.0,-0.037,0.041,0.079,0.038,-0.103,-0.085,-0.056
-0.025,-0.043,-0.018,0.034,-0.003,-0.03,0.037,0.099,0.072,-0.069,-0.065,-0.043
-0.025,-0.04,-0.015,0.033,-0.005,-0.027,0.043,0.132,0.083,-0.065,-0.068,-0.042
-0.018,-0.025,-0.008,0.022,-0.005,-0.016,0.042,0.164,0.114,-0.031,-0.038,-0.031
-0.008,-0.018,-0.01,0.013,0.001,-0.013,0.049,0.213,0.151,-0.014,-0.027,-0.024
0.003,-0.001,-0.003,0.0,0.003,-0.002,0.051,0.257,0.189,0.008,-0.012,-0.011
0.017,0.014,-0.002,-0.015,0.009,0.006,0.055,0.324,0.245,0.028,0.007,0.001
0.03,0.03,0.0,-0.03,0.015,0.015,0.048,0.398,0.298,0.076,0.03,0.016
0.041,0.048,0.007,-0.045,0.017,0.027,0.04,0.492,0.381,0.133,0.069,0.043
0.061,0.087,0.026,-0.074,0.017,0.056,0.035,0.594,0.464,0.193,0.121,0.076
0.085,0.128,0.043,-0.107,0.02,0.086,0.025,0.692,0.548,0.262,0.173,0.105
0.125,0.171,0.046,-0.148,0.039,0.108,0.021,0.776,0.634,0.334,0.227,0.151
0.186,0.23,0.044,-0.208,0.071,0.136,0.009,0.827,0.703,0.418,0.3,0.212
0.218,0.273,0.055,-0.245,0.081,0.164,-0.015,0.84,0.747,0.486,0.374,0.261
0.248,0.321,0.073,-0.285,0.087,0.197,-0.05,0.817,0.757,0.542,0.434,0.314
0.271,0.363,0.092,-0.318,0.089,0.227,-0.083,0.737,0.73,0.55,0.465,0.345
0.265,0.373,0.107,-0.319,0.079,0.24,-0.079,0.62,0.666,0.526,0.463,0.344
0.221,0.344,0.123,-0.283,0.049,0.233,-0.073,0.47,0.556,0.475,0.421,0.32
0.166,0.273,0.106,-0.22,0.03,0.189,-0.063,0.318,0.415,0.353,0.323,0.247
0.115,0.191,0.076,-0.153,0.019,0.133,-0.031,0.2,0.27,0.218,0.197,0.152
0.043,0.104,0.062,-0.074,-0.01,0.083,-0.006,0.104,0.153,0.109,0.099,0.074
-0.001,0.044,0.044,-0.022,-0.023,0.044,0.011,0.039,0.069,0.024,0.037,0.021
-0.03,0.0,0.029,0.015,-0.03,0.014,0.022,-0.008,0.007,-0.027,-0.013,-0.017
-0.047,-0.035,0.012,0.04,-0.029,-0.011,0.028,-0.041,-0.031,-0.059,-0.046,-0.042
-0.042,-0.041,0.001,0.041,-0.021,-0.02,0.026,-0.063,-0.06,-0.088,-0.063,-0.053
-0.048,-0.05,-0.003,0.049,-0.022,-0.026,0.024,-0.068,-0.074,-0.103,-0.071,-0.059
-0.052,-0.056,-0.004,0.055,-0.023,-0.03,0.025,-0.064,-0.075,-0.108,-0.08,-0.063
-0.055,-0.054,0.001,0.054,-0.027,-0.026,0.025,-0.066,-0.075,-0.115,-0.082,-0.067
-0.055,-0.056,0.0,0.056,-0.027,-0.027,0.025,-0.065,-0.075,-0.115,-0.079,-0.07
-0.054,-0.054,0.0,0.054,-0.027,-0.027,0.028,-0.065,-0.075,-0.115,-0.08,-0.074
-0.056,-0.056,0.0,0.056,-0.027,-0.027,0.031,-0.065,-0.075,-0.116,-0.08,-0.074
-0.052,-0.052,0.0,0.052,-0.026,-0.026,0.026,-0.065,-0.08,-0.114,-0.08,-0.07
-0.054,-0.05,0.004,0.051,-0.029,-0.023,0.024,-0.066,-0.082,-0.118,-0.082,-0.07
-0.055,-0.05,0.005,0.052,-0.03,-0.022,0.02,-0.065,-0.086,-0.121,-0.085,-0.068
-0.056,-0.05,0.005,0.052,-0.03,-0.022,0.015,-0.066,-0.089,-0.12,-0.085,-0.065
-0.059,-0.05,0.009,0.055,-0.034,-0.02,0.017,-0.068,-0.093,-0.124,-0.085,-0.065
-0.061,-0.051,0.01,0.056,-0.036,-0.02,0.02,-0.077,-0.095,-0.125,-0.085,-0.069
-0.063,-0.055,0.008,0.059,-0.035,-0.023,0.023,-0.087,-0.095,-0.126,-0.085,-0.07
-0.061,-0.055,0.005,0.057,-0.032,-0.025,0.026,-0.092,-0.096,-0.129,-0.085,-0.07
-0.061,-0.058,0.002,0.059,-0.031,-0.028,0.029,-0.112,-0.088,-0.132,-0.085,-0.075
-0.061,-0.06,0.0,0.06,-0.03,-0.03,0.03,-0.116,-0.103,-0.135,-0.085,-0.076
-0.058,-0.062,-0.004,0.06,-0.026,-0.033,0.025,-0.116,-0.125,-0.137,-0.085,-0.073
-0.062,-0.066,-0.004,0.065,-0.028,-0.035,0.025,-0.129,-0.128,-0.141,-0.085,-0.07
-0.057,-0.069,-0.012,0.063,-0.023,-0.04,0.024,-0.131,-0.131,-0.137,-0.086,-0.07
-0.05,-0.073,-0.022,0.062,-0.014,-0.047,0.02,-0.135,-0.13,-0.135,-0.09,-0.07
-0.055,-0.075,-0.02,0.065,-0.017,-0.047,0.02,-0.137,-0.13,-0.135,-0.089,-0.07
-0.055,-0.075,-0.019,0.065,-0.017,-0.047,0.022,-0.14,-0.139,-0.135,-0.093,-0.07
-0.054,-0.075,-0.021,0.065,-0.016,-0.047,0.026,-0.143,-0.14,-0.135,-0.095,-0.066
-0.055,-0.075,-0.02,0.065,-0.017,-0.047,0.025,-0.145,-0.14,-0.134,-0.095,-0.065
-0.055,-0.075,-0.02,0.065,-0.017,-0.047,0.025,-0.141,-0.14,-0.139,-0.091,-0.065
-0.059,-0.076,-0.017,0.068,-0.02,-0.046,0.024,-0.13,-0.14,-0.139,-0.086,-0.06
-0.058,-0.07,-0.012,0.064,-0.022,-0.041,0.026,-0.124,-0.141,-0.137,-0.083,-0.061
-0.036,-0.044,-0.008,0.04,-0.013,-0.026,0.036,-0.111,-0.122,-0.129,-0.078,-0.059
-0.053,-0.022,0.032,0.037,-0.042,0.005,0.062,-0.105,-0.108,-0.115,-0.073,-0.046
-0.064,-0.004,0.06,0.034,-0.062,0.027,0.074,-0.084,-0.11,-0.107,-0.05,-0.031
-0.032,0.031,0.063,0.0,-0.048,0.047,0.045,-0.087,-0.11,-0.102,-0.037,-0.022
-0.023,0.046,0.07,-0.012,-0.047,0.058,0.028,-0.128,-0.109,-0.096,-0.044,-0.017
-0.017,0.043,0.06,-0.013,-0.039,0.051,0.023,-0.148,-0.12,-0.089,-0.045,-0.016
-0.054,-0.001,0.052,0.028,-0.053,0.025,0.015,-0.165,-0.149,-0.111,-0.062,-0.043
-0.087,-0.07,0.017,0.078,-0.051,-0.027,0.01,-0.155,-0.16,-0.134,-0.094,-0.061
-0.091,-0.091,0.0,0.091,-0.045,-0.045,0.001,-0.172,-0.173,-0.138,-0.101,-0.067
-0.102,-0.112,-0.011,0.107,-0.046,-0.061,0.003,-0.181,-0.193,-0.164,-0.108,-0.084
-0.093,-0.108,-0.015,0.101,-0.039,-0.061,0.007,-0.193,-0.2,-0.159,-0.103,-0.077
-0.082,-0.112,-0.03,0.097,-0.026,-0.071,0.013,-0.172,-0.187,-0.159,-0.109,-0.081
-0.077,-0.109,-0.032,0.093,-0.022,-0.07,0.016,-0.188,-0.2,-0.174,-0.12,-0.081
-0.072,-0.109,-0.037,0.091,-0.018,-0.073,0.02,-0.176,-0.179,-0.154,-0.106,-0.077
-0.067,-0.112,-0.045,0.09,-0.011,-0.078,0.028,-0.177,-0.2,-0.19,-0.128,-0.089
-0.073,-0.095,-0.022,0.085,-0.025,-0.058,0.02,-0.195,-0.177,-0.151,-0.098,-0.078
-0.071,-0.137,-0.066,0.104,-0.002,-0.101,0.035,-0.104,-0.17,-0.202,-0.146,-0.114
-0.107,-0.096,0.011,0.102,-0.059,-0.042,0.136,0.027,-0.093,-0.166,-0.172,-0.126
-0.013,0.055,0.068,-0.022,-0.04,0.062,0.275,0.58,0.315,0.049,-0.051,-0.066
0.324,0.66,0.336,-0.492,-0.006,0.497,-0.224,-0.264,0.718,1.047,0.895,0.603
0.42,0.857,0.437,-0.639,-0.009,0.647,-0.962,-1.714,0.775,1.864,1.717,1.26
0.121,0.028,-0.093,-0.074,0.107,-0.032,-0.877,-1.515,-0.309,0.285,0.537,0.614
-0.051,-0.355,-0.304,0.204,0.126,-0.329,-0.499,-1.013,-0.957,-0.722,-0.345,-0.035
-0.018,-0.247,-0.229,0.133,0.106,-0.238,-0.189,-0.394,-0.319,-0.231,-0.147,-0.048
-0.032,-0.169,-0.137,0.101,0.053,-0.153,-0.007,-0.05,-0.122,-0.175,-0.134,-0.068
-0.039,-0.098,-0.059,0.069,0.01,-0.078,0.011,-0.038,-0.084,-0.107,-0.068,-0.049
-0.041,-0.102,-0.061,0.072,0.01,-0.081,0.049,0.05,-0.037,-0.103,-0.08,-0.055
-0.039,-0.082,-0.042,0.061,0.002,-0.062,0.044,0.043,-0.041,-0.08,-0.068,-0.05
-0.026,-0.081,-0.055,0.053,0.015,-0.068,0.063,0.099,0.006,-0.058,-0.057,-0.047
-0.019,-0.066,-0.048,0.042,0.015,-0.057,0.066,0.099,-0.002,-0.061,-0.06,-0.043
-0.008,-0.057,-0.05,0.033,0.021,-0.053,0.066,0.132,0.033,-0.029,-0.043,-0.031
-0.005,-0.048,-0.043,0.027,0.019,-0.045,0.072,0.157,0.05,-0.028,-0.041,-0.03
-0.001,-0.036,-0.035,0.019,0.017,-0.035,0.072,0.191,0.091,-0.001,-0.017,-0.018
0.006,-0.028,-0.034,0.011,0.02,-0.031,0.087,0.237,0.111,0.003,-0.011,-0.017
0.014,-0.013,-0.027,-0.001,0.021,-0.019,0.084,0.281,0.152,0.036,0.005,-0.002
0.017,-0.004,-0.022,-0.006,0.02,-0.013,0.086,0.355,0.219,0.071,0.016,0.017
0.03,0.021,-0.009,-0.026,0.02,0.006,0.084,0.431,0.282,0.116,0.057,0.036
0.055,0.045,-0.009,-0.05,0.032,0.018,0.086,0.529,0.364,0.173,0.1,0.058
0.072,0.07,-0.001,-0.071,0.036,0.034,0.082,0.628,0.443,0.23,0.133,0.084
0.086,0.111,0.025,-0.099,0.03,0.067,0.069,0.725,0.533,0.301,0.189,0.123
0.126,0.153,0.028,-0.14,0.049,0.09,0.058,0.804,0.619,0.378,0.253,0.169
0.176,0.211,0.035,-0.194,0.07,0.123,0.034,0.842,0.678,0.449,0.323,0.23
0.21,0.266,0.056,-0.239,0.077,0.161,-0.002,0.846,0.718,0.518,0.391,0.285
0.237,0.309,0.072,-0.273,0.082,0.19,-0.038,0.812,0.716,0.569,0.445,0.328
0.248,0.344,0.095,-0.296,0.076,0.219,-0.058,0.733,0.693,0.582,0.468,0.346
0.231,0.342,0.111,-0.286,0.06,0.226,-0.064,0.614,0.634,0.565,0.454,0.332
0.197,0.307,0.11,-0.252,0.044,0.209,-0.055,0.468,0.519,0.492,0.421,0.311
0.148,0.24,0.093,-0.194,0.027,0.166,-0.042,0.332,0.391,0.38,0.329,0.251
0.089,0.154,0.065,-0.121,0.012,0.109,-0.018,0.214,0.259,0.254,0.207,0.162
0.043,0.081,0.038,-0.062,0.002,0.06,0.012,0.12,0.147,0.142,0.119,0.084
-0.007,0.015,0.022,-0.004,-0.014,0.018,0.022,0.061,0.074,0.068,0.048,0.024
-0.046,-0.033,0.013,0.039,-0.029,-0.01,0.033,0.019,0.017,0.012,-0.004,-0.013
-0.065,-0.062,0.003,0.063,-0.033,-0.029,0.042,0.002,-0.016,-0.016,-0.039,-0.03
-0.074,-0.078,-0.004,0.076,-0.035,-0.041,0.04,-0.011,-0.042,-0.037,-0.06,-0.044
-0.076,-0.087,-0.011,0.082,-0.032,-0.049,0.04,-0.03,-0.064,-0.053,-0.07,-0.052
-0.078,-0.096,-0.017,0.087,-0.03,-0.056,0.039,-0.037,-0.064,-0.046,-0.075,-0.054
-0.07,-0.094,-0.024,0.082,-0.022,-0.059,0.035,-0.035,-0.058,-0.056,-0.077,-0.058
-0.068,-0.098,-0.03,0.083,-0.019,-0.063,0.035,-0.032,-0.058,-0.067,-0.08,-0.06
-0.075,-0.1,-0.025,0.088,-0.025,-0.062,0.035,-0.029,-0.049,-0.064,-0.083,-0.064
-0.074,-0.1,-0.025,0.088,-0.025,-0.062,0.035,-0.026,-0.056,-0.065,-0.086,-0.066
-0.08,-0.104,-0.024,0.092,-0.028,-0.064,0.035,-0.025,-0.075,-0.065,-0.081,-0.061
-0.086,-0.105,-0.02,0.096,-0.033,-0.062,0.035,-0.031,-0.077,-0.064,-0.08,-0.06
-0.084,-0.105,-0.02,0.095,-0.031,-0.062,0.035,-0.035,-0.081,-0.067,-0.08,-0.06
-0.088,-0.105,-0.018,0.097,-0.034,-0.061,0.034,-0.039,-0.084,-0.078,-0.076,-0.06
-0.092,-0.105,-0.013,0.099,-0.039,-0.058,0.031,-0.043,-0.088,-0.082,-0.075,-0.06
-0.098,-0.105,-0.007,0.102,-0.045,-0.056,0.03,-0.046,-0.097,-0.085,-0.076,-0.06
-0.101,-0.105,-0.004,0.104,-0.048,-0.054,0.03,-0.06,-0.108,-0.089,-0.08,-0.06
-0.106,-0.105,0.001,0.105,-0.053,-0.051,0.03,-0.073,-0.114,-0.091,-0.08,-0.06
-0.113,-0.108,0.005,0.11,-0.059,-0.051,0.031,-0.082,-0.116,-0.096,-0.083,-0.06
-0.11,-0.11,-0.001,0.11,-0.054,-0.055,0.027,-0.093,-0.132,-0.1,-0.085,-0.06
-0.103,-0.11,-0.007,0.107,-0.048,-0.058,0.025,-0.099,-0.136,-0.099,-0.085,-0.06
-0.098,-0.11,-0.012,0.104,-0.043,-0.061,0.025,-0.105,-0.136,-0.104,-0.088,-0.063
-0.092,-0.11,-0.018,0.102,-0.037,-0.064,0.021,-0.109,-0.144,-0.111,-0.091,-0.066
-0.089,-0.109,-0.02,0.099,-0.035,-0.065,0.02,-0.112,-0.146,-0.11,-0.094,-0.069
-0.086,-0.106,-0.02,0.096,-0.032,-0.062,0.02,-0.119,-0.151,-0.11,-0.097,-0.072
-0.084,-0.103,-0.02,0.093,-0.032,-0.061,0.02,-0.125,-0.154,-0.111,-0.1,-0.075
-0.08,-0.1,-0.02,0.09,-0.03,-0.06,0.02,-0.125,-0.159,-0.109,-0.099,-0.074
-0.078,-0.098,-0.02,0.088,-0.029,-0.059,0.02,-0.125,-0.166,-0.117,-0.094,-0.069
-0.073,-0.093,-0.02,0.083,-0.026,-0.056,0.02,-0.125,-0.17,-0.126,-0.091,-0.071
-0.075,-0.1,-0.025,0.088,-0.025,-0.062,0.02,-0.125,-0.17,-0.125,-0.088,-0.067
-0.091,-0.116,-0.025,0.104,-0.033,-0.07,0.018,-0.124,-0.172,-0.125,-0.083,-0.064
-0.088,-0.115,-0.027,0.102,-0.03,-0.071,0.013,-0.128,-0.175,-0.125,-0.08,-0.065
-0.085,-0.115,-0.03,0.1,-0.027,-0.072,0.01,-0.13,-0.175,-0.125,-0.082,-0.061
-0.084,-0.115,-0.031,0.1,-0.026,-0.073,0.007,-0.125,-0.172,-0.121,-0.08,-0.06
-0.089,-0.115,-0.026,0.102,-0.031,-0.07,0.001,-0.117,-0.164,-0.114,-0.08,-0.06
-0.102,-0.114,-0.012,0.108,-0.044,-0.063,0.001,-0.111,-0.158,-0.108,-0.078,-0.06
-0.083,-0.08,0.002,0.081,-0.042,-0.039,0.015,-0.103,-0.15,-0.101,-0.075,-0.061
-0.073,-0.052,0.021,0.062,-0.047,-0.015,0.041,-0.098,-0.147,-0.097,-0.075,-0.058
-0.084,-0.04,0.044,0.062,-0.064,0.002,0.052,-0.095,-0.15,-0.099,-0.078,-0.046
-0.079,-0.012,0.067,0.045,-0.073,0.027,0.027,-0.102,-0.15,-0.103,-0.081,-0.03
-0.056,0.012,0.068,0.022,-0.062,0.04,-0.006,-0.124,-0.15,-0.104,-0.079,-0.029
-0.036,0.021,0.057,0.007,-0.047,0.039,-0.021,-0.144,-0.15,-0.11,-0.086,-0.032
-0.066,-0.039,0.027,0.052,-0.046,-0.006,-0.02,-0.144,-0.16,-0.108,-0.083,-0.039
-0.095,-0.109,-0.014,0.102,-0.04,-0.061,-0.014,-0.132,-0.175,-0.117,-0.089,-0.066
-0.092,-0.124,-0.032,0.108,-0.03,-0.077,-0.013,-0.16,-0.188,-0.125,-0.096,-0.071
-0.093,-0.143,-0.05,0.119,-0.021,-0.096,-0.006,-0.165,-0.207,-0.132,-0.102,-0.075
-0.097,-0.137,-0.04,0.117,-0.028,-0.088,-0.005,-0.186,-0.215,-0.13,-0.099,-0.075
-0.094,-0.143,-0.049,0.119,-0.022,-0.095,-0.005,-0.172,-0.198,-0.126,-0.099,-0.075
-0.096,-0.139,-0.043,0.118,-0.027,-0.09,-0.004,-0.186,-0.214,-0.139,-0.104,-0.083
-0.095,-0.139,-0.045,0.117,-0.025,-0.092,-0.008,-0.178,-0.188,-0.116,-0.092,-0.076
-0.1,-0.144,-0.044,0.122,-0.028,-0.093,-0.001,-0.173,-0.213,-0.152,-0.115,-0.088
-0.113,-0.132,-0.018,0.123,-0.047,-0.075,-0.011,-0.2,-0.194,-0.125,-0.09,-0.082
-0.082,-0.164,-0.082,0.124,0.001,-0.123,0.009,-0.105,-0.176,-0.177,-0.142,-0.11
-0.117,-0.115,0.002,0.116,-0.059,-0.056,0.114,0.044,-0.092,-0.136,-0.157,-0.143
-0.051,-0.002,0.049,0.026,-0.05,0.024,0.248,0.575,0.278,0.05,-0.06,-0.094
0.285,0.586,0.3,-0.436,-0.008,0.443,-0.192,-0.224,0.641,0.978,0.832,0.557
0.4,0.862,0.462,-0.631,-0.031,0.662,-0.941,-1.689,0.752,1.873,1.725,1.262
0.119,0.073,-0.046,-0.096,0.083,0.013,-0.906,-1.55,-0.279,0.387,0.625,0.671
-0.092,-0.368,-0.277,0.23,0.092,-0.322,-0.531,-1.028,-0.962,-0.683,-0.313,-0.015
-0.065,-0.274,-0.209,0.17,0.072,-0.242,-0.239,-0.41,-0.349,-0.223,-0.137,-0.041
-0.043,-0.177,-0.134,0.111,0.046,-0.155,-0.036,-0.046,-0.145,-0.157,-0.12,-0.065
-0.065,-0.119,-0.054,0.092,-0.005,-0.086,-0.019,-0.026,-0.1,-0.08,-0.07,-0.05
-0.062,-0.126,-0.065,0.095,0.002,-0.095,0.011,0.058,-0.053,-0.081,-0.083,-0.057
-0.056,-0.097,-0.042,0.077,-0.007,-0.069,0.018,0.048,-0.062,-0.071,-0.073,-0.056
-0.051,-0.093,-0.042,0.072,-0.004,-0.067,0.041,0.092,-0.016,-0.05,-0.062,-0.051
-0.046,-0.076,-0.03,0.061,-0.008,-0.052,0.054,0.1,-0.025,-0.056,-0.067,-0.049
-0.04,-0.064,-0.024,0.052,-0.008,-0.044,0.047,0.133,0.006,-0.022,-0.048,-0.038
-0.039,-0.058,-0.019,0.049,-0.01,-0.038,0.053,0.154,0.013,-0.026,-0.047,-0.039
-0.036,-0.045,-0.01,0.041,-0.013,-0.027,0.048,0.19,0.057,0.008,-0.025,-0.027
-0.033,-0.041,-0.007,0.037,-0.013,-0.024,0.05,0.245,0.091,0.019,-0.02,-0.027
-0.023,-0.023,-0.001,0.023,-0.011,-0.012,0.046,0.284,0.127,0.047,-0.001,-0.013
-0.016,-0.013,0.003,0.014,-0.009,-0.005,0.043,0.35,0.177,0.074,0.016,-0.001
0.002,0.008,0.006,-0.005,-0.002,0.007,0.041,0.431,0.243,0.121,0.047,0.016
0.022,0.038,0.016,-0.03,0.003,0.027,0.036,0.519,0.313,0.179,0.09,0.045
0.033,0.063,0.03,-0.048,0.001,0.046,0.036,0.614,0.386,0.221,0.126,0.074
0.08,0.111,0.031,-0.095,0.024,0.071,0.031,0.712,0.477,0.294,0.183,0.113
0.119,0.147,0.028,-0.133,0.046,0.087,0.014,0.792,0.56,0.371,0.247,0.153
0.15,0.187,0.038,-0.168,0.056,0.112,-0.001,0.825,0.624,0.444,0.314,0.211
0.197,0.248,0.052,-0.223,0.072,0.15,-0.029,0.824,0.653,0.506,0.377,0.265
0.227,0.294,0.067,-0.261,0.08,0.18,-0.061,0.8,0.646,0.543,0.428,0.31
0.229,0.322,0.092,-0.276,0.068,0.207,-0.084,0.723,0.629,0.566,0.464,0.336
0.234,0.328,0.093,-0.281,0.07,0.21,-0.09,0.612,0.593,0.555,0.465,0.319
0.227,0.311,0.084,-0.269,0.071,0.197,-0.076,0.473,0.496,0.502,0.428,0.305
0.167,0.249,0.082,-0.208,0.042,0.165,-0.068,0.332,0.368,0.4,0.344,0.253
0.103,0.158,0.055,-0.131,0.024,0.106,-0.054,0.224,0.241,0.28,0.234,0.16
0.053,0.075,0.023,-0.064,0.014,0.049,-0.025,0.138,0.122,0.164,0.126,0.087
-0.006,0.008,0.014,-0.001,-0.01,0.011,-0.007,0.071,0.034,0.073,0.046,0.032
-0.041,-0.035,0.006,0.038,-0.024,-0.014,-0.001,0.02,-0.025,0.016,-0.002,-0.017
-0.058,-0.061,-0.003,0.06,-0.027,-0.031,0.006,-0.017,-0.068,-0.033,-0.044,-0.049
-0.078,-0.086,-0.008,0.082,-0.035,-0.047,0.01,-0.035,-0.093,-0.054,-0.064,-0.054
-0.073,-0.091,-0.018,0.083,-0.027,-0.055,0.01,-0.041,-0.095,-0.059,-0.065,-0.059
-0.067,-0.089,-0.022,0.078,-0.022,-0.056,0.01,-0.045,-0.096,-0.063,-0.068,-0.059
-0.071,-0.091,-0.02,0.081,-0.026,-0.055,0.01,-0.042,-0.1,-0.066,-0.07,-0.062
-0.07,-0.09,-0.02,0.08,-0.025,-0.055,0.01,-0.04,-0.1,-0.07,-0.071,-0.075
-0.069,-0.089,-0.02,0.079,-0.024,-0.054,0.009,-0.04,-0.1,-0.073,-0.076,-0.075
-0.064,-0.084,-0.02,0.074,-0.021,-0.052,0.006,-0.036,-0.1,-0.077,-0.079,-0.075
-0.059,-0.079,-0.02,0.069,-0.02,-0.049,0.003,-0.035,-0.1,-0.08,-0.084,-0.076
-0.059,-0.075,-0.016,0.067,-0.021,-0.045,0.0,-0.036,-0.103,-0.084,-0.085,-0.074
-0.059,-0.07,-0.011,0.065,-0.024,-0.041,-0.002,-0.041,-0.108,-0.089,-0.085,-0.077
-0.056,-0.065,-0.009,0.061,-0.023,-0.037,-0.006,-0.044,-0.117,-0.093,-0.09,-0.08
-0.064,-0.068,-0.004,0.067,-0.03,-0.036,-0.002,-0.051,-0.124,-0.097,-0.09,-0.08
-0.073,-0.074,-0.001,0.074,-0.036,-0.037,0.0,-0.058,-0.122,-0.1,-0.091,-0.08
-0.075,-0.077,-0.002,0.077,-0.036,-0.039,0.004,-0.071,-0.138,-0.105,-0.095,-0.08
-0.069,-0.082,-0.013,0.076,-0.028,-0.047,0.005,-0.091,-0.154,-0.105,-0.095,-0.08
-0.063,-0.085,-0.022,0.074,-0.02,-0.053,0.0,-0.099,-0.16,-0.106,-0.095,-0.083
-0.067,-0.088,-0.021,0.077,-0.023,-0.054,-0.002,-0.098,-0.171,-0.108,-0.095,-0.087
-0.071,-0.09,-0.019,0.081,-0.026,-0.055,-0.006,-0.108,-0.184,-0.12,-0.095,-0.09
-0.081,-0.093,-0.012,0.088,-0.034,-0.053,-0.009,-0.119,-0.2,-0.14,-0.099,-0.093
-0.068,-0.095,-0.027,0.082,-0.02,-0.061,-0.013,-0.129,-0.201,-0.14,-0.1,-0.097
-0.069,-0.098,-0.03,0.084,-0.019,-0.064,-0.015,-0.141,-0.197,-0.139,-0.1,-0.1
-0.089,-0.1,-0.012,0.095,-0.039,-0.056,-0.015,-0.139,-0.196,-0.141,-0.104,-0.1
-0.08,-0.1,-0.02,0.09,-0.03,-0.06,-0.019,-0.142,-0.192,-0.139,-0.106,-0.102
-0.076,-0.1,-0.024,0.088,-0.026,-0.062,-0.02,-0.146,-0.205,-0.14,-0.103,-0.106
-0.08,-0.1,-0.02,0.09,-0.03,-0.06,-0.02,-0.144,-0.216,-0.14,-0.1,-0.105
-0.079,-0.099,-0.02,0.089,-0.029,-0.059,-0.015,-0.145,-0.215,-0.14,-0.1,-0.102
-0.076,-0.095,-0.019,0.085,-0.028,-0.056,-0.016,-0.145,-0.217,-0.14,-0.1,-0.099
-0.081,-0.095,-0.014,0.089,-0.033,-0.055,-0.013,-0.145,-0.221,-0.14,-0.1,-0.096
-0.077,-0.092,-0.016,0.085,-0.03,-0.054,-0.01,-0.145,-0.219,-0.14,-0.1,-0.093
-0.077,-0.09,-0.013,0.084,-0.032,-0.051,-0.009,-0.145,-0.217,-0.139,-0.104,-0.091
-0.088,-0.09,-0.002,0.089,-0.043,-0.046,-0.011,-0.146,-0.212,-0.143,-0.108,-0.088
-0.064,-0.085,-0.021,0.075,-0.021,-0.053,-0.028,-0.157,-0.209,-0.146,-0.113,-0.085
-0.044,-0.075,-0.032,0.06,-0.006,-0.053,-0.03,-0.158,-0.229,-0.139,-0.114,-0.085
-0.053,-0.068,-0.015,0.061,-0.019,-0.041,-0.021,-0.148,-0.234,-0.136,-0.108,-0.083
-0.048,-0.059,-0.011,0.054,-0.019,-0.035,-0.019,-0.14,-0.218,-0.132,-0.106,-0.08
-0.059,-0.05,0.009,0.055,-0.034,-0.02,0.008,-0.129,-0.205,-0.125,-0.099,-0.08
-0.07,-0.029,0.041,0.05,-0.056,0.006,0.039,-0.127,-0.192,-0.128,-0.098,-0.075
-0.042,0.021,0.063,0.01,-0.053,0.042,0.032,-0.121,-0.189,-0.13,-0.08,-0.06
-0.049,0.033,0.082,0.008,-0.066,0.058,-0.007,-0.139,-0.19,-0.13,-0.051,-0.051
-0.044,0.032,0.075,0.006,-0.06,0.053,-0.049,-0.156,-0.2,-0.129,-0.053,-0.041
-0.042,0.001,0.044,0.02,-0.043,0.023,-0.058,-0.17,-0.222,-0.132,-0.066,-0.045
-0.066,-0.077,-0.012,0.072,-0.027,-0.044,-0.051,-0.167,-0.226,-0.151,-0.096,-0.081
-0.069,-0.097,-0.028,0.083,-0.02,-0.062,-0.051,-0.176,-0.241,-0.162,-0.109,-0.091
-0.067,-0.113,-0.046,0.091,-0.01,-0.08,-0.046,-0.194,-0.273,-0.185,-0.123,-0.094
-0.069,-0.117,-0.048,0.094,-0.01,-0.082,-0.044,-0.203,-0.291,-0.198,-0.135,-0.103
-0.076,-0.112,-0.036,0.094,-0.019,-0.074,-0.043,-0.201,-0.272,-0.177,-0.123,-0.096
-0.057,-0.118,-0.061,0.087,0.003,-0.089,-0.037,-0.193,-0.28,-0.198,-0.14,-0.105
-0.071,-0.102,-0.031,0.087,-0.02,-0.066,-0.043,-0.218,-0.267,-0.166,-0.123,-0.094
-0.064,-0.12,-0.055,0.092,-0.004,-0.088,-0.036,-0.192,-0.264,-0.194,-0.148,-0.106
-0.088,-0.104,-0.016,0.096,-0.036,-0.06,-0.043,-0.233,-0.272,-0.172,-0.121,-0.097
-0.085,-0.148,-0.063,0.117,-0.011,-0.105,-0.038,-0.147,-0.247,-0.197,-0.149,-0.116
-0.084,-0.132,-0.048,0.109,-0.018,-0.09,0.034,-0.091,-0.238,-0.218,-0.172,-0.156
-0.102,-0.056,0.046,0.079,-0.074,-0.005,0.22,0.403,0.086,-0.082,-0.139,-0.169
0.176,0.391,0.215,-0.284,-0.02,0.303,0.034,0.287,0.504,0.541,0.427,0.258
0.424,0.951,0.527,-0.688,-0.052,0.739,-0.762,-1.312,0.845,1.869,1.672,1.159
0.224,0.362,0.138,-0.293,0.042,0.25,-1.009,-1.698,0.132,1.029,1.112,0.937
-0.063,-0.331,-0.268,0.197,0.103,-0.299,-0.651,-1.17,-0.996,-0.659,-0.235,0.071
-0.052,-0.309,-0.257,0.181,0.103,-0.283,-0.356,-0.64,-0.623,-0.417,-0.234,-0.09
-0.02,-0.217,-0.197,0.119,0.088,-0.207,-0.102,-0.125,-0.208,-0.209,-0.149,-0.094
-0.054,-0.126,-0.071,0.09,0.009,-0.098,-0.035,-0.086,-0.197,-0.178,-0.121,-0.09
-0.045,-0.118,-0.072,0.082,0.014,-0.095,-0.018,0.003,-0.113,-0.119,-0.099,-0.078
-0.057,-0.106,-0.049,0.081,-0.003,-0.077,-0.003,0.023,-0.137,-0.139,-0.109,-0.081
-0.05,-0.099,-0.049,0.075,0.0,-0.074,-0.008,0.048,-0.085,-0.089,-0.075,-0.066
-0.051,-0.098,-0.047,0.075,-0.002,-0.072,0.004,0.071,-0.083,-0.11,-0.081,-0.071
-0.051,-0.087,-0.036,0.069,-0.007,-0.062,0.004,0.081,-0.044,-0.079,-0.051,-0.055
-0.044,-0.084,-0.039,0.064,-0.002,-0.061,0.02,0.123,-0.023,-0.08,-0.052,-0.055
-0.039,-0.066,-0.027,0.053,-0.005,-0.046,0.019,0.135,0.006,-0.046,-0.037,-0.045
-0.031,-0.059,-0.027,0.045,-0.002,-0.043,0.021,0.189,0.045,-0.026,-0.031,-0.039
-0.029,-0.047,-0.018,0.038,-0.005,-0.032,0.02,0.237,0.079,-0.002,-0.02,-0.034
-0.021,-0.037,-0.015,0.029,-0.003,-0.026,0.02,0.284,0.128,0.032,0.005,-0.017
-0.017,-0.024,-0.008,0.021,-0.004,-0.016,0.02,0.354,0.177,0.059,0.03,0.001
0.007,0.002,-0.006,-0.004,0.007,-0.002,0.01,0.444,0.257,0.111,0.066,0.025
0.052,0.029,-0.023,-0.04,0.037,0.003,0.0,0.538,0.333,0.166,0.105,0.06
0.088,0.059,-0.029,-0.073,0.058,0.015,-0.014,0.625,0.412,0.232,0.15,0.094
0.116,0.107,-0.009,-0.111,0.062,0.049,-0.019,0.712,0.496,0.307,0.217,0.134
0.154,0.158,0.004,-0.156,0.075,0.081,-0.042,0.759,0.555,0.373,0.275,0.188
0.199,0.217,0.018,-0.208,0.09,0.117,-0.073,0.75,0.608,0.442,0.343,0.239
0.223,0.266,0.042,-0.245,0.09,0.154,-0.101,0.737,0.628,0.504,0.416,0.29
0.234,0.297,0.063,-0.266,0.085,0.18,-0.131,0.698,0.607,0.534,0.447,0.324
0.212,0.302,0.09,-0.257,0.06,0.196,-0.149,0.591,0.561,0.524,0.45,0.316
0.196,0.291,0.096,-0.244,0.05,0.193,-0.149,0.462,0.473,0.472,0.427,0.303
0.174,0.253,0.079,-0.214,0.047,0.166,-0.117,0.337,0.355,0.373,0.354,0.262
0.111,0.176,0.065,-0.144,0.023,0.121,-0.098,0.202,0.214,0.243,0.234,0.172
0.05,0.091,0.041,-0.071,0.004,0.066,-0.078,0.107,0.098,0.131,0.128,0.09
-0.009,0.015,0.024,-0.003,-0.016,0.019,-0.051,0.044,0.003,0.035,0.042,0.023
-0.039,-0.031,0.009,0.035,-0.024,-0.011,-0.039,-0.007,-0.063,-0.036,-0.013,-0.022
-0.051,-0.062,-0.01,0.057,-0.02,-0.036,-0.029,-0.047,-0.105,-0.072,-0.037,-0.041
-0.079,-0.081,-0.003,0.08,-0.038,-0.042,-0.025,-0.07,-0.149,-0.101,-0.072,-0.062
-0.089,-0.085,0.003,0.087,-0.045,-0.041,-0.02,-0.07,-0.155,-0.119,-0.096,-0.079
-0.078,-0.085,-0.007,0.082,-0.035,-0.046,-0.016,-0.07,-0.154,-0.129,-0.102,-0.084
-0.072,-0.085,-0.012,0.079,-0.029,-0.048,-0.012,-0.07,-0.156,-0.136,-0.101,-0.086
-0.064,-0.085,-0.021,0.075,-0.021,-0.053,-0.008,-0.07,-0.154,-0.135,-0.1,-0.082
-0.057,-0.085,-0.028,0.071,-0.014,-0.056,-0.019,-0.07,-0.156,-0.132,-0.098,-0.08
-0.058,-0.089,-0.03,0.073,-0.014,-0.059,-0.027,-0.07,-0.154,-0.13,-0.094,-0.077
-0.067,-0.097,-0.03,0.082,-0.018,-0.063,-0.022,-0.07,-0.156,-0.13,-0.095,-0.074
-0.069,-0.099,-0.03,0.084,-0.019,-0.064,-0.02,-0.07,-0.155,-0.135,-0.099,-0.08
-0.064,-0.094,-0.03,0.079,-0.017,-0.061,-0.017,-0.07,-0.155,-0.145,-0.097,-0.084
-0.059,-0.089,-0.03,0.074,-0.014,-0.06,-0.014,-0.071,-0.161,-0.151,-0.095,-0.08
-0.055,-0.084,-0.028,0.07,-0.013,-0.056,-0.02,-0.072,-0.167,-0.149,-0.095,-0.081
-0.056,-0.081,-0.025,0.069,-0.015,-0.053,-0.025,-0.086,-0.171,-0.151,-0.095,-0.078
-0.051,-0.073,-0.022,0.062,-0.014,-0.048,-0.032,-0.099,-0.173,-0.15,-0.095,-0.074
-0.06,-0.08,-0.02,0.07,-0.02,-0.05,-0.035,-0.106,-0.182,-0.149,-0.097,-0.076
-0.079,-0.095,-0.017,0.087,-0.031,-0.056,-0.035,-0.121,-0.19,-0.167,-0.099,-0.077
-0.088,-0.102,-0.014,0.096,-0.037,-0.058,-0.036,-0.129,-0.198,-0.178,-0.108,-0.083
-0.071,-0.098,-0.027,0.084,-0.022,-0.062,-0.034,-0.133,-0.214,-0.178,-0.119,-0.083
-0.07,-0.1,-0.03,0.085,-0.02,-0.065,-0.037,-0.136,-0.219,-0.183,-0.121,-0.09
-0.078,-0.101,-0.023,0.09,-0.027,-0.062,-0.033,-0.147,-0.216,-0.185,-0.119,-0.088
-0.061,-0.096,-0.035,0.079,-0.013,-0.066,-0.038,-0.156,-0.215,-0.185,-0.121,-0.086
-0.072,-0.123,-0.05,0.097,-0.011,-0.086,-0.031,-0.156,-0.213,-0.185,-0.119,-0.085
-0.056,-0.103,-0.047,0.08,-0.004,-0.075,-0.041,-0.161,-0.22,-0.185,-0.12,-0.082
-0.087,-0.129,-0.042,0.108,-0.022,-0.085,-0.053,-0.163,-0.231,-0.185,-0.12,-0.081
-0.051,-0.093,-0.042,0.072,-0.005,-0.067,-0.004,-0.167,-0.23,-0.185,-0.119,-0.075
-0.095,-0.127,-0.032,0.112,-0.032,-0.079,0.003,-0.17,-0.229,-0.185,-0.122,-0.112
-0.045,-0.086,-0.041,0.066,-0.002,-0.063,-0.003,-0.169,-0.225,-0.184,-0.117,-0.061
0.225,0.19,-0.035,-0.208,0.13,0.078,0.002,-0.173,-0.225,-0.185,-0.124,0.01
0.181,0.119,-0.062,-0.15,0.121,0.029,-0.002,-0.174,-0.227,-0.184,-0.118,-0.004
0.154,0.009,-0.145,-0.081,0.149,-0.068,0.001,-0.176,-0.231,-0.186,-0.134,0.001
0.298,0.087,-0.212,-0.192,0.255,-0.062,-0.001,-0.174,-0.233,-0.184,-0.124,0.0
0.229,-0.042,-0.271,-0.093,0.25,-0.156,0.001,-0.177,-0.236,-0.18,-0.136,-0.001
-0.147,-0.317,-0.17,0.232,0.012,-0.243,0.0,-0.17,-0.24,-0.182,-0.121,0.001
