-0.016,-0.03,-0.014,0.024,-0.001,-0.022,-0.005,-0.049,0.061,-0.074,-0.114,-0.1
-0.024,-0.03,-0.005,0.027,-0.01,-0.017,-0.009,-0.038,0.066,-0.063,-0.107,-0.097
-0.035,-0.027,0.008,0.031,-0.021,-0.009,-0.017,-0.021,0.073,-0.047,-0.093,-0.091
-0.034,-0.024,0.01,0.029,-0.021,-0.006,-0.021,-0.015,0.082,-0.038,-0.082,-0.086
-0.034,-0.021,0.014,0.027,-0.024,-0.003,-0.031,-0.004,0.094,-0.027,-0.073,-0.079
-0.035,-0.019,0.016,0.026,-0.025,-0.001,-0.031,0.002,0.099,-0.017,-0.061,-0.075
-0.029,-0.015,0.014,0.022,-0.021,0.0,-0.057,0.013,0.104,0.002,-0.046,-0.068
-0.027,-0.01,0.016,0.018,-0.021,0.002,-0.102,0.022,0.12,0.016,-0.034,-0.056
-0.019,-0.006,0.013,0.012,-0.016,0.004,-0.109,0.034,0.145,0.036,-0.017,-0.042
-0.02,-0.003,0.017,0.011,-0.018,0.007,-0.037,0.058,0.168,0.058,0.0,-0.028
-0.006,0.006,0.012,0.0,-0.009,0.009,0.013,0.073,0.198,0.089,0.027,-0.008
-0.004,0.015,0.02,-0.006,-0.012,0.018,-0.042,0.099,0.243,0.128,0.054,0.022
0.017,0.037,0.02,-0.027,-0.002,0.028,-0.093,0.132,0.291,0.169,0.081,0.052
0.057,0.061,0.004,-0.059,0.026,0.032,-0.116,0.187,0.356,0.231,0.134,0.096
0.081,0.113,0.032,-0.097,0.024,0.072,-0.096,0.226,0.416,0.287,0.181,0.131
0.089,0.148,0.059,-0.118,0.015,0.103,-0.05,0.255,0.483,0.361,0.249,0.189
0.088,0.16,0.072,-0.124,0.008,0.115,-0.064,0.297,0.551,0.431,0.326,0.268
0.153,0.217,0.064,-0.185,0.044,0.141,-0.115,0.308,0.574,0.468,0.37,0.304
0.158,0.235,0.077,-0.197,0.04,0.156,-0.153,0.301,0.58,0.485,0.38,0.319
0.137,0.241,0.103,-0.189,0.017,0.172,-0.157,0.265,0.543,0.461,0.367,0.313
0.143,0.222,0.079,-0.183,0.032,0.15,-0.121,0.214,0.472,0.411,0.348,0.302
0.09,0.17,0.08,-0.131,0.005,0.125,-0.092,0.152,0.387,0.325,0.282,0.255
0.055,0.13,0.075,-0.093,-0.01,0.102,-0.072,0.084,0.273,0.215,0.181,0.16
0.018,0.071,0.052,-0.044,-0.017,0.061,-0.057,0.049,0.199,0.133,0.106,0.083
-0.023,0.038,0.06,-0.008,-0.042,0.049,-0.042,0.022,0.124,0.069,0.032,0.017
-0.043,0.003,0.046,0.02,-0.044,0.024,-0.036,-0.007,0.052,0.018,-0.037,-0.03
-0.092,-0.055,0.037,0.073,-0.064,-0.009,-0.029,-0.038,0.034,-0.027,-0.06,-0.048
-0.115,-0.077,0.038,0.095,-0.076,-0.02,-0.042,-0.044,0.014,-0.055,-0.081,-0.064
-0.106,-0.074,0.032,0.09,-0.068,-0.021,-0.114,-0.048,-0.014,-0.075,-0.099,-0.084
-0.104,-0.076,0.028,0.09,-0.066,-0.023,-0.066,-0.066,-0.027,-0.092,-0.101,-0.088
-0.106,-0.074,0.031,0.09,-0.068,-0.021,0.018,-0.06,-0.019,-0.088,-0.105,-0.089
-0.105,-0.076,0.029,0.09,-0.066,-0.023,0.023,-0.055,-0.015,-0.085,-0.105,-0.093
-0.072,-0.072,0.0,0.072,-0.036,-0.036,0.036,-0.052,-0.012,-0.083,-0.105,-0.094
-0.056,-0.07,-0.014,0.063,-0.021,-0.042,0.035,-0.045,-0.005,-0.079,-0.105,-0.097
-0.081,-0.07,0.01,0.075,-0.045,-0.03,0.014,-0.046,-0.008,-0.083,-0.106,-0.1
-0.079,-0.066,0.013,0.072,-0.045,-0.027,-0.025,-0.044,-0.018,-0.084,-0.103,-0.1
-0.067,-0.065,0.002,0.066,-0.034,-0.031,-0.038,-0.046,-0.027,-0.089,-0.109,-0.1
-0.083,-0.065,0.018,0.074,-0.05,-0.023,-0.022,-0.045,-0.026,-0.096,-0.121,-0.1
-0.1,-0.077,0.022,0.088,-0.061,-0.027,0.017,-0.046,-0.024,-0.095,-0.12,-0.1
-0.085,-0.074,0.01,0.079,-0.047,-0.032,0.049,-0.052,-0.02,-0.097,-0.12,-0.1
-0.064,-0.058,0.006,0.061,-0.035,-0.026,0.035,-0.058,-0.018,-0.101,-0.12,-0.101
-0.059,-0.062,-0.003,0.06,-0.028,-0.032,0.027,-0.061,-0.014,-0.099,-0.12,-0.097
-0.049,-0.059,-0.01,0.054,-0.02,-0.034,0.021,-0.065,-0.021,-0.101,-0.124,-0.095
-0.068,-0.06,0.008,0.064,-0.038,-0.026,0.014,-0.07,-0.044,-0.098,-0.125,-0.095
-0.078,-0.072,0.006,0.075,-0.042,-0.033,0.008,-0.069,-0.049,-0.106,-0.125,-0.091
-0.078,-0.072,0.006,0.075,-0.041,-0.033,0.0,-0.081,-0.061,-0.125,-0.13,-0.09
-0.057,-0.086,-0.029,0.072,-0.013,-0.057,0.011,-0.092,-0.077,-0.125,-0.13,-0.09
-0.046,-0.096,-0.051,0.071,0.003,-0.073,0.022,-0.087,-0.074,-0.126,-0.131,-0.101
-0.061,-0.095,-0.034,0.078,-0.013,-0.064,0.008,-0.085,-0.076,-0.131,-0.135,-0.11
-0.059,-0.092,-0.033,0.075,-0.013,-0.062,0.003,-0.082,-0.074,-0.13,-0.137,-0.111
-0.11,-0.089,0.021,0.1,-0.065,-0.034,-0.008,-0.078,-0.075,-0.128,-0.141,-0.116
-0.109,-0.091,0.018,0.1,-0.063,-0.036,-0.018,-0.093,-0.071,-0.124,-0.143,-0.112
-0.068,-0.087,-0.019,0.078,-0.024,-0.053,-0.033,-0.102,-0.069,-0.125,-0.145,-0.11
-0.084,-0.11,-0.026,0.097,-0.028,-0.068,-0.068,-0.094,-0.071,-0.125,-0.142,-0.106
-0.13,-0.123,0.007,0.126,-0.068,-0.058,-0.018,-0.094,-0.069,-0.125,-0.132,-0.105
-0.14,-0.118,0.022,0.129,-0.081,-0.048,-0.003,-0.087,-0.094,-0.137,-0.149,-0.116
-0.092,-0.116,-0.023,0.105,-0.034,-0.069,-0.044,-0.087,-0.106,-0.14,-0.162,-0.115
-0.068,-0.11,-0.041,0.089,-0.014,-0.075,-0.003,-0.076,-0.097,-0.134,-0.152,-0.111
-0.064,-0.107,-0.043,0.086,-0.01,-0.075,0.005,-0.063,-0.095,-0.132,-0.15,-0.109
-0.074,-0.102,-0.027,0.088,-0.023,-0.064,-0.007,-0.088,-0.09,-0.127,-0.145,-0.105
-0.076,-0.098,-0.023,0.087,-0.026,-0.06,-0.01,-0.097,-0.085,-0.125,-0.14,-0.105
-0.087,-0.091,-0.005,0.089,-0.041,-0.048,-0.024,-0.093,-0.082,-0.13,-0.137,-0.105
-0.095,-0.09,0.005,0.093,-0.05,-0.042,-0.026,-0.096,-0.078,-0.13,-0.135,-0.105
-0.045,-0.082,-0.036,0.064,-0.004,-0.059,-0.099,-0.094,-0.076,-0.13,-0.136,-0.108
-0.023,-0.084,-0.061,0.054,0.019,-0.072,-0.098,-0.096,-0.073,-0.13,-0.13,-0.103
-0.035,-0.086,-0.051,0.061,0.008,-0.068,-0.002,-0.082,-0.068,-0.13,-0.13,-0.096
-0.009,-0.066,-0.058,0.038,0.025,-0.062,0.017,-0.063,-0.076,-0.13,-0.128,-0.088
-0.019,-0.078,-0.059,0.049,0.02,-0.069,0.03,-0.043,-0.057,-0.101,-0.086,-0.087
-0.059,-0.081,-0.022,0.07,-0.018,-0.051,0.018,-0.035,-0.036,-0.066,-0.08,-0.09
-0.027,-0.079,-0.052,0.053,0.012,-0.065,-0.019,-0.026,-0.042,-0.066,-0.103,-0.089
-0.018,-0.081,-0.063,0.05,0.022,-0.072,-0.028,-0.029,-0.038,-0.088,-0.099,-0.094
-0.023,-0.078,-0.054,0.051,0.016,-0.066,-0.032,-0.063,-0.049,-0.095,-0.099,-0.094
-0.033,-0.087,-0.054,0.06,0.01,-0.07,-0.034,-0.081,-0.072,-0.111,-0.107,-0.097
-0.041,-0.091,-0.05,0.066,0.004,-0.07,-0.038,-0.09,-0.092,-0.137,-0.127,-0.097
-0.058,-0.108,-0.05,0.083,-0.004,-0.079,-0.04,-0.094,-0.102,-0.145,-0.142,-0.106
-0.092,-0.115,-0.023,0.103,-0.034,-0.069,-0.04,-0.099,-0.109,-0.149,-0.142,-0.108
-0.078,-0.109,-0.031,0.094,-0.023,-0.07,-0.04,-0.109,-0.107,-0.152,-0.152,-0.117
-0.122,-0.095,0.027,0.108,-0.074,-0.034,-0.042,-0.113,-0.106,-0.148,-0.148,-0.131
-0.113,-0.122,-0.008,0.118,-0.052,-0.065,-0.035,-0.095,-0.087,-0.129,-0.151,-0.136
-0.093,-0.086,0.008,0.09,-0.05,-0.039,-0.053,-0.049,0.003,-0.081,-0.141,-0.145
-0.04,-0.019,0.021,0.03,-0.031,0.001,-0.124,-0.172,0.091,0.215,0.164,0.059
0.233,0.18,-0.053,-0.206,0.143,0.063,-0.345,-0.684,-0.131,0.644,1.07,0.831
0.481,0.534,0.053,-0.508,0.214,0.293,-0.612,-1.205,-0.571,0.873,1.817,1.718
0.35,0.439,0.088,-0.395,0.131,0.263,-0.552,-1.258,-1.009,0.277,1.019,1.336
-0.102,0.103,0.204,-0.001,-0.153,0.153,-0.274,-1.154,-1.295,-0.795,-0.29,0.173
-0.303,-0.074,0.229,0.188,-0.266,0.078,-0.14,-0.992,-1.018,-0.882,-0.564,-0.233
-0.219,-0.109,0.11,0.164,-0.164,0.0,-0.047,-0.559,-0.46,-0.435,-0.358,-0.2
-0.139,-0.053,0.086,0.096,-0.112,0.017,0.034,-0.195,-0.099,-0.2,-0.184,-0.163
-0.086,-0.05,0.035,0.068,-0.06,-0.008,0.021,-0.077,0.015,-0.086,-0.132,-0.109
-0.073,-0.053,0.02,0.063,-0.046,-0.016,0.021,-0.033,0.041,-0.081,-0.125,-0.11
-0.059,-0.045,0.014,0.052,-0.036,-0.015,0.027,-0.008,0.074,-0.048,-0.086,-0.098
-0.074,-0.035,0.039,0.054,-0.057,0.002,0.026,0.002,0.076,-0.03,-0.084,-0.09
-0.08,-0.04,0.04,0.06,-0.06,0.0,0.01,0.018,0.087,-0.015,-0.065,-0.067
-0.081,-0.048,0.033,0.064,-0.056,-0.007,-0.019,0.035,0.091,-0.004,-0.059,-0.061
-0.073,-0.043,0.03,0.058,-0.051,-0.006,-0.028,0.039,0.104,0.003,-0.05,-0.057
-0.032,-0.047,-0.014,0.04,-0.008,-0.03,-0.017,0.057,0.118,0.019,-0.044,-0.048
-0.031,-0.033,-0.002,0.032,-0.014,-0.018,-0.007,0.068,0.13,0.034,-0.037,-0.048
-0.02,-0.02,0.0,0.02,-0.01,-0.01,-0.04,0.064,0.143,0.042,-0.023,-0.022
0.002,-0.005,-0.007,0.002,0.004,-0.006,-0.07,0.084,0.169,0.065,-0.014,-0.012
-0.01,0.023,0.033,-0.007,-0.022,0.028,-0.041,0.103,0.204,0.096,0.014,-0.007
-0.015,0.021,0.036,-0.003,-0.026,0.028,-0.014,0.126,0.241,0.128,0.056,0.023
0.012,0.032,0.02,-0.022,-0.004,0.026,-0.01,0.179,0.309,0.19,0.095,0.061
0.06,0.074,0.014,-0.067,0.022,0.044,-0.006,0.225,0.376,0.245,0.141,0.102
0.064,0.1,0.036,-0.083,0.014,0.068,-0.036,0.267,0.436,0.297,0.187,0.141
0.071,0.136,0.065,-0.103,0.003,0.1,-0.064,0.316,0.507,0.375,0.254,0.203
0.107,0.166,0.059,-0.137,0.024,0.112,-0.077,0.343,0.566,0.44,0.325,0.268
0.133,0.205,0.073,-0.169,0.03,0.138,-0.134,0.364,0.595,0.479,0.366,0.313
0.165,0.252,0.087,-0.209,0.039,0.169,-0.151,0.358,0.609,0.5,0.391,0.332
0.162,0.249,0.087,-0.206,0.037,0.168,-0.112,0.307,0.574,0.477,0.385,0.322
0.158,0.236,0.078,-0.197,0.04,0.157,-0.097,0.246,0.489,0.428,0.356,0.308
0.136,0.209,0.073,-0.173,0.031,0.141,-0.088,0.173,0.399,0.347,0.306,0.271
0.07,0.149,0.079,-0.11,-0.004,0.114,-0.077,0.109,0.286,0.24,0.213,0.194
0.025,0.079,0.054,-0.052,-0.015,0.066,-0.074,0.073,0.195,0.145,0.124,0.11
-0.032,0.011,0.043,0.01,-0.038,0.027,-0.029,0.035,0.142,0.073,0.062,0.042
-0.056,-0.017,0.039,0.036,-0.047,0.01,0.042,0.007,0.093,0.023,0.009,-0.002
-0.076,-0.038,0.037,0.056,-0.056,-0.001,0.058,-0.002,0.045,-0.019,-0.031,-0.031
-0.077,-0.057,0.02,0.067,-0.048,-0.018,0.053,-0.02,0.007,-0.046,-0.058,-0.057
-0.057,-0.075,-0.018,0.066,-0.019,-0.046,0.063,-0.031,-0.003,-0.052,-0.061,-0.067
-0.117,-0.088,0.029,0.102,-0.072,-0.029,0.065,-0.03,-0.016,-0.064,-0.072,-0.069
-0.143,-0.084,0.059,0.113,-0.1,-0.012,0.058,-0.029,-0.03,-0.072,-0.088,-0.073
-0.125,-0.089,0.036,0.107,-0.08,-0.026,0.054,-0.025,-0.03,-0.069,-0.083,-0.075
-0.128,-0.09,0.038,0.109,-0.083,-0.026,0.047,-0.024,-0.03,-0.08,-0.096,-0.079
-0.105,-0.09,0.015,0.098,-0.06,-0.037,0.044,-0.027,-0.028,-0.086,-0.106,-0.086
-0.086,-0.083,0.003,0.084,-0.044,-0.039,0.031,-0.022,-0.025,-0.084,-0.104,-0.09
-0.106,-0.076,0.03,0.091,-0.068,-0.023,-0.021,-0.029,-0.025,-0.081,-0.102,-0.09
-0.078,-0.065,0.012,0.072,-0.045,-0.026,-0.033,-0.041,-0.025,-0.08,-0.099,-0.09
-0.073,-0.061,0.012,0.067,-0.043,-0.024,0.014,-0.04,-0.026,-0.079,-0.1,-0.09
-0.102,-0.057,0.046,0.079,-0.074,-0.005,0.045,-0.038,-0.025,-0.076,-0.1,-0.09
-0.106,-0.069,0.036,0.088,-0.071,-0.016,0.046,-0.035,-0.026,-0.074,-0.1,-0.09
-0.129,-0.091,0.038,0.11,-0.083,-0.027,0.041,-0.034,-0.024,-0.085,-0.1,-0.09
-0.084,-0.053,0.031,0.068,-0.057,-0.01,0.04,-0.038,-0.028,-0.097,-0.1,-0.09
-0.069,-0.063,0.006,0.066,-0.037,-0.028,0.035,-0.044,-0.044,-0.094,-0.1,-0.09
-0.108,-0.087,0.021,0.097,-0.065,-0.032,0.036,-0.05,-0.046,-0.096,-0.1,-0.09
-0.096,-0.072,0.024,0.084,-0.06,-0.024,0.045,-0.054,-0.044,-0.094,-0.1,-0.091
-0.089,-0.078,0.011,0.083,-0.05,-0.033,0.045,-0.058,-0.046,-0.096,-0.101,-0.095
-0.079,-0.068,0.012,0.073,-0.045,-0.028,0.045,-0.063,-0.044,-0.093,-0.095,-0.098
-0.06,-0.073,-0.014,0.067,-0.023,-0.043,0.042,-0.065,-0.046,-0.101,-0.1,-0.102
-0.072,-0.088,-0.016,0.08,-0.027,-0.052,0.039,-0.065,-0.063,-0.12,-0.116,-0.105
-0.088,-0.086,0.002,0.087,-0.044,-0.042,0.041,-0.069,-0.072,-0.12,-0.115,-0.105
-0.08,-0.079,0.001,0.079,-0.04,-0.039,0.021,-0.07,-0.072,-0.121,-0.114,-0.105
-0.089,-0.075,0.013,0.082,-0.051,-0.03,-0.002,-0.07,-0.076,-0.126,-0.116,-0.105
-0.096,-0.068,0.028,0.082,-0.062,-0.02,-0.009,-0.075,-0.079,-0.124,-0.113,-0.105
-0.087,-0.062,0.024,0.074,-0.055,-0.019,0.011,-0.075,-0.08,-0.128,-0.122,-0.105
-0.096,-0.077,0.018,0.086,-0.057,-0.029,0.046,-0.075,-0.081,-0.13,-0.131,-0.104
-0.087,-0.077,0.009,0.082,-0.048,-0.034,0.052,-0.075,-0.085,-0.13,-0.129,-0.1
-0.091,-0.095,-0.004,0.093,-0.043,-0.05,0.048,-0.075,-0.085,-0.133,-0.132,-0.1
-0.102,-0.114,-0.012,0.109,-0.045,-0.063,0.046,-0.073,-0.085,-0.136,-0.136,-0.098
-0.112,-0.111,0.001,0.112,-0.056,-0.055,0.045,-0.07,-0.085,-0.134,-0.135,-0.094
-0.138,-0.117,0.021,0.127,-0.079,-0.048,0.043,-0.067,-0.085,-0.131,-0.135,-0.095
-0.122,-0.119,0.003,0.12,-0.062,-0.058,0.039,-0.064,-0.085,-0.126,-0.135,-0.098
-0.097,-0.12,-0.023,0.109,-0.037,-0.071,0.041,-0.06,-0.085,-0.123,-0.135,-0.101
-0.081,-0.115,-0.035,0.099,-0.023,-0.075,0.036,-0.061,-0.084,-0.12,-0.135,-0.099
-0.076,-0.111,-0.035,0.094,-0.021,-0.073,0.034,-0.069,-0.08,-0.114,-0.135,-0.1
-0.08,-0.109,-0.029,0.094,-0.025,-0.069,0.038,-0.07,-0.08,-0.121,-0.134,-0.099
-0.076,-0.104,-0.029,0.09,-0.023,-0.066,0.04,-0.07,-0.08,-0.126,-0.13,-0.101
-0.077,-0.101,-0.024,0.089,-0.027,-0.062,0.04,-0.07,-0.08,-0.125,-0.13,-0.105
-0.072,-0.1,-0.028,0.086,-0.022,-0.064,0.039,-0.07,-0.079,-0.123,-0.128,-0.105
-0.069,-0.1,-0.031,0.085,-0.019,-0.065,0.041,-0.069,-0.089,-0.119,-0.125,-0.105
-0.071,-0.1,-0.029,0.086,-0.021,-0.064,0.039,-0.064,-0.094,-0.121,-0.126,-0.105
-0.068,-0.1,-0.032,0.084,-0.018,-0.066,0.034,-0.062,-0.086,-0.116,-0.121,-0.106
-0.081,-0.096,-0.015,0.088,-0.032,-0.055,-0.02,-0.057,-0.083,-0.111,-0.116,-0.101
-0.081,-0.094,-0.013,0.088,-0.034,-0.053,-0.023,-0.056,-0.075,-0.107,-0.112,-0.092
-0.045,-0.09,-0.045,0.068,0.0,-0.067,0.059,-0.043,-0.073,-0.102,-0.107,-0.086
-0.045,-0.088,-0.043,0.067,-0.001,-0.065,0.069,-0.022,-0.055,-0.098,-0.104,-0.078
-0.047,-0.079,-0.032,0.063,-0.007,-0.055,0.099,0.006,-0.016,-0.075,-0.088,-0.075
-0.005,-0.07,-0.065,0.038,0.03,-0.068,0.111,0.028,-0.003,-0.062,-0.077,-0.075
0.013,-0.066,-0.079,0.027,0.046,-0.073,0.052,0.014,-0.016,-0.072,-0.082,-0.075
0.005,-0.061,-0.066,0.029,0.036,-0.064,0.025,-0.016,-0.042,-0.074,-0.079,-0.075
-0.019,-0.081,-0.062,0.05,0.022,-0.071,0.019,-0.043,-0.064,-0.089,-0.097,-0.075
-0.039,-0.089,-0.05,0.064,0.005,-0.069,0.004,-0.056,-0.089,-0.114,-0.115,-0.082
-0.048,-0.112,-0.063,0.08,0.008,-0.088,-0.015,-0.064,-0.099,-0.127,-0.124,-0.096
-0.063,-0.113,-0.05,0.088,-0.006,-0.081,0.034,-0.076,-0.104,-0.138,-0.131,-0.103
-0.071,-0.111,-0.04,0.091,-0.015,-0.075,0.061,-0.079,-0.105,-0.134,-0.127,-0.104
-0.074,-0.107,-0.033,0.091,-0.02,-0.069,0.042,-0.072,-0.096,-0.136,-0.119,-0.108
-0.063,-0.099,-0.036,0.082,-0.013,-0.067,0.022,-0.08,-0.104,-0.136,-0.106,-0.101
-0.079,-0.109,-0.029,0.094,-0.025,-0.069,0.051,-0.055,-0.04,-0.108,-0.112,-0.132
-0.056,-0.032,0.024,0.044,-0.04,-0.004,0.047,-0.088,0.066,0.093,0.017,-0.057
0.144,0.083,-0.061,-0.113,0.102,0.011,-0.163,-0.473,-0.011,0.494,0.694,0.51
0.437,0.424,-0.013,-0.431,0.225,0.205,-0.524,-1.09,-0.382,0.827,1.661,1.497
0.451,0.535,0.084,-0.493,0.183,0.309,-0.607,-1.342,-0.927,0.525,1.393,1.642
0.056,0.18,0.124,-0.118,-0.035,0.152,-0.287,-1.254,-1.344,-0.54,0.037,0.553
-0.271,-0.039,0.232,0.154,-0.251,0.096,-0.11,-1.137,-1.21,-0.99,-0.565,-0.188
-0.245,-0.117,0.128,0.181,-0.186,0.005,-0.04,-0.721,-0.641,-0.559,-0.418,-0.208
-0.145,-0.098,0.047,0.121,-0.095,-0.025,0.034,-0.247,-0.189,-0.245,-0.242,-0.149
-0.115,-0.072,0.043,0.094,-0.079,-0.014,0.057,-0.081,-0.021,-0.113,-0.148,-0.111
-0.071,-0.089,-0.018,0.08,-0.026,-0.053,0.109,-0.004,0.028,-0.081,-0.124,-0.124
-0.056,-0.034,0.022,0.045,-0.039,-0.006,0.075,0.046,0.072,-0.07,-0.118,-0.117
-0.064,-0.02,0.043,0.042,-0.054,0.011,0.024,0.041,0.067,-0.048,-0.108,-0.095
-0.062,-0.051,0.011,0.056,-0.037,-0.019,0.019,0.046,0.064,-0.025,-0.078,-0.076
-0.059,-0.05,0.009,0.054,-0.034,-0.02,0.054,0.077,0.085,-0.009,-0.075,-0.066
-0.044,-0.051,-0.007,0.048,-0.018,-0.029,0.056,0.087,0.097,-0.002,-0.069,-0.061
-0.061,-0.057,0.003,0.059,-0.031,-0.027,0.024,0.098,0.109,0.017,-0.056,-0.051
-0.06,-0.052,0.009,0.056,-0.034,-0.021,0.011,0.113,0.114,0.027,-0.047,-0.047
-0.026,-0.051,-0.025,0.039,-0.001,-0.038,0.024,0.122,0.138,0.055,-0.031,-0.04
-0.016,-0.045,-0.029,0.03,0.007,-0.036,0.061,0.143,0.161,0.073,-0.016,-0.029
-0.038,-0.037,0.001,0.037,-0.019,-0.018,0.053,0.159,0.18,0.096,0.002,-0.008
-0.008,-0.029,-0.021,0.019,0.006,-0.025,0.056,0.191,0.218,0.126,0.033,0.022
0.063,0.007,-0.057,-0.035,0.06,-0.025,0.048,0.228,0.265,0.159,0.058,0.045
0.083,0.035,-0.048,-0.059,0.066,-0.006,-0.006,0.27,0.332,0.215,0.095,0.072
0.094,0.067,-0.027,-0.08,0.06,0.02,-0.042,0.333,0.404,0.283,0.153,0.118
0.111,0.108,-0.002,-0.109,0.056,0.053,-0.065,0.372,0.462,0.343,0.206,0.163
0.165,0.156,-0.009,-0.16,0.087,0.073,-0.077,0.408,0.526,0.403,0.265,0.217
0.18,0.19,0.009,-0.185,0.085,0.099,-0.06,0.428,0.58,0.458,0.328,0.275
0.149,0.193,0.045,-0.171,0.052,0.118,-0.076,0.413,0.599,0.486,0.368,0.316
0.168,0.221,0.053,-0.195,0.057,0.137,-0.125,0.399,0.583,0.489,0.376,0.33
0.16,0.215,0.055,-0.188,0.052,0.135,-0.143,0.347,0.51,0.45,0.353,0.314
0.114,0.172,0.057,-0.144,0.028,0.115,-0.126,0.273,0.426,0.381,0.305,0.276
0.088,0.129,0.04,-0.109,0.024,0.085,-0.072,0.202,0.332,0.289,0.236,0.218
0.055,0.081,0.026,-0.068,0.014,0.054,-0.021,0.138,0.222,0.179,0.156,0.137
0.003,0.031,0.028,-0.017,-0.013,0.029,0.003,0.098,0.143,0.096,0.078,0.061
-0.039,-0.027,0.012,0.033,-0.026,-0.007,0.017,0.073,0.08,0.042,0.017,0.009
-0.033,-0.052,-0.019,0.043,-0.007,-0.035,0.021,0.061,0.033,-0.003,-0.025,-0.031
-0.022,-0.061,-0.039,0.042,0.009,-0.05,0.015,0.06,0.014,-0.033,-0.056,-0.046
-0.055,-0.081,-0.027,0.068,-0.014,-0.054,-0.003,0.06,0.007,-0.044,-0.07,-0.044
-0.053,-0.083,-0.03,0.068,-0.011,-0.056,0.014,0.055,0.001,-0.052,-0.073,-0.059
-0.071,-0.088,-0.017,0.08,-0.027,-0.052,0.059,0.047,-0.006,-0.066,-0.076,-0.067
-0.063,-0.088,-0.025,0.076,-0.019,-0.056,0.073,0.041,-0.014,-0.065,-0.075,-0.064
-0.035,-0.087,-0.052,0.062,0.009,-0.07,0.087,0.033,-0.012,-0.066,-0.073,-0.065
-0.07,-0.078,-0.008,0.073,-0.031,-0.043,0.073,0.025,-0.017,-0.071,-0.085,-0.065
-0.035,-0.055,-0.02,0.045,-0.008,-0.037,0.073,0.021,-0.027,-0.069,-0.097,-0.064
-0.022,-0.068,-0.046,0.046,0.012,-0.057,0.083,0.03,-0.023,-0.073,-0.094,-0.068
-0.049,-0.072,-0.023,0.061,-0.013,-0.048,0.062,0.036,-0.02,-0.075,-0.095,-0.077
-0.034,-0.067,-0.033,0.051,0.0,-0.05,0.046,0.034,-0.018,-0.075,-0.095,-0.076
-0.018,-0.067,-0.048,0.043,0.016,-0.057,0.031,0.035,-0.014,-0.076,-0.095,-0.075
-0.019,-0.064,-0.045,0.042,0.014,-0.054,0.064,0.035,-0.018,-0.075,-0.098,-0.075
-0.026,-0.064,-0.039,0.045,0.007,-0.051,0.083,0.035,-0.026,-0.076,-0.101,-0.075
-0.033,-0.068,-0.036,0.051,0.002,-0.052,0.07,0.032,-0.032,-0.074,-0.104,-0.075
-0.042,-0.071,-0.03,0.057,-0.006,-0.051,0.067,0.026,-0.04,-0.076,-0.107,-0.073
-0.032,-0.069,-0.036,0.051,0.002,-0.052,0.061,0.022,-0.044,-0.075,-0.109,-0.069
-0.023,-0.071,-0.048,0.048,0.012,-0.059,0.053,0.017,-0.047,-0.074,-0.112,-0.07
-0.027,-0.068,-0.041,0.048,0.007,-0.054,0.038,0.013,-0.049,-0.082,-0.115,-0.07
-0.028,-0.076,-0.048,0.052,0.01,-0.062,0.026,0.008,-0.054,-0.08,-0.115,-0.07
-0.021,-0.09,-0.069,0.056,0.024,-0.08,0.016,0.003,-0.066,-0.093,-0.115,-0.081
-0.024,-0.09,-0.066,0.058,0.021,-0.078,0.015,-0.003,-0.064,-0.101,-0.114,-0.085
-0.031,-0.089,-0.059,0.06,0.014,-0.074,0.002,-0.008,-0.066,-0.101,-0.117,-0.086
-0.032,-0.091,-0.059,0.062,0.013,-0.074,0.008,-0.014,-0.062,-0.097,-0.108,-0.082
-0.04,-0.089,-0.049,0.065,0.004,-0.069,-0.024,-0.019,-0.068,-0.106,-0.115,-0.087
-0.038,-0.088,-0.05,0.063,0.006,-0.069,-0.013,-0.016,-0.086,-0.13,-0.134,-0.105
-0.036,-0.077,-0.042,0.057,0.003,-0.059,0.068,-0.009,-0.08,-0.123,-0.121,-0.098
-0.026,-0.067,-0.04,0.046,0.007,-0.053,0.05,-0.002,-0.075,-0.116,-0.117,-0.092
-0.039,-0.095,-0.055,0.067,0.008,-0.075,0.033,0.004,-0.072,-0.116,-0.121,-0.09
-0.073,-0.108,-0.035,0.091,-0.018,-0.072,0.031,0.012,-0.065,-0.114,-0.119,-0.086
-0.057,-0.103,-0.047,0.08,-0.004,-0.075,0.064,0.014,-0.067,-0.112,-0.121,-0.085
-0.038,-0.103,-0.065,0.07,0.014,-0.084,0.081,0.009,-0.071,-0.109,-0.119,-0.08
-0.041,-0.098,-0.057,0.069,0.008,-0.078,0.047,0.003,-0.069,-0.111,-0.121,-0.08
-0.04,-0.102,-0.062,0.071,0.011,-0.082,0.034,0.0,-0.071,-0.11,-0.124,-0.084
-0.019,-0.078,-0.059,0.048,0.02,-0.068,-0.001,-0.005,-0.069,-0.11,-0.125,-0.085
-0.008,-0.069,-0.061,0.039,0.026,-0.064,0.046,-0.01,-0.073,-0.11,-0.125,-0.085
-0.023,-0.088,-0.065,0.056,0.021,-0.076,0.061,-0.007,-0.088,-0.11,-0.125,-0.085
-0.019,-0.084,-0.065,0.052,0.023,-0.074,0.044,-0.004,-0.086,-0.109,-0.124,-0.085
-0.02,-0.085,-0.065,0.053,0.023,-0.075,0.09,-0.001,-0.079,-0.113,-0.128,-0.085
-0.021,-0.086,-0.065,0.054,0.023,-0.075,0.085,0.002,-0.076,-0.115,-0.13,-0.085
-0.019,-0.084,-0.065,0.052,0.023,-0.074,0.079,0.005,-0.066,-0.115,-0.131,-0.081
-0.035,-0.099,-0.064,0.068,0.014,-0.081,0.075,0.007,-0.07,-0.118,-0.13,-0.081
-0.04,-0.091,-0.051,0.066,0.006,-0.071,0.075,0.01,-0.08,-0.121,-0.131,-0.079
-0.037,-0.088,-0.051,0.063,0.007,-0.069,0.076,0.012,-0.073,-0.119,-0.129,-0.074
-0.042,-0.086,-0.044,0.065,0.001,-0.065,0.048,0.007,-0.068,-0.114,-0.125,-0.076
-0.005,-0.062,-0.057,0.034,0.026,-0.059,0.009,0.031,-0.058,-0.098,-0.113,-0.072
0.032,-0.062,-0.094,0.016,0.063,-0.078,0.022,0.064,-0.021,-0.066,-0.086,-0.07
0.059,-0.038,-0.097,-0.01,0.079,-0.067,0.074,0.081,-0.002,-0.058,-0.078,-0.066
0.071,-0.028,-0.099,-0.022,0.085,-0.063,0.063,0.086,-0.007,-0.06,-0.086,-0.065
0.034,-0.069,-0.103,0.018,0.069,-0.085,0.043,0.055,-0.03,-0.065,-0.087,-0.06
0.024,-0.082,-0.106,0.029,0.065,-0.093,0.042,0.016,-0.062,-0.089,-0.095,-0.06
0.009,-0.092,-0.101,0.042,0.056,-0.096,0.039,0.003,-0.076,-0.113,-0.109,-0.071
-0.015,-0.111,-0.096,0.063,0.041,-0.103,0.04,0.005,-0.078,-0.121,-0.125,-0.08
-0.026,-0.109,-0.083,0.068,0.028,-0.096,0.045,0.005,-0.087,-0.122,-0.124,-0.092
-0.038,-0.12,-0.082,0.079,0.022,-0.1,0.044,-0.002,-0.117,-0.133,-0.138,-0.089
-0.032,-0.099,-0.067,0.066,0.017,-0.083,0.045,-0.019,-0.125,-0.138,-0.15,-0.089
-0.029,-0.097,-0.068,0.064,0.02,-0.082,0.034,-0.033,-0.127,-0.12,-0.136,-0.084
-0.063,-0.112,-0.049,0.088,-0.007,-0.08,0.06,0.021,-0.077,-0.121,-0.154,-0.11
-0.034,-0.038,-0.004,0.036,-0.015,-0.021,0.036,0.018,0.052,0.03,-0.042,-0.081
0.105,0.036,-0.069,-0.07,0.087,-0.017,-0.188,-0.31,0.036,0.409,0.499,0.36
0.4,0.36,-0.04,-0.38,0.219,0.16,-0.467,-0.921,-0.254,0.77,1.461,1.32
0.576,0.581,0.006,-0.579,0.285,0.293,-0.549,-1.29,-0.788,0.629,1.515,1.725
0.206,0.288,0.082,-0.247,0.062,0.185,-0.317,-1.239,-1.297,-0.357,0.254,0.791
-0.203,-0.003,0.2,0.103,-0.202,0.098,-0.103,-1.143,-1.285,-1.004,-0.538,-0.101
-0.257,-0.131,0.126,0.194,-0.191,-0.002,0.016,-0.79,-0.771,-0.661,-0.472,-0.209
-0.157,-0.107,0.05,0.131,-0.103,-0.028,0.134,-0.264,-0.251,-0.277,-0.268,-0.15
-0.079,-0.056,0.023,0.067,-0.051,-0.017,0.122,-0.049,-0.03,-0.12,-0.153,-0.103
-0.04,-0.055,-0.015,0.047,-0.012,-0.035,0.107,0.036,0.022,-0.066,-0.135,-0.091
0.006,-0.038,-0.045,0.016,0.026,-0.041,0.099,0.074,0.065,-0.041,-0.104,-0.083
0.008,-0.038,-0.047,0.015,0.028,-0.042,0.088,0.083,0.073,-0.019,-0.091,-0.073
0.015,-0.028,-0.043,0.007,0.029,-0.036,0.084,0.11,0.082,-0.015,-0.078,-0.068
0.025,-0.021,-0.046,-0.001,0.036,-0.033,0.072,0.108,0.092,-0.001,-0.068,-0.057
0.02,-0.025,-0.045,0.003,0.033,-0.035,0.064,0.125,0.099,0.007,-0.063,-0.052
0.006,-0.036,-0.041,0.015,0.024,-0.038,0.001,0.146,0.108,0.016,-0.051,-0.04
0.012,-0.03,-0.042,0.009,0.027,-0.036,0.021,0.152,0.118,0.026,-0.048,-0.034
0.01,-0.027,-0.036,0.008,0.023,-0.032,0.097,0.147,0.135,0.059,-0.032,-0.023
0.012,-0.034,-0.046,0.011,0.029,-0.04,0.082,0.166,0.155,0.08,-0.016,-0.01
0.036,-0.012,-0.048,-0.011,0.042,-0.03,0.044,0.191,0.186,0.094,-0.004,0.006
0.05,0.018,-0.032,-0.034,0.041,-0.007,0.007,0.21,0.215,0.122,0.025,0.028
0.071,0.038,-0.033,-0.054,0.052,0.002,0.011,0.249,0.264,0.159,0.061,0.045
0.072,0.079,0.007,-0.076,0.032,0.043,0.05,0.29,0.323,0.209,0.098,0.077
0.084,0.104,0.02,-0.094,0.032,0.062,0.052,0.342,0.385,0.27,0.142,0.122
0.115,0.115,0.0,-0.115,0.057,0.057,0.023,0.397,0.456,0.337,0.2,0.172
0.162,0.161,-0.001,-0.161,0.081,0.08,-0.004,0.438,0.511,0.398,0.251,0.229
0.213,0.212,-0.001,-0.213,0.106,0.105,-0.051,0.458,0.556,0.451,0.298,0.282
0.218,0.224,0.006,-0.221,0.106,0.115,-0.12,0.46,0.591,0.491,0.334,0.325
0.22,0.24,0.021,-0.23,0.099,0.13,-0.099,0.444,0.582,0.498,0.342,0.33
0.235,0.249,0.014,-0.243,0.11,0.131,-0.064,0.395,0.522,0.458,0.335,0.32
0.192,0.216,0.024,-0.204,0.083,0.12,-0.072,0.326,0.437,0.388,0.296,0.308
0.158,0.185,0.027,-0.171,0.065,0.106,-0.07,0.252,0.353,0.303,0.226,0.241
0.123,0.118,-0.006,-0.12,0.064,0.056,-0.067,0.183,0.258,0.198,0.131,0.145
0.055,0.052,-0.003,-0.053,0.029,0.024,-0.038,0.134,0.168,0.111,0.061,0.079
0.046,0.018,-0.028,-0.032,0.036,-0.005,0.014,0.102,0.102,0.061,0.012,0.032
0.007,-0.049,-0.056,0.021,0.032,-0.052,0.082,0.091,0.048,0.018,-0.043,-0.012
-0.024,-0.08,-0.056,0.052,0.016,-0.067,0.105,0.079,0.022,-0.013,-0.075,-0.038
-0.015,-0.068,-0.053,0.042,0.019,-0.061,0.096,0.062,0.019,-0.04,-0.085,-0.045
-0.027,-0.069,-0.041,0.048,0.007,-0.055,0.097,0.059,0.013,-0.056,-0.09,-0.044
-0.023,-0.063,-0.04,0.043,0.009,-0.051,0.094,0.05,0.007,-0.057,-0.09,-0.056
-0.03,-0.059,-0.029,0.045,-0.001,-0.044,0.092,0.045,-0.001,-0.06,-0.089,-0.075
-0.049,-0.075,-0.027,0.062,-0.011,-0.051,0.085,0.036,-0.012,-0.064,-0.099,-0.075
-0.043,-0.079,-0.036,0.061,-0.003,-0.057,0.08,0.04,-0.016,-0.066,-0.099,-0.075
-0.025,-0.071,-0.045,0.048,0.01,-0.058,0.075,0.051,-0.026,-0.076,-0.111,-0.075
-0.034,-0.092,-0.058,0.063,0.012,-0.074,0.066,0.05,-0.036,-0.086,-0.126,-0.075
-0.04,-0.066,-0.026,0.053,-0.006,-0.046,0.069,0.049,-0.03,-0.08,-0.116,-0.073
-0.02,-0.039,-0.019,0.03,0.0,-0.029,0.077,0.045,-0.026,-0.075,-0.111,-0.069
-0.022,-0.061,-0.038,0.042,0.008,-0.049,0.058,0.045,-0.022,-0.072,-0.104,-0.067
-0.017,-0.06,-0.043,0.039,0.013,-0.052,0.047,0.043,-0.016,-0.065,-0.098,-0.064
-0.008,-0.06,-0.051,0.034,0.022,-0.055,0.048,0.039,-0.018,-0.072,-0.092,-0.061
-0.011,-0.06,-0.05,0.035,0.02,-0.055,0.03,0.037,-0.026,-0.081,-0.089,-0.059
-0.011,-0.06,-0.049,0.036,0.019,-0.055,0.002,0.034,-0.034,-0.08,-0.101,-0.072
-0.007,-0.058,-0.051,0.033,0.022,-0.055,0.004,0.031,-0.035,-0.08,-0.106,-0.086
-0.02,-0.066,-0.046,0.044,0.013,-0.056,0.056,0.029,-0.036,-0.081,-0.105,-0.085
-0.041,-0.083,-0.043,0.062,0.001,-0.063,0.075,0.026,-0.033,-0.078,-0.105,-0.085
-0.034,-0.09,-0.056,0.062,0.011,-0.072,0.059,0.021,-0.042,-0.088,-0.112,-0.085
-0.012,-0.065,-0.053,0.039,0.02,-0.059,0.056,0.019,-0.06,-0.105,-0.12,-0.084
-0.005,-0.05,-0.045,0.027,0.02,-0.047,0.041,0.014,-0.063,-0.105,-0.12,-0.087
-0.033,-0.065,-0.033,0.049,0.0,-0.049,0.04,0.011,-0.065,-0.105,-0.12,-0.09
-0.033,-0.076,-0.042,0.055,0.004,-0.059,0.017,0.007,-0.071,-0.105,-0.119,-0.09
-0.034,-0.084,-0.051,0.059,0.009,-0.067,0.02,0.005,-0.067,-0.105,-0.133,-0.09
-0.051,-0.08,-0.029,0.065,-0.011,-0.054,0.072,0.004,-0.066,-0.107,-0.142,-0.09
-0.04,-0.072,-0.032,0.056,-0.004,-0.052,0.078,0.007,-0.064,-0.112,-0.136,-0.09
-0.026,-0.069,-0.043,0.048,0.009,-0.056,0.07,0.023,-0.068,-0.115,-0.135,-0.095
-0.024,-0.06,-0.036,0.042,0.006,-0.048,0.072,0.023,-0.084,-0.11,-0.131,-0.095
-0.019,-0.061,-0.042,0.04,0.012,-0.051,0.066,0.015,-0.082,-0.11,-0.13,-0.096
-0.033,-0.078,-0.045,0.055,0.006,-0.061,0.026,0.012,-0.075,-0.11,-0.127,-0.1
-0.05,-0.081,-0.031,0.066,-0.01,-0.056,-0.004,0.004,-0.073,-0.11,-0.124,-0.1
-0.029,-0.075,-0.046,0.052,0.009,-0.06,0.008,0.001,-0.066,-0.11,-0.126,-0.098
-0.026,-0.074,-0.048,0.05,0.011,-0.061,0.039,0.004,-0.066,-0.11,-0.124,-0.095
-0.036,-0.071,-0.035,0.053,-0.001,-0.052,0.059,0.005,-0.071,-0.11,-0.125,-0.095
-0.033,-0.066,-0.033,0.05,0.0,-0.049,0.048,0.006,-0.075,-0.11,-0.124,-0.095
-0.056,-0.078,-0.022,0.067,-0.016,-0.05,0.042,0.01,-0.075,-0.11,-0.119,-0.095
-0.063,-0.086,-0.023,0.075,-0.019,-0.054,0.052,0.01,-0.075,-0.11,-0.121,-0.095
-0.029,-0.078,-0.049,0.054,0.01,-0.063,0.049,0.01,-0.075,-0.11,-0.117,-0.094
-0.019,-0.078,-0.06,0.049,0.021,-0.069,0.023,0.01,-0.075,-0.11,-0.115,-0.096
-0.016,-0.07,-0.055,0.044,0.02,-0.062,-0.012,0.01,-0.075,-0.11,-0.115,-0.094
-0.022,-0.071,-0.049,0.047,0.014,-0.06,-0.024,0.01,-0.075,-0.11,-0.115,-0.095
-0.028,-0.082,-0.054,0.055,0.013,-0.067,0.011,0.01,-0.075,-0.11,-0.115,-0.095
-0.037,-0.095,-0.058,0.067,0.01,-0.076,0.035,0.01,-0.074,-0.11,-0.114,-0.093
-0.025,-0.083,-0.058,0.054,0.016,-0.07,-0.009,0.005,-0.076,-0.111,-0.116,-0.09
-0.017,-0.074,-0.057,0.046,0.02,-0.066,-0.045,0.0,-0.071,-0.107,-0.111,-0.089
-0.11,-0.099,0.011,0.104,-0.06,-0.044,0.007,-0.004,-0.084,-0.124,-0.127,-0.117
-0.09,-0.083,0.007,0.087,-0.048,-0.038,0.055,-0.009,-0.093,-0.133,-0.138,-0.128
-0.035,-0.087,-0.053,0.061,0.009,-0.07,0.057,-0.014,-0.083,-0.121,-0.126,-0.113
-0.053,-0.1,-0.047,0.077,-0.003,-0.073,0.066,-0.013,-0.078,-0.114,-0.118,-0.105
-0.041,-0.086,-0.045,0.064,0.002,-0.065,0.047,-0.003,-0.07,-0.105,-0.111,-0.096
-0.041,-0.082,-0.041,0.062,0.0,-0.062,0.022,0.004,-0.065,-0.101,-0.108,-0.095
-0.046,-0.08,-0.033,0.063,-0.007,-0.056,0.011,0.013,-0.059,-0.093,-0.104,-0.092
-0.057,-0.078,-0.021,0.068,-0.018,-0.049,-0.003,0.02,-0.055,-0.091,-0.101,-0.088
-0.034,-0.075,-0.041,0.055,0.004,-0.058,-0.011,0.015,-0.046,-0.079,-0.095,-0.086
-0.013,-0.074,-0.061,0.044,0.025,-0.067,-0.012,0.025,-0.05,-0.088,-0.096,-0.083
-0.026,-0.065,-0.04,0.046,0.007,-0.053,0.0,0.054,-0.05,-0.089,-0.083,-0.08
-0.01,-0.057,-0.047,0.034,0.019,-0.052,-0.004,0.08,-0.012,-0.053,-0.063,-0.08
0.037,-0.047,-0.084,0.005,0.061,-0.066,0.029,0.11,0.011,-0.042,-0.059,-0.077
0.041,-0.045,-0.086,0.002,0.064,-0.065,0.068,0.096,-0.002,-0.045,-0.062,-0.075
0.03,-0.044,-0.073,0.007,0.052,-0.058,0.04,0.037,-0.048,-0.078,-0.097,-0.075
0.016,-0.048,-0.064,0.016,0.04,-0.056,0.042,0.009,-0.067,-0.097,-0.103,-0.074
-0.023,-0.079,-0.056,0.051,0.017,-0.067,0.034,-0.014,-0.089,-0.113,-0.109,-0.088
-0.032,-0.091,-0.059,0.061,0.014,-0.075,0.044,-0.019,-0.107,-0.135,-0.137,-0.111
-0.007,-0.067,-0.06,0.037,0.027,-0.064,0.061,-0.027,-0.095,-0.125,-0.124,-0.115
-0.013,-0.074,-0.061,0.044,0.024,-0.067,0.05,-0.042,-0.095,-0.126,-0.135,-0.123
-0.046,-0.077,-0.031,0.062,-0.007,-0.054,0.047,-0.032,-0.083,-0.121,-0.122,-0.112
-0.058,-0.092,-0.034,0.075,-0.012,-0.063,0.004,-0.03,-0.088,-0.121,-0.124,-0.102
-0.102,-0.06,0.042,0.081,-0.072,-0.009,0.054,0.022,-0.03,-0.098,-0.138,-0.152
-0.02,0.005,0.024,0.007,-0.022,0.014,0.04,-0.056,0.067,0.142,0.075,-0.018
0.21,0.139,-0.071,-0.174,0.14,0.034,-0.227,-0.527,-0.036,0.533,0.815,0.643
0.513,0.519,0.006,-0.517,0.253,0.263,-0.563,-1.12,-0.399,0.798,1.626,1.585
0.518,0.533,0.015,-0.526,0.251,0.273,-0.546,-1.299,-0.975,0.334,1.108,1.485
0.025,0.179,0.155,-0.102,-0.065,0.167,-0.269,-1.239,-1.38,-0.699,-0.162,0.355
-0.268,-0.02,0.248,0.144,-0.258,0.114,-0.185,-1.092,-1.13,-0.923,-0.578,-0.22
-0.224,-0.087,0.136,0.156,-0.18,0.024,-0.033,-0.591,-0.55,-0.477,-0.39,-0.208
-0.116,-0.038,0.078,0.077,-0.097,0.019,0.112,-0.147,-0.147,-0.205,-0.204,-0.155
-0.061,-0.025,0.037,0.043,-0.049,0.006,0.092,-0.01,-0.01,-0.084,-0.123,-0.116
-0.073,-0.02,0.053,0.047,-0.063,0.016,0.105,0.051,0.014,-0.056,-0.098,-0.112
-0.029,-0.008,0.021,0.018,-0.025,0.007,0.102,0.091,0.051,-0.031,-0.079,-0.098
0.005,-0.004,-0.009,0.0,0.007,-0.007,0.106,0.109,0.053,-0.016,-0.078,-0.096
-0.012,-0.004,0.008,0.008,-0.01,0.002,0.103,0.122,0.065,-0.004,-0.071,-0.086
-0.017,-0.02,-0.003,0.019,-0.007,-0.011,0.077,0.133,0.077,0.008,-0.068,-0.078
-0.03,-0.011,0.019,0.02,-0.024,0.004,0.053,0.135,0.074,0.01,-0.063,-0.07
-0.044,-0.009,0.035,0.026,-0.039,0.013,0.035,0.146,0.087,0.018,-0.048,-0.06
-0.005,0.001,0.006,0.002,-0.005,0.003,0.022,0.159,0.101,0.029,-0.033,-0.05
0.028,0.0,-0.028,-0.014,0.028,-0.014,0.0,0.168,0.119,0.055,-0.017,-0.034
0.05,0.029,-0.021,-0.039,0.035,0.004,0.004,0.183,0.135,0.068,-0.006,-0.02
0.083,0.067,-0.016,-0.075,0.049,0.026,0.046,0.209,0.166,0.096,0.021,0.004
0.078,0.063,-0.015,-0.07,0.046,0.024,0.064,0.242,0.2,0.13,0.044,0.027
0.071,0.069,-0.002,-0.07,0.036,0.033,0.051,0.279,0.253,0.167,0.071,0.048
0.108,0.089,-0.019,-0.098,0.063,0.035,0.026,0.336,0.32,0.231,0.115,0.085
0.103,0.136,0.033,-0.12,0.035,0.084,-0.034,0.375,0.375,0.278,0.14,0.113
0.086,0.169,0.084,-0.128,0.001,0.126,-0.081,0.422,0.441,0.339,0.199,0.163
0.128,0.194,0.066,-0.161,0.031,0.13,-0.093,0.47,0.502,0.409,0.277,0.225
0.166,0.238,0.072,-0.202,0.047,0.155,-0.095,0.463,0.545,0.461,0.328,0.278
0.187,0.257,0.07,-0.222,0.058,0.163,-0.096,0.452,0.549,0.476,0.363,0.311
0.173,0.243,0.07,-0.208,0.051,0.156,-0.089,0.445,0.537,0.461,0.376,0.301
0.153,0.224,0.071,-0.188,0.041,0.147,-0.092,0.391,0.502,0.446,0.36,0.299
0.131,0.199,0.068,-0.165,0.031,0.133,-0.084,0.317,0.411,0.371,0.299,0.269
0.095,0.149,0.054,-0.122,0.02,0.101,-0.029,0.257,0.309,0.278,0.224,0.198
0.068,0.102,0.033,-0.085,0.017,0.067,-0.002,0.202,0.204,0.193,0.148,0.124
0.05,0.059,0.009,-0.055,0.02,0.034,0.003,0.154,0.128,0.108,0.074,0.053
0.041,0.03,-0.011,-0.036,0.026,0.01,0.015,0.119,0.069,0.05,0.017,0.001
-0.017,-0.004,0.013,0.01,-0.015,0.004,0.045,0.101,0.016,0.002,-0.018,-0.028
-0.052,-0.054,-0.002,0.053,-0.025,-0.028,0.071,0.088,-0.001,-0.019,-0.038,-0.046
-0.048,-0.067,-0.018,0.058,-0.015,-0.042,0.059,0.079,-0.008,-0.029,-0.054,-0.066
-0.063,-0.064,-0.001,0.063,-0.031,-0.032,0.052,0.077,-0.017,-0.032,-0.055,-0.07
-0.059,-0.067,-0.008,0.063,-0.025,-0.037,0.043,0.073,-0.028,-0.032,-0.056,-0.069
-0.056,-0.063,-0.007,0.059,-0.024,-0.035,0.033,0.07,-0.036,-0.042,-0.066,-0.071
-0.046,-0.068,-0.022,0.058,-0.012,-0.045,0.026,0.065,-0.035,-0.038,-0.064,-0.069
-0.049,-0.051,-0.002,0.05,-0.023,-0.027,0.013,0.065,-0.035,-0.035,-0.067,-0.07
-0.057,-0.032,0.024,0.044,-0.04,-0.004,0.024,0.065,-0.035,-0.034,-0.078,-0.069
-0.06,-0.049,0.011,0.055,-0.036,-0.019,0.065,0.065,-0.034,-0.027,-0.08,-0.073
-0.06,-0.052,0.008,0.056,-0.034,-0.022,0.085,0.065,-0.037,-0.042,-0.082,-0.075
-0.039,-0.036,0.004,0.037,-0.021,-0.016,0.039,0.065,-0.04,-0.056,-0.085,-0.075
-0.033,-0.044,-0.012,0.039,-0.01,-0.028,0.011,0.064,-0.041,-0.055,-0.086,-0.075
-0.009,-0.048,-0.039,0.029,0.015,-0.044,0.051,0.061,-0.045,-0.06,-0.09,-0.075
-0.009,-0.04,-0.03,0.025,0.011,-0.035,0.067,0.058,-0.045,-0.06,-0.093,-0.075
-0.04,-0.054,-0.015,0.047,-0.012,-0.034,0.056,0.055,-0.048,-0.064,-0.095,-0.078
-0.036,-0.051,-0.015,0.044,-0.011,-0.033,0.052,0.052,-0.053,-0.065,-0.099,-0.083
-0.057,-0.044,0.013,0.051,-0.035,-0.016,0.043,0.05,-0.056,-0.067,-0.1,-0.085
-0.068,-0.043,0.026,0.055,-0.047,-0.008,0.039,0.047,-0.06,-0.07,-0.096,-0.085
-0.051,-0.035,0.016,0.043,-0.034,-0.009,0.026,0.045,-0.061,-0.071,-0.095,-0.085
-0.037,-0.038,-0.001,0.037,-0.017,-0.02,-0.006,0.045,-0.074,-0.08,-0.095,-0.085
-0.052,-0.046,0.006,0.049,-0.029,-0.02,-0.034,0.045,-0.081,-0.08,-0.095,-0.085
-0.071,-0.047,0.024,0.059,-0.047,-0.011,0.016,0.045,-0.079,-0.081,-0.095,-0.085
-0.041,-0.042,0.0,0.042,-0.02,-0.021,0.083,0.045,-0.081,-0.086,-0.096,-0.089
-0.047,-0.056,-0.01,0.052,-0.018,-0.033,0.08,0.04,-0.078,-0.084,-0.1,-0.09
-0.036,-0.047,-0.011,0.042,-0.012,-0.029,0.075,0.036,-0.092,-0.088,-0.103,-0.09
-0.023,-0.03,-0.006,0.027,-0.008,-0.018,0.067,0.034,-0.102,-0.09,-0.107,-0.095
-0.05,-0.033,0.017,0.041,-0.033,-0.008,0.059,0.029,-0.099,-0.091,-0.11,-0.095
-0.029,-0.029,0.0,0.028,-0.014,-0.014,0.052,0.026,-0.101,-0.089,-0.106,-0.095
-0.027,-0.018,0.01,0.023,-0.018,-0.004,0.056,0.022,-0.1,-0.092,-0.105,-0.095
-0.064,-0.021,0.044,0.042,-0.054,0.011,0.086,0.02,-0.1,-0.105,-0.105,-0.095
-0.057,-0.045,0.012,0.05,-0.034,-0.016,0.097,0.02,-0.096,-0.102,-0.1,-0.095
-0.04,-0.046,-0.006,0.044,-0.017,-0.026,0.094,0.02,-0.095,-0.096,-0.1,-0.095
-0.048,-0.043,0.005,0.045,-0.026,-0.019,0.091,0.02,-0.095,-0.093,-0.1,-0.095
-0.054,-0.05,0.005,0.052,-0.029,-0.022,0.089,0.02,-0.09,-0.087,-0.1,-0.091
-0.061,-0.049,0.012,0.055,-0.037,-0.018,0.087,0.02,-0.09,-0.085,-0.1,-0.09
-0.071,-0.043,0.028,0.056,-0.049,-0.007,0.079,0.02,-0.088,-0.085,-0.1,-0.09
-0.067,-0.039,0.028,0.053,-0.048,-0.005,0.076,0.02,-0.085,-0.085,-0.1,-0.09
-0.06,-0.041,0.02,0.05,-0.04,-0.01,0.068,0.02,-0.085,-0.085,-0.1,-0.09
-0.056,-0.039,0.017,0.047,-0.036,-0.011,0.065,0.02,-0.085,-0.085,-0.096,-0.09
-0.064,-0.041,0.023,0.052,-0.044,-0.008,0.057,0.02,-0.085,-0.085,-0.095,-0.09
-0.065,-0.039,0.026,0.052,-0.045,-0.007,0.02,0.02,-0.085,-0.089,-0.095,-0.09
-0.043,-0.041,0.002,0.041,-0.022,-0.019,-0.007,0.02,-0.089,-0.09,-0.095,-0.09
-0.045,-0.032,0.013,0.039,-0.029,-0.009,-0.001,0.02,-0.09,-0.09,-0.095,-0.09
-0.045,-0.04,0.005,0.042,-0.025,-0.017,0.052,0.02,-0.092,-0.09,-0.093,-0.09
-0.063,-0.07,-0.007,0.066,-0.027,-0.039,0.078,0.02,-0.096,-0.09,-0.09,-0.087
-0.045,-0.036,0.008,0.04,-0.026,-0.014,0.063,0.02,-0.093,-0.089,-0.083,-0.082
-0.039,-0.016,0.022,0.027,-0.03,0.003,0.058,0.019,-0.09,-0.085,-0.1,-0.079
-0.089,-0.044,0.046,0.067,-0.067,0.001,0.046,0.033,-0.088,-0.085,-0.111,-0.077
-0.056,-0.042,0.015,0.049,-0.035,-0.013,0.041,0.036,-0.085,-0.083,-0.102,-0.069
-0.068,-0.054,0.014,0.061,-0.041,-0.019,0.02,0.03,-0.082,-0.079,-0.1,-0.076
-0.086,-0.052,0.034,0.069,-0.06,-0.009,0.029,0.03,-0.079,-0.08,-0.095,-0.091
-0.063,-0.041,0.022,0.051,-0.042,-0.009,0.053,0.025,-0.084,-0.084,-0.09,-0.085
-0.072,-0.05,0.022,0.061,-0.047,-0.014,0.044,0.026,-0.097,-0.085,-0.087,-0.081
-0.065,-0.049,0.015,0.057,-0.04,-0.017,0.037,0.03,-0.099,-0.085,-0.085,-0.078
-0.067,-0.055,0.011,0.061,-0.039,-0.022,0.032,0.033,-0.091,-0.084,-0.085,-0.07
-0.063,-0.053,0.01,0.058,-0.036,-0.021,0.022,0.036,-0.089,-0.085,-0.085,-0.076
-0.051,-0.045,0.006,0.048,-0.028,-0.019,0.024,0.039,-0.082,-0.083,-0.085,-0.079
-0.033,-0.043,-0.01,0.038,-0.011,-0.026,0.043,0.044,-0.081,-0.079,-0.084,-0.069
0.003,-0.034,-0.037,0.016,0.02,-0.035,0.05,0.053,-0.058,-0.063,-0.068,-0.063
0.015,-0.032,-0.047,0.009,0.031,-0.039,0.06,0.088,-0.028,-0.034,-0.05,-0.059
0.018,-0.022,-0.041,0.002,0.03,-0.031,0.063,0.104,-0.026,-0.03,-0.05,-0.061
0.018,-0.023,-0.041,0.003,0.03,-0.032,0.048,0.092,-0.023,-0.029,-0.044,-0.06
0.025,-0.028,-0.053,0.002,0.039,-0.04,0.026,0.077,-0.051,-0.042,-0.048,-0.06
0.015,-0.022,-0.037,0.004,0.026,-0.029,-0.006,0.03,-0.092,-0.08,-0.065,-0.06
-0.033,-0.058,-0.025,0.046,-0.004,-0.041,-0.011,0.008,-0.095,-0.085,-0.077,-0.071
-0.059,-0.058,0.001,0.058,-0.03,-0.028,0.04,0.007,-0.105,-0.095,-0.09,-0.095
-0.074,-0.039,0.035,0.056,-0.054,-0.002,0.085,-0.002,-0.117,-0.103,-0.105,-0.087
-0.082,-0.044,0.039,0.063,-0.06,-0.003,0.087,-0.001,-0.108,-0.1,-0.119,-0.091
-0.062,-0.024,0.038,0.042,-0.05,0.007,0.09,-0.013,-0.109,-0.094,-0.111,-0.076
-0.043,-0.033,0.01,0.038,-0.026,-0.011,0.11,0.007,-0.083,-0.081,-0.12,-0.092
-0.069,-0.002,0.067,0.035,-0.068,0.032,0.142,0.061,-0.001,-0.024,-0.079,-0.122
0.03,0.033,0.003,-0.032,0.013,0.018,-0.011,-0.114,0.063,0.307,0.292,0.15
0.322,0.268,-0.054,-0.295,0.188,0.107,-0.39,-0.67,-0.162,0.687,1.235,1.025
0.539,0.609,0.07,-0.574,0.234,0.339,-0.597,-1.098,-0.584,0.806,1.762,1.779
0.322,0.463,0.14,-0.393,0.091,0.301,-0.368,-1.052,-0.977,0.167,0.776,1.127
-0.158,0.146,0.303,0.006,-0.231,0.224,-0.097,-0.949,-1.21,-0.774,-0.336,0.038
-0.298,-0.014,0.284,0.156,-0.291,0.135,-0.031,-0.81,-0.925,-0.748,-0.475,-0.232
-0.196,-0.053,0.143,0.125,-0.17,0.045,0.077,-0.405,-0.423,-0.349,-0.291,-0.18
-0.126,-0.011,0.115,0.068,-0.121,0.052,0.114,-0.085,-0.105,-0.133,-0.129,-0.114
-0.059,0.013,0.072,0.023,-0.065,0.042,0.075,0.015,0.009,-0.039,-0.081,-0.081
-0.081,-0.002,0.079,0.041,-0.08,0.038,0.084,0.068,0.031,-0.044,-0.069,-0.076
-0.081,-0.012,0.069,0.047,-0.075,0.028,0.078,0.089,0.067,0.003,-0.046,-0.062
-0.014,0.047,0.062,-0.017,-0.038,0.054,0.081,0.097,0.072,0.016,-0.03,-0.058
-0.009,0.046,0.055,-0.019,-0.032,0.05,0.079,0.104,0.083,0.036,-0.01,-0.046
-0.022,0.024,0.047,-0.001,-0.035,0.035,0.08,0.117,0.093,0.039,-0.006,-0.042
-0.043,0.006,0.048,0.018,-0.045,0.027,0.068,0.131,0.101,0.051,0.007,-0.03
-0.018,0.033,0.051,-0.007,-0.035,0.042,0.048,0.137,0.112,0.06,0.012,-0.026
0.009,0.059,0.051,-0.034,-0.021,0.055,0.042,0.143,0.13,0.082,0.035,-0.013
-0.011,0.047,0.058,-0.018,-0.035,0.052,0.035,0.15,0.152,0.104,0.042,0.007
0.006,0.057,0.051,-0.032,-0.023,0.053,0.03,0.17,0.172,0.114,0.057,0.028
0.037,0.045,0.008,-0.041,0.014,0.026,0.025,0.174,0.196,0.146,0.082,0.046
0.053,0.096,0.044,-0.075,0.004,0.07,0.015,0.186,0.227,0.17,0.097,0.052
0.07,0.113,0.043,-0.092,0.013,0.078,-0.013,0.236,0.288,0.222,0.14,0.075
0.096,0.113,0.016,-0.105,0.04,0.064,-0.042,0.275,0.353,0.283,0.19,0.118
0.102,0.159,0.057,-0.131,0.022,0.108,-0.082,0.32,0.418,0.348,0.243,0.166
0.121,0.189,0.068,-0.155,0.026,0.128,-0.095,0.361,0.478,0.404,0.295,0.215
0.166,0.22,0.053,-0.193,0.057,0.136,-0.063,0.386,0.532,0.464,0.359,0.271
0.19,0.252,0.062,-0.221,0.064,0.157,-0.044,0.399,0.576,0.518,0.416,0.318
0.183,0.277,0.093,-0.23,0.045,0.185,-0.069,0.388,0.581,0.532,0.43,0.334
0.164,0.26,0.096,-0.212,0.034,0.178,-0.103,0.361,0.553,0.518,0.419,0.327
0.156,0.245,0.089,-0.2,0.033,0.167,-0.115,0.314,0.496,0.472,0.402,0.318
0.143,0.231,0.089,-0.187,0.027,0.16,-0.105,0.26,0.398,0.389,0.345,0.265
0.093,0.177,0.084,-0.136,0.004,0.13,-0.04,0.21,0.291,0.28,0.249,0.177
0.056,0.123,0.067,-0.09,-0.005,0.095,0.006,0.161,0.214,0.2,0.174,0.112
0.043,0.08,0.037,-0.062,0.003,0.059,0.005,0.121,0.142,0.119,0.098,0.053
0.01,0.043,0.033,-0.026,-0.012,0.038,0.013,0.097,0.083,0.057,0.042,0.002
-0.002,0.027,0.029,-0.012,-0.015,0.027,0.006,0.085,0.049,0.034,0.023,-0.022
-0.01,0.013,0.023,-0.002,-0.016,0.017,-0.003,0.078,0.035,0.02,0.012,-0.037
-0.018,0.003,0.022,0.007,-0.02,0.012,-0.007,0.071,0.03,0.015,0.006,-0.051
0.005,0.004,-0.001,-0.004,0.003,0.001,-0.026,0.063,0.022,0.007,0.0,-0.055
-0.011,-0.004,0.007,0.007,-0.009,0.002,0.02,0.056,0.014,-0.001,-0.008,-0.056
-0.029,-0.02,0.009,0.024,-0.019,-0.005,0.08,0.049,0.007,-0.008,-0.013,-0.054
-0.014,0.004,0.018,0.005,-0.016,0.01,0.084,0.064,0.008,-0.007,-0.022,-0.057
-0.006,0.021,0.026,-0.008,-0.016,0.023,0.081,0.071,0.01,-0.012,-0.026,-0.072
-0.033,-0.029,0.004,0.031,-0.019,-0.012,0.055,0.06,0.022,-0.017,-0.024,-0.073
-0.061,-0.034,0.027,0.047,-0.044,-0.003,0.043,0.06,0.025,-0.014,-0.041,-0.065
-0.033,0.004,0.037,0.014,-0.035,0.02,0.073,0.052,0.019,-0.014,-0.045,-0.062
-0.021,-0.01,0.01,0.015,-0.015,0.0,0.111,0.052,0.017,-0.009,-0.039,-0.055
0.006,-0.014,-0.019,0.004,0.013,-0.016,0.111,0.064,0.012,-0.011,-0.038,-0.05
0.012,0.026,0.014,-0.019,-0.001,0.02,0.117,0.057,0.01,-0.012,-0.032,-0.067
-0.021,0.01,0.031,0.005,-0.026,0.02,0.105,0.049,0.005,-0.019,-0.031,-0.077
0.002,-0.021,-0.023,0.01,0.013,-0.022,0.059,0.039,0.0,-0.039,-0.029,-0.074
-0.005,-0.027,-0.022,0.016,0.009,-0.024,0.024,0.04,-0.004,-0.044,-0.039,-0.079
-0.042,-0.045,-0.003,0.044,-0.02,-0.024,0.033,0.05,-0.01,-0.04,-0.047,-0.08
-0.017,-0.042,-0.025,0.03,0.004,-0.033,0.08,0.043,-0.012,-0.038,-0.045,-0.079
0.012,-0.01,-0.022,-0.001,0.017,-0.016,0.063,0.039,-0.029,-0.05,-0.043,-0.076
-0.018,0.001,0.019,0.009,-0.019,0.01,0.015,0.033,-0.042,-0.062,-0.039,-0.074
-0.027,-0.012,0.015,0.019,-0.021,0.002,0.01,0.027,-0.039,-0.06,-0.04,-0.076
-0.009,-0.011,-0.002,0.01,-0.003,-0.006,0.048,0.023,-0.04,-0.057,-0.044,-0.074
-0.031,-0.031,0.0,0.031,-0.015,-0.015,0.081,0.019,-0.04,-0.055,-0.048,-0.075
-0.045,-0.051,-0.006,0.048,-0.02,-0.028,0.082,0.021,-0.039,-0.054,-0.053,-0.077
-0.048,-0.035,0.013,0.041,-0.03,-0.011,0.078,0.016,-0.044,-0.061,-0.056,-0.081
-0.055,-0.027,0.028,0.041,-0.041,0.001,0.06,0.015,-0.048,-0.068,-0.063,-0.082
-0.062,-0.043,0.019,0.052,-0.04,-0.011,0.022,0.015,-0.053,-0.072,-0.069,-0.088
-0.046,-0.045,0.0,0.045,-0.023,-0.022,-0.002,0.01,-0.061,-0.077,-0.066,-0.099
-0.038,-0.047,-0.009,0.043,-0.014,-0.028,0.012,0.01,-0.061,-0.076,-0.059,-0.096
-0.06,-0.05,0.01,0.055,-0.034,-0.02,0.058,0.01,-0.059,-0.074,-0.052,-0.089
-0.045,-0.037,0.008,0.041,-0.026,-0.014,0.083,0.01,-0.061,-0.075,-0.046,-0.085
-0.018,-0.033,-0.014,0.026,-0.002,-0.023,0.07,0.01,-0.06,-0.075,-0.038,-0.078
-0.042,-0.047,-0.005,0.045,-0.018,-0.026,0.012,0.008,-0.06,-0.075,-0.038,-0.076
-0.053,-0.061,-0.008,0.057,-0.023,-0.034,-0.033,0.005,-0.063,-0.079,-0.049,-0.082
-0.042,-0.06,-0.018,0.051,-0.012,-0.039,0.002,0.005,-0.066,-0.079,-0.06,-0.086
-0.069,-0.065,0.004,0.067,-0.036,-0.03,0.04,0.002,-0.065,-0.075,-0.067,-0.084
-0.049,-0.065,-0.016,0.057,-0.016,-0.04,0.057,-0.001,-0.065,-0.073,-0.065,-0.086
-0.023,-0.061,-0.037,0.042,0.007,-0.049,0.065,0.001,-0.065,-0.069,-0.065,-0.084
-0.056,-0.049,0.007,0.052,-0.031,-0.021,0.058,-0.008,-0.065,-0.067,-0.065,-0.086
-0.095,-0.046,0.049,0.07,-0.072,0.002,0.057,-0.004,-0.065,-0.063,-0.065,-0.083
-0.054,-0.023,0.031,0.039,-0.042,0.003,0.043,-0.002,-0.065,-0.075,-0.065,-0.08
-0.029,0.005,0.034,0.012,-0.032,0.019,0.023,-0.012,-0.065,-0.087,-0.065,-0.078
-0.035,-0.033,0.002,0.034,-0.018,-0.015,0.011,-0.007,-0.065,-0.084,-0.066,-0.073
-0.029,-0.065,-0.035,0.047,0.003,-0.05,0.008,-0.006,-0.065,-0.086,-0.065,-0.091
-0.057,-0.054,0.003,0.055,-0.03,-0.026,-0.004,-0.001,-0.068,-0.085,-0.066,-0.101
-0.024,-0.043,-0.019,0.034,-0.002,-0.031,-0.003,-0.001,-0.076,-0.085,-0.065,-0.092
-0.061,-0.053,0.007,0.057,-0.034,-0.022,-0.026,0.005,-0.079,-0.082,-0.057,-0.088
-0.085,-0.044,0.041,0.064,-0.063,-0.001,-0.026,0.018,-0.069,-0.073,-0.048,-0.081
-0.018,-0.047,-0.028,0.033,0.005,-0.037,0.063,0.033,-0.061,-0.064,-0.036,-0.076
0.002,-0.066,-0.068,0.033,0.035,-0.067,0.073,0.059,-0.04,-0.056,-0.034,-0.072
0.033,-0.032,-0.066,0.0,0.05,-0.049,0.085,0.075,-0.002,-0.049,-0.034,-0.068
0.035,-0.025,-0.061,-0.005,0.048,-0.043,0.104,0.101,0.018,-0.047,-0.037,-0.066
0.02,-0.033,-0.052,0.007,0.036,-0.042,0.054,0.092,-0.006,-0.039,-0.039,-0.063
0.024,-0.028,-0.052,0.002,0.038,-0.04,0.057,0.035,-0.046,-0.053,-0.041,-0.059
0.006,-0.033,-0.039,0.014,0.023,-0.036,0.052,0.002,-0.07,-0.077,-0.047,-0.063
-0.001,-0.061,-0.06,0.031,0.03,-0.06,0.062,0.015,-0.083,-0.065,-0.043,-0.069
-0.006,-0.065,-0.059,0.036,0.027,-0.062,0.051,0.012,-0.087,-0.1,-0.068,-0.098
-0.014,-0.049,-0.035,0.032,0.011,-0.042,0.013,-0.016,-0.083,-0.116,-0.083,-0.104
-0.04,-0.055,-0.015,0.048,-0.012,-0.035,0.067,-0.017,-0.071,-0.098,-0.083,-0.107
-0.054,-0.029,0.025,0.041,-0.039,-0.002,0.064,-0.028,-0.072,-0.1,-0.087,-0.11
-0.04,-0.058,-0.017,0.049,-0.011,-0.037,0.081,0.002,-0.055,-0.082,-0.091,-0.11
-0.041,-0.007,0.034,0.024,-0.037,0.013,0.093,0.058,0.023,-0.025,-0.066,-0.127
0.058,0.05,-0.008,-0.055,0.033,0.021,-0.105,-0.126,0.086,0.318,0.31,0.141
0.312,0.254,-0.058,-0.283,0.185,0.098,-0.405,-0.663,-0.204,0.715,1.299,1.011
0.513,0.604,0.091,-0.559,0.211,0.347,-0.585,-1.082,-0.657,0.85,1.89,1.775
0.302,0.449,0.147,-0.376,0.077,0.298,-0.401,-1.039,-0.994,0.21,0.901,1.154
-0.115,0.133,0.247,-0.009,-0.181,0.19,-0.147,-0.945,-1.221,-0.801,-0.318,0.038
-0.216,0.016,0.232,0.1,-0.224,0.124,-0.09,-0.807,-0.934,-0.773,-0.473,-0.234
-0.151,-0.04,0.11,0.095,-0.13,0.035,-0.007,-0.4,-0.407,-0.342,-0.27,-0.177
-0.088,0.0,0.088,0.044,-0.088,0.044,0.069,-0.089,-0.085,-0.145,-0.124,-0.128
-0.008,0.04,0.048,-0.017,-0.028,0.044,0.076,0.006,0.033,-0.032,-0.057,-0.094
-0.003,0.046,0.049,-0.022,-0.026,0.047,0.072,0.059,0.052,-0.03,-0.046,-0.089
-0.004,0.035,0.038,-0.016,-0.021,0.036,0.071,0.082,0.094,0.015,-0.031,-0.069
0.0,0.022,0.022,-0.011,-0.011,0.021,0.052,0.094,0.107,0.014,-0.032,-0.065
0.004,0.066,0.062,-0.035,-0.03,0.063,0.005,0.102,0.101,0.013,-0.022,-0.051
0.009,0.066,0.057,-0.038,-0.024,0.061,-0.017,0.111,0.11,0.043,0.006,-0.043
-0.004,0.031,0.035,-0.014,-0.02,0.033,0.0,0.123,0.117,0.054,0.022,-0.032
0.042,0.063,0.021,-0.053,0.01,0.042,0.041,0.128,0.112,0.062,0.017,-0.022
0.054,0.085,0.031,-0.069,0.011,0.057,0.063,0.141,0.137,0.084,0.045,-0.013
0.046,0.07,0.025,-0.058,0.01,0.047,0.052,0.149,0.159,0.1,0.06,-0.002
0.059,0.072,0.013,-0.066,0.023,0.043,0.041,0.169,0.176,0.117,0.064,0.006
0.055,0.119,0.064,-0.087,-0.005,0.091,0.028,0.189,0.203,0.138,0.084,0.016
0.127,0.159,0.032,-0.143,0.047,0.095,0.007,0.213,0.25,0.186,0.125,0.051
0.126,0.148,0.022,-0.137,0.052,0.084,-0.024,0.246,0.303,0.235,0.17,0.086
0.091,0.143,0.052,-0.117,0.019,0.097,-0.023,0.282,0.354,0.283,0.207,0.114
0.145,0.185,0.039,-0.165,0.053,0.112,-0.002,0.331,0.427,0.348,0.258,0.165
0.161,0.204,0.043,-0.183,0.059,0.123,-0.045,0.373,0.507,0.424,0.33,0.224
0.207,0.251,0.044,-0.229,0.081,0.147,-0.107,0.404,0.553,0.484,0.39,0.283
0.209,0.284,0.075,-0.247,0.067,0.179,-0.1,0.408,0.579,0.511,0.428,0.324
0.218,0.304,0.087,-0.261,0.065,0.195,-0.061,0.406,0.597,0.544,0.465,0.356
0.233,0.312,0.079,-0.273,0.076,0.196,-0.078,0.382,0.558,0.521,0.459,0.361
0.247,0.319,0.072,-0.284,0.088,0.195,-0.092,0.329,0.493,0.466,0.429,0.339
0.241,0.305,0.064,-0.273,0.088,0.184,-0.072,0.261,0.402,0.387,0.363,0.277
0.098,0.157,0.059,-0.128,0.019,0.107,-0.075,0.182,0.287,0.267,0.257,0.179
0.08,0.115,0.035,-0.098,0.023,0.075,-0.059,0.149,0.199,0.192,0.176,0.107
0.062,0.105,0.043,-0.084,0.009,0.074,-0.024,0.117,0.133,0.125,0.112,0.045
0.015,0.045,0.03,-0.03,-0.008,0.037,-0.01,0.086,0.083,0.069,0.058,0.004
-0.005,0.006,0.011,-0.001,-0.008,0.008,-0.004,0.078,0.049,0.022,0.018,-0.018
-0.043,-0.024,0.019,0.033,-0.031,-0.002,-0.001,0.063,0.029,-0.011,-0.006,-0.051
-0.014,-0.015,-0.001,0.014,-0.006,-0.008,0.004,0.061,0.014,-0.014,-0.014,-0.065
-0.029,-0.039,-0.009,0.034,-0.01,-0.024,0.009,0.057,0.004,-0.023,-0.027,-0.067
-0.035,-0.051,-0.017,0.043,-0.009,-0.034,0.007,0.054,0.002,-0.029,-0.035,-0.074
-0.026,-0.05,-0.024,0.038,-0.001,-0.037,-0.01,0.052,-0.002,-0.036,-0.036,-0.073
-0.053,-0.048,0.005,0.05,-0.029,-0.021,-0.026,0.049,-0.005,-0.042,-0.041,-0.071
-0.043,-0.063,-0.02,0.053,-0.012,-0.041,0.029,0.047,-0.01,-0.044,-0.037,-0.067
-0.03,-0.061,-0.031,0.046,0.001,-0.046,0.075,0.044,-0.008,-0.048,-0.035,-0.065
-0.032,-0.037,-0.005,0.034,-0.013,-0.021,0.063,0.045,-0.005,-0.05,-0.035,-0.061
-0.03,-0.047,-0.017,0.039,-0.006,-0.031,0.073,0.04,-0.005,-0.054,-0.034,-0.059
-0.065,-0.046,0.02,0.055,-0.042,-0.013,0.051,0.04,-0.017,-0.055,-0.05,-0.079
-0.07,-0.041,0.029,0.056,-0.049,-0.006,0.006,0.04,-0.031,-0.052,-0.057,-0.085
-0.045,-0.041,0.004,0.043,-0.025,-0.019,0.0,0.04,-0.03,-0.049,-0.054,-0.076
-0.049,-0.038,0.011,0.044,-0.03,-0.013,0.034,0.052,-0.029,-0.051,-0.057,-0.075
-0.058,-0.042,0.016,0.05,-0.037,-0.013,0.039,0.049,-0.037,-0.049,-0.057,-0.067
-0.07,-0.053,0.018,0.061,-0.044,-0.017,0.016,0.037,-0.047,-0.052,-0.055,-0.067
-0.054,-0.058,-0.004,0.056,-0.025,-0.031,-0.019,0.027,-0.044,-0.076,-0.051,-0.083
-0.036,-0.032,0.004,0.034,-0.02,-0.014,-0.054,0.02,-0.045,-0.082,-0.05,-0.086
-0.044,-0.038,0.006,0.041,-0.025,-0.015,0.001,0.019,-0.045,-0.079,-0.045,-0.084
-0.043,-0.066,-0.022,0.055,-0.011,-0.044,0.034,0.015,-0.045,-0.081,-0.045,-0.085
-0.019,-0.039,-0.02,0.029,0.001,-0.029,0.016,0.012,-0.053,-0.08,-0.057,-0.085
-0.018,-0.038,-0.019,0.028,0.001,-0.028,0.013,0.01,-0.056,-0.079,-0.061,-0.084
-0.017,-0.035,-0.017,0.026,0.0,-0.026,0.005,0.008,-0.055,-0.074,-0.059,-0.079
-0.017,-0.031,-0.014,0.024,-0.001,-0.022,-0.005,0.001,-0.053,-0.075,-0.058,-0.08
-0.057,-0.072,-0.015,0.065,-0.021,-0.043,0.015,-0.004,-0.05,-0.075,-0.054,-0.08
-0.064,-0.075,-0.011,0.069,-0.026,-0.042,0.059,-0.01,-0.049,-0.074,-0.055,-0.08
-0.069,-0.067,0.002,0.068,-0.035,-0.032,0.04,-0.014,-0.068,-0.084,-0.067,-0.092
-0.045,-0.068,-0.024,0.057,-0.01,-0.046,0.008,-0.01,-0.077,-0.085,-0.07,-0.094
-0.004,-0.058,-0.054,0.031,0.025,-0.056,0.018,-0.005,-0.074,-0.082,-0.064,-0.086
-0.014,-0.067,-0.053,0.041,0.02,-0.06,0.039,0.0,-0.074,-0.079,-0.062,-0.085
-0.036,-0.089,-0.052,0.063,0.008,-0.07,0.042,0.003,-0.07,-0.076,-0.057,-0.077
-0.044,-0.083,-0.039,0.063,-0.002,-0.061,0.036,0.01,-0.07,-0.074,-0.055,-0.077
-0.032,-0.073,-0.041,0.053,0.005,-0.057,0.035,0.008,-0.073,-0.075,-0.06,-0.09
-0.049,-0.068,-0.019,0.059,-0.014,-0.043,0.031,0.004,-0.075,-0.092,-0.073,-0.088
-0.042,-0.06,-0.018,0.051,-0.012,-0.039,0.03,0.005,-0.075,-0.095,-0.075,-0.083
-0.022,-0.059,-0.037,0.04,0.008,-0.048,0.027,0.001,-0.078,-0.089,-0.075,-0.082
-0.041,-0.065,-0.024,0.053,-0.008,-0.044,0.024,0.0,-0.081,-0.087,-0.08,-0.075
-0.054,-0.065,-0.011,0.06,-0.021,-0.038,0.021,0.0,-0.079,-0.082,-0.08,-0.077
-0.037,-0.057,-0.019,0.047,-0.009,-0.037,0.018,0.012,-0.076,-0.08,-0.079,-0.081
-0.031,-0.071,-0.039,0.051,0.004,-0.055,0.016,0.024,-0.075,-0.08,-0.075,-0.08
-0.052,-0.059,-0.007,0.055,-0.022,-0.033,0.013,0.019,-0.075,-0.08,-0.075,-0.08
-0.034,-0.042,-0.008,0.038,-0.013,-0.025,0.011,0.017,-0.075,-0.08,-0.075,-0.076
-0.009,-0.038,-0.03,0.024,0.011,-0.034,0.006,0.014,-0.075,-0.08,-0.075,-0.075
-0.01,-0.031,-0.021,0.021,0.006,-0.026,0.007,0.011,-0.073,-0.08,-0.075,-0.075
-0.013,-0.041,-0.028,0.028,0.007,-0.034,-0.008,0.009,-0.069,-0.082,-0.071,-0.075
-0.01,-0.033,-0.023,0.022,0.007,-0.028,-0.034,0.005,-0.07,-0.086,-0.07,-0.074
-0.002,-0.03,-0.028,0.016,0.013,-0.028,-0.043,0.005,-0.07,-0.085,-0.071,-0.076
0.019,-0.026,-0.045,0.004,0.032,-0.035,-0.015,0.005,-0.07,-0.086,-0.07,-0.074
0.024,-0.019,-0.043,-0.002,0.034,-0.031,0.061,0.006,-0.069,-0.085,-0.07,-0.08
0.001,-0.04,-0.041,0.019,0.022,-0.041,0.085,0.004,-0.063,-0.085,-0.069,-0.094
-0.011,-0.044,-0.034,0.028,0.012,-0.039,0.075,0.011,-0.055,-0.077,-0.063,-0.085
0.009,-0.036,-0.045,0.014,0.028,-0.04,0.067,0.033,-0.049,-0.071,-0.059,-0.074
0.042,-0.035,-0.077,-0.003,0.06,-0.056,0.076,0.049,-0.04,-0.058,-0.056,-0.065
0.048,-0.027,-0.074,-0.01,0.061,-0.05,0.121,0.074,-0.013,-0.027,-0.051,-0.059
0.047,-0.028,-0.075,-0.009,0.061,-0.051,0.105,0.106,0.005,-0.016,-0.05,-0.06
0.041,-0.038,-0.079,-0.001,0.06,-0.058,0.045,0.095,-0.004,-0.028,-0.048,-0.06
0.035,-0.04,-0.076,0.003,0.056,-0.058,-0.005,0.048,-0.035,-0.045,-0.044,-0.06
0.042,-0.032,-0.073,-0.005,0.058,-0.052,-0.014,0.016,-0.081,-0.073,-0.047,-0.06
0.012,-0.061,-0.073,0.025,0.043,-0.067,-0.005,-0.001,-0.097,-0.087,-0.062,-0.067
-0.026,-0.079,-0.052,0.053,0.014,-0.066,0.009,-0.01,-0.098,-0.099,-0.08,-0.085
-0.034,-0.059,-0.025,0.047,-0.004,-0.041,0.055,-0.015,-0.107,-0.098,-0.079,-0.085
-0.035,-0.065,-0.03,0.05,-0.003,-0.047,0.039,-0.023,-0.104,-0.091,-0.089,-0.09
-0.049,-0.053,-0.004,0.052,-0.023,-0.028,-0.007,-0.027,-0.113,-0.096,-0.082,-0.091
-0.051,-0.069,-0.018,0.06,-0.016,-0.043,0.049,-0.015,-0.101,-0.081,-0.085,-0.092
-0.034,-0.019,0.015,0.026,-0.025,-0.002,0.098,0.037,0.001,-0.047,-0.085,-0.126
0.022,0.017,-0.005,-0.019,0.013,0.006,-0.001,-0.089,0.095,0.239,0.212,0.077
0.257,0.214,-0.044,-0.235,0.15,0.085,-0.277,-0.598,-0.105,0.675,1.099,0.838
0.53,0.604,0.074,-0.567,0.228,0.339,-0.581,-1.141,-0.572,0.897,1.86,1.725
0.412,0.506,0.093,-0.459,0.159,0.299,-0.508,-1.225,-1.055,0.327,1.114,1.409
-0.033,0.174,0.207,-0.07,-0.12,0.19,-0.259,-1.093,-1.328,-0.738,-0.202,0.238
-0.263,-0.035,0.228,0.149,-0.246,0.097,-0.184,-0.937,-1.042,-0.846,-0.5,-0.208
-0.211,-0.097,0.114,0.153,-0.162,0.008,-0.099,-0.488,-0.468,-0.393,-0.298,-0.169
-0.11,-0.029,0.081,0.069,-0.095,0.026,-0.012,-0.11,-0.104,-0.165,-0.14,-0.132
-0.046,-0.011,0.035,0.028,-0.041,0.012,0.03,0.005,0.015,-0.048,-0.078,-0.083
-0.056,0.002,0.058,0.027,-0.057,0.03,0.061,0.072,0.05,-0.025,-0.07,-0.083
-0.059,-0.011,0.049,0.035,-0.054,0.018,0.064,0.085,0.078,0.014,-0.048,-0.068
-0.029,0.012,0.041,0.008,-0.035,0.026,0.055,0.1,0.08,0.012,-0.047,-0.064
0.006,0.009,0.004,-0.008,0.001,0.006,0.043,0.13,0.091,0.02,-0.032,-0.052
-0.033,-0.018,0.014,0.025,-0.023,-0.002,0.019,0.135,0.105,0.036,-0.029,-0.046
-0.046,-0.002,0.044,0.023,-0.045,0.021,-0.004,0.139,0.106,0.042,-0.004,-0.041
-0.001,0.022,0.024,-0.011,-0.013,0.023,-0.024,0.14,0.108,0.059,0.017,-0.034
0.015,0.055,0.04,-0.036,-0.013,0.048,0.024,0.14,0.126,0.07,0.01,-0.031
0.05,0.044,-0.005,-0.047,0.027,0.019,0.08,0.158,0.149,0.092,0.029,-0.019
0.065,0.047,-0.018,-0.056,0.041,0.014,0.038,0.173,0.17,0.109,0.049,0.005
0.071,0.038,-0.033,-0.054,0.052,0.002,0.017,0.204,0.206,0.139,0.075,0.032
0.043,0.044,0.001,-0.043,0.021,0.022,-0.013,0.232,0.253,0.163,0.097,0.031
0.074,0.116,0.042,-0.096,0.016,0.079,-0.022,0.259,0.297,0.204,0.117,0.057
0.142,0.125,-0.017,-0.133,0.079,0.054,0.03,0.32,0.37,0.276,0.175,0.108
0.125,0.136,0.01,-0.131,0.057,0.072,-0.009,0.365,0.44,0.331,0.222,0.14
0.131,0.159,0.029,-0.146,0.051,0.094,-0.046,0.408,0.506,0.398,0.277,0.198
0.166,0.206,0.039,-0.186,0.063,0.122,-0.044,0.448,0.573,0.464,0.343,0.261
0.188,0.239,0.051,-0.214,0.069,0.144,-0.092,0.458,0.597,0.507,0.39,0.301
0.191,0.228,0.037,-0.21,0.076,0.133,-0.102,0.447,0.604,0.534,0.432,0.342
0.203,0.272,0.069,-0.238,0.067,0.17,-0.13,0.416,0.577,0.518,0.436,0.342
0.185,0.25,0.065,-0.218,0.06,0.158,-0.151,0.36,0.516,0.473,0.408,0.323
0.15,0.201,0.051,-0.176,0.05,0.126,-0.074,0.283,0.425,0.396,0.355,0.29
0.125,0.169,0.044,-0.148,0.041,0.106,-0.017,0.224,0.314,0.286,0.272,0.213
0.084,0.116,0.031,-0.1,0.026,0.074,0.021,0.176,0.223,0.191,0.191,0.138
0.048,0.071,0.023,-0.06,0.012,0.047,0.036,0.122,0.148,0.124,0.118,0.068
0.029,0.031,0.002,-0.03,0.013,0.016,0.029,0.091,0.087,0.064,0.06,0.017
0.049,0.006,-0.043,-0.027,0.046,-0.018,0.023,0.084,0.049,0.027,0.029,-0.005
0.053,-0.009,-0.062,-0.021,0.058,-0.036,0.014,0.078,0.027,0.011,0.01,-0.03
0.036,-0.014,-0.05,-0.011,0.043,-0.031,0.057,0.071,0.017,-0.004,-0.004,-0.038
0.013,-0.037,-0.05,0.013,0.032,-0.044,0.059,0.064,0.011,-0.013,-0.014,-0.046
-0.013,-0.051,-0.038,0.032,0.012,-0.044,0.023,0.061,0.004,-0.017,-0.021,-0.065
-0.01,-0.05,-0.041,0.03,0.015,-0.045,0.026,0.065,-0.002,-0.024,-0.027,-0.065
-0.021,-0.049,-0.028,0.035,0.004,-0.038,0.039,0.065,-0.011,-0.03,-0.036,-0.066
-0.007,-0.055,-0.049,0.032,0.021,-0.052,0.08,0.061,-0.001,-0.024,-0.037,-0.07
-0.021,-0.089,-0.068,0.056,0.024,-0.078,0.087,0.06,0.003,-0.033,-0.046,-0.07
-0.051,-0.088,-0.037,0.069,-0.007,-0.062,0.05,0.06,-0.016,-0.042,-0.053,-0.068
-0.008,-0.074,-0.065,0.041,0.029,-0.069,0.02,0.06,-0.016,-0.04,-0.05,-0.065
-0.026,-0.077,-0.051,0.052,0.013,-0.064,-0.005,0.06,-0.011,-0.04,-0.05,-0.065
-0.035,-0.074,-0.039,0.055,0.002,-0.056,-0.013,0.058,-0.01,-0.041,-0.047,-0.066
0.001,-0.076,-0.077,0.037,0.04,-0.076,-0.037,0.055,-0.003,-0.039,-0.043,-0.064
-0.008,-0.074,-0.066,0.041,0.03,-0.07,-0.005,0.053,-0.018,-0.043,-0.048,-0.067
-0.024,-0.057,-0.033,0.041,0.004,-0.045,0.054,0.049,-0.036,-0.066,-0.064,-0.083
-0.002,-0.057,-0.055,0.03,0.027,-0.056,0.051,0.047,-0.034,-0.072,-0.066,-0.086
0.015,-0.069,-0.084,0.027,0.049,-0.076,0.056,0.044,-0.036,-0.073,-0.064,-0.084
-0.011,-0.069,-0.057,0.04,0.023,-0.063,0.061,0.042,-0.034,-0.077,-0.066,-0.085
-0.015,-0.066,-0.051,0.041,0.018,-0.058,0.065,0.039,-0.039,-0.08,-0.064,-0.085
-0.024,-0.059,-0.035,0.042,0.006,-0.047,0.065,0.036,-0.046,-0.079,-0.067,-0.084
-0.029,-0.056,-0.027,0.043,0.0,-0.041,0.054,0.033,-0.046,-0.074,-0.07,-0.08
0.007,-0.051,-0.058,0.022,0.033,-0.054,0.05,0.03,-0.056,-0.075,-0.07,-0.08
0.014,-0.046,-0.06,0.016,0.038,-0.053,0.039,0.029,-0.053,-0.075,-0.07,-0.08
-0.016,-0.046,-0.03,0.031,0.008,-0.038,0.016,0.025,-0.06,-0.075,-0.074,-0.08
-0.02,-0.06,-0.04,0.04,0.01,-0.05,0.022,0.025,-0.068,-0.074,-0.075,-0.079
-0.032,-0.09,-0.057,0.061,0.013,-0.073,0.02,0.025,-0.066,-0.08,-0.075,-0.085
-0.065,-0.089,-0.024,0.078,-0.02,-0.057,-0.019,0.025,-0.071,-0.088,-0.075,-0.093
-0.026,-0.077,-0.051,0.052,0.013,-0.064,-0.023,0.025,-0.07,-0.085,-0.075,-0.09
-0.01,-0.076,-0.066,0.043,0.028,-0.071,0.016,0.021,-0.067,-0.085,-0.075,-0.09
-0.039,-0.074,-0.036,0.057,-0.001,-0.055,0.059,0.019,-0.065,-0.085,-0.075,-0.09
-0.022,-0.075,-0.053,0.049,0.016,-0.064,0.06,0.016,-0.065,-0.085,-0.075,-0.09
-0.018,-0.075,-0.057,0.047,0.02,-0.066,0.055,0.014,-0.061,-0.085,-0.075,-0.09
-0.015,-0.074,-0.059,0.045,0.022,-0.066,0.051,0.01,-0.06,-0.089,-0.075,-0.093
-0.018,-0.08,-0.062,0.049,0.022,-0.071,0.055,0.011,-0.054,-0.09,-0.075,-0.096
-0.012,-0.075,-0.063,0.044,0.026,-0.069,0.076,0.024,-0.061,-0.09,-0.076,-0.094
-0.008,-0.074,-0.067,0.041,0.03,-0.07,0.057,0.027,-0.076,-0.095,-0.074,-0.095
-0.032,-0.09,-0.058,0.061,0.013,-0.074,0.04,0.023,-0.075,-0.095,-0.08,-0.094
-0.035,-0.08,-0.045,0.058,0.006,-0.062,0.028,0.021,-0.073,-0.096,-0.092,-0.096
-0.035,-0.074,-0.039,0.055,0.002,-0.056,0.021,0.018,-0.07,-0.1,-0.088,-0.1
-0.035,-0.076,-0.041,0.055,0.004,-0.058,0.017,0.015,-0.069,-0.1,-0.085,-0.1
-0.035,-0.072,-0.036,0.054,0.001,-0.053,0.008,0.015,-0.073,-0.1,-0.083,-0.1
-0.035,-0.071,-0.036,0.053,0.001,-0.053,0.047,0.015,-0.075,-0.1,-0.079,-0.1
-0.035,-0.068,-0.032,0.052,-0.002,-0.05,0.066,0.015,-0.075,-0.1,-0.083,-0.1
-0.038,-0.084,-0.046,0.061,0.005,-0.065,0.052,0.015,-0.078,-0.097,-0.085,-0.096
-0.038,-0.097,-0.059,0.068,0.011,-0.078,0.045,0.015,-0.081,-0.094,-0.086,-0.095
-0.05,-0.094,-0.044,0.072,-0.003,-0.069,0.036,0.014,-0.079,-0.091,-0.09,-0.095
-0.051,-0.092,-0.041,0.072,-0.005,-0.066,0.022,0.02,-0.075,-0.089,-0.091,-0.091
-0.058,-0.084,-0.027,0.071,-0.015,-0.055,-0.013,0.019,-0.068,-0.084,-0.084,-0.091
-0.042,-0.08,-0.039,0.061,-0.001,-0.06,-0.03,0.024,-0.064,-0.088,-0.079,-0.089
-0.027,-0.074,-0.047,0.051,0.01,-0.06,-0.002,0.024,-0.056,-0.087,-0.072,-0.082
-0.016,-0.068,-0.052,0.042,0.018,-0.06,0.054,0.029,-0.053,-0.078,-0.068,-0.078
0.018,-0.066,-0.084,0.024,0.052,-0.075,0.081,0.051,-0.043,-0.064,-0.059,-0.072
-0.007,-0.07,-0.063,0.039,0.028,-0.066,0.08,0.071,-0.019,-0.042,-0.037,-0.067
0.018,-0.07,-0.088,0.027,0.053,-0.079,0.092,0.117,-0.003,-0.034,-0.035,-0.06
0.051,-0.069,-0.12,0.009,0.086,-0.094,0.093,0.12,-0.011,-0.034,-0.034,-0.058
0.033,-0.072,-0.105,0.02,0.069,-0.088,0.076,0.073,-0.037,-0.046,-0.046,-0.053
0.048,-0.063,-0.11,0.008,0.079,-0.086,0.074,0.033,-0.057,-0.072,-0.064,-0.058
0.021,-0.073,-0.094,0.027,0.057,-0.083,0.069,0.0,-0.09,-0.1,-0.076,-0.076
0.0,-0.081,-0.081,0.041,0.041,-0.081,0.067,-0.008,-0.1,-0.117,-0.11,-0.089
-0.025,-0.066,-0.042,0.046,0.009,-0.054,0.063,-0.024,-0.109,-0.12,-0.11,-0.099
-0.062,-0.101,-0.038,0.082,-0.012,-0.069,0.058,-0.025,-0.123,-0.115,-0.109,-0.099
-0.046,-0.086,-0.04,0.067,-0.003,-0.063,0.075,-0.027,-0.112,-0.109,-0.112,-0.104
-0.046,-0.08,-0.034,0.064,-0.006,-0.057,0.062,-0.035,-0.11,-0.096,-0.106,-0.094
-0.068,-0.09,-0.022,0.079,-0.023,-0.055,0.093,0.035,-0.047,-0.092,-0.117,-0.128
-0.032,-0.019,0.013,0.025,-0.022,-0.003,0.045,0.008,0.063,0.088,0.031,-0.069
0.151,0.07,-0.081,-0.111,0.116,-0.006,-0.179,-0.38,0.007,0.484,0.647,0.449
0.449,0.425,-0.024,-0.437,0.236,0.2,-0.508,-1.001,-0.343,0.813,1.589,1.423
0.516,0.57,0.054,-0.543,0.231,0.311,-0.598,-1.294,-0.885,0.578,1.45,1.671
0.138,0.245,0.107,-0.192,0.015,0.176,-0.288,-1.24,-1.348,-0.456,0.14,0.63
-0.229,-0.015,0.214,0.122,-0.222,0.099,-0.137,-1.127,-1.25,-0.967,-0.527,-0.161
-0.274,-0.138,0.136,0.206,-0.205,-0.001,-0.099,-0.708,-0.691,-0.565,-0.406,-0.216
-0.202,-0.111,0.09,0.156,-0.146,-0.01,-0.019,-0.22,-0.225,-0.237,-0.212,-0.149
-0.11,-0.065,0.044,0.087,-0.076,-0.01,-0.025,-0.02,-0.019,-0.091,-0.108,-0.096
-0.06,-0.052,0.007,0.056,-0.033,-0.022,0.009,0.042,0.019,-0.057,-0.091,-0.106
-0.065,-0.046,0.019,0.055,-0.042,-0.013,0.056,0.075,0.048,-0.041,-0.072,-0.1
-0.038,-0.045,-0.007,0.042,-0.015,-0.026,0.064,0.096,0.066,-0.025,-0.066,-0.09
-0.008,-0.035,-0.027,0.022,0.01,-0.031,0.055,0.102,0.077,-0.025,-0.049,-0.083
0.001,-0.032,-0.033,0.016,0.017,-0.033,0.049,0.121,0.084,0.001,-0.037,-0.086
0.004,-0.026,-0.029,0.011,0.017,-0.027,0.041,0.129,0.071,0.02,-0.028,-0.08
0.007,-0.021,-0.029,0.007,0.018,-0.025,0.017,0.13,0.088,0.035,-0.019,-0.064
0.018,-0.017,-0.036,0.0,0.027,-0.026,0.024,0.15,0.116,0.048,-0.011,-0.054
0.022,-0.012,-0.034,-0.005,0.029,-0.023,0.063,0.147,0.119,0.075,-0.002,-0.036
0.039,0.033,-0.006,-0.036,0.022,0.013,0.066,0.158,0.136,0.082,0.01,-0.027
0.03,0.017,-0.013,-0.023,0.021,0.002,0.064,0.196,0.182,0.113,0.038,-0.007
0.063,0.024,-0.039,-0.043,0.051,-0.007,0.055,0.221,0.214,0.153,0.062,0.01
0.122,0.071,-0.051,-0.096,0.086,0.009,0.035,0.249,0.258,0.184,0.096,0.04
0.104,0.059,-0.044,-0.081,0.074,0.007,0.024,0.294,0.315,0.233,0.127,0.07
0.133,0.099,-0.034,-0.115,0.083,0.032,0.011,0.343,0.382,0.286,0.166,0.102
0.162,0.13,-0.031,-0.146,0.096,0.049,0.005,0.395,0.456,0.352,0.222,0.157
0.178,0.159,-0.02,-0.168,0.099,0.069,-0.027,0.44,0.516,0.423,0.285,0.214
0.22,0.199,-0.021,-0.209,0.12,0.089,-0.058,0.463,0.565,0.476,0.347,0.269
0.213,0.238,0.024,-0.225,0.094,0.131,-0.102,0.463,0.589,0.499,0.374,0.302
0.208,0.266,0.058,-0.237,0.074,0.162,-0.132,0.44,0.573,0.501,0.388,0.313
0.217,0.228,0.012,-0.223,0.102,0.12,-0.112,0.39,0.531,0.476,0.384,0.31
0.212,0.222,0.01,-0.217,0.101,0.116,-0.106,0.313,0.451,0.41,0.343,0.289
0.175,0.19,0.015,-0.183,0.08,0.102,-0.051,0.245,0.343,0.319,0.278,0.232
0.134,0.108,-0.026,-0.121,0.08,0.041,0.004,0.196,0.251,0.224,0.193,0.15
0.084,0.062,-0.021,-0.073,0.052,0.02,0.021,0.143,0.169,0.138,0.109,0.079
0.042,0.029,-0.012,-0.036,0.027,0.008,0.04,0.109,0.1,0.074,0.045,0.017
0.044,0.005,-0.04,-0.024,0.042,-0.017,0.041,0.1,0.061,0.037,0.001,-0.017
0.028,-0.036,-0.064,0.005,0.046,-0.05,0.033,0.09,0.037,0.011,-0.017,-0.029
0.003,-0.067,-0.07,0.032,0.037,-0.068,0.043,0.082,0.019,-0.004,-0.046,-0.061
-0.023,-0.064,-0.041,0.044,0.009,-0.052,0.064,0.076,0.007,-0.01,-0.068,-0.078
-0.032,-0.066,-0.034,0.049,0.001,-0.049,0.041,0.069,-0.002,-0.016,-0.063,-0.074
-0.012,-0.065,-0.052,0.039,0.02,-0.058,0.029,0.063,-0.013,-0.021,-0.068,-0.076
-0.012,-0.066,-0.055,0.039,0.022,-0.06,0.015,0.056,-0.02,-0.029,-0.07,-0.075
-0.015,-0.071,-0.055,0.043,0.02,-0.062,0.024,0.055,-0.02,-0.04,-0.07,-0.075
-0.015,-0.07,-0.055,0.043,0.02,-0.062,0.083,0.055,-0.021,-0.041,-0.074,-0.075
-0.016,-0.07,-0.055,0.043,0.02,-0.062,0.085,0.055,-0.026,-0.039,-0.077,-0.075
-0.021,-0.073,-0.052,0.047,0.016,-0.062,0.07,0.055,-0.025,-0.043,-0.082,-0.075
-0.029,-0.076,-0.046,0.053,0.009,-0.061,0.061,0.055,-0.028,-0.052,-0.085,-0.075
-0.029,-0.075,-0.045,0.052,0.009,-0.06,0.044,0.064,-0.031,-0.049,-0.085,-0.074
-0.036,-0.075,-0.04,0.056,0.002,-0.057,0.012,0.063,-0.03,-0.046,-0.085,-0.077
-0.037,-0.074,-0.037,0.056,0.001,-0.055,0.02,0.057,-0.034,-0.043,-0.085,-0.08
-0.031,-0.065,-0.033,0.049,0.001,-0.049,0.085,0.054,-0.035,-0.04,-0.085,-0.081
-0.046,-0.063,-0.017,0.055,-0.014,-0.04,0.094,0.048,-0.035,-0.043,-0.089,-0.079
-0.04,-0.066,-0.026,0.053,-0.006,-0.045,0.086,0.045,-0.04,-0.054,-0.091,-0.083
-0.022,-0.065,-0.043,0.043,0.011,-0.054,0.087,0.039,-0.042,-0.076,-0.09,-0.102
-0.01,-0.07,-0.06,0.04,0.025,-0.065,0.08,0.033,-0.046,-0.082,-0.09,-0.106
0.001,-0.07,-0.071,0.035,0.036,-0.07,0.079,0.029,-0.049,-0.083,-0.09,-0.104
-0.01,-0.069,-0.058,0.04,0.024,-0.063,0.048,0.022,-0.052,-0.087,-0.094,-0.106
-0.007,-0.063,-0.056,0.036,0.025,-0.059,0.023,0.018,-0.057,-0.09,-0.096,-0.105
-0.017,-0.056,-0.04,0.037,0.012,-0.048,0.001,0.012,-0.06,-0.089,-0.094,-0.104
-0.044,-0.053,-0.009,0.049,-0.017,-0.031,-0.031,0.01,-0.071,-0.084,-0.104,-0.1
0.0,-0.043,-0.042,0.022,0.022,-0.042,0.015,0.01,-0.076,-0.085,-0.111,-0.1
-0.03,-0.062,-0.032,0.046,0.001,-0.047,0.076,0.01,-0.074,-0.085,-0.11,-0.1
-0.112,-0.084,0.028,0.097,-0.07,-0.027,0.076,0.01,-0.079,-0.085,-0.108,-0.1
-0.06,-0.076,-0.016,0.068,-0.022,-0.046,0.069,0.01,-0.08,-0.085,-0.105,-0.1
-0.016,-0.075,-0.059,0.046,0.022,-0.067,0.063,0.015,-0.08,-0.089,-0.104,-0.1
-0.022,-0.071,-0.049,0.047,0.013,-0.06,0.053,0.015,-0.08,-0.101,-0.116,-0.1
-0.019,-0.069,-0.051,0.044,0.016,-0.06,0.048,0.015,-0.079,-0.105,-0.126,-0.1
-0.028,-0.07,-0.042,0.05,0.007,-0.056,0.04,0.015,-0.081,-0.105,-0.124,-0.1
-0.027,-0.07,-0.042,0.048,0.008,-0.056,0.034,0.015,-0.078,-0.107,-0.125,-0.1
-0.037,-0.07,-0.033,0.054,-0.002,-0.052,0.028,0.015,-0.084,-0.111,-0.125,-0.101
-0.07,-0.07,0.0,0.07,-0.035,-0.034,0.019,0.015,-0.095,-0.11,-0.125,-0.107
-0.051,-0.072,-0.02,0.062,-0.015,-0.046,0.016,0.015,-0.089,-0.107,-0.122,-0.111
-0.015,-0.076,-0.062,0.046,0.024,-0.069,-0.022,0.015,-0.083,-0.104,-0.117,-0.108
-0.026,-0.075,-0.048,0.051,0.012,-0.061,0.007,0.015,-0.079,-0.101,-0.115,-0.106
-0.035,-0.07,-0.035,0.053,0.0,-0.052,0.079,0.015,-0.07,-0.098,-0.11,-0.102
-0.034,-0.07,-0.036,0.053,0.001,-0.053,0.056,0.01,-0.08,-0.095,-0.106,-0.1
-0.055,-0.062,-0.007,0.059,-0.023,-0.035,0.039,0.005,-0.092,-0.095,-0.106,-0.1
-0.042,-0.07,-0.028,0.056,-0.006,-0.049,0.027,0.001,-0.089,-0.095,-0.11,-0.1
-0.019,-0.064,-0.045,0.042,0.013,-0.054,0.012,-0.004,-0.09,-0.095,-0.11,-0.1
-0.044,-0.064,-0.02,0.054,-0.011,-0.042,0.006,-0.009,-0.09,-0.095,-0.109,-0.099
-0.037,-0.073,-0.035,0.055,-0.001,-0.054,-0.024,-0.008,-0.09,-0.107,-0.126,-0.112
-0.015,-0.054,-0.038,0.035,0.012,-0.046,0.021,-0.002,-0.087,-0.112,-0.131,-0.117
-0.032,-0.062,-0.03,0.048,-0.001,-0.045,0.074,0.002,-0.081,-0.105,-0.124,-0.111
-0.035,-0.078,-0.043,0.057,0.004,-0.06,0.078,0.007,-0.08,-0.105,-0.123,-0.11
-0.046,-0.078,-0.032,0.062,-0.007,-0.055,0.063,0.011,-0.074,-0.098,-0.115,-0.104
-0.057,-0.073,-0.016,0.065,-0.02,-0.044,0.026,0.018,-0.072,-0.102,-0.117,-0.107
0.0,-0.067,-0.067,0.034,0.034,-0.067,0.026,0.046,-0.067,-0.067,-0.088,-0.081
0.069,-0.015,-0.084,-0.027,0.077,-0.049,0.033,0.077,-0.044,-0.03,-0.064,-0.063
0.081,0.007,-0.074,-0.043,0.077,-0.033,0.07,0.092,-0.017,-0.031,-0.075,-0.081
0.041,-0.037,-0.078,-0.001,0.06,-0.057,0.097,0.089,-0.016,-0.023,-0.071,-0.08
0.02,-0.063,-0.082,0.022,0.051,-0.072,0.085,0.06,-0.055,-0.048,-0.064,-0.08
0.006,-0.075,-0.081,0.034,0.043,-0.077,0.093,0.021,-0.078,-0.078,-0.073,-0.079
0.001,-0.065,-0.065,0.032,0.033,-0.065,0.089,-0.013,-0.087,-0.093,-0.105,-0.085
-0.005,-0.081,-0.076,0.043,0.036,-0.078,0.09,-0.021,-0.087,-0.098,-0.134,-0.108
-0.045,-0.077,-0.032,0.061,-0.006,-0.054,0.086,-0.02,-0.092,-0.108,-0.124,-0.11
-0.045,-0.078,-0.033,0.062,-0.005,-0.055,0.074,-0.019,-0.104,-0.12,-0.126,-0.109
-0.046,-0.071,-0.025,0.058,-0.01,-0.048,0.076,-0.022,-0.086,-0.115,-0.122,-0.112
-0.05,-0.071,-0.021,0.06,-0.014,-0.046,0.057,-0.024,-0.094,-0.106,-0.115,-0.107
-0.075,-0.097,-0.023,0.086,-0.026,-0.06,0.072,0.032,-0.063,-0.1,-0.15,-0.136
-0.057,-0.026,0.032,0.041,-0.044,0.003,0.027,0.01,0.046,0.069,-0.023,-0.079
0.14,0.065,-0.075,-0.102,0.107,-0.005,-0.172,-0.353,0.012,0.437,0.563,0.4
0.458,0.403,-0.056,-0.43,0.257,0.173,-0.488,-0.976,-0.294,0.772,1.481,1.363
0.573,0.586,0.013,-0.58,0.28,0.3,-0.598,-1.278,-0.819,0.57,1.39,1.644
0.151,0.263,0.112,-0.207,0.019,0.187,-0.318,-1.218,-1.319,-0.413,0.144,0.646
-0.262,0.001,0.263,0.13,-0.262,0.132,-0.135,-1.147,-1.269,-0.951,-0.543,-0.166
-0.242,-0.094,0.148,0.168,-0.195,0.027,0.024,-0.753,-0.723,-0.597,-0.459,-0.242
-0.145,-0.067,0.078,0.106,-0.111,0.005,0.169,-0.243,-0.243,-0.252,-0.259,-0.187
-0.095,-0.032,0.063,0.063,-0.078,0.015,0.134,-0.035,-0.035,-0.112,-0.15,-0.138
-0.048,-0.025,0.023,0.036,-0.036,-0.001,0.128,0.045,0.004,-0.075,-0.131,-0.119
-0.058,-0.017,0.041,0.037,-0.05,0.012,0.099,0.073,0.044,-0.049,-0.112,-0.105
-0.064,-0.038,0.026,0.051,-0.044,-0.006,0.079,0.094,0.059,-0.025,-0.11,-0.092
-0.043,-0.026,0.017,0.034,-0.03,-0.004,0.072,0.106,0.064,-0.015,-0.093,-0.085
-0.02,-0.015,0.005,0.018,-0.013,-0.005,0.062,0.115,0.087,0.002,-0.065,-0.075
0.019,-0.005,-0.023,-0.007,0.021,-0.014,0.053,0.124,0.082,0.009,-0.047,-0.069
0.012,0.005,-0.007,-0.009,0.01,-0.001,0.023,0.123,0.092,0.02,-0.04,-0.06
0.018,0.013,-0.005,-0.015,0.011,0.004,-0.014,0.136,0.097,0.032,-0.032,-0.053
0.038,0.012,-0.026,-0.025,0.032,-0.007,0.009,0.144,0.104,0.048,-0.025,-0.042
0.033,0.036,0.003,-0.035,0.014,0.02,0.07,0.162,0.132,0.067,-0.014,-0.033
0.066,0.062,-0.005,-0.064,0.035,0.028,0.061,0.183,0.161,0.09,0.011,-0.019
0.084,0.056,-0.028,-0.069,0.056,0.013,0.052,0.21,0.204,0.123,0.029,0.006
0.063,0.06,-0.004,-0.061,0.033,0.028,0.044,0.236,0.247,0.16,0.051,0.035
0.093,0.071,-0.022,-0.081,0.057,0.024,0.02,0.281,0.3,0.21,0.085,0.056
0.115,0.099,-0.015,-0.107,0.065,0.042,-0.009,0.339,0.365,0.267,0.127,0.09
0.143,0.137,-0.006,-0.14,0.074,0.065,-0.048,0.383,0.429,0.325,0.182,0.141
0.196,0.188,-0.008,-0.191,0.102,0.09,-0.055,0.42,0.498,0.393,0.245,0.198
0.208,0.205,-0.002,-0.206,0.105,0.101,-0.057,0.443,0.546,0.447,0.303,0.253
0.208,0.222,0.014,-0.215,0.097,0.118,-0.061,0.457,0.578,0.478,0.342,0.286
0.198,0.281,0.083,-0.24,0.058,0.182,-0.076,0.433,0.573,0.472,0.342,0.307
0.215,0.279,0.064,-0.247,0.075,0.171,-0.099,0.382,0.525,0.455,0.334,0.307
0.196,0.247,0.052,-0.222,0.072,0.149,-0.077,0.317,0.444,0.397,0.309,0.267
0.142,0.186,0.045,-0.164,0.048,0.115,-0.037,0.241,0.337,0.301,0.241,0.199
0.093,0.117,0.023,-0.105,0.035,0.07,-0.017,0.18,0.243,0.207,0.155,0.123
0.058,0.071,0.014,-0.065,0.022,0.042,0.02,0.132,0.166,0.121,0.079,0.055
0.047,0.058,0.011,-0.052,0.018,0.034,0.066,0.106,0.089,0.064,0.017,0.005
0.009,0.021,0.012,-0.015,-0.001,0.016,0.077,0.089,0.046,0.017,-0.029,-0.03
-0.026,-0.049,-0.023,0.038,-0.002,-0.036,0.073,0.076,0.03,-0.016,-0.048,-0.062
-0.059,-0.045,0.014,0.052,-0.036,-0.015,0.08,0.065,0.003,-0.037,-0.068,-0.08
-0.045,-0.039,0.006,0.042,-0.025,-0.016,0.08,0.057,-0.011,-0.04,-0.08,-0.08
-0.024,-0.048,-0.024,0.037,0.0,-0.036,0.08,0.051,-0.025,-0.05,-0.09,-0.098
-0.056,-0.061,-0.004,0.059,-0.026,-0.032,0.09,0.044,-0.038,-0.063,-0.102,-0.107
-0.052,-0.046,0.007,0.049,-0.029,-0.019,0.09,0.037,-0.031,-0.058,-0.099,-0.104
-0.04,-0.038,0.002,0.039,-0.021,-0.018,0.078,0.031,-0.03,-0.061,-0.101,-0.103
-0.058,-0.066,-0.008,0.062,-0.025,-0.037,0.072,0.042,-0.026,-0.059,-0.1,-0.099
-0.057,-0.061,-0.004,0.059,-0.026,-0.032,0.065,0.046,-0.024,-0.061,-0.1,-0.101
-0.063,-0.071,-0.007,0.067,-0.028,-0.039,0.064,0.041,-0.026,-0.055,-0.107,-0.095
-0.054,-0.073,-0.02,0.064,-0.017,-0.046,0.077,0.039,-0.024,-0.054,-0.111,-0.1
-0.03,-0.04,-0.009,0.035,-0.01,-0.024,0.053,0.035,-0.026,-0.071,-0.11,-0.111
-0.02,-0.026,-0.006,0.023,-0.007,-0.016,0.031,0.034,-0.024,-0.069,-0.11,-0.11
0.013,-0.012,-0.024,0.0,0.019,-0.018,0.064,0.031,-0.026,-0.071,-0.11,-0.11
0.006,-0.002,-0.008,-0.002,0.007,-0.004,0.067,0.029,-0.025,-0.07,-0.111,-0.11
-0.009,-0.022,-0.014,0.016,0.003,-0.018,0.034,0.03,-0.031,-0.067,-0.115,-0.11
-0.012,-0.026,-0.013,0.019,0.001,-0.019,0.053,0.03,-0.058,-0.089,-0.115,-0.108
-0.007,-0.015,-0.009,0.011,0.001,-0.012,0.039,0.03,-0.068,-0.098,-0.116,-0.105
0.02,0.003,-0.017,-0.011,0.019,-0.007,0.013,0.028,-0.067,-0.098,-0.12,-0.105
-0.011,-0.008,0.004,0.01,-0.007,-0.002,0.057,0.023,-0.073,-0.102,-0.12,-0.106
-0.032,-0.032,0.0,0.032,-0.016,-0.016,0.065,0.02,-0.074,-0.105,-0.117,-0.102
-0.034,-0.022,0.012,0.028,-0.023,-0.005,0.055,0.017,-0.077,-0.104,-0.115,-0.114
-0.057,-0.019,0.038,0.038,-0.047,0.009,0.075,0.012,-0.082,-0.1,-0.111,-0.132
-0.037,-0.013,0.023,0.025,-0.03,0.005,0.08,0.01,-0.089,-0.1,-0.11,-0.129
-0.02,-0.006,0.014,0.013,-0.017,0.004,0.075,0.01,-0.093,-0.1,-0.105,-0.132
-0.036,-0.009,0.026,0.022,-0.031,0.008,0.08,0.01,-0.096,-0.1,-0.106,-0.136
-0.041,-0.02,0.021,0.03,-0.031,0.001,0.08,0.01,-0.099,-0.1,-0.118,-0.134
-0.041,-0.028,0.013,0.034,-0.026,-0.007,0.08,0.01,-0.102,-0.103,-0.121,-0.132
-0.025,-0.021,0.004,0.023,-0.014,-0.009,0.08,0.01,-0.104,-0.106,-0.119,-0.127
-0.02,-0.03,-0.011,0.025,-0.004,-0.02,0.08,0.008,-0.107,-0.11,-0.12,-0.125
-0.003,-0.009,-0.006,0.006,0.002,-0.008,0.078,0.001,-0.11,-0.109,-0.12,-0.12
0.026,0.022,-0.005,-0.024,0.015,0.008,0.074,-0.006,-0.113,-0.105,-0.119,-0.116
-0.007,0.015,0.022,-0.004,-0.015,0.018,0.072,-0.012,-0.115,-0.103,-0.116,-0.114
-0.042,-0.006,0.036,0.024,-0.039,0.015,0.069,-0.02,-0.119,-0.098,-0.11,-0.108
-0.066,-0.038,0.028,0.052,-0.046,-0.005,0.066,-0.024,-0.12,-0.114,-0.118,-0.121
-0.051,-0.016,0.035,0.033,-0.043,0.01,0.065,-0.021,-0.116,-0.133,-0.127,-0.137
-0.023,0.0,0.023,0.011,-0.023,0.011,0.042,-0.016,-0.114,-0.127,-0.124,-0.134
-0.023,-0.012,0.011,0.017,-0.017,0.0,0.001,-0.014,-0.115,-0.126,-0.126,-0.136
-0.01,-0.017,-0.008,0.014,-0.001,-0.012,-0.013,-0.009,-0.11,-0.123,-0.125,-0.135
-0.027,-0.041,-0.015,0.035,-0.006,-0.028,-0.035,-0.005,-0.109,-0.119,-0.126,-0.136
-0.034,-0.029,0.004,0.031,-0.019,-0.012,-0.05,-0.003,-0.11,-0.122,-0.12,-0.132
-0.047,-0.041,0.006,0.044,-0.026,-0.017,-0.011,0.005,-0.108,-0.125,-0.112,-0.122
-0.012,-0.024,-0.012,0.018,0.001,-0.018,0.015,0.009,-0.114,-0.126,-0.106,-0.112
0.046,0.05,0.003,-0.048,0.021,0.026,0.049,0.034,-0.085,-0.1,-0.099,-0.102
0.046,0.058,0.012,-0.052,0.017,0.034,0.073,0.071,-0.047,-0.072,-0.095,-0.095
0.063,0.052,-0.01,-0.057,0.036,0.021,0.045,0.083,-0.042,-0.079,-0.095,-0.095
0.06,0.039,-0.021,-0.05,0.04,0.009,0.038,0.061,-0.054,-0.086,-0.095,-0.096
0.046,0.014,-0.032,-0.03,0.039,-0.009,0.042,0.021,-0.074,-0.089,-0.094,-0.092
0.017,-0.015,-0.032,-0.001,0.025,-0.023,0.044,0.005,-0.11,-0.113,-0.108,-0.106
-0.006,-0.019,-0.013,0.013,0.004,-0.016,0.047,0.003,-0.137,-0.123,-0.124,-0.118
-0.031,0.014,0.045,0.008,-0.038,0.029,0.053,-0.007,-0.134,-0.14,-0.137,-0.14
-0.048,0.0,0.048,0.024,-0.048,0.024,0.056,-0.018,-0.136,-0.144,-0.141,-0.153
-0.024,-0.03,-0.006,0.027,-0.009,-0.018,0.06,-0.031,-0.135,-0.133,-0.139,-0.149
-0.045,-0.026,0.019,0.036,-0.032,-0.004,0.068,-0.044,-0.146,-0.133,-0.141,-0.151
-0.052,-0.037,0.014,0.045,-0.033,-0.012,0.079,-0.01,-0.116,-0.122,-0.137,-0.149
-0.045,0.015,0.06,0.015,-0.053,0.037,0.08,0.037,-0.042,-0.079,-0.111,-0.155
0.052,0.063,0.011,-0.058,0.021,0.036,-0.047,-0.125,0.023,0.258,0.23,0.081
0.344,0.267,-0.077,-0.305,0.21,0.095,-0.353,-0.665,-0.173,0.661,1.161,0.932
0.573,0.623,0.05,-0.598,0.262,0.336,-0.615,-1.123,-0.601,0.787,1.721,1.709
0.355,0.502,0.147,-0.429,0.104,0.324,-0.45,-1.088,-1.006,0.179,0.799,1.119
-0.124,0.184,0.309,-0.03,-0.216,0.246,-0.143,-0.995,-1.274,-0.798,-0.352,0.009
-0.245,0.047,0.292,0.099,-0.269,0.169,-0.05,-0.872,-1.022,-0.825,-0.531,-0.264
-0.146,-0.018,0.128,0.081,-0.137,0.055,0.044,-0.455,-0.493,-0.409,-0.339,-0.208
-0.088,0.008,0.095,0.039,-0.092,0.051,0.058,-0.119,-0.161,-0.192,-0.179,-0.185
-0.025,0.034,0.059,-0.005,-0.043,0.047,0.006,-0.017,-0.057,-0.085,-0.126,-0.148
-0.01,0.056,0.066,-0.023,-0.038,0.06,-0.017,0.032,-0.03,-0.071,-0.112,-0.136
-0.009,0.05,0.059,-0.021,-0.035,0.054,-0.047,0.056,0.009,-0.036,-0.087,-0.114
-0.03,0.019,0.048,0.005,-0.039,0.033,-0.006,0.075,0.025,-0.038,-0.08,-0.11
0.001,0.049,0.048,-0.026,-0.023,0.048,0.032,0.087,0.039,-0.015,-0.061,-0.096
0.038,0.067,0.029,-0.053,0.004,0.048,0.033,0.091,0.038,-0.003,-0.049,-0.088
0.025,0.06,0.035,-0.043,-0.006,0.047,0.048,0.1,0.059,0.005,-0.031,-0.079
0.037,0.108,0.071,-0.073,-0.017,0.089,0.042,0.107,0.068,0.014,-0.024,-0.071
0.027,0.088,0.061,-0.058,-0.018,0.074,0.032,0.114,0.078,0.031,-0.014,-0.063
0.024,0.068,0.044,-0.046,-0.01,0.055,0.024,0.123,0.099,0.058,-0.008,-0.056
0.049,0.093,0.044,-0.072,0.002,0.069,0.009,0.143,0.115,0.066,0.02,-0.038
0.055,0.087,0.032,-0.072,0.012,0.059,-0.014,0.159,0.154,0.101,0.055,-0.012
0.082,0.115,0.033,-0.099,0.024,0.074,-0.038,0.176,0.181,0.131,0.064,-0.004
0.117,0.135,0.018,-0.127,0.049,0.077,-0.04,0.213,0.228,0.172,0.097,0.03
0.116,0.149,0.033,-0.132,0.041,0.091,-0.029,0.255,0.297,0.239,0.155,0.075
0.117,0.186,0.069,-0.151,0.023,0.127,-0.029,0.3,0.359,0.3,0.208,0.122
0.154,0.224,0.07,-0.189,0.042,0.147,-0.041,0.339,0.422,0.362,0.262,0.179
0.191,0.252,0.061,-0.222,0.065,0.156,-0.07,0.363,0.477,0.424,0.329,0.236
0.201,0.286,0.085,-0.244,0.058,0.185,-0.116,0.38,0.512,0.476,0.38,0.285
0.197,0.322,0.125,-0.26,0.036,0.223,-0.141,0.375,0.517,0.491,0.401,0.304
