0.114,-0.246,-0.36,0.066,0.237,-0.303,-0.703,-1.555,-0.907,-0.559,-0.281,0.118
0.04,-0.32,-0.36,0.14,0.2,-0.339,-0.732,-1.524,-1.008,-0.664,-0.397,0.018
0.041,-0.253,-0.294,0.106,0.168,-0.273,-0.499,-0.861,-0.638,-0.448,-0.287,-0.055
-0.023,-0.194,-0.171,0.109,0.075,-0.183,-0.146,-0.297,-0.229,-0.176,-0.128,-0.063
-0.033,-0.146,-0.113,0.09,0.04,-0.129,0.027,-0.026,-0.04,-0.035,-0.034,-0.045
0.014,-0.086,-0.099,0.036,0.057,-0.092,0.056,0.031,0.014,-0.005,-0.007,-0.04
-0.028,-0.14,-0.112,0.084,0.042,-0.125,0.088,0.078,0.032,0.006,0.005,-0.04
-0.043,-0.146,-0.103,0.095,0.03,-0.124,0.09,0.097,0.014,0.007,0.01,-0.04
-0.043,-0.113,-0.07,0.078,0.014,-0.091,0.091,0.099,0.031,-0.018,0.001,-0.058
-0.048,-0.112,-0.064,0.08,0.008,-0.088,0.088,0.131,0.056,-0.015,0.026,-0.061
0.024,-0.09,-0.113,0.033,0.069,-0.101,0.091,0.125,0.047,-0.002,0.043,-0.044
-0.011,-0.115,-0.104,0.063,0.047,-0.109,0.107,0.133,0.053,0.012,0.038,-0.042
-0.026,-0.127,-0.101,0.076,0.038,-0.113,0.105,0.135,0.048,0.022,0.042,-0.033
0.025,-0.071,-0.096,0.023,0.061,-0.083,0.105,0.135,0.054,0.019,0.038,-0.032
-0.02,-0.077,-0.056,0.049,0.018,-0.066,0.107,0.135,0.069,0.046,0.043,-0.027
-0.012,-0.09,-0.078,0.051,0.033,-0.084,0.104,0.126,0.069,0.042,0.036,-0.019
0.0,-0.106,-0.106,0.053,0.053,-0.105,0.104,0.176,0.091,0.055,0.046,-0.038
0.025,-0.064,-0.089,0.02,0.057,-0.076,0.093,0.159,0.091,0.04,0.029,-0.038
0.036,-0.034,-0.069,-0.001,0.053,-0.051,0.098,0.146,0.098,0.021,0.019,-0.052
-0.014,-0.089,-0.075,0.052,0.031,-0.082,0.105,0.225,0.123,0.079,0.075,-0.029
0.023,-0.012,-0.035,-0.005,0.029,-0.023,0.08,0.224,0.116,0.081,0.084,-0.004
0.027,-0.006,-0.033,-0.011,0.03,-0.019,0.099,0.27,0.162,0.102,0.094,-0.008
0.048,0.024,-0.024,-0.036,0.036,0.0,0.105,0.298,0.185,0.123,0.125,0.014
0.133,0.112,-0.021,-0.123,0.077,0.045,0.085,0.285,0.195,0.15,0.154,0.039
0.176,0.096,-0.08,-0.136,0.128,0.007,0.07,0.313,0.238,0.202,0.179,0.079
0.189,0.11,-0.079,-0.149,0.133,0.015,0.048,0.289,0.237,0.2,0.199,0.081
0.179,0.122,-0.057,-0.15,0.118,0.032,0.044,0.278,0.228,0.196,0.209,0.085
0.168,0.117,-0.05,-0.142,0.109,0.033,0.043,0.276,0.217,0.185,0.209,0.093
0.161,0.106,-0.055,-0.133,0.108,0.025,0.037,0.251,0.208,0.178,0.193,0.072
0.162,0.088,-0.074,-0.125,0.118,0.007,0.038,0.212,0.188,0.171,0.167,0.069
0.156,0.082,-0.074,-0.118,0.115,0.004,0.034,0.168,0.166,0.15,0.123,0.044
0.081,0.021,-0.06,-0.051,0.07,-0.02,0.037,0.138,0.132,0.11,0.088,0.004
0.048,-0.037,-0.085,-0.005,0.067,-0.061,0.084,0.108,0.101,0.069,0.094,-0.006
0.056,-0.035,-0.092,-0.01,0.074,-0.064,0.092,0.073,0.095,0.068,0.057,-0.03
0.029,-0.089,-0.118,0.03,0.074,-0.103,0.075,0.068,0.067,0.06,0.032,-0.05
0.03,-0.078,-0.108,0.024,0.07,-0.093,0.069,0.07,0.057,0.044,0.035,-0.053
0.031,-0.055,-0.086,0.012,0.059,-0.07,0.054,0.064,0.059,0.036,0.024,-0.057
0.033,-0.099,-0.132,0.033,0.083,-0.115,0.054,0.063,0.05,0.024,0.023,-0.053
-0.011,-0.102,-0.091,0.057,0.04,-0.096,0.048,0.058,0.051,0.016,0.015,-0.051
-0.015,-0.092,-0.077,0.054,0.031,-0.084,0.046,0.055,0.044,0.009,0.013,-0.049
-0.03,-0.105,-0.075,0.068,0.023,-0.09,0.041,0.055,0.042,0.005,0.007,-0.054
-0.04,-0.109,-0.069,0.075,0.015,-0.089,0.04,0.055,0.039,-0.002,0.005,-0.059
0.03,-0.063,-0.093,0.017,0.061,-0.078,0.062,0.056,0.025,-0.003,0.024,-0.05
0.046,-0.055,-0.101,0.005,0.074,-0.078,0.065,0.053,0.046,0.01,0.02,-0.045
0.013,-0.083,-0.096,0.036,0.055,-0.089,0.059,0.061,0.064,0.031,0.018,-0.036
-0.031,-0.071,-0.04,0.051,0.004,-0.055,0.057,0.072,0.056,0.042,0.049,-0.019
0.01,-0.052,-0.062,0.021,0.036,-0.056,0.052,0.067,0.055,0.039,0.05,-0.015
0.026,-0.058,-0.083,0.016,0.055,-0.07,0.05,0.065,0.052,0.041,0.046,-0.013
0.014,-0.053,-0.067,0.019,0.041,-0.06,0.044,0.062,0.048,0.039,0.043,-0.026
0.029,-0.039,-0.068,0.006,0.048,-0.054,0.038,0.059,0.056,0.041,0.04,-0.036
-0.002,-0.061,-0.059,0.032,0.029,-0.059,0.03,0.055,0.073,0.049,0.039,-0.028
0.011,-0.045,-0.056,0.018,0.033,-0.05,0.025,0.032,0.069,0.045,0.034,-0.025
0.076,0.016,-0.06,-0.045,0.068,-0.022,0.016,0.029,0.046,0.026,0.031,-0.02
0.049,-0.042,-0.091,-0.003,0.07,-0.066,0.017,0.025,0.039,0.018,0.016,-0.015
0.01,-0.073,-0.083,0.032,0.047,-0.078,0.039,0.02,0.061,0.037,0.038,-0.017
-0.011,-0.066,-0.054,0.039,0.022,-0.06,0.04,0.038,0.067,0.041,0.058,-0.046
-0.049,-0.092,-0.043,0.071,-0.003,-0.068,0.04,0.037,0.064,0.04,0.049,-0.047
0.036,-0.045,-0.081,0.005,0.058,-0.063,0.04,0.028,0.061,0.039,0.044,-0.033
0.022,-0.074,-0.096,0.026,0.059,-0.084,0.04,0.026,0.059,0.042,0.041,-0.045
-0.02,-0.091,-0.071,0.056,0.025,-0.08,0.042,0.017,0.061,0.035,0.03,-0.045
0.035,-0.052,-0.087,0.009,0.061,-0.069,0.045,0.017,0.065,0.034,0.039,-0.045
-0.005,-0.04,-0.035,0.022,0.015,-0.037,0.074,0.058,0.091,0.073,0.054,-0.044
0.015,0.012,-0.003,-0.013,0.009,0.004,0.083,0.073,0.102,0.081,0.052,-0.029
0.08,0.047,-0.033,-0.063,0.057,0.007,0.067,0.062,0.091,0.067,0.066,-0.018
0.062,0.071,0.009,-0.067,0.026,0.04,0.064,0.064,0.092,0.069,0.069,0.009
0.134,0.105,-0.029,-0.12,0.081,0.038,0.051,0.055,0.113,0.092,0.09,0.053
0.171,0.113,-0.058,-0.142,0.114,0.027,0.047,0.056,0.116,0.098,0.101,0.055
0.089,0.064,-0.025,-0.076,0.057,0.019,0.033,0.046,0.099,0.083,0.086,0.051
0.05,-0.003,-0.053,-0.023,0.052,-0.028,0.013,0.04,0.084,0.076,0.082,0.037
0.034,-0.038,-0.072,0.003,0.053,-0.055,0.032,0.03,0.047,0.048,0.052,-0.007
0.01,-0.059,-0.069,0.025,0.039,-0.064,0.017,0.02,0.029,0.025,0.026,-0.015
-0.012,-0.07,-0.058,0.041,0.023,-0.064,0.009,0.012,0.014,0.003,0.009,-0.03
-0.008,-0.086,-0.078,0.048,0.035,-0.082,0.019,-0.008,0.014,-0.017,0.008,-0.032
-0.033,-0.108,-0.076,0.071,0.022,-0.092,0.018,-0.015,0.017,-0.008,0.021,-0.023
-0.037,-0.134,-0.097,0.086,0.03,-0.115,0.038,-0.044,-0.001,0.008,0.035,-0.028
-0.021,-0.111,-0.089,0.066,0.035,-0.1,0.058,-0.026,0.005,0.001,0.033,-0.061
-0.036,-0.105,-0.069,0.071,0.017,-0.087,0.017,-0.054,-0.031,-0.03,-0.003,-0.109
-0.135,-0.092,0.043,0.113,-0.089,-0.025,0.112,0.09,0.072,0.011,0.007,-0.093
-0.173,-0.104,0.069,0.139,-0.12,-0.018,0.246,0.228,0.117,0.011,-0.023,-0.12
0.339,-0.054,-0.393,-0.142,0.366,-0.224,-0.076,0.063,0.288,0.292,0.266,0.092
0.583,0.025,-0.558,-0.304,0.57,-0.266,-0.519,-0.542,0.124,0.278,0.388,0.342
0.133,-0.221,-0.354,0.044,0.244,-0.287,-0.737,-1.467,-0.865,-0.517,-0.227,0.125
-0.019,-0.335,-0.316,0.177,0.149,-0.325,-0.674,-1.301,-0.97,-0.648,-0.394,-0.047
-0.03,-0.21,-0.18,0.12,0.075,-0.195,-0.341,-0.54,-0.419,-0.304,-0.189,-0.068
-0.06,-0.125,-0.065,0.092,0.003,-0.095,-0.095,-0.18,-0.155,-0.143,-0.107,-0.097
-0.024,-0.084,-0.059,0.054,0.018,-0.071,-0.001,0.017,0.003,-0.027,-0.02,-0.074
-0.034,-0.101,-0.066,0.068,0.016,-0.083,0.038,0.034,-0.008,-0.03,-0.016,-0.076
-0.037,-0.078,-0.041,0.058,0.002,-0.059,0.07,0.064,0.018,-0.002,0.011,-0.062
-0.046,-0.088,-0.042,0.067,-0.001,-0.065,0.077,0.068,0.028,-0.003,-0.004,-0.06
-0.032,-0.084,-0.051,0.058,0.01,-0.067,0.073,0.073,0.038,0.006,-0.014,-0.061
-0.047,-0.067,-0.019,0.057,-0.014,-0.042,0.077,0.074,0.035,0.019,0.005,-0.057
-0.028,-0.1,-0.072,0.064,0.022,-0.086,0.073,0.063,0.024,0.007,0.021,-0.056
-0.037,-0.101,-0.064,0.07,0.014,-0.082,0.076,0.068,0.025,0.008,0.019,-0.054
-0.053,-0.091,-0.039,0.072,-0.007,-0.065,0.069,0.054,0.012,0.023,0.011,-0.059
-0.05,-0.088,-0.038,0.069,-0.006,-0.063,0.07,0.078,0.031,0.026,0.01,-0.06
-0.053,-0.071,-0.018,0.062,-0.017,-0.044,0.07,0.091,0.047,0.023,0.002,-0.06
-0.056,-0.071,-0.014,0.064,-0.021,-0.042,0.069,0.089,0.033,0.027,0.002,-0.06
-0.057,-0.059,-0.002,0.058,-0.027,-0.03,0.073,0.106,0.032,0.021,0.01,-0.058
-0.032,-0.069,-0.037,0.05,0.003,-0.052,0.055,0.123,0.073,0.046,0.034,-0.048
-0.044,-0.018,0.026,0.031,-0.035,0.004,0.071,0.142,0.077,0.046,0.037,-0.027
-0.02,0.018,0.039,0.001,-0.03,0.028,0.095,0.188,0.102,0.057,0.058,0.011
-0.025,-0.002,0.022,0.013,-0.024,0.01,0.088,0.219,0.131,0.097,0.085,0.038
0.019,0.067,0.048,-0.043,-0.015,0.058,0.08,0.229,0.141,0.111,0.089,0.031
0.079,0.057,-0.022,-0.068,0.05,0.017,0.058,0.261,0.174,0.137,0.125,0.048
0.082,0.128,0.046,-0.105,0.018,0.087,0.051,0.289,0.189,0.168,0.154,0.079
0.209,0.208,0.0,-0.208,0.104,0.104,0.051,0.298,0.229,0.209,0.166,0.08
0.215,0.186,-0.029,-0.2,0.122,0.078,0.043,0.28,0.239,0.211,0.198,0.107
0.14,0.184,0.044,-0.162,0.048,0.114,0.029,0.258,0.221,0.195,0.213,0.125
0.197,0.166,-0.03,-0.181,0.113,0.068,0.014,0.231,0.212,0.19,0.191,0.107
0.162,0.159,-0.003,-0.161,0.082,0.078,0.013,0.19,0.192,0.181,0.178,0.102
0.09,0.11,0.02,-0.1,0.035,0.065,0.006,0.143,0.156,0.162,0.154,0.08
0.115,0.105,-0.009,-0.11,0.062,0.048,0.009,0.104,0.116,0.102,0.1,0.04
0.059,0.017,-0.042,-0.038,0.051,-0.013,0.052,0.088,0.085,0.071,0.063,0.022
-0.015,-0.037,-0.023,0.026,0.004,-0.03,0.058,0.041,0.045,0.059,0.047,0.011
-0.004,-0.014,-0.01,0.01,0.003,-0.012,0.043,0.018,0.035,0.044,0.043,0.001
-0.003,-0.076,-0.073,0.04,0.035,-0.074,0.052,0.021,0.041,0.041,0.04,-0.02
0.018,-0.065,-0.083,0.024,0.051,-0.074,0.05,0.008,0.034,0.033,0.036,-0.054
0.03,-0.053,-0.083,0.012,0.057,-0.067,0.04,0.006,0.028,0.029,0.034,-0.057
-0.014,-0.072,-0.058,0.043,0.022,-0.065,0.036,-0.002,0.02,0.016,0.022,-0.051
-0.017,-0.069,-0.051,0.044,0.017,-0.06,0.033,-0.006,0.014,0.006,0.007,-0.047
-0.039,-0.03,0.009,0.034,-0.024,-0.01,0.03,-0.01,0.008,-0.001,-0.01,-0.042
-0.068,-0.041,0.027,0.054,-0.047,-0.007,0.028,-0.016,0.005,-0.008,-0.025,-0.038
-0.054,-0.065,-0.011,0.06,-0.022,-0.038,0.023,-0.019,0.0,-0.014,-0.021,-0.033
-0.05,-0.051,0.0,0.051,-0.024,-0.025,0.033,-0.016,0.007,-0.02,-0.01,-0.03
-0.032,-0.036,-0.004,0.034,-0.013,-0.02,0.05,-0.002,0.019,-0.009,-0.001,-0.022
-0.023,0.004,0.027,0.01,-0.025,0.015,0.043,-0.017,0.009,-0.003,0.004,-0.025
-0.004,-0.04,-0.036,0.022,0.017,-0.038,0.034,-0.014,0.035,0.029,0.005,0.005
-0.014,-0.061,-0.047,0.037,0.017,-0.053,0.032,0.027,0.065,0.058,0.02,0.029
-0.017,-0.018,-0.001,0.017,-0.008,-0.009,0.017,0.018,0.052,0.043,0.027,-0.01
-0.011,0.019,0.03,-0.004,-0.02,0.024,0.03,0.013,0.039,0.036,0.026,-0.021
-0.022,0.011,0.032,0.005,-0.027,0.021,0.018,0.005,0.036,0.024,0.022,-0.02
-0.037,-0.033,0.005,0.035,-0.021,-0.014,0.014,-0.005,0.046,0.019,0.02,-0.019
-0.031,0.01,0.041,0.01,-0.036,0.026,0.048,0.019,0.04,0.038,0.039,-0.016
0.0,-0.014,-0.014,0.007,0.007,-0.014,0.033,0.003,0.035,0.035,0.045,-0.013
-0.018,-0.028,-0.01,0.023,-0.004,-0.019,0.005,-0.026,0.032,0.013,0.037,-0.023
0.004,-0.009,-0.012,0.002,0.008,-0.01,-0.018,-0.041,0.024,0.029,0.035,-0.049
-0.016,-0.058,-0.041,0.037,0.013,-0.049,-0.02,-0.048,0.031,0.043,0.029,-0.043
-0.028,0.004,0.032,0.012,-0.03,0.019,0.003,-0.041,0.033,0.03,0.023,-0.032
-0.006,0.028,0.034,-0.011,-0.02,0.031,0.052,-0.018,0.049,0.046,0.033,-0.013
0.018,0.011,-0.007,-0.014,0.013,0.002,0.071,0.01,0.067,0.062,0.047,0.008
0.068,0.077,0.009,-0.072,0.03,0.042,0.053,0.037,0.08,0.075,0.067,0.033
0.032,0.11,0.078,-0.071,-0.023,0.094,0.063,0.05,0.087,0.076,0.074,0.029
0.06,0.127,0.067,-0.093,-0.004,0.096,0.019,0.008,0.083,0.066,0.065,0.004
0.067,0.131,0.063,-0.099,0.002,0.097,-0.036,-0.03,0.081,0.061,0.062,0.044
0.045,0.11,0.065,-0.077,-0.011,0.087,-0.035,-0.028,0.079,0.051,0.053,0.041
0.104,0.081,-0.024,-0.092,0.064,0.028,-0.035,-0.019,0.054,0.048,0.052,0.021
0.066,0.027,-0.039,-0.046,0.053,-0.006,-0.035,-0.061,0.007,0.036,0.036,0.025
-0.009,-0.047,-0.038,0.029,0.014,-0.042,-0.017,-0.066,0.022,0.028,0.023,-0.006
-0.042,-0.068,-0.026,0.055,-0.008,-0.046,-0.02,-0.063,0.012,0.01,0.005,-0.031
-0.039,-0.07,-0.03,0.055,-0.005,-0.05,-0.038,-0.089,-0.004,-0.001,-0.006,-0.035
-0.021,-0.083,-0.061,0.052,0.02,-0.072,-0.006,-0.054,-0.018,-0.032,-0.029,-0.032
-0.034,-0.061,-0.027,0.047,-0.003,-0.044,-0.008,-0.086,-0.058,-0.052,-0.05,-0.044
-0.029,-0.07,-0.04,0.05,0.006,-0.055,-0.022,-0.073,-0.023,-0.028,-0.038,-0.067
-0.03,-0.083,-0.053,0.057,0.012,-0.067,-0.019,-0.085,-0.051,-0.048,-0.057,-0.08
-0.126,-0.021,0.104,0.073,-0.115,0.041,0.105,0.06,0.05,0.004,-0.021,-0.07
-0.143,-0.059,0.084,0.101,-0.113,0.012,0.218,0.175,0.112,0.032,-0.012,-0.091
0.343,0.027,-0.316,-0.185,0.33,-0.144,-0.132,-0.073,0.266,0.28,0.259,0.119
0.58,0.072,-0.508,-0.325,0.544,-0.218,-0.581,-0.703,0.026,0.189,0.319,0.347
0.192,-0.236,-0.428,0.022,0.31,-0.332,-0.786,-1.562,-0.949,-0.574,-0.284,0.151
0.007,-0.302,-0.309,0.148,0.159,-0.305,-0.711,-1.319,-0.955,-0.644,-0.413,-0.023
0.006,-0.148,-0.154,0.071,0.081,-0.151,-0.337,-0.522,-0.395,-0.284,-0.185,-0.065
-0.003,-0.066,-0.063,0.034,0.03,-0.064,-0.068,-0.179,-0.157,-0.133,-0.107,-0.093
-0.062,-0.062,0.0,0.061,-0.031,-0.031,-0.017,-0.026,-0.039,-0.053,-0.052,-0.061
-0.033,-0.058,-0.025,0.046,-0.004,-0.042,0.026,-0.013,-0.043,-0.062,-0.058,-0.055
-0.058,-0.06,-0.002,0.059,-0.028,-0.031,0.036,0.039,0.003,-0.031,-0.031,-0.054
-0.111,-0.072,0.039,0.092,-0.075,-0.017,0.029,0.043,-0.017,-0.032,-0.033,-0.06
-0.036,-0.035,0.001,0.036,-0.019,-0.016,0.064,0.041,0.0,-0.01,-0.015,-0.045
-0.069,-0.052,0.017,0.061,-0.043,-0.017,0.044,0.034,-0.002,-0.016,-0.019,-0.05
-0.067,-0.053,0.014,0.06,-0.04,-0.019,0.055,0.057,0.006,-0.037,-0.045,-0.073
-0.091,-0.054,0.038,0.072,-0.064,-0.008,0.071,0.081,0.044,0.004,-0.02,-0.06
-0.117,-0.079,0.038,0.098,-0.077,-0.02,0.034,0.062,0.03,-0.007,-0.033,-0.064
-0.063,-0.041,0.022,0.052,-0.043,-0.009,0.048,0.06,0.038,-0.018,-0.032,-0.05
-0.067,-0.034,0.033,0.05,-0.05,0.0,0.067,0.045,0.03,-0.009,-0.019,-0.04
-0.072,-0.046,0.026,0.059,-0.049,-0.01,0.055,0.09,0.018,-0.011,-0.019,-0.061
-0.062,-0.003,0.059,0.032,-0.061,0.028,0.051,0.116,0.015,0.001,-0.005,-0.048
-0.093,-0.021,0.072,0.057,-0.082,0.025,0.045,0.12,0.037,0.012,0.002,-0.035
-0.087,-0.031,0.056,0.059,-0.072,0.012,0.046,0.152,0.07,0.044,0.03,-0.03
-0.019,0.04,0.059,-0.011,-0.039,0.049,0.037,0.168,0.079,0.032,0.016,-0.024
-0.012,0.065,0.077,-0.027,-0.045,0.071,0.034,0.204,0.098,0.036,0.022,-0.035
-0.013,0.068,0.081,-0.027,-0.047,0.074,0.073,0.246,0.145,0.111,0.096,-0.009
0.047,0.082,0.036,-0.065,0.005,0.059,0.059,0.244,0.153,0.117,0.106,0.037
0.067,0.139,0.072,-0.104,-0.003,0.105,0.03,0.253,0.164,0.136,0.12,0.066
0.104,0.217,0.113,-0.161,-0.004,0.165,0.017,0.271,0.193,0.172,0.163,0.097
0.191,0.222,0.031,-0.207,0.08,0.126,0.004,0.255,0.193,0.182,0.173,0.113
0.158,0.216,0.058,-0.187,0.049,0.137,-0.001,0.251,0.2,0.195,0.18,0.115
0.14,0.185,0.045,-0.162,0.047,0.115,-0.012,0.226,0.194,0.177,0.186,0.11
0.145,0.143,-0.001,-0.144,0.073,0.071,-0.011,0.185,0.16,0.154,0.157,0.09
0.063,0.119,0.056,-0.092,0.003,0.087,-0.01,0.16,0.127,0.121,0.115,0.075
0.044,0.072,0.028,-0.058,0.008,0.05,0.01,0.118,0.084,0.08,0.075,0.039
-0.002,0.044,0.046,-0.022,-0.024,0.045,-0.001,0.089,0.05,0.047,0.039,-0.001
-0.023,-0.009,0.014,0.016,-0.018,0.003,-0.024,0.055,0.05,0.033,0.037,0.008
-0.031,-0.057,-0.026,0.044,-0.002,-0.041,-0.007,0.028,0.026,0.02,0.03,-0.017
-0.054,-0.033,0.021,0.044,-0.037,-0.006,-0.007,0.017,-0.016,-0.015,0.005,-0.044
-0.059,-0.042,0.017,0.05,-0.038,-0.012,0.006,-0.003,-0.023,-0.033,-0.014,-0.038
-0.043,-0.048,-0.006,0.046,-0.018,-0.027,0.034,-0.03,-0.019,-0.029,-0.019,-0.043
-0.034,-0.037,-0.003,0.036,-0.015,-0.02,0.03,-0.007,-0.004,-0.029,-0.038,-0.041
-0.106,-0.068,0.038,0.087,-0.072,-0.015,0.025,0.005,-0.01,-0.024,-0.042,-0.039
-0.065,-0.06,0.005,0.063,-0.035,-0.027,0.017,-0.049,-0.045,-0.025,-0.039,-0.041
-0.052,-0.04,0.012,0.046,-0.032,-0.014,0.016,-0.043,-0.045,-0.016,-0.041,-0.04
-0.089,-0.016,0.073,0.052,-0.08,0.028,0.015,-0.03,-0.041,-0.006,-0.04,-0.039
-0.072,-0.013,0.059,0.042,-0.065,0.022,0.004,-0.027,-0.038,-0.027,-0.039,-0.048
-0.076,-0.036,0.039,0.056,-0.057,0.001,0.027,-0.008,-0.019,-0.032,-0.025,-0.049
-0.084,-0.021,0.063,0.052,-0.073,0.021,0.035,0.0,0.008,-0.002,-0.013,-0.035
-0.064,-0.02,0.043,0.042,-0.053,0.011,0.022,0.025,0.034,0.015,0.005,-0.021
-0.083,-0.044,0.04,0.063,-0.061,-0.002,0.019,0.036,0.034,0.006,0.006,-0.035
-0.109,-0.054,0.055,0.081,-0.081,0.0,0.008,0.03,0.025,0.016,0.016,-0.047
-0.018,-0.026,-0.008,0.022,-0.005,-0.017,0.002,0.024,0.02,0.025,0.026,-0.037
-0.016,-0.012,0.004,0.014,-0.01,-0.004,0.01,0.019,0.012,0.016,0.016,-0.035
-0.047,-0.006,0.041,0.026,-0.043,0.017,0.015,0.01,0.005,0.013,0.013,-0.029
-0.001,0.009,0.009,-0.004,-0.005,0.009,0.005,0.0,0.019,0.006,0.006,-0.026
-0.019,-0.01,0.009,0.014,-0.014,-0.001,-0.001,-0.011,0.025,0.002,0.002,-0.019
-0.041,0.002,0.043,0.019,-0.042,0.022,-0.007,-0.005,0.015,-0.014,-0.014,-0.028
-0.009,0.015,0.024,-0.003,-0.017,0.02,-0.015,0.007,0.011,-0.019,-0.021,-0.043
-0.082,-0.025,0.057,0.053,-0.069,0.016,-0.007,-0.016,0.007,-0.007,-0.01,-0.039
-0.1,0.0,0.099,0.05,-0.099,0.049,0.005,-0.031,0.002,-0.004,-0.009,-0.039
-0.041,0.036,0.077,0.002,-0.059,0.056,0.027,-0.013,0.002,0.007,0.008,-0.034
-0.088,0.003,0.091,0.042,-0.089,0.047,0.043,0.007,0.016,0.022,0.026,-0.036
0.014,0.079,0.065,-0.047,-0.026,0.072,0.028,0.039,0.042,0.04,0.039,-0.028
0.096,0.154,0.058,-0.125,0.019,0.106,0.019,0.033,0.067,0.057,0.054,-0.008
0.064,0.141,0.076,-0.103,-0.006,0.108,0.003,0.007,0.063,0.057,0.053,-0.003
0.031,0.123,0.093,-0.077,-0.031,0.107,-0.032,0.005,0.057,0.049,0.053,0.023
0.022,0.08,0.058,-0.051,-0.018,0.069,-0.043,-0.011,0.045,0.043,0.055,0.023
0.033,0.015,-0.017,-0.024,0.025,-0.001,-0.035,-0.025,0.014,0.022,0.03,-0.014
-0.052,-0.013,0.038,0.032,-0.045,0.012,-0.037,-0.054,-0.026,-0.004,-0.012,-0.038
-0.078,-0.009,0.07,0.043,-0.074,0.03,-0.03,-0.06,-0.045,-0.002,-0.022,-0.064
-0.136,-0.063,0.074,0.099,-0.105,0.005,-0.031,-0.07,-0.056,-0.025,-0.033,-0.082
-0.101,-0.069,0.032,0.085,-0.066,-0.019,-0.033,-0.06,-0.047,-0.034,-0.026,-0.073
-0.026,-0.098,-0.072,0.062,0.024,-0.084,-0.039,-0.06,-0.061,-0.066,-0.052,-0.093
-0.068,-0.05,0.018,0.059,-0.043,-0.016,-0.026,-0.065,-0.052,-0.074,-0.066,-0.098
-0.035,-0.047,-0.012,0.041,-0.011,-0.029,-0.008,-0.042,-0.078,-0.075,-0.068,-0.101
-0.072,-0.106,-0.034,0.089,-0.018,-0.07,-0.015,-0.039,-0.07,-0.057,-0.06,-0.1
-0.198,-0.038,0.16,0.118,-0.179,0.061,0.153,0.156,0.082,0.012,-0.027,-0.096
-0.045,-0.071,-0.027,0.058,-0.009,-0.049,0.13,0.131,0.122,0.057,0.006,-0.095
0.507,0.085,-0.422,-0.296,0.465,-0.168,-0.307,-0.236,0.234,0.299,0.314,0.174
0.485,0.027,-0.458,-0.256,0.471,-0.215,-0.68,-1.06,-0.348,-0.096,0.103,0.247
0.017,-0.294,-0.312,0.139,0.165,-0.303,-0.82,-1.665,-1.111,-0.735,-0.448,-0.004
-0.035,-0.268,-0.233,0.151,0.099,-0.25,-0.609,-1.039,-0.758,-0.52,-0.342,-0.074
-0.046,-0.137,-0.091,0.092,0.023,-0.114,-0.229,-0.374,-0.304,-0.224,-0.166,-0.1
-0.059,-0.071,-0.013,0.065,-0.023,-0.042,-0.054,-0.112,-0.115,-0.094,-0.096,-0.102
-0.136,-0.105,0.031,0.12,-0.083,-0.037,-0.006,-0.01,-0.052,-0.057,-0.06,-0.096
-0.178,-0.111,0.068,0.144,-0.123,-0.021,0.032,0.004,-0.053,-0.066,-0.067,-0.104
-0.088,-0.092,-0.004,0.09,-0.042,-0.047,0.02,0.063,-0.02,-0.046,-0.048,-0.097
-0.1,-0.071,0.029,0.085,-0.064,-0.021,0.027,0.046,-0.033,-0.053,-0.053,-0.101
-0.07,-0.056,0.014,0.063,-0.041,-0.021,0.046,0.033,0.0,-0.033,-0.041,-0.091
-0.057,-0.071,-0.014,0.064,-0.021,-0.042,0.038,0.033,-0.008,-0.034,-0.041,-0.091
-0.098,-0.044,0.054,0.071,-0.075,0.005,0.057,0.067,-0.025,-0.015,-0.033,-0.086
-0.108,-0.044,0.065,0.076,-0.086,0.01,0.043,0.056,-0.006,-0.026,-0.031,-0.082
-0.072,-0.035,0.037,0.054,-0.054,0.001,0.029,0.044,0.001,-0.045,-0.025,-0.08
-0.057,-0.035,0.022,0.046,-0.039,-0.006,0.038,0.056,-0.009,-0.036,-0.022,-0.08
-0.113,-0.077,0.036,0.095,-0.074,-0.02,0.035,0.082,-0.009,-0.024,-0.016,-0.08
-0.092,-0.041,0.051,0.067,-0.071,0.005,0.028,0.078,-0.009,-0.015,-0.019,-0.081
-0.049,0.022,0.072,0.013,-0.061,0.047,0.058,0.106,0.04,0.017,-0.027,-0.076
-0.099,-0.02,0.079,0.059,-0.089,0.029,0.066,0.151,0.067,0.039,-0.009,-0.059
-0.114,-0.033,0.08,0.073,-0.096,0.023,0.042,0.122,0.045,0.015,0.002,-0.027
-0.033,0.002,0.035,0.015,-0.034,0.019,0.043,0.169,0.078,0.041,0.045,-0.016
0.0,0.044,0.044,-0.022,-0.023,0.044,0.027,0.208,0.108,0.07,0.072,-0.021
0.002,0.095,0.093,-0.049,-0.046,0.094,0.018,0.212,0.124,0.071,0.062,0.005
-0.003,0.079,0.081,-0.038,-0.042,0.08,0.008,0.235,0.145,0.111,0.101,0.036
0.051,0.153,0.103,-0.102,-0.026,0.127,-0.006,0.232,0.153,0.144,0.134,0.062
0.162,0.226,0.065,-0.194,0.048,0.145,-0.03,0.227,0.167,0.146,0.156,0.066
0.161,0.21,0.049,-0.185,0.055,0.129,-0.055,0.223,0.169,0.156,0.18,0.082
0.11,0.21,0.1,-0.161,0.005,0.155,-0.049,0.217,0.156,0.158,0.163,0.093
0.079,0.148,0.069,-0.114,0.005,0.108,-0.043,0.191,0.145,0.141,0.148,0.083
0.125,0.127,0.002,-0.126,0.061,0.064,-0.033,0.153,0.13,0.125,0.144,0.084
0.084,0.092,0.008,-0.088,0.038,0.05,-0.019,0.118,0.104,0.1,0.101,0.041
0.004,0.054,0.05,-0.029,-0.023,0.052,-0.012,0.083,0.085,0.076,0.053,0.004
-0.025,0.034,0.06,-0.005,-0.043,0.047,-0.008,0.057,0.053,0.045,0.024,-0.005
-0.076,-0.026,0.05,0.051,-0.062,0.011,-0.013,0.038,0.019,0.014,0.015,-0.027
-0.028,-0.02,0.009,0.024,-0.018,-0.006,0.002,0.017,0.001,0.003,0.011,-0.044
-0.04,-0.034,0.006,0.037,-0.023,-0.013,0.032,0.004,-0.01,-0.001,-0.012,-0.057
-0.113,-0.038,0.076,0.075,-0.094,0.019,0.021,-0.009,-0.007,-0.006,-0.023,-0.065
-0.091,-0.009,0.081,0.05,-0.086,0.036,0.01,-0.021,-0.012,-0.01,-0.019,-0.066
-0.087,-0.02,0.067,0.054,-0.077,0.023,0.0,-0.024,-0.008,-0.014,-0.018,-0.064
-0.084,-0.006,0.078,0.045,-0.081,0.036,-0.015,-0.028,-0.014,-0.032,-0.033,-0.059
-0.041,-0.05,-0.009,0.046,-0.016,-0.03,0.007,0.008,0.001,-0.04,-0.043,-0.062
-0.074,-0.075,-0.001,0.075,-0.036,-0.038,0.018,0.029,0.006,-0.029,-0.038,-0.055
-0.064,-0.039,0.025,0.052,-0.045,-0.007,0.028,0.022,-0.006,-0.025,-0.041,-0.058
-0.098,-0.078,0.02,0.088,-0.059,-0.029,0.022,0.025,0.008,-0.017,-0.039,-0.072
-0.131,-0.064,0.066,0.097,-0.098,0.001,0.023,0.017,-0.02,-0.011,-0.035,-0.058
-0.072,-0.032,0.04,0.052,-0.055,0.004,0.048,0.024,-0.007,-0.022,-0.027,-0.051
-0.058,0.007,0.065,0.026,-0.062,0.036,0.032,0.002,0.028,-0.023,-0.021,-0.061
-0.046,0.018,0.063,0.014,-0.055,0.04,0.026,-0.007,0.024,-0.013,-0.014,-0.059
-0.054,0.008,0.062,0.022,-0.058,0.034,0.022,0.025,0.018,-0.009,-0.007,-0.061
-0.033,0.028,0.061,0.003,-0.048,0.044,0.013,0.021,0.011,0.0,-0.002,-0.055
-0.023,-0.007,0.015,0.015,-0.019,0.004,0.012,0.013,0.001,0.013,0.013,-0.025
-0.01,0.026,0.036,-0.008,-0.024,0.031,-0.004,0.005,-0.002,0.006,-0.002,-0.053
-0.066,0.001,0.067,0.032,-0.067,0.034,-0.003,-0.003,0.024,-0.009,-0.019,-0.082
-0.082,-0.022,0.061,0.052,-0.071,0.019,-0.009,-0.015,0.032,0.004,-0.009,-0.065
-0.004,0.021,0.025,-0.009,-0.015,0.023,-0.022,-0.03,0.019,0.003,-0.01,-0.062
-0.05,-0.007,0.043,0.029,-0.046,0.018,-0.014,-0.021,0.022,-0.021,-0.002,-0.054
-0.021,-0.011,0.01,0.016,-0.015,0.0,-0.013,-0.03,0.01,-0.016,-0.008,-0.049
-0.027,-0.004,0.023,0.016,-0.025,0.01,-0.003,-0.013,0.014,-0.001,-0.016,-0.044
-0.059,0.036,0.095,0.011,-0.078,0.066,0.03,0.011,0.034,0.006,-0.008,-0.036
0.009,0.086,0.077,-0.047,-0.034,0.081,0.034,0.012,0.028,0.03,0.008,-0.016
0.015,0.109,0.095,-0.062,-0.04,0.102,0.022,0.04,0.049,0.057,0.027,0.018
0.029,0.146,0.118,-0.088,-0.045,0.132,0.015,0.036,0.074,0.051,0.025,0.006
0.018,0.123,0.105,-0.071,-0.044,0.114,0.005,0.028,0.063,0.06,0.052,0.021
0.03,0.122,0.092,-0.076,-0.032,0.107,-0.005,0.02,0.053,0.068,0.047,0.046
0.009,0.085,0.076,-0.048,-0.034,0.081,-0.036,0.013,0.06,0.048,0.031,0.025
-0.021,-0.008,0.013,0.014,-0.017,0.002,-0.04,-0.014,0.026,0.02,0.023,0.009
-0.029,0.016,0.045,0.006,-0.037,0.03,-0.033,-0.072,-0.042,-0.034,-0.035,-0.043
-0.09,-0.052,0.038,0.071,-0.064,-0.007,-0.029,-0.038,-0.04,-0.036,-0.037,-0.068
-0.114,-0.106,0.007,0.11,-0.06,-0.049,-0.019,-0.05,-0.04,-0.035,-0.034,-0.065
-0.129,-0.063,0.067,0.096,-0.098,0.002,-0.028,-0.057,-0.026,-0.033,-0.024,-0.062
-0.102,-0.083,0.019,0.092,-0.06,-0.032,-0.014,-0.051,-0.023,-0.051,-0.022,-0.076
-0.105,-0.048,0.057,0.076,-0.081,0.004,-0.025,-0.078,-0.039,-0.041,-0.036,-0.079
-0.141,-0.096,0.044,0.118,-0.092,-0.026,-0.049,-0.076,-0.079,-0.042,-0.069,-0.079
-0.106,-0.089,0.017,0.098,-0.062,-0.036,-0.007,-0.058,-0.044,-0.035,-0.054,-0.074
-0.179,-0.018,0.161,0.098,-0.17,0.071,0.176,0.18,0.085,0.007,-0.039,-0.088
-0.022,-0.07,-0.049,0.046,0.014,-0.059,0.137,0.174,0.128,0.076,0.024,-0.067
0.52,0.035,-0.485,-0.277,0.502,-0.225,-0.294,-0.216,0.226,0.319,0.344,0.237
0.385,-0.033,-0.419,-0.176,0.402,-0.226,-0.643,-1.083,-0.407,-0.14,0.058,0.26
-0.045,-0.279,-0.234,0.163,0.095,-0.256,-0.785,-1.627,-1.107,-0.742,-0.468,-0.018
-0.048,-0.24,-0.192,0.144,0.072,-0.215,-0.577,-0.979,-0.727,-0.503,-0.347,-0.074
-0.079,-0.152,-0.073,0.116,-0.003,-0.112,-0.207,-0.36,-0.297,-0.232,-0.171,-0.081
-0.092,-0.101,-0.009,0.096,-0.041,-0.055,-0.059,-0.1,-0.112,-0.105,-0.09,-0.069
-0.146,-0.083,0.063,0.115,-0.104,-0.01,-0.017,-0.005,-0.053,-0.053,-0.059,-0.072
-0.134,-0.087,0.047,0.11,-0.09,-0.02,0.025,0.0,-0.045,-0.052,-0.045,-0.067
-0.127,-0.082,0.045,0.105,-0.086,-0.019,0.041,0.055,0.001,-0.019,-0.035,-0.053
-0.121,-0.096,0.024,0.108,-0.072,-0.036,0.033,0.072,-0.023,-0.024,-0.045,-0.056
-0.067,-0.067,0.0,0.067,-0.033,-0.033,0.06,0.095,-0.024,-0.039,-0.034,-0.046
-0.145,-0.073,0.072,0.108,-0.108,0.0,0.071,0.086,0.006,-0.007,-0.037,-0.045
-0.129,-0.097,0.033,0.112,-0.081,-0.032,0.058,0.092,0.016,0.013,-0.034,-0.039
-0.089,-0.093,-0.004,0.091,-0.042,-0.048,0.058,0.089,0.005,-0.002,-0.032,-0.033
-0.097,-0.068,0.029,0.083,-0.062,-0.02,0.048,0.09,0.0,-0.004,-0.026,-0.037
-0.081,-0.043,0.038,0.062,-0.059,-0.003,0.046,0.09,-0.008,-0.013,-0.021,-0.05
-0.09,-0.034,0.057,0.062,-0.073,0.012,0.05,0.09,-0.004,-0.011,-0.017,-0.044
-0.153,-0.083,0.07,0.117,-0.111,-0.006,0.059,0.092,0.008,-0.005,-0.013,-0.037
-0.103,-0.073,0.03,0.087,-0.066,-0.021,0.063,0.121,0.027,0.005,-0.007,-0.033
-0.064,0.001,0.066,0.031,-0.065,0.033,0.057,0.159,0.039,0.01,-0.012,-0.027
-0.122,-0.02,0.102,0.07,-0.112,0.041,0.052,0.167,0.068,0.039,-0.002,-0.013
-0.101,-0.007,0.094,0.054,-0.097,0.043,0.049,0.186,0.093,0.062,0.031,0.006
-0.077,0.029,0.106,0.024,-0.092,0.067,0.043,0.221,0.104,0.083,0.062,0.033
-0.044,0.056,0.1,-0.007,-0.072,0.077,0.041,0.24,0.117,0.103,0.082,0.047
0.011,0.111,0.1,-0.061,-0.045,0.105,0.034,0.239,0.131,0.113,0.093,0.05
0.037,0.13,0.093,-0.084,-0.028,0.111,0.028,0.274,0.175,0.164,0.135,0.099
0.064,0.119,0.055,-0.092,0.004,0.087,0.021,0.272,0.187,0.185,0.162,0.128
0.127,0.168,0.041,-0.147,0.042,0.105,0.006,0.251,0.166,0.17,0.153,0.119
0.137,0.198,0.061,-0.168,0.038,0.129,-0.006,0.248,0.172,0.171,0.147,0.117
0.11,0.143,0.033,-0.127,0.038,0.088,-0.042,0.177,0.17,0.17,0.144,0.112
0.08,0.122,0.042,-0.101,0.019,0.082,-0.042,0.139,0.134,0.144,0.132,0.104
0.046,0.097,0.051,-0.072,-0.003,0.074,-0.005,0.133,0.105,0.105,0.097,0.082
0.016,0.054,0.039,-0.035,-0.012,0.046,0.0,0.099,0.075,0.069,0.061,0.058
-0.032,0.011,0.044,0.011,-0.038,0.027,0.015,0.075,0.048,0.044,0.034,0.038
-0.049,-0.05,-0.001,0.049,-0.024,-0.025,0.032,0.065,0.046,0.032,0.017,0.023
-0.1,-0.064,0.036,0.082,-0.068,-0.014,0.027,0.055,0.025,0.019,0.009,0.013
-0.105,-0.077,0.028,0.091,-0.066,-0.025,0.012,0.036,-0.002,0.001,-0.001,0.006
-0.094,-0.092,0.002,0.093,-0.048,-0.045,0.005,0.023,-0.008,-0.012,-0.008,-0.001
-0.135,-0.075,0.06,0.105,-0.097,-0.007,0.0,0.02,-0.011,-0.016,-0.016,-0.01
-0.119,-0.081,0.038,0.1,-0.078,-0.022,0.001,0.017,-0.017,-0.021,-0.029,-0.015
-0.09,-0.067,0.022,0.078,-0.055,-0.022,0.023,0.014,-0.03,-0.036,-0.036,-0.02
-0.064,-0.069,-0.005,0.067,-0.029,-0.037,0.031,0.011,-0.025,-0.031,-0.028,-0.009
-0.104,-0.071,0.033,0.087,-0.068,-0.019,0.03,0.009,-0.02,-0.026,-0.024,-0.019
-0.111,-0.048,0.063,0.079,-0.086,0.007,0.028,0.026,-0.015,-0.023,-0.021,-0.03
-0.098,-0.064,0.034,0.08,-0.066,-0.015,0.026,0.032,-0.007,-0.016,-0.013,-0.015
-0.131,-0.073,0.058,0.102,-0.094,-0.007,0.024,0.024,-0.006,-0.016,-0.019,-0.014
-0.115,-0.079,0.036,0.097,-0.075,-0.022,0.023,0.024,0.023,0.007,-0.005,0.008
-0.112,-0.052,0.059,0.082,-0.085,0.004,0.042,0.012,0.0,-0.009,-0.011,-0.007
-0.087,-0.057,0.03,0.072,-0.058,-0.013,0.059,0.033,-0.031,-0.03,-0.029,-0.026
-0.085,-0.094,-0.009,0.09,-0.038,-0.051,0.057,0.056,0.003,0.003,0.001,0.011
-0.088,-0.048,0.04,0.068,-0.064,-0.004,0.039,0.041,0.019,0.015,0.003,0.016
-0.046,-0.011,0.035,0.028,-0.04,0.012,0.034,0.033,0.022,0.017,-0.002,0.014
-0.05,-0.027,0.023,0.038,-0.037,-0.002,0.036,0.022,0.019,0.014,-0.003,0.016
-0.07,-0.073,-0.003,0.071,-0.033,-0.038,0.031,0.013,0.015,0.011,-0.007,0.014
-0.079,-0.069,0.01,0.074,-0.044,-0.029,0.03,0.009,0.014,0.008,-0.009,0.015
-0.013,0.029,0.042,-0.008,-0.027,0.035,0.031,-0.001,0.009,0.005,-0.01,0.019
0.015,0.032,0.017,-0.024,-0.001,0.025,0.035,0.014,0.014,0.006,0.001,0.029
-0.072,-0.033,0.038,0.053,-0.055,0.003,0.035,0.023,0.031,0.018,0.005,0.03
-0.058,0.044,0.102,0.007,-0.08,0.072,0.056,0.046,0.052,0.047,0.034,0.022
-0.025,0.095,0.12,-0.036,-0.073,0.107,0.069,0.069,0.064,0.058,0.054,0.039
-0.042,0.067,0.109,-0.012,-0.076,0.088,0.023,0.03,0.078,0.059,0.055,0.061
-0.035,0.096,0.131,-0.031,-0.083,0.113,-0.021,0.016,0.077,0.055,0.061,0.06
0.013,0.065,0.052,-0.039,-0.02,0.059,-0.027,-0.008,0.065,0.043,0.054,0.074
0.017,0.019,0.003,-0.018,0.007,0.011,-0.023,-0.045,0.043,0.038,0.039,0.067
-0.062,-0.02,0.042,0.04,-0.052,0.011,-0.02,-0.046,-0.005,0.015,-0.002,0.028
-0.087,-0.051,0.036,0.069,-0.061,-0.008,-0.019,-0.043,-0.02,-0.008,-0.028,0.005
-0.103,-0.086,0.017,0.094,-0.06,-0.034,-0.013,-0.047,-0.051,-0.035,-0.049,-0.009
-0.11,-0.081,0.03,0.095,-0.07,-0.025,-0.023,-0.043,-0.057,-0.046,-0.057,-0.019
-0.081,-0.078,0.003,0.08,-0.042,-0.037,-0.041,-0.068,-0.066,-0.053,-0.053,-0.028
-0.069,-0.123,-0.054,0.097,-0.007,-0.089,-0.043,-0.088,-0.079,-0.032,-0.033,-0.026
-0.098,-0.084,0.015,0.091,-0.056,-0.035,-0.021,-0.045,-0.051,-0.045,-0.052,-0.02
-0.104,-0.121,-0.017,0.113,-0.043,-0.069,-0.011,-0.067,-0.07,-0.068,-0.081,-0.024
-0.165,-0.071,0.094,0.118,-0.129,0.012,0.107,0.082,0.042,0.008,-0.033,-0.021
-0.168,-0.076,0.092,0.122,-0.13,0.008,0.201,0.179,0.08,0.015,-0.047,-0.055
0.316,-0.03,-0.346,-0.143,0.331,-0.187,-0.14,0.004,0.279,0.304,0.275,0.166
0.521,0.04,-0.48,-0.28,0.501,-0.22,-0.577,-0.665,-0.012,0.164,0.291,0.365
0.108,-0.241,-0.35,0.067,0.229,-0.295,-0.787,-1.563,-1.018,-0.642,-0.368,0.126
-0.054,-0.318,-0.265,0.186,0.106,-0.291,-0.704,-1.271,-0.974,-0.657,-0.44,-0.008
-0.064,-0.184,-0.121,0.124,0.029,-0.152,-0.336,-0.518,-0.424,-0.293,-0.211,-0.009
-0.103,-0.104,-0.001,0.103,-0.051,-0.052,-0.087,-0.188,-0.193,-0.145,-0.14,-0.038
-0.068,-0.093,-0.025,0.081,-0.022,-0.059,-0.017,-0.029,-0.051,-0.064,-0.059,-0.024
-0.067,-0.095,-0.028,0.081,-0.019,-0.061,0.01,-0.025,-0.049,-0.062,-0.065,-0.026
-0.083,-0.091,-0.009,0.087,-0.037,-0.05,0.041,0.04,-0.027,-0.038,-0.066,-0.008
-0.051,-0.081,-0.03,0.066,-0.011,-0.055,0.071,0.055,-0.032,-0.049,-0.073,-0.013
-0.062,-0.075,-0.012,0.069,-0.025,-0.043,0.063,0.054,-0.023,-0.043,-0.064,-0.035
-0.11,-0.111,0.0,0.111,-0.055,-0.055,0.059,0.057,-0.014,-0.045,-0.056,-0.03
-0.074,-0.077,-0.003,0.076,-0.035,-0.04,0.053,0.048,-0.028,-0.047,-0.049,-0.026
-0.101,-0.068,0.034,0.084,-0.067,-0.017,0.049,0.052,-0.036,-0.04,-0.037,-0.018
-0.105,-0.06,0.046,0.082,-0.075,-0.007,0.046,0.05,-0.025,-0.041,-0.034,-0.014
-0.053,-0.009,0.044,0.031,-0.048,0.017,0.039,0.06,-0.011,-0.033,-0.025,-0.009
-0.136,-0.044,0.091,0.09,-0.113,0.023,0.057,0.079,-0.011,-0.034,-0.023,0.001
-0.118,-0.079,0.039,0.098,-0.078,-0.019,0.067,0.093,-0.005,-0.026,-0.015,-0.014
-0.1,-0.066,0.034,0.082,-0.067,-0.015,0.067,0.086,-0.006,0.003,-0.012,-0.019
-0.143,-0.051,0.092,0.097,-0.117,0.02,0.072,0.111,0.012,0.03,-0.004,0.0
-0.059,-0.011,0.047,0.035,-0.053,0.018,0.073,0.133,0.038,0.021,0.0,0.021
-0.067,-0.022,0.045,0.045,-0.056,0.012,0.077,0.168,0.069,0.034,0.008,0.039
-0.051,-0.007,0.044,0.029,-0.047,0.018,0.054,0.198,0.101,0.074,0.049,0.05
0.02,0.06,0.04,-0.04,-0.01,0.049,0.035,0.21,0.104,0.078,0.058,0.053
0.018,0.1,0.082,-0.06,-0.032,0.09,0.044,0.236,0.133,0.114,0.089,0.08
0.04,0.13,0.09,-0.085,-0.026,0.11,0.031,0.234,0.166,0.147,0.127,0.113
0.072,0.179,0.107,-0.126,-0.018,0.143,0.015,0.246,0.182,0.178,0.155,0.142
0.096,0.201,0.104,-0.149,-0.004,0.152,0.018,0.239,0.188,0.216,0.192,0.17
0.098,0.182,0.084,-0.14,0.007,0.132,-0.01,0.218,0.179,0.201,0.182,0.163
0.091,0.177,0.086,-0.135,0.002,0.131,-0.038,0.197,0.178,0.188,0.172,0.167
0.083,0.152,0.069,-0.118,0.007,0.11,-0.021,0.144,0.15,0.151,0.143,0.155
0.084,0.107,0.023,-0.096,0.03,0.065,0.016,0.103,0.117,0.112,0.105,0.103
0.063,0.069,0.006,-0.066,0.028,0.037,0.046,0.059,0.092,0.087,0.079,0.071
-0.007,0.05,0.058,-0.022,-0.033,0.054,0.051,0.039,0.048,0.041,0.039,0.055
0.001,0.018,0.017,-0.009,-0.009,0.018,0.049,0.015,0.021,0.009,0.007,0.031
-0.024,-0.012,0.013,0.018,-0.018,0.0,0.05,-0.011,0.019,0.001,-0.008,0.022
-0.08,-0.02,0.06,0.05,-0.07,0.02,0.05,0.003,0.007,-0.012,-0.028,0.01
-0.032,-0.041,-0.01,0.036,-0.011,-0.025,0.049,-0.026,-0.003,-0.03,-0.026,0.01
-0.046,-0.031,0.015,0.038,-0.029,-0.008,0.046,-0.055,-0.028,-0.027,-0.023,0.013
-0.037,-0.056,-0.019,0.046,-0.009,-0.038,0.043,-0.059,-0.049,-0.019,-0.052,-0.002
-0.053,-0.074,-0.021,0.063,-0.016,-0.047,0.041,-0.062,-0.04,-0.011,-0.063,-0.011
-0.064,-0.027,0.036,0.045,-0.05,0.004,0.037,-0.051,-0.032,-0.032,-0.063,-0.029
-0.057,-0.033,0.024,0.045,-0.04,-0.005,0.035,-0.047,-0.025,-0.042,-0.059,-0.028
-0.118,-0.019,0.098,0.068,-0.108,0.039,0.037,-0.038,-0.017,-0.023,-0.05,-0.015
-0.075,0.014,0.089,0.03,-0.082,0.051,0.036,-0.034,-0.015,-0.021,-0.045,-0.012
-0.055,0.016,0.071,0.02,-0.063,0.043,0.031,-0.028,-0.015,-0.019,-0.037,-0.007
-0.106,-0.033,0.073,0.069,-0.089,0.02,0.028,-0.024,-0.015,-0.021,-0.032,-0.003
-0.087,-0.024,0.063,0.055,-0.075,0.019,0.025,-0.016,-0.015,-0.02,-0.026,0.002
-0.068,0.021,0.09,0.023,-0.079,0.055,0.02,-0.018,-0.015,-0.021,-0.022,0.004
-0.125,-0.032,0.093,0.078,-0.108,0.03,0.018,-0.026,-0.027,-0.019,-0.018,0.017
-0.027,0.026,0.052,0.0,-0.04,0.039,-0.004,-0.034,-0.037,-0.015,-0.012,0.015
0.011,0.053,0.042,-0.032,-0.016,0.047,-0.019,-0.045,-0.034,-0.013,-0.012,0.005
-0.103,-0.006,0.097,0.054,-0.1,0.045,0.008,-0.019,-0.035,-0.009,-0.014,0.024
-0.085,-0.012,0.072,0.048,-0.078,0.03,0.018,-0.033,-0.035,-0.009,-0.026,0.031
-0.057,-0.013,0.044,0.035,-0.05,0.015,0.025,-0.059,-0.035,-0.001,-0.031,0.022
0.012,0.069,0.057,-0.041,-0.023,0.063,0.023,-0.054,-0.033,-0.017,-0.029,0.015
0.034,0.043,0.009,-0.039,0.012,0.026,0.002,-0.052,-0.023,-0.022,-0.023,0.01
-0.02,-0.014,0.006,0.017,-0.013,-0.004,0.006,-0.047,-0.019,-0.017,-0.026,0.0
-0.004,0.053,0.058,-0.025,-0.031,0.055,0.018,-0.042,-0.008,-0.027,-0.038,0.009
0.007,0.063,0.056,-0.035,-0.025,0.059,0.03,-0.037,-0.007,-0.029,-0.034,0.022
-0.011,0.093,0.104,-0.041,-0.058,0.098,0.048,-0.033,0.002,0.006,-0.022,0.004
0.008,0.122,0.114,-0.065,-0.053,0.117,0.062,-0.006,0.029,0.049,0.008,0.038
0.041,0.127,0.087,-0.084,-0.023,0.107,0.041,0.009,0.035,0.045,0.029,0.069
0.032,0.14,0.108,-0.087,-0.038,0.124,0.016,0.011,0.064,0.067,0.044,0.064
0.056,0.145,0.089,-0.101,-0.016,0.116,-0.029,-0.04,0.059,0.073,0.035,0.081
0.067,0.168,0.1,-0.118,-0.017,0.134,-0.037,-0.061,0.043,0.053,0.027,0.089
0.019,0.091,0.072,-0.056,-0.026,0.081,-0.026,-0.048,0.013,0.039,0.005,0.067
-0.027,0.007,0.033,0.01,-0.03,0.02,-0.047,-0.112,-0.064,-0.008,-0.056,0.027
-0.012,-0.003,0.01,0.007,-0.011,0.003,-0.009,-0.069,-0.035,-0.019,-0.037,0.016
-0.02,-0.014,0.006,0.017,-0.013,-0.004,-0.015,-0.076,-0.042,-0.036,-0.036,-0.01
-0.073,-0.005,0.068,0.039,-0.07,0.031,0.004,-0.107,-0.065,-0.049,-0.056,-0.02
-0.073,-0.026,0.047,0.049,-0.06,0.01,0.041,-0.075,-0.06,-0.049,-0.062,-0.009
-0.085,-0.047,0.038,0.065,-0.061,-0.004,0.005,-0.095,-0.072,-0.041,-0.06,-0.021
-0.091,-0.048,0.043,0.07,-0.067,-0.003,0.015,-0.078,-0.037,-0.024,-0.052,-0.026
-0.043,-0.026,0.017,0.034,-0.03,-0.005,0.001,-0.119,-0.057,-0.044,-0.062,-0.026
-0.118,0.035,0.153,0.042,-0.136,0.094,0.129,0.069,0.041,-0.017,-0.041,-0.025
-0.098,-0.008,0.09,0.053,-0.094,0.041,0.198,0.129,0.09,0.016,-0.033,-0.048
0.436,0.071,-0.365,-0.253,0.401,-0.147,-0.205,-0.138,0.249,0.291,0.278,0.196
0.56,0.072,-0.488,-0.316,0.524,-0.207,-0.632,-0.86,-0.153,0.058,0.204,0.346
0.105,-0.235,-0.34,0.065,0.223,-0.287,-0.81,-1.651,-1.077,-0.676,-0.388,0.108
0.011,-0.264,-0.275,0.127,0.144,-0.269,-0.672,-1.198,-0.893,-0.603,-0.387,0.005
0.01,-0.084,-0.094,0.037,0.053,-0.088,-0.28,-0.479,-0.375,-0.268,-0.19,-0.023
-0.014,-0.016,-0.002,0.015,-0.006,-0.009,-0.039,-0.185,-0.161,-0.109,-0.114,-0.039
-0.047,-0.009,0.038,0.028,-0.043,0.014,0.018,-0.043,-0.053,-0.053,-0.064,-0.014
-0.128,-0.072,0.057,0.1,-0.092,-0.008,0.055,-0.033,-0.069,-0.071,-0.062,-0.014
-0.071,-0.038,0.033,0.054,-0.052,-0.002,0.069,0.014,-0.043,-0.049,-0.044,-0.01
-0.07,0.016,0.085,0.026,-0.078,0.05,0.063,0.022,-0.049,-0.054,-0.062,0.003
-0.057,-0.015,0.042,0.035,-0.049,0.013,0.062,0.057,-0.009,-0.019,-0.057,0.011
-0.065,-0.013,0.052,0.039,-0.058,0.019,0.059,0.046,-0.029,-0.036,-0.059,-0.016
-0.088,-0.002,0.086,0.045,-0.087,0.042,0.06,0.043,-0.035,-0.039,-0.051,-0.005
0.009,0.008,-0.001,-0.009,0.005,0.004,0.055,0.044,-0.02,-0.028,-0.045,0.018
-0.032,-0.018,0.014,0.025,-0.023,-0.002,0.055,0.032,-0.021,-0.029,-0.043,0.013
-0.049,0.02,0.069,0.014,-0.059,0.045,0.055,0.04,-0.008,-0.017,-0.032,0.015
-0.027,0.032,0.059,-0.003,-0.043,0.046,0.055,0.038,-0.003,-0.017,-0.033,0.027
-0.041,0.007,0.048,0.017,-0.045,0.028,0.054,0.06,0.014,-0.006,-0.033,0.014
-0.038,0.018,0.056,0.01,-0.048,0.037,0.054,0.078,0.018,-0.002,-0.029,0.008
-0.058,0.023,0.081,0.018,-0.07,0.052,0.071,0.112,0.051,0.025,-0.02,0.045
0.008,0.095,0.087,-0.052,-0.04,0.091,0.077,0.134,0.056,0.033,-0.011,0.057
0.021,0.094,0.073,-0.058,-0.026,0.084,0.073,0.142,0.054,0.032,-0.012,0.052
0.014,0.088,0.075,-0.051,-0.031,0.081,0.077,0.188,0.093,0.071,0.017,0.09
0.033,0.122,0.09,-0.077,-0.029,0.106,0.072,0.205,0.116,0.081,0.046,0.089
0.097,0.181,0.085,-0.139,0.006,0.133,0.049,0.221,0.153,0.104,0.085,0.103
0.113,0.205,0.091,-0.159,0.01,0.148,0.039,0.223,0.157,0.143,0.122,0.152
0.064,0.181,0.118,-0.123,-0.027,0.149,0.041,0.225,0.173,0.166,0.145,0.18
0.131,0.244,0.113,-0.188,0.009,0.178,0.025,0.246,0.196,0.189,0.179,0.215
0.162,0.234,0.071,-0.198,0.045,0.152,0.02,0.214,0.175,0.177,0.164,0.203
0.182,0.202,0.02,-0.193,0.081,0.111,0.011,0.188,0.175,0.168,0.153,0.191
0.206,0.209,0.003,-0.208,0.101,0.106,-0.009,0.147,0.139,0.152,0.137,0.181
0.101,0.159,0.058,-0.13,0.021,0.108,-0.002,0.096,0.099,0.108,0.086,0.137
0.065,0.132,0.068,-0.099,-0.002,0.1,-0.004,0.062,0.071,0.076,0.053,0.117
0.081,0.109,0.028,-0.095,0.026,0.068,0.026,0.021,0.037,0.044,0.029,0.097
0.072,0.124,0.051,-0.098,0.01,0.087,0.038,-0.007,0.007,0.017,0.003,0.073
0.061,0.093,0.032,-0.077,0.014,0.062,0.017,-0.036,-0.019,0.016,-0.03,0.073
0.012,0.019,0.008,-0.015,0.002,0.013,0.045,-0.041,-0.021,0.008,-0.047,0.074
0.042,0.033,-0.008,-0.037,0.025,0.013,0.044,-0.027,-0.03,-0.006,-0.04,0.067
0.061,0.029,-0.032,-0.044,0.046,-0.001,0.038,-0.046,-0.031,-0.033,-0.038,0.047
0.044,0.018,-0.026,-0.031,0.035,-0.004,0.042,-0.067,-0.029,-0.048,-0.034,0.046
-0.01,-0.021,-0.011,0.016,0.001,-0.016,0.036,-0.048,-0.026,-0.04,-0.028,0.057
-0.012,-0.007,0.005,0.009,-0.008,-0.001,0.036,-0.037,-0.024,-0.038,-0.034,0.048
0.026,0.025,-0.002,-0.026,0.014,0.011,0.034,-0.036,-0.025,-0.032,-0.043,0.046
-0.034,0.014,0.048,0.01,-0.041,0.03,0.047,-0.028,-0.014,-0.029,-0.041,0.048
0.045,0.069,0.024,-0.057,0.01,0.046,0.051,-0.027,-0.007,-0.024,-0.031,0.051
0.043,0.069,0.026,-0.056,0.008,0.048,0.049,-0.019,0.009,-0.021,-0.031,0.05
-0.027,0.059,0.086,-0.016,-0.057,0.072,0.047,-0.024,-0.008,-0.018,-0.018,0.05
0.04,0.072,0.032,-0.057,0.004,0.052,0.044,-0.035,-0.018,-0.013,-0.024,0.05
0.044,0.067,0.024,-0.056,0.01,0.045,0.045,-0.01,0.002,-0.012,-0.03,0.052
0.01,0.073,0.063,-0.041,-0.027,0.067,0.04,0.012,0.008,0.008,0.005,0.056
-0.03,0.065,0.095,-0.017,-0.062,0.079,0.036,0.005,0.004,0.005,0.0,0.054
-0.057,0.053,0.11,0.002,-0.084,0.081,0.034,-0.001,-0.003,-0.008,-0.012,0.055
-0.01,0.039,0.049,-0.014,-0.03,0.044,0.028,-0.016,0.004,-0.004,-0.022,0.055
0.029,0.053,0.024,-0.041,0.002,0.038,0.027,-0.03,0.004,-0.004,-0.033,0.055
0.0,0.036,0.036,-0.018,-0.019,0.036,0.021,-0.02,-0.002,0.002,-0.028,0.054
0.009,0.037,0.028,-0.023,-0.01,0.032,0.019,-0.044,-0.012,-0.008,-0.031,0.05
0.03,0.081,0.051,-0.056,-0.011,0.066,0.013,-0.062,-0.033,-0.025,-0.03,0.05
0.044,0.051,0.007,-0.048,0.019,0.029,0.01,-0.045,-0.021,-0.013,-0.03,0.049
0.04,0.078,0.038,-0.059,0.001,0.058,0.044,-0.039,0.022,-0.006,-0.021,0.051
0.024,0.088,0.064,-0.056,-0.02,0.076,0.062,-0.023,0.029,0.004,-0.008,0.048
0.039,0.098,0.059,-0.069,-0.01,0.078,0.066,0.003,0.021,0.027,0.003,0.057
0.04,0.177,0.137,-0.109,-0.049,0.157,0.073,0.029,0.046,0.034,0.011,0.078
0.051,0.157,0.106,-0.104,-0.028,0.132,0.066,0.038,0.058,0.049,0.036,0.083
0.072,0.17,0.098,-0.121,-0.013,0.134,0.043,0.004,0.045,0.052,0.036,0.077
0.074,0.173,0.099,-0.124,-0.012,0.135,0.029,-0.045,0.051,0.047,0.035,0.086
0.067,0.142,0.075,-0.104,-0.005,0.108,0.002,-0.065,0.034,0.049,0.038,0.112
0.059,0.109,0.05,-0.084,0.004,0.08,-0.023,-0.055,-0.015,0.014,-0.005,0.092
0.057,0.069,0.012,-0.063,0.023,0.04,-0.02,-0.065,-0.027,-0.026,-0.038,0.043
0.015,0.042,0.027,-0.028,-0.006,0.034,-0.005,-0.075,-0.04,-0.035,-0.047,0.031
-0.014,-0.045,-0.031,0.03,0.009,-0.038,0.001,-0.099,-0.065,-0.048,-0.055,0.038
0.039,-0.005,-0.044,-0.017,0.042,-0.025,0.012,-0.083,-0.046,-0.045,-0.048,0.031
0.058,0.025,-0.033,-0.042,0.045,-0.004,0.025,-0.094,-0.063,-0.064,-0.067,0.021
0.056,0.028,-0.028,-0.042,0.041,0.0,0.006,-0.091,-0.049,-0.059,-0.061,0.014
0.005,0.007,0.002,-0.006,0.001,0.004,0.018,-0.081,-0.062,-0.066,-0.073,0.007
-0.044,-0.037,0.007,0.04,-0.026,-0.015,0.033,-0.079,-0.045,-0.051,-0.071,0.02
-0.132,0.039,0.172,0.046,-0.152,0.105,0.198,0.141,0.061,0.001,-0.047,-0.016
0.034,0.003,-0.031,-0.018,0.033,-0.014,0.146,0.079,0.106,0.074,0.01,0.007
0.619,0.119,-0.5,-0.368,0.559,-0.191,-0.328,-0.297,0.193,0.28,0.304,0.278
0.51,0.042,-0.468,-0.275,0.489,-0.213,-0.698,-1.156,-0.463,-0.193,0.01,0.317
0.065,-0.25,-0.315,0.093,0.19,-0.283,-0.817,-1.682,-1.128,-0.759,-0.5,0.082
0.086,-0.174,-0.259,0.044,0.173,-0.217,-0.549,-0.955,-0.708,-0.486,-0.327,0.033
0.016,-0.069,-0.085,0.026,0.05,-0.076,-0.157,-0.357,-0.297,-0.222,-0.171,0.029
-0.048,-0.011,0.037,0.029,-0.043,0.013,-0.009,-0.112,-0.121,-0.096,-0.101,0.017
-0.041,-0.021,0.02,0.031,-0.03,-0.001,0.024,-0.015,-0.057,-0.052,-0.07,0.021
-0.058,-0.058,0.001,0.058,-0.029,-0.028,0.062,-0.031,-0.067,-0.06,-0.084,0.004
-0.045,0.007,0.052,0.019,-0.049,0.029,0.076,0.003,-0.043,-0.04,-0.064,0.012
-0.016,0.009,0.025,0.003,-0.021,0.017,0.058,-0.004,-0.06,-0.052,-0.072,0.024
-0.01,-0.008,0.002,0.009,-0.006,-0.003,0.059,0.029,-0.04,-0.037,-0.059,0.025
-0.036,-0.007,0.029,0.021,-0.032,0.011,0.045,0.025,-0.05,-0.043,-0.06,0.009
-0.027,-0.007,0.02,0.017,-0.024,0.007,0.043,0.052,-0.034,-0.036,-0.052,0.009
-0.018,0.063,0.08,-0.023,-0.049,0.071,0.081,0.039,0.006,-0.033,-0.05,0.037
0.047,0.084,0.037,-0.066,0.004,0.06,0.093,0.03,-0.015,-0.029,-0.05,0.053
0.052,0.065,0.013,-0.059,0.019,0.039,0.08,0.064,-0.026,-0.023,-0.05,0.049
-0.002,0.07,0.072,-0.034,-0.037,0.07,0.078,0.053,0.005,-0.021,-0.049,0.05
0.021,0.055,0.035,-0.039,-0.007,0.045,0.075,0.082,0.022,-0.012,-0.052,0.051
0.027,0.061,0.035,-0.044,-0.004,0.048,0.069,0.121,0.023,-0.007,-0.034,0.047
0.017,0.057,0.039,-0.037,-0.012,0.048,0.069,0.116,0.038,0.006,-0.012,0.067
0.06,0.101,0.042,-0.081,0.009,0.071,0.06,0.102,0.038,0.007,-0.025,0.066
0.064,0.106,0.042,-0.085,0.011,0.074,0.085,0.163,0.054,0.033,0.013,0.077
0.032,0.1,0.068,-0.066,-0.019,0.084,0.104,0.232,0.1,0.079,0.05,0.117
0.041,0.145,0.104,-0.093,-0.032,0.125,0.066,0.23,0.1,0.076,0.047,0.107
0.108,0.175,0.068,-0.142,0.02,0.121,0.05,0.23,0.12,0.103,0.088,0.133
0.161,0.232,0.07,-0.197,0.045,0.151,0.04,0.234,0.146,0.141,0.123,0.171
0.17,0.197,0.027,-0.183,0.071,0.111,0.038,0.261,0.148,0.138,0.125,0.168
0.184,0.211,0.027,-0.197,0.078,0.119,-0.002,0.253,0.167,0.166,0.157,0.206
0.217,0.242,0.025,-0.23,0.096,0.133,-0.028,0.217,0.168,0.171,0.16,0.21
0.222,0.193,-0.029,-0.207,0.125,0.081,-0.014,0.172,0.133,0.118,0.109,0.165
0.165,0.192,0.027,-0.179,0.069,0.11,-0.016,0.113,0.086,0.117,0.105,0.168
0.174,0.168,-0.006,-0.171,0.09,0.081,0.03,0.087,0.06,0.108,0.092,0.15
0.152,0.155,0.003,-0.153,0.074,0.078,0.04,0.05,0.029,0.051,0.035,0.112
0.06,0.117,0.057,-0.089,0.001,0.087,0.05,0.033,0.018,0.023,0.009,0.099
0.011,0.046,0.035,-0.029,-0.012,0.04,0.051,0.011,0.011,0.007,-0.008,0.077
0.01,0.035,0.025,-0.023,-0.007,0.029,0.029,-0.012,-0.007,-0.014,-0.03,0.049
0.049,0.076,0.027,-0.063,0.011,0.051,0.027,-0.015,-0.02,-0.025,-0.038,0.04
0.092,0.081,-0.011,-0.087,0.051,0.035,-0.014,-0.048,-0.05,-0.045,-0.061,0.036
0.072,0.029,-0.043,-0.05,0.057,-0.007,0.003,-0.059,-0.062,-0.063,-0.079,0.036
0.035,0.021,-0.014,-0.027,0.024,0.003,0.033,-0.052,-0.056,-0.057,-0.068,0.05
0.039,0.028,-0.011,-0.034,0.025,0.009,0.03,-0.038,-0.056,-0.055,-0.059,0.047
0.022,0.038,0.016,-0.03,0.003,0.027,0.054,-0.015,-0.051,-0.052,-0.057,0.06
0.018,0.037,0.019,-0.028,-0.001,0.027,0.061,-0.019,-0.05,-0.049,-0.046,0.052
0.0,0.033,0.032,-0.017,-0.016,0.032,0.059,-0.022,-0.046,-0.047,-0.051,0.032
-0.04,0.033,0.074,0.003,-0.057,0.053,0.061,-0.008,-0.04,-0.039,-0.049,0.059
-0.016,0.038,0.054,-0.011,-0.035,0.045,0.059,-0.005,-0.035,-0.033,-0.042,0.07
0.042,0.08,0.037,-0.061,0.002,0.058,0.061,-0.019,-0.029,-0.026,-0.061,0.065
0.017,0.076,0.059,-0.047,-0.021,0.067,0.054,-0.019,-0.024,-0.019,-0.032,0.063
-0.001,0.043,0.043,-0.021,-0.022,0.043,0.048,-0.012,-0.018,-0.015,-0.023,0.058
0.02,0.039,0.019,-0.029,0.0,0.029,0.04,-0.008,-0.016,-0.016,-0.034,0.055
0.02,0.063,0.043,-0.042,-0.012,0.053,0.035,-0.001,-0.013,-0.014,-0.02,0.051
0.029,0.042,0.012,-0.036,0.008,0.027,0.027,0.004,-0.013,-0.016,-0.021,0.05
0.015,0.037,0.022,-0.027,-0.003,0.029,0.022,-0.001,-0.005,-0.013,-0.007,0.05
0.028,0.057,0.03,-0.043,-0.001,0.043,0.041,-0.024,-0.035,-0.025,-0.029,0.051
0.034,0.036,0.002,-0.035,0.016,0.019,0.043,-0.037,-0.061,-0.04,-0.054,0.049
-0.002,0.035,0.037,-0.017,-0.02,0.036,0.033,-0.031,-0.045,-0.028,-0.031,0.053
0.025,0.031,0.006,-0.028,0.01,0.018,0.028,-0.029,-0.048,-0.031,-0.035,0.053
0.046,0.023,-0.023,-0.034,0.035,-0.001,0.021,-0.025,-0.038,-0.034,-0.032,0.058
0.026,0.031,0.004,-0.029,0.011,0.017,0.016,-0.019,-0.036,-0.024,-0.014,0.051
-0.005,0.059,0.064,-0.027,-0.035,0.062,0.032,-0.029,-0.038,-0.015,-0.03,0.049
-0.024,0.072,0.096,-0.024,-0.06,0.083,0.079,-0.023,-0.022,-0.007,-0.032,0.073
0.021,0.098,0.078,-0.06,-0.029,0.088,0.09,0.011,0.0,0.0,-0.004,0.082
0.055,0.129,0.074,-0.092,-0.01,0.101,0.085,0.042,0.026,0.016,0.01,0.067
0.062,0.135,0.073,-0.099,-0.005,0.104,0.099,0.062,0.046,0.041,0.029,0.076
0.08,0.141,0.061,-0.111,0.009,0.101,0.062,0.028,0.072,0.066,0.058,0.101
0.038,0.141,0.103,-0.09,-0.033,0.122,0.025,0.009,0.081,0.082,0.074,0.095
0.061,0.153,0.092,-0.107,-0.016,0.122,0.043,0.017,0.066,0.082,0.075,0.124
0.065,0.128,0.063,-0.097,0.001,0.095,0.057,-0.009,0.03,0.048,0.043,0.114
-0.02,0.078,0.098,-0.029,-0.06,0.088,0.055,-0.031,-0.026,-0.004,0.009,0.069
-0.002,0.046,0.048,-0.022,-0.026,0.047,0.054,-0.023,-0.039,-0.025,-0.015,0.061
-0.05,0.004,0.054,0.023,-0.052,0.029,0.057,-0.011,-0.037,-0.043,-0.024,0.043
-0.086,-0.027,0.059,0.056,-0.072,0.016,0.051,-0.047,-0.059,-0.04,-0.037,0.045
-0.103,-0.038,0.064,0.07,-0.083,0.013,0.056,-0.046,-0.06,-0.034,-0.054,0.045
-0.07,-0.033,0.037,0.052,-0.053,0.002,0.031,-0.067,-0.058,-0.041,-0.044,0.035
-0.072,-0.048,0.023,0.06,-0.047,-0.012,0.046,-0.028,-0.037,-0.02,-0.039,0.046
-0.122,-0.057,0.065,0.089,-0.094,0.004,0.055,-0.042,-0.073,-0.044,-0.056,0.033
-0.138,-0.005,0.133,0.071,-0.135,0.064,0.117,0.057,0.029,0.018,-0.022,0.028
-0.22,-0.021,0.199,0.12,-0.209,0.089,0.265,0.237,0.095,0.021,-0.047,-0.018
0.256,0.041,-0.215,-0.149,0.235,-0.086,0.004,0.044,0.182,0.198,0.165,0.128
0.574,0.094,-0.48,-0.334,0.527,-0.193,-0.446,-0.54,0.059,0.227,0.316,0.388
0.131,-0.127,-0.258,-0.002,0.194,-0.192,-0.693,-1.456,-0.845,-0.501,-0.249,0.204
-0.097,-0.27,-0.172,0.184,0.037,-0.221,-0.689,-1.402,-1.025,-0.695,-0.472,0.02
-0.101,-0.187,-0.086,0.145,-0.007,-0.136,-0.332,-0.596,-0.453,-0.316,-0.214,0.053
-0.092,-0.065,0.027,0.079,-0.06,-0.019,-0.026,-0.195,-0.184,-0.137,-0.114,0.024
-0.155,-0.053,0.102,0.103,-0.128,0.024,0.046,-0.006,-0.026,-0.053,-0.059,0.021
-0.179,-0.042,0.136,0.11,-0.157,0.047,0.095,0.037,-0.015,-0.046,-0.062,0.046
-0.15,-0.038,0.112,0.093,-0.131,0.037,0.123,0.076,-0.025,-0.009,-0.043,0.068
-0.158,-0.049,0.109,0.103,-0.133,0.03,0.121,0.07,-0.023,-0.004,-0.037,0.057
-0.075,0.021,0.096,0.026,-0.085,0.058,0.126,0.067,-0.017,0.0,-0.031,0.054
-0.112,-0.006,0.106,0.059,-0.109,0.05,0.128,0.073,-0.007,0.008,-0.018,0.051
-0.139,-0.025,0.114,0.082,-0.126,0.044,0.13,0.076,-0.006,0.008,-0.019,0.044
-0.128,-0.013,0.115,0.07,-0.122,0.051,0.127,0.094,0.002,0.016,-0.017,0.042
-0.133,-0.033,0.1,0.083,-0.116,0.033,0.117,0.088,0.005,0.012,-0.024,0.037
-0.091,-0.005,0.087,0.048,-0.089,0.041,0.117,0.089,0.008,0.001,-0.025,0.03
-0.128,-0.008,0.12,0.068,-0.124,0.056,0.119,0.1,0.02,0.012,-0.021,0.042
-0.161,-0.04,0.121,0.1,-0.14,0.04,0.121,0.144,0.054,0.041,-0.012,0.071
-0.117,0.018,0.135,0.049,-0.126,0.077,0.115,0.135,0.036,0.04,-0.006,0.049
-0.108,0.045,0.152,0.031,-0.13,0.098,0.11,0.142,0.03,0.031,0.001,0.042
-0.093,0.028,0.121,0.032,-0.107,0.074,0.13,0.192,0.068,0.047,0.024,0.073
-0.07,0.069,0.14,0.0,-0.105,0.104,0.129,0.194,0.075,0.069,0.037,0.07
-0.081,0.064,0.145,0.008,-0.113,0.104,0.118,0.214,0.091,0.079,0.049,0.091
-0.06,0.097,0.157,-0.019,-0.109,0.127,0.108,0.25,0.122,0.106,0.07,0.112
-0.041,0.139,0.18,-0.049,-0.111,0.159,0.091,0.256,0.139,0.119,0.077,0.116
-0.002,0.153,0.156,-0.075,-0.079,0.154,0.074,0.285,0.169,0.153,0.125,0.158
0.002,0.165,0.162,-0.083,-0.08,0.163,0.05,0.297,0.19,0.196,0.169,0.171
0.04,0.198,0.158,-0.119,-0.06,0.178,0.067,0.286,0.186,0.193,0.174,0.192
0.101,0.26,0.159,-0.18,-0.03,0.209,0.074,0.282,0.18,0.204,0.169,0.215
0.05,0.201,0.151,-0.126,-0.051,0.176,0.062,0.264,0.178,0.204,0.157,0.208
0.038,0.162,0.123,-0.1,-0.043,0.142,0.059,0.227,0.17,0.181,0.148,0.201
-0.004,0.122,0.126,-0.06,-0.065,0.124,0.049,0.175,0.155,0.153,0.121,0.175
-0.026,0.098,0.123,-0.037,-0.075,0.11,0.071,0.149,0.14,0.106,0.083,0.13
-0.046,0.089,0.135,-0.022,-0.09,0.112,0.103,0.118,0.086,0.072,0.051,0.099
-0.084,0.02,0.104,0.032,-0.094,0.062,0.112,0.081,0.045,0.055,0.033,0.089
-0.057,0.004,0.061,0.027,-0.059,0.032,0.103,0.08,0.047,0.047,0.031,0.077
-0.146,-0.03,0.116,0.087,-0.131,0.043,0.101,0.073,0.041,0.043,0.026,0.071
-0.131,-0.031,0.1,0.081,-0.115,0.034,0.092,0.067,0.037,0.036,0.022,0.064
-0.081,-0.007,0.073,0.044,-0.077,0.033,0.073,0.064,0.035,0.032,0.02,0.057
-0.111,0.007,0.117,0.052,-0.114,0.062,0.067,0.057,0.031,0.026,0.016,0.047
-0.151,-0.049,0.103,0.1,-0.127,0.027,0.075,0.055,0.03,0.019,0.016,0.056
-0.147,-0.043,0.104,0.094,-0.125,0.031,0.093,0.05,0.026,0.013,-0.003,0.072
-0.117,0.001,0.117,0.058,-0.117,0.059,0.087,0.05,0.023,0.009,-0.017,0.069
-0.184,-0.03,0.155,0.107,-0.169,0.062,0.077,0.05,0.021,0.006,-0.014,0.071
-0.141,0.033,0.174,0.054,-0.158,0.103,0.082,0.042,0.015,-0.001,-0.011,0.069
-0.171,-0.012,0.159,0.091,-0.165,0.073,0.111,0.05,0.02,0.007,-0.007,0.072
-0.159,-0.018,0.141,0.088,-0.15,0.061,0.13,0.031,0.001,0.016,-0.006,0.063
-0.091,0.035,0.125,0.028,-0.108,0.08,0.128,0.044,0.024,0.04,0.035,0.077
-0.158,0.028,0.186,0.064,-0.172,0.107,0.124,0.088,0.073,0.064,0.057,0.086
-0.076,0.062,0.139,0.007,-0.108,0.1,0.112,0.073,0.056,0.053,0.04,0.069
-0.053,-0.005,0.048,0.029,-0.05,0.021,0.103,0.064,0.048,0.045,0.034,0.087
-0.126,-0.017,0.109,0.072,-0.118,0.046,0.093,0.048,0.038,0.037,0.022,0.076
-0.157,-0.022,0.134,0.089,-0.145,0.056,0.082,0.059,0.03,0.031,0.016,0.057
-0.132,-0.045,0.087,0.088,-0.109,0.021,0.073,0.056,0.026,0.027,0.011,0.061
-0.096,-0.002,0.094,0.049,-0.095,0.045,0.069,0.02,0.019,0.02,0.005,0.053
-0.154,-0.046,0.108,0.099,-0.13,0.031,0.07,0.024,0.02,0.015,0.001,0.054
-0.128,-0.014,0.114,0.071,-0.12,0.05,0.07,0.011,0.012,0.009,-0.006,0.05
-0.13,0.004,0.134,0.063,-0.132,0.069,0.067,0.013,0.024,0.029,0.018,0.045
-0.133,-0.002,0.13,0.067,-0.132,0.064,0.092,0.04,0.039,0.047,0.042,0.072
-0.061,0.051,0.112,0.005,-0.087,0.082,0.103,0.04,0.036,0.042,0.032,0.076
-0.069,0.06,0.129,0.004,-0.099,0.094,0.095,0.045,0.033,0.043,0.035,0.086
-0.075,0.1,0.175,-0.013,-0.125,0.137,0.127,0.083,0.074,0.08,0.072,0.109
-0.064,0.082,0.146,-0.009,-0.105,0.113,0.105,0.078,0.11,0.1,0.088,0.103
-0.028,0.111,0.139,-0.042,-0.084,0.125,0.062,0.043,0.084,0.091,0.078,0.114
-0.004,0.157,0.161,-0.077,-0.083,0.159,0.063,0.039,0.061,0.083,0.069,0.106
-0.007,0.104,0.111,-0.049,-0.059,0.107,0.053,0.029,0.052,0.065,0.056,0.086
-0.035,0.063,0.099,-0.014,-0.068,0.081,0.052,0.027,0.021,0.051,0.045,0.074
-0.099,-0.001,0.097,0.05,-0.098,0.048,0.04,0.005,-0.003,0.035,0.027,0.052
-0.119,-0.002,0.116,0.06,-0.117,0.056,0.051,-0.003,0.006,0.022,0.009,0.031
-0.166,-0.021,0.145,0.093,-0.156,0.062,0.076,-0.025,-0.025,-0.013,-0.011,0.02
-0.208,-0.062,0.146,0.135,-0.177,0.042,0.067,-0.017,-0.03,-0.006,-0.026,0.016
-0.154,-0.06,0.094,0.107,-0.124,0.017,0.065,0.012,-0.045,0.0,-0.054,0.015
-0.108,-0.058,0.05,0.082,-0.078,-0.004,0.056,-0.005,-0.035,-0.015,-0.047,0.028
-0.142,-0.08,0.062,0.11,-0.101,-0.009,0.053,0.011,-0.02,-0.025,-0.051,0.011
-0.185,-0.121,0.065,0.153,-0.125,-0.028,0.06,0.002,-0.024,-0.011,-0.051,0.013
-0.26,-0.074,0.186,0.167,-0.223,0.056,0.22,0.173,0.077,0.028,-0.047,-0.015
-0.163,-0.089,0.074,0.126,-0.118,-0.008,0.246,0.219,0.109,0.057,-0.018,-0.042
0.395,0.029,-0.366,-0.212,0.38,-0.168,-0.175,-0.056,0.306,0.338,0.347,0.265
0.444,0.03,-0.413,-0.237,0.428,-0.191,-0.56,-0.84,-0.184,0.037,0.211,0.381
-0.016,-0.256,-0.241,0.136,0.113,-0.249,-0.719,-1.548,-1.072,-0.678,-0.399,0.116
-0.069,-0.262,-0.193,0.166,0.063,-0.227,-0.56,-1.047,-0.815,-0.544,-0.358,0.026
-0.132,-0.139,-0.007,0.136,-0.062,-0.073,-0.192,-0.39,-0.341,-0.225,-0.176,-0.014
-0.151,-0.087,0.064,0.119,-0.107,-0.012,0.007,-0.1,-0.128,-0.085,-0.106,-0.014
-0.157,-0.101,0.057,0.129,-0.107,-0.022,0.081,0.025,-0.035,-0.013,-0.032,0.024
-0.192,-0.099,0.093,0.145,-0.142,-0.003,0.091,0.018,-0.043,-0.036,-0.039,0.022
-0.139,-0.063,0.076,0.101,-0.107,0.007,0.089,0.096,0.013,-0.015,-0.019,0.028
-0.168,-0.065,0.103,0.116,-0.135,0.019,0.111,0.097,-0.015,-0.02,-0.015,0.022
-0.154,-0.093,0.06,0.123,-0.107,-0.016,0.137,0.101,0.015,0.01,0.008,0.029
-0.188,-0.095,0.092,0.141,-0.139,-0.002,0.134,0.1,0.035,0.011,-0.009,0.006
-0.166,-0.053,0.113,0.109,-0.139,0.03,0.121,0.099,0.029,-0.004,-0.034,0.017
-0.138,-0.06,0.077,0.098,-0.107,0.009,0.119,0.101,0.023,0.008,-0.022,0.04
-0.185,-0.07,0.115,0.127,-0.15,0.022,0.106,0.103,0.015,-0.004,-0.02,0.033
-0.142,-0.057,0.085,0.1,-0.113,0.014,0.114,0.13,0.009,0.001,-0.009,0.036
-0.121,-0.02,0.101,0.07,-0.111,0.04,0.137,0.13,0.006,0.014,-0.005,0.034
-0.171,-0.027,0.144,0.099,-0.158,0.058,0.14,0.129,0.033,0.03,0.002,0.036
-0.153,-0.002,0.152,0.077,-0.152,0.075,0.134,0.154,0.042,0.051,0.029,0.037
-0.121,-0.012,0.109,0.067,-0.115,0.048,0.132,0.176,0.08,0.073,0.044,0.053
-0.102,-0.059,0.043,0.08,-0.072,-0.008,0.127,0.179,0.088,0.066,0.036,0.056
-0.117,0.009,0.126,0.054,-0.121,0.067,0.125,0.211,0.092,0.076,0.057,0.069
-0.109,0.044,0.154,0.032,-0.132,0.099,0.12,0.243,0.133,0.105,0.086,0.092
-0.045,0.086,0.132,-0.021,-0.089,0.109,0.12,0.264,0.136,0.123,0.084,0.094
-0.057,0.107,0.164,-0.025,-0.111,0.135,0.116,0.278,0.161,0.156,0.114,0.114
0.015,0.139,0.123,-0.077,-0.054,0.131,0.115,0.289,0.197,0.18,0.158,0.147
0.057,0.189,0.132,-0.124,-0.037,0.16,0.109,0.307,0.209,0.209,0.185,0.189
0.032,0.184,0.152,-0.109,-0.06,0.168,0.083,0.283,0.207,0.211,0.192,0.198
0.073,0.195,0.122,-0.134,-0.025,0.158,0.069,0.251,0.202,0.205,0.189,0.198
0.06,0.157,0.097,-0.109,-0.019,0.127,0.071,0.225,0.197,0.203,0.187,0.2
0.035,0.134,0.1,-0.085,-0.033,0.117,0.068,0.195,0.161,0.165,0.151,0.165
-0.028,0.094,0.122,-0.033,-0.075,0.107,0.076,0.17,0.12,0.126,0.11,0.128
-0.05,0.058,0.107,-0.004,-0.079,0.082,0.105,0.128,0.089,0.094,0.08,0.102
-0.037,0.046,0.083,-0.005,-0.06,0.065,0.111,0.077,0.066,0.072,0.056,0.076
-0.084,-0.02,0.064,0.052,-0.074,0.022,0.109,0.056,0.049,0.053,0.041,0.061
-0.114,-0.028,0.087,0.071,-0.1,0.029,0.11,0.046,0.036,0.037,0.03,0.051
-0.105,-0.022,0.083,0.063,-0.094,0.03,0.11,0.034,0.025,0.026,0.019,0.045
-0.104,-0.02,0.083,0.062,-0.093,0.031,0.11,0.028,-0.001,0.007,-0.002,0.028
-0.116,0.0,0.116,0.058,-0.116,0.057,0.105,0.02,-0.012,-0.005,-0.027,0.006
-0.101,-0.013,0.087,0.057,-0.094,0.037,0.105,0.015,-0.003,-0.008,-0.037,0.022
-0.139,-0.048,0.091,0.093,-0.115,0.021,0.103,0.002,-0.001,-0.003,-0.03,0.032
-0.108,-0.013,0.095,0.06,-0.101,0.041,0.101,0.009,-0.007,-0.004,-0.024,0.022
-0.117,-0.006,0.111,0.062,-0.114,0.052,0.098,0.022,-0.017,-0.008,-0.019,0.024
-0.175,-0.044,0.13,0.109,-0.152,0.043,0.109,0.04,0.011,0.015,-0.005,0.015
-0.151,-0.03,0.121,0.09,-0.136,0.046,0.114,0.056,0.034,0.004,0.008,0.018
-0.141,-0.05,0.091,0.096,-0.116,0.02,0.105,0.051,0.025,-0.013,0.015,0.038
-0.105,-0.036,0.069,0.07,-0.086,0.016,0.099,0.04,0.025,0.001,0.029,0.038
-0.101,0.012,0.112,0.044,-0.107,0.062,0.092,0.039,0.027,0.018,0.031,0.03
-0.069,0.002,0.071,0.033,-0.07,0.036,0.112,0.065,0.03,0.036,0.024,0.029
-0.083,-0.002,0.081,0.043,-0.082,0.039,0.119,0.065,0.025,0.036,0.025,0.02
-0.096,0.038,0.135,0.029,-0.116,0.087,0.107,0.051,0.016,0.034,0.018,0.028
-0.045,0.029,0.074,0.008,-0.06,0.052,0.104,0.038,0.013,0.033,0.021,0.045
-0.046,0.037,0.083,0.004,-0.065,0.06,0.095,0.022,0.001,0.029,0.008,0.037
-0.093,0.002,0.095,0.045,-0.094,0.049,0.09,0.016,0.006,0.03,-0.002,0.031
-0.127,-0.069,0.058,0.098,-0.092,-0.006,0.084,0.009,0.026,0.024,0.021,0.025
-0.114,-0.037,0.077,0.075,-0.095,0.02,0.073,0.002,0.019,0.013,0.001,0.016
-0.122,-0.028,0.094,0.075,-0.108,0.033,0.071,-0.004,0.017,0.011,-0.011,0.013
-0.091,-0.022,0.069,0.056,-0.079,0.023,0.052,-0.008,0.003,-0.009,0.007,0.003
-0.088,0.01,0.098,0.038,-0.093,0.054,0.08,-0.008,0.023,0.03,0.035,0.041
-0.093,0.05,0.143,0.021,-0.118,0.097,0.128,0.025,0.071,0.089,0.075,0.091
-0.055,0.064,0.12,-0.005,-0.087,0.092,0.12,0.054,0.074,0.084,0.075,0.09
-0.042,0.077,0.119,-0.018,-0.081,0.098,0.116,0.061,0.073,0.085,0.076,0.089
-0.032,0.136,0.168,-0.052,-0.1,0.151,0.113,0.049,0.062,0.085,0.08,0.091
-0.012,0.137,0.149,-0.063,-0.08,0.143,0.102,0.029,0.055,0.086,0.081,0.09
0.016,0.126,0.11,-0.072,-0.047,0.118,0.093,0.02,0.044,0.078,0.072,0.085
0.009,0.083,0.075,-0.046,-0.033,0.078,0.083,0.003,0.038,0.052,0.043,0.058
-0.036,0.013,0.049,0.011,-0.042,0.031,0.078,-0.018,0.016,0.024,0.018,0.032
-0.079,0.012,0.091,0.033,-0.085,0.052,0.071,-0.039,-0.009,0.016,0.018,0.016
-0.067,-0.028,0.039,0.047,-0.053,0.006,0.062,-0.056,-0.03,-0.012,-0.009,-0.001
-0.063,-0.038,0.025,0.05,-0.044,-0.006,0.083,-0.052,-0.051,-0.039,-0.04,0.021
-0.103,-0.049,0.054,0.076,-0.078,0.003,0.116,-0.049,-0.04,-0.033,-0.032,0.021
-0.133,-0.086,0.046,0.109,-0.089,-0.02,0.094,-0.079,-0.055,-0.049,-0.047,-0.02
-0.118,-0.042,0.076,0.08,-0.097,0.016,0.1,-0.018,-0.007,-0.013,-0.015,0.0
-0.097,-0.069,0.028,0.082,-0.062,-0.02,0.08,-0.06,-0.038,-0.038,-0.041,-0.013
-0.151,-0.027,0.124,0.088,-0.137,0.049,0.135,0.042,0.03,0.01,-0.028,-0.033
-0.205,-0.014,0.191,0.109,-0.198,0.088,0.298,0.215,0.094,0.019,-0.04,-0.067
0.181,0.009,-0.171,-0.095,0.176,-0.081,0.03,0.01,0.186,0.175,0.145,0.048
0.562,0.126,-0.435,-0.344,0.498,-0.154,-0.42,-0.469,0.157,0.288,0.374,0.332
0.185,-0.136,-0.321,-0.025,0.253,-0.228,-0.681,-1.395,-0.766,-0.425,-0.167,0.196
-0.049,-0.311,-0.262,0.181,0.107,-0.286,-0.697,-1.459,-1.072,-0.705,-0.463,-0.025
-0.036,-0.172,-0.136,0.104,0.05,-0.153,-0.35,-0.638,-0.49,-0.331,-0.23,-0.036
-0.13,-0.105,0.025,0.118,-0.078,-0.04,-0.043,-0.208,-0.194,-0.141,-0.122,-0.077
-0.101,-0.093,0.008,0.097,-0.054,-0.042,0.077,-0.005,-0.048,-0.02,-0.042,-0.053
-0.094,-0.056,0.038,0.075,-0.066,-0.009,0.114,0.037,-0.034,-0.026,-0.059,-0.05
-0.099,-0.039,0.06,0.069,-0.079,0.01,0.123,0.077,-0.014,-0.013,-0.045,-0.052
-0.088,-0.073,0.014,0.081,-0.051,-0.029,0.134,0.085,-0.023,-0.013,-0.04,-0.048
-0.076,-0.012,0.064,0.044,-0.07,0.026,0.127,0.073,-0.021,-0.019,-0.037,-0.051
-0.118,-0.018,0.1,0.068,-0.109,0.041,0.128,0.087,-0.008,-0.01,-0.027,-0.043
-0.097,-0.048,0.05,0.072,-0.073,0.001,0.123,0.074,-0.009,-0.022,-0.031,-0.047
-0.108,-0.052,0.056,0.08,-0.082,0.002,0.126,0.084,0.008,-0.023,-0.022,-0.042
-0.121,-0.063,0.059,0.092,-0.09,-0.002,0.141,0.099,-0.01,-0.021,-0.024,-0.04
-0.051,0.015,0.066,0.018,-0.059,0.04,0.146,0.108,0.02,0.005,-0.017,-0.039
-0.035,0.029,0.065,0.003,-0.05,0.047,0.141,0.102,0.041,0.008,-0.035,-0.055
-0.057,0.033,0.09,0.011,-0.074,0.061,0.139,0.103,0.02,-0.005,-0.025,-0.043
-0.111,0.009,0.12,0.051,-0.116,0.065,0.136,0.114,0.021,0.011,0.002,-0.012
-0.121,-0.017,0.103,0.069,-0.112,0.043,0.134,0.146,0.051,0.035,0.009,-0.009
-0.078,0.02,0.098,0.029,-0.088,0.059,0.13,0.157,0.058,0.036,0.015,0.0
-0.069,0.039,0.109,0.015,-0.089,0.074,0.13,0.191,0.074,0.054,0.031,0.007
-0.055,0.074,0.13,-0.01,-0.093,0.102,0.13,0.215,0.091,0.062,0.031,0.007
-0.01,0.104,0.114,-0.047,-0.062,0.109,0.13,0.235,0.11,0.081,0.048,0.031
0.038,0.133,0.096,-0.086,-0.029,0.114,0.125,0.276,0.14,0.118,0.083,0.055
0.091,0.188,0.097,-0.14,-0.003,0.143,0.098,0.28,0.15,0.137,0.104,0.07
0.114,0.218,0.104,-0.166,0.005,0.161,0.082,0.276,0.186,0.169,0.139,0.086
0.15,0.239,0.089,-0.194,0.03,0.164,0.073,0.27,0.194,0.183,0.153,0.103
0.126,0.223,0.097,-0.175,0.014,0.16,0.065,0.259,0.179,0.191,0.166,0.128
0.079,0.173,0.095,-0.126,-0.008,0.134,0.082,0.241,0.176,0.183,0.171,0.152
0.129,0.193,0.065,-0.161,0.032,0.129,0.091,0.198,0.154,0.167,0.16,0.13
0.082,0.155,0.072,-0.119,0.005,0.113,0.084,0.151,0.117,0.147,0.134,0.087
0.03,0.076,0.046,-0.054,-0.008,0.061,0.079,0.128,0.091,0.116,0.094,0.067
0.001,0.061,0.06,-0.031,-0.03,0.06,0.099,0.095,0.073,0.089,0.07,0.031
0.018,0.063,0.045,-0.041,-0.013,0.054,0.113,0.059,0.039,0.034,0.019,-0.002
0.069,0.075,0.006,-0.073,0.031,0.04,0.109,0.048,0.029,0.013,-0.001,-0.008
-0.018,0.076,0.094,-0.029,-0.057,0.085,0.108,0.037,0.009,0.005,-0.002,-0.024
-0.024,0.034,0.059,-0.005,-0.042,0.047,0.104,0.028,-0.033,-0.03,-0.042,-0.063
-0.073,-0.037,0.036,0.055,-0.054,-0.001,0.105,0.018,-0.038,-0.033,-0.049,-0.071
-0.084,-0.04,0.043,0.062,-0.063,0.002,0.105,0.009,-0.03,-0.025,-0.039,-0.063
-0.066,-0.031,0.035,0.048,-0.05,0.002,0.105,0.009,-0.025,-0.022,-0.038,-0.063
-0.102,-0.001,0.101,0.051,-0.101,0.05,0.105,0.003,-0.02,-0.014,-0.028,-0.057
-0.056,0.029,0.085,0.014,-0.071,0.057,0.104,0.002,-0.016,-0.011,-0.027,-0.055
-0.072,0.021,0.093,0.025,-0.083,0.057,0.106,-0.001,-0.014,-0.016,-0.031,-0.05
-0.035,0.051,0.086,-0.008,-0.061,0.068,0.103,-0.004,-0.009,-0.017,-0.029,-0.047
-0.057,0.04,0.097,0.009,-0.077,0.068,0.098,0.018,-0.006,-0.013,-0.025,-0.043
-0.053,0.009,0.062,0.022,-0.057,0.035,0.09,0.021,-0.003,-0.011,-0.022,-0.04
-0.021,0.029,0.049,-0.004,-0.035,0.039,0.085,0.019,0.009,-0.007,-0.018,-0.034
-0.064,0.033,0.097,0.015,-0.08,0.065,0.076,0.018,-0.002,-0.006,-0.014,-0.039
-0.042,0.065,0.107,-0.011,-0.075,0.085,0.072,0.014,-0.002,0.0,-0.01,-0.043
-0.028,0.054,0.082,-0.013,-0.055,0.068,0.08,0.016,0.015,0.01,-0.005,-0.051
0.009,-0.016,-0.025,0.003,0.017,-0.021,0.083,0.011,0.01,0.005,0.0,-0.063
0.006,0.036,0.029,-0.021,-0.012,0.032,0.069,0.006,-0.006,-0.009,0.002,-0.057
0.038,0.057,0.019,-0.048,0.009,0.038,0.071,0.001,-0.006,-0.008,0.012,-0.06
0.008,-0.002,-0.009,-0.003,0.008,-0.005,0.084,-0.002,-0.014,-0.011,-0.008,-0.06
-0.074,-0.018,0.055,0.046,-0.064,0.018,0.074,-0.008,-0.04,-0.023,-0.038,-0.06
-0.036,-0.005,0.031,0.02,-0.033,0.013,0.06,-0.012,-0.026,-0.021,-0.021,-0.059
-0.002,0.047,0.049,-0.022,-0.026,0.048,0.048,-0.032,-0.024,-0.004,-0.027,-0.063
0.012,0.049,0.037,-0.031,-0.013,0.043,0.076,-0.045,-0.031,0.012,-0.04,-0.075
-0.025,-0.017,0.008,0.021,-0.016,-0.005,0.095,-0.031,-0.005,-0.015,-0.029,-0.068
-0.044,-0.01,0.034,0.027,-0.039,0.012,0.09,-0.023,-0.007,-0.016,-0.026,-0.06
0.01,0.065,0.055,-0.038,-0.023,0.06,0.1,-0.009,-0.01,0.018,-0.015,-0.055
0.036,0.107,0.071,-0.071,-0.018,0.089,0.094,0.005,0.005,0.028,0.001,-0.046
0.025,0.131,0.106,-0.078,-0.041,0.119,0.112,0.043,0.043,0.051,0.023,-0.029
0.048,0.147,0.099,-0.098,-0.026,0.123,0.062,0.054,0.067,0.065,0.043,-0.017
0.037,0.136,0.099,-0.087,-0.031,0.117,-0.014,0.012,0.058,0.064,0.046,-0.012
0.059,0.159,0.1,-0.109,-0.021,0.129,-0.053,-0.006,0.045,0.051,0.04,-0.002
0.062,0.126,0.064,-0.094,-0.001,0.095,-0.11,-0.011,0.032,0.042,0.038,-0.008
0.032,0.041,0.01,-0.037,0.011,0.025,-0.115,-0.029,0.018,0.027,0.028,-0.041
0.013,0.002,-0.011,-0.007,0.012,-0.005,-0.12,-0.082,-0.05,-0.04,-0.046,-0.084
-0.052,-0.05,0.002,0.051,-0.027,-0.024,-0.111,-0.083,-0.076,-0.068,-0.079,-0.101
-0.03,-0.053,-0.023,0.042,-0.004,-0.038,-0.098,-0.084,-0.078,-0.067,-0.073,-0.101
-0.03,-0.018,0.012,0.024,-0.021,-0.003,-0.093,-0.068,-0.07,-0.058,-0.066,-0.096
-0.053,-0.068,-0.015,0.06,-0.019,-0.041,-0.073,-0.07,-0.08,-0.065,-0.072,-0.097
-0.022,-0.048,-0.026,0.035,0.002,-0.037,-0.079,-0.065,-0.072,-0.054,-0.059,-0.093
-0.033,-0.02,0.013,0.027,-0.023,-0.003,-0.068,-0.057,-0.064,-0.059,-0.066,-0.097
-0.078,-0.066,0.011,0.072,-0.044,-0.027,-0.048,-0.044,-0.038,-0.029,-0.059,-0.097
-0.14,-0.003,0.137,0.071,-0.138,0.067,0.112,0.181,0.073,0.006,-0.051,-0.12
0.067,0.015,-0.052,-0.041,0.059,-0.018,0.037,0.111,0.121,0.07,0.018,-0.09
0.605,0.102,-0.503,-0.353,0.554,-0.2,-0.439,-0.306,0.19,0.283,0.312,0.178
0.435,0.008,-0.427,-0.221,0.431,-0.209,-0.772,-1.182,-0.499,-0.213,-0.008,0.204
-0.015,-0.278,-0.263,0.146,0.125,-0.27,-0.879,-1.647,-1.144,-0.75,-0.491,-0.039
0.025,-0.215,-0.24,0.096,0.133,-0.228,-0.619,-0.915,-0.683,-0.472,-0.316,-0.1
-0.076,-0.115,-0.039,0.095,-0.018,-0.077,-0.243,-0.331,-0.302,-0.232,-0.169,-0.123
-0.061,-0.056,0.005,0.058,-0.033,-0.025,-0.113,-0.086,-0.113,-0.121,-0.112,-0.122
-0.053,-0.028,0.025,0.04,-0.039,-0.001,-0.056,-0.007,-0.038,-0.079,-0.087,-0.118
-0.105,-0.086,0.019,0.096,-0.062,-0.034,-0.03,-0.008,-0.043,-0.08,-0.083,-0.11
-0.035,-0.005,0.03,0.019,-0.032,0.013,-0.037,0.038,-0.014,-0.07,-0.067,-0.101
-0.068,0.0,0.069,0.034,-0.068,0.035,-0.053,0.03,-0.067,-0.075,-0.091,-0.13
-0.062,-0.042,0.021,0.052,-0.042,-0.011,-0.026,0.075,-0.048,-0.057,-0.074,-0.099
-0.032,-0.002,0.029,0.017,-0.03,0.013,0.001,0.061,-0.048,-0.056,-0.066,-0.087
-0.013,0.0,0.013,0.006,-0.013,0.007,0.001,0.065,-0.039,-0.042,-0.06,-0.085
-0.096,-0.023,0.073,0.059,-0.085,0.024,-0.015,0.067,-0.015,-0.039,-0.057,-0.078
-0.115,-0.042,0.073,0.078,-0.094,0.015,-0.037,0.062,-0.018,-0.03,-0.055,-0.077
-0.069,-0.006,0.063,0.037,-0.066,0.029,-0.032,0.065,-0.018,-0.024,-0.051,-0.068
-0.053,0.011,0.064,0.02,-0.059,0.038,-0.026,0.058,-0.011,-0.018,-0.05,-0.076
-0.015,0.013,0.028,0.001,-0.021,0.02,-0.018,0.083,-0.004,-0.009,-0.046,-0.075
-0.075,-0.037,0.037,0.056,-0.056,0.0,-0.013,0.105,0.002,-0.019,-0.034,-0.066
-0.065,-0.05,0.015,0.057,-0.039,-0.017,-0.005,0.126,0.017,-0.026,-0.026,-0.058
-0.021,0.031,0.052,-0.005,-0.037,0.041,0.001,0.159,0.053,-0.016,-0.013,-0.049
0.018,0.082,0.064,-0.05,-0.024,0.073,-0.023,0.185,0.049,0.009,0.007,-0.032
0.035,0.118,0.083,-0.077,-0.024,0.1,-0.053,0.212,0.043,0.038,0.02,-0.023
0.028,0.114,0.086,-0.071,-0.029,0.099,-0.07,0.241,0.103,0.08,0.067,0.003
0.077,0.128,0.051,-0.103,0.012,0.09,-0.067,0.232,0.121,0.103,0.09,0.026
0.117,0.2,0.083,-0.159,0.017,0.141,-0.058,0.23,0.127,0.121,0.09,0.035
0.12,0.225,0.105,-0.172,0.008,0.164,-0.067,0.249,0.157,0.145,0.126,0.083
0.154,0.217,0.063,-0.186,0.046,0.14,-0.089,0.244,0.151,0.148,0.131,0.079
0.183,0.222,0.039,-0.203,0.072,0.13,-0.11,0.222,0.143,0.169,0.129,0.076
0.153,0.195,0.043,-0.174,0.055,0.119,-0.092,0.184,0.133,0.145,0.129,0.106
0.149,0.156,0.007,-0.153,0.071,0.081,-0.068,0.151,0.113,0.094,0.096,0.065
0.102,0.124,0.022,-0.113,0.04,0.073,-0.075,0.107,0.08,0.075,0.057,0.011
0.115,0.11,-0.004,-0.112,0.06,0.053,-0.071,0.063,0.026,0.024,0.014,-0.026
0.057,0.069,0.012,-0.063,0.022,0.04,-0.066,0.051,0.002,-0.002,-0.014,-0.028
-0.012,0.026,0.038,-0.007,-0.025,0.032,-0.065,0.033,0.01,-0.007,-0.044,-0.048
0.062,0.038,-0.024,-0.05,0.043,0.007,-0.058,0.019,0.01,-0.021,-0.071,-0.084
0.044,-0.002,-0.045,-0.021,0.044,-0.023,-0.061,0.009,-0.017,-0.03,-0.07,-0.078
0.027,-0.026,-0.053,0.0,0.04,-0.039,-0.076,-0.011,-0.064,-0.065,-0.07,-0.08
0.024,0.026,0.001,-0.025,0.011,0.013,-0.076,-0.022,-0.072,-0.072,-0.072,-0.08
0.035,0.019,-0.016,-0.026,0.025,0.002,-0.068,-0.021,-0.061,-0.061,-0.077,-0.079
0.02,-0.022,-0.042,0.001,0.031,-0.032,-0.068,-0.015,-0.059,-0.061,-0.08,-0.084
-0.035,-0.023,0.012,0.028,-0.023,-0.005,-0.062,-0.007,-0.05,-0.054,-0.075,-0.084
-0.033,-0.027,0.006,0.03,-0.019,-0.01,-0.06,0.001,-0.047,-0.052,-0.073,-0.078
-0.013,0.002,0.015,0.005,-0.014,0.008,-0.063,0.014,-0.044,-0.045,-0.069,-0.07
0.037,0.038,0.001,-0.038,0.018,0.019,-0.066,0.017,-0.045,-0.045,-0.066,-0.065
0.001,0.028,0.028,-0.015,-0.014,0.028,-0.069,0.014,-0.045,-0.045,-0.062,-0.056
-0.026,0.014,0.039,0.006,-0.033,0.026,-0.072,0.015,-0.045,-0.04,-0.053,-0.063
0.044,0.009,-0.035,-0.026,0.039,-0.013,-0.075,0.01,-0.046,-0.04,-0.045,-0.072
0.051,0.035,-0.016,-0.043,0.033,0.009,-0.075,0.011,-0.043,-0.039,-0.037,-0.069
0.055,0.008,-0.047,-0.031,0.051,-0.02,-0.074,0.008,-0.041,-0.041,-0.04,-0.068
0.01,-0.028,-0.039,0.009,0.025,-0.033,-0.076,-0.005,-0.038,-0.039,-0.054,-0.064
-0.001,0.026,0.027,-0.013,-0.014,0.026,-0.073,-0.024,-0.042,-0.042,-0.062,-0.065
0.057,0.043,-0.014,-0.05,0.035,0.014,-0.083,-0.023,-0.033,-0.033,-0.056,-0.074
0.03,0.019,-0.01,-0.024,0.02,0.004,-0.09,-0.005,-0.036,-0.037,-0.055,-0.086
0.043,0.028,-0.015,-0.036,0.029,0.006,-0.08,-0.022,-0.061,-0.06,-0.063,-0.095
0.033,0.014,-0.019,-0.023,0.026,-0.002,-0.078,-0.037,-0.053,-0.055,-0.062,-0.095
-0.011,-0.018,-0.006,0.015,-0.002,-0.012,-0.072,-0.03,-0.016,-0.046,-0.055,-0.09
0.03,0.034,0.004,-0.032,0.013,0.019,-0.064,-0.008,-0.019,-0.038,-0.05,-0.088
0.051,0.076,0.025,-0.064,0.013,0.05,-0.049,0.042,-0.041,-0.031,-0.045,-0.084
-0.002,0.046,0.049,-0.022,-0.026,0.047,-0.041,0.039,0.003,-0.019,-0.036,-0.079
0.009,0.091,0.082,-0.05,-0.037,0.086,-0.029,0.041,0.022,-0.006,-0.023,-0.069
0.088,0.113,0.025,-0.101,0.031,0.069,-0.022,0.061,0.016,0.016,-0.012,-0.065
0.046,0.113,0.067,-0.08,-0.011,0.089,-0.068,0.027,0.045,0.045,-0.007,-0.065
0.044,0.136,0.092,-0.09,-0.024,0.114,-0.079,0.01,0.032,0.035,0.0,-0.064
0.086,0.112,0.026,-0.099,0.03,0.069,-0.086,-0.028,0.017,0.021,0.004,-0.067
0.046,0.04,-0.005,-0.043,0.025,0.017,-0.119,-0.054,-0.013,-0.005,-0.021,-0.062
0.027,-0.005,-0.031,-0.011,0.029,-0.018,-0.102,-0.064,-0.064,-0.051,-0.063,-0.099
0.029,0.003,-0.026,-0.016,0.028,-0.011,-0.05,-0.055,-0.041,-0.043,-0.064,-0.114
-0.002,-0.054,-0.052,0.028,0.025,-0.053,-0.061,-0.065,-0.069,-0.065,-0.085,-0.118
-0.025,-0.027,-0.002,0.026,-0.011,-0.014,-0.1,-0.083,-0.093,-0.083,-0.095,-0.143
-0.022,-0.061,-0.04,0.042,0.009,-0.05,-0.088,-0.07,-0.089,-0.085,-0.096,-0.145
-0.07,-0.133,-0.063,0.102,-0.003,-0.097,-0.079,-0.062,-0.088,-0.081,-0.091,-0.145
-0.083,-0.105,-0.021,0.094,-0.03,-0.063,-0.054,-0.017,-0.062,-0.07,-0.068,-0.133
-0.041,-0.069,-0.028,0.055,-0.006,-0.048,-0.084,-0.072,-0.101,-0.093,-0.103,-0.157
-0.11,-0.001,0.109,0.055,-0.11,0.054,0.063,0.115,0.03,-0.029,-0.089,-0.171
-0.083,-0.072,0.01,0.077,-0.046,-0.031,0.15,0.22,0.096,0.009,-0.068,-0.185
0.46,0.019,-0.441,-0.239,0.45,-0.211,-0.263,-0.095,0.2,0.238,0.224,0.048
0.543,0.047,-0.497,-0.295,0.52,-0.225,-0.649,-0.829,-0.197,0.012,0.158,0.23
0.019,-0.252,-0.271,0.117,0.146,-0.262,-0.815,-1.586,-1.062,-0.695,-0.44,-0.029
-0.005,-0.3,-0.295,0.153,0.145,-0.297,-0.715,-1.176,-0.905,-0.628,-0.443,-0.152
0.026,-0.137,-0.163,0.055,0.095,-0.15,-0.333,-0.458,-0.409,-0.305,-0.234,-0.145
-0.023,-0.082,-0.059,0.053,0.019,-0.07,-0.108,-0.158,-0.173,-0.146,-0.16,-0.158
-0.001,-0.097,-0.095,0.049,0.047,-0.096,-0.064,-0.004,-0.06,-0.059,-0.11,-0.138
-0.013,-0.039,-0.026,0.027,0.006,-0.033,-0.039,-0.006,-0.088,-0.074,-0.118,-0.147
-0.039,-0.051,-0.012,0.045,-0.013,-0.031,-0.033,0.033,-0.065,-0.055,-0.094,-0.132
-0.056,-0.118,-0.063,0.087,0.004,-0.09,-0.026,0.048,-0.076,-0.064,-0.094,-0.141
-0.012,-0.076,-0.064,0.044,0.026,-0.07,-0.025,0.051,-0.064,-0.053,-0.078,-0.151
-0.045,-0.088,-0.043,0.067,-0.001,-0.065,-0.016,0.068,-0.059,-0.056,-0.075,-0.145
-0.044,-0.087,-0.043,0.066,0.0,-0.065,-0.019,0.084,-0.058,-0.055,-0.073,-0.145
-0.031,-0.033,-0.002,0.033,-0.015,-0.017,-0.03,0.09,-0.046,-0.054,-0.08,-0.137
-0.016,-0.061,-0.045,0.038,0.015,-0.053,-0.034,0.087,-0.048,-0.069,-0.088,-0.137
-0.003,-0.042,-0.039,0.023,0.018,-0.04,-0.018,0.098,-0.032,-0.063,-0.068,-0.137
-0.018,-0.029,-0.011,0.024,-0.003,-0.019,-0.022,0.09,-0.036,-0.055,-0.065,-0.133
-0.019,-0.051,-0.032,0.035,0.007,-0.041,-0.041,0.1,-0.059,-0.051,-0.08,-0.148
-0.011,-0.027,-0.016,0.019,0.003,-0.021,0.003,0.118,-0.032,-0.038,-0.061,-0.131
0.027,-0.026,-0.054,0.0,0.04,-0.04,0.003,0.128,-0.017,-0.037,-0.038,-0.129
-0.008,-0.025,-0.017,0.017,0.005,-0.021,-0.017,0.154,0.002,-0.012,-0.036,-0.145
-0.039,-0.024,0.015,0.031,-0.027,-0.005,-0.013,0.166,0.022,0.014,-0.017,-0.119
0.044,0.041,-0.003,-0.043,0.024,0.019,-0.016,0.211,0.02,0.014,-0.007,-0.092
0.025,0.061,0.037,-0.043,-0.006,0.049,0.0,0.23,0.063,0.05,0.014,-0.065
-0.015,0.057,0.072,-0.021,-0.044,0.064,0.007,0.244,0.088,0.079,0.064,-0.039
0.125,0.162,0.037,-0.144,0.044,0.099,-0.017,0.278,0.116,0.108,0.079,-0.051
0.178,0.177,-0.001,-0.177,0.089,0.088,-0.057,0.266,0.145,0.143,0.098,-0.043
0.142,0.166,0.025,-0.154,0.058,0.095,-0.074,0.261,0.147,0.151,0.119,-0.029
0.146,0.151,0.005,-0.148,0.07,0.077,-0.066,0.244,0.145,0.154,0.111,-0.007
0.13,0.139,0.009,-0.135,0.06,0.074,-0.058,0.204,0.119,0.134,0.11,0.03
0.121,0.143,0.022,-0.132,0.049,0.082,-0.066,0.167,0.119,0.127,0.1,-0.011
0.101,0.102,0.002,-0.101,0.049,0.052,-0.065,0.133,0.091,0.093,0.069,-0.039
0.076,0.069,-0.007,-0.073,0.042,0.031,-0.049,0.108,0.044,0.02,0.029,-0.061
0.039,-0.004,-0.044,-0.017,0.042,-0.024,-0.041,0.076,0.014,-0.008,-0.02,-0.106
-0.022,-0.026,-0.005,0.024,-0.008,-0.015,-0.037,0.035,-0.041,-0.039,-0.063,-0.118
-0.003,-0.022,-0.019,0.013,0.008,-0.021,-0.019,0.032,-0.04,-0.05,-0.06,-0.115
0.048,-0.032,-0.081,-0.008,0.064,-0.056,-0.042,0.016,-0.057,-0.069,-0.086,-0.139
-0.018,-0.046,-0.028,0.032,0.005,-0.037,-0.042,0.008,-0.09,-0.093,-0.115,-0.166
-0.05,-0.098,-0.048,0.074,0.0,-0.073,0.008,0.014,-0.076,-0.078,-0.104,-0.148
-0.024,-0.088,-0.064,0.056,0.02,-0.076,-0.015,-0.015,-0.076,-0.076,-0.104,-0.141
-0.024,-0.046,-0.021,0.036,-0.001,-0.033,-0.03,-0.011,-0.07,-0.067,-0.1,-0.14
-0.029,-0.054,-0.025,0.041,-0.002,-0.039,-0.02,-0.007,-0.065,-0.062,-0.096,-0.139
-0.049,-0.05,-0.001,0.049,-0.024,-0.025,-0.023,0.005,-0.062,-0.059,-0.09,-0.141
-0.039,-0.039,0.0,0.039,-0.019,-0.02,-0.016,0.022,-0.054,-0.065,-0.082,-0.139
-0.049,-0.074,-0.025,0.062,-0.012,-0.05,-0.016,0.015,-0.051,-0.074,-0.077,-0.14
0.012,-0.028,-0.04,0.008,0.026,-0.034,-0.016,0.01,-0.044,-0.062,-0.068,-0.126
0.009,-0.016,-0.025,0.004,0.017,-0.02,-0.028,0.022,-0.037,-0.057,-0.066,-0.116
-0.094,-0.075,0.019,0.084,-0.056,-0.028,-0.037,0.043,-0.041,-0.049,-0.065,-0.114
-0.051,-0.058,-0.006,0.055,-0.022,-0.032,-0.041,0.038,-0.056,-0.043,-0.063,-0.115
0.027,-0.038,-0.065,0.005,0.046,-0.051,-0.04,0.034,-0.05,-0.036,-0.059,-0.115
0.031,-0.047,-0.078,0.008,0.055,-0.062,-0.04,0.036,-0.044,-0.03,-0.06,-0.114
-0.006,-0.049,-0.042,0.028,0.018,-0.045,-0.041,0.034,-0.043,-0.04,-0.072,-0.117
-0.002,-0.043,-0.04,0.023,0.019,-0.041,-0.038,0.036,-0.033,-0.038,-0.069,-0.111
0.027,-0.023,-0.05,-0.002,0.038,-0.036,-0.049,0.035,-0.046,-0.049,-0.058,-0.121
0.004,0.015,0.011,-0.01,-0.004,0.013,-0.029,0.035,-0.04,-0.051,-0.047,-0.125
-0.038,-0.021,0.017,0.029,-0.028,-0.002,-0.009,0.036,-0.026,-0.033,-0.042,-0.117
-0.028,-0.018,0.01,0.022,-0.018,-0.004,-0.006,0.034,-0.026,-0.037,-0.032,-0.1
0.038,0.039,0.0,-0.039,0.019,0.019,0.028,0.047,0.003,-0.039,-0.034,-0.093
0.069,0.095,0.027,-0.082,0.021,0.061,0.023,0.056,0.015,-0.029,-0.043,-0.112
0.094,0.114,0.019,-0.104,0.037,0.066,-0.02,0.042,0.022,0.004,-0.015,-0.088
0.113,0.093,-0.021,-0.103,0.067,0.036,-0.054,0.029,0.024,0.02,-0.008,-0.083
0.09,0.105,0.015,-0.098,0.037,0.06,-0.06,0.008,0.01,-0.004,0.001,-0.087
0.094,0.039,-0.054,-0.066,0.074,-0.008,-0.042,-0.003,-0.014,-0.024,0.0,-0.084
0.005,-0.04,-0.045,0.018,0.025,-0.042,-0.037,-0.03,-0.062,-0.046,-0.048,-0.117
-0.014,-0.066,-0.052,0.04,0.02,-0.059,-0.044,-0.038,-0.068,-0.049,-0.065,-0.135
0.008,-0.068,-0.076,0.03,0.042,-0.071,-0.048,-0.055,-0.087,-0.079,-0.093,-0.157
-0.067,-0.095,-0.028,0.081,-0.019,-0.061,-0.052,-0.062,-0.094,-0.065,-0.091,-0.153
-0.002,-0.112,-0.11,0.057,0.055,-0.111,-0.046,-0.051,-0.088,-0.073,-0.1,-0.157
0.027,-0.088,-0.115,0.031,0.071,-0.101,-0.054,-0.074,-0.103,-0.107,-0.111,-0.178
-0.022,-0.105,-0.084,0.064,0.031,-0.094,-0.051,-0.047,-0.097,-0.079,-0.09,-0.171
-0.048,-0.104,-0.056,0.076,0.004,-0.08,-0.047,-0.087,-0.128,-0.108,-0.111,-0.181
-0.179,-0.079,0.101,0.129,-0.139,0.011,0.074,0.087,-0.007,-0.044,-0.07,-0.177
-0.136,-0.123,0.012,0.13,-0.074,-0.055,0.168,0.152,0.013,-0.04,-0.099,-0.206
0.397,-0.001,-0.398,-0.198,0.397,-0.199,-0.19,0.009,0.25,0.264,0.233,0.022
0.54,0.017,-0.523,-0.278,0.532,-0.253,-0.635,-0.712,-0.109,0.085,0.216,0.198
0.143,-0.252,-0.395,0.054,0.269,-0.323,-0.793,-1.546,-1.053,-0.688,-0.403,-0.015
