-0.078,0.169,0.247,-0.046,-0.163,0.208,-0.019,-0.06,-0.06,-0.075,-0.084,0.025
-0.113,0.157,0.27,-0.022,-0.192,0.213,-0.015,-0.06,-0.06,-0.075,-0.08,0.025
-0.128,0.15,0.278,-0.011,-0.203,0.213,-0.015,-0.06,-0.06,-0.075,-0.079,0.025
-0.121,0.144,0.266,-0.012,-0.193,0.205,-0.015,-0.064,-0.06,-0.075,-0.074,0.025
-0.106,0.155,0.261,-0.025,-0.184,0.208,-0.014,-0.065,-0.06,-0.076,-0.074,0.025
-0.091,0.16,0.252,-0.035,-0.172,0.206,-0.016,-0.066,-0.06,-0.074,-0.067,0.024
-0.133,0.112,0.245,0.01,-0.189,0.178,-0.009,-0.069,-0.071,-0.085,-0.079,0.021
-0.123,0.13,0.253,-0.004,-0.188,0.192,0.012,-0.074,-0.076,-0.096,-0.097,0.019
-0.127,0.132,0.259,-0.003,-0.193,0.195,0.016,-0.075,-0.074,-0.095,-0.094,0.021
-0.128,0.119,0.247,0.005,-0.188,0.182,0.009,-0.075,-0.079,-0.095,-0.095,0.019
-0.095,0.149,0.244,-0.027,-0.17,0.196,0.008,-0.076,-0.079,-0.095,-0.095,0.021
-0.103,0.131,0.235,-0.014,-0.169,0.183,0.001,-0.072,-0.081,-0.095,-0.094,0.018
-0.114,0.115,0.229,0.0,-0.172,0.171,-0.007,-0.086,-0.085,-0.097,-0.098,0.007
-0.122,0.135,0.258,-0.007,-0.19,0.196,-0.018,-0.097,-0.095,-0.102,-0.104,-0.001
-0.126,0.154,0.28,-0.014,-0.203,0.216,-0.026,-0.095,-0.086,-0.077,-0.112,-0.019
-0.087,0.185,0.272,-0.05,-0.18,0.228,-0.015,-0.072,-0.041,-0.059,-0.086,0.003
-0.057,0.209,0.266,-0.076,-0.162,0.238,0.019,-0.048,-0.027,-0.064,-0.048,0.041
-0.099,0.216,0.315,-0.059,-0.208,0.266,0.039,-0.05,-0.032,-0.054,-0.038,0.049
-0.091,0.251,0.342,-0.08,-0.217,0.296,-0.003,-0.058,-0.028,-0.039,-0.026,0.067
-0.062,0.278,0.34,-0.108,-0.201,0.309,-0.036,-0.08,-0.033,-0.035,-0.027,0.064
-0.07,0.253,0.323,-0.092,-0.197,0.288,-0.035,-0.088,-0.027,-0.031,-0.021,0.054
-0.072,0.191,0.263,-0.06,-0.167,0.227,-0.035,-0.088,-0.033,-0.046,-0.035,0.045
-0.109,0.135,0.244,-0.014,-0.177,0.19,-0.036,-0.093,-0.065,-0.064,-0.067,0.039
-0.143,0.085,0.228,0.029,-0.186,0.156,-0.034,-0.095,-0.093,-0.086,-0.084,0.027
-0.095,0.112,0.207,-0.009,-0.152,0.16,-0.035,-0.094,-0.081,-0.09,-0.102,0.022
-0.102,0.09,0.192,0.006,-0.147,0.141,-0.029,-0.089,-0.084,-0.09,-0.112,0.011
-0.12,0.061,0.182,0.029,-0.151,0.121,-0.022,-0.081,-0.12,-0.117,-0.106,0.006
-0.101,0.074,0.174,0.013,-0.138,0.124,-0.023,-0.08,-0.106,-0.103,-0.098,0.003
-0.116,0.045,0.162,0.035,-0.139,0.103,-0.009,-0.068,-0.113,-0.117,-0.107,-0.011
-0.108,0.099,0.207,0.004,-0.158,0.153,-0.021,-0.073,-0.082,-0.083,-0.08,0.024
-0.156,0.056,0.212,0.049,-0.184,0.134,0.016,-0.034,-0.098,-0.113,-0.132,-0.027
-0.145,0.069,0.213,0.038,-0.179,0.141,0.171,0.237,0.072,-0.047,-0.112,-0.038
-0.003,0.282,0.284,-0.14,-0.144,0.283,0.352,0.68,0.539,0.296,0.143,0.139
0.297,0.978,0.681,-0.638,-0.192,0.829,0.1,0.813,1.496,1.313,0.978,0.758
0.356,1.401,1.045,-0.879,-0.345,1.223,-0.411,0.093,1.853,1.961,1.495,1.131
0.033,0.638,0.604,-0.336,-0.286,0.621,-0.353,-0.446,0.34,0.607,0.532,0.473
-0.139,0.016,0.156,0.061,-0.147,0.086,0.008,0.048,-0.341,-0.258,-0.157,0.02
-0.157,-0.011,0.146,0.084,-0.151,0.067,0.141,0.336,0.062,-0.021,-0.089,0.018
-0.078,0.083,0.161,-0.003,-0.12,0.122,0.101,0.18,-0.006,-0.062,-0.096,-0.014
-0.062,0.154,0.216,-0.046,-0.139,0.185,0.074,0.083,0.036,-0.002,-0.053,0.019
-0.102,0.131,0.233,-0.015,-0.168,0.182,0.073,0.021,0.012,-0.02,-0.058,0.024
-0.093,0.136,0.228,-0.021,-0.161,0.181,0.06,0.031,0.012,-0.011,-0.043,0.052
-0.068,0.161,0.228,-0.047,-0.148,0.194,0.057,0.024,0.015,0.001,-0.039,0.049
-0.041,0.195,0.236,-0.078,-0.138,0.215,0.049,0.024,0.025,-0.009,-0.038,0.053
-0.07,0.183,0.253,-0.057,-0.162,0.218,0.051,0.023,0.08,0.009,-0.027,0.068
-0.056,0.185,0.24,-0.065,-0.149,0.212,0.05,0.018,0.055,0.012,-0.031,0.053
-0.052,0.186,0.239,-0.067,-0.146,0.212,0.05,0.02,0.083,0.042,-0.017,0.06
-0.072,0.183,0.255,-0.056,-0.164,0.219,0.048,0.032,0.097,0.032,-0.01,0.084
-0.078,0.19,0.268,-0.057,-0.173,0.229,0.043,0.051,0.12,0.054,0.009,0.099
-0.048,0.205,0.253,-0.079,-0.15,0.229,0.04,0.064,0.17,0.09,0.016,0.093
-0.035,0.21,0.245,-0.088,-0.14,0.227,0.036,0.089,0.198,0.111,0.029,0.097
-0.054,0.225,0.279,-0.086,-0.166,0.252,0.033,0.118,0.257,0.153,0.065,0.124
0.011,0.31,0.299,-0.161,-0.144,0.304,0.027,0.167,0.332,0.206,0.104,0.158
0.011,0.325,0.314,-0.168,-0.152,0.319,0.045,0.222,0.412,0.274,0.159,0.194
0.015,0.356,0.341,-0.186,-0.163,0.348,0.044,0.266,0.499,0.347,0.214,0.228
0.069,0.431,0.362,-0.251,-0.147,0.396,0.021,0.297,0.569,0.406,0.262,0.272
0.073,0.45,0.377,-0.262,-0.153,0.414,0.022,0.321,0.63,0.457,0.314,0.313
0.105,0.492,0.386,-0.299,-0.141,0.438,0.017,0.336,0.646,0.493,0.35,0.337
0.104,0.492,0.387,-0.298,-0.142,0.439,0.024,0.317,0.628,0.495,0.359,0.335
0.089,0.46,0.371,-0.275,-0.141,0.415,0.015,0.27,0.564,0.438,0.322,0.318
0.073,0.425,0.352,-0.249,-0.14,0.388,0.033,0.221,0.424,0.345,0.258,0.308
0.026,0.342,0.316,-0.184,-0.145,0.329,0.074,0.156,0.279,0.241,0.181,0.23
-0.025,0.246,0.271,-0.111,-0.148,0.258,0.061,0.08,0.16,0.118,0.077,0.141
-0.038,0.193,0.231,-0.078,-0.135,0.212,0.063,0.034,0.069,0.035,0.008,0.1
-0.036,0.168,0.203,-0.066,-0.12,0.185,0.059,-0.004,0.014,-0.011,-0.04,0.067
-0.041,0.159,0.199,-0.059,-0.12,0.179,0.049,-0.035,-0.034,-0.055,-0.076,0.051
-0.065,0.135,0.2,-0.035,-0.133,0.168,0.046,-0.044,-0.057,-0.068,-0.077,0.035
-0.095,0.104,0.199,-0.005,-0.147,0.151,0.038,-0.051,-0.065,-0.074,-0.084,0.029
-0.093,0.107,0.2,-0.007,-0.147,0.153,0.042,-0.05,-0.067,-0.087,-0.084,0.031
-0.097,0.102,0.199,-0.003,-0.148,0.15,0.038,-0.05,-0.059,-0.089,-0.08,0.029
-0.076,0.12,0.195,-0.022,-0.135,0.157,0.043,-0.051,-0.056,-0.084,-0.078,0.031
-0.108,0.082,0.19,0.013,-0.149,0.136,0.036,-0.049,-0.049,-0.076,-0.074,0.03
-0.087,0.099,0.187,-0.006,-0.137,0.143,0.035,-0.054,-0.044,-0.084,-0.072,0.027
-0.021,0.16,0.181,-0.07,-0.101,0.17,0.059,-0.054,-0.039,-0.088,-0.069,0.024
-0.062,0.119,0.181,-0.028,-0.122,0.15,0.054,-0.057,-0.041,-0.077,-0.067,0.025
-0.081,0.126,0.207,-0.023,-0.145,0.166,0.047,-0.053,-0.039,-0.075,-0.064,0.025
-0.09,0.124,0.215,-0.017,-0.153,0.17,0.043,-0.057,-0.041,-0.075,-0.063,0.025
-0.095,0.111,0.206,-0.008,-0.151,0.158,0.036,-0.052,-0.04,-0.075,-0.058,0.024
-0.092,0.112,0.204,-0.01,-0.149,0.158,0.032,-0.044,-0.042,-0.075,-0.062,0.017
-0.062,0.136,0.198,-0.037,-0.13,0.167,0.026,-0.077,-0.07,-0.075,-0.081,0.011
-0.076,0.119,0.195,-0.022,-0.136,0.156,0.021,-0.089,-0.078,-0.075,-0.089,0.004
-0.1,0.088,0.188,0.005,-0.144,0.138,0.014,-0.086,-0.086,-0.089,-0.075,-0.003
-0.039,0.142,0.181,-0.052,-0.11,0.161,0.01,-0.094,-0.102,-0.106,-0.092,-0.009
-0.051,0.122,0.174,-0.036,-0.113,0.148,0.01,-0.093,-0.1,-0.106,-0.118,-0.014
-0.064,0.103,0.167,-0.02,-0.115,0.135,0.01,-0.097,-0.098,-0.103,-0.117,-0.02
-0.052,0.105,0.157,-0.027,-0.105,0.131,0.01,-0.1,-0.114,-0.116,-0.122,-0.025
-0.074,0.09,0.164,-0.008,-0.119,0.127,0.01,-0.1,-0.132,-0.132,-0.125,-0.031
-0.084,0.092,0.176,-0.004,-0.13,0.134,0.01,-0.102,-0.129,-0.129,-0.124,-0.036
-0.099,0.075,0.174,0.011,-0.137,0.125,0.008,-0.105,-0.132,-0.132,-0.125,-0.042
-0.086,0.089,0.175,-0.002,-0.131,0.132,0.004,-0.105,-0.136,-0.136,-0.124,-0.045
-0.085,0.09,0.175,-0.003,-0.13,0.132,0.002,-0.109,-0.134,-0.135,-0.125,-0.045
-0.102,0.073,0.175,0.014,-0.139,0.124,-0.001,-0.11,-0.132,-0.132,-0.125,-0.045
-0.092,0.079,0.171,0.006,-0.132,0.125,-0.004,-0.112,-0.129,-0.129,-0.125,-0.045
-0.09,0.077,0.167,0.006,-0.129,0.122,-0.006,-0.116,-0.131,-0.131,-0.133,-0.046
-0.1,0.06,0.16,0.02,-0.131,0.11,0.007,-0.113,-0.125,-0.129,-0.131,-0.04
-0.089,0.07,0.159,0.009,-0.124,0.114,0.021,-0.109,-0.126,-0.131,-0.127,-0.035
-0.053,0.097,0.15,-0.023,-0.101,0.124,0.019,-0.102,-0.126,-0.128,-0.122,-0.027
-0.066,0.086,0.152,-0.01,-0.109,0.119,0.022,-0.097,-0.126,-0.122,-0.119,-0.023
-0.084,0.104,0.187,-0.01,-0.136,0.145,0.017,-0.09,-0.113,-0.109,-0.112,-0.013
-0.108,0.1,0.207,0.004,-0.158,0.153,0.031,-0.086,-0.079,-0.105,-0.092,-0.013
-0.104,0.132,0.236,-0.014,-0.17,0.184,0.053,-0.074,-0.08,-0.104,-0.089,-0.03
-0.034,0.212,0.246,-0.089,-0.14,0.229,0.043,-0.069,-0.08,-0.068,-0.068,0.0
-0.066,0.169,0.235,-0.052,-0.151,0.202,0.036,-0.103,-0.061,-0.071,-0.069,0.025
-0.06,0.174,0.234,-0.057,-0.148,0.204,0.024,-0.119,-0.054,-0.079,-0.077,0.032
-0.038,0.165,0.203,-0.063,-0.121,0.184,0.017,-0.113,-0.067,-0.067,-0.074,0.017
-0.082,0.088,0.171,-0.003,-0.127,0.129,0.014,-0.116,-0.099,-0.094,-0.096,-0.018
-0.104,0.045,0.149,0.029,-0.127,0.097,0.015,-0.114,-0.112,-0.109,-0.11,-0.037
-0.117,0.0,0.117,0.058,-0.117,0.059,0.015,-0.117,-0.142,-0.138,-0.14,-0.063
-0.058,0.021,0.079,0.018,-0.069,0.05,0.014,-0.135,-0.148,-0.149,-0.156,-0.081
-0.093,0.004,0.097,0.044,-0.095,0.05,0.015,-0.132,-0.148,-0.156,-0.16,-0.087
-0.158,-0.021,0.138,0.089,-0.148,0.058,-0.012,-0.126,-0.124,-0.134,-0.139,-0.07
-0.128,-0.013,0.115,0.07,-0.121,0.051,-0.01,-0.124,-0.144,-0.143,-0.15,-0.081
-0.107,0.012,0.12,0.047,-0.114,0.066,-0.008,-0.116,-0.131,-0.125,-0.125,-0.058
-0.097,0.004,0.101,0.046,-0.099,0.052,0.023,-0.109,-0.117,-0.121,-0.137,-0.074
-0.09,0.015,0.105,0.037,-0.097,0.059,0.131,0.08,-0.062,-0.117,-0.168,-0.107
-0.038,0.124,0.162,-0.043,-0.101,0.143,0.328,0.484,0.27,0.076,-0.031,-0.032
0.208,0.6,0.392,-0.405,-0.092,0.496,0.273,0.866,1.038,0.812,0.572,0.433
0.463,1.318,0.855,-0.891,-0.196,1.086,-0.241,0.487,2.009,1.945,1.458,1.097
0.208,0.922,0.715,-0.565,-0.254,0.818,-0.42,-0.382,1.036,1.199,0.933,0.726
-0.066,0.072,0.139,-0.003,-0.102,0.105,-0.099,-0.235,-0.369,-0.199,-0.098,0.006
-0.039,-0.054,-0.015,0.046,-0.012,-0.034,0.098,0.249,-0.096,-0.125,-0.138,-0.085
-0.072,0.011,0.083,0.031,-0.078,0.047,0.107,0.176,-0.016,-0.074,-0.107,-0.072
-0.051,0.095,0.146,-0.022,-0.099,0.12,0.099,0.073,-0.049,-0.08,-0.095,-0.046
-0.045,0.104,0.148,-0.03,-0.096,0.125,0.072,0.001,-0.013,-0.045,-0.081,-0.042
-0.058,0.098,0.156,-0.02,-0.107,0.126,0.053,-0.031,-0.045,-0.07,-0.089,-0.038
-0.058,0.11,0.167,-0.026,-0.113,0.138,0.05,-0.041,-0.002,-0.033,-0.069,-0.026
-0.073,0.103,0.176,-0.016,-0.124,0.139,0.038,-0.039,-0.024,-0.051,-0.077,-0.026
-0.048,0.127,0.176,-0.04,-0.112,0.151,0.033,-0.038,-0.002,-0.034,-0.06,-0.013
-0.05,0.123,0.174,-0.037,-0.113,0.148,0.026,-0.045,-0.017,-0.048,-0.062,-0.014
-0.046,0.131,0.177,-0.043,-0.111,0.153,0.025,-0.016,0.023,-0.014,-0.052,-0.004
-0.041,0.131,0.172,-0.045,-0.106,0.151,0.025,-0.01,0.043,-0.002,-0.049,-0.001
-0.056,0.135,0.191,-0.04,-0.124,0.163,0.025,-0.002,0.065,0.011,-0.038,0.005
-0.066,0.135,0.201,-0.034,-0.134,0.168,0.026,0.025,0.095,0.036,-0.017,0.017
-0.06,0.14,0.2,-0.04,-0.131,0.17,0.024,0.052,0.131,0.059,0.012,0.03
-0.025,0.181,0.206,-0.078,-0.115,0.193,0.016,0.086,0.19,0.102,0.031,0.053
-0.003,0.202,0.205,-0.1,-0.104,0.204,0.009,0.135,0.247,0.141,0.067,0.074
0.02,0.242,0.222,-0.131,-0.102,0.232,0.002,0.185,0.326,0.201,0.116,0.094
0.067,0.314,0.247,-0.191,-0.09,0.28,-0.006,0.242,0.413,0.278,0.167,0.15
0.059,0.333,0.274,-0.196,-0.108,0.303,-0.012,0.287,0.485,0.341,0.227,0.188
0.087,0.378,0.291,-0.233,-0.102,0.334,-0.012,0.32,0.541,0.391,0.268,0.222
0.165,0.46,0.295,-0.313,-0.065,0.377,-0.009,0.33,0.584,0.437,0.319,0.278
0.162,0.457,0.295,-0.31,-0.067,0.376,-0.006,0.311,0.577,0.449,0.343,0.277
0.142,0.421,0.28,-0.282,-0.07,0.35,-0.003,0.292,0.524,0.42,0.33,0.261
0.097,0.369,0.272,-0.233,-0.088,0.32,-0.001,0.219,0.42,0.338,0.264,0.241
0.049,0.295,0.246,-0.172,-0.099,0.27,0.001,0.127,0.274,0.217,0.168,0.174
0.014,0.214,0.2,-0.114,-0.094,0.207,0.007,0.061,0.145,0.103,0.091,0.101
-0.018,0.148,0.167,-0.065,-0.093,0.157,0.013,0.002,0.045,0.016,0.013,0.045
-0.032,0.113,0.144,-0.041,-0.089,0.128,0.019,-0.04,-0.023,-0.034,-0.035,0.006
-0.07,0.068,0.138,0.001,-0.104,0.102,0.017,-0.074,-0.081,-0.081,-0.07,-0.016
-0.067,0.063,0.131,0.002,-0.099,0.097,0.013,-0.088,-0.112,-0.106,-0.092,-0.033
-0.057,0.066,0.123,-0.004,-0.091,0.095,0.012,-0.085,-0.117,-0.113,-0.095,-0.044
-0.062,0.053,0.115,0.004,-0.088,0.084,0.008,-0.085,-0.129,-0.129,-0.109,-0.047
-0.065,0.048,0.113,0.009,-0.09,0.08,0.006,-0.085,-0.126,-0.126,-0.107,-0.05
-0.083,0.042,0.125,0.02,-0.104,0.084,0.003,-0.085,-0.119,-0.119,-0.1,-0.05
-0.068,0.057,0.125,0.005,-0.097,0.091,0.0,-0.085,-0.115,-0.115,-0.099,-0.05
-0.064,0.062,0.126,0.001,-0.095,0.094,0.0,-0.085,-0.107,-0.107,-0.09,-0.05
-0.081,0.049,0.13,0.016,-0.106,0.089,-0.002,-0.085,-0.107,-0.107,-0.094,-0.05
-0.092,0.038,0.13,0.027,-0.111,0.084,-0.006,-0.085,-0.11,-0.11,-0.101,-0.047
-0.054,0.074,0.128,-0.01,-0.091,0.101,-0.005,-0.086,-0.111,-0.11,-0.097,-0.044
-0.038,0.083,0.121,-0.023,-0.079,0.102,-0.005,-0.085,-0.109,-0.113,-0.091,-0.041
-0.086,0.028,0.114,0.029,-0.1,0.071,-0.008,-0.085,-0.111,-0.115,-0.088,-0.038
-0.058,0.05,0.108,0.004,-0.083,0.078,-0.012,-0.085,-0.109,-0.115,-0.083,-0.035
-0.026,0.074,0.1,-0.025,-0.063,0.087,-0.015,-0.085,-0.114,-0.119,-0.077,-0.036
-0.048,0.048,0.096,0.0,-0.072,0.071,-0.018,-0.103,-0.118,-0.121,-0.095,-0.046
-0.072,0.028,0.1,0.022,-0.086,0.064,-0.022,-0.113,-0.12,-0.121,-0.107,-0.053
-0.113,-0.005,0.109,0.059,-0.111,0.052,-0.025,-0.108,-0.135,-0.127,-0.107,-0.063
-0.093,0.014,0.106,0.039,-0.099,0.06,-0.025,-0.112,-0.141,-0.138,-0.111,-0.071
-0.075,0.015,0.09,0.03,-0.082,0.052,-0.024,-0.121,-0.156,-0.14,-0.11,-0.074
-0.114,-0.041,0.074,0.077,-0.094,0.016,-0.025,-0.128,-0.167,-0.14,-0.11,-0.079
-0.124,-0.054,0.069,0.089,-0.097,0.007,-0.028,-0.129,-0.164,-0.139,-0.11,-0.08
-0.116,-0.045,0.07,0.08,-0.093,0.012,-0.031,-0.131,-0.165,-0.147,-0.11,-0.08
-0.12,-0.049,0.07,0.085,-0.094,0.01,-0.034,-0.129,-0.165,-0.156,-0.109,-0.079
-0.107,-0.04,0.067,0.074,-0.087,0.013,-0.034,-0.13,-0.165,-0.154,-0.114,-0.082
-0.096,-0.042,0.054,0.068,-0.075,0.006,-0.045,-0.145,-0.16,-0.171,-0.119,-0.084
-0.08,-0.038,0.042,0.059,-0.061,0.002,-0.051,-0.15,-0.16,-0.177,-0.128,-0.094
-0.02,0.02,0.04,0.0,-0.03,0.03,-0.043,-0.14,-0.159,-0.17,-0.136,-0.101
-0.047,-0.009,0.039,0.028,-0.043,0.015,-0.043,-0.141,-0.161,-0.17,-0.135,-0.096
-0.084,-0.034,0.05,0.059,-0.067,0.008,-0.036,-0.131,-0.158,-0.164,-0.133,-0.088
-0.098,-0.035,0.063,0.066,-0.08,0.014,-0.036,-0.133,-0.166,-0.167,-0.129,-0.087
-0.12,-0.063,0.058,0.092,-0.089,-0.002,-0.057,-0.155,-0.178,-0.169,-0.131,-0.098
-0.098,-0.036,0.062,0.067,-0.08,0.013,-0.058,-0.142,-0.168,-0.162,-0.126,-0.091
-0.074,-0.017,0.057,0.045,-0.065,0.02,-0.039,-0.117,-0.154,-0.153,-0.115,-0.079
-0.037,0.025,0.062,0.006,-0.05,0.043,-0.027,-0.111,-0.13,-0.142,-0.104,-0.066
-0.054,0.041,0.096,0.007,-0.075,0.068,0.003,-0.096,-0.115,-0.124,-0.092,-0.051
-0.042,0.058,0.099,-0.008,-0.071,0.078,-0.002,-0.096,-0.111,-0.1,-0.079,-0.041
-0.008,0.073,0.081,-0.033,-0.044,0.077,-0.06,-0.141,-0.133,-0.121,-0.078,-0.04
-0.01,0.07,0.08,-0.03,-0.045,0.074,-0.067,-0.146,-0.149,-0.128,-0.07,-0.04
0.0,0.047,0.048,-0.024,-0.024,0.047,-0.049,-0.126,-0.138,-0.112,-0.073,-0.038
-0.034,-0.029,0.006,0.032,-0.02,-0.011,-0.048,-0.131,-0.145,-0.141,-0.097,-0.056
-0.059,-0.054,0.005,0.057,-0.032,-0.025,-0.042,-0.127,-0.162,-0.161,-0.116,-0.087
-0.063,-0.086,-0.023,0.074,-0.02,-0.054,-0.04,-0.142,-0.194,-0.18,-0.145,-0.102
-0.043,-0.106,-0.063,0.075,0.01,-0.084,-0.039,-0.15,-0.188,-0.181,-0.149,-0.104
-0.038,-0.104,-0.067,0.071,0.015,-0.085,-0.031,-0.146,-0.204,-0.191,-0.149,-0.105
-0.057,-0.119,-0.062,0.088,0.003,-0.09,-0.037,-0.142,-0.184,-0.176,-0.134,-0.093
-0.062,-0.131,-0.069,0.097,0.004,-0.1,-0.023,-0.14,-0.196,-0.186,-0.144,-0.102
-0.043,-0.102,-0.059,0.073,0.008,-0.08,-0.033,-0.134,-0.188,-0.177,-0.121,-0.08
-0.042,-0.116,-0.074,0.08,0.016,-0.095,-0.018,-0.115,-0.175,-0.181,-0.152,-0.111
-0.077,-0.138,-0.062,0.108,-0.007,-0.099,0.084,0.044,-0.136,-0.198,-0.189,-0.151
-0.022,-0.033,-0.011,0.028,-0.006,-0.022,0.292,0.464,0.184,-0.013,-0.076,-0.102
0.242,0.421,0.178,-0.332,0.032,0.299,0.264,0.87,0.905,0.691,0.492,0.341
0.519,1.138,0.619,-0.829,-0.05,0.878,-0.222,0.576,1.953,1.861,1.42,1.058
0.266,0.849,0.583,-0.558,-0.159,0.715,-0.392,-0.296,1.122,1.247,0.998,0.753
-0.041,-0.01,0.031,0.026,-0.036,0.01,-0.124,-0.295,-0.37,-0.195,-0.05,0.006
-0.014,-0.187,-0.173,0.101,0.08,-0.18,0.064,0.208,-0.168,-0.185,-0.162,-0.12
-0.038,-0.131,-0.093,0.085,0.028,-0.112,0.081,0.155,-0.066,-0.117,-0.133,-0.111
-0.021,-0.09,-0.069,0.056,0.024,-0.079,0.056,0.066,-0.086,-0.125,-0.124,-0.094
-0.022,-0.075,-0.053,0.049,0.016,-0.064,0.042,0.004,-0.049,-0.097,-0.104,-0.084
-0.037,-0.078,-0.042,0.058,0.003,-0.06,0.035,-0.036,-0.096,-0.126,-0.107,-0.078
-0.03,-0.064,-0.034,0.047,0.003,-0.049,0.039,-0.009,-0.029,-0.07,-0.084,-0.062
-0.049,-0.067,-0.018,0.059,-0.015,-0.043,0.023,-0.025,-0.06,-0.097,-0.089,-0.059
-0.018,-0.052,-0.034,0.036,0.008,-0.043,0.032,-0.029,-0.028,-0.061,-0.069,-0.042
-0.015,-0.065,-0.05,0.04,0.018,-0.057,0.028,-0.03,-0.009,-0.064,-0.063,-0.038
-0.028,-0.068,-0.04,0.048,0.006,-0.053,0.024,-0.009,0.013,-0.048,-0.045,-0.026
-0.009,-0.043,-0.034,0.026,0.013,-0.038,0.023,0.006,0.025,-0.017,-0.033,-0.021
-0.007,-0.035,-0.028,0.021,0.011,-0.031,0.019,0.037,0.06,0.002,-0.019,-0.012
-0.016,-0.036,-0.02,0.027,0.002,-0.028,0.017,0.05,0.095,0.011,-0.004,-0.006
-0.011,-0.028,-0.017,0.02,0.004,-0.022,0.009,0.055,0.118,0.023,0.009,-0.003
0.03,0.022,-0.008,-0.026,0.019,0.007,0.005,0.105,0.177,0.078,0.045,0.03
0.063,0.057,-0.006,-0.06,0.034,0.025,-0.002,0.15,0.238,0.126,0.076,0.056
0.064,0.069,0.005,-0.066,0.029,0.036,-0.006,0.197,0.31,0.178,0.118,0.091
0.071,0.124,0.053,-0.098,0.009,0.088,-0.022,0.263,0.399,0.257,0.179,0.14
0.1,0.168,0.069,-0.134,0.015,0.118,-0.036,0.304,0.465,0.316,0.229,0.177
0.166,0.228,0.062,-0.198,0.052,0.145,-0.044,0.339,0.531,0.384,0.289,0.233
0.213,0.28,0.067,-0.247,0.073,0.173,-0.044,0.364,0.56,0.435,0.334,0.269
0.221,0.284,0.063,-0.253,0.079,0.173,-0.036,0.349,0.542,0.427,0.345,0.278
0.202,0.265,0.063,-0.233,0.069,0.164,-0.028,0.312,0.524,0.41,0.336,0.281
0.159,0.208,0.049,-0.184,0.055,0.128,-0.02,0.251,0.424,0.333,0.282,0.24
0.123,0.131,0.008,-0.127,0.057,0.069,-0.012,0.175,0.282,0.215,0.197,0.166
0.095,0.058,-0.037,-0.076,0.066,0.011,-0.007,0.108,0.161,0.112,0.113,0.09
0.038,-0.014,-0.052,-0.012,0.045,-0.033,-0.004,0.038,0.052,0.017,0.032,0.033
0.006,-0.069,-0.075,0.032,0.041,-0.072,-0.001,-0.005,-0.01,-0.044,-0.019,-0.003
0.026,-0.073,-0.098,0.024,0.062,-0.085,0.002,-0.027,-0.049,-0.077,-0.037,-0.027
-0.012,-0.105,-0.093,0.059,0.04,-0.099,0.005,-0.05,-0.083,-0.097,-0.058,-0.041
-0.009,-0.124,-0.115,0.067,0.053,-0.119,0.003,-0.046,-0.095,-0.101,-0.072,-0.045
-0.005,-0.127,-0.122,0.066,0.059,-0.124,0.014,-0.064,-0.095,-0.111,-0.07,-0.053
-0.049,-0.164,-0.115,0.107,0.033,-0.139,0.018,-0.079,-0.088,-0.12,-0.07,-0.062
-0.041,-0.157,-0.117,0.1,0.038,-0.137,0.01,-0.064,-0.085,-0.11,-0.068,-0.057
-0.029,-0.147,-0.118,0.088,0.045,-0.133,0.007,-0.055,-0.08,-0.104,-0.064,-0.055
-0.008,-0.138,-0.131,0.073,0.062,-0.134,-0.001,-0.046,-0.075,-0.098,-0.065,-0.052
-0.008,-0.132,-0.124,0.071,0.058,-0.128,-0.004,-0.045,-0.079,-0.089,-0.068,-0.049
-0.001,-0.131,-0.13,0.067,0.064,-0.13,-0.013,-0.045,-0.081,-0.099,-0.071,-0.054
-0.016,-0.126,-0.11,0.071,0.047,-0.117,-0.018,-0.046,-0.079,-0.106,-0.07,-0.055
-0.025,-0.123,-0.098,0.074,0.037,-0.11,-0.014,-0.044,-0.081,-0.1,-0.07,-0.055
0.005,-0.119,-0.124,0.057,0.065,-0.122,-0.016,-0.051,-0.079,-0.098,-0.07,-0.055
-0.032,-0.146,-0.114,0.089,0.042,-0.13,-0.011,-0.071,-0.082,-0.094,-0.071,-0.055
-0.055,-0.158,-0.104,0.107,0.025,-0.131,-0.01,-0.075,-0.085,-0.09,-0.076,-0.056
-0.047,-0.153,-0.106,0.1,0.03,-0.129,-0.01,-0.078,-0.09,-0.094,-0.079,-0.062
-0.026,-0.164,-0.138,0.096,0.056,-0.151,-0.004,-0.083,-0.101,-0.108,-0.084,-0.07
0.001,-0.153,-0.154,0.076,0.078,-0.154,0.001,-0.085,-0.105,-0.119,-0.091,-0.071
-0.025,-0.172,-0.147,0.099,0.061,-0.159,0.008,-0.089,-0.122,-0.126,-0.096,-0.081
-0.059,-0.211,-0.153,0.135,0.047,-0.182,0.008,-0.09,-0.132,-0.13,-0.105,-0.095
-0.063,-0.21,-0.147,0.137,0.042,-0.179,0.004,-0.085,-0.129,-0.131,-0.11,-0.095
-0.054,-0.207,-0.153,0.131,0.049,-0.18,0.002,-0.085,-0.135,-0.128,-0.11,-0.095
-0.064,-0.203,-0.139,0.134,0.038,-0.171,-0.001,-0.085,-0.139,-0.135,-0.11,-0.095
-0.054,-0.197,-0.143,0.125,0.045,-0.169,-0.005,-0.085,-0.138,-0.146,-0.11,-0.095
-0.02,-0.194,-0.174,0.107,0.078,-0.184,-0.005,-0.085,-0.134,-0.145,-0.11,-0.095
-0.018,-0.189,-0.171,0.104,0.077,-0.18,-0.018,-0.088,-0.135,-0.145,-0.11,-0.095
-0.023,-0.181,-0.158,0.102,0.068,-0.169,-0.028,-0.107,-0.152,-0.145,-0.125,-0.095
-0.038,-0.212,-0.173,0.125,0.068,-0.192,-0.024,-0.11,-0.156,-0.145,-0.13,-0.095
-0.043,-0.24,-0.197,0.142,0.077,-0.218,-0.025,-0.104,-0.151,-0.143,-0.121,-0.095
-0.06,-0.232,-0.172,0.147,0.056,-0.202,-0.022,-0.102,-0.15,-0.139,-0.119,-0.094
-0.065,-0.237,-0.172,0.151,0.054,-0.204,-0.019,-0.096,-0.145,-0.14,-0.113,-0.111
-0.046,-0.234,-0.188,0.14,0.071,-0.211,-0.022,-0.097,-0.146,-0.14,-0.11,-0.117
-0.05,-0.236,-0.187,0.143,0.069,-0.212,-0.022,-0.098,-0.139,-0.14,-0.117,-0.111
-0.026,-0.222,-0.196,0.125,0.085,-0.209,-0.029,-0.099,-0.135,-0.141,-0.114,-0.11
-0.03,-0.178,-0.147,0.104,0.059,-0.162,-0.015,-0.085,-0.122,-0.122,-0.102,-0.1
-0.029,-0.154,-0.124,0.092,0.048,-0.139,0.016,-0.065,-0.087,-0.098,-0.093,-0.084
0.0,-0.13,-0.13,0.065,0.066,-0.13,0.039,-0.023,-0.078,-0.095,-0.082,-0.073
0.003,-0.121,-0.124,0.06,0.064,-0.123,0.004,-0.049,-0.083,-0.095,-0.075,-0.066
0.058,-0.1,-0.158,0.021,0.108,-0.128,-0.059,-0.114,-0.107,-0.091,-0.073,-0.065
0.088,-0.086,-0.174,-0.001,0.131,-0.13,-0.044,-0.091,-0.105,-0.09,-0.068,-0.058
0.029,-0.131,-0.159,0.052,0.094,-0.145,-0.03,-0.096,-0.094,-0.089,-0.065,-0.056
0.005,-0.173,-0.179,0.084,0.092,-0.176,-0.038,-0.109,-0.122,-0.108,-0.087,-0.08
-0.005,-0.225,-0.22,0.115,0.107,-0.222,-0.034,-0.114,-0.142,-0.138,-0.118,-0.106
-0.026,-0.244,-0.218,0.135,0.096,-0.231,-0.042,-0.123,-0.157,-0.147,-0.119,-0.108
-0.013,-0.251,-0.238,0.132,0.113,-0.244,-0.04,-0.114,-0.154,-0.161,-0.139,-0.122
-0.015,-0.263,-0.248,0.139,0.117,-0.255,-0.036,-0.116,-0.165,-0.18,-0.156,-0.13
-0.027,-0.254,-0.227,0.141,0.1,-0.24,-0.035,-0.109,-0.139,-0.154,-0.142,-0.118
-0.031,-0.26,-0.229,0.146,0.099,-0.244,-0.02,-0.111,-0.164,-0.178,-0.16,-0.132
-0.039,-0.239,-0.2,0.139,0.08,-0.219,-0.027,-0.103,-0.13,-0.147,-0.138,-0.106
-0.057,-0.268,-0.211,0.163,0.077,-0.239,0.008,-0.081,-0.144,-0.17,-0.165,-0.143
-0.063,-0.258,-0.195,0.161,0.066,-0.227,0.127,0.14,-0.063,-0.149,-0.146,-0.174
0.044,-0.122,-0.166,0.039,0.105,-0.144,0.32,0.608,0.304,0.087,0.0,-0.076
0.386,0.464,0.078,-0.425,0.154,0.271,0.176,0.935,1.183,0.987,0.727,0.506
0.546,1.075,0.529,-0.81,0.008,0.802,-0.329,0.415,2.026,1.982,1.507,1.103
0.195,0.523,0.328,-0.359,-0.066,0.425,-0.386,-0.406,0.706,0.879,0.741,0.552
-0.032,-0.249,-0.217,0.141,0.093,-0.232,-0.088,-0.16,-0.454,-0.297,-0.145,-0.095
0.007,-0.312,-0.319,0.153,0.163,-0.315,0.069,0.254,-0.061,-0.101,-0.134,-0.139
0.005,-0.233,-0.238,0.114,0.122,-0.235,0.071,0.144,-0.072,-0.112,-0.122,-0.123
-0.006,-0.203,-0.197,0.105,0.096,-0.2,0.044,0.078,-0.042,-0.074,-0.094,-0.09
-0.019,-0.195,-0.176,0.107,0.078,-0.185,0.043,0.012,-0.044,-0.07,-0.092,-0.101
-0.01,-0.179,-0.169,0.095,0.08,-0.174,0.03,0.001,-0.058,-0.078,-0.081,-0.091
-0.008,-0.17,-0.162,0.089,0.077,-0.166,0.028,0.0,-0.027,-0.052,-0.069,-0.088
-0.007,-0.162,-0.156,0.085,0.075,-0.159,0.018,-0.007,-0.055,-0.068,-0.07,-0.087
-0.005,-0.155,-0.149,0.08,0.072,-0.152,0.015,-0.005,-0.009,-0.047,-0.055,-0.078
-0.016,-0.159,-0.143,0.088,0.063,-0.151,-0.004,-0.025,-0.024,-0.072,-0.056,-0.074
-0.027,-0.168,-0.141,0.097,0.057,-0.154,-0.019,-0.004,0.005,-0.041,-0.041,-0.064
-0.02,-0.157,-0.137,0.089,0.058,-0.147,-0.001,0.022,0.029,-0.019,-0.034,-0.06
0.013,-0.122,-0.135,0.055,0.074,-0.128,0.002,0.034,0.058,-0.003,-0.018,-0.044
0.011,-0.12,-0.131,0.055,0.071,-0.125,-0.006,0.054,0.093,0.022,-0.005,-0.033
0.025,-0.104,-0.129,0.039,0.077,-0.116,-0.012,0.087,0.129,0.053,0.02,-0.016
0.048,-0.09,-0.138,0.021,0.094,-0.114,-0.02,0.122,0.179,0.084,0.043,0.001
0.064,-0.047,-0.111,-0.008,0.088,-0.079,-0.007,0.18,0.252,0.146,0.08,0.038
0.093,0.014,-0.079,-0.053,0.085,-0.032,0.002,0.243,0.335,0.215,0.135,0.086
0.112,0.042,-0.07,-0.077,0.091,-0.014,-0.011,0.285,0.409,0.273,0.176,0.112
0.147,0.084,-0.062,-0.115,0.104,0.011,-0.021,0.329,0.47,0.334,0.234,0.15
0.194,0.129,-0.065,-0.161,0.129,0.032,-0.032,0.36,0.519,0.385,0.28,0.194
0.242,0.176,-0.066,-0.208,0.153,0.055,-0.046,0.369,0.551,0.423,0.315,0.231
0.279,0.215,-0.064,-0.247,0.171,0.076,-0.043,0.353,0.539,0.428,0.337,0.247
0.262,0.195,-0.066,-0.228,0.164,0.064,-0.033,0.312,0.493,0.406,0.318,0.226
0.174,0.111,-0.063,-0.142,0.118,0.024,-0.019,0.25,0.388,0.316,0.256,0.173
0.123,0.049,-0.074,-0.086,0.098,-0.012,0.003,0.172,0.244,0.193,0.161,0.105
0.084,-0.019,-0.102,-0.032,0.093,-0.06,0.021,0.104,0.127,0.094,0.084,0.045
0.051,-0.074,-0.125,0.012,0.089,-0.099,0.027,0.042,0.037,0.016,0.018,-0.003
0.023,-0.135,-0.158,0.056,0.091,-0.146,0.019,-0.006,-0.045,-0.052,-0.037,-0.054
0.001,-0.171,-0.171,0.085,0.086,-0.171,0.012,-0.044,-0.082,-0.099,-0.07,-0.082
0.001,-0.169,-0.169,0.084,0.085,-0.169,0.006,-0.059,-0.1,-0.103,-0.092,-0.084
-0.036,-0.205,-0.169,0.121,0.067,-0.187,-0.003,-0.054,-0.119,-0.112,-0.095,-0.089
-0.036,-0.2,-0.164,0.119,0.064,-0.182,-0.008,-0.057,-0.112,-0.113,-0.096,-0.088
-0.019,-0.185,-0.166,0.102,0.074,-0.175,-0.006,-0.053,-0.107,-0.106,-0.093,-0.084
-0.038,-0.201,-0.163,0.12,0.063,-0.182,-0.003,-0.065,-0.103,-0.118,-0.101,-0.085
-0.029,-0.205,-0.176,0.118,0.074,-0.19,-0.001,-0.081,-0.096,-0.118,-0.104,-0.081
0.013,-0.169,-0.183,0.078,0.098,-0.176,0.003,-0.073,-0.092,-0.099,-0.087,-0.079
0.004,-0.164,-0.168,0.08,0.087,-0.166,0.005,-0.07,-0.089,-0.094,-0.085,-0.081
0.004,-0.165,-0.169,0.081,0.087,-0.166,0.003,-0.062,-0.091,-0.096,-0.085,-0.084
0.003,-0.167,-0.17,0.082,0.087,-0.168,-0.005,-0.058,-0.09,-0.094,-0.085,-0.086
-0.017,-0.187,-0.169,0.102,0.076,-0.178,-0.01,-0.054,-0.091,-0.096,-0.085,-0.084
-0.006,-0.177,-0.17,0.092,0.082,-0.173,-0.018,-0.057,-0.089,-0.095,-0.085,-0.086
0.002,-0.168,-0.169,0.083,0.086,-0.168,-0.024,-0.06,-0.093,-0.103,-0.09,-0.084
0.001,-0.17,-0.171,0.084,0.087,-0.17,-0.02,-0.062,-0.109,-0.112,-0.099,-0.085
-0.034,-0.209,-0.175,0.122,0.071,-0.192,-0.014,-0.087,-0.127,-0.123,-0.112,-0.101
-0.048,-0.224,-0.177,0.136,0.064,-0.2,-0.008,-0.091,-0.132,-0.13,-0.119,-0.107
-0.035,-0.217,-0.182,0.126,0.073,-0.2,-0.004,-0.092,-0.127,-0.132,-0.125,-0.104
-0.048,-0.222,-0.173,0.135,0.062,-0.197,0.005,-0.095,-0.144,-0.145,-0.129,-0.105
-0.046,-0.219,-0.173,0.133,0.063,-0.196,-0.001,-0.099,-0.156,-0.156,-0.131,-0.106
-0.016,-0.22,-0.204,0.118,0.094,-0.211,-0.008,-0.111,-0.16,-0.155,-0.129,-0.112
-0.008,-0.216,-0.208,0.112,0.101,-0.212,-0.006,-0.11,-0.173,-0.154,-0.134,-0.12
-0.019,-0.213,-0.194,0.116,0.088,-0.203,-0.011,-0.109,-0.17,-0.164,-0.137,-0.122
-0.019,-0.21,-0.191,0.115,0.086,-0.201,-0.017,-0.105,-0.17,-0.17,-0.135,-0.12
-0.035,-0.208,-0.173,0.122,0.07,-0.19,-0.026,-0.105,-0.169,-0.164,-0.135,-0.12
-0.022,-0.202,-0.18,0.112,0.08,-0.191,-0.025,-0.107,-0.164,-0.16,-0.131,-0.12
-0.005,-0.215,-0.21,0.11,0.103,-0.212,-0.024,-0.112,-0.165,-0.155,-0.13,-0.119
-0.037,-0.24,-0.204,0.139,0.084,-0.222,-0.02,-0.115,-0.164,-0.158,-0.129,-0.122
-0.043,-0.241,-0.198,0.142,0.078,-0.219,-0.02,-0.11,-0.165,-0.16,-0.141,-0.125
-0.034,-0.228,-0.194,0.131,0.081,-0.211,-0.019,-0.11,-0.164,-0.16,-0.145,-0.125
-0.04,-0.223,-0.184,0.132,0.072,-0.203,-0.006,-0.102,-0.166,-0.165,-0.139,-0.125
-0.01,-0.208,-0.198,0.11,0.094,-0.203,-0.019,-0.113,-0.167,-0.165,-0.137,-0.125
0.0,-0.216,-0.216,0.109,0.108,-0.216,-0.027,-0.123,-0.16,-0.164,-0.132,-0.126
-0.031,-0.217,-0.186,0.124,0.077,-0.201,-0.015,-0.108,-0.151,-0.152,-0.13,-0.119
-0.033,-0.178,-0.145,0.106,0.056,-0.162,-0.002,-0.097,-0.144,-0.138,-0.124,-0.106
-0.018,-0.169,-0.151,0.094,0.067,-0.16,0.02,-0.095,-0.135,-0.123,-0.114,-0.095
-0.004,-0.16,-0.156,0.083,0.076,-0.158,0.028,-0.068,-0.131,-0.11,-0.107,-0.086
-0.012,-0.167,-0.155,0.09,0.072,-0.161,-0.015,-0.071,-0.129,-0.104,-0.098,-0.077
0.008,-0.147,-0.154,0.07,0.081,-0.15,-0.061,-0.12,-0.13,-0.105,-0.093,-0.078
0.06,-0.095,-0.155,0.018,0.108,-0.125,-0.05,-0.12,-0.131,-0.102,-0.089,-0.084
0.037,-0.136,-0.174,0.05,0.106,-0.155,-0.039,-0.114,-0.125,-0.096,-0.09,-0.087
0.0,-0.194,-0.194,0.097,0.097,-0.194,-0.04,-0.115,-0.151,-0.122,-0.105,-0.096
0.012,-0.221,-0.233,0.105,0.123,-0.226,-0.035,-0.107,-0.178,-0.149,-0.139,-0.108
-0.017,-0.255,-0.239,0.137,0.111,-0.247,-0.032,-0.12,-0.193,-0.164,-0.158,-0.125
-0.058,-0.286,-0.228,0.173,0.086,-0.257,-0.031,-0.141,-0.2,-0.176,-0.158,-0.141
-0.04,-0.285,-0.245,0.163,0.103,-0.264,-0.029,-0.136,-0.213,-0.185,-0.165,-0.142
-0.035,-0.274,-0.238,0.155,0.102,-0.256,-0.04,-0.128,-0.189,-0.161,-0.153,-0.129
-0.05,-0.288,-0.238,0.169,0.094,-0.263,-0.035,-0.131,-0.208,-0.184,-0.17,-0.142
-0.042,-0.27,-0.228,0.156,0.093,-0.249,-0.047,-0.115,-0.188,-0.151,-0.148,-0.117
-0.043,-0.292,-0.25,0.168,0.103,-0.271,-0.042,-0.128,-0.185,-0.182,-0.178,-0.149
-0.046,-0.273,-0.227,0.16,0.091,-0.25,0.088,0.069,-0.118,-0.181,-0.193,-0.173
0.02,-0.168,-0.189,0.075,0.105,-0.178,0.293,0.525,0.193,0.022,-0.079,-0.111
0.328,0.336,0.008,-0.332,0.16,0.172,0.219,0.901,0.974,0.795,0.559,0.385
0.574,1.034,0.46,-0.805,0.057,0.747,-0.266,0.551,2.008,1.96,1.456,1.075
0.268,0.632,0.364,-0.45,-0.048,0.498,-0.419,-0.342,0.944,1.115,0.881,0.66
-0.004,-0.183,-0.179,0.093,0.088,-0.181,-0.13,-0.267,-0.482,-0.249,-0.111,-0.052
0.02,-0.32,-0.34,0.151,0.18,-0.33,0.051,0.227,-0.16,-0.133,-0.146,-0.134
0.01,-0.247,-0.257,0.119,0.134,-0.252,0.07,0.151,-0.101,-0.11,-0.12,-0.114
0.029,-0.196,-0.225,0.084,0.127,-0.21,0.046,0.063,-0.118,-0.108,-0.112,-0.085
-0.011,-0.204,-0.193,0.108,0.091,-0.198,0.039,0.008,-0.076,-0.082,-0.103,-0.085
-0.022,-0.208,-0.187,0.115,0.083,-0.197,0.027,-0.023,-0.11,-0.101,-0.108,-0.075
0.013,-0.167,-0.18,0.077,0.097,-0.174,0.02,-0.025,-0.062,-0.065,-0.092,-0.065
0.002,-0.182,-0.184,0.09,0.093,-0.183,0.009,-0.036,-0.085,-0.084,-0.099,-0.072
0.0,-0.19,-0.19,0.095,0.095,-0.19,0.013,-0.02,-0.047,-0.049,-0.074,-0.064
0.02,-0.15,-0.17,0.066,0.095,-0.16,0.022,-0.021,-0.044,-0.046,-0.067,-0.061
0.029,-0.154,-0.183,0.063,0.107,-0.169,0.014,-0.009,-0.015,-0.024,-0.054,-0.052
0.024,-0.158,-0.182,0.067,0.104,-0.17,0.014,-0.001,0.004,-0.013,-0.045,-0.046
0.027,-0.15,-0.177,0.062,0.102,-0.163,0.007,0.016,0.025,0.004,-0.035,-0.041
0.01,-0.149,-0.159,0.07,0.085,-0.154,0.006,0.051,0.059,0.031,-0.007,-0.023
0.017,-0.138,-0.155,0.06,0.086,-0.146,-0.007,0.054,0.089,0.038,0.002,-0.004
0.032,-0.126,-0.159,0.047,0.096,-0.142,-0.037,0.089,0.132,0.078,0.025,0.009
0.042,-0.085,-0.128,0.022,0.085,-0.106,-0.046,0.149,0.198,0.136,0.063,0.032
0.1,-0.013,-0.113,-0.044,0.107,-0.062,-0.045,0.2,0.275,0.195,0.107,0.074
0.177,0.072,-0.105,-0.124,0.141,-0.017,-0.045,0.276,0.362,0.275,0.176,0.127
0.191,0.106,-0.085,-0.148,0.138,0.01,-0.044,0.307,0.423,0.329,0.222,0.164
0.199,0.125,-0.074,-0.162,0.136,0.026,-0.046,0.336,0.467,0.382,0.267,0.202
0.243,0.158,-0.084,-0.2,0.163,0.037,-0.046,0.35,0.504,0.423,0.308,0.239
0.262,0.181,-0.082,-0.221,0.172,0.049,-0.042,0.339,0.497,0.426,0.322,0.258
0.252,0.17,-0.082,-0.211,0.167,0.044,-0.034,0.308,0.454,0.408,0.304,0.245
0.218,0.131,-0.087,-0.174,0.152,0.021,-0.032,0.234,0.364,0.334,0.251,0.201
0.157,0.056,-0.1,-0.106,0.128,-0.022,-0.007,0.175,0.243,0.221,0.176,0.144
0.095,-0.033,-0.128,-0.031,0.112,-0.08,0.017,0.105,0.113,0.123,0.094,0.082
0.067,-0.096,-0.163,0.015,0.115,-0.13,0.012,0.029,0.006,0.049,0.023,0.028
0.061,-0.131,-0.192,0.035,0.127,-0.161,0.009,-0.023,-0.055,-0.012,-0.026,-0.004
0.035,-0.147,-0.182,0.057,0.109,-0.165,0.005,-0.053,-0.095,-0.055,-0.054,-0.026
-0.012,-0.2,-0.189,0.106,0.089,-0.194,0.024,-0.062,-0.125,-0.087,-0.072,-0.053
-0.013,-0.217,-0.204,0.115,0.096,-0.21,0.032,-0.065,-0.128,-0.094,-0.076,-0.061
-0.013,-0.207,-0.194,0.11,0.091,-0.2,0.021,-0.065,-0.124,-0.087,-0.074,-0.057
-0.019,-0.209,-0.19,0.114,0.086,-0.199,0.018,-0.068,-0.126,-0.083,-0.07,-0.055
-0.003,-0.193,-0.189,0.098,0.093,-0.191,0.007,-0.071,-0.121,-0.076,-0.065,-0.051
-0.001,-0.192,-0.191,0.096,0.095,-0.191,0.005,-0.069,-0.12,-0.071,-0.06,-0.049
0.01,-0.177,-0.187,0.084,0.098,-0.182,-0.009,-0.066,-0.12,-0.066,-0.057,-0.051
0.01,-0.186,-0.196,0.088,0.103,-0.191,-0.015,-0.061,-0.116,-0.064,-0.05,-0.049
0.016,-0.193,-0.209,0.089,0.113,-0.201,-0.013,-0.059,-0.113,-0.061,-0.054,-0.051
0.002,-0.195,-0.197,0.097,0.1,-0.196,-0.005,-0.055,-0.111,-0.061,-0.065,-0.049
-0.017,-0.204,-0.188,0.111,0.086,-0.196,0.021,-0.05,-0.107,-0.066,-0.065,-0.045
-0.005,-0.178,-0.174,0.092,0.085,-0.176,0.017,-0.054,-0.105,-0.068,-0.069,-0.046
-0.018,-0.179,-0.161,0.098,0.072,-0.17,0.004,-0.053,-0.107,-0.072,-0.07,-0.044
0.009,-0.183,-0.192,0.087,0.101,-0.187,-0.004,-0.071,-0.118,-0.075,-0.072,-0.056
0.038,-0.175,-0.213,0.069,0.126,-0.194,-0.008,-0.093,-0.126,-0.079,-0.08,-0.066
0.021,-0.187,-0.208,0.083,0.115,-0.197,-0.004,-0.092,-0.131,-0.091,-0.085,-0.071
-0.001,-0.211,-0.21,0.106,0.105,-0.21,-0.005,-0.098,-0.152,-0.095,-0.093,-0.086
-0.008,-0.209,-0.201,0.109,0.097,-0.205,-0.005,-0.1,-0.155,-0.097,-0.102,-0.084
0.006,-0.204,-0.21,0.099,0.109,-0.207,-0.004,-0.096,-0.156,-0.101,-0.106,-0.086
-0.013,-0.204,-0.191,0.109,0.089,-0.197,-0.007,-0.089,-0.162,-0.096,-0.104,-0.089
0.0,-0.197,-0.196,0.099,0.098,-0.196,-0.01,-0.085,-0.163,-0.095,-0.105,-0.091
0.005,-0.212,-0.217,0.104,0.111,-0.215,-0.012,-0.104,-0.179,-0.089,-0.105,-0.089
-0.027,-0.22,-0.193,0.124,0.083,-0.206,-0.016,-0.115,-0.18,-0.095,-0.103,-0.083
-0.001,-0.215,-0.214,0.108,0.107,-0.214,-0.009,-0.106,-0.181,-0.106,-0.118,-0.095
0.021,-0.208,-0.23,0.094,0.126,-0.219,-0.004,-0.102,-0.185,-0.104,-0.114,-0.098
0.007,-0.21,-0.218,0.102,0.113,-0.214,0.008,-0.097,-0.185,-0.106,-0.103,-0.081
-0.017,-0.228,-0.21,0.123,0.097,-0.219,-0.002,-0.088,-0.183,-0.103,-0.102,-0.068
-0.008,-0.244,-0.236,0.127,0.114,-0.24,-0.019,-0.113,-0.179,-0.116,-0.114,-0.088
-0.017,-0.252,-0.235,0.135,0.109,-0.244,-0.017,-0.132,-0.18,-0.125,-0.127,-0.102
-0.026,-0.243,-0.217,0.135,0.096,-0.23,-0.03,-0.118,-0.175,-0.116,-0.12,-0.092
-0.004,-0.234,-0.23,0.119,0.113,-0.232,-0.021,-0.116,-0.175,-0.113,-0.118,-0.09
-0.014,-0.227,-0.214,0.121,0.1,-0.221,-0.006,-0.107,-0.175,-0.106,-0.113,-0.085
-0.005,-0.216,-0.212,0.111,0.104,-0.214,-0.012,-0.101,-0.176,-0.102,-0.11,-0.081
-0.026,-0.21,-0.184,0.118,0.079,-0.197,-0.014,-0.091,-0.172,-0.095,-0.104,-0.076
-0.027,-0.185,-0.158,0.106,0.066,-0.171,-0.016,-0.081,-0.158,-0.08,-0.087,-0.064
0.014,-0.155,-0.169,0.071,0.091,-0.161,0.003,-0.076,-0.147,-0.072,-0.076,-0.055
0.024,-0.118,-0.142,0.048,0.083,-0.13,0.03,-0.053,-0.142,-0.075,-0.061,-0.045
0.049,-0.083,-0.131,0.017,0.09,-0.107,-0.006,-0.086,-0.131,-0.074,-0.058,-0.038
0.04,-0.11,-0.149,0.035,0.095,-0.129,-0.049,-0.126,-0.14,-0.079,-0.071,-0.036
0.034,-0.11,-0.144,0.038,0.089,-0.127,-0.048,-0.117,-0.15,-0.078,-0.056,-0.027
0.044,-0.132,-0.176,0.044,0.11,-0.153,-0.04,-0.121,-0.155,-0.082,-0.068,-0.042
0.018,-0.191,-0.209,0.087,0.114,-0.2,-0.036,-0.12,-0.161,-0.087,-0.095,-0.066
-0.029,-0.229,-0.2,0.13,0.086,-0.214,-0.025,-0.119,-0.183,-0.111,-0.118,-0.093
-0.021,-0.249,-0.228,0.135,0.104,-0.239,-0.025,-0.133,-0.211,-0.131,-0.134,-0.113
0.014,-0.239,-0.253,0.113,0.134,-0.246,-0.004,-0.144,-0.215,-0.126,-0.134,-0.12
0.008,-0.234,-0.242,0.113,0.126,-0.238,0.014,-0.132,-0.218,-0.144,-0.141,-0.118
0.022,-0.219,-0.241,0.098,0.132,-0.229,0.0,-0.124,-0.192,-0.13,-0.133,-0.111
-0.001,-0.245,-0.244,0.123,0.122,-0.245,0.005,-0.119,-0.214,-0.138,-0.14,-0.119
-0.024,-0.267,-0.242,0.146,0.109,-0.254,-0.021,-0.11,-0.18,-0.106,-0.109,-0.097
-0.012,-0.264,-0.251,0.138,0.12,-0.257,0.014,-0.089,-0.212,-0.149,-0.154,-0.135
-0.009,-0.23,-0.221,0.12,0.106,-0.225,0.155,0.185,-0.074,-0.098,-0.155,-0.151
0.076,-0.076,-0.152,0.0,0.114,-0.114,0.336,0.665,0.333,0.185,0.053,-0.013
0.434,0.588,0.153,-0.511,0.14,0.37,0.109,0.907,1.318,1.211,0.883,0.644
0.552,1.071,0.518,-0.812,0.017,0.794,-0.367,0.291,1.96,2.002,1.484,1.103
0.16,0.407,0.247,-0.283,-0.043,0.327,-0.329,-0.445,0.397,0.653,0.563,0.446
0.003,-0.24,-0.242,0.119,0.123,-0.241,-0.057,-0.094,-0.504,-0.292,-0.168,-0.09
0.025,-0.274,-0.299,0.125,0.162,-0.286,0.072,0.23,-0.082,-0.049,-0.113,-0.109
0.012,-0.196,-0.207,0.092,0.11,-0.201,0.062,0.109,-0.15,-0.102,-0.111,-0.104
0.025,-0.158,-0.183,0.067,0.104,-0.17,0.04,0.062,-0.086,-0.05,-0.073,-0.075
-0.013,-0.186,-0.173,0.1,0.08,-0.179,0.04,-0.021,-0.106,-0.062,-0.083,-0.08
-0.003,-0.169,-0.166,0.086,0.081,-0.167,0.025,-0.015,-0.098,-0.051,-0.069,-0.062
0.006,-0.143,-0.149,0.069,0.078,-0.146,0.027,-0.02,-0.08,-0.037,-0.063,-0.061
-0.008,-0.145,-0.137,0.077,0.065,-0.141,0.004,-0.009,-0.094,-0.043,-0.061,-0.055
-0.006,-0.142,-0.137,0.074,0.066,-0.139,0.019,-0.02,-0.062,-0.022,-0.05,-0.05
0.001,-0.13,-0.131,0.065,0.066,-0.13,0.032,-0.043,-0.069,-0.026,-0.05,-0.047
0.032,-0.116,-0.148,0.042,0.091,-0.132,0.023,-0.014,-0.038,0.01,-0.039,-0.04
0.021,-0.117,-0.138,0.048,0.08,-0.127,0.021,-0.006,-0.024,0.016,-0.03,-0.037
0.0,-0.114,-0.113,0.057,0.057,-0.113,0.015,0.02,0.023,0.04,-0.005,-0.024
0.057,-0.07,-0.127,0.007,0.092,-0.098,0.01,0.037,0.048,0.062,0.017,-0.013
0.048,-0.076,-0.125,0.014,0.087,-0.1,0.0,0.06,0.078,0.09,0.033,0.002
0.071,-0.054,-0.125,-0.008,0.098,-0.089,-0.008,0.094,0.124,0.128,0.047,0.023
0.109,-0.006,-0.115,-0.051,0.113,-0.061,-0.017,0.145,0.191,0.179,0.096,0.059
0.112,0.022,-0.09,-0.067,0.101,-0.034,-0.028,0.203,0.27,0.242,0.143,0.093
0.19,0.124,-0.066,-0.157,0.128,0.029,-0.045,0.251,0.338,0.307,0.193,0.137
0.205,0.161,-0.044,-0.183,0.124,0.059,-0.045,0.301,0.41,0.376,0.261,0.189
0.207,0.171,-0.036,-0.189,0.121,0.068,-0.046,0.319,0.453,0.422,0.296,0.218
0.223,0.198,-0.025,-0.21,0.123,0.086,-0.064,0.321,0.455,0.446,0.327,0.243
0.22,0.214,-0.006,-0.217,0.113,0.103,-0.058,0.311,0.438,0.461,0.334,0.257
0.227,0.222,-0.005,-0.224,0.116,0.108,-0.045,0.266,0.407,0.43,0.314,0.245
0.184,0.158,-0.026,-0.171,0.105,0.066,-0.033,0.203,0.307,0.337,0.267,0.205
0.128,0.076,-0.053,-0.102,0.09,0.012,-0.018,0.126,0.172,0.223,0.171,0.134
0.085,0.006,-0.079,-0.045,0.082,-0.036,-0.005,0.055,0.064,0.116,0.089,0.07
0.06,-0.047,-0.107,-0.006,0.084,-0.077,0.01,0.004,-0.035,0.049,0.024,0.025
0.034,-0.098,-0.132,0.033,0.083,-0.115,0.008,-0.035,-0.09,0.012,-0.023,-0.003
0.025,-0.111,-0.136,0.044,0.081,-0.123,0.002,-0.065,-0.116,-0.031,-0.041,-0.026
0.042,-0.111,-0.153,0.035,0.098,-0.132,-0.002,-0.083,-0.146,-0.058,-0.053,-0.046
0.019,-0.147,-0.166,0.064,0.093,-0.156,-0.009,-0.085,-0.145,-0.059,-0.056,-0.045
0.006,-0.15,-0.156,0.072,0.082,-0.153,-0.014,-0.08,-0.145,-0.052,-0.05,-0.04
0.018,-0.135,-0.153,0.059,0.086,-0.144,-0.015,-0.079,-0.144,-0.048,-0.048,-0.038
0.015,-0.128,-0.142,0.057,0.078,-0.135,-0.015,-0.075,-0.139,-0.041,-0.043,-0.033
0.005,-0.134,-0.139,0.065,0.072,-0.137,-0.015,-0.076,-0.141,-0.036,-0.04,-0.03
0.013,-0.116,-0.129,0.052,0.071,-0.122,-0.015,-0.081,-0.137,-0.046,-0.055,-0.045
0.012,-0.111,-0.123,0.05,0.068,-0.117,-0.015,-0.082,-0.134,-0.052,-0.062,-0.052
0.001,-0.141,-0.141,0.071,0.071,-0.141,-0.016,-0.088,-0.129,-0.045,-0.056,-0.049
0.02,-0.126,-0.146,0.053,0.083,-0.135,-0.025,-0.089,-0.128,-0.045,-0.055,-0.051
0.037,-0.118,-0.155,0.041,0.097,-0.137,-0.027,-0.094,-0.121,-0.04,-0.05,-0.05
0.036,-0.111,-0.147,0.038,0.092,-0.129,-0.022,-0.095,-0.122,-0.041,-0.05,-0.051
0.02,-0.117,-0.137,0.048,0.079,-0.126,-0.019,-0.08,-0.151,-0.062,-0.058,-0.055
-0.007,-0.15,-0.142,0.079,0.068,-0.145,-0.016,-0.096,-0.156,-0.065,-0.067,-0.055
-0.003,-0.142,-0.138,0.072,0.068,-0.14,-0.01,-0.112,-0.156,-0.066,-0.072,-0.055
0.0,-0.141,-0.141,0.07,0.071,-0.14,-0.013,-0.11,-0.16,-0.073,-0.067,-0.066
-0.02,-0.164,-0.144,0.093,0.062,-0.154,-0.011,-0.11,-0.171,-0.086,-0.076,-0.072
-0.019,-0.165,-0.146,0.092,0.064,-0.155,0.0,-0.112,-0.184,-0.101,-0.092,-0.075
-0.004,-0.165,-0.161,0.085,0.079,-0.163,-0.004,-0.133,-0.179,-0.1,-0.09,-0.08
0.001,-0.164,-0.166,0.082,0.084,-0.165,-0.012,-0.136,-0.178,-0.098,-0.09,-0.081
-0.006,-0.166,-0.16,0.086,0.077,-0.163,-0.016,-0.134,-0.173,-0.095,-0.09,-0.086
-0.002,-0.161,-0.159,0.082,0.079,-0.16,-0.021,-0.136,-0.183,-0.094,-0.089,-0.082
-0.002,-0.156,-0.154,0.079,0.077,-0.155,-0.038,-0.134,-0.201,-0.099,-0.093,-0.08
-0.021,-0.177,-0.156,0.099,0.068,-0.166,-0.041,-0.134,-0.199,-0.105,-0.095,-0.08
-0.022,-0.182,-0.16,0.102,0.069,-0.171,-0.034,-0.13,-0.196,-0.105,-0.095,-0.076
-0.008,-0.173,-0.165,0.091,0.079,-0.169,-0.035,-0.128,-0.193,-0.105,-0.095,-0.075
-0.015,-0.176,-0.161,0.096,0.073,-0.168,-0.029,-0.124,-0.189,-0.105,-0.095,-0.075
-0.007,-0.167,-0.16,0.087,0.077,-0.164,-0.03,-0.122,-0.191,-0.104,-0.095,-0.085
-0.013,-0.17,-0.157,0.092,0.072,-0.163,-0.021,-0.119,-0.195,-0.106,-0.09,-0.091
-0.02,-0.174,-0.154,0.097,0.068,-0.164,-0.022,-0.123,-0.2,-0.103,-0.09,-0.089
0.008,-0.152,-0.16,0.072,0.085,-0.156,-0.042,-0.138,-0.195,-0.11,-0.089,-0.091
-0.013,-0.167,-0.155,0.09,0.071,-0.161,-0.037,-0.131,-0.186,-0.117,-0.085,-0.09
-0.029,-0.174,-0.146,0.102,0.059,-0.16,-0.027,-0.123,-0.178,-0.104,-0.086,-0.091
0.011,-0.138,-0.149,0.064,0.081,-0.144,-0.019,-0.114,-0.17,-0.092,-0.082,-0.087
0.018,-0.108,-0.126,0.045,0.073,-0.117,-0.008,-0.086,-0.153,-0.078,-0.066,-0.078
-0.024,-0.106,-0.081,0.065,0.029,-0.093,0.006,-0.074,-0.135,-0.07,-0.054,-0.067
0.01,-0.08,-0.09,0.035,0.051,-0.085,-0.003,-0.074,-0.136,-0.069,-0.054,-0.058
0.037,-0.048,-0.085,0.006,0.061,-0.066,-0.037,-0.107,-0.131,-0.065,-0.055,-0.059
0.04,-0.051,-0.091,0.005,0.066,-0.071,-0.06,-0.124,-0.146,-0.064,-0.055,-0.061
0.062,-0.062,-0.124,0.001,0.093,-0.093,-0.058,-0.114,-0.158,-0.057,-0.054,-0.059
0.019,-0.114,-0.133,0.048,0.077,-0.123,-0.054,-0.107,-0.161,-0.072,-0.058,-0.064
0.004,-0.154,-0.157,0.075,0.081,-0.155,-0.051,-0.103,-0.181,-0.094,-0.086,-0.085
-0.008,-0.178,-0.17,0.093,0.081,-0.174,-0.045,-0.143,-0.218,-0.124,-0.112,-0.11
-0.005,-0.188,-0.183,0.097,0.089,-0.185,-0.046,-0.152,-0.214,-0.128,-0.115,-0.115
-0.019,-0.2,-0.181,0.109,0.081,-0.19,-0.034,-0.149,-0.225,-0.144,-0.131,-0.125
-0.045,-0.211,-0.167,0.128,0.061,-0.188,-0.037,-0.151,-0.22,-0.137,-0.119,-0.115
-0.044,-0.213,-0.169,0.128,0.063,-0.19,-0.023,-0.148,-0.222,-0.14,-0.129,-0.125
-0.049,-0.2,-0.151,0.125,0.051,-0.175,-0.025,-0.154,-0.236,-0.146,-0.124,-0.116
-0.03,-0.195,-0.165,0.112,0.068,-0.18,-0.016,-0.135,-0.193,-0.126,-0.121,-0.122
-0.054,-0.219,-0.165,0.137,0.055,-0.191,0.051,-0.026,-0.203,-0.168,-0.159,-0.145
-0.024,-0.151,-0.127,0.087,0.052,-0.139,0.236,0.37,0.057,-0.022,-0.084,-0.109
0.218,0.206,-0.012,-0.212,0.115,0.097,0.315,0.828,0.636,0.499,0.33,0.189
0.536,0.932,0.395,-0.734,0.07,0.663,-0.12,0.751,1.779,1.717,1.289,0.928
0.421,0.945,0.524,-0.683,-0.052,0.734,-0.403,-0.08,1.517,1.627,1.24,0.898
0.058,0.115,0.057,-0.087,0.001,0.086,-0.207,-0.401,-0.234,0.051,0.143,0.119
0.005,-0.24,-0.245,0.117,0.125,-0.242,0.022,0.105,-0.344,-0.213,-0.143,-0.118
0.022,-0.18,-0.203,0.079,0.113,-0.191,0.09,0.184,-0.084,-0.054,-0.086,-0.101
-0.007,-0.148,-0.141,0.077,0.067,-0.144,0.04,0.069,-0.159,-0.099,-0.096,-0.099
-0.025,-0.142,-0.116,0.084,0.046,-0.129,0.031,0.017,-0.072,-0.044,-0.067,-0.086
-0.043,-0.152,-0.109,0.098,0.034,-0.13,0.014,-0.04,-0.13,-0.088,-0.083,-0.092
-0.015,-0.115,-0.1,0.065,0.043,-0.107,0.009,-0.042,-0.079,-0.038,-0.06,-0.077
0.007,-0.082,-0.089,0.038,0.048,-0.086,0.004,-0.061,-0.103,-0.052,-0.063,-0.073
-0.012,-0.094,-0.081,0.053,0.035,-0.087,-0.009,-0.043,-0.078,-0.03,-0.044,-0.055
-0.025,-0.098,-0.073,0.062,0.024,-0.085,-0.009,-0.047,-0.072,-0.028,-0.037,-0.05
-0.017,-0.087,-0.07,0.052,0.027,-0.078,-0.02,-0.038,-0.065,-0.023,-0.023,-0.042
-0.028,-0.084,-0.056,0.056,0.015,-0.07,-0.003,-0.029,-0.037,0.001,-0.011,-0.036
-0.004,-0.074,-0.07,0.039,0.033,-0.071,0.001,-0.005,-0.012,0.018,0.003,-0.03
0.051,-0.037,-0.088,-0.007,0.07,-0.062,-0.027,0.025,0.031,0.044,0.017,-0.019
0.046,-0.016,-0.062,-0.014,0.054,-0.039,-0.03,0.049,0.053,0.068,0.029,0.004
0.042,-0.007,-0.048,-0.017,0.045,-0.027,-0.031,0.076,0.093,0.095,0.051,0.028
0.057,0.017,-0.039,-0.037,0.048,-0.011,-0.036,0.113,0.149,0.126,0.077,0.045
0.072,0.05,-0.022,-0.061,0.046,0.014,-0.035,0.167,0.215,0.182,0.125,0.075
0.174,0.161,-0.013,-0.168,0.094,0.074,-0.041,0.228,0.294,0.256,0.18,0.119
0.197,0.211,0.014,-0.204,0.091,0.112,-0.047,0.275,0.363,0.321,0.228,0.158
0.158,0.196,0.038,-0.177,0.06,0.116,-0.058,0.299,0.415,0.362,0.275,0.191
0.214,0.246,0.031,-0.231,0.092,0.138,-0.059,0.331,0.456,0.416,0.322,0.241
0.214,0.269,0.054,-0.242,0.08,0.161,-0.064,0.337,0.474,0.45,0.346,0.267
0.19,0.258,0.069,-0.224,0.06,0.163,-0.068,0.304,0.451,0.425,0.345,0.264
0.192,0.246,0.054,-0.22,0.069,0.15,-0.052,0.25,0.367,0.382,0.31,0.238
0.137,0.175,0.037,-0.156,0.05,0.106,-0.043,0.18,0.251,0.285,0.236,0.182
0.113,0.106,-0.007,-0.109,0.06,0.049,-0.038,0.102,0.119,0.171,0.146,0.12
0.079,0.046,-0.033,-0.062,0.056,0.006,-0.014,0.042,0.018,0.079,0.075,0.067
-0.009,-0.058,-0.048,0.034,0.02,-0.053,0.007,-0.006,-0.068,0.002,0.03,0.02
0.011,-0.064,-0.074,0.027,0.043,-0.069,0.001,-0.046,-0.119,-0.025,-0.007,-0.016
0.03,-0.063,-0.093,0.017,0.062,-0.078,-0.004,-0.067,-0.14,-0.061,-0.032,-0.027
0.001,-0.097,-0.098,0.048,0.049,-0.097,-0.01,-0.081,-0.159,-0.079,-0.046,-0.038
-0.016,-0.104,-0.087,0.06,0.036,-0.095,-0.014,-0.077,-0.154,-0.073,-0.047,-0.044
-0.051,-0.119,-0.067,0.085,0.008,-0.092,-0.011,-0.073,-0.173,-0.092,-0.044,-0.041
-0.031,-0.1,-0.07,0.066,0.02,-0.085,-0.009,-0.07,-0.171,-0.089,-0.041,-0.038
0.0,-0.091,-0.091,0.045,0.046,-0.091,-0.005,-0.064,-0.152,-0.078,-0.038,-0.035
-0.004,-0.088,-0.084,0.047,0.04,-0.086,-0.003,-0.068,-0.14,-0.073,-0.035,-0.032
-0.002,-0.083,-0.081,0.043,0.04,-0.082,0.002,-0.07,-0.137,-0.065,-0.036,-0.029
-0.006,-0.081,-0.075,0.044,0.034,-0.078,-0.008,-0.072,-0.147,-0.06,-0.041,-0.032
-0.003,-0.076,-0.073,0.04,0.035,-0.074,-0.021,-0.075,-0.144,-0.052,-0.039,-0.036
-0.012,-0.074,-0.062,0.043,0.025,-0.067,-0.019,-0.076,-0.145,-0.052,-0.043,-0.035
-0.042,-0.089,-0.047,0.066,0.002,-0.067,-0.021,-0.079,-0.145,-0.057,-0.046,-0.035
-0.034,-0.108,-0.074,0.071,0.021,-0.091,-0.019,-0.081,-0.144,-0.06,-0.045,-0.035
-0.021,-0.104,-0.083,0.062,0.032,-0.093,-0.021,-0.086,-0.152,-0.068,-0.049,-0.035
-0.026,-0.104,-0.077,0.065,0.026,-0.09,-0.017,-0.083,-0.162,-0.077,-0.056,-0.041
-0.018,-0.099,-0.081,0.058,0.032,-0.09,-0.008,-0.079,-0.158,-0.081,-0.061,-0.047
-0.009,-0.1,-0.091,0.055,0.041,-0.095,0.0,-0.081,-0.167,-0.085,-0.067,-0.055
-0.014,-0.112,-0.097,0.063,0.042,-0.104,0.01,-0.078,-0.186,-0.088,-0.074,-0.066
-0.023,-0.116,-0.093,0.07,0.035,-0.105,-0.013,-0.098,-0.185,-0.094,-0.075,-0.063
-0.023,-0.115,-0.092,0.069,0.035,-0.103,-0.028,-0.116,-0.184,-0.1,-0.076,-0.06
-0.022,-0.111,-0.089,0.066,0.034,-0.1,-0.019,-0.108,-0.186,-0.105,-0.085,-0.058
-0.02,-0.111,-0.091,0.066,0.036,-0.101,-0.017,-0.104,-0.183,-0.11,-0.091,-0.053
-0.011,-0.106,-0.096,0.059,0.043,-0.1,-0.011,-0.098,-0.189,-0.11,-0.094,-0.06
-0.042,-0.135,-0.093,0.089,0.026,-0.114,-0.008,-0.091,-0.2,-0.11,-0.092,-0.07
-0.04,-0.141,-0.101,0.091,0.031,-0.121,0.0,-0.099,-0.197,-0.11,-0.089,-0.07
0.0,-0.115,-0.115,0.058,0.058,-0.115,0.005,-0.106,-0.193,-0.11,-0.09,-0.07
-0.015,-0.123,-0.107,0.069,0.046,-0.115,-0.001,-0.105,-0.19,-0.106,-0.085,-0.07
-0.024,-0.125,-0.1,0.075,0.038,-0.112,-0.007,-0.103,-0.185,-0.105,-0.085,-0.07
-0.031,-0.127,-0.095,0.079,0.032,-0.111,-0.012,-0.099,-0.185,-0.104,-0.084,-0.07
-0.046,-0.131,-0.085,0.089,0.019,-0.108,-0.018,-0.1,-0.185,-0.102,-0.078,-0.065
-0.04,-0.131,-0.091,0.086,0.026,-0.111,-0.02,-0.1,-0.185,-0.098,-0.072,-0.06
-0.041,-0.143,-0.102,0.092,0.031,-0.122,-0.02,-0.102,-0.185,-0.103,-0.068,-0.057
-0.047,-0.157,-0.111,0.102,0.032,-0.134,-0.02,-0.103,-0.186,-0.104,-0.061,-0.051
-0.026,-0.118,-0.093,0.072,0.034,-0.105,-0.008,-0.088,-0.174,-0.075,-0.058,-0.048
-0.017,-0.069,-0.052,0.043,0.018,-0.06,0.012,-0.075,-0.153,-0.065,-0.049,-0.037
-0.01,-0.056,-0.046,0.033,0.018,-0.051,0.033,-0.061,-0.145,-0.063,-0.042,-0.028
0.012,-0.028,-0.04,0.009,0.026,-0.034,0.011,-0.045,-0.14,-0.048,-0.032,-0.017
0.015,-0.021,-0.035,0.003,0.025,-0.028,-0.023,-0.069,-0.13,-0.042,-0.025,-0.008
0.033,-0.002,-0.035,-0.015,0.034,-0.018,-0.025,-0.083,-0.13,-0.047,-0.032,-0.004
0.023,0.007,-0.016,-0.015,0.019,-0.004,-0.025,-0.07,-0.122,-0.045,-0.025,0.01
-0.011,-0.071,-0.06,0.041,0.025,-0.065,-0.028,-0.089,-0.146,-0.074,-0.052,-0.022
-0.016,-0.109,-0.093,0.063,0.038,-0.101,-0.031,-0.095,-0.162,-0.092,-0.077,-0.047
-0.031,-0.128,-0.097,0.079,0.033,-0.112,-0.028,-0.108,-0.189,-0.113,-0.094,-0.056
-0.03,-0.16,-0.13,0.095,0.051,-0.145,-0.027,-0.124,-0.201,-0.13,-0.109,-0.081
-0.029,-0.161,-0.132,0.095,0.051,-0.146,-0.019,-0.119,-0.2,-0.128,-0.113,-0.088
-0.027,-0.154,-0.127,0.091,0.05,-0.141,-0.021,-0.112,-0.196,-0.123,-0.107,-0.082
-0.032,-0.163,-0.131,0.098,0.05,-0.147,-0.013,-0.106,-0.178,-0.117,-0.111,-0.087
-0.027,-0.147,-0.121,0.088,0.047,-0.134,-0.011,-0.101,-0.201,-0.123,-0.113,-0.085
-0.011,-0.139,-0.129,0.076,0.059,-0.134,-0.012,-0.09,-0.142,-0.103,-0.099,-0.081
-0.055,-0.178,-0.123,0.117,0.034,-0.15,0.054,-0.025,-0.166,-0.133,-0.15,-0.111
-0.044,-0.147,-0.103,0.096,0.029,-0.125,0.232,0.354,0.055,-0.023,-0.111,-0.11
0.141,0.168,0.027,-0.155,0.057,0.098,0.333,0.793,0.6,0.416,0.27,0.175
0.485,0.909,0.425,-0.697,0.03,0.667,-0.044,0.792,1.719,1.628,1.206,0.869
0.42,0.999,0.579,-0.71,-0.08,0.789,-0.359,0.109,1.75,1.795,1.308,0.924
0.019,0.212,0.193,-0.116,-0.087,0.202,-0.19,-0.354,-0.043,0.194,0.233,0.211
-0.019,-0.193,-0.175,0.106,0.078,-0.184,0.04,0.093,-0.384,-0.265,-0.163,-0.098
-0.017,-0.19,-0.174,0.104,0.079,-0.182,0.117,0.261,-0.041,-0.065,-0.1,-0.087
-0.045,-0.126,-0.081,0.086,0.018,-0.103,0.075,0.102,-0.131,-0.13,-0.11,-0.068
-0.007,-0.085,-0.078,0.046,0.036,-0.081,0.054,0.056,-0.043,-0.061,-0.073,-0.051
-0.031,-0.08,-0.05,0.056,0.01,-0.065,0.04,-0.019,-0.104,-0.099,-0.084,-0.049
-0.022,-0.061,-0.04,0.042,0.009,-0.05,0.034,-0.027,-0.056,-0.056,-0.056,-0.032
-0.025,-0.066,-0.041,0.046,0.008,-0.053,0.033,-0.041,-0.069,-0.058,-0.054,-0.03
-0.014,-0.053,-0.039,0.034,0.012,-0.046,0.024,-0.027,-0.043,-0.042,-0.039,-0.021
-0.006,-0.048,-0.041,0.027,0.018,-0.044,0.024,-0.022,-0.02,-0.033,-0.035,-0.018
0.002,-0.034,-0.036,0.016,0.019,-0.035,0.017,-0.017,-0.024,-0.031,-0.03,-0.01
0.0,-0.023,-0.024,0.012,0.012,-0.023,0.016,-0.007,-0.001,-0.013,-0.021,-0.007
0.007,-0.007,-0.014,0.0,0.011,-0.01,0.011,0.005,0.011,-0.007,-0.002,0.006
0.048,0.031,-0.017,-0.039,0.032,0.007,0.007,0.03,0.047,0.023,0.022,0.026
0.036,0.028,-0.008,-0.032,0.022,0.01,0.004,0.042,0.066,0.044,0.023,0.025
0.024,0.035,0.011,-0.03,0.006,0.023,-0.001,0.07,0.113,0.08,0.046,0.034
0.026,0.056,0.03,-0.042,-0.002,0.043,-0.011,0.104,0.168,0.117,0.084,0.067
0.066,0.09,0.024,-0.078,0.021,0.056,-0.017,0.147,0.228,0.159,0.111,0.09
0.093,0.149,0.056,-0.121,0.018,0.102,-0.027,0.209,0.308,0.224,0.158,0.121
0.101,0.191,0.09,-0.146,0.005,0.141,-0.029,0.247,0.38,0.289,0.218,0.178
0.149,0.241,0.092,-0.196,0.028,0.166,-0.032,0.272,0.432,0.339,0.257,0.209
0.183,0.309,0.126,-0.246,0.028,0.217,-0.053,0.312,0.491,0.396,0.314,0.249
0.212,0.344,0.132,-0.278,0.04,0.237,-0.046,0.322,0.504,0.426,0.352,0.287
0.204,0.329,0.125,-0.267,0.039,0.227,-0.034,0.288,0.473,0.409,0.336,0.277
0.163,0.288,0.126,-0.226,0.018,0.207,-0.025,0.239,0.409,0.359,0.301,0.247
0.145,0.248,0.103,-0.197,0.021,0.175,0.008,0.192,0.295,0.264,0.24,0.197
0.144,0.203,0.058,-0.174,0.043,0.13,0.02,0.14,0.18,0.162,0.162,0.138
0.075,0.098,0.023,-0.087,0.026,0.06,0.037,0.07,0.062,0.061,0.08,0.086
0.028,0.017,-0.011,-0.023,0.02,0.002,0.042,0.015,-0.023,-0.011,0.019,0.033
0.042,-0.003,-0.045,-0.019,0.044,-0.024,0.029,-0.006,-0.073,-0.054,-0.008,-0.001
0.016,-0.02,-0.036,0.002,0.027,-0.028,0.024,-0.029,-0.103,-0.079,-0.037,-0.007
-0.006,-0.028,-0.022,0.017,0.009,-0.025,0.015,-0.054,-0.113,-0.088,-0.054,-0.014
-0.021,-0.039,-0.018,0.031,-0.001,-0.028,0.028,-0.056,-0.126,-0.102,-0.065,-0.022
-0.04,-0.034,0.006,0.037,-0.023,-0.014,0.038,-0.052,-0.125,-0.1,-0.072,-0.03
-0.035,-0.032,0.003,0.033,-0.019,-0.015,0.029,-0.05,-0.122,-0.097,-0.064,-0.034
-0.014,-0.028,-0.015,0.022,0.0,-0.021,0.022,-0.046,-0.121,-0.095,-0.061,-0.029
-0.013,-0.024,-0.01,0.019,-0.001,-0.017,0.017,-0.045,-0.119,-0.094,-0.056,-0.024
-0.016,-0.039,-0.023,0.027,0.004,-0.03,-0.003,-0.049,-0.118,-0.099,-0.051,-0.019
-0.05,-0.032,0.019,0.041,-0.034,-0.006,-0.016,-0.051,-0.113,-0.1,-0.052,-0.016
-0.044,-0.029,0.015,0.036,-0.029,-0.007,-0.01,-0.055,-0.112,-0.101,-0.056,-0.009
0.005,-0.007,-0.012,0.001,0.009,-0.01,-0.002,-0.058,-0.108,-0.1,-0.054,-0.018
-0.024,-0.017,0.007,0.02,-0.015,-0.005,0.003,-0.06,-0.104,-0.099,-0.056,-0.033
-0.048,-0.041,0.007,0.045,-0.027,-0.017,-0.005,-0.053,-0.11,-0.095,-0.056,-0.031
-0.053,-0.013,0.039,0.033,-0.046,0.013,-0.001,-0.045,-0.12,-0.095,-0.055,-0.029
-0.028,-0.019,0.009,0.023,-0.018,-0.005,0.001,-0.069,-0.142,-0.107,-0.073,-0.038
-0.034,-0.041,-0.006,0.038,-0.014,-0.023,-0.001,-0.084,-0.152,-0.111,-0.084,-0.046
-0.057,-0.053,0.004,0.055,-0.03,-0.025,0.016,-0.083,-0.15,-0.123,-0.086,-0.052
-0.023,-0.046,-0.023,0.035,0.0,-0.034,0.013,-0.088,-0.149,-0.124,-0.083,-0.053
-0.046,-0.057,-0.011,0.052,-0.018,-0.033,-0.007,-0.09,-0.161,-0.13,-0.092,-0.061
-0.037,-0.038,0.0,0.038,-0.018,-0.019,-0.008,-0.095,-0.18,-0.151,-0.115,-0.08
0.014,0.011,-0.003,-0.013,0.008,0.004,0.008,-0.095,-0.182,-0.149,-0.115,-0.08
-0.008,-0.022,-0.014,0.015,0.003,-0.018,0.012,-0.095,-0.184,-0.151,-0.115,-0.08
-0.037,-0.055,-0.019,0.047,-0.009,-0.037,0.008,-0.095,-0.188,-0.155,-0.115,-0.08
-0.031,-0.063,-0.032,0.047,0.001,-0.047,0.002,-0.095,-0.19,-0.155,-0.115,-0.08
-0.041,-0.068,-0.027,0.055,-0.007,-0.047,-0.002,-0.093,-0.188,-0.153,-0.113,-0.078
-0.04,-0.061,-0.021,0.051,-0.009,-0.041,-0.006,-0.089,-0.181,-0.148,-0.109,-0.073
-0.048,-0.069,-0.021,0.059,-0.013,-0.045,-0.012,-0.09,-0.176,-0.145,-0.107,-0.071
-0.054,-0.06,-0.006,0.058,-0.024,-0.033,0.004,-0.09,-0.171,-0.141,-0.103,-0.066
-0.03,-0.054,-0.024,0.042,-0.003,-0.038,0.015,-0.09,-0.164,-0.138,-0.102,-0.063
-0.055,-0.078,-0.023,0.067,-0.016,-0.05,0.006,-0.09,-0.161,-0.133,-0.097,-0.058
-0.043,-0.07,-0.028,0.057,-0.007,-0.049,0.003,-0.084,-0.162,-0.145,-0.104,-0.067
-0.021,-0.061,-0.04,0.041,0.009,-0.05,-0.004,-0.075,-0.154,-0.15,-0.111,-0.077
-0.024,-0.058,-0.034,0.041,0.005,-0.046,-0.009,-0.068,-0.145,-0.131,-0.095,-0.063
-0.033,-0.026,0.007,0.029,-0.02,-0.009,-0.004,-0.058,-0.137,-0.118,-0.083,-0.053
-0.062,0.002,0.063,0.03,-0.063,0.032,0.013,-0.053,-0.128,-0.102,-0.076,-0.045
-0.017,0.039,0.057,-0.011,-0.037,0.048,0.022,-0.047,-0.125,-0.096,-0.07,-0.041
-0.002,0.067,0.069,-0.032,-0.035,0.068,-0.003,-0.047,-0.117,-0.093,-0.06,-0.044
-0.01,0.071,0.08,-0.031,-0.045,0.075,-0.018,-0.072,-0.115,-0.091,-0.044,-0.046
0.018,0.083,0.065,-0.051,-0.024,0.074,-0.011,-0.079,-0.104,-0.087,-0.038,-0.045
-0.013,0.036,0.049,-0.012,-0.031,0.042,-0.008,-0.082,-0.112,-0.084,-0.046,-0.052
-0.033,-0.012,0.02,0.022,-0.026,0.004,-0.002,-0.087,-0.14,-0.097,-0.057,-0.048
-0.034,-0.048,-0.014,0.041,-0.009,-0.031,-0.001,-0.089,-0.157,-0.131,-0.089,-0.056
-0.031,-0.083,-0.052,0.057,0.011,-0.067,-0.027,-0.11,-0.19,-0.167,-0.122,-0.091
-0.015,-0.067,-0.052,0.041,0.018,-0.059,-0.044,-0.109,-0.184,-0.159,-0.123,-0.101
-0.062,-0.096,-0.034,0.079,-0.014,-0.065,-0.028,-0.098,-0.199,-0.173,-0.129,-0.101
-0.082,-0.11,-0.028,0.096,-0.027,-0.069,-0.031,-0.099,-0.176,-0.155,-0.115,-0.096
-0.063,-0.112,-0.049,0.088,-0.007,-0.08,-0.013,-0.101,-0.194,-0.175,-0.128,-0.105
-0.062,-0.097,-0.035,0.08,-0.013,-0.066,-0.014,-0.1,-0.179,-0.156,-0.11,-0.093
-0.063,-0.102,-0.039,0.083,-0.012,-0.07,0.002,-0.086,-0.161,-0.169,-0.121,-0.099
-0.065,-0.105,-0.039,0.086,-0.013,-0.072,0.115,0.116,-0.103,-0.167,-0.127,-0.108
-0.002,0.018,0.02,-0.008,-0.011,0.019,0.325,0.551,0.265,0.074,0.006,-0.039
0.274,0.552,0.278,-0.413,-0.002,0.415,0.256,0.881,1.069,0.865,0.651,0.464
0.485,1.187,0.703,-0.836,-0.109,0.945,-0.24,0.524,2.024,1.976,1.488,1.068
0.231,0.773,0.542,-0.502,-0.156,0.657,-0.37,-0.275,0.965,1.134,0.891,0.637
-0.033,-0.003,0.03,0.018,-0.031,0.013,-0.069,-0.187,-0.424,-0.232,-0.079,-0.012
-0.043,-0.155,-0.112,0.099,0.035,-0.133,0.13,0.282,-0.122,-0.128,-0.127,-0.091
-0.039,-0.092,-0.053,0.066,0.008,-0.072,0.125,0.201,-0.065,-0.107,-0.108,-0.096
-0.072,-0.047,0.025,0.06,-0.048,-0.011,0.074,0.098,-0.082,-0.103,-0.094,-0.077
-0.067,-0.05,0.017,0.058,-0.042,-0.016,0.069,0.042,-0.059,-0.073,-0.094,-0.071
-0.035,-0.024,0.012,0.029,-0.023,-0.006,0.048,0.02,-0.088,-0.097,-0.087,-0.059
-0.061,0.001,0.062,0.03,-0.061,0.032,0.047,0.023,-0.038,-0.059,-0.043,-0.041
-0.06,-0.002,0.058,0.031,-0.059,0.028,0.043,0.007,-0.064,-0.08,-0.042,-0.033
-0.046,0.016,0.061,0.015,-0.054,0.038,0.04,0.014,-0.021,-0.052,-0.028,-0.02
-0.034,0.03,0.064,0.002,-0.049,0.047,0.038,-0.001,-0.032,-0.059,-0.031,-0.02
-0.035,0.03,0.065,0.002,-0.05,0.047,0.034,0.003,0.005,-0.039,-0.019,-0.011
-0.035,0.031,0.066,0.001,-0.051,0.049,0.034,0.008,0.026,-0.03,-0.018,-0.007
-0.016,0.054,0.069,-0.019,-0.043,0.061,0.028,0.022,0.036,-0.005,-0.003,-0.001
-0.002,0.089,0.091,-0.044,-0.047,0.09,0.025,0.049,0.082,0.022,0.027,0.007
0.018,0.12,0.103,-0.069,-0.043,0.111,0.021,0.065,0.112,0.038,0.04,0.022
0.023,0.122,0.099,-0.072,-0.038,0.11,0.017,0.095,0.152,0.076,0.057,0.037
0.032,0.131,0.099,-0.081,-0.034,0.115,0.014,0.136,0.218,0.124,0.091,0.066
0.033,0.171,0.138,-0.102,-0.052,0.154,0.008,0.185,0.296,0.185,0.136,0.105
0.071,0.231,0.16,-0.152,-0.045,0.195,0.001,0.236,0.379,0.251,0.187,0.135
0.102,0.285,0.184,-0.194,-0.041,0.234,-0.006,0.265,0.457,0.32,0.249,0.186
0.118,0.332,0.215,-0.225,-0.049,0.274,-0.014,0.303,0.514,0.382,0.305,0.233
0.161,0.357,0.196,-0.259,-0.018,0.276,-0.021,0.308,0.552,0.409,0.335,0.252
0.168,0.378,0.21,-0.273,-0.021,0.294,-0.023,0.305,0.556,0.403,0.349,0.276
0.172,0.377,0.205,-0.274,-0.017,0.291,-0.013,0.283,0.504,0.381,0.34,0.267
0.139,0.318,0.179,-0.228,-0.02,0.248,0.001,0.228,0.392,0.323,0.277,0.216
0.065,0.25,0.185,-0.158,-0.06,0.218,0.014,0.179,0.265,0.226,0.199,0.159
0.025,0.163,0.138,-0.094,-0.057,0.15,0.034,0.104,0.144,0.11,0.12,0.095
0.012,0.118,0.106,-0.065,-0.048,0.112,0.039,0.053,0.035,0.016,0.052,0.041
-0.013,0.083,0.096,-0.035,-0.055,0.089,0.032,0.014,-0.039,-0.041,0.011,0.003
-0.02,0.04,0.061,-0.01,-0.041,0.05,0.028,-0.027,-0.084,-0.077,-0.028,-0.026
-0.041,0.015,0.056,0.013,-0.049,0.035,0.021,-0.045,-0.11,-0.105,-0.05,-0.041
-0.072,-0.019,0.053,0.045,-0.063,0.017,0.016,-0.052,-0.119,-0.127,-0.062,-0.041
-0.061,-0.009,0.052,0.035,-0.056,0.021,0.015,-0.049,-0.114,-0.131,-0.066,-0.035
-0.039,0.008,0.047,0.016,-0.043,0.028,0.014,-0.05,-0.115,-0.117,-0.065,-0.029
-0.034,0.018,0.052,0.008,-0.043,0.035,0.016,-0.05,-0.115,-0.118,-0.063,-0.026
-0.084,-0.008,0.077,0.046,-0.08,0.034,0.014,-0.049,-0.115,-0.125,-0.059,-0.016
-0.09,-0.017,0.073,0.053,-0.081,0.028,0.015,-0.046,-0.115,-0.116,-0.061,-0.021
-0.061,0.01,0.071,0.026,-0.066,0.04,0.015,-0.044,-0.11,-0.113,-0.056,-0.041
-0.052,0.015,0.067,0.018,-0.06,0.041,0.003,-0.046,-0.111,-0.106,-0.055,-0.038
-0.007,0.059,0.066,-0.026,-0.037,0.062,0.022,-0.045,-0.108,-0.101,-0.055,-0.034
0.013,0.074,0.062,-0.044,-0.025,0.068,0.032,-0.045,-0.106,-0.103,-0.05,-0.031
-0.015,0.039,0.055,-0.012,-0.035,0.047,0.013,-0.047,-0.103,-0.106,-0.051,-0.027
-0.049,0.025,0.074,0.011,-0.061,0.049,0.007,-0.052,-0.11,-0.105,-0.05,-0.024
-0.027,0.048,0.075,-0.011,-0.052,0.061,0.002,-0.054,-0.119,-0.106,-0.065,-0.041
-0.031,0.042,0.073,-0.006,-0.052,0.057,-0.001,-0.056,-0.121,-0.12,-0.086,-0.066
-0.053,0.014,0.067,0.02,-0.061,0.04,-0.004,-0.053,-0.134,-0.125,-0.088,-0.067
-0.068,0.01,0.078,0.029,-0.073,0.044,-0.01,-0.06,-0.143,-0.131,-0.091,-0.079
-0.078,0.004,0.082,0.036,-0.08,0.043,-0.008,-0.087,-0.161,-0.142,-0.09,-0.086
-0.053,-0.001,0.052,0.027,-0.053,0.025,-0.005,-0.091,-0.167,-0.147,-0.09,-0.077
-0.069,-0.019,0.05,0.044,-0.059,0.015,-0.004,-0.089,-0.164,-0.153,-0.097,-0.076
-0.037,0.01,0.046,0.013,-0.042,0.028,-0.001,-0.095,-0.171,-0.155,-0.1,-0.069
-0.037,0.007,0.044,0.014,-0.041,0.026,0.001,-0.095,-0.169,-0.155,-0.103,-0.065
-0.066,-0.026,0.04,0.046,-0.053,0.007,-0.004,-0.094,-0.172,-0.155,-0.106,-0.07
-0.037,0.005,0.042,0.016,-0.039,0.023,-0.005,-0.09,-0.175,-0.155,-0.104,-0.07
-0.07,-0.005,0.065,0.037,-0.067,0.029,-0.005,-0.09,-0.175,-0.155,-0.108,-0.077
-0.095,-0.036,0.059,0.065,-0.077,0.011,-0.01,-0.09,-0.174,-0.15,-0.112,-0.085
-0.089,-0.036,0.053,0.062,-0.07,0.008,-0.01,-0.09,-0.176,-0.151,-0.108,-0.088
-0.065,-0.02,0.046,0.042,-0.055,0.013,-0.009,-0.091,-0.173,-0.148,-0.106,-0.089
-0.078,-0.039,0.039,0.059,-0.059,0.0,-0.005,-0.086,-0.178,-0.156,-0.102,-0.095
-0.11,-0.077,0.034,0.093,-0.072,-0.021,-0.002,-0.085,-0.189,-0.169,-0.1,-0.104
-0.075,-0.051,0.024,0.063,-0.049,-0.013,0.0,-0.079,-0.18,-0.16,-0.098,-0.094
-0.083,-0.037,0.046,0.06,-0.064,0.004,0.005,-0.078,-0.176,-0.155,-0.089,-0.086
-0.088,-0.023,0.065,0.056,-0.076,0.02,0.003,-0.072,-0.163,-0.147,-0.082,-0.074
-0.062,0.008,0.071,0.027,-0.067,0.039,0.021,-0.06,-0.131,-0.134,-0.067,-0.051
-0.056,0.049,0.105,0.004,-0.081,0.077,0.038,-0.043,-0.123,-0.124,-0.054,-0.039
-0.037,0.095,0.132,-0.029,-0.085,0.114,0.028,-0.041,-0.126,-0.106,-0.055,-0.031
-0.046,0.086,0.132,-0.02,-0.089,0.109,0.021,-0.089,-0.126,-0.094,-0.057,-0.033
-0.024,0.097,0.121,-0.037,-0.073,0.109,0.01,-0.097,-0.133,-0.084,-0.06,-0.035
-0.013,0.08,0.093,-0.034,-0.053,0.087,0.003,-0.073,-0.132,-0.097,-0.06,-0.036
-0.044,0.005,0.05,0.019,-0.047,0.027,-0.008,-0.078,-0.141,-0.125,-0.065,-0.046
-0.053,-0.046,0.007,0.049,-0.03,-0.019,-0.014,-0.097,-0.174,-0.153,-0.093,-0.08
-0.075,-0.066,0.009,0.071,-0.042,-0.028,-0.021,-0.109,-0.195,-0.181,-0.117,-0.102
-0.073,-0.079,-0.006,0.076,-0.034,-0.042,-0.026,-0.104,-0.191,-0.167,-0.112,-0.098
-0.086,-0.105,-0.019,0.096,-0.033,-0.062,-0.016,-0.097,-0.213,-0.178,-0.119,-0.101
-0.081,-0.09,-0.009,0.086,-0.036,-0.05,-0.022,-0.094,-0.191,-0.16,-0.112,-0.091
-0.064,-0.097,-0.033,0.081,-0.015,-0.064,-0.007,-0.085,-0.201,-0.171,-0.131,-0.099
-0.063,-0.081,-0.018,0.072,-0.022,-0.049,-0.019,-0.091,-0.189,-0.16,-0.12,-0.093
-0.071,-0.086,-0.015,0.079,-0.028,-0.05,0.017,-0.096,-0.172,-0.155,-0.126,-0.119
-0.091,-0.099,-0.008,0.095,-0.041,-0.053,0.122,0.08,-0.124,-0.17,-0.144,-0.134
-0.031,0.009,0.04,0.011,-0.035,0.024,0.311,0.479,0.203,0.022,-0.023,-0.071
0.217,0.503,0.286,-0.36,-0.035,0.394,0.297,0.845,0.961,0.743,0.567,0.369
0.462,1.211,0.749,-0.837,-0.144,0.98,-0.233,0.47,1.895,1.878,1.454,1.022
0.228,0.873,0.645,-0.551,-0.209,0.759,-0.441,-0.362,0.988,1.216,0.987,0.691
-0.044,0.027,0.071,0.009,-0.058,0.049,-0.105,-0.234,-0.393,-0.207,-0.037,-0.005
-0.02,-0.151,-0.131,0.086,0.055,-0.141,0.126,0.279,-0.17,-0.181,-0.125,-0.111
-0.031,-0.084,-0.053,0.058,0.012,-0.068,0.133,0.213,-0.072,-0.109,-0.097,-0.108
-0.063,-0.042,0.021,0.052,-0.042,-0.01,0.078,0.084,-0.094,-0.13,-0.092,-0.079
-0.083,-0.045,0.039,0.064,-0.061,-0.003,0.064,0.015,-0.059,-0.099,-0.076,-0.06
-0.08,-0.028,0.053,0.054,-0.066,0.012,0.055,-0.019,-0.097,-0.122,-0.084,-0.062
-0.062,-0.008,0.055,0.035,-0.058,0.023,0.041,-0.03,-0.055,-0.08,-0.064,-0.053
-0.049,-0.019,0.031,0.034,-0.04,0.006,0.031,-0.045,-0.084,-0.097,-0.072,-0.056
-0.08,-0.02,0.06,0.05,-0.069,0.019,0.029,-0.017,-0.054,-0.078,-0.059,-0.048
-0.084,-0.005,0.079,0.044,-0.081,0.037,0.031,-0.02,-0.055,-0.087,-0.06,-0.05
-0.03,0.026,0.056,0.002,-0.043,0.041,0.029,-0.017,-0.023,-0.062,-0.037,-0.04
-0.048,0.005,0.053,0.021,-0.05,0.029,0.03,0.0,-0.002,-0.041,-0.018,-0.029
-0.029,0.008,0.038,0.01,-0.034,0.023,0.029,0.011,0.018,-0.024,-0.008,-0.021
0.013,0.051,0.038,-0.032,-0.013,0.045,0.023,0.031,0.048,0.007,0.008,-0.007
-0.008,0.08,0.088,-0.036,-0.048,0.084,0.038,0.064,0.088,0.031,0.027,0.002
-0.001,0.086,0.087,-0.043,-0.044,0.086,0.051,0.086,0.148,0.058,0.043,0.018
0.005,0.119,0.115,-0.062,-0.055,0.117,0.039,0.12,0.205,0.108,0.088,0.057
0.012,0.172,0.16,-0.092,-0.074,0.166,0.036,0.173,0.277,0.163,0.13,0.076
0.043,0.198,0.155,-0.121,-0.056,0.176,0.026,0.221,0.368,0.236,0.179,0.113
0.091,0.256,0.166,-0.174,-0.038,0.211,0.023,0.267,0.452,0.315,0.25,0.171
0.123,0.306,0.183,-0.215,-0.03,0.244,0.012,0.289,0.498,0.362,0.287,0.196
0.108,0.327,0.219,-0.217,-0.056,0.273,-0.006,0.318,0.538,0.403,0.318,0.229
0.125,0.363,0.238,-0.244,-0.057,0.3,0.0,0.316,0.549,0.425,0.348,0.251
0.15,0.37,0.22,-0.26,-0.035,0.295,0.004,0.272,0.501,0.398,0.338,0.242
0.11,0.308,0.198,-0.209,-0.044,0.253,0.032,0.227,0.396,0.322,0.29,0.212
0.093,0.229,0.136,-0.161,-0.022,0.182,0.046,0.155,0.248,0.202,0.202,0.146
0.057,0.142,0.085,-0.1,-0.014,0.113,0.056,0.104,0.122,0.087,0.109,0.079
-0.013,0.058,0.071,-0.022,-0.043,0.064,0.077,0.045,0.017,0.001,0.039,0.022
-0.005,0.019,0.024,-0.007,-0.015,0.021,0.064,-0.009,-0.06,-0.058,-0.005,-0.005
-0.001,-0.005,-0.004,0.003,0.002,-0.005,0.06,-0.027,-0.093,-0.087,-0.03,-0.024
-0.043,-0.037,0.006,0.04,-0.024,-0.015,0.053,-0.065,-0.13,-0.124,-0.059,-0.052
-0.071,-0.057,0.014,0.064,-0.043,-0.021,0.045,-0.066,-0.147,-0.14,-0.074,-0.059
-0.065,-0.068,-0.003,0.067,-0.031,-0.035,0.045,-0.063,-0.148,-0.137,-0.081,-0.07
-0.078,-0.098,-0.02,0.088,-0.029,-0.059,0.044,-0.067,-0.147,-0.137,-0.081,-0.088
-0.07,-0.087,-0.016,0.079,-0.027,-0.051,0.045,-0.064,-0.14,-0.13,-0.076,-0.089
-0.062,-0.067,-0.005,0.065,-0.029,-0.035,0.045,-0.066,-0.139,-0.129,-0.074,-0.082
-0.075,-0.069,0.006,0.072,-0.04,-0.031,0.044,-0.06,-0.134,-0.124,-0.069,-0.079
-0.052,-0.061,-0.009,0.057,-0.021,-0.035,0.039,-0.057,-0.13,-0.12,-0.065,-0.073
-0.051,-0.056,-0.005,0.054,-0.023,-0.031,0.034,-0.053,-0.132,-0.122,-0.067,-0.07
-0.048,-0.049,-0.001,0.049,-0.023,-0.025,0.03,-0.05,-0.136,-0.125,-0.071,-0.075
-0.051,-0.042,0.009,0.047,-0.03,-0.016,0.025,-0.044,-0.135,-0.125,-0.07,-0.075
-0.066,-0.036,0.03,0.051,-0.048,-0.003,0.02,-0.056,-0.139,-0.125,-0.074,-0.075
-0.047,-0.03,0.017,0.039,-0.032,-0.006,0.016,-0.073,-0.141,-0.125,-0.075,-0.075
-0.056,-0.04,0.016,0.047,-0.036,-0.012,0.015,-0.073,-0.14,-0.125,-0.075,-0.075
-0.066,-0.061,0.006,0.064,-0.036,-0.028,0.015,-0.076,-0.148,-0.131,-0.079,-0.077
-0.05,-0.076,-0.026,0.064,-0.012,-0.051,0.015,-0.074,-0.157,-0.138,-0.081,-0.083
-0.059,-0.089,-0.031,0.074,-0.014,-0.059,0.015,-0.079,-0.168,-0.147,-0.079,-0.087
-0.028,-0.056,-0.029,0.042,0.001,-0.042,0.015,-0.096,-0.17,-0.158,-0.086,-0.09
-0.043,-0.066,-0.023,0.055,-0.009,-0.044,0.015,-0.102,-0.172,-0.165,-0.101,-0.095
-0.085,-0.108,-0.023,0.097,-0.031,-0.066,0.015,-0.108,-0.181,-0.168,-0.102,-0.094
-0.076,-0.094,-0.018,0.085,-0.029,-0.056,0.015,-0.11,-0.187,-0.172,-0.11,-0.102
-0.074,-0.097,-0.023,0.085,-0.025,-0.06,0.015,-0.11,-0.197,-0.178,-0.121,-0.116
-0.042,-0.091,-0.048,0.067,0.003,-0.069,0.015,-0.105,-0.2,-0.18,-0.12,-0.114
-0.066,-0.09,-0.024,0.078,-0.021,-0.056,0.011,-0.104,-0.201,-0.181,-0.12,-0.116
-0.058,-0.091,-0.033,0.075,-0.012,-0.062,0.01,-0.121,-0.205,-0.185,-0.117,-0.12
-0.035,-0.085,-0.05,0.06,0.008,-0.067,0.007,-0.126,-0.205,-0.186,-0.114,-0.12
-0.073,-0.111,-0.038,0.092,-0.017,-0.074,0.005,-0.124,-0.206,-0.19,-0.116,-0.118
-0.072,-0.114,-0.041,0.093,-0.015,-0.077,0.005,-0.125,-0.204,-0.188,-0.119,-0.114
-0.075,-0.109,-0.034,0.093,-0.02,-0.071,0.005,-0.125,-0.201,-0.183,-0.12,-0.116
-0.069,-0.105,-0.036,0.088,-0.016,-0.07,0.004,-0.125,-0.198,-0.181,-0.12,-0.111
-0.073,-0.102,-0.029,0.088,-0.022,-0.066,0.005,-0.12,-0.195,-0.175,-0.12,-0.11
-0.071,-0.097,-0.027,0.084,-0.022,-0.062,0.018,-0.115,-0.195,-0.177,-0.121,-0.11
-0.067,-0.087,-0.02,0.077,-0.024,-0.053,0.028,-0.112,-0.188,-0.179,-0.118,-0.101
-0.051,-0.072,-0.02,0.062,-0.015,-0.046,0.023,-0.106,-0.182,-0.167,-0.108,-0.089
-0.053,-0.052,0.001,0.053,-0.027,-0.026,0.027,-0.102,-0.173,-0.155,-0.087,-0.077
-0.083,-0.026,0.057,0.054,-0.07,0.016,0.042,-0.083,-0.16,-0.15,-0.072,-0.068
-0.014,0.052,0.066,-0.019,-0.04,0.058,0.023,-0.065,-0.154,-0.14,-0.069,-0.056
0.002,0.054,0.052,-0.029,-0.025,0.053,-0.005,-0.101,-0.155,-0.133,-0.071,-0.05
-0.024,0.029,0.053,-0.003,-0.039,0.041,-0.016,-0.13,-0.156,-0.133,-0.069,-0.029
-0.018,0.008,0.027,0.005,-0.022,0.018,-0.015,-0.126,-0.151,-0.136,-0.071,-0.034
-0.04,-0.062,-0.021,0.051,-0.009,-0.041,-0.014,-0.133,-0.177,-0.155,-0.09,-0.073
-0.073,-0.104,-0.032,0.089,-0.02,-0.068,-0.016,-0.135,-0.199,-0.17,-0.106,-0.091
-0.095,-0.152,-0.057,0.124,-0.018,-0.105,-0.013,-0.131,-0.216,-0.197,-0.139,-0.118
-0.088,-0.154,-0.066,0.122,-0.011,-0.11,-0.017,-0.13,-0.224,-0.204,-0.145,-0.124
-0.095,-0.162,-0.067,0.129,-0.014,-0.114,-0.007,-0.125,-0.239,-0.219,-0.157,-0.135
-0.068,-0.156,-0.088,0.113,0.01,-0.122,-0.013,-0.124,-0.228,-0.204,-0.148,-0.127
-0.071,-0.156,-0.085,0.114,0.008,-0.121,0.001,-0.12,-0.222,-0.203,-0.148,-0.129
-0.074,-0.151,-0.077,0.113,0.002,-0.114,-0.016,-0.119,-0.23,-0.201,-0.144,-0.123
-0.059,-0.13,-0.071,0.095,0.006,-0.1,-0.017,-0.137,-0.196,-0.178,-0.131,-0.116
-0.084,-0.155,-0.071,0.12,-0.006,-0.112,0.08,-0.012,-0.193,-0.223,-0.174,-0.163
-0.054,-0.083,-0.03,0.069,-0.012,-0.056,0.261,0.349,0.063,-0.075,-0.097,-0.134
0.15,0.275,0.124,-0.213,0.013,0.199,0.351,0.797,0.674,0.454,0.332,0.181
0.473,1.045,0.573,-0.759,-0.05,0.809,-0.106,0.67,1.772,1.664,1.286,0.899
0.365,1.028,0.663,-0.697,-0.15,0.846,-0.467,-0.22,1.429,1.561,1.228,0.86
0.016,0.119,0.104,-0.068,-0.044,0.111,-0.196,-0.383,-0.242,-0.022,0.101,0.079
-0.036,-0.211,-0.175,0.123,0.07,-0.193,0.078,0.183,-0.304,-0.283,-0.184,-0.163
-0.019,-0.144,-0.125,0.082,0.053,-0.134,0.118,0.211,-0.061,-0.118,-0.109,-0.136
0.001,-0.079,-0.08,0.039,0.041,-0.08,0.088,0.073,-0.165,-0.172,-0.12,-0.115
0.009,-0.041,-0.05,0.017,0.03,-0.046,0.076,0.028,-0.087,-0.107,-0.081,-0.096
-0.063,-0.069,-0.006,0.067,-0.028,-0.038,0.059,-0.024,-0.143,-0.149,-0.093,-0.1
-0.074,-0.062,0.012,0.068,-0.042,-0.025,0.042,-0.042,-0.096,-0.109,-0.072,-0.084
-0.056,-0.063,-0.007,0.06,-0.025,-0.035,0.031,-0.061,-0.111,-0.125,-0.082,-0.094
-0.062,-0.059,0.003,0.061,-0.033,-0.028,0.029,-0.044,-0.098,-0.109,-0.071,-0.085
-0.049,-0.057,-0.008,0.054,-0.021,-0.032,0.03,-0.045,-0.076,-0.105,-0.071,-0.086
-0.028,-0.037,-0.009,0.033,-0.009,-0.023,0.025,-0.036,-0.055,-0.102,-0.07,-0.086
-0.002,-0.022,-0.02,0.012,0.009,-0.021,0.025,-0.028,-0.043,-0.086,-0.058,-0.074
-0.026,-0.016,0.011,0.021,-0.018,-0.003,0.025,-0.022,-0.024,-0.067,-0.041,-0.047
-0.036,-0.006,0.03,0.02,-0.033,0.012,0.025,0.001,0.014,-0.041,-0.029,-0.031
-0.021,0.004,0.025,0.008,-0.023,0.014,0.025,0.028,0.056,-0.011,-0.003,-0.021
-0.031,0.022,0.053,0.004,-0.042,0.037,0.025,0.063,0.105,0.023,0.027,-0.007
0.024,0.057,0.033,-0.041,-0.005,0.045,0.025,0.102,0.147,0.05,0.041,0.011
0.059,0.111,0.052,-0.085,0.003,0.081,0.025,0.153,0.223,0.11,0.085,0.04
0.068,0.157,0.089,-0.113,-0.011,0.123,0.02,0.218,0.309,0.181,0.147,0.073
0.121,0.221,0.099,-0.171,0.011,0.16,0.013,0.265,0.394,0.254,0.202,0.12
0.133,0.248,0.116,-0.191,0.008,0.182,0.006,0.3,0.453,0.309,0.247,0.161
0.144,0.274,0.131,-0.209,0.006,0.202,-0.002,0.324,0.497,0.356,0.297,0.192
0.172,0.329,0.157,-0.251,0.007,0.243,-0.01,0.319,0.506,0.378,0.325,0.221
0.161,0.32,0.16,-0.241,0.0,0.24,-0.012,0.29,0.464,0.363,0.325,0.226
0.151,0.282,0.131,-0.217,0.01,0.206,0.007,0.236,0.377,0.302,0.284,0.197
0.123,0.214,0.091,-0.169,0.016,0.152,0.026,0.158,0.234,0.184,0.195,0.126
0.047,0.117,0.069,-0.082,-0.011,0.093,0.032,0.078,0.104,0.078,0.11,0.066
0.025,0.058,0.033,-0.042,-0.005,0.045,0.029,0.024,-0.004,-0.014,0.029,0.021
0.037,0.02,-0.017,-0.028,0.026,0.002,0.023,-0.023,-0.092,-0.097,-0.021,-0.03
-0.007,-0.034,-0.027,0.021,0.01,-0.03,0.02,-0.07,-0.143,-0.14,-0.045,-0.062
-0.042,-0.066,-0.024,0.055,-0.009,-0.045,0.015,-0.088,-0.176,-0.16,-0.073,-0.079
-0.057,-0.082,-0.026,0.07,-0.015,-0.054,0.01,-0.095,-0.193,-0.168,-0.088,-0.082
-0.057,-0.1,-0.043,0.078,-0.007,-0.071,0.015,-0.105,-0.201,-0.179,-0.09,-0.089
-0.048,-0.101,-0.053,0.074,0.003,-0.076,0.023,-0.102,-0.197,-0.178,-0.09,-0.089
-0.033,-0.076,-0.043,0.055,0.006,-0.06,0.02,-0.096,-0.192,-0.171,-0.09,-0.083
-0.031,-0.075,-0.044,0.053,0.007,-0.06,0.018,-0.093,-0.189,-0.169,-0.09,-0.083
-0.039,-0.077,-0.038,0.058,0.0,-0.057,0.015,-0.086,-0.185,-0.164,-0.09,-0.074
-0.041,-0.076,-0.034,0.059,-0.003,-0.055,0.012,-0.086,-0.183,-0.161,-0.087,-0.082
-0.058,-0.082,-0.024,0.07,-0.017,-0.053,0.01,-0.09,-0.179,-0.157,-0.084,-0.096
-0.035,-0.056,-0.021,0.046,-0.007,-0.039,0.007,-0.089,-0.177,-0.154,-0.081,-0.095
0.004,-0.057,-0.061,0.027,0.033,-0.059,0.004,-0.097,-0.174,-0.149,-0.078,-0.093
-0.033,-0.067,-0.034,0.05,0.001,-0.05,0.001,-0.106,-0.176,-0.151,-0.075,-0.091
-0.094,-0.075,0.019,0.084,-0.057,-0.028,-0.001,-0.107,-0.174,-0.149,-0.077,-0.089
-0.072,-0.083,-0.01,0.077,-0.031,-0.046,-0.005,-0.111,-0.177,-0.153,-0.079,-0.093
-0.035,-0.077,-0.042,0.057,0.004,-0.06,-0.004,-0.113,-0.188,-0.165,-0.088,-0.095
-0.027,-0.072,-0.045,0.05,0.01,-0.058,0.0,-0.117,-0.196,-0.166,-0.095,-0.095
-0.048,-0.086,-0.039,0.067,-0.004,-0.062,0.0,-0.128,-0.21,-0.182,-0.101,-0.11
-0.072,-0.11,-0.038,0.091,-0.017,-0.074,0.0,-0.131,-0.217,-0.191,-0.105,-0.12
-0.077,-0.108,-0.03,0.093,-0.023,-0.069,0.0,-0.129,-0.23,-0.192,-0.112,-0.127
-0.064,-0.098,-0.033,0.081,-0.015,-0.065,0.0,-0.145,-0.242,-0.213,-0.127,-0.135
-0.058,-0.104,-0.047,0.081,-0.005,-0.075,-0.004,-0.151,-0.239,-0.222,-0.132,-0.135
-0.093,-0.138,-0.044,0.116,-0.024,-0.091,-0.005,-0.149,-0.24,-0.219,-0.137,-0.138
-0.083,-0.142,-0.059,0.113,-0.012,-0.1,-0.005,-0.15,-0.247,-0.221,-0.141,-0.14
-0.072,-0.138,-0.066,0.105,-0.003,-0.102,-0.005,-0.15,-0.251,-0.219,-0.143,-0.14
-0.094,-0.142,-0.048,0.118,-0.023,-0.095,-0.005,-0.149,-0.249,-0.22,-0.146,-0.14
-0.071,-0.138,-0.067,0.105,-0.002,-0.102,-0.006,-0.162,-0.261,-0.22,-0.149,-0.151
-0.056,-0.139,-0.083,0.098,0.014,-0.111,-0.011,-0.177,-0.266,-0.22,-0.15,-0.157
-0.073,-0.132,-0.058,0.103,-0.007,-0.095,-0.016,-0.173,-0.264,-0.22,-0.153,-0.154
-0.058,-0.132,-0.073,0.095,0.008,-0.102,-0.02,-0.171,-0.269,-0.218,-0.156,-0.156
-0.054,-0.14,-0.086,0.097,0.016,-0.113,-0.026,-0.167,-0.27,-0.229,-0.152,-0.154
-0.063,-0.137,-0.074,0.1,0.006,-0.105,-0.02,-0.166,-0.27,-0.232,-0.146,-0.156
-0.06,-0.131,-0.071,0.096,0.006,-0.101,-0.016,-0.162,-0.263,-0.223,-0.139,-0.152
-0.064,-0.125,-0.06,0.095,-0.001,-0.092,-0.008,-0.16,-0.253,-0.215,-0.133,-0.146
-0.051,-0.111,-0.06,0.081,0.004,-0.085,-0.005,-0.159,-0.243,-0.209,-0.126,-0.141
-0.047,-0.081,-0.035,0.064,-0.006,-0.058,0.005,-0.144,-0.231,-0.193,-0.121,-0.134
-0.061,-0.056,0.005,0.059,-0.033,-0.025,0.037,-0.122,-0.212,-0.175,-0.109,-0.131
-0.056,-0.045,0.012,0.05,-0.033,-0.016,0.021,-0.103,-0.204,-0.174,-0.102,-0.117
-0.013,-0.015,-0.002,0.014,-0.005,-0.009,-0.022,-0.129,-0.205,-0.176,-0.105,-0.106
0.029,0.032,0.003,-0.03,0.013,0.017,-0.033,-0.154,-0.206,-0.179,-0.107,-0.113
0.023,-0.005,-0.028,-0.009,0.025,-0.017,-0.022,-0.149,-0.203,-0.179,-0.109,-0.116
-0.017,-0.083,-0.066,0.05,0.025,-0.075,-0.004,-0.15,-0.208,-0.184,-0.111,-0.121
-0.029,-0.094,-0.065,0.062,0.018,-0.079,-0.014,-0.156,-0.227,-0.192,-0.122,-0.138
-0.041,-0.138,-0.096,0.09,0.028,-0.117,-0.032,-0.165,-0.268,-0.225,-0.156,-0.168
-0.065,-0.154,-0.09,0.11,0.013,-0.122,-0.038,-0.166,-0.271,-0.233,-0.164,-0.174
-0.061,-0.165,-0.104,0.114,0.022,-0.135,-0.032,-0.162,-0.265,-0.231,-0.168,-0.178
-0.058,-0.19,-0.131,0.125,0.037,-0.16,-0.037,-0.174,-0.286,-0.245,-0.175,-0.186
-0.057,-0.176,-0.119,0.117,0.031,-0.147,-0.034,-0.191,-0.277,-0.244,-0.179,-0.193
-0.043,-0.175,-0.132,0.109,0.045,-0.153,-0.034,-0.18,-0.295,-0.251,-0.182,-0.186
-0.04,-0.153,-0.113,0.097,0.037,-0.133,-0.025,-0.165,-0.228,-0.212,-0.145,-0.154
-0.047,-0.172,-0.124,0.11,0.039,-0.148,0.036,-0.098,-0.251,-0.271,-0.194,-0.202
-0.057,-0.148,-0.091,0.103,0.018,-0.12,0.183,0.198,-0.088,-0.178,-0.173,-0.217
0.086,0.1,0.014,-0.093,0.036,0.057,0.355,0.687,0.4,0.204,0.122,0.0
0.435,0.821,0.386,-0.628,0.025,0.603,0.031,0.812,1.478,1.336,1.033,0.711
0.436,1.118,0.682,-0.777,-0.123,0.9,-0.408,0.035,1.751,1.8,1.392,0.971
0.071,0.301,0.23,-0.186,-0.079,0.265,-0.28,-0.494,0.04,0.27,0.321,0.206
-0.066,-0.255,-0.189,0.161,0.062,-0.222,-0.008,-0.023,-0.495,-0.386,-0.225,-0.203
-0.036,-0.202,-0.166,0.119,0.065,-0.184,0.097,0.176,-0.109,-0.145,-0.136,-0.173
-0.005,-0.134,-0.129,0.07,0.062,-0.131,0.075,0.039,-0.229,-0.227,-0.157,-0.175
-0.036,-0.116,-0.08,0.076,0.022,-0.098,0.038,0.006,-0.147,-0.162,-0.106,-0.148
-0.088,-0.139,-0.051,0.114,-0.018,-0.094,0.035,-0.064,-0.19,-0.191,-0.123,-0.154
-0.061,-0.123,-0.062,0.092,0.001,-0.092,0.029,-0.08,-0.165,-0.154,-0.108,-0.135
-0.056,-0.128,-0.073,0.092,0.009,-0.1,0.007,-0.094,-0.168,-0.15,-0.109,-0.134
-0.052,-0.12,-0.069,0.086,0.009,-0.094,0.017,-0.102,-0.159,-0.144,-0.107,-0.125
-0.032,-0.099,-0.067,0.066,0.018,-0.083,0.041,-0.091,-0.116,-0.121,-0.092,-0.118
-0.031,-0.096,-0.064,0.064,0.017,-0.08,0.031,-0.078,-0.103,-0.116,-0.075,-0.114
-0.027,-0.076,-0.049,0.052,0.011,-0.062,0.032,-0.062,-0.068,-0.088,-0.057,-0.105
0.007,-0.067,-0.074,0.031,0.04,-0.07,0.027,-0.045,-0.063,-0.081,-0.05,-0.101
0.015,-0.048,-0.063,0.017,0.039,-0.055,0.025,-0.018,-0.024,-0.054,-0.032,-0.089
0.013,-0.027,-0.041,0.007,0.027,-0.034,0.023,0.02,0.016,-0.025,-0.019,-0.08
0.063,-0.002,-0.065,-0.03,0.064,-0.033,0.014,0.035,0.062,0.008,0.002,-0.068
0.059,0.021,-0.038,-0.04,0.048,-0.008,0.008,0.074,0.118,0.049,0.038,-0.044
0.043,0.02,-0.023,-0.032,0.033,-0.002,0.001,0.129,0.187,0.104,0.075,-0.008
0.102,0.083,-0.019,-0.092,0.06,0.032,-0.009,0.186,0.267,0.172,0.131,0.042
0.101,0.135,0.035,-0.118,0.033,0.085,-0.01,0.25,0.352,0.248,0.195,0.079
0.132,0.173,0.041,-0.153,0.045,0.107,-0.02,0.279,0.412,0.304,0.238,0.115
0.176,0.225,0.049,-0.201,0.064,0.136,-0.033,0.311,0.459,0.357,0.284,0.159
0.17,0.241,0.071,-0.206,0.05,0.156,-0.021,0.319,0.48,0.39,0.317,0.193
0.225,0.276,0.051,-0.251,0.087,0.163,-0.014,0.292,0.462,0.386,0.325,0.206
0.19,0.24,0.049,-0.215,0.07,0.144,-0.003,0.236,0.388,0.342,0.296,0.178
0.148,0.166,0.019,-0.157,0.064,0.092,0.009,0.157,0.258,0.228,0.221,0.124
0.096,0.082,-0.014,-0.089,0.055,0.034,0.021,0.075,0.13,0.116,0.14,0.06
0.033,0.009,-0.024,-0.021,0.029,-0.007,0.044,0.012,0.008,0.026,0.062,0.0
0.05,-0.029,-0.079,-0.01,0.064,-0.053,0.047,-0.041,-0.083,-0.055,-0.007,-0.049
0.024,-0.082,-0.106,0.029,0.065,-0.094,0.034,-0.088,-0.138,-0.101,-0.045,-0.082
0.002,-0.106,-0.107,0.052,0.055,-0.106,0.027,-0.103,-0.179,-0.13,-0.077,-0.101
-0.007,-0.114,-0.107,0.06,0.05,-0.11,0.022,-0.118,-0.196,-0.15,-0.066,-0.112
-0.034,-0.129,-0.095,0.082,0.031,-0.112,0.019,-0.118,-0.195,-0.159,-0.094,-0.114
-0.046,-0.139,-0.093,0.092,0.024,-0.116,0.016,-0.11,-0.19,-0.159,-0.057,-0.112
-0.014,-0.126,-0.112,0.07,0.049,-0.119,0.01,-0.108,-0.18,-0.15,0.064,-0.109
-0.019,-0.147,-0.128,0.084,0.055,-0.138,0.012,-0.102,-0.17,-0.14,0.011,-0.11
0.026,-0.097,-0.122,0.036,0.074,-0.109,0.022,-0.1,-0.16,-0.13,-0.009,-0.105
0.121,-0.006,-0.127,-0.057,0.124,-0.067,0.02,-0.107,-0.154,-0.121,0.008,-0.105
0.149,0.027,-0.122,-0.088,0.135,-0.047,0.02,-0.103,-0.156,-0.116,-0.007,-0.104
0.176,0.048,-0.129,-0.111,0.152,-0.04,0.018,-0.109,-0.152,-0.113,0.006,-0.098
0.123,0.015,-0.108,-0.069,0.116,-0.046,0.014,-0.12,-0.149,-0.107,-0.005,-0.094
0.074,-0.006,-0.08,-0.033,0.077,-0.042,0.016,-0.104,-0.15,-0.106,0.004,-0.09
