-0.21,0.021,0.231,0.095,-0.221,0.125,0.203,0.165,-0.273,-0.331,-0.269,-0.207
-0.028,0.107,0.135,-0.04,-0.082,0.121,0.025,0.25,-0.23,-0.256,-0.191,-0.127
0.498,0.844,0.345,-0.671,0.076,0.594,-0.746,-0.623,0.198,0.339,0.448,0.473
0.611,1.615,1.004,-1.113,-0.197,1.31,-1.12,-1.508,1.115,1.304,1.342,1.194
0.46,1.041,0.582,-0.751,-0.061,0.811,-0.857,-1.167,0.734,0.986,1.019,0.902
0.025,0.197,0.172,-0.111,-0.074,0.184,-0.549,-0.842,-0.266,-0.035,0.11,0.169
-0.13,0.07,0.2,0.029,-0.165,0.135,-0.292,-0.436,-0.31,-0.218,-0.126,-0.04
-0.102,0.091,0.193,0.005,-0.148,0.142,-0.203,-0.252,-0.24,-0.171,-0.1,-0.018
-0.151,0.082,0.233,0.035,-0.193,0.157,-0.171,-0.239,-0.244,-0.194,-0.109,-0.028
-0.122,0.087,0.209,0.017,-0.166,0.148,-0.153,-0.178,-0.226,-0.177,-0.097,-0.023
-0.138,0.083,0.221,0.027,-0.18,0.152,-0.157,-0.195,-0.244,-0.191,-0.099,-0.026
-0.119,0.091,0.209,0.014,-0.164,0.15,-0.144,-0.156,-0.227,-0.18,-0.092,-0.025
-0.112,0.098,0.21,0.007,-0.161,0.154,-0.144,-0.172,-0.241,-0.187,-0.091,-0.025
-0.108,0.101,0.208,0.003,-0.158,0.154,-0.134,-0.151,-0.229,-0.179,-0.09,-0.025
-0.103,0.1,0.203,0.001,-0.153,0.151,-0.133,-0.148,-0.228,-0.177,-0.088,-0.025
-0.102,0.105,0.207,-0.002,-0.155,0.156,-0.127,-0.134,-0.218,-0.174,-0.085,-0.025
-0.095,0.105,0.2,-0.005,-0.148,0.152,-0.125,-0.121,-0.212,-0.168,-0.084,-0.024
-0.094,0.106,0.2,-0.006,-0.147,0.153,-0.121,-0.109,-0.206,-0.166,-0.082,-0.021
-0.089,0.111,0.2,-0.011,-0.144,0.155,-0.117,-0.092,-0.197,-0.161,-0.076,-0.016
-0.111,0.109,0.22,0.001,-0.165,0.164,-0.114,-0.084,-0.191,-0.157,-0.075,-0.012
-0.113,0.113,0.226,-0.001,-0.17,0.169,-0.108,-0.071,-0.181,-0.151,-0.07,-0.007
-0.103,0.114,0.218,-0.005,-0.161,0.166,-0.101,-0.054,-0.174,-0.146,-0.067,-0.003
-0.102,0.116,0.218,-0.007,-0.161,0.167,-0.094,-0.031,-0.167,-0.14,-0.064,0.002
-0.102,0.109,0.211,-0.004,-0.157,0.16,-0.087,-0.005,-0.162,-0.136,-0.056,0.005
-0.1,0.11,0.209,-0.005,-0.155,0.159,-0.081,0.026,-0.143,-0.126,-0.048,0.012
-0.099,0.133,0.232,-0.017,-0.166,0.182,-0.073,0.052,-0.116,-0.114,-0.04,0.014
-0.101,0.142,0.243,-0.02,-0.172,0.192,-0.061,0.093,-0.099,-0.101,-0.033,0.021
-0.09,0.147,0.237,-0.028,-0.164,0.192,-0.05,0.136,-0.083,-0.087,-0.024,0.023
-0.082,0.161,0.243,-0.039,-0.163,0.201,-0.033,0.178,-0.059,-0.073,-0.011,0.029
-0.055,0.18,0.236,-0.062,-0.146,0.208,-0.009,0.244,-0.026,-0.053,0.0,0.046
-0.044,0.208,0.252,-0.082,-0.148,0.23,0.014,0.304,0.008,-0.026,0.015,0.055
-0.048,0.227,0.275,-0.09,-0.161,0.25,0.023,0.358,0.038,-0.01,0.028,0.067
-0.022,0.248,0.27,-0.113,-0.146,0.259,0.044,0.411,0.066,0.016,0.043,0.073
-0.016,0.273,0.289,-0.129,-0.152,0.281,0.063,0.458,0.089,0.041,0.06,0.082
-0.016,0.278,0.294,-0.131,-0.155,0.286,0.055,0.488,0.104,0.046,0.07,0.091
-0.013,0.27,0.283,-0.129,-0.149,0.276,0.05,0.493,0.101,0.061,0.079,0.1
-0.017,0.264,0.282,-0.124,-0.15,0.273,0.042,0.486,0.094,0.06,0.08,0.112
-0.016,0.257,0.273,-0.121,-0.145,0.265,0.037,0.446,0.089,0.048,0.08,0.109
-0.026,0.25,0.277,-0.113,-0.152,0.263,0.027,0.373,0.063,0.042,0.08,0.107
-0.022,0.245,0.267,-0.112,-0.145,0.256,-0.012,0.286,0.034,0.028,0.08,0.104
-0.005,0.226,0.231,-0.111,-0.118,0.228,-0.042,0.199,0.012,0.016,0.079,0.101
-0.018,0.194,0.212,-0.088,-0.116,0.203,-0.066,0.111,-0.025,0.001,0.064,0.1
-0.048,0.161,0.208,-0.057,-0.128,0.184,-0.087,0.034,-0.053,-0.014,0.048,0.094
-0.062,0.139,0.201,-0.039,-0.132,0.17,-0.099,-0.017,-0.076,-0.032,0.034,0.089
-0.058,0.13,0.188,-0.036,-0.123,0.159,-0.099,-0.064,-0.097,-0.05,0.025,0.084
-0.063,0.117,0.18,-0.027,-0.121,0.148,-0.113,-0.087,-0.107,-0.058,0.014,0.078
-0.072,0.108,0.18,-0.018,-0.126,0.143,-0.127,-0.096,-0.117,-0.067,0.007,0.072
-0.076,0.102,0.178,-0.014,-0.127,0.14,-0.117,-0.11,-0.116,-0.066,0.01,0.07
-0.076,0.097,0.174,-0.011,-0.125,0.135,-0.115,-0.107,-0.111,-0.065,0.01,0.07
-0.082,0.094,0.176,-0.006,-0.129,0.135,-0.11,-0.103,-0.109,-0.064,0.01,0.07
-0.083,0.088,0.171,-0.003,-0.127,0.129,-0.105,-0.1,-0.104,-0.06,0.01,0.07
-0.083,0.085,0.168,-0.001,-0.126,0.126,-0.102,-0.095,-0.101,-0.06,0.01,0.07
-0.083,0.09,0.173,-0.004,-0.128,0.131,-0.097,-0.093,-0.098,-0.06,0.006,0.07
-0.046,0.098,0.144,-0.026,-0.095,0.121,-0.094,-0.083,-0.093,-0.06,0.005,0.075
-0.062,0.098,0.159,-0.018,-0.111,0.128,-0.091,-0.078,-0.09,-0.06,0.005,0.075
-0.099,0.094,0.193,0.002,-0.146,0.143,-0.086,-0.07,-0.087,-0.06,0.001,0.075
-0.084,0.095,0.179,-0.006,-0.132,0.137,-0.087,-0.066,-0.082,-0.06,-0.001,0.075
-0.079,0.095,0.173,-0.008,-0.127,0.134,-0.098,-0.063,-0.08,-0.06,0.001,0.075
-0.075,0.095,0.17,-0.011,-0.123,0.132,-0.103,-0.06,-0.073,-0.055,0.007,0.073
-0.061,0.095,0.156,-0.017,-0.109,0.125,-0.104,-0.059,-0.076,-0.055,0.013,0.069
-0.075,0.09,0.165,-0.008,-0.12,0.127,-0.1,-0.052,-0.086,-0.054,0.019,0.07
-0.092,0.085,0.177,0.003,-0.135,0.131,-0.095,-0.074,-0.084,-0.05,0.017,0.066
-0.088,0.08,0.168,0.003,-0.128,0.124,-0.093,-0.093,-0.085,-0.049,0.011,0.065
-0.096,0.076,0.172,0.009,-0.134,0.124,-0.088,-0.088,-0.084,-0.054,0.007,0.065
-0.089,0.071,0.16,0.009,-0.125,0.116,-0.085,-0.09,-0.087,-0.061,0.003,0.06
-0.085,0.068,0.152,0.008,-0.119,0.109,-0.093,-0.09,-0.095,-0.06,-0.003,0.06
-0.102,0.063,0.166,0.019,-0.134,0.114,-0.096,-0.088,-0.095,-0.06,-0.004,0.06
-0.1,0.06,0.16,0.02,-0.13,0.11,-0.09,-0.101,-0.095,-0.06,0.0,0.06
-0.088,0.057,0.145,0.016,-0.117,0.1,-0.088,-0.111,-0.095,-0.06,0.0,0.06
-0.086,0.052,0.138,0.017,-0.112,0.095,-0.083,-0.105,-0.094,-0.058,0.004,0.06
-0.092,0.049,0.141,0.021,-0.117,0.095,-0.08,-0.103,-0.096,-0.054,0.005,0.06
-0.091,0.046,0.137,0.023,-0.114,0.091,-0.088,-0.098,-0.1,-0.056,0.001,0.06
-0.084,0.045,0.128,0.019,-0.106,0.086,-0.091,-0.095,-0.1,-0.051,0.0,0.06
-0.083,0.045,0.129,0.019,-0.107,0.087,-0.09,-0.099,-0.1,-0.05,0.0,0.06
-0.086,0.044,0.131,0.021,-0.109,0.087,-0.088,-0.1,-0.1,-0.049,0.0,0.06
-0.083,0.046,0.129,0.019,-0.107,0.087,-0.084,-0.1,-0.1,-0.054,-0.001,0.06
-0.089,0.042,0.131,0.023,-0.11,0.086,-0.086,-0.1,-0.1,-0.062,0.002,0.06
-0.091,0.036,0.127,0.027,-0.109,0.082,-0.081,-0.1,-0.1,-0.057,0.005,0.06
-0.087,0.031,0.118,0.028,-0.103,0.074,-0.078,-0.1,-0.1,-0.055,0.005,0.06
-0.093,0.026,0.119,0.033,-0.106,0.072,-0.074,-0.1,-0.1,-0.052,0.005,0.06
-0.101,0.02,0.121,0.041,-0.111,0.07,-0.071,-0.103,-0.1,-0.049,0.005,0.057
-0.102,0.015,0.117,0.043,-0.11,0.066,-0.066,-0.106,-0.099,-0.055,0.005,0.055
-0.083,0.026,0.108,0.028,-0.096,0.067,-0.065,-0.109,-0.093,-0.06,0.001,0.052
-0.078,0.031,0.109,0.024,-0.094,0.07,-0.087,-0.111,-0.087,-0.06,0.0,0.049
-0.088,0.031,0.119,0.029,-0.104,0.074,-0.096,-0.115,-0.082,-0.06,0.0,0.046
-0.081,0.036,0.116,0.022,-0.099,0.076,-0.088,-0.114,-0.077,-0.06,-0.004,0.045
-0.07,0.034,0.104,0.018,-0.088,0.069,-0.085,-0.108,-0.07,-0.06,-0.006,0.055
-0.072,0.031,0.103,0.02,-0.088,0.066,-0.08,-0.102,-0.077,-0.059,-0.003,0.056
-0.084,0.026,0.11,0.028,-0.097,0.068,-0.075,-0.097,-0.087,-0.054,0.0,0.051
-0.083,0.024,0.107,0.03,-0.095,0.065,-0.072,-0.091,-0.082,-0.051,0.003,0.049
-0.079,0.019,0.099,0.03,-0.089,0.059,-0.069,-0.086,-0.08,-0.048,0.005,0.044
-0.082,0.016,0.098,0.033,-0.091,0.057,-0.066,-0.089,-0.077,-0.043,0.008,0.041
-0.092,0.012,0.105,0.04,-0.099,0.058,-0.064,-0.091,-0.073,-0.04,0.011,0.04
-0.093,0.01,0.103,0.042,-0.098,0.056,-0.059,-0.09,-0.081,-0.044,0.006,0.04
-0.087,0.01,0.097,0.038,-0.092,0.053,-0.063,-0.09,-0.09,-0.046,0.005,0.04
-0.096,0.01,0.106,0.043,-0.101,0.058,-0.071,-0.09,-0.082,-0.042,0.005,0.04
-0.092,0.01,0.101,0.041,-0.096,0.055,-0.066,-0.09,-0.075,-0.04,0.0,0.04
-0.082,0.01,0.093,0.036,-0.088,0.051,-0.061,-0.087,-0.07,-0.036,0.0,0.04
-0.082,0.015,0.096,0.033,-0.089,0.055,-0.058,-0.084,-0.06,-0.034,-0.001,0.045
-0.077,0.015,0.092,0.031,-0.085,0.053,-0.051,-0.081,-0.071,-0.044,-0.006,0.045
-0.071,0.016,0.087,0.027,-0.08,0.051,-0.051,-0.078,-0.081,-0.046,-0.009,0.045
-0.062,0.02,0.083,0.021,-0.073,0.051,-0.063,-0.075,-0.075,-0.04,-0.012,0.045
-0.058,0.02,0.078,0.019,-0.068,0.049,-0.065,-0.076,-0.073,-0.038,-0.017,0.045
-0.056,0.018,0.074,0.019,-0.065,0.045,-0.058,-0.083,-0.068,-0.033,-0.02,0.043
-0.055,0.014,0.069,0.02,-0.063,0.041,-0.055,-0.081,-0.064,-0.03,-0.017,0.039
-0.048,0.015,0.064,0.016,-0.056,0.039,-0.05,-0.08,-0.07,-0.034,-0.012,0.04
-0.044,0.011,0.055,0.016,-0.05,0.033,-0.045,-0.08,-0.075,-0.035,-0.009,0.036
-0.039,0.01,0.049,0.015,-0.044,0.029,-0.052,-0.075,-0.075,-0.035,-0.006,0.035
-0.032,0.01,0.042,0.011,-0.037,0.026,-0.058,-0.075,-0.075,-0.035,-0.001,0.035
-0.027,0.005,0.032,0.011,-0.03,0.018,-0.053,-0.074,-0.075,-0.035,0.0,0.035
-0.038,0.005,0.043,0.016,-0.041,0.024,-0.051,-0.07,-0.075,-0.034,0.0,0.035
-0.054,0.003,0.057,0.025,-0.056,0.03,-0.048,-0.07,-0.071,-0.03,0.0,0.035
-0.054,0.0,0.054,0.027,-0.054,0.027,-0.045,-0.07,-0.069,-0.03,0.0,0.035
-0.053,0.0,0.053,0.027,-0.053,0.026,-0.044,-0.07,-0.07,-0.03,0.0,0.035
-0.047,0.003,0.05,0.022,-0.049,0.026,-0.04,-0.07,-0.07,-0.03,0.0,0.037
-0.041,0.009,0.05,0.016,-0.046,0.029,-0.04,-0.066,-0.07,-0.03,-0.004,0.04
-0.041,0.006,0.047,0.017,-0.044,0.026,-0.038,-0.065,-0.069,-0.03,-0.005,0.04
-0.042,0.001,0.043,0.02,-0.043,0.022,-0.034,-0.064,-0.065,-0.03,-0.005,0.04
-0.043,-0.001,0.042,0.022,-0.042,0.02,-0.036,-0.061,-0.065,-0.03,-0.01,0.04
-0.043,-0.005,0.038,0.024,-0.04,0.016,-0.031,-0.058,-0.065,-0.03,-0.01,0.04
-0.046,-0.01,0.036,0.027,-0.041,0.012,-0.024,-0.065,-0.065,-0.03,-0.009,0.04
-0.042,-0.007,0.035,0.024,-0.038,0.013,-0.018,-0.076,-0.065,-0.029,-0.003,0.04
-0.043,0.001,0.044,0.021,-0.043,0.022,-0.01,-0.07,-0.062,-0.023,0.003,0.04
-0.032,0.008,0.041,0.012,-0.037,0.024,-0.004,-0.066,-0.056,-0.018,0.007,0.039
-0.016,0.017,0.033,-0.001,-0.025,0.025,0.002,-0.061,-0.052,-0.013,0.014,0.04
-0.026,0.024,0.05,0.001,-0.039,0.037,0.006,-0.046,-0.047,-0.006,0.018,0.041
-0.022,0.035,0.058,-0.007,-0.04,0.047,0.026,-0.033,-0.042,-0.002,0.024,0.047
-0.025,0.049,0.074,-0.012,-0.05,0.062,0.042,-0.023,-0.039,0.005,0.027,0.053
-0.021,0.069,0.089,-0.024,-0.055,0.079,0.031,-0.01,-0.04,0.015,0.034,0.058
-0.006,0.095,0.101,-0.044,-0.054,0.098,0.025,-0.012,-0.04,0.025,0.044,0.083
-0.018,0.101,0.12,-0.042,-0.069,0.11,0.017,-0.03,-0.039,0.033,0.047,0.094
-0.009,0.094,0.104,-0.043,-0.057,0.099,0.012,-0.039,-0.042,0.025,0.043,0.087
0.018,0.065,0.047,-0.042,-0.015,0.056,0.008,-0.027,-0.037,0.015,0.032,0.082
-0.003,0.025,0.028,-0.012,-0.015,0.027,-0.001,-0.038,-0.047,0.006,0.023,0.069
-0.043,-0.012,0.031,0.027,-0.037,0.009,-0.001,-0.045,-0.055,0.002,0.016,0.047
-0.037,-0.032,0.005,0.034,-0.021,-0.013,-0.005,-0.048,-0.072,-0.003,0.009,0.039
-0.047,-0.027,0.02,0.037,-0.034,-0.003,0.008,-0.062,-0.068,-0.009,0.003,0.034
-0.015,-0.045,-0.03,0.03,0.008,-0.037,0.002,-0.039,-0.071,-0.01,-0.004,0.03
-0.022,-0.036,-0.014,0.029,-0.004,-0.024,0.019,-0.055,-0.081,-0.022,-0.011,0.025
0.017,-0.029,-0.045,0.006,0.031,-0.037,0.001,-0.037,-0.064,-0.019,-0.024,0.022
-0.066,-0.065,0.001,0.065,-0.033,-0.032,0.133,0.037,-0.098,-0.078,-0.078,-0.019
-0.155,-0.175,-0.019,0.165,-0.068,-0.097,0.418,0.484,-0.081,-0.172,-0.201,-0.16
0.301,0.207,-0.094,-0.254,0.197,0.057,-0.094,0.206,0.046,0.086,0.101,0.135
0.61,1.201,0.59,-0.906,0.01,0.895,-0.814,-0.962,0.9,1.052,1.041,0.947
0.587,1.251,0.664,-0.919,-0.038,0.957,-0.714,-1.062,1.371,1.467,1.324,1.124
0.256,0.306,0.05,-0.281,0.103,0.178,-0.39,-0.736,0.331,0.507,0.506,0.468
-0.103,-0.164,-0.061,0.134,-0.021,-0.113,-0.167,-0.448,-0.231,-0.117,-0.067,0.001
-0.052,-0.117,-0.065,0.085,0.007,-0.091,-0.032,-0.102,-0.114,-0.061,-0.083,-0.028
-0.056,-0.092,-0.037,0.074,-0.009,-0.064,0.037,-0.054,-0.128,-0.073,-0.081,-0.023
-0.057,-0.096,-0.039,0.077,-0.009,-0.067,0.06,0.003,-0.1,-0.061,-0.078,-0.027
-0.053,-0.089,-0.035,0.071,-0.009,-0.062,0.051,-0.005,-0.116,-0.067,-0.072,-0.023
-0.063,-0.089,-0.026,0.076,-0.018,-0.057,0.063,0.01,-0.101,-0.065,-0.071,-0.027
-0.039,-0.084,-0.045,0.062,0.004,-0.064,0.058,0.019,-0.103,-0.064,-0.065,-0.02
-0.051,-0.083,-0.032,0.067,-0.009,-0.058,0.065,0.02,-0.098,-0.065,-0.065,-0.02
-0.049,-0.074,-0.024,0.062,-0.012,-0.049,0.075,0.036,-0.093,-0.057,-0.06,-0.015
-0.058,-0.066,-0.009,0.062,-0.024,-0.037,0.08,0.025,-0.102,-0.059,-0.059,-0.014
-0.065,-0.059,0.006,0.062,-0.035,-0.026,0.08,0.044,-0.098,-0.053,-0.055,-0.01
-0.065,-0.054,0.012,0.059,-0.038,-0.021,0.082,0.054,-0.102,-0.052,-0.054,-0.011
-0.058,-0.049,0.009,0.053,-0.033,-0.02,0.086,0.062,-0.099,-0.05,-0.05,-0.016
-0.044,-0.043,0.002,0.043,-0.023,-0.02,0.084,0.073,-0.101,-0.054,-0.05,-0.015
-0.04,-0.038,0.003,0.039,-0.021,-0.017,0.089,0.08,-0.097,-0.051,-0.05,-0.015
-0.066,-0.032,0.034,0.049,-0.05,0.001,0.092,0.093,-0.087,-0.044,-0.05,-0.015
-0.07,-0.027,0.043,0.048,-0.056,0.008,0.095,0.102,-0.078,-0.041,-0.05,-0.012
-0.057,-0.021,0.037,0.039,-0.047,0.008,0.099,0.117,-0.064,-0.036,-0.046,-0.007
-0.052,-0.016,0.036,0.033,-0.044,0.01,0.101,0.142,-0.05,-0.033,-0.04,-0.005
-0.041,-0.008,0.033,0.024,-0.037,0.013,0.108,0.173,-0.037,-0.026,-0.033,-0.001
-0.029,0.002,0.03,0.013,-0.03,0.016,0.113,0.203,-0.023,-0.015,-0.026,0.004
0.0,0.017,0.016,-0.009,-0.008,0.016,0.12,0.235,-0.003,-0.002,-0.019,0.006
0.004,0.036,0.033,-0.02,-0.015,0.034,0.13,0.277,0.027,0.01,-0.014,0.012
-0.012,0.061,0.072,-0.025,-0.042,0.066,0.14,0.32,0.05,0.021,-0.005,0.018
0.011,0.087,0.076,-0.05,-0.033,0.082,0.152,0.369,0.079,0.037,0.005,0.023
0.031,0.103,0.072,-0.068,-0.021,0.088,0.164,0.428,0.114,0.055,0.015,0.029
0.04,0.125,0.085,-0.083,-0.023,0.105,0.181,0.487,0.145,0.079,0.027,0.034
0.06,0.156,0.096,-0.109,-0.018,0.126,0.194,0.537,0.173,0.099,0.041,0.039
0.046,0.173,0.128,-0.11,-0.041,0.15,0.207,0.566,0.19,0.107,0.05,0.041
0.039,0.185,0.147,-0.112,-0.054,0.166,0.215,0.575,0.192,0.105,0.066,0.05
0.061,0.195,0.134,-0.128,-0.037,0.164,0.216,0.582,0.183,0.097,0.078,0.06
0.061,0.191,0.13,-0.126,-0.035,0.161,0.209,0.559,0.179,0.091,0.071,0.068
0.063,0.185,0.122,-0.125,-0.029,0.153,0.18,0.503,0.16,0.084,0.064,0.074
0.066,0.183,0.116,-0.125,-0.025,0.149,0.145,0.431,0.123,0.078,0.057,0.071
0.061,0.172,0.111,-0.117,-0.025,0.142,0.106,0.333,0.085,0.071,0.049,0.062
0.038,0.142,0.104,-0.09,-0.033,0.123,0.07,0.234,0.053,0.059,0.043,0.056
0.012,0.11,0.098,-0.061,-0.043,0.104,0.053,0.151,0.031,0.043,0.034,0.049
0.022,0.088,0.065,-0.055,-0.022,0.076,0.049,0.077,0.003,0.023,0.022,0.033
0.03,0.07,0.04,-0.05,-0.005,0.055,0.044,0.021,-0.027,0.009,0.01,0.019
0.015,0.054,0.038,-0.035,-0.012,0.046,0.037,-0.005,-0.048,-0.002,0.001,0.013
0.011,0.045,0.034,-0.028,-0.012,0.039,0.033,-0.025,-0.057,-0.013,-0.006,0.006
0.013,0.044,0.031,-0.029,-0.009,0.037,0.027,-0.051,-0.062,-0.02,-0.013,-0.002
0.014,0.04,0.026,-0.027,-0.006,0.032,0.025,-0.051,-0.062,-0.031,-0.021,-0.009
0.012,0.038,0.026,-0.026,-0.007,0.032,0.025,-0.05,-0.059,-0.033,-0.028,-0.015
-0.011,0.034,0.045,-0.012,-0.029,0.04,0.025,-0.05,-0.06,-0.029,-0.027,-0.015
-0.019,0.037,0.057,-0.01,-0.038,0.047,0.025,-0.044,-0.055,-0.03,-0.024,-0.015
-0.013,0.041,0.054,-0.014,-0.034,0.047,0.024,-0.046,-0.055,-0.026,-0.021,-0.015
-0.017,0.038,0.055,-0.011,-0.036,0.046,0.021,-0.042,-0.054,-0.025,-0.018,-0.015
0.001,0.056,0.055,-0.029,-0.027,0.055,0.018,-0.04,-0.05,-0.025,-0.015,-0.015
0.012,0.067,0.055,-0.04,-0.022,0.061,0.015,-0.037,-0.05,-0.025,-0.016,-0.011
0.012,0.064,0.051,-0.038,-0.02,0.057,0.012,-0.034,-0.05,-0.025,-0.021,-0.01
0.016,0.065,0.049,-0.041,-0.017,0.057,0.01,-0.031,-0.05,-0.025,-0.019,-0.01
0.014,0.065,0.051,-0.04,-0.019,0.057,0.008,-0.029,-0.05,-0.026,-0.023,-0.01
0.015,0.065,0.049,-0.04,-0.017,0.056,0.004,-0.038,-0.054,-0.024,-0.025,-0.01
0.01,0.061,0.051,-0.035,-0.021,0.056,0.005,-0.034,-0.061,-0.026,-0.025,-0.011
0.008,0.056,0.048,-0.032,-0.021,0.052,0.005,-0.042,-0.066,-0.024,-0.028,-0.017
-0.001,0.054,0.055,-0.026,-0.029,0.054,0.005,-0.055,-0.071,-0.027,-0.032,-0.023
-0.017,0.049,0.066,-0.017,-0.041,0.057,0.005,-0.058,-0.074,-0.047,-0.037,-0.029
-0.016,0.045,0.061,-0.015,-0.039,0.053,0.0,-0.077,-0.079,-0.051,-0.04,-0.034
-0.012,0.047,0.058,-0.018,-0.035,0.052,0.0,-0.085,-0.082,-0.049,-0.04,-0.035
-0.008,0.046,0.055,-0.019,-0.032,0.05,0.0,-0.088,-0.087,-0.055,-0.04,-0.035
-0.006,0.044,0.05,-0.019,-0.029,0.047,0.0,-0.093,-0.09,-0.054,-0.04,-0.035
-0.002,0.045,0.048,-0.022,-0.025,0.046,0.0,-0.095,-0.093,-0.057,-0.04,-0.035
0.0,0.045,0.044,-0.023,-0.023,0.044,0.0,-0.1,-0.097,-0.06,-0.044,-0.034
0.0,0.046,0.045,-0.023,-0.023,0.045,0.0,-0.1,-0.1,-0.06,-0.045,-0.037
-0.002,0.042,0.045,-0.021,-0.024,0.043,0.0,-0.1,-0.104,-0.06,-0.045,-0.04
-0.006,0.04,0.045,-0.017,-0.025,0.042,0.0,-0.098,-0.105,-0.064,-0.05,-0.042
-0.004,0.04,0.045,-0.018,-0.024,0.042,0.0,-0.094,-0.105,-0.065,-0.05,-0.046
-0.004,0.036,0.04,-0.016,-0.023,0.038,0.001,-0.096,-0.105,-0.065,-0.05,-0.041
-0.005,0.035,0.04,-0.015,-0.023,0.037,0.005,-0.094,-0.105,-0.07,-0.05,-0.04
-0.005,0.035,0.04,-0.015,-0.023,0.037,0.005,-0.096,-0.105,-0.07,-0.05,-0.04
-0.005,0.035,0.04,-0.015,-0.023,0.037,0.007,-0.112,-0.105,-0.07,-0.05,-0.035
-0.005,0.035,0.04,-0.015,-0.023,0.037,0.011,-0.116,-0.105,-0.07,-0.05,-0.034
-0.003,0.035,0.038,-0.016,-0.021,0.036,0.013,-0.114,-0.105,-0.07,-0.05,-0.036
0.001,0.035,0.034,-0.018,-0.017,0.035,0.016,-0.115,-0.105,-0.07,-0.054,-0.04
-0.001,0.035,0.036,-0.018,-0.019,0.036,0.02,-0.115,-0.105,-0.07,-0.055,-0.04
-0.013,0.035,0.047,-0.011,-0.031,0.041,0.02,-0.123,-0.109,-0.07,-0.055,-0.04
-0.016,0.035,0.051,-0.01,-0.034,0.043,0.016,-0.128,-0.11,-0.073,-0.055,-0.04
-0.01,0.039,0.049,-0.015,-0.029,0.044,0.013,-0.131,-0.11,-0.077,-0.055,-0.04
-0.01,0.04,0.051,-0.015,-0.031,0.045,0.01,-0.134,-0.11,-0.079,-0.055,-0.04
-0.01,0.04,0.049,-0.015,-0.029,0.044,0.007,-0.136,-0.11,-0.084,-0.055,-0.04
-0.011,0.04,0.051,-0.015,-0.031,0.046,0.005,-0.14,-0.11,-0.084,-0.055,-0.04
-0.015,0.039,0.054,-0.013,-0.034,0.046,0.002,-0.139,-0.11,-0.08,-0.055,-0.04
-0.014,0.041,0.056,-0.014,-0.035,0.048,0.0,-0.135,-0.11,-0.08,-0.055,-0.039
-0.007,0.045,0.052,-0.019,-0.03,0.048,0.0,-0.135,-0.11,-0.08,-0.055,-0.042
0.001,0.047,0.046,-0.025,-0.023,0.046,0.0,-0.135,-0.11,-0.08,-0.051,-0.045
0.009,0.05,0.041,-0.03,-0.016,0.046,0.0,-0.135,-0.11,-0.08,-0.05,-0.045
0.018,0.053,0.036,-0.036,-0.009,0.044,0.0,-0.135,-0.106,-0.081,-0.05,-0.045
0.025,0.055,0.03,-0.04,-0.003,0.042,0.005,-0.131,-0.105,-0.079,-0.05,-0.045
0.033,0.058,0.025,-0.046,0.004,0.041,0.013,-0.13,-0.105,-0.085,-0.05,-0.045
0.019,0.06,0.042,-0.04,-0.011,0.051,0.015,-0.13,-0.105,-0.096,-0.051,-0.042
-0.001,0.06,0.06,-0.03,-0.031,0.06,0.015,-0.13,-0.105,-0.095,-0.055,-0.039
-0.001,0.06,0.06,-0.03,-0.031,0.06,0.018,-0.13,-0.106,-0.093,-0.055,-0.036
0.002,0.06,0.058,-0.031,-0.028,0.059,0.021,-0.128,-0.11,-0.091,-0.058,-0.034
0.003,0.059,0.056,-0.031,-0.027,0.057,0.019,-0.125,-0.11,-0.088,-0.06,-0.029
0.001,0.055,0.054,-0.028,-0.027,0.054,0.016,-0.122,-0.112,-0.095,-0.06,-0.035
-0.005,0.05,0.056,-0.023,-0.031,0.053,0.015,-0.12,-0.115,-0.104,-0.06,-0.046
-0.022,0.048,0.07,-0.013,-0.046,0.059,0.014,-0.117,-0.115,-0.099,-0.06,-0.045
-0.027,0.043,0.07,-0.008,-0.049,0.056,0.01,-0.115,-0.111,-0.093,-0.059,-0.044
-0.023,0.04,0.063,-0.009,-0.043,0.051,0.009,-0.111,-0.104,-0.088,-0.054,-0.04
-0.022,0.044,0.065,-0.011,-0.044,0.054,0.014,-0.103,-0.098,-0.082,-0.051,-0.041
0.001,0.056,0.055,-0.028,-0.027,0.055,0.021,-0.097,-0.091,-0.078,-0.048,-0.038
0.012,0.083,0.072,-0.048,-0.03,0.077,0.047,-0.09,-0.084,-0.071,-0.043,-0.032
0.0,0.097,0.096,-0.049,-0.049,0.096,0.07,-0.084,-0.075,-0.064,-0.04,-0.029
-0.004,0.1,0.105,-0.048,-0.055,0.102,0.082,-0.079,-0.064,-0.058,-0.035,-0.023
0.016,0.124,0.109,-0.07,-0.047,0.116,0.083,-0.072,-0.055,-0.05,-0.025,-0.02
0.027,0.157,0.13,-0.092,-0.052,0.143,0.063,-0.086,-0.049,-0.046,-0.015,-0.014
0.02,0.155,0.134,-0.088,-0.057,0.144,0.049,-0.094,-0.05,-0.043,-0.01,-0.009
0.043,0.147,0.104,-0.095,-0.031,0.125,0.038,-0.088,-0.05,-0.04,-0.001,-0.002
0.028,0.12,0.093,-0.074,-0.033,0.106,0.03,-0.081,-0.053,-0.045,-0.012,-0.005
-0.01,0.071,0.081,-0.031,-0.046,0.076,0.026,-0.112,-0.089,-0.073,-0.041,-0.035
-0.024,0.053,0.077,-0.015,-0.051,0.065,0.026,-0.122,-0.103,-0.09,-0.055,-0.057
-0.017,0.038,0.055,-0.011,-0.036,0.047,0.016,-0.115,-0.113,-0.097,-0.069,-0.064
-0.025,0.041,0.066,-0.008,-0.046,0.053,0.02,-0.128,-0.109,-0.1,-0.073,-0.068
-0.011,0.039,0.05,-0.014,-0.031,0.044,0.011,-0.107,-0.108,-0.099,-0.071,-0.069
-0.02,0.053,0.073,-0.017,-0.047,0.063,0.03,-0.137,-0.116,-0.113,-0.084,-0.078
-0.016,0.041,0.057,-0.013,-0.037,0.049,0.01,-0.094,-0.098,-0.098,-0.069,-0.066
-0.09,-0.013,0.077,0.051,-0.083,0.032,0.151,-0.005,-0.137,-0.16,-0.13,-0.137
-0.14,-0.102,0.038,0.121,-0.089,-0.032,0.441,0.414,-0.116,-0.259,-0.261,-0.277
0.321,0.268,-0.053,-0.295,0.187,0.108,-0.093,0.13,0.021,0.001,0.04,0.031
0.671,1.258,0.586,-0.965,0.042,0.922,-0.821,-1.067,0.846,0.962,0.991,0.852
0.647,1.343,0.695,-0.995,-0.024,1.019,-0.76,-1.183,1.278,1.396,1.334,1.08
0.303,0.396,0.093,-0.35,0.105,0.244,-0.448,-0.807,0.258,0.446,0.485,0.401
-0.089,-0.091,-0.002,0.09,-0.043,-0.046,-0.154,-0.475,-0.253,-0.188,-0.108,-0.086
-0.045,-0.052,-0.007,0.049,-0.019,-0.029,-0.011,-0.126,-0.139,-0.151,-0.119,-0.115
-0.057,-0.024,0.033,0.04,-0.044,0.004,0.021,-0.086,-0.176,-0.169,-0.129,-0.116
-0.068,-0.02,0.048,0.044,-0.058,0.014,0.051,-0.046,-0.135,-0.147,-0.123,-0.12
-0.03,-0.009,0.021,0.019,-0.025,0.006,0.066,-0.053,-0.146,-0.148,-0.126,-0.119
-0.024,-0.006,0.018,0.015,-0.021,0.006,0.082,-0.028,-0.129,-0.14,-0.125,-0.124
-0.025,0.004,0.029,0.011,-0.027,0.016,0.075,-0.029,-0.128,-0.134,-0.12,-0.125
-0.056,0.008,0.064,0.024,-0.06,0.036,0.075,-0.031,-0.125,-0.137,-0.121,-0.13
-0.02,0.007,0.027,0.006,-0.024,0.017,0.068,-0.005,-0.116,-0.131,-0.118,-0.128
-0.031,0.004,0.035,0.013,-0.033,0.019,0.08,0.008,-0.117,-0.132,-0.116,-0.125
-0.063,0.007,0.07,0.028,-0.067,0.038,0.096,0.027,-0.108,-0.129,-0.114,-0.125
-0.058,0.012,0.069,0.023,-0.064,0.041,0.095,0.022,-0.107,-0.129,-0.115,-0.122
-0.046,0.018,0.064,0.014,-0.055,0.04,0.093,0.039,-0.099,-0.124,-0.108,-0.12
-0.042,0.023,0.065,0.01,-0.054,0.043,0.09,0.046,-0.097,-0.126,-0.104,-0.12
-0.028,0.028,0.056,0.0,-0.042,0.042,0.088,0.059,-0.091,-0.125,-0.1,-0.117
-0.026,0.035,0.06,-0.005,-0.043,0.047,0.097,0.077,-0.087,-0.125,-0.095,-0.114
-0.038,0.037,0.075,0.001,-0.057,0.056,0.11,0.08,-0.082,-0.125,-0.091,-0.111
-0.03,0.051,0.081,-0.011,-0.055,0.066,0.115,0.108,-0.075,-0.118,-0.086,-0.108
-0.011,0.053,0.064,-0.021,-0.038,0.058,0.118,0.135,-0.071,-0.108,-0.08,-0.106
-0.014,0.065,0.078,-0.025,-0.046,0.071,0.125,0.168,-0.053,-0.098,-0.075,-0.103
-0.005,0.085,0.09,-0.041,-0.048,0.087,0.137,0.197,-0.033,-0.088,-0.069,-0.1
0.009,0.086,0.077,-0.048,-0.034,0.081,0.144,0.233,-0.017,-0.08,-0.063,-0.097
-0.013,0.103,0.116,-0.046,-0.065,0.11,0.155,0.281,0.0,-0.071,-0.059,-0.095
-0.006,0.117,0.123,-0.055,-0.065,0.12,0.165,0.328,0.023,-0.052,-0.05,-0.091
0.006,0.141,0.134,-0.074,-0.064,0.137,0.181,0.39,0.058,-0.026,-0.044,-0.09
0.019,0.169,0.15,-0.094,-0.066,0.159,0.202,0.443,0.091,-0.009,-0.028,-0.083
0.035,0.191,0.156,-0.113,-0.061,0.174,0.22,0.501,0.124,0.007,-0.003,-0.062
0.043,0.223,0.18,-0.134,-0.069,0.201,0.236,0.55,0.149,0.029,0.01,-0.05
0.065,0.235,0.17,-0.15,-0.053,0.202,0.232,0.589,0.171,0.039,0.016,-0.04
0.073,0.243,0.171,-0.158,-0.049,0.207,0.229,0.598,0.169,0.046,0.027,-0.03
0.088,0.254,0.167,-0.171,-0.04,0.21,0.225,0.582,0.162,0.05,0.031,-0.025
0.087,0.251,0.164,-0.169,-0.039,0.207,0.221,0.577,0.162,0.043,0.026,-0.02
0.077,0.24,0.163,-0.159,-0.043,0.201,0.217,0.522,0.135,0.038,0.024,-0.014
0.072,0.228,0.156,-0.15,-0.043,0.192,0.176,0.444,0.099,0.033,0.019,-0.008
0.063,0.217,0.154,-0.141,-0.045,0.185,0.132,0.351,0.065,0.024,0.016,-0.006
0.071,0.203,0.132,-0.137,-0.031,0.167,0.108,0.25,0.038,0.003,0.011,-0.019
0.057,0.172,0.115,-0.115,-0.03,0.144,0.089,0.163,0.008,-0.018,-0.005,-0.034
0.022,0.128,0.107,-0.075,-0.043,0.117,0.073,0.088,-0.021,-0.032,-0.021,-0.043
0.006,0.106,0.099,-0.056,-0.047,0.102,0.061,0.05,-0.043,-0.054,-0.036,-0.053
0.022,0.105,0.083,-0.064,-0.03,0.094,0.058,0.011,-0.065,-0.074,-0.046,-0.054
0.03,0.095,0.065,-0.063,-0.018,0.08,0.054,-0.01,-0.075,-0.076,-0.052,-0.062
0.021,0.082,0.06,-0.052,-0.02,0.071,0.051,-0.016,-0.085,-0.08,-0.058,-0.072
0.025,0.075,0.051,-0.05,-0.014,0.063,0.046,-0.03,-0.083,-0.085,-0.06,-0.07
0.026,0.075,0.048,-0.051,-0.011,0.061,0.046,-0.032,-0.079,-0.081,-0.06,-0.07
0.04,0.075,0.035,-0.058,0.002,0.055,0.05,-0.027,-0.081,-0.08,-0.06,-0.07
0.028,0.075,0.047,-0.052,-0.01,0.061,0.053,-0.021,-0.076,-0.08,-0.06,-0.069
-0.002,0.074,0.077,-0.036,-0.04,0.075,0.057,-0.016,-0.075,-0.075,-0.059,-0.072
0.006,0.081,0.075,-0.044,-0.035,0.078,0.06,-0.01,-0.074,-0.075,-0.056,-0.075
0.011,0.086,0.075,-0.049,-0.032,0.08,0.06,-0.005,-0.071,-0.075,-0.051,-0.075
0.01,0.084,0.075,-0.047,-0.033,0.08,0.06,0.0,-0.068,-0.075,-0.049,-0.077
0.009,0.085,0.076,-0.048,-0.034,0.081,0.06,-0.001,-0.065,-0.075,-0.045,-0.08
0.015,0.085,0.07,-0.05,-0.028,0.077,0.059,0.001,-0.063,-0.075,-0.04,-0.08
0.005,0.085,0.08,-0.045,-0.038,0.083,0.069,0.005,-0.059,-0.075,-0.042,-0.076
-0.01,0.081,0.091,-0.036,-0.051,0.086,0.076,0.005,-0.063,-0.075,-0.046,-0.075
-0.001,0.074,0.075,-0.037,-0.038,0.074,0.075,0.002,-0.065,-0.079,-0.044,-0.075
0.002,0.068,0.065,-0.035,-0.032,0.066,0.073,-0.004,-0.072,-0.08,-0.04,-0.07
0.005,0.061,0.056,-0.033,-0.026,0.058,0.069,-0.009,-0.076,-0.08,-0.04,-0.07
0.002,0.054,0.052,-0.028,-0.026,0.053,0.07,-0.014,-0.076,-0.085,-0.039,-0.069
-0.003,0.046,0.049,-0.022,-0.026,0.047,0.067,-0.021,-0.081,-0.085,-0.035,-0.065
0.005,0.038,0.033,-0.022,-0.014,0.035,0.062,-0.024,-0.079,-0.083,-0.035,-0.063
0.01,0.03,0.02,-0.02,-0.005,0.025,0.059,-0.02,-0.075,-0.08,-0.037,-0.06
0.001,0.022,0.021,-0.012,-0.01,0.021,0.056,-0.02,-0.075,-0.077,-0.045,-0.056
-0.003,0.015,0.018,-0.007,-0.011,0.016,0.051,-0.019,-0.074,-0.075,-0.049,-0.055
-0.003,0.005,0.008,-0.001,-0.006,0.006,0.05,-0.015,-0.07,-0.071,-0.045,-0.051
0.01,-0.003,-0.013,-0.004,0.012,-0.008,0.06,-0.014,-0.07,-0.07,-0.041,-0.05
0.028,-0.012,-0.04,-0.008,0.035,-0.026,0.062,-0.018,-0.07,-0.066,-0.039,-0.05
0.025,-0.021,-0.045,-0.001,0.035,-0.033,0.059,-0.027,-0.07,-0.065,-0.034,-0.045
0.027,-0.018,-0.045,-0.004,0.037,-0.031,0.06,-0.027,-0.07,-0.065,-0.031,-0.045
0.007,-0.036,-0.043,0.015,0.025,-0.039,0.06,-0.023,-0.07,-0.06,-0.027,-0.044
0.003,-0.053,-0.056,0.025,0.03,-0.054,0.06,-0.021,-0.07,-0.06,-0.025,-0.04
0.021,-0.057,-0.077,0.018,0.05,-0.067,0.059,-0.017,-0.069,-0.059,-0.025,-0.04
0.015,-0.06,-0.074,0.023,0.045,-0.067,0.055,-0.015,-0.066,-0.055,-0.025,-0.04
0.014,-0.06,-0.074,0.024,0.044,-0.066,0.055,-0.013,-0.063,-0.055,-0.025,-0.04
0.008,-0.074,-0.082,0.033,0.045,-0.077,0.055,-0.007,-0.061,-0.055,-0.025,-0.04
0.007,-0.083,-0.09,0.038,0.049,-0.086,0.055,-0.002,-0.057,-0.055,-0.02,-0.037
0.01,-0.092,-0.102,0.041,0.056,-0.097,0.055,0.001,-0.055,-0.055,-0.02,-0.031
0.003,-0.108,-0.111,0.053,0.057,-0.109,0.055,0.006,-0.053,-0.052,-0.019,-0.027
-0.001,-0.12,-0.12,0.061,0.06,-0.12,0.056,0.01,-0.048,-0.049,-0.015,-0.022
0.014,-0.119,-0.133,0.052,0.074,-0.126,0.054,0.015,-0.045,-0.046,-0.015,-0.018
0.002,-0.125,-0.128,0.061,0.065,-0.127,0.059,0.015,-0.042,-0.043,-0.013,-0.013
-0.015,-0.146,-0.131,0.081,0.059,-0.139,0.066,0.016,-0.037,-0.04,-0.008,-0.01
0.014,-0.152,-0.166,0.069,0.09,-0.159,0.065,0.021,-0.034,-0.039,-0.005,-0.01
0.031,-0.156,-0.187,0.063,0.11,-0.171,0.064,0.019,-0.031,-0.035,-0.001,-0.01
0.027,-0.159,-0.187,0.066,0.107,-0.172,0.061,0.023,-0.028,-0.035,0.002,-0.01
0.014,-0.176,-0.19,0.081,0.102,-0.183,0.059,0.025,-0.026,-0.033,0.006,-0.01
0.003,-0.192,-0.195,0.095,0.099,-0.193,0.062,0.026,-0.022,-0.03,0.009,-0.007
0.003,-0.189,-0.192,0.094,0.097,-0.19,0.065,0.03,-0.02,-0.03,0.012,-0.002
0.011,-0.189,-0.201,0.089,0.106,-0.195,0.065,0.03,-0.018,-0.027,0.014,0.001
0.007,-0.201,-0.208,0.097,0.107,-0.204,0.065,0.036,-0.015,-0.024,0.018,0.005
0.006,-0.214,-0.221,0.104,0.114,-0.217,0.065,0.043,-0.015,-0.021,0.02,0.008
0.025,-0.216,-0.241,0.095,0.134,-0.228,0.065,0.048,-0.011,-0.018,0.02,0.012
0.029,-0.212,-0.241,0.092,0.135,-0.226,0.069,0.05,-0.01,-0.016,0.024,0.015
0.006,-0.23,-0.236,0.112,0.122,-0.233,0.07,0.053,-0.01,-0.013,0.025,0.018
-0.001,-0.247,-0.246,0.124,0.123,-0.246,0.07,0.056,-0.005,-0.011,0.025,0.02
0.017,-0.244,-0.262,0.114,0.14,-0.252,0.07,0.059,-0.005,-0.007,0.03,0.024
0.014,-0.245,-0.259,0.115,0.137,-0.251,0.07,0.06,-0.004,-0.005,0.03,0.025
0.013,-0.248,-0.261,0.117,0.137,-0.254,0.069,0.055,0.001,-0.001,0.029,0.025
0.002,-0.257,-0.259,0.128,0.131,-0.258,0.065,0.055,-0.001,0.001,0.033,0.025
0.01,-0.252,-0.262,0.121,0.136,-0.257,0.063,0.055,0.003,-0.004,0.035,0.025
-0.01,-0.261,-0.25,0.136,0.12,-0.255,0.06,0.055,0.005,-0.005,0.03,0.025
-0.042,-0.286,-0.243,0.164,0.101,-0.264,0.056,0.055,0.005,-0.005,0.03,0.026
-0.002,-0.28,-0.277,0.141,0.138,-0.278,0.055,0.055,0.009,-0.005,0.03,0.024
0.012,-0.275,-0.287,0.132,0.15,-0.281,0.051,0.055,0.011,-0.005,0.03,0.02
0.012,-0.272,-0.284,0.13,0.148,-0.278,0.05,0.062,0.009,-0.004,0.03,0.02
0.018,-0.265,-0.283,0.124,0.151,-0.274,0.05,0.066,0.005,0.0,0.032,0.018
0.012,-0.267,-0.279,0.128,0.146,-0.273,0.05,0.064,0.0,0.0,0.042,0.015
0.007,-0.272,-0.279,0.133,0.143,-0.275,0.05,0.066,-0.004,0.0,0.045,0.015
0.013,-0.277,-0.289,0.132,0.151,-0.283,0.05,0.069,-0.009,0.0,0.045,0.019
0.022,-0.28,-0.302,0.129,0.162,-0.291,0.051,0.072,-0.014,0.0,0.045,0.02
0.01,-0.285,-0.295,0.138,0.153,-0.29,0.048,0.075,-0.015,0.003,0.045,0.022
0.008,-0.284,-0.293,0.138,0.151,-0.288,0.065,0.077,-0.015,0.006,0.045,0.026
0.003,-0.286,-0.289,0.142,0.146,-0.287,0.075,0.08,-0.015,0.009,0.047,0.023
-0.008,-0.29,-0.282,0.149,0.137,-0.285,0.066,0.08,-0.015,0.01,0.051,0.02
0.008,-0.29,-0.298,0.141,0.153,-0.294,0.063,0.08,-0.015,0.01,0.05,0.017
0.02,-0.288,-0.308,0.134,0.164,-0.297,0.056,0.08,-0.015,0.01,0.05,0.015
0.014,-0.282,-0.296,0.134,0.155,-0.288,0.051,0.08,-0.01,0.01,0.05,0.012
0.009,-0.279,-0.288,0.135,0.149,-0.283,0.053,0.085,-0.002,0.01,0.05,0.009
0.011,-0.274,-0.285,0.132,0.148,-0.279,0.056,0.085,0.003,0.009,0.054,0.015
0.015,-0.27,-0.285,0.128,0.15,-0.277,0.059,0.089,0.011,0.014,0.058,0.024
0.025,-0.258,-0.283,0.117,0.154,-0.27,0.062,0.104,0.015,0.023,0.063,0.036
0.025,-0.237,-0.262,0.106,0.144,-0.249,0.079,0.118,0.015,0.028,0.066,0.042
0.025,-0.221,-0.245,0.098,0.135,-0.233,0.105,0.126,0.025,0.037,0.071,0.042
0.034,-0.21,-0.244,0.088,0.139,-0.226,0.102,0.127,0.04,0.043,0.076,0.037
0.03,-0.207,-0.237,0.088,0.134,-0.222,0.086,0.119,0.047,0.06,0.093,0.051
0.029,-0.214,-0.242,0.093,0.136,-0.228,0.07,0.121,0.04,0.073,0.11,0.071
0.025,-0.211,-0.236,0.093,0.131,-0.223,0.06,0.112,0.029,0.066,0.104,0.064
0.035,-0.229,-0.264,0.097,0.15,-0.246,0.052,0.113,0.026,0.064,0.098,0.059
0.041,-0.265,-0.306,0.112,0.174,-0.285,0.044,0.106,0.012,0.038,0.077,0.043
0.013,-0.287,-0.301,0.137,0.157,-0.294,0.046,0.101,0.015,0.022,0.061,0.026
0.017,-0.304,-0.321,0.144,0.169,-0.312,0.033,0.099,0.005,0.019,0.058,0.023
0.006,-0.305,-0.311,0.15,0.159,-0.308,0.041,0.084,0.008,0.015,0.054,0.019
0.017,-0.315,-0.332,0.149,0.175,-0.324,0.034,0.095,0.002,0.015,0.051,0.015
-0.018,-0.32,-0.302,0.17,0.142,-0.31,0.048,0.066,-0.002,0.006,0.045,0.012
0.007,-0.317,-0.324,0.155,0.165,-0.321,0.024,0.103,0.001,0.015,0.045,0.007
-0.058,-0.353,-0.295,0.206,0.119,-0.324,0.156,0.204,-0.047,-0.053,-0.029,-0.06
-0.133,-0.455,-0.322,0.295,0.095,-0.389,0.433,0.617,-0.007,-0.139,-0.152,-0.19
0.347,-0.073,-0.42,-0.137,0.383,-0.246,-0.098,0.316,0.127,0.117,0.146,0.099
0.69,0.918,0.229,-0.804,0.23,0.574,-0.807,-0.847,0.938,1.071,1.104,0.938
0.652,1.018,0.367,-0.835,0.142,0.692,-0.731,-0.968,1.368,1.509,1.459,1.182
0.303,0.06,-0.243,-0.181,0.273,-0.092,-0.426,-0.613,0.367,0.564,0.606,0.495
-0.083,-0.446,-0.364,0.265,0.141,-0.404,-0.155,-0.276,-0.156,-0.082,-0.004,-0.011
-0.041,-0.398,-0.357,0.22,0.158,-0.377,-0.011,0.066,-0.04,-0.036,-0.014,-0.048
-0.036,-0.379,-0.343,0.207,0.154,-0.36,0.031,0.108,-0.051,-0.04,-0.019,-0.041
-0.035,-0.371,-0.336,0.203,0.151,-0.353,0.059,0.156,-0.024,-0.033,-0.011,-0.041
-0.021,-0.36,-0.339,0.191,0.159,-0.349,0.061,0.149,-0.043,-0.037,-0.009,-0.035
-0.034,-0.359,-0.325,0.196,0.146,-0.341,0.068,0.17,-0.031,-0.035,-0.006,-0.036
-0.023,-0.353,-0.33,0.189,0.154,-0.341,0.062,0.177,-0.036,-0.034,0.0,-0.034
-0.034,-0.351,-0.318,0.193,0.142,-0.334,0.077,0.181,-0.036,-0.037,-0.001,-0.036
-0.026,-0.346,-0.32,0.186,0.147,-0.333,0.086,0.198,-0.028,-0.032,0.001,-0.035
-0.031,-0.344,-0.313,0.188,0.141,-0.328,0.087,0.193,-0.025,-0.031,-0.001,-0.035
-0.027,-0.337,-0.311,0.182,0.142,-0.324,0.091,0.206,-0.014,-0.029,0.001,-0.035
-0.024,-0.331,-0.307,0.178,0.142,-0.318,0.093,0.216,-0.011,-0.029,0.001,-0.034
-0.021,-0.324,-0.303,0.173,0.141,-0.313,0.095,0.232,-0.001,-0.024,0.006,-0.03
-0.019,-0.317,-0.299,0.168,0.14,-0.308,0.098,0.233,0.002,-0.026,0.009,-0.031
-0.022,-0.311,-0.29,0.167,0.134,-0.3,0.1,0.241,0.01,-0.021,0.012,-0.028
-0.021,-0.306,-0.285,0.163,0.132,-0.295,0.1,0.265,0.015,-0.014,0.017,-0.025
-0.022,-0.299,-0.277,0.161,0.127,-0.288,0.105,0.281,0.023,-0.008,0.02,-0.025
-0.022,-0.293,-0.271,0.157,0.125,-0.282,0.105,0.292,0.029,-0.001,0.023,-0.022
-0.001,-0.286,-0.285,0.144,0.142,-0.285,0.107,0.311,0.035,0.005,0.026,-0.019
0.006,-0.279,-0.285,0.137,0.146,-0.282,0.11,0.339,0.055,0.011,0.024,-0.016
0.0,-0.273,-0.273,0.137,0.137,-0.273,0.111,0.374,0.073,0.02,0.027,-0.013
0.008,-0.258,-0.267,0.125,0.138,-0.262,0.108,0.414,0.091,0.031,0.039,-0.01
0.015,-0.242,-0.257,0.113,0.136,-0.249,0.116,0.452,0.105,0.039,0.049,-0.009
0.019,-0.228,-0.247,0.105,0.134,-0.238,0.143,0.505,0.131,0.064,0.064,-0.004
0.024,-0.214,-0.238,0.095,0.131,-0.226,0.153,0.558,0.164,0.085,0.074,-0.001
0.036,-0.19,-0.226,0.077,0.131,-0.208,0.173,0.608,0.199,0.107,0.087,0.006
0.052,-0.163,-0.215,0.056,0.134,-0.189,0.196,0.67,0.235,0.134,0.106,0.03
0.065,-0.137,-0.201,0.036,0.133,-0.169,0.207,0.715,0.255,0.145,0.12,0.05
0.081,-0.111,-0.192,0.015,0.136,-0.151,0.218,0.75,0.272,0.159,0.135,0.06
0.073,-0.103,-0.177,0.015,0.125,-0.14,0.215,0.77,0.275,0.16,0.146,0.07
0.064,-0.105,-0.169,0.021,0.117,-0.137,0.212,0.759,0.265,0.153,0.148,0.078
0.084,-0.104,-0.189,0.01,0.137,-0.147,0.204,0.732,0.255,0.15,0.142,0.084
0.096,-0.105,-0.201,0.004,0.149,-0.153,0.176,0.686,0.244,0.144,0.138,0.082
0.094,-0.106,-0.2,0.006,0.147,-0.152,0.14,0.606,0.215,0.141,0.134,0.074
0.087,-0.121,-0.208,0.018,0.147,-0.164,0.104,0.517,0.18,0.129,0.129,0.068
0.072,-0.147,-0.219,0.038,0.146,-0.182,0.071,0.426,0.148,0.107,0.125,0.061
0.059,-0.172,-0.23,0.057,0.145,-0.201,0.049,0.337,0.114,0.089,0.114,0.054
0.05,-0.199,-0.25,0.075,0.15,-0.224,0.038,0.273,0.083,0.073,0.096,0.048
0.036,-0.222,-0.259,0.093,0.148,-0.241,0.029,0.219,0.057,0.059,0.083,0.038
0.035,-0.236,-0.271,0.101,0.153,-0.254,0.023,0.178,0.049,0.053,0.076,0.027
0.039,-0.239,-0.278,0.1,0.158,-0.258,0.016,0.158,0.051,0.046,0.069,0.015
0.027,-0.246,-0.272,0.11,0.15,-0.259,0.01,0.154,0.047,0.038,0.063,0.01
0.023,-0.249,-0.272,0.113,0.148,-0.261,0.01,0.155,0.045,0.03,0.055,0.01
0.016,-0.252,-0.268,0.118,0.142,-0.26,0.01,0.155,0.045,0.027,0.051,0.01
0.007,-0.264,-0.271,0.129,0.139,-0.267,0.01,0.155,0.049,0.03,0.054,0.01
0.019,-0.26,-0.279,0.121,0.149,-0.269,0.011,0.154,0.05,0.03,0.055,0.01
0.022,-0.252,-0.274,0.115,0.148,-0.263,0.007,0.159,0.05,0.03,0.055,0.012
0.011,-0.246,-0.257,0.118,0.134,-0.251,0.005,0.16,0.054,0.03,0.055,0.015
0.015,-0.239,-0.254,0.112,0.135,-0.246,0.004,0.161,0.055,0.029,0.054,0.017
0.038,-0.234,-0.271,0.098,0.155,-0.252,0.006,0.168,0.054,0.035,0.058,0.02
0.043,-0.23,-0.272,0.094,0.157,-0.251,0.004,0.167,0.049,0.037,0.06,0.023
0.033,-0.23,-0.263,0.099,0.148,-0.246,0.007,0.16,0.043,0.034,0.06,0.026
0.031,-0.23,-0.261,0.1,0.146,-0.245,0.024,0.156,0.04,0.031,0.06,0.021
0.022,-0.23,-0.252,0.104,0.137,-0.24,0.023,0.152,0.035,0.028,0.06,0.02
0.021,-0.23,-0.251,0.105,0.136,-0.24,0.019,0.147,0.03,0.026,0.059,0.02
0.034,-0.233,-0.267,0.099,0.151,-0.25,0.016,0.143,0.026,0.023,0.055,0.015
0.032,-0.238,-0.269,0.103,0.151,-0.253,0.011,0.136,0.025,0.02,0.055,0.015
0.022,-0.241,-0.262,0.11,0.142,-0.251,0.009,0.129,0.025,0.017,0.055,0.014
0.012,-0.25,-0.262,0.119,0.137,-0.256,-0.004,0.122,0.025,0.015,0.055,0.01
-0.004,-0.259,-0.255,0.132,0.126,-0.256,-0.007,0.114,0.025,0.012,0.055,0.01
-0.006,-0.26,-0.254,0.134,0.124,-0.257,-0.004,0.108,0.024,0.009,0.053,0.01
0.011,-0.26,-0.271,0.125,0.141,-0.265,-0.004,0.101,0.019,0.018,0.047,0.01
0.014,-0.26,-0.274,0.123,0.144,-0.267,0.003,0.1,0.016,0.023,0.043,0.01
0.004,-0.26,-0.264,0.128,0.134,-0.261,-0.007,0.099,0.013,0.017,0.038,0.01
0.005,-0.26,-0.265,0.128,0.135,-0.262,-0.021,0.096,0.008,0.015,0.034,0.01
-0.005,-0.26,-0.255,0.132,0.125,-0.257,-0.02,0.094,0.005,0.011,0.029,0.01
-0.005,-0.26,-0.255,0.133,0.125,-0.257,-0.02,0.097,0.002,0.006,0.025,0.01
0.013,-0.26,-0.273,0.124,0.143,-0.266,-0.02,0.1,-0.003,0.005,0.025,0.01
0.016,-0.26,-0.275,0.122,0.146,-0.267,-0.02,0.1,-0.006,0.005,0.024,0.009
0.002,-0.26,-0.262,0.13,0.132,-0.261,-0.017,0.1,-0.009,0.005,0.02,0.005
0.011,-0.256,-0.267,0.123,0.139,-0.261,-0.015,0.1,-0.014,0.005,0.019,0.005
0.01,-0.255,-0.265,0.123,0.138,-0.26,-0.012,0.1,-0.014,0.005,0.026,0.005
-0.018,-0.254,-0.236,0.137,0.11,-0.245,-0.009,0.096,-0.01,0.005,0.031,0.005
-0.002,-0.25,-0.249,0.126,0.124,-0.25,-0.006,0.09,-0.01,0.009,0.03,0.005
0.012,-0.249,-0.261,0.119,0.136,-0.255,-0.004,0.085,-0.01,0.01,0.029,0.001
-0.006,-0.252,-0.245,0.129,0.12,-0.248,-0.024,0.08,-0.01,0.01,0.025,0.0
-0.007,-0.255,-0.247,0.131,0.121,-0.251,-0.032,0.072,-0.01,0.01,0.025,0.0
-0.019,-0.255,-0.236,0.138,0.109,-0.245,-0.029,0.071,-0.013,0.009,0.025,0.0
-0.025,-0.259,-0.234,0.143,0.104,-0.246,-0.031,0.084,-0.017,0.012,0.025,0.0
-0.001,-0.26,-0.26,0.131,0.13,-0.26,-0.029,0.084,-0.02,0.015,0.025,0.001
0.001,-0.256,-0.257,0.128,0.129,-0.256,-0.031,0.078,-0.023,0.015,0.025,0.005
0.002,-0.255,-0.257,0.126,0.13,-0.255,-0.027,0.077,-0.027,0.015,0.025,0.005
0.019,-0.255,-0.274,0.118,0.147,-0.264,-0.024,0.07,-0.03,0.015,0.025,0.005
0.012,-0.255,-0.267,0.121,0.14,-0.26,-0.019,0.071,-0.03,0.015,0.032,0.005
0.018,-0.255,-0.273,0.119,0.146,-0.264,-0.018,0.084,-0.03,0.012,0.031,0.005
0.028,-0.254,-0.282,0.113,0.155,-0.268,-0.01,0.083,-0.03,0.006,0.029,0.009
0.01,-0.25,-0.259,0.12,0.135,-0.254,-0.013,0.075,-0.03,0.001,0.03,0.01
0.004,-0.25,-0.254,0.123,0.129,-0.252,-0.038,0.074,-0.027,-0.002,0.029,0.01
0.009,-0.248,-0.256,0.12,0.133,-0.252,-0.039,0.066,-0.022,-0.008,0.031,0.01
0.003,-0.244,-0.247,0.12,0.126,-0.245,-0.032,0.066,-0.019,-0.009,0.027,0.01
0.012,-0.246,-0.258,0.117,0.136,-0.252,-0.032,0.078,-0.016,-0.005,0.025,0.009
0.008,-0.243,-0.251,0.118,0.13,-0.247,-0.025,0.076,-0.011,-0.005,0.025,0.005
0.006,-0.25,-0.257,0.122,0.132,-0.253,-0.027,0.069,-0.011,-0.005,0.025,0.005
0.0,-0.26,-0.26,0.13,0.131,-0.26,-0.044,0.066,-0.019,-0.005,0.025,0.005
-0.002,-0.253,-0.251,0.128,0.125,-0.252,-0.045,0.056,-0.027,-0.005,0.026,0.005
0.003,-0.249,-0.252,0.123,0.128,-0.25,-0.04,0.059,-0.027,-0.002,0.029,0.005
-0.017,-0.243,-0.226,0.13,0.104,-0.234,-0.039,0.079,-0.024,0.01,0.03,0.002
-0.005,-0.237,-0.231,0.121,0.113,-0.234,-0.034,0.08,-0.021,0.021,0.03,-0.003
0.004,-0.235,-0.239,0.116,0.122,-0.237,-0.036,0.075,-0.018,0.016,0.03,-0.006
-0.011,-0.235,-0.224,0.123,0.107,-0.229,-0.041,0.074,-0.016,0.013,0.03,-0.01
-0.011,-0.235,-0.224,0.123,0.107,-0.229,-0.045,0.069,-0.013,0.01,0.028,-0.013
-0.023,-0.235,-0.212,0.129,0.095,-0.223,-0.041,0.07,-0.01,0.006,0.024,-0.017
-0.024,-0.235,-0.211,0.13,0.094,-0.222,-0.04,0.07,-0.01,0.003,0.022,-0.02
-0.009,-0.235,-0.226,0.122,0.109,-0.23,-0.04,0.07,-0.01,0.0,0.019,-0.02
-0.008,-0.235,-0.227,0.122,0.11,-0.231,-0.036,0.07,-0.01,-0.003,0.016,-0.02
-0.016,-0.235,-0.218,0.126,0.101,-0.226,-0.034,0.07,-0.01,-0.006,0.015,-0.02
-0.019,-0.235,-0.215,0.127,0.098,-0.225,-0.037,0.07,-0.013,-0.009,0.02,-0.02
-0.027,-0.235,-0.207,0.131,0.09,-0.221,-0.04,0.066,-0.017,-0.01,0.028,-0.016
-0.031,-0.235,-0.204,0.133,0.087,-0.219,-0.041,0.065,-0.02,-0.005,0.028,-0.015
-0.014,-0.235,-0.221,0.125,0.104,-0.228,-0.044,0.065,-0.023,-0.005,0.024,-0.015
-0.008,-0.235,-0.227,0.122,0.11,-0.231,-0.045,0.065,-0.025,-0.004,0.025,-0.015
-0.011,-0.235,-0.223,0.124,0.106,-0.229,-0.048,0.065,-0.028,0.0,0.021,-0.015
-0.014,-0.235,-0.221,0.124,0.104,-0.228,-0.051,0.066,-0.031,0.0,0.019,-0.015
-0.016,-0.235,-0.219,0.125,0.102,-0.226,-0.049,0.07,-0.029,0.002,0.021,-0.015
-0.014,-0.235,-0.221,0.124,0.104,-0.227,-0.043,0.072,-0.023,0.008,0.019,-0.015
-0.011,-0.23,-0.219,0.12,0.104,-0.224,-0.04,0.075,-0.018,0.012,0.02,-0.015
-0.001,-0.223,-0.222,0.112,0.111,-0.222,-0.034,0.079,-0.013,0.016,0.019,-0.015
-0.008,-0.214,-0.206,0.111,0.099,-0.21,-0.032,0.086,-0.006,0.021,0.024,-0.016
-0.005,-0.179,-0.174,0.092,0.085,-0.176,-0.018,0.101,-0.001,0.026,0.041,-0.009
-0.006,-0.165,-0.159,0.086,0.077,-0.162,0.005,0.112,0.003,0.031,0.046,0.004
-0.004,-0.159,-0.155,0.082,0.076,-0.156,-0.004,0.11,0.006,0.034,0.044,0.015
0.031,-0.12,-0.151,0.045,0.091,-0.135,-0.019,0.102,0.008,0.046,0.057,0.023
0.043,-0.115,-0.158,0.037,0.1,-0.136,-0.045,0.101,0.013,0.045,0.063,0.021
0.031,-0.121,-0.153,0.045,0.092,-0.137,-0.059,0.094,0.014,0.032,0.052,0.01
0.023,-0.138,-0.16,0.058,0.092,-0.149,-0.052,0.09,0.015,0.027,0.043,0.002
0.027,-0.174,-0.201,0.073,0.114,-0.187,-0.065,0.088,-0.002,0.015,0.032,-0.008
-0.008,-0.205,-0.197,0.107,0.094,-0.201,-0.067,0.077,-0.028,0.011,0.025,-0.016
-0.002,-0.226,-0.224,0.114,0.111,-0.225,-0.077,0.084,-0.048,0.007,0.02,-0.024
-0.008,-0.217,-0.209,0.113,0.101,-0.213,-0.075,0.064,-0.054,0.002,0.015,-0.032
-0.011,-0.222,-0.211,0.117,0.1,-0.217,-0.082,0.078,-0.043,0.002,0.012,-0.039
-0.018,-0.218,-0.2,0.118,0.091,-0.209,-0.084,0.054,-0.061,-0.008,0.006,-0.044
-0.032,-0.22,-0.189,0.126,0.079,-0.204,-0.085,0.059,-0.036,-0.005,0.0,-0.045
-0.027,-0.233,-0.206,0.13,0.09,-0.219,-0.022,0.101,-0.071,-0.045,-0.044,-0.065
-0.166,-0.345,-0.179,0.256,0.007,-0.262,0.306,0.459,-0.08,-0.138,-0.163,-0.204
0.163,-0.193,-0.356,0.015,0.26,-0.274,0.056,0.54,-0.015,-0.045,-0.051,-0.096
0.615,0.749,0.134,-0.682,0.24,0.441,-0.762,-0.542,0.619,0.77,0.793,0.677
0.652,1.208,0.556,-0.93,0.048,0.881,-0.866,-1.009,1.407,1.529,1.442,1.159
0.405,0.406,0.001,-0.406,0.202,0.204,-0.543,-0.682,0.682,0.853,0.811,0.632
-0.03,-0.286,-0.256,0.158,0.113,-0.271,-0.306,-0.433,-0.171,-0.019,0.035,0.021
-0.067,-0.32,-0.252,0.194,0.093,-0.286,-0.135,-0.053,-0.119,-0.07,-0.076,-0.096
-0.021,-0.274,-0.254,0.148,0.117,-0.264,-0.081,0.058,-0.12,-0.037,-0.057,-0.073
-0.057,-0.279,-0.222,0.168,0.083,-0.25,-0.043,0.089,-0.106,-0.043,-0.055,-0.077
-0.044,-0.267,-0.223,0.155,0.09,-0.244,-0.036,0.11,-0.104,-0.036,-0.048,-0.066
-0.04,-0.265,-0.225,0.153,0.093,-0.245,-0.032,0.109,-0.103,-0.038,-0.049,-0.063
-0.014,-0.258,-0.244,0.136,0.115,-0.251,-0.025,0.125,-0.091,-0.033,-0.042,-0.062
-0.036,-0.255,-0.219,0.146,0.092,-0.237,-0.021,0.126,-0.096,-0.035,-0.042,-0.065
-0.025,-0.252,-0.227,0.139,0.101,-0.24,-0.015,0.144,-0.085,-0.028,-0.038,-0.069
-0.018,-0.25,-0.232,0.134,0.107,-0.241,-0.014,0.141,-0.089,-0.032,-0.037,-0.07
-0.03,-0.247,-0.216,0.139,0.094,-0.231,-0.023,0.15,-0.081,-0.029,-0.033,-0.075
-0.033,-0.245,-0.212,0.139,0.09,-0.228,-0.03,0.151,-0.082,-0.03,-0.031,-0.074
-0.035,-0.241,-0.206,0.138,0.086,-0.223,-0.022,0.159,-0.078,-0.03,-0.028,-0.071
-0.038,-0.232,-0.194,0.135,0.079,-0.213,-0.018,0.165,-0.073,-0.024,-0.024,-0.068
-0.024,-0.226,-0.202,0.125,0.089,-0.214,-0.011,0.176,-0.068,-0.019,-0.025,-0.066
-0.022,-0.219,-0.197,0.121,0.088,-0.207,-0.006,0.195,-0.062,-0.014,-0.025,-0.062
-0.026,-0.214,-0.188,0.12,0.081,-0.2,-0.002,0.207,-0.056,-0.008,-0.025,-0.06
-0.027,-0.211,-0.184,0.12,0.078,-0.197,0.004,0.224,-0.052,-0.003,-0.025,-0.058
-0.026,-0.203,-0.178,0.114,0.076,-0.19,0.009,0.24,-0.043,0.002,-0.026,-0.051
0.001,-0.182,-0.183,0.091,0.092,-0.182,0.013,0.261,-0.028,0.011,-0.025,-0.047
0.0,-0.164,-0.164,0.083,0.082,-0.164,0.017,0.292,-0.015,0.017,-0.015,-0.041
0.008,-0.152,-0.16,0.073,0.084,-0.156,0.022,0.324,0.011,0.024,0.001,-0.035
0.031,-0.137,-0.168,0.053,0.1,-0.152,0.034,0.37,0.031,0.041,0.012,-0.03
0.029,-0.119,-0.149,0.045,0.089,-0.134,0.046,0.41,0.057,0.061,0.016,-0.024
0.05,-0.092,-0.142,0.021,0.096,-0.117,0.053,0.458,0.091,0.076,0.03,-0.018
0.074,-0.067,-0.141,-0.003,0.108,-0.104,0.064,0.522,0.123,0.094,0.044,-0.011
0.07,-0.047,-0.117,-0.011,0.094,-0.082,0.079,0.576,0.157,0.113,0.06,-0.004
0.051,-0.037,-0.088,-0.006,0.07,-0.063,0.097,0.62,0.179,0.132,0.073,0.003
0.06,-0.024,-0.084,-0.017,0.073,-0.054,0.109,0.66,0.2,0.151,0.083,0.009
0.089,0.004,-0.085,-0.046,0.087,-0.04,0.105,0.682,0.209,0.156,0.092,0.015
0.089,0.009,-0.08,-0.049,0.084,-0.035,0.097,0.669,0.203,0.16,0.105,0.031
0.099,0.019,-0.08,-0.059,0.089,-0.03,0.091,0.658,0.203,0.156,0.115,0.037
0.093,0.02,-0.072,-0.056,0.082,-0.026,0.083,0.629,0.185,0.144,0.108,0.029
0.079,-0.004,-0.082,-0.037,0.081,-0.043,0.051,0.559,0.147,0.136,0.1,0.026
0.089,-0.021,-0.11,-0.034,0.1,-0.065,0.016,0.474,0.114,0.124,0.095,0.021
0.063,-0.048,-0.111,-0.008,0.087,-0.079,-0.022,0.374,0.081,0.109,0.086,0.017
0.036,-0.067,-0.104,0.016,0.07,-0.085,-0.052,0.279,0.047,0.093,0.069,0.012
0.042,-0.085,-0.127,0.022,0.084,-0.106,-0.058,0.202,0.023,0.077,0.055,0.003
0.023,-0.11,-0.133,0.044,0.078,-0.121,-0.071,0.142,-0.002,0.063,0.045,-0.006
0.008,-0.128,-0.136,0.06,0.072,-0.132,-0.076,0.104,-0.027,0.05,0.032,-0.015
0.017,-0.14,-0.157,0.062,0.088,-0.149,-0.074,0.082,-0.041,0.041,0.023,-0.024
0.003,-0.148,-0.15,0.073,0.077,-0.149,-0.076,0.074,-0.053,0.034,0.016,-0.036
-0.01,-0.159,-0.149,0.085,0.069,-0.154,-0.074,0.071,-0.056,0.027,0.009,-0.041
-0.014,-0.158,-0.144,0.087,0.065,-0.151,-0.076,0.068,-0.055,0.019,0.003,-0.043
-0.013,-0.154,-0.141,0.083,0.065,-0.147,-0.073,0.063,-0.055,0.012,-0.005,-0.045
-0.016,-0.151,-0.135,0.084,0.059,-0.143,-0.07,0.06,-0.055,0.014,-0.009,-0.04
-0.034,-0.146,-0.112,0.09,0.039,-0.129,-0.07,0.063,-0.056,0.024,-0.005,-0.04
-0.006,-0.144,-0.137,0.075,0.066,-0.14,-0.07,0.065,-0.051,0.025,-0.005,-0.039
0.004,-0.139,-0.143,0.068,0.073,-0.141,-0.07,0.065,-0.05,0.025,-0.004,-0.035
-0.001,-0.133,-0.132,0.068,0.066,-0.132,-0.07,0.065,-0.05,0.025,0.0,-0.035
0.011,-0.13,-0.141,0.059,0.076,-0.135,-0.073,0.065,-0.046,0.025,0.0,-0.037
-0.009,-0.125,-0.116,0.067,0.054,-0.12,-0.078,0.064,-0.045,0.025,-0.002,-0.041
-0.01,-0.12,-0.11,0.065,0.05,-0.115,-0.08,0.059,-0.046,0.022,-0.005,-0.044
-0.022,-0.124,-0.101,0.073,0.04,-0.112,-0.08,0.057,-0.052,0.017,-0.005,-0.048
-0.027,-0.125,-0.098,0.077,0.036,-0.111,-0.08,0.053,-0.059,0.014,-0.005,-0.05
-0.005,-0.125,-0.12,0.065,0.058,-0.123,-0.08,0.05,-0.063,0.011,-0.005,-0.05
-0.012,-0.129,-0.117,0.071,0.053,-0.123,-0.08,0.045,-0.066,0.007,-0.005,-0.05
-0.002,-0.131,-0.129,0.066,0.063,-0.13,-0.08,0.035,-0.069,0.003,-0.009,-0.05
0.002,-0.128,-0.131,0.063,0.067,-0.129,-0.084,0.027,-0.072,0.0,-0.012,-0.05
-0.003,-0.125,-0.122,0.064,0.06,-0.124,-0.085,0.017,-0.075,-0.002,-0.016,-0.049
-0.005,-0.125,-0.119,0.065,0.057,-0.122,-0.087,0.009,-0.075,-0.005,-0.02,-0.052
-0.007,-0.125,-0.118,0.067,0.056,-0.121,-0.09,0.004,-0.078,-0.008,-0.02,-0.055
-0.011,-0.125,-0.114,0.068,0.052,-0.119,-0.09,-0.002,-0.082,-0.01,-0.02,-0.055
-0.01,-0.125,-0.115,0.067,0.053,-0.12,-0.1,-0.005,-0.084,-0.013,-0.02,-0.059
-0.006,-0.128,-0.123,0.067,0.059,-0.125,-0.105,-0.01,-0.088,-0.016,-0.02,-0.06
-0.032,-0.13,-0.098,0.081,0.033,-0.114,-0.105,-0.014,-0.09,-0.019,-0.02,-0.06
-0.036,-0.13,-0.094,0.084,0.029,-0.111,-0.105,-0.02,-0.094,-0.021,-0.02,-0.06
-0.037,-0.13,-0.093,0.084,0.028,-0.111,-0.105,-0.028,-0.098,-0.025,-0.025,-0.06
-0.042,-0.13,-0.088,0.086,0.023,-0.109,-0.105,-0.034,-0.103,-0.024,-0.024,-0.06
-0.043,-0.129,-0.086,0.086,0.022,-0.107,-0.101,-0.041,-0.105,-0.02,-0.033,-0.06
-0.039,-0.124,-0.086,0.082,0.024,-0.105,-0.1,-0.045,-0.105,-0.021,-0.042,-0.06
-0.025,-0.126,-0.101,0.075,0.038,-0.113,-0.1,-0.045,-0.105,-0.017,-0.036,-0.06
-0.025,-0.122,-0.098,0.074,0.037,-0.109,-0.1,-0.045,-0.105,-0.015,-0.035,-0.06
-0.026,-0.12,-0.094,0.073,0.034,-0.106,-0.1,-0.045,-0.105,-0.015,-0.031,-0.06
-0.029,-0.12,-0.091,0.075,0.031,-0.105,-0.101,-0.045,-0.105,-0.018,-0.03,-0.06
-0.03,-0.117,-0.086,0.074,0.028,-0.101,-0.111,-0.048,-0.109,-0.023,-0.034,-0.06
-0.03,-0.114,-0.084,0.073,0.027,-0.099,-0.112,-0.051,-0.11,-0.026,-0.036,-0.06
-0.031,-0.111,-0.08,0.071,0.025,-0.095,-0.11,-0.054,-0.11,-0.03,-0.039,-0.06
-0.031,-0.108,-0.078,0.07,0.023,-0.093,-0.11,-0.057,-0.11,-0.033,-0.041,-0.06
-0.03,-0.105,-0.075,0.068,0.023,-0.09,-0.106,-0.06,-0.11,-0.037,-0.045,-0.059
-0.035,-0.106,-0.072,0.071,0.019,-0.089,-0.104,-0.06,-0.109,-0.04,-0.044,-0.069
-0.041,-0.11,-0.069,0.075,0.014,-0.09,-0.106,-0.06,-0.105,-0.043,-0.04,-0.076
-0.04,-0.11,-0.07,0.075,0.015,-0.09,-0.119,-0.06,-0.105,-0.045,-0.04,-0.075
-0.04,-0.11,-0.07,0.075,0.015,-0.09,-0.126,-0.06,-0.103,-0.048,-0.04,-0.073
-0.04,-0.11,-0.07,0.075,0.015,-0.09,-0.124,-0.06,-0.099,-0.051,-0.04,-0.069
-0.04,-0.11,-0.07,0.075,0.015,-0.09,-0.125,-0.06,-0.1,-0.046,-0.04,-0.07
-0.036,-0.107,-0.07,0.072,0.017,-0.088,-0.125,-0.064,-0.1,-0.045,-0.04,-0.07
-0.035,-0.104,-0.069,0.069,0.017,-0.086,-0.125,-0.065,-0.1,-0.045,-0.04,-0.07
-0.037,-0.101,-0.065,0.07,0.014,-0.082,-0.129,-0.065,-0.1,-0.04,-0.04,-0.07
-0.032,-0.098,-0.066,0.066,0.017,-0.081,-0.13,-0.065,-0.1,-0.04,-0.04,-0.07
-0.033,-0.095,-0.062,0.065,0.015,-0.079,-0.13,-0.066,-0.099,-0.04,-0.04,-0.07
-0.033,-0.093,-0.06,0.063,0.014,-0.076,-0.134,-0.071,-0.101,-0.04,-0.039,-0.07
-0.03,-0.09,-0.06,0.06,0.015,-0.075,-0.135,-0.075,-0.105,-0.04,-0.035,-0.07
-0.033,-0.09,-0.057,0.062,0.012,-0.073,-0.134,-0.071,-0.105,-0.04,-0.035,-0.07
-0.043,-0.09,-0.047,0.067,0.002,-0.068,-0.128,-0.07,-0.105,-0.04,-0.035,-0.07
-0.04,-0.09,-0.05,0.065,0.005,-0.069,-0.122,-0.07,-0.105,-0.04,-0.035,-0.07
-0.021,-0.09,-0.069,0.056,0.024,-0.08,-0.117,-0.07,-0.106,-0.037,-0.036,-0.07
-0.02,-0.086,-0.066,0.053,0.023,-0.076,-0.111,-0.069,-0.099,-0.031,-0.031,-0.066
-0.021,-0.077,-0.056,0.049,0.018,-0.066,-0.106,-0.071,-0.083,-0.027,-0.025,-0.059
-0.019,-0.071,-0.053,0.045,0.017,-0.062,-0.1,-0.075,-0.07,-0.022,-0.019,-0.052
-0.021,-0.063,-0.042,0.042,0.011,-0.052,-0.091,-0.075,-0.061,-0.018,-0.014,-0.046
-0.004,-0.039,-0.035,0.022,0.016,-0.036,-0.089,-0.077,-0.052,-0.013,-0.008,-0.038
-0.001,-0.006,-0.005,0.004,0.002,-0.006,-0.091,-0.08,-0.054,-0.011,0.004,-0.036
-0.013,0.019,0.032,-0.003,-0.022,0.026,-0.101,-0.081,-0.055,-0.009,0.02,-0.04
-0.006,0.019,0.025,-0.007,-0.016,0.021,-0.13,-0.078,-0.055,-0.006,0.021,-0.04
0.002,-0.002,-0.004,0.0,0.003,-0.003,-0.139,-0.083,-0.056,-0.004,0.01,-0.04
0.005,-0.049,-0.054,0.023,0.029,-0.051,-0.143,-0.075,-0.053,-0.012,0.0,-0.039
-0.031,-0.091,-0.06,0.061,0.015,-0.075,-0.145,-0.088,-0.076,-0.032,-0.013,-0.051
-0.034,-0.106,-0.073,0.07,0.02,-0.089,-0.148,-0.092,-0.09,-0.043,-0.022,-0.064
-0.035,-0.113,-0.079,0.075,0.022,-0.096,-0.153,-0.108,-0.101,-0.055,-0.036,-0.068
-0.047,-0.115,-0.067,0.081,0.011,-0.091,-0.141,-0.093,-0.088,-0.047,-0.043,-0.07
-0.036,-0.118,-0.082,0.077,0.023,-0.1,-0.142,-0.087,-0.102,-0.052,-0.045,-0.072
-0.066,-0.118,-0.052,0.092,-0.007,-0.085,-0.119,-0.091,-0.089,-0.05,-0.051,-0.077
-0.029,-0.123,-0.094,0.076,0.033,-0.109,-0.127,-0.059,-0.097,-0.049,-0.045,-0.071
-0.179,-0.188,-0.008,0.184,-0.086,-0.098,0.136,0.114,-0.126,-0.149,-0.151,-0.179
-0.064,-0.215,-0.15,0.14,0.043,-0.182,0.215,0.492,-0.092,-0.18,-0.21,-0.241
0.45,0.464,0.015,-0.457,0.217,0.239,-0.544,-0.282,0.244,0.344,0.377,0.316
0.624,1.31,0.686,-0.967,-0.032,0.998,-0.999,-1.223,1.186,1.321,1.281,1.054
0.515,0.878,0.363,-0.696,0.075,0.62,-0.763,-0.971,1.041,1.185,1.109,0.873
0.084,-0.035,-0.119,-0.025,0.102,-0.077,-0.456,-0.71,-0.052,0.124,0.178,0.143
-0.134,-0.25,-0.116,0.192,-0.008,-0.183,-0.232,-0.353,-0.205,-0.161,-0.127,-0.129
-0.047,-0.176,-0.128,0.112,0.041,-0.152,-0.142,-0.119,-0.107,-0.078,-0.071,-0.101
-0.067,-0.162,-0.095,0.115,0.014,-0.128,-0.096,-0.107,-0.126,-0.102,-0.087,-0.11
-0.055,-0.164,-0.108,0.11,0.027,-0.136,-0.084,-0.054,-0.105,-0.084,-0.08,-0.101
-0.075,-0.167,-0.093,0.121,0.009,-0.13,-0.078,-0.066,-0.12,-0.095,-0.088,-0.101
-0.069,-0.159,-0.09,0.115,0.011,-0.125,-0.069,-0.035,-0.103,-0.087,-0.084,-0.1
-0.068,-0.155,-0.087,0.112,0.01,-0.121,-0.066,-0.042,-0.115,-0.092,-0.083,-0.099
-0.063,-0.149,-0.086,0.106,0.012,-0.118,-0.056,-0.031,-0.102,-0.09,-0.08,-0.101
-0.049,-0.143,-0.094,0.096,0.023,-0.118,-0.056,-0.029,-0.101,-0.088,-0.08,-0.099
-0.055,-0.139,-0.084,0.097,0.015,-0.111,-0.055,-0.025,-0.096,-0.085,-0.077,-0.101
-0.052,-0.132,-0.081,0.092,0.015,-0.106,-0.052,-0.018,-0.09,-0.084,-0.074,-0.1
-0.063,-0.128,-0.065,0.095,0.002,-0.096,-0.05,-0.014,-0.088,-0.084,-0.076,-0.096
-0.049,-0.122,-0.074,0.086,0.013,-0.098,-0.05,-0.002,-0.081,-0.079,-0.07,-0.09
-0.039,-0.116,-0.077,0.078,0.019,-0.096,-0.05,0.009,-0.077,-0.081,-0.071,-0.085
-0.056,-0.111,-0.055,0.084,-0.001,-0.083,-0.05,0.019,-0.07,-0.076,-0.068,-0.078
-0.043,-0.106,-0.063,0.074,0.011,-0.084,-0.05,0.028,-0.065,-0.07,-0.065,-0.074
-0.047,-0.099,-0.052,0.073,0.003,-0.076,-0.051,0.046,-0.061,-0.066,-0.063,-0.069
-0.055,-0.094,-0.039,0.075,-0.008,-0.066,-0.046,0.065,-0.053,-0.059,-0.06,-0.066
-0.036,-0.083,-0.047,0.06,0.006,-0.065,-0.028,0.095,-0.046,-0.054,-0.057,-0.063
-0.041,-0.071,-0.03,0.056,-0.006,-0.05,-0.012,0.127,-0.033,-0.049,-0.055,-0.058
-0.03,-0.054,-0.023,0.042,-0.003,-0.038,-0.01,0.159,-0.005,-0.041,-0.051,-0.055
-0.009,-0.032,-0.023,0.021,0.007,-0.027,0.004,0.196,0.023,-0.033,-0.039,-0.05
-0.003,-0.013,-0.01,0.008,0.004,-0.011,0.02,0.243,0.042,-0.019,-0.031,-0.041
0.009,0.008,-0.001,-0.009,0.005,0.004,0.037,0.292,0.061,0.003,-0.019,-0.033
0.026,0.023,-0.003,-0.025,0.014,0.01,0.062,0.349,0.093,0.034,0.003,-0.024
0.025,0.045,0.02,-0.035,0.002,0.032,0.073,0.408,0.124,0.054,0.02,-0.01
0.011,0.073,0.062,-0.042,-0.026,0.067,0.097,0.455,0.16,0.071,0.03,0.004
0.028,0.098,0.069,-0.063,-0.021,0.083,0.107,0.498,0.185,0.091,0.039,0.016
0.034,0.124,0.09,-0.079,-0.029,0.107,0.121,0.528,0.194,0.1,0.053,0.024
0.022,0.129,0.108,-0.076,-0.043,0.118,0.127,0.534,0.192,0.1,0.055,0.033
0.039,0.131,0.091,-0.085,-0.026,0.111,0.109,0.522,0.178,0.093,0.049,0.039
0.052,0.145,0.094,-0.099,-0.021,0.119,0.106,0.501,0.172,0.089,0.047,0.034
0.053,0.135,0.082,-0.095,-0.014,0.108,0.086,0.441,0.151,0.082,0.042,0.031
0.028,0.112,0.084,-0.07,-0.028,0.097,0.052,0.355,0.117,0.078,0.04,0.028
0.032,0.102,0.07,-0.067,-0.019,0.085,0.007,0.263,0.092,0.068,0.033,0.023
0.052,0.082,0.03,-0.068,0.011,0.056,-0.018,0.165,0.068,0.036,0.026,0.021
0.006,0.046,0.039,-0.026,-0.016,0.042,-0.026,0.081,0.037,0.012,0.014,0.015
0.009,0.021,0.012,-0.015,-0.001,0.016,-0.057,0.012,-0.008,-0.002,-0.015,0.005
0.014,0.017,0.002,-0.016,0.006,0.009,-0.067,-0.028,-0.04,-0.022,-0.034,-0.005
0.004,0.002,-0.001,-0.003,0.003,0.0,-0.063,-0.069,-0.044,-0.042,-0.05,-0.015
0.008,-0.034,-0.042,0.013,0.025,-0.038,-0.065,-0.098,-0.045,-0.046,-0.06,-0.023
-0.026,-0.051,-0.026,0.039,0.0,-0.038,-0.075,-0.095,-0.05,-0.044,-0.055,-0.032
-0.04,-0.049,-0.009,0.045,-0.015,-0.029,-0.079,-0.09,-0.048,-0.046,-0.055,-0.039
-0.027,-0.05,-0.023,0.039,-0.002,-0.037,-0.067,-0.085,-0.042,-0.044,-0.055,-0.043
-0.024,-0.05,-0.026,0.037,0.001,-0.038,-0.064,-0.081,-0.037,-0.046,-0.055,-0.048
-0.033,-0.05,-0.017,0.042,-0.008,-0.033,-0.055,-0.077,-0.031,-0.042,-0.056,-0.049
-0.014,-0.048,-0.033,0.032,0.01,-0.04,-0.049,-0.072,-0.026,-0.04,-0.052,-0.045
-0.014,-0.041,-0.027,0.027,0.007,-0.033,-0.065,-0.07,-0.021,-0.04,-0.05,-0.043
-0.019,-0.035,-0.016,0.027,-0.001,-0.025,-0.071,-0.067,-0.02,-0.037,-0.05,-0.04
0.0,-0.027,-0.027,0.013,0.014,-0.027,-0.064,-0.064,-0.02,-0.034,-0.05,-0.036
-0.03,-0.022,0.009,0.026,-0.019,-0.006,-0.062,-0.061,-0.02,-0.036,-0.05,-0.035
-0.025,-0.024,0.0,0.024,-0.012,-0.012,-0.057,-0.06,-0.02,-0.039,-0.05,-0.035
-0.027,-0.025,0.001,0.026,-0.013,-0.012,-0.055,-0.067,-0.021,-0.04,-0.055,-0.035
-0.032,-0.025,0.007,0.028,-0.019,-0.009,-0.06,-0.078,-0.027,-0.043,-0.055,-0.035
-0.003,-0.025,-0.022,0.015,0.01,-0.024,-0.06,-0.087,-0.035,-0.045,-0.055,-0.036
-0.012,-0.024,-0.012,0.019,0.0,-0.018,-0.06,-0.098,-0.031,-0.047,-0.056,-0.034
-0.006,-0.028,-0.022,0.017,0.008,-0.025,-0.061,-0.1,-0.031,-0.051,-0.053,-0.037
-0.019,-0.03,-0.011,0.025,-0.004,-0.02,-0.057,-0.106,-0.046,-0.054,-0.066,-0.048
-0.044,-0.031,0.013,0.038,-0.028,-0.009,-0.055,-0.127,-0.051,-0.058,-0.076,-0.05
-0.064,-0.035,0.029,0.049,-0.046,-0.003,-0.052,-0.131,-0.051,-0.06,-0.07,-0.052
-0.062,-0.035,0.027,0.048,-0.044,-0.004,-0.049,-0.13,-0.056,-0.06,-0.068,-0.056
-0.052,-0.035,0.017,0.043,-0.034,-0.009,-0.046,-0.135,-0.054,-0.06,-0.063,-0.053
-0.051,-0.035,0.016,0.042,-0.033,-0.01,-0.044,-0.135,-0.05,-0.06,-0.06,-0.05
-0.023,-0.035,-0.012,0.029,-0.005,-0.023,-0.057,-0.135,-0.05,-0.06,-0.064,-0.05
-0.036,-0.035,0.001,0.036,-0.018,-0.017,-0.06,-0.135,-0.049,-0.059,-0.065,-0.05
-0.062,-0.034,0.028,0.048,-0.045,-0.003,-0.054,-0.135,-0.045,-0.063,-0.065,-0.05
-0.061,-0.038,0.024,0.049,-0.042,-0.007,-0.052,-0.135,-0.044,-0.065,-0.065,-0.049
-0.066,-0.04,0.026,0.053,-0.046,-0.007,-0.047,-0.135,-0.049,-0.065,-0.065,-0.057
-0.065,-0.04,0.025,0.052,-0.045,-0.007,-0.044,-0.135,-0.051,-0.069,-0.065,-0.066
-0.065,-0.04,0.025,0.052,-0.045,-0.007,-0.04,-0.138,-0.05,-0.07,-0.065,-0.064
-0.064,-0.04,0.024,0.052,-0.044,-0.008,-0.04,-0.142,-0.049,-0.07,-0.065,-0.065
-0.057,-0.04,0.018,0.048,-0.037,-0.011,-0.04,-0.144,-0.045,-0.07,-0.065,-0.065
-0.046,-0.035,0.011,0.04,-0.028,-0.012,-0.04,-0.149,-0.044,-0.07,-0.065,-0.065
-0.034,-0.03,0.004,0.032,-0.019,-0.012,-0.039,-0.149,-0.048,-0.07,-0.065,-0.064
-0.022,-0.025,-0.003,0.024,-0.009,-0.014,-0.044,-0.145,-0.05,-0.07,-0.069,-0.06
-0.013,-0.022,-0.009,0.018,-0.002,-0.016,-0.055,-0.145,-0.05,-0.069,-0.07,-0.06
-0.01,-0.014,-0.005,0.012,-0.002,-0.009,-0.055,-0.145,-0.053,-0.073,-0.07,-0.06
-0.031,-0.022,0.009,0.026,-0.02,-0.006,-0.055,-0.145,-0.056,-0.075,-0.07,-0.06
-0.06,-0.041,0.019,0.05,-0.039,-0.011,-0.055,-0.145,-0.054,-0.075,-0.07,-0.06
-0.042,-0.04,0.002,0.041,-0.022,-0.019,-0.055,-0.148,-0.051,-0.078,-0.07,-0.063
-0.031,-0.036,-0.005,0.034,-0.012,-0.021,-0.055,-0.151,-0.05,-0.081,-0.07,-0.066
-0.038,-0.034,0.004,0.036,-0.021,-0.015,-0.049,-0.149,-0.05,-0.079,-0.07,-0.064
-0.05,-0.03,0.02,0.04,-0.035,-0.005,-0.044,-0.15,-0.05,-0.075,-0.07,-0.065
-0.07,-0.03,0.04,0.05,-0.055,0.005,-0.039,-0.149,-0.05,-0.075,-0.07,-0.064
-0.061,-0.025,0.036,0.043,-0.048,0.005,-0.033,-0.151,-0.052,-0.074,-0.07,-0.066
-0.054,-0.025,0.028,0.039,-0.04,0.001,-0.027,-0.155,-0.056,-0.07,-0.07,-0.07
-0.05,-0.024,0.027,0.037,-0.038,0.001,-0.028,-0.154,-0.055,-0.07,-0.07,-0.07
-0.034,-0.019,0.015,0.027,-0.025,-0.002,-0.031,-0.157,-0.055,-0.072,-0.07,-0.072
-0.044,-0.021,0.023,0.032,-0.033,0.001,-0.029,-0.16,-0.055,-0.075,-0.07,-0.075
-0.062,-0.017,0.045,0.039,-0.053,0.014,-0.03,-0.16,-0.055,-0.075,-0.07,-0.075
-0.059,-0.015,0.044,0.036,-0.051,0.014,-0.03,-0.156,-0.06,-0.079,-0.07,-0.075
-0.053,-0.015,0.038,0.034,-0.045,0.011,-0.03,-0.155,-0.06,-0.08,-0.07,-0.075
-0.052,-0.015,0.037,0.033,-0.044,0.011,-0.032,-0.155,-0.06,-0.08,-0.07,-0.075
-0.045,-0.015,0.03,0.03,-0.037,0.007,-0.037,-0.15,-0.06,-0.08,-0.071,-0.075
-0.044,-0.014,0.03,0.029,-0.036,0.007,-0.039,-0.15,-0.06,-0.08,-0.069,-0.075
-0.059,-0.012,0.048,0.035,-0.053,0.018,-0.036,-0.149,-0.058,-0.08,-0.079,-0.074
-0.053,-0.004,0.049,0.028,-0.05,0.022,-0.031,-0.145,-0.053,-0.08,-0.086,-0.07
-0.062,-0.018,0.043,0.04,-0.052,0.012,-0.029,-0.143,-0.05,-0.08,-0.08,-0.07
-0.073,-0.032,0.041,0.052,-0.057,0.005,-0.025,-0.14,-0.047,-0.078,-0.078,-0.067
-0.058,-0.022,0.036,0.04,-0.047,0.006,-0.02,-0.136,-0.042,-0.074,-0.073,-0.064
-0.054,-0.02,0.034,0.037,-0.044,0.006,-0.022,-0.134,-0.039,-0.075,-0.07,-0.065
-0.021,-0.015,0.006,0.018,-0.013,-0.005,-0.025,-0.138,-0.035,-0.075,-0.074,-0.061
-0.01,-0.01,0.0,0.01,-0.005,-0.005,-0.029,-0.143,-0.035,-0.075,-0.075,-0.06
-0.035,-0.014,0.021,0.025,-0.028,0.003,-0.03,-0.145,-0.033,-0.074,-0.075,-0.06
-0.033,-0.015,0.018,0.024,-0.025,0.002,-0.025,-0.145,-0.03,-0.07,-0.075,-0.06
-0.024,-0.016,0.009,0.02,-0.016,-0.003,-0.025,-0.145,-0.029,-0.07,-0.075,-0.06
-0.045,-0.019,0.026,0.032,-0.035,0.003,-0.025,-0.145,-0.034,-0.07,-0.075,-0.059
-0.063,-0.021,0.042,0.042,-0.053,0.011,-0.025,-0.145,-0.041,-0.07,-0.075,-0.055
-0.058,-0.019,0.04,0.038,-0.049,0.01,-0.025,-0.145,-0.04,-0.069,-0.075,-0.055
-0.051,-0.011,0.04,0.031,-0.045,0.014,-0.023,-0.141,-0.04,-0.073,-0.075,-0.055
-0.043,-0.003,0.041,0.023,-0.042,0.019,-0.014,-0.14,-0.04,-0.075,-0.075,-0.055
-0.034,0.005,0.039,0.015,-0.037,0.022,-0.006,-0.14,-0.041,-0.07,-0.075,-0.056
-0.029,0.012,0.04,0.009,-0.035,0.026,0.002,-0.139,-0.038,-0.063,-0.072,-0.051
-0.036,0.026,0.062,0.004,-0.049,0.044,0.01,-0.139,-0.028,-0.056,-0.064,-0.045
-0.025,0.051,0.076,-0.014,-0.051,0.063,0.016,-0.111,-0.02,-0.049,-0.058,-0.039
-0.035,0.056,0.091,-0.011,-0.064,0.074,0.039,-0.092,-0.011,-0.042,-0.05,-0.033
-0.046,0.053,0.098,-0.004,-0.073,0.076,0.049,-0.088,-0.004,-0.042,-0.046,-0.03
-0.007,0.079,0.086,-0.036,-0.047,0.082,0.036,-0.094,0.002,-0.046,-0.05,-0.03
-0.003,0.105,0.108,-0.051,-0.056,0.106,0.026,-0.114,0.01,-0.044,-0.05,-0.03
0.002,0.112,0.11,-0.057,-0.054,0.111,0.014,-0.122,0.016,-0.045,-0.052,-0.03
0.009,0.095,0.086,-0.052,-0.038,0.091,0.006,-0.124,0.016,-0.045,-0.056,-0.03
0.011,0.057,0.046,-0.035,-0.017,0.051,-0.02,-0.125,-0.009,-0.044,-0.054,-0.029
-0.012,0.03,0.042,-0.009,-0.027,0.035,-0.029,-0.135,-0.026,-0.055,-0.056,-0.035
-0.047,0.01,0.057,0.018,-0.052,0.033,-0.031,-0.128,-0.035,-0.062,-0.066,-0.044
-0.052,0.006,0.058,0.023,-0.055,0.031,-0.03,-0.153,-0.045,-0.069,-0.08,-0.057
-0.037,0.0,0.037,0.019,-0.037,0.018,-0.028,-0.134,-0.032,-0.072,-0.075,-0.058
-0.036,-0.006,0.031,0.021,-0.033,0.012,-0.033,-0.155,-0.051,-0.088,-0.085,-0.063
-0.026,-0.01,0.016,0.018,-0.02,0.002,-0.023,-0.141,-0.027,-0.07,-0.075,-0.056
-0.04,-0.026,0.014,0.033,-0.027,-0.006,0.035,-0.086,-0.059,-0.096,-0.093,-0.072
-0.2,-0.132,0.068,0.166,-0.134,-0.032,0.35,0.227,-0.066,-0.212,-0.247,-0.221
0.11,-0.014,-0.124,-0.048,0.117,-0.069,0.156,0.364,-0.008,-0.14,-0.169,-0.143
0.587,0.876,0.288,-0.731,0.149,0.582,-0.674,-0.696,0.548,0.609,0.629,0.586
0.652,1.446,0.794,-1.049,-0.072,1.12,-0.869,-1.271,1.353,1.439,1.373,1.175
0.42,0.708,0.288,-0.564,0.066,0.498,-0.576,-0.948,0.732,0.873,0.84,0.712
-0.03,-0.052,-0.022,0.04,-0.004,-0.037,-0.277,-0.643,-0.138,-0.065,-0.012,0.027
-0.089,-0.1,-0.011,0.095,-0.038,-0.055,-0.073,-0.242,-0.095,-0.14,-0.145,-0.104
-0.038,-0.055,-0.017,0.047,-0.01,-0.036,-0.031,-0.14,-0.068,-0.1,-0.129,-0.092
-0.068,-0.06,0.008,0.064,-0.038,-0.026,0.019,-0.1,-0.057,-0.113,-0.141,-0.103
-0.036,-0.048,-0.012,0.043,-0.012,-0.03,0.039,-0.081,-0.059,-0.106,-0.136,-0.1
-0.059,-0.05,0.009,0.054,-0.034,-0.02,0.047,-0.09,-0.064,-0.115,-0.144,-0.108
-0.062,-0.041,0.021,0.052,-0.041,-0.01,0.049,-0.065,-0.051,-0.103,-0.134,-0.101
-0.098,-0.039,0.059,0.068,-0.078,0.009,0.052,-0.065,-0.06,-0.108,-0.133,-0.098
-0.088,-0.035,0.053,0.061,-0.07,0.009,0.056,-0.04,-0.05,-0.103,-0.125,-0.092
-0.08,-0.033,0.047,0.056,-0.063,0.007,0.062,-0.041,-0.054,-0.103,-0.122,-0.089
-0.079,-0.03,0.049,0.054,-0.064,0.009,0.068,-0.03,-0.046,-0.098,-0.115,-0.084
-0.064,-0.026,0.037,0.045,-0.05,0.005,0.064,-0.028,-0.047,-0.096,-0.11,-0.079
-0.07,-0.025,0.045,0.048,-0.057,0.01,0.065,-0.018,-0.042,-0.093,-0.106,-0.076
-0.074,-0.022,0.053,0.048,-0.063,0.015,0.065,0.001,-0.04,-0.09,-0.103,-0.073
-0.074,-0.016,0.058,0.045,-0.066,0.021,0.064,0.014,-0.038,-0.089,-0.101,-0.071
-0.072,-0.013,0.059,0.042,-0.065,0.023,0.066,0.028,-0.027,-0.084,-0.097,-0.067
-0.07,-0.008,0.062,0.039,-0.066,0.027,0.077,0.043,-0.018,-0.078,-0.095,-0.065
-0.079,-0.001,0.078,0.04,-0.078,0.038,0.087,0.06,-0.007,-0.075,-0.093,-0.063
-0.071,0.01,0.081,0.03,-0.076,0.046,0.09,0.078,0.002,-0.07,-0.088,-0.059
-0.049,0.029,0.078,0.01,-0.064,0.053,0.09,0.102,0.015,-0.066,-0.083,-0.055
-0.044,0.039,0.083,0.002,-0.064,0.06,0.097,0.134,0.036,-0.059,-0.079,-0.052
-0.021,0.054,0.076,-0.017,-0.049,0.065,0.099,0.167,0.056,-0.044,-0.073,-0.047
-0.019,0.074,0.093,-0.028,-0.056,0.083,0.117,0.206,0.072,-0.031,-0.07,-0.045
-0.025,0.088,0.113,-0.032,-0.069,0.1,0.135,0.253,0.098,-0.016,-0.058,-0.038
-0.008,0.109,0.117,-0.051,-0.063,0.113,0.147,0.306,0.129,-0.004,-0.041,-0.03
-0.002,0.129,0.131,-0.064,-0.067,0.13,0.176,0.362,0.157,0.02,-0.027,-0.022
0.012,0.152,0.14,-0.082,-0.064,0.146,0.187,0.417,0.192,0.045,-0.013,-0.014
0.029,0.18,0.151,-0.105,-0.061,0.165,0.2,0.467,0.222,0.062,-0.002,-0.006
0.041,0.202,0.161,-0.121,-0.06,0.181,0.214,0.511,0.239,0.081,0.007,0.007
0.048,0.221,0.173,-0.135,-0.063,0.197,0.221,0.544,0.245,0.082,0.013,0.017
0.06,0.232,0.173,-0.146,-0.057,0.202,0.219,0.546,0.237,0.077,0.018,0.025
0.064,0.23,0.165,-0.147,-0.051,0.197,0.21,0.526,0.231,0.075,0.022,0.033
0.06,0.223,0.163,-0.142,-0.052,0.193,0.198,0.486,0.223,0.07,0.026,0.042
0.061,0.218,0.157,-0.14,-0.048,0.188,0.166,0.415,0.198,0.067,0.03,0.043
0.056,0.209,0.153,-0.133,-0.049,0.181,0.135,0.327,0.166,0.063,0.021,0.034
0.04,0.18,0.14,-0.11,-0.05,0.159,0.105,0.233,0.133,0.053,0.009,0.026
0.038,0.16,0.122,-0.099,-0.042,0.141,0.064,0.14,0.102,0.032,-0.004,0.018
0.035,0.144,0.109,-0.09,-0.037,0.126,0.037,0.063,0.073,0.004,-0.02,0.011
0.009,0.105,0.097,-0.057,-0.044,0.101,0.022,0.01,0.048,-0.011,-0.036,0.001
0.002,0.088,0.086,-0.045,-0.042,0.087,0.007,-0.031,0.037,-0.019,-0.056,-0.011
0.009,0.083,0.074,-0.046,-0.033,0.078,0.005,-0.063,0.031,-0.028,-0.063,-0.022
0.005,0.075,0.07,-0.04,-0.032,0.072,0.005,-0.08,0.024,-0.037,-0.066,-0.033
0.0,0.07,0.07,-0.035,-0.036,0.07,0.001,-0.082,0.018,-0.044,-0.07,-0.035
-0.008,0.061,0.069,-0.027,-0.039,0.065,0.0,-0.077,0.011,-0.045,-0.07,-0.035
-0.009,0.062,0.071,-0.027,-0.04,0.067,0.0,-0.074,0.014,-0.045,-0.07,-0.035
-0.003,0.065,0.068,-0.031,-0.036,0.066,0.005,-0.071,0.023,-0.045,-0.07,-0.035
-0.016,0.065,0.081,-0.025,-0.049,0.073,0.01,-0.067,0.031,-0.045,-0.07,-0.035
-0.021,0.064,0.085,-0.022,-0.053,0.074,0.013,-0.064,0.035,-0.044,-0.07,-0.03
-0.014,0.071,0.086,-0.029,-0.05,0.078,0.019,-0.06,0.035,-0.04,-0.072,-0.03
-0.004,0.081,0.085,-0.039,-0.044,0.082,0.018,-0.06,0.035,-0.037,-0.075,-0.029
0.006,0.079,0.073,-0.043,-0.033,0.076,0.014,-0.06,0.035,-0.035,-0.075,-0.036
-0.031,0.083,0.113,-0.026,-0.072,0.098,0.015,-0.06,0.035,-0.031,-0.075,-0.04
-0.039,0.085,0.125,-0.023,-0.083,0.105,0.015,-0.06,0.03,-0.03,-0.075,-0.033
-0.024,0.085,0.108,-0.031,-0.066,0.096,0.015,-0.064,0.022,-0.03,-0.075,-0.03
-0.027,0.081,0.109,-0.027,-0.068,0.095,0.015,-0.075,0.016,-0.03,-0.075,-0.025
-0.017,0.079,0.097,-0.031,-0.057,0.088,0.01,-0.073,0.008,-0.029,-0.075,-0.02
-0.017,0.08,0.097,-0.032,-0.057,0.088,0.01,-0.083,0.001,-0.032,-0.075,-0.024
-0.025,0.075,0.1,-0.025,-0.063,0.087,0.009,-0.101,-0.006,-0.043,-0.075,-0.025
-0.024,0.075,0.1,-0.025,-0.063,0.087,0.005,-0.105,-0.01,-0.045,-0.075,-0.025
-0.029,0.074,0.103,-0.023,-0.066,0.088,0.005,-0.108,-0.009,-0.047,-0.077,-0.03
-0.035,0.07,0.105,-0.018,-0.07,0.087,0.007,-0.113,-0.013,-0.05,-0.085,-0.03
-0.035,0.07,0.105,-0.018,-0.07,0.087,0.01,-0.122,-0.015,-0.051,-0.089,-0.031
-0.031,0.07,0.101,-0.02,-0.066,0.085,0.013,-0.125,-0.015,-0.055,-0.085,-0.035
-0.025,0.07,0.095,-0.023,-0.06,0.082,0.016,-0.128,-0.015,-0.055,-0.085,-0.034
-0.02,0.07,0.09,-0.025,-0.055,0.08,0.019,-0.129,-0.015,-0.055,-0.085,-0.038
-0.018,0.066,0.084,-0.024,-0.052,0.075,0.02,-0.138,-0.015,-0.055,-0.085,-0.04
-0.013,0.065,0.078,-0.026,-0.046,0.071,0.02,-0.147,-0.015,-0.055,-0.085,-0.04
-0.011,0.065,0.076,-0.027,-0.044,0.07,0.02,-0.144,-0.015,-0.052,-0.085,-0.036
-0.025,0.06,0.085,-0.018,-0.055,0.072,0.02,-0.145,-0.017,-0.048,-0.085,-0.035
-0.034,0.06,0.094,-0.013,-0.064,0.077,0.02,-0.145,-0.02,-0.044,-0.085,-0.035
-0.036,0.059,0.095,-0.012,-0.065,0.076,0.02,-0.145,-0.023,-0.042,-0.085,-0.03
-0.041,0.054,0.096,-0.007,-0.069,0.075,0.018,-0.149,-0.025,-0.034,-0.085,-0.03
-0.044,0.055,0.099,-0.006,-0.072,0.077,0.014,-0.15,-0.029,-0.041,-0.085,-0.031
-0.048,0.052,0.101,-0.002,-0.075,0.076,0.015,-0.15,-0.03,-0.06,-0.09,-0.037
-0.049,0.05,0.098,-0.001,-0.073,0.074,0.015,-0.15,-0.03,-0.06,-0.09,-0.044
-0.045,0.05,0.095,-0.003,-0.07,0.072,0.015,-0.15,-0.03,-0.06,-0.091,-0.045
-0.039,0.053,0.093,-0.007,-0.066,0.073,0.016,-0.151,-0.03,-0.06,-0.095,-0.045
-0.027,0.061,0.089,-0.017,-0.058,0.075,0.006,-0.155,-0.03,-0.06,-0.095,-0.05
-0.023,0.065,0.088,-0.021,-0.056,0.076,0.021,-0.154,-0.03,-0.058,-0.093,-0.05
-0.016,0.065,0.081,-0.025,-0.049,0.073,0.037,-0.157,-0.029,-0.054,-0.09,-0.051
-0.026,0.065,0.091,-0.02,-0.059,0.078,0.029,-0.16,-0.025,-0.056,-0.087,-0.055
-0.042,0.065,0.107,-0.012,-0.075,0.086,0.028,-0.16,-0.025,-0.051,-0.084,-0.055
-0.035,0.065,0.1,-0.015,-0.068,0.082,0.023,-0.164,-0.023,-0.05,-0.08,-0.057
-0.036,0.062,0.098,-0.013,-0.067,0.079,0.02,-0.165,-0.019,-0.05,-0.08,-0.06
-0.034,0.059,0.093,-0.013,-0.064,0.076,0.02,-0.165,-0.021,-0.045,-0.084,-0.06
-0.034,0.056,0.09,-0.011,-0.063,0.072,0.02,-0.165,-0.016,-0.045,-0.085,-0.057
-0.032,0.054,0.086,-0.011,-0.06,0.07,0.02,-0.165,-0.015,-0.045,-0.084,-0.052
-0.027,0.049,0.076,-0.012,-0.051,0.063,0.02,-0.164,-0.015,-0.045,-0.088,-0.049
-0.047,0.051,0.099,-0.003,-0.073,0.075,0.02,-0.16,-0.01,-0.045,-0.09,-0.046
-0.053,0.063,0.116,-0.005,-0.085,0.09,0.021,-0.16,-0.01,-0.048,-0.085,-0.041
-0.04,0.067,0.108,-0.014,-0.074,0.087,0.025,-0.16,-0.011,-0.05,-0.085,-0.041
-0.033,0.072,0.104,-0.02,-0.069,0.088,0.024,-0.16,-0.015,-0.05,-0.084,-0.045
-0.026,0.075,0.101,-0.025,-0.064,0.088,0.028,-0.16,-0.019,-0.05,-0.08,-0.045
-0.018,0.075,0.092,-0.029,-0.056,0.084,0.03,-0.163,-0.022,-0.05,-0.08,-0.048
-0.023,0.075,0.098,-0.026,-0.061,0.086,0.03,-0.167,-0.027,-0.05,-0.082,-0.05
-0.036,0.075,0.111,-0.019,-0.074,0.092,0.034,-0.169,-0.03,-0.045,-0.085,-0.05
-0.03,0.075,0.106,-0.023,-0.069,0.09,0.036,-0.174,-0.027,-0.045,-0.085,-0.046
-0.031,0.071,0.102,-0.02,-0.066,0.086,0.039,-0.173,-0.024,-0.044,-0.085,-0.045
-0.03,0.07,0.1,-0.02,-0.065,0.085,0.041,-0.17,-0.025,-0.04,-0.085,-0.045
-0.021,0.069,0.091,-0.024,-0.056,0.079,0.045,-0.167,-0.025,-0.04,-0.085,-0.04
-0.035,0.066,0.101,-0.015,-0.069,0.083,0.044,-0.165,-0.025,-0.043,-0.085,-0.04
-0.054,0.064,0.118,-0.005,-0.087,0.091,0.039,-0.162,-0.024,-0.045,-0.084,-0.039
-0.042,0.066,0.109,-0.012,-0.076,0.087,0.041,-0.158,-0.02,-0.045,-0.088,-0.035
-0.029,0.072,0.101,-0.022,-0.065,0.086,0.037,-0.172,-0.02,-0.045,-0.09,-0.033
-0.024,0.072,0.096,-0.024,-0.06,0.083,0.036,-0.182,-0.02,-0.045,-0.09,-0.03
-0.014,0.07,0.084,-0.028,-0.049,0.077,0.033,-0.174,-0.02,-0.045,-0.09,-0.027
-0.036,0.067,0.103,-0.016,-0.07,0.085,0.044,-0.173,-0.02,-0.039,-0.09,-0.024
-0.058,0.066,0.123,-0.004,-0.091,0.094,0.062,-0.169,-0.016,-0.033,-0.089,-0.029
-0.054,0.062,0.116,-0.005,-0.086,0.089,0.061,-0.163,-0.015,-0.029,-0.085,-0.029
-0.031,0.083,0.115,-0.027,-0.074,0.099,0.067,-0.179,-0.015,-0.024,-0.08,-0.024
-0.01,0.102,0.112,-0.046,-0.061,0.107,0.068,-0.185,-0.016,-0.016,-0.076,-0.021
-0.009,0.098,0.108,-0.044,-0.058,0.103,0.071,-0.169,-0.014,-0.024,-0.072,-0.018
-0.005,0.12,0.125,-0.058,-0.065,0.122,0.074,-0.161,0.0,-0.027,-0.066,-0.013
-0.034,0.134,0.168,-0.05,-0.101,0.151,0.079,-0.159,0.014,-0.014,-0.063,-0.01
-0.032,0.137,0.169,-0.053,-0.1,0.152,0.105,-0.153,0.024,-0.005,-0.058,-0.006
0.006,0.17,0.164,-0.088,-0.079,0.166,0.088,-0.157,0.036,0.005,-0.055,0.001
-0.002,0.199,0.201,-0.099,-0.102,0.2,0.054,-0.151,0.037,0.015,-0.06,0.005
-0.001,0.195,0.196,-0.097,-0.099,0.195,0.056,-0.151,0.025,0.025,-0.059,0.013
0.005,0.168,0.163,-0.087,-0.079,0.166,0.055,-0.15,0.022,0.033,-0.064,0.013
0.02,0.133,0.113,-0.077,-0.046,0.122,0.049,-0.154,0.011,0.02,-0.064,0.003
-0.001,0.105,0.106,-0.053,-0.053,0.105,0.052,-0.191,0.006,0.007,-0.069,-0.009
-0.026,0.083,0.109,-0.029,-0.068,0.096,0.048,-0.189,0.001,-0.01,-0.085,-0.027
-0.025,0.083,0.107,-0.029,-0.066,0.095,0.059,-0.204,-0.009,-0.028,-0.091,-0.036
-0.026,0.068,0.094,-0.022,-0.06,0.081,0.051,-0.184,-0.003,-0.02,-0.089,-0.035
-0.028,0.07,0.098,-0.021,-0.063,0.084,0.064,-0.2,-0.023,-0.031,-0.091,-0.039
0.003,0.056,0.053,-0.03,-0.025,0.054,0.052,-0.187,-0.007,-0.017,-0.088,-0.04
-0.031,0.037,0.068,-0.004,-0.05,0.053,0.116,-0.129,-0.033,-0.044,-0.104,-0.055
-0.14,-0.063,0.076,0.101,-0.108,0.006,0.466,0.258,-0.022,-0.153,-0.255,-0.208
0.18,0.135,-0.045,-0.157,0.112,0.045,0.176,0.301,0.05,-0.023,-0.101,-0.059
0.566,1.105,0.539,-0.836,0.013,0.821,-0.643,-0.843,0.734,0.819,0.76,0.714
0.616,1.431,0.815,-1.024,-0.1,1.123,-0.699,-1.224,1.511,1.496,1.267,1.073
0.345,0.582,0.237,-0.464,0.054,0.41,-0.353,-0.89,0.705,0.746,0.608,0.535
-0.086,-0.029,0.057,0.057,-0.071,0.014,-0.134,-0.688,-0.138,-0.078,-0.096,-0.002
-0.119,-0.051,0.069,0.085,-0.094,0.009,0.008,-0.304,-0.055,-0.082,-0.152,-0.091
-0.073,0.0,0.072,0.036,-0.072,0.036,0.075,-0.207,-0.041,-0.062,-0.132,-0.072
-0.083,-0.002,0.081,0.042,-0.082,0.039,0.101,-0.153,-0.03,-0.061,-0.146,-0.079
-0.049,0.018,0.067,0.015,-0.058,0.042,0.109,-0.139,-0.04,-0.058,-0.135,-0.07
-0.07,0.021,0.091,0.024,-0.081,0.056,0.132,-0.142,-0.034,-0.063,-0.144,-0.072
-0.051,0.029,0.08,0.01,-0.065,0.054,0.13,-0.122,-0.024,-0.057,-0.137,-0.067
-0.039,0.036,0.075,0.001,-0.057,0.056,0.134,-0.13,-0.026,-0.062,-0.141,-0.063
-0.027,0.04,0.066,-0.007,-0.046,0.053,0.136,-0.109,-0.012,-0.052,-0.133,-0.057
-0.008,0.042,0.05,-0.018,-0.029,0.046,0.137,-0.111,-0.015,-0.053,-0.129,-0.054
-0.032,0.046,0.078,-0.007,-0.056,0.062,0.143,-0.099,-0.007,-0.047,-0.125,-0.048
-0.068,0.047,0.115,0.01,-0.092,0.081,0.143,-0.095,-0.012,-0.044,-0.12,-0.046
-0.052,0.055,0.107,-0.002,-0.079,0.08,0.148,-0.086,-0.009,-0.04,-0.116,-0.055
-0.022,0.082,0.103,-0.03,-0.063,0.092,0.149,-0.077,-0.01,-0.036,-0.111,-0.055
-0.017,0.087,0.104,-0.035,-0.061,0.096,0.152,-0.072,-0.01,-0.03,-0.109,-0.055
-0.005,0.089,0.094,-0.042,-0.05,0.092,0.16,-0.062,0.001,-0.022,-0.106,-0.052
-0.015,0.094,0.109,-0.04,-0.062,0.101,0.16,-0.044,0.009,-0.016,-0.103,-0.049
-0.035,0.095,0.131,-0.03,-0.084,0.113,0.161,-0.018,0.023,-0.009,-0.1,-0.05
-0.033,0.1,0.133,-0.034,-0.083,0.116,0.177,0.009,0.039,-0.004,-0.099,-0.044
-0.037,0.099,0.136,-0.031,-0.087,0.117,0.19,0.023,0.056,0.004,-0.094,-0.039
-0.035,0.105,0.14,-0.035,-0.087,0.122,0.195,0.043,0.075,0.014,-0.088,-0.034
-0.035,0.119,0.154,-0.042,-0.095,0.137,0.202,0.074,0.086,0.021,-0.085,-0.027
-0.017,0.144,0.16,-0.064,-0.089,0.152,0.205,0.112,0.113,0.034,-0.079,-0.023
0.003,0.179,0.176,-0.091,-0.087,0.177,0.21,0.152,0.138,0.043,-0.076,-0.017
0.005,0.193,0.188,-0.099,-0.092,0.19,0.231,0.206,0.172,0.064,-0.068,-0.008
0.021,0.203,0.183,-0.112,-0.081,0.193,0.248,0.267,0.215,0.091,-0.047,0.0
0.036,0.223,0.187,-0.13,-0.076,0.205,0.262,0.316,0.243,0.099,-0.031,0.009
0.063,0.245,0.182,-0.155,-0.06,0.213,0.286,0.373,0.282,0.129,-0.021,0.02
0.06,0.265,0.205,-0.163,-0.073,0.235,0.293,0.41,0.306,0.149,-0.014,0.031
0.051,0.277,0.226,-0.164,-0.088,0.251,0.285,0.42,0.304,0.151,-0.008,0.035
0.077,0.291,0.214,-0.184,-0.069,0.253,0.276,0.415,0.299,0.156,0.0,0.036
0.08,0.29,0.209,-0.185,-0.065,0.25,0.267,0.406,0.293,0.148,0.004,0.05
0.081,0.282,0.202,-0.182,-0.061,0.242,0.259,0.371,0.284,0.141,0.0,0.058
0.084,0.276,0.192,-0.18,-0.054,0.233,0.243,0.3,0.255,0.135,-0.004,0.053
0.067,0.27,0.203,-0.168,-0.068,0.236,0.217,0.213,0.215,0.126,-0.007,0.048
0.058,0.258,0.2,-0.158,-0.071,0.229,0.189,0.108,0.176,0.11,-0.012,0.042
0.046,0.226,0.179,-0.136,-0.067,0.202,0.167,0.015,0.145,0.094,-0.013,0.036
0.028,0.204,0.175,-0.116,-0.074,0.189,0.15,-0.065,0.112,0.077,-0.029,0.032
0.023,0.192,0.169,-0.108,-0.073,0.18,0.136,-0.127,0.082,0.059,-0.051,0.025
0.015,0.179,0.164,-0.097,-0.074,0.171,0.134,-0.165,0.065,0.047,-0.059,0.017
0.009,0.167,0.159,-0.088,-0.075,0.163,0.135,-0.192,0.048,0.039,-0.071,0.011
0.005,0.16,0.155,-0.083,-0.075,0.157,0.135,-0.209,0.04,0.03,-0.078,0.003
0.0,0.155,0.155,-0.078,-0.078,0.155,0.135,-0.216,0.037,0.021,-0.075,-0.005
-0.004,0.151,0.155,-0.074,-0.079,0.152,0.135,-0.215,0.033,0.024,-0.075,-0.008
-0.009,0.146,0.155,-0.069,-0.083,0.15,0.139,-0.214,0.03,0.025,-0.075,-0.005
-0.012,0.142,0.154,-0.065,-0.084,0.148,0.14,-0.211,0.024,0.025,-0.075,-0.005
-0.022,0.137,0.159,-0.057,-0.091,0.147,0.142,-0.21,0.029,0.025,-0.075,-0.005
-0.024,0.135,0.16,-0.055,-0.093,0.147,0.146,-0.209,0.04,0.024,-0.071,-0.005
-0.011,0.15,0.16,-0.07,-0.086,0.154,0.145,-0.205,0.04,0.028,-0.07,-0.005
-0.003,0.157,0.16,-0.077,-0.082,0.158,0.145,-0.205,0.04,0.03,-0.07,-0.001
-0.001,0.158,0.159,-0.079,-0.08,0.158,0.145,-0.205,0.04,0.034,-0.07,0.0
0.009,0.163,0.154,-0.087,-0.073,0.159,0.145,-0.205,0.04,0.035,-0.07,0.0
0.015,0.164,0.15,-0.09,-0.068,0.157,0.146,-0.206,0.04,0.03,-0.071,0.004
-0.012,0.16,0.173,-0.074,-0.092,0.166,0.144,-0.208,0.04,0.03,-0.076,0.006
-0.022,0.16,0.182,-0.069,-0.102,0.171,0.143,-0.214,0.035,0.029,-0.074,0.003
-0.017,0.159,0.175,-0.071,-0.096,0.167,0.136,-0.216,0.03,0.025,-0.076,0.0
-0.02,0.155,0.175,-0.068,-0.098,0.165,0.135,-0.225,0.025,0.025,-0.074,-0.003
-0.016,0.154,0.17,-0.069,-0.094,0.162,0.131,-0.235,0.021,0.023,-0.078,-0.005
-0.012,0.157,0.169,-0.073,-0.091,0.163,0.125,-0.24,0.017,0.018,-0.094,-0.009
-0.005,0.16,0.166,-0.078,-0.085,0.163,0.127,-0.248,0.011,0.015,-0.096,-0.01
-0.002,0.16,0.161,-0.079,-0.081,0.16,0.122,-0.249,0.011,0.011,-0.094,-0.01
0.005,0.164,0.159,-0.084,-0.077,0.161,0.142,-0.263,0.001,0.008,-0.091,-0.01
0.011,0.165,0.155,-0.088,-0.073,0.16,0.136,-0.258,0.007,0.003,-0.089,-0.01
0.015,0.165,0.149,-0.09,-0.067,0.157,0.142,-0.272,-0.009,0.002,-0.09,-0.01
0.007,0.165,0.158,-0.086,-0.076,0.161,0.128,-0.259,0.001,-0.003,-0.089,-0.01
-0.002,0.165,0.167,-0.082,-0.085,0.166,0.137,-0.28,-0.016,-0.003,-0.09,-0.01
0.001,0.165,0.163,-0.083,-0.082,0.164,0.12,-0.243,0.002,-0.015,-0.09,-0.01
