-0.079,-0.414,-0.335,0.247,0.128,-0.374,0.13,0.016,-0.045,0.015,0.08,0.025
-0.076,-0.408,-0.332,0.242,0.128,-0.37,0.129,0.021,-0.045,0.018,0.081,0.02
-0.075,-0.403,-0.328,0.239,0.127,-0.365,0.132,0.027,-0.044,0.021,0.08,0.01
-0.07,-0.394,-0.324,0.232,0.127,-0.359,0.147,0.035,-0.046,0.027,0.081,0.035
-0.081,-0.378,-0.297,0.23,0.108,-0.338,0.164,0.049,-0.021,0.029,0.096,0.057
-0.083,-0.331,-0.248,0.207,0.083,-0.289,0.184,0.073,0.009,0.043,0.122,0.063
-0.067,-0.295,-0.228,0.182,0.081,-0.262,0.183,0.07,-0.001,0.057,0.125,0.073
-0.057,-0.283,-0.226,0.17,0.085,-0.254,0.14,0.06,-0.004,0.069,0.124,0.077
-0.037,-0.275,-0.238,0.157,0.101,-0.256,0.103,0.055,-0.013,0.066,0.139,0.073
-0.022,-0.309,-0.287,0.166,0.132,-0.298,0.111,0.042,-0.021,0.052,0.122,0.069
-0.052,-0.339,-0.287,0.196,0.118,-0.313,0.117,0.04,-0.033,0.045,0.102,0.068
-0.09,-0.365,-0.275,0.228,0.093,-0.319,0.114,0.012,-0.069,0.019,0.085,0.033
-0.105,-0.367,-0.262,0.236,0.079,-0.314,0.114,0.017,-0.055,0.018,0.087,0.028
-0.124,-0.404,-0.28,0.264,0.078,-0.342,0.118,-0.006,-0.08,-0.012,0.061,0.008
-0.102,-0.372,-0.27,0.238,0.084,-0.321,0.108,0.007,-0.053,0.013,0.07,0.019
-0.111,-0.441,-0.331,0.276,0.11,-0.386,0.166,0.069,-0.092,-0.042,0.027,-0.027
-0.105,-0.485,-0.379,0.295,0.137,-0.432,0.34,0.452,0.03,-0.06,-0.018,-0.104
0.097,-0.017,-0.114,-0.04,0.106,-0.065,0.232,0.551,0.484,0.363,0.347,0.231
0.341,0.676,0.335,-0.509,0.003,0.506,-0.395,-0.621,0.888,1.105,1.047,0.864
0.333,0.98,0.647,-0.656,-0.157,0.813,-0.822,-1.485,0.743,1.307,1.305,1.115
0.006,0.267,0.262,-0.137,-0.128,0.264,-0.65,-1.438,-0.33,0.316,0.499,0.524
-0.205,-0.405,-0.201,0.305,-0.001,-0.303,-0.349,-0.989,-0.704,-0.264,-0.087,-0.012
-0.159,-0.392,-0.233,0.275,0.037,-0.312,-0.079,-0.311,-0.252,-0.07,0.014,-0.012
-0.13,-0.414,-0.284,0.272,0.077,-0.348,0.073,-0.073,-0.178,-0.07,-0.007,-0.026
-0.119,-0.397,-0.279,0.258,0.08,-0.338,0.089,-0.014,-0.141,-0.03,0.009,-0.017
-0.112,-0.393,-0.28,0.253,0.084,-0.336,0.111,0.022,-0.137,-0.033,0.013,-0.013
-0.103,-0.392,-0.289,0.248,0.093,-0.34,0.118,0.03,-0.127,-0.032,0.011,-0.015
-0.099,-0.379,-0.279,0.24,0.09,-0.329,0.126,0.063,-0.11,-0.021,0.036,-0.005
-0.099,-0.382,-0.283,0.241,0.093,-0.333,0.13,0.062,-0.111,-0.027,0.036,-0.022
-0.091,-0.368,-0.277,0.23,0.093,-0.322,0.13,0.068,-0.092,-0.014,0.043,-0.024
-0.091,-0.37,-0.28,0.231,0.095,-0.325,0.13,0.063,-0.095,-0.017,0.037,-0.023
-0.086,-0.359,-0.273,0.223,0.094,-0.315,0.129,0.078,-0.081,-0.002,0.042,-0.015
-0.082,-0.357,-0.276,0.22,0.097,-0.316,0.131,0.094,-0.077,-0.002,0.039,-0.013
-0.078,-0.35,-0.271,0.214,0.097,-0.31,0.128,0.111,-0.064,0.009,0.042,-0.007
-0.073,-0.34,-0.267,0.206,0.097,-0.303,0.122,0.123,-0.055,0.013,0.048,-0.004
-0.065,-0.33,-0.265,0.198,0.1,-0.297,0.117,0.133,-0.045,0.023,0.049,0.005
-0.059,-0.319,-0.26,0.189,0.101,-0.289,0.113,0.141,-0.034,0.035,0.061,0.014
-0.04,-0.297,-0.257,0.169,0.109,-0.277,0.108,0.164,-0.011,0.049,0.086,0.029
-0.027,-0.281,-0.253,0.154,0.113,-0.267,0.105,0.196,0.017,0.082,0.091,0.052
-0.018,-0.268,-0.25,0.143,0.116,-0.259,0.096,0.218,0.036,0.111,0.124,0.071
0.019,-0.232,-0.251,0.106,0.135,-0.241,0.084,0.256,0.071,0.149,0.164,0.098
0.056,-0.183,-0.239,0.063,0.148,-0.21,0.069,0.288,0.116,0.195,0.195,0.129
0.079,-0.127,-0.206,0.024,0.143,-0.166,0.041,0.313,0.161,0.249,0.26,0.179
0.106,-0.069,-0.175,-0.018,0.141,-0.122,0.007,0.346,0.209,0.325,0.319,0.237
0.159,-0.007,-0.166,-0.075,0.162,-0.086,-0.022,0.363,0.258,0.386,0.369,0.293
0.183,0.035,-0.148,-0.108,0.165,-0.056,-0.043,0.352,0.29,0.427,0.417,0.335
0.158,0.068,-0.09,-0.113,0.124,-0.011,-0.049,0.34,0.313,0.464,0.453,0.361
0.171,0.093,-0.078,-0.132,0.124,0.008,-0.042,0.33,0.328,0.46,0.448,0.361
0.169,0.071,-0.098,-0.12,0.133,-0.013,-0.02,0.314,0.302,0.425,0.41,0.328
0.111,0.005,-0.106,-0.058,0.108,-0.05,0.022,0.291,0.266,0.375,0.346,0.274
0.067,-0.07,-0.137,0.002,0.103,-0.103,0.071,0.257,0.219,0.288,0.254,0.201
0.015,-0.134,-0.149,0.059,0.082,-0.141,0.102,0.221,0.153,0.203,0.183,0.138
-0.026,-0.198,-0.172,0.112,0.073,-0.184,0.106,0.176,0.092,0.143,0.12,0.086
-0.037,-0.226,-0.189,0.132,0.076,-0.207,0.104,0.136,0.037,0.093,0.083,0.053
-0.069,-0.251,-0.182,0.161,0.057,-0.216,0.102,0.113,-0.001,0.064,0.059,0.043
-0.09,-0.276,-0.186,0.183,0.048,-0.231,0.099,0.099,-0.016,0.058,0.033,0.03
-0.091,-0.27,-0.179,0.18,0.044,-0.225,0.101,0.077,-0.023,0.055,0.041,0.02
-0.093,-0.27,-0.177,0.182,0.042,-0.223,0.104,0.055,-0.036,0.051,0.039,0.015
-0.097,-0.27,-0.173,0.184,0.038,-0.221,0.105,0.054,-0.041,0.047,0.03,0.01
-0.1,-0.27,-0.17,0.185,0.035,-0.22,0.106,0.055,-0.039,0.044,0.024,0.021
-0.105,-0.27,-0.165,0.188,0.03,-0.217,0.11,0.057,-0.04,0.039,0.015,0.026
-0.104,-0.271,-0.167,0.188,0.031,-0.218,0.11,0.061,-0.04,0.033,0.01,0.02
-0.089,-0.275,-0.186,0.182,0.049,-0.23,0.107,0.06,-0.04,0.029,0.004,0.018
-0.087,-0.275,-0.188,0.181,0.051,-0.231,0.105,0.055,-0.042,0.023,0.005,0.013
-0.095,-0.275,-0.18,0.185,0.043,-0.227,0.101,0.047,-0.046,0.017,0.005,0.01
-0.098,-0.275,-0.177,0.187,0.04,-0.225,0.099,0.04,-0.049,0.015,0.005,0.006
-0.106,-0.275,-0.169,0.191,0.032,-0.222,0.096,0.034,-0.053,0.015,0.005,0.004
-0.105,-0.271,-0.166,0.189,0.031,-0.218,0.095,0.024,-0.055,0.015,0.002,0.005
-0.101,-0.269,-0.169,0.185,0.034,-0.219,0.096,0.026,-0.062,0.015,-0.004,0.004
-0.096,-0.27,-0.174,0.183,0.039,-0.222,0.094,0.033,-0.073,0.015,-0.008,0.005
-0.097,-0.27,-0.173,0.184,0.038,-0.221,0.104,0.023,-0.079,0.014,-0.013,0.004
-0.1,-0.27,-0.169,0.185,0.034,-0.22,0.111,0.015,-0.086,0.01,-0.017,-0.008
-0.101,-0.272,-0.17,0.186,0.035,-0.221,0.11,0.005,-0.093,0.005,-0.022,-0.02
-0.11,-0.276,-0.166,0.193,0.028,-0.221,0.108,-0.003,-0.103,0.001,-0.027,-0.03
-0.11,-0.274,-0.165,0.192,0.028,-0.219,0.105,-0.006,-0.11,-0.004,-0.033,-0.036
-0.105,-0.27,-0.165,0.188,0.03,-0.217,0.105,-0.01,-0.11,-0.008,-0.039,-0.035
-0.11,-0.269,-0.159,0.19,0.025,-0.214,0.102,-0.013,-0.11,-0.013,-0.037,-0.035
-0.111,-0.263,-0.153,0.187,0.021,-0.208,0.099,-0.018,-0.11,-0.018,-0.055,-0.035
-0.123,-0.27,-0.147,0.197,0.013,-0.208,0.096,-0.02,-0.11,-0.025,-0.073,-0.035
-0.138,-0.281,-0.143,0.21,0.002,-0.212,0.093,-0.025,-0.11,-0.029,-0.069,-0.038
-0.142,-0.28,-0.137,0.211,-0.003,-0.208,0.091,-0.025,-0.105,-0.026,-0.07,-0.045
-0.146,-0.28,-0.134,0.213,-0.006,-0.207,0.088,-0.025,-0.105,-0.025,-0.07,-0.051
-0.152,-0.28,-0.128,0.216,-0.012,-0.204,0.085,-0.025,-0.104,-0.024,-0.069,-0.049
-0.152,-0.278,-0.125,0.215,-0.013,-0.201,0.085,-0.026,-0.099,-0.02,-0.075,-0.057
-0.142,-0.273,-0.131,0.208,-0.005,-0.202,0.083,-0.041,-0.101,-0.019,-0.078,-0.063
-0.138,-0.27,-0.131,0.204,-0.003,-0.201,0.079,-0.046,-0.097,-0.029,-0.075,-0.058
-0.139,-0.267,-0.128,0.203,-0.005,-0.197,0.08,-0.041,-0.095,-0.037,-0.075,-0.056
-0.137,-0.262,-0.125,0.2,-0.005,-0.193,0.083,-0.04,-0.095,-0.034,-0.075,-0.053
-0.137,-0.259,-0.122,0.198,-0.007,-0.19,0.086,-0.035,-0.091,-0.035,-0.075,-0.05
-0.136,-0.255,-0.119,0.196,-0.008,-0.187,0.084,-0.035,-0.09,-0.035,-0.075,-0.051
-0.132,-0.255,-0.123,0.194,-0.004,-0.189,0.086,-0.03,-0.09,-0.035,-0.075,-0.055
-0.127,-0.254,-0.127,0.191,0.0,-0.19,0.084,-0.03,-0.09,-0.032,-0.075,-0.059
-0.127,-0.249,-0.123,0.188,-0.002,-0.186,0.087,-0.029,-0.09,-0.027,-0.075,-0.061
-0.13,-0.251,-0.121,0.19,-0.004,-0.186,0.09,-0.024,-0.09,-0.025,-0.075,-0.06
-0.13,-0.247,-0.116,0.189,-0.007,-0.182,0.09,-0.026,-0.09,-0.02,-0.075,-0.06
-0.122,-0.238,-0.116,0.18,-0.002,-0.177,0.091,-0.022,-0.091,-0.017,-0.074,-0.06
-0.119,-0.227,-0.108,0.173,-0.005,-0.167,0.087,-0.016,-0.084,-0.013,-0.066,-0.059
-0.113,-0.198,-0.085,0.155,-0.014,-0.141,0.115,0.007,-0.062,-0.007,-0.059,-0.05
-0.09,-0.156,-0.066,0.123,-0.012,-0.11,0.144,0.034,-0.048,0.007,-0.052,-0.04
-0.078,-0.145,-0.067,0.112,-0.005,-0.106,0.139,0.027,-0.053,0.015,-0.043,-0.023
-0.079,-0.133,-0.054,0.106,-0.012,-0.094,0.11,0.027,-0.045,0.035,-0.023,0.005
-0.072,-0.13,-0.057,0.102,-0.007,-0.094,0.075,0.022,-0.049,0.04,-0.027,0.001
-0.063,-0.164,-0.101,0.114,0.019,-0.132,0.069,0.018,-0.04,0.03,-0.037,-0.007
-0.073,-0.204,-0.131,0.139,0.029,-0.167,0.071,0.016,-0.061,0.008,-0.055,-0.016
-0.097,-0.225,-0.127,0.161,0.015,-0.176,0.07,-0.003,-0.085,-0.01,-0.074,-0.038
-0.113,-0.226,-0.113,0.17,0.0,-0.169,0.069,0.0,-0.08,-0.012,-0.071,-0.044
-0.123,-0.248,-0.125,0.186,0.002,-0.187,0.073,-0.037,-0.102,-0.039,-0.103,-0.058
-0.128,-0.215,-0.087,0.171,-0.02,-0.151,0.068,-0.017,-0.06,-0.008,-0.076,-0.042
-0.151,-0.335,-0.183,0.244,0.016,-0.259,0.167,0.106,-0.096,-0.09,-0.151,-0.123
-0.105,-0.283,-0.178,0.194,0.037,-0.231,0.346,0.55,0.151,-0.006,-0.124,-0.121
0.103,0.268,0.165,-0.186,-0.031,0.216,0.112,0.458,0.64,0.533,0.356,0.295
0.313,0.933,0.621,-0.623,-0.154,0.777,-0.55,-0.765,0.994,1.287,1.043,0.876
0.21,1.016,0.806,-0.613,-0.299,0.911,-0.833,-1.463,0.57,1.179,1.032,0.914
-0.133,0.192,0.325,-0.03,-0.229,0.258,-0.591,-1.347,-0.582,0.031,0.13,0.258
-0.256,-0.264,-0.007,0.26,-0.124,-0.135,-0.303,-0.839,-0.639,-0.281,-0.208,-0.097
-0.19,-0.221,-0.03,0.206,-0.08,-0.125,-0.063,-0.246,-0.209,-0.067,-0.092,-0.065
-0.164,-0.27,-0.106,0.217,-0.028,-0.188,0.051,-0.093,-0.178,-0.078,-0.127,-0.089
-0.155,-0.248,-0.092,0.202,-0.031,-0.17,0.075,-0.039,-0.105,-0.026,-0.092,-0.074
-0.134,-0.265,-0.131,0.2,-0.002,-0.197,0.094,-0.013,-0.116,-0.052,-0.107,-0.083
-0.131,-0.251,-0.119,0.191,-0.006,-0.185,0.096,-0.007,-0.082,-0.024,-0.092,-0.079
-0.144,-0.245,-0.101,0.195,-0.021,-0.173,0.103,0.011,-0.072,-0.023,-0.091,-0.074
-0.136,-0.242,-0.106,0.189,-0.015,-0.174,0.098,0.031,-0.066,-0.018,-0.088,-0.069
-0.135,-0.229,-0.094,0.182,-0.02,-0.162,0.101,0.057,-0.054,-0.01,-0.076,-0.059
-0.132,-0.23,-0.098,0.182,-0.017,-0.164,0.1,0.052,-0.055,-0.011,-0.076,-0.056
-0.131,-0.219,-0.088,0.175,-0.021,-0.153,0.099,0.061,-0.04,0.0,-0.063,-0.046
-0.124,-0.218,-0.094,0.171,-0.015,-0.156,0.112,0.075,-0.034,0.002,-0.061,-0.044
-0.1,-0.21,-0.11,0.155,0.005,-0.16,0.112,0.089,-0.014,0.017,-0.052,-0.036
-0.095,-0.205,-0.109,0.15,0.007,-0.157,0.106,0.089,-0.007,0.023,-0.048,-0.035
-0.104,-0.201,-0.097,0.153,-0.004,-0.149,0.101,0.102,0.007,0.036,-0.038,-0.027
-0.093,-0.188,-0.095,0.141,0.001,-0.141,0.094,0.12,0.029,0.046,-0.034,-0.026
-0.082,-0.176,-0.095,0.13,0.007,-0.136,0.09,0.147,0.049,0.07,-0.016,-0.006
-0.059,-0.155,-0.096,0.108,0.018,-0.125,0.082,0.175,0.077,0.097,0.026,0.016
-0.017,-0.109,-0.092,0.063,0.038,-0.1,0.073,0.2,0.105,0.123,0.049,0.029
0.001,-0.075,-0.077,0.037,0.039,-0.076,0.059,0.242,0.146,0.174,0.089,0.064
0.007,-0.057,-0.063,0.025,0.035,-0.06,0.038,0.284,0.2,0.232,0.148,0.11
0.045,-0.004,-0.049,-0.02,0.047,-0.026,0.007,0.318,0.25,0.293,0.205,0.174
0.095,0.068,-0.027,-0.081,0.061,0.021,-0.025,0.339,0.294,0.364,0.265,0.227
0.113,0.111,-0.002,-0.112,0.057,0.054,-0.052,0.342,0.341,0.424,0.318,0.277
0.121,0.165,0.045,-0.143,0.038,0.105,-0.066,0.34,0.376,0.47,0.38,0.319
0.109,0.189,0.08,-0.149,0.014,0.135,-0.065,0.353,0.4,0.504,0.412,0.333
0.099,0.173,0.074,-0.136,0.012,0.124,-0.066,0.329,0.387,0.487,0.393,0.334
0.091,0.157,0.066,-0.124,0.012,0.111,-0.03,0.295,0.344,0.442,0.346,0.289
0.043,0.096,0.054,-0.07,-0.006,0.074,0.03,0.276,0.304,0.371,0.276,0.218
0.002,0.032,0.03,-0.017,-0.014,0.03,0.072,0.235,0.249,0.286,0.197,0.156
-0.021,-0.026,-0.005,0.024,-0.007,-0.016,0.098,0.196,0.187,0.207,0.117,0.092
-0.055,-0.075,-0.02,0.065,-0.017,-0.047,0.116,0.155,0.134,0.139,0.062,0.042
-0.078,-0.106,-0.027,0.092,-0.025,-0.066,0.126,0.116,0.088,0.1,0.031,0.02
-0.105,-0.142,-0.037,0.123,-0.033,-0.089,0.124,0.093,0.055,0.076,0.016,0.01
-0.128,-0.166,-0.038,0.147,-0.045,-0.102,0.126,0.08,0.043,0.065,0.008,0.003
-0.121,-0.172,-0.051,0.147,-0.035,-0.111,0.13,0.068,0.036,0.062,-0.002,-0.006
-0.123,-0.173,-0.05,0.148,-0.036,-0.111,0.13,0.064,0.03,0.058,-0.018,-0.022
-0.127,-0.177,-0.05,0.152,-0.038,-0.113,0.13,0.065,0.027,0.055,-0.032,-0.028
-0.13,-0.18,-0.05,0.155,-0.04,-0.115,0.13,0.064,0.023,0.051,-0.03,-0.023
-0.129,-0.179,-0.05,0.154,-0.04,-0.114,0.13,0.065,0.02,0.048,-0.026,-0.021
-0.124,-0.174,-0.051,0.149,-0.036,-0.112,0.13,0.064,0.016,0.043,-0.025,-0.018
-0.122,-0.171,-0.049,0.146,-0.036,-0.11,0.13,0.061,0.013,0.037,-0.02,-0.015
-0.096,-0.168,-0.072,0.132,-0.012,-0.119,0.13,0.06,0.007,0.034,-0.021,-0.016
-0.081,-0.163,-0.082,0.122,0.001,-0.122,0.125,0.06,0.002,0.028,-0.024,-0.02
-0.081,-0.16,-0.079,0.12,-0.001,-0.119,0.125,0.06,-0.001,0.026,-0.026,-0.023
-0.083,-0.164,-0.081,0.123,-0.001,-0.122,0.124,0.06,-0.007,0.027,-0.024,-0.025
-0.086,-0.165,-0.079,0.126,-0.003,-0.122,0.119,0.057,-0.01,0.017,-0.029,-0.034
-0.085,-0.165,-0.08,0.125,-0.002,-0.122,0.121,0.047,-0.016,0.009,-0.043,-0.041
-0.09,-0.165,-0.075,0.128,-0.007,-0.12,0.117,0.039,-0.022,0.0,-0.046,-0.043
-0.089,-0.165,-0.075,0.128,-0.007,-0.12,0.113,0.03,-0.026,-0.01,-0.044,-0.046
-0.092,-0.165,-0.074,0.129,-0.008,-0.119,0.107,0.02,-0.033,-0.016,-0.046,-0.049
-0.095,-0.164,-0.069,0.129,-0.012,-0.116,0.104,0.016,-0.037,-0.021,-0.043,-0.051
-0.103,-0.174,-0.071,0.138,-0.016,-0.122,0.098,0.013,-0.043,-0.027,-0.054,-0.054
-0.108,-0.175,-0.067,0.142,-0.02,-0.121,0.095,0.011,-0.048,-0.033,-0.068,-0.056
-0.11,-0.175,-0.065,0.143,-0.022,-0.12,0.107,0.007,-0.046,-0.035,-0.07,-0.054
-0.112,-0.173,-0.061,0.143,-0.025,-0.117,0.111,0.005,-0.044,-0.035,-0.074,-0.058
-0.109,-0.168,-0.06,0.138,-0.025,-0.114,0.109,0.002,-0.05,-0.035,-0.079,-0.06
-0.118,-0.173,-0.055,0.146,-0.031,-0.113,0.107,0.0,-0.06,-0.04,-0.08,-0.06
-0.102,-0.158,-0.056,0.131,-0.023,-0.107,0.104,0.0,-0.06,-0.04,-0.082,-0.067
-0.102,-0.175,-0.074,0.139,-0.014,-0.124,0.105,-0.004,-0.061,-0.04,-0.086,-0.075
-0.122,-0.197,-0.075,0.16,-0.023,-0.136,0.1,-0.005,-0.065,-0.04,-0.083,-0.075
-0.11,-0.185,-0.075,0.148,-0.018,-0.13,0.1,-0.005,-0.065,-0.04,-0.08,-0.075
-0.107,-0.183,-0.076,0.146,-0.016,-0.129,0.1,0.005,-0.065,-0.04,-0.08,-0.075
-0.099,-0.175,-0.076,0.138,-0.011,-0.125,0.1,0.016,-0.066,-0.041,-0.081,-0.075
-0.094,-0.17,-0.076,0.133,-0.009,-0.123,0.101,0.015,-0.07,-0.05,-0.08,-0.075
-0.091,-0.162,-0.07,0.127,-0.01,-0.116,0.099,0.015,-0.067,-0.047,-0.08,-0.069
-0.086,-0.157,-0.071,0.121,-0.007,-0.114,0.101,0.015,-0.06,-0.041,-0.084,-0.063
-0.084,-0.147,-0.063,0.116,-0.011,-0.104,0.099,0.015,-0.055,-0.036,-0.079,-0.056
-0.056,-0.124,-0.068,0.09,0.007,-0.096,0.116,0.015,-0.051,-0.029,-0.069,-0.05
-0.064,-0.096,-0.032,0.08,-0.016,-0.063,0.149,0.041,-0.033,-0.026,-0.061,-0.042
-0.074,-0.077,-0.004,0.076,-0.035,-0.04,0.144,0.058,-0.013,-0.012,-0.042,-0.042
-0.039,-0.061,-0.022,0.051,-0.009,-0.041,0.122,0.055,0.002,0.001,-0.019,-0.046
-0.036,-0.041,-0.005,0.039,-0.015,-0.023,0.112,0.047,-0.004,-0.005,-0.028,-0.043
-0.031,-0.073,-0.042,0.052,0.006,-0.057,0.106,0.028,-0.023,-0.016,-0.045,-0.047
-0.021,-0.098,-0.077,0.06,0.029,-0.087,0.098,0.028,-0.031,-0.022,-0.045,-0.043
-0.047,-0.132,-0.086,0.09,0.02,-0.109,0.094,-0.006,-0.058,-0.049,-0.07,-0.047
-0.07,-0.141,-0.071,0.106,0.0,-0.106,0.084,-0.002,-0.05,-0.055,-0.071,-0.061
-0.086,-0.171,-0.085,0.129,0.0,-0.128,0.091,-0.026,-0.091,-0.084,-0.092,-0.098
-0.084,-0.145,-0.061,0.115,-0.011,-0.102,0.092,-0.013,-0.073,-0.062,-0.072,-0.087
-0.09,-0.189,-0.099,0.14,0.004,-0.144,0.124,0.05,-0.078,-0.107,-0.11,-0.112
-0.084,-0.284,-0.201,0.184,0.059,-0.242,0.302,0.388,0.008,-0.159,-0.188,-0.184
0.078,0.113,0.034,-0.096,0.022,0.074,0.263,0.599,0.433,0.219,0.135,0.082
0.345,0.797,0.452,-0.571,-0.054,0.624,-0.355,-0.482,0.871,0.954,0.822,0.689
0.426,1.215,0.789,-0.821,-0.181,1.002,-0.884,-1.435,0.876,1.311,1.222,1.054
0.099,0.61,0.512,-0.355,-0.207,0.561,-0.763,-1.451,-0.178,0.41,0.531,0.559
-0.176,-0.16,0.016,0.168,-0.096,-0.072,-0.44,-1.087,-0.763,-0.353,-0.191,-0.045
-0.113,-0.168,-0.055,0.141,-0.029,-0.111,-0.152,-0.391,-0.3,-0.184,-0.138,-0.092
-0.084,-0.184,-0.1,0.134,0.008,-0.141,0.019,-0.086,-0.167,-0.146,-0.128,-0.095
-0.087,-0.185,-0.098,0.136,0.006,-0.141,0.055,-0.022,-0.127,-0.121,-0.119,-0.099
-0.071,-0.183,-0.112,0.127,0.021,-0.147,0.095,0.027,-0.106,-0.111,-0.1,-0.091
-0.082,-0.214,-0.132,0.148,0.025,-0.173,0.097,0.034,-0.106,-0.121,-0.108,-0.095
-0.064,-0.177,-0.112,0.12,0.024,-0.144,0.098,0.06,-0.079,-0.102,-0.09,-0.084
-0.056,-0.177,-0.121,0.117,0.033,-0.149,0.096,0.057,-0.086,-0.113,-0.098,-0.087
-0.057,-0.164,-0.108,0.111,0.026,-0.136,0.093,0.075,-0.065,-0.097,-0.083,-0.077
-0.052,-0.163,-0.111,0.108,0.029,-0.137,0.101,0.076,-0.062,-0.102,-0.086,-0.079
-0.051,-0.155,-0.103,0.103,0.026,-0.129,0.099,0.08,-0.039,-0.093,-0.078,-0.073
-0.044,-0.145,-0.101,0.094,0.029,-0.122,0.101,0.096,-0.034,-0.092,-0.076,-0.071
-0.038,-0.136,-0.098,0.087,0.03,-0.117,0.099,0.111,-0.022,-0.088,-0.074,-0.069
-0.031,-0.124,-0.094,0.078,0.032,-0.109,0.1,0.114,-0.009,-0.083,-0.067,-0.064
-0.023,-0.115,-0.093,0.069,0.035,-0.104,0.1,0.13,0.003,-0.07,-0.067,-0.065
-0.017,-0.105,-0.088,0.061,0.036,-0.096,0.095,0.144,0.02,-0.045,-0.057,-0.054
-0.008,-0.095,-0.086,0.052,0.039,-0.09,0.087,0.163,0.03,-0.031,-0.044,-0.046
-0.002,-0.086,-0.084,0.044,0.042,-0.085,0.081,0.194,0.047,-0.012,-0.029,-0.027
0.007,-0.072,-0.08,0.033,0.044,-0.076,0.074,0.228,0.077,0.01,0.004,0.008
0.041,-0.033,-0.074,-0.004,0.058,-0.053,0.059,0.27,0.112,0.05,0.042,0.03
0.089,0.022,-0.068,-0.055,0.078,-0.023,0.043,0.315,0.157,0.117,0.092,0.072
0.126,0.063,-0.063,-0.094,0.094,0.0,0.023,0.355,0.207,0.17,0.146,0.112
0.18,0.127,-0.053,-0.153,0.116,0.037,-0.008,0.377,0.254,0.236,0.212,0.165
0.212,0.196,-0.016,-0.204,0.114,0.09,-0.032,0.39,0.306,0.3,0.278,0.224
0.215,0.222,0.007,-0.219,0.104,0.114,-0.057,0.381,0.343,0.349,0.328,0.27
0.247,0.26,0.013,-0.253,0.116,0.136,-0.074,0.371,0.354,0.378,0.352,0.298
0.227,0.275,0.049,-0.251,0.089,0.162,-0.076,0.365,0.348,0.371,0.34,0.284
0.184,0.249,0.065,-0.217,0.059,0.157,-0.046,0.345,0.327,0.332,0.32,0.266
0.165,0.209,0.044,-0.187,0.06,0.126,0.001,0.306,0.283,0.259,0.249,0.206
0.109,0.143,0.034,-0.127,0.037,0.089,0.033,0.248,0.212,0.178,0.159,0.124
0.065,0.076,0.01,-0.071,0.027,0.043,0.067,0.197,0.152,0.091,0.091,0.076
0.078,0.031,-0.047,-0.054,0.062,-0.008,0.082,0.151,0.092,0.026,0.028,0.03
0.052,-0.011,-0.063,-0.021,0.058,-0.037,0.079,0.105,0.034,-0.006,-0.008,-0.013
0.006,-0.046,-0.053,0.02,0.03,-0.05,0.08,0.071,-0.003,-0.035,-0.032,-0.039
0.026,-0.042,-0.068,0.009,0.047,-0.055,0.075,0.05,-0.03,-0.068,-0.05,-0.053
0.009,-0.056,-0.065,0.024,0.037,-0.06,0.075,0.042,-0.035,-0.078,-0.06,-0.055
-0.012,-0.068,-0.056,0.041,0.022,-0.062,0.074,0.034,-0.057,-0.079,-0.065,-0.055
-0.01,-0.063,-0.053,0.036,0.022,-0.058,0.069,0.03,-0.074,-0.091,-0.067,-0.06
-0.033,-0.066,-0.034,0.05,0.001,-0.05,0.071,0.03,-0.07,-0.091,-0.07,-0.06
-0.019,-0.064,-0.046,0.042,0.014,-0.055,0.067,0.029,-0.069,-0.089,-0.073,-0.06
0.002,-0.065,-0.067,0.032,0.035,-0.065,0.064,0.031,-0.064,-0.083,-0.076,-0.06
-0.007,-0.061,-0.054,0.034,0.024,-0.057,0.065,0.028,-0.064,-0.093,-0.071,-0.061
-0.009,-0.058,-0.049,0.034,0.02,-0.054,0.061,0.044,-0.058,-0.115,-0.07,-0.058
-0.011,-0.055,-0.044,0.034,0.017,-0.05,0.06,0.055,-0.066,-0.115,-0.07,-0.068
-0.021,-0.052,-0.032,0.037,0.006,-0.042,0.06,0.044,-0.081,-0.115,-0.07,-0.082
0.004,-0.05,-0.054,0.023,0.029,-0.052,0.055,0.04,-0.08,-0.12,-0.07,-0.079
0.028,-0.048,-0.076,0.01,0.052,-0.061,0.055,0.032,-0.08,-0.12,-0.071,-0.08
0.023,-0.044,-0.067,0.011,0.045,-0.055,0.055,0.027,-0.081,-0.121,-0.076,-0.08
0.016,-0.046,-0.062,0.016,0.039,-0.054,0.055,0.02,-0.078,-0.13,-0.079,-0.08
-0.005,-0.062,-0.058,0.034,0.027,-0.06,0.055,0.01,-0.087,-0.14,-0.086,-0.082
-0.017,-0.066,-0.049,0.042,0.016,-0.057,0.055,0.002,-0.101,-0.146,-0.084,-0.089
-0.009,-0.065,-0.055,0.037,0.024,-0.06,0.055,-0.008,-0.1,-0.151,-0.094,-0.095
0.001,-0.065,-0.067,0.032,0.034,-0.066,0.055,-0.015,-0.101,-0.155,-0.111,-0.09
-0.003,-0.065,-0.062,0.034,0.03,-0.063,0.059,-0.016,-0.106,-0.156,-0.109,-0.09
-0.004,-0.064,-0.06,0.034,0.028,-0.061,0.06,-0.013,-0.104,-0.162,-0.114,-0.089
-0.003,-0.06,-0.057,0.032,0.027,-0.058,0.06,-0.029,-0.107,-0.153,-0.115,-0.096
-0.005,-0.06,-0.054,0.033,0.025,-0.057,0.06,-0.041,-0.114,-0.153,-0.117,-0.107
-0.008,-0.06,-0.052,0.034,0.022,-0.056,0.06,-0.042,-0.12,-0.175,-0.123,-0.109
-0.015,-0.065,-0.049,0.04,0.017,-0.057,0.059,-0.046,-0.12,-0.175,-0.126,-0.114
-0.015,-0.065,-0.05,0.041,0.018,-0.057,0.055,-0.048,-0.12,-0.175,-0.131,-0.115
-0.02,-0.065,-0.045,0.043,0.013,-0.055,0.053,-0.051,-0.12,-0.181,-0.134,-0.115
-0.02,-0.065,-0.045,0.043,0.013,-0.055,0.05,-0.046,-0.119,-0.178,-0.135,-0.12
-0.021,-0.065,-0.044,0.043,0.012,-0.054,0.047,-0.045,-0.123,-0.184,-0.134,-0.12
-0.025,-0.065,-0.039,0.045,0.007,-0.052,0.045,-0.045,-0.125,-0.197,-0.136,-0.121
-0.024,-0.06,-0.035,0.043,0.006,-0.047,0.042,-0.045,-0.126,-0.201,-0.134,-0.125
-0.023,-0.055,-0.033,0.039,0.006,-0.044,0.036,-0.045,-0.13,-0.199,-0.138,-0.125
-0.023,-0.051,-0.028,0.037,0.002,-0.039,0.031,-0.046,-0.13,-0.204,-0.14,-0.127
-0.021,-0.046,-0.025,0.034,0.002,-0.036,0.028,-0.053,-0.135,-0.205,-0.14,-0.13
-0.003,-0.043,-0.04,0.023,0.019,-0.041,0.022,-0.058,-0.135,-0.205,-0.143,-0.13
0.007,-0.038,-0.045,0.016,0.026,-0.041,0.021,-0.057,-0.135,-0.21,-0.135,-0.127
0.0,-0.033,-0.033,0.016,0.017,-0.033,0.026,-0.053,-0.135,-0.21,-0.144,-0.121
0.004,-0.028,-0.032,0.012,0.018,-0.03,0.025,-0.051,-0.134,-0.21,-0.149,-0.116
-0.002,-0.024,-0.022,0.013,0.011,-0.023,0.025,-0.048,-0.133,-0.209,-0.14,-0.113
0.001,-0.019,-0.019,0.009,0.01,-0.019,0.03,-0.045,-0.123,-0.211,-0.134,-0.107
0.018,-0.005,-0.023,-0.006,0.02,-0.014,0.039,-0.043,-0.117,-0.204,-0.127,-0.103
0.014,0.037,0.024,-0.026,-0.005,0.03,0.063,-0.02,-0.102,-0.176,-0.119,-0.096
0.023,0.085,0.062,-0.054,-0.02,0.073,0.072,-0.009,-0.087,-0.162,-0.101,-0.083
0.034,0.096,0.061,-0.065,-0.014,0.078,0.053,-0.033,-0.093,-0.168,-0.095,-0.085
0.027,0.093,0.065,-0.06,-0.019,0.079,0.032,-0.041,-0.086,-0.161,-0.093,-0.083
0.036,0.075,0.039,-0.056,-0.001,0.057,0.016,-0.055,-0.095,-0.169,-0.104,-0.09
0.051,0.054,0.003,-0.053,0.023,0.029,0.002,-0.045,-0.086,-0.161,-0.1,-0.089
0.033,0.01,-0.023,-0.021,0.028,-0.006,0.006,-0.058,-0.108,-0.18,-0.115,-0.091
0.02,0.001,-0.019,-0.011,0.02,-0.009,0.012,-0.071,-0.125,-0.197,-0.126,-0.111
0.007,-0.01,-0.017,0.002,0.012,-0.013,0.012,-0.067,-0.137,-0.204,-0.129,-0.119
-0.01,-0.028,-0.018,0.02,0.004,-0.023,0.023,-0.063,-0.138,-0.212,-0.136,-0.126
-0.001,-0.016,-0.015,0.009,0.007,-0.015,0.02,-0.039,-0.116,-0.188,-0.12,-0.11
-0.037,-0.148,-0.111,0.093,0.037,-0.129,0.146,0.118,-0.157,-0.294,-0.246,-0.219
0.041,0.026,-0.015,-0.034,0.028,0.006,0.276,0.574,0.155,-0.127,-0.121,-0.145
0.302,0.643,0.341,-0.473,-0.02,0.492,-0.136,-0.021,0.615,0.482,0.451,0.383
0.486,1.262,0.776,-0.874,-0.145,1.019,-0.826,-1.296,0.903,1.142,1.085,0.956
0.316,1.099,0.783,-0.708,-0.233,0.941,-0.956,-1.587,0.277,0.763,0.857,0.819
-0.029,0.22,0.249,-0.096,-0.139,0.234,-0.644,-1.371,-0.734,-0.313,-0.061,0.091
-0.101,-0.067,0.034,0.084,-0.067,-0.017,-0.331,-0.743,-0.529,-0.409,-0.248,-0.163
-0.051,-0.022,0.03,0.036,-0.04,0.004,-0.095,-0.212,-0.211,-0.254,-0.157,-0.13
-0.044,-0.052,-0.009,0.048,-0.017,-0.03,-0.027,-0.127,-0.205,-0.272,-0.19,-0.157
-0.029,-0.024,0.005,0.027,-0.017,-0.009,0.0,-0.062,-0.144,-0.226,-0.157,-0.136
-0.025,-0.04,-0.014,0.033,-0.005,-0.027,0.03,-0.053,-0.165,-0.259,-0.176,-0.151
-0.014,-0.025,-0.011,0.019,-0.002,-0.017,0.027,-0.029,-0.127,-0.232,-0.156,-0.141
-0.016,-0.03,-0.013,0.023,-0.001,-0.021,0.033,-0.027,-0.129,-0.245,-0.163,-0.142
-0.009,-0.018,-0.009,0.013,0.001,-0.013,0.028,-0.017,-0.112,-0.238,-0.154,-0.14
-0.003,-0.012,-0.009,0.008,0.003,-0.011,0.027,-0.01,-0.111,-0.234,-0.149,-0.136
-0.001,-0.007,-0.006,0.004,0.003,-0.007,0.023,-0.005,-0.108,-0.229,-0.147,-0.136
0.007,0.003,-0.004,-0.004,0.005,0.0,0.031,0.003,-0.099,-0.218,-0.14,-0.132
0.007,0.002,-0.005,-0.004,0.006,-0.002,0.037,0.009,-0.085,-0.216,-0.138,-0.127
0.009,0.012,0.004,-0.011,0.002,0.008,0.031,0.034,-0.063,-0.205,-0.131,-0.119
0.01,0.017,0.007,-0.014,0.002,0.012,0.029,0.041,-0.055,-0.199,-0.127,-0.113
0.024,0.038,0.015,-0.031,0.004,0.026,0.024,0.054,-0.04,-0.189,-0.12,-0.106
0.019,0.037,0.018,-0.029,0.0,0.028,0.021,0.077,-0.025,-0.181,-0.116,-0.093
0.022,0.043,0.021,-0.033,0.001,0.032,0.016,0.11,0.003,-0.161,-0.092,-0.074
0.047,0.071,0.024,-0.059,0.011,0.047,0.006,0.137,0.03,-0.128,-0.051,-0.049
0.066,0.09,0.023,-0.079,0.021,0.056,-0.006,0.17,0.052,-0.097,-0.01,-0.016
0.105,0.137,0.033,-0.121,0.036,0.085,-0.017,0.211,0.092,-0.053,0.026,0.025
0.144,0.181,0.037,-0.163,0.053,0.109,-0.027,0.258,0.143,-0.001,0.072,0.071
0.187,0.228,0.04,-0.208,0.073,0.134,-0.054,0.295,0.191,0.054,0.135,0.113
0.231,0.298,0.068,-0.265,0.081,0.183,-0.081,0.307,0.241,0.128,0.204,0.167
0.259,0.358,0.1,-0.309,0.08,0.229,-0.105,0.312,0.283,0.188,0.259,0.228
0.278,0.398,0.12,-0.338,0.079,0.259,-0.125,0.299,0.307,0.233,0.299,0.267
0.265,0.403,0.138,-0.334,0.063,0.27,-0.125,0.29,0.316,0.251,0.311,0.278
0.238,0.395,0.157,-0.317,0.04,0.276,-0.109,0.279,0.316,0.223,0.284,0.258
0.212,0.369,0.156,-0.291,0.028,0.262,-0.075,0.258,0.297,0.183,0.244,0.21
0.182,0.306,0.124,-0.244,0.029,0.215,-0.038,0.227,0.243,0.119,0.173,0.145
0.143,0.231,0.088,-0.187,0.027,0.159,-0.001,0.183,0.179,0.031,0.097,0.075
0.091,0.163,0.072,-0.127,0.01,0.117,0.03,0.129,0.106,-0.038,0.033,0.016
0.066,0.126,0.06,-0.096,0.003,0.093,0.035,0.068,0.035,-0.103,-0.025,-0.029
0.051,0.102,0.051,-0.077,0.0,0.076,0.028,0.028,-0.011,-0.148,-0.06,-0.057
0.042,0.088,0.047,-0.065,-0.003,0.067,0.025,0.003,-0.035,-0.172,-0.086,-0.067
0.042,0.083,0.041,-0.063,0.0,0.062,0.02,-0.012,-0.046,-0.183,-0.095,-0.077
0.037,0.075,0.038,-0.056,-0.001,0.057,0.015,-0.025,-0.066,-0.179,-0.095,-0.078
0.038,0.069,0.031,-0.054,0.003,0.05,0.011,-0.032,-0.075,-0.18,-0.094,-0.074
0.03,0.062,0.033,-0.046,-0.002,0.047,0.01,-0.035,-0.08,-0.18,-0.097,-0.076
0.016,0.057,0.042,-0.036,-0.013,0.049,0.01,-0.04,-0.102,-0.18,-0.11,-0.074
0.017,0.055,0.037,-0.036,-0.011,0.046,0.01,-0.037,-0.106,-0.181,-0.11,-0.075
0.021,0.055,0.034,-0.039,-0.007,0.045,0.01,-0.034,-0.104,-0.184,-0.11,-0.075
0.024,0.055,0.031,-0.039,-0.004,0.042,0.012,-0.031,-0.106,-0.189,-0.11,-0.081
0.03,0.055,0.025,-0.043,0.002,0.04,0.015,-0.028,-0.104,-0.192,-0.11,-0.098
0.027,0.054,0.027,-0.041,0.0,0.041,0.019,-0.025,-0.107,-0.203,-0.11,-0.101
0.019,0.05,0.031,-0.035,-0.006,0.04,0.02,-0.026,-0.11,-0.21,-0.11,-0.099
0.02,0.046,0.027,-0.033,-0.004,0.036,0.021,-0.03,-0.11,-0.212,-0.11,-0.101
0.023,0.044,0.021,-0.033,0.001,0.032,0.024,-0.03,-0.111,-0.216,-0.11,-0.099
0.021,0.039,0.019,-0.03,0.001,0.029,0.026,-0.03,-0.109,-0.219,-0.11,-0.102
0.025,0.036,0.011,-0.03,0.006,0.023,0.024,-0.036,-0.111,-0.223,-0.113,-0.105
0.023,0.035,0.012,-0.029,0.005,0.023,0.018,-0.053,-0.109,-0.225,-0.118,-0.108
0.011,0.035,0.024,-0.024,-0.007,0.029,0.011,-0.064,-0.113,-0.224,-0.119,-0.11
0.008,0.035,0.027,-0.022,-0.01,0.031,0.004,-0.067,-0.136,-0.236,-0.129,-0.114
0.012,0.035,0.023,-0.024,-0.006,0.029,-0.002,-0.074,-0.142,-0.245,-0.141,-0.115
0.017,0.045,0.029,-0.031,-0.006,0.037,-0.009,-0.08,-0.143,-0.247,-0.142,-0.117
0.015,0.052,0.037,-0.034,-0.011,0.044,-0.006,-0.084,-0.147,-0.249,-0.147,-0.12
0.023,0.055,0.032,-0.04,-0.005,0.043,-0.001,-0.087,-0.154,-0.256,-0.149,-0.121
0.006,0.06,0.053,-0.033,-0.024,0.056,-0.006,-0.092,-0.165,-0.271,-0.154,-0.129
-0.013,0.06,0.073,-0.024,-0.043,0.067,-0.011,-0.097,-0.164,-0.269,-0.155,-0.13
-0.004,0.06,0.064,-0.028,-0.034,0.061,-0.014,-0.1,-0.168,-0.271,-0.156,-0.129
-0.003,0.06,0.063,-0.029,-0.033,0.061,-0.019,-0.105,-0.17,-0.275,-0.165,-0.14
0.002,0.06,0.058,-0.031,-0.028,0.059,-0.02,-0.105,-0.171,-0.274,-0.165,-0.146
0.003,0.057,0.054,-0.031,-0.026,0.056,-0.02,-0.106,-0.175,-0.277,-0.165,-0.148
0.002,0.055,0.053,-0.028,-0.026,0.054,-0.02,-0.11,-0.178,-0.28,-0.161,-0.151
0.009,0.055,0.045,-0.032,-0.018,0.049,-0.02,-0.11,-0.187,-0.283,-0.16,-0.154
0.008,0.068,0.06,-0.038,-0.026,0.063,-0.019,-0.112,-0.189,-0.286,-0.16,-0.155
0.006,0.077,0.071,-0.042,-0.033,0.074,-0.015,-0.116,-0.184,-0.289,-0.156,-0.151
0.006,0.071,0.065,-0.039,-0.03,0.068,-0.016,-0.118,-0.185,-0.29,-0.154,-0.148
0.008,0.07,0.062,-0.039,-0.027,0.066,-0.012,-0.121,-0.185,-0.291,-0.161,-0.145
0.008,0.066,0.059,-0.037,-0.026,0.062,-0.01,-0.124,-0.185,-0.295,-0.173,-0.142
0.01,0.064,0.055,-0.037,-0.023,0.059,-0.01,-0.125,-0.186,-0.295,-0.178,-0.14
0.015,0.07,0.054,-0.043,-0.02,0.062,-0.006,-0.125,-0.181,-0.293,-0.184,-0.142
0.004,0.078,0.075,-0.041,-0.036,0.076,-0.004,-0.124,-0.181,-0.29,-0.185,-0.146
-0.007,0.081,0.088,-0.037,-0.047,0.084,-0.005,-0.125,-0.179,-0.29,-0.185,-0.149
-0.008,0.079,0.087,-0.035,-0.048,0.083,-0.004,-0.123,-0.184,-0.29,-0.185,-0.152
-0.009,0.082,0.091,-0.037,-0.05,0.087,-0.005,-0.127,-0.186,-0.29,-0.185,-0.156
-0.018,0.076,0.095,-0.029,-0.056,0.085,-0.003,-0.118,-0.173,-0.29,-0.183,-0.143
-0.002,0.093,0.095,-0.046,-0.048,0.094,0.018,-0.091,-0.16,-0.269,-0.155,-0.123
0.017,0.128,0.111,-0.073,-0.047,0.119,0.036,-0.082,-0.133,-0.237,-0.129,-0.113
0.031,0.16,0.129,-0.096,-0.049,0.144,0.043,-0.087,-0.128,-0.227,-0.13,-0.105
0.047,0.187,0.14,-0.118,-0.047,0.163,0.021,-0.091,-0.134,-0.219,-0.13,-0.096
0.048,0.187,0.14,-0.118,-0.046,0.163,-0.022,-0.086,-0.133,-0.206,-0.124,-0.089
0.059,0.166,0.108,-0.113,-0.025,0.137,-0.026,-0.087,-0.143,-0.222,-0.128,-0.088
0.031,0.134,0.103,-0.083,-0.036,0.118,-0.025,-0.083,-0.14,-0.238,-0.122,-0.085
-0.006,0.083,0.089,-0.039,-0.047,0.086,-0.025,-0.112,-0.178,-0.279,-0.15,-0.125
-0.01,0.076,0.086,-0.033,-0.048,0.081,-0.025,-0.109,-0.171,-0.275,-0.157,-0.145
-0.021,0.051,0.072,-0.015,-0.047,0.061,-0.026,-0.128,-0.191,-0.297,-0.183,-0.149
-0.035,0.049,0.084,-0.007,-0.06,0.066,-0.017,-0.128,-0.167,-0.289,-0.18,-0.144
-0.029,0.03,0.059,-0.001,-0.044,0.045,0.006,-0.082,-0.174,-0.307,-0.188,-0.165
-0.013,-0.065,-0.051,0.039,0.019,-0.058,0.162,0.192,-0.152,-0.387,-0.294,-0.268
0.125,0.251,0.126,-0.188,-0.001,0.189,0.19,0.527,0.257,-0.064,-0.04,-0.068
0.395,0.929,0.534,-0.662,-0.07,0.731,-0.356,-0.359,0.704,0.635,0.627,0.509
0.499,1.432,0.933,-0.966,-0.217,1.182,-0.937,-1.467,0.808,1.124,1.119,0.947
0.214,0.973,0.758,-0.593,-0.272,0.865,-0.886,-1.603,-0.115,0.375,0.541,0.563
-0.09,0.145,0.235,-0.027,-0.163,0.19,-0.57,-1.285,-0.851,-0.512,-0.262,-0.093
-0.086,0.052,0.138,0.017,-0.112,0.095,-0.286,-0.598,-0.453,-0.393,-0.244,-0.176
-0.037,0.065,0.102,-0.014,-0.07,0.084,-0.095,-0.218,-0.267,-0.319,-0.206,-0.163
-0.032,0.043,0.075,-0.006,-0.054,0.059,-0.056,-0.157,-0.234,-0.302,-0.217,-0.177
-0.023,0.06,0.082,-0.019,-0.053,0.071,-0.03,-0.101,-0.192,-0.277,-0.197,-0.163
-0.023,0.036,0.059,-0.007,-0.042,0.047,-0.017,-0.096,-0.196,-0.293,-0.212,-0.177
-0.016,0.054,0.07,-0.02,-0.043,0.062,-0.011,-0.065,-0.165,-0.269,-0.193,-0.164
-0.012,0.049,0.061,-0.019,-0.036,0.055,-0.008,-0.063,-0.173,-0.281,-0.204,-0.168
-0.006,0.063,0.068,-0.029,-0.037,0.065,-0.011,-0.046,-0.149,-0.264,-0.192,-0.163
0.004,0.066,0.062,-0.036,-0.029,0.064,-0.009,-0.044,-0.151,-0.268,-0.194,-0.166
-0.003,0.076,0.079,-0.037,-0.041,0.077,-0.011,-0.036,-0.136,-0.259,-0.189,-0.165
-0.001,0.092,0.093,-0.046,-0.047,0.092,-0.01,-0.029,-0.13,-0.256,-0.186,-0.165
0.017,0.105,0.088,-0.061,-0.036,0.096,-0.015,-0.022,-0.123,-0.252,-0.186,-0.161
0.019,0.108,0.089,-0.064,-0.035,0.098,-0.015,-0.006,-0.115,-0.245,-0.18,-0.151
0.026,0.109,0.083,-0.068,-0.029,0.096,-0.015,0.006,-0.11,-0.228,-0.17,-0.145
0.022,0.108,0.086,-0.065,-0.032,0.097,-0.015,0.027,-0.094,-0.207,-0.16,-0.135
0.015,0.103,0.088,-0.059,-0.037,0.095,-0.014,0.047,-0.083,-0.19,-0.149,-0.129
0.037,0.129,0.092,-0.083,-0.027,0.11,-0.018,0.068,-0.061,-0.163,-0.126,-0.114
0.069,0.163,0.094,-0.116,-0.013,0.128,-0.031,0.095,-0.027,-0.134,-0.096,-0.086
0.085,0.18,0.095,-0.133,-0.005,0.137,-0.043,0.136,0.016,-0.096,-0.062,-0.053
0.101,0.195,0.094,-0.149,0.003,0.145,-0.05,0.176,0.052,-0.056,-0.016,-0.015
0.151,0.252,0.101,-0.202,0.024,0.176,-0.077,0.206,0.097,0.009,0.042,0.024
0.195,0.328,0.132,-0.262,0.031,0.23,-0.109,0.243,0.169,0.086,0.111,0.086
0.206,0.366,0.16,-0.286,0.023,0.263,-0.131,0.266,0.218,0.156,0.183,0.154
0.248,0.424,0.176,-0.336,0.036,0.3,-0.151,0.268,0.259,0.225,0.234,0.192
0.27,0.473,0.204,-0.372,0.033,0.338,-0.164,0.261,0.298,0.271,0.279,0.23
0.261,0.483,0.223,-0.372,0.019,0.353,-0.164,0.249,0.302,0.293,0.287,0.25
0.26,0.474,0.214,-0.368,0.023,0.344,-0.136,0.241,0.287,0.262,0.253,0.222
0.21,0.415,0.205,-0.312,0.002,0.31,-0.094,0.221,0.245,0.196,0.206,0.163
0.15,0.346,0.196,-0.248,-0.023,0.271,-0.055,0.179,0.179,0.112,0.12,0.089
0.097,0.278,0.181,-0.188,-0.042,0.23,-0.023,0.133,0.112,0.023,0.039,0.02
0.048,0.217,0.168,-0.133,-0.06,0.193,0.002,0.086,0.052,-0.033,-0.017,-0.029
0.038,0.192,0.155,-0.115,-0.059,0.173,0.01,0.04,0.0,-0.094,-0.074,-0.063
0.018,0.16,0.143,-0.089,-0.063,0.151,0.012,0.001,-0.048,-0.134,-0.111,-0.094
-0.008,0.128,0.136,-0.06,-0.072,0.131,0.015,-0.03,-0.066,-0.139,-0.124,-0.116
-0.008,0.121,0.129,-0.057,-0.069,0.125,0.021,-0.035,-0.074,-0.154,-0.12,-0.121
-0.009,0.116,0.126,-0.054,-0.068,0.121,0.033,-0.039,-0.094,-0.156,-0.124,-0.121
-0.013,0.11,0.123,-0.049,-0.068,0.117,0.03,-0.056,-0.094,-0.153,-0.14,-0.125
-0.015,0.105,0.12,-0.045,-0.068,0.112,0.027,-0.052,-0.1,-0.161,-0.14,-0.124
-0.019,0.1,0.118,-0.041,-0.068,0.109,0.025,-0.048,-0.11,-0.17,-0.14,-0.121
-0.012,0.101,0.113,-0.045,-0.063,0.106,0.021,-0.045,-0.102,-0.165,-0.141,-0.118
-0.011,0.109,0.119,-0.049,-0.065,0.114,0.02,-0.04,-0.095,-0.16,-0.139,-0.115
-0.019,0.11,0.129,-0.046,-0.074,0.12,0.016,-0.043,-0.091,-0.157,-0.143,-0.112
-0.014,0.109,0.123,-0.048,-0.068,0.116,0.015,-0.045,-0.08,-0.15,-0.145,-0.11
-0.005,0.11,0.115,-0.053,-0.06,0.112,0.015,-0.049,-0.088,-0.153,-0.145,-0.109
-0.001,0.11,0.111,-0.055,-0.056,0.11,0.015,-0.051,-0.11,-0.155,-0.145,-0.117
0.009,0.109,0.1,-0.059,-0.045,0.104,0.015,-0.055,-0.115,-0.155,-0.14,-0.13
-0.002,0.105,0.107,-0.052,-0.055,0.105,0.015,-0.055,-0.118,-0.155,-0.14,-0.13
-0.018,0.102,0.12,-0.043,-0.069,0.111,0.015,-0.062,-0.123,-0.155,-0.14,-0.13
-0.013,0.1,0.113,-0.044,-0.063,0.106,0.015,-0.073,-0.129,-0.155,-0.14,-0.131
-0.012,0.096,0.109,-0.042,-0.061,0.102,0.015,-0.079,-0.135,-0.16,-0.14,-0.129
-0.005,0.095,0.1,-0.045,-0.053,0.097,0.015,-0.086,-0.14,-0.168,-0.142,-0.132
-0.025,0.091,0.116,-0.033,-0.071,0.103,0.015,-0.083,-0.138,-0.17,-0.153,-0.135
-0.044,0.085,0.128,-0.021,-0.086,0.107,0.015,-0.096,-0.155,-0.17,-0.155,-0.135
-0.034,0.08,0.114,-0.023,-0.074,0.096,0.015,-0.112,-0.173,-0.17,-0.155,-0.135
-0.038,0.075,0.112,-0.019,-0.075,0.093,0.015,-0.109,-0.169,-0.17,-0.155,-0.135
-0.038,0.068,0.106,-0.015,-0.072,0.087,0.015,-0.111,-0.17,-0.17,-0.155,-0.14
-0.036,0.066,0.103,-0.015,-0.07,0.084,0.015,-0.11,-0.17,-0.165,-0.155,-0.146
-0.024,0.074,0.098,-0.025,-0.061,0.086,0.014,-0.11,-0.17,-0.165,-0.15,-0.144
-0.021,0.072,0.092,-0.026,-0.057,0.082,0.01,-0.106,-0.174,-0.164,-0.15,-0.153
-0.036,0.07,0.106,-0.017,-0.071,0.088,0.011,-0.105,-0.178,-0.16,-0.15,-0.158
-0.041,0.07,0.111,-0.014,-0.076,0.09,0.007,-0.105,-0.183,-0.159,-0.15,-0.152
-0.044,0.066,0.11,-0.011,-0.077,0.087,0.005,-0.1,-0.184,-0.163,-0.15,-0.15
-0.046,0.064,0.11,-0.009,-0.079,0.086,0.005,-0.101,-0.179,-0.165,-0.152,-0.145
-0.043,0.067,0.11,-0.012,-0.077,0.088,0.002,-0.099,-0.176,-0.165,-0.155,-0.142
-0.04,0.069,0.109,-0.014,-0.075,0.089,-0.002,-0.117,-0.173,-0.165,-0.155,-0.139
-0.035,0.07,0.105,-0.018,-0.07,0.087,-0.006,-0.124,-0.168,-0.165,-0.155,-0.135
-0.034,0.07,0.104,-0.018,-0.069,0.086,-0.008,-0.116,-0.165,-0.165,-0.155,-0.135
-0.03,0.069,0.099,-0.02,-0.064,0.084,-0.015,-0.112,-0.16,-0.154,-0.155,-0.135
-0.027,0.072,0.099,-0.022,-0.063,0.085,-0.013,-0.106,-0.152,-0.14,-0.145,-0.135
-0.032,0.06,0.092,-0.015,-0.062,0.076,-0.004,-0.102,-0.145,-0.127,-0.129,-0.136
-0.019,0.086,0.105,-0.034,-0.062,0.095,0.022,-0.088,-0.139,-0.122,-0.118,-0.124
-0.01,0.134,0.144,-0.062,-0.078,0.139,0.055,-0.059,-0.116,-0.1,-0.102,-0.097
-0.001,0.151,0.153,-0.075,-0.077,0.152,0.062,-0.034,-0.109,-0.083,-0.095,-0.089
0.011,0.193,0.181,-0.102,-0.085,0.187,0.034,-0.056,-0.11,-0.086,-0.095,-0.091
0.017,0.189,0.172,-0.104,-0.077,0.18,-0.01,-0.086,-0.109,-0.088,-0.094,-0.088
0.024,0.139,0.115,-0.081,-0.046,0.127,-0.016,-0.091,-0.112,-0.095,-0.098,-0.093
0.02,0.108,0.088,-0.064,-0.034,0.098,-0.015,-0.087,-0.107,-0.091,-0.09,-0.085
-0.006,0.069,0.075,-0.032,-0.041,0.072,-0.013,-0.105,-0.124,-0.108,-0.105,-0.103
-0.028,0.071,0.099,-0.022,-0.064,0.085,-0.01,-0.108,-0.121,-0.108,-0.108,-0.111
-0.031,0.033,0.064,-0.001,-0.047,0.048,-0.01,-0.126,-0.153,-0.139,-0.136,-0.128
-0.038,0.054,0.092,-0.009,-0.065,0.073,0.001,-0.1,-0.115,-0.11,-0.113,-0.122
-0.048,-0.028,0.02,0.038,-0.034,-0.004,0.06,-0.024,-0.136,-0.156,-0.153,-0.156
-0.038,-0.077,-0.039,0.058,0.001,-0.058,0.232,0.322,0.006,-0.188,-0.222,-0.23
0.117,0.358,0.241,-0.238,-0.063,0.3,0.166,0.514,0.503,0.254,0.136,0.062
0.372,1.042,0.67,-0.707,-0.149,0.855,-0.455,-0.491,0.954,1.06,0.848,0.671
0.378,1.371,0.993,-0.875,-0.308,1.182,-0.922,-1.434,0.811,1.28,1.102,0.905
0.043,0.688,0.644,-0.366,-0.301,0.666,-0.76,-1.479,-0.382,0.205,0.305,0.354
-0.153,0.06,0.214,0.046,-0.184,0.136,-0.463,-1.099,-0.838,-0.437,-0.269,-0.134
-0.073,0.052,0.126,0.01,-0.1,0.089,-0.21,-0.462,-0.335,-0.211,-0.161,-0.136
-0.042,0.006,0.048,0.017,-0.045,0.027,-0.056,-0.181,-0.227,-0.185,-0.149,-0.142
-0.035,0.032,0.067,0.001,-0.051,0.049,-0.031,-0.126,-0.164,-0.146,-0.127,-0.133
-0.026,0.022,0.048,0.002,-0.037,0.035,-0.009,-0.088,-0.155,-0.153,-0.131,-0.126
-0.031,0.016,0.047,0.007,-0.039,0.031,-0.007,-0.083,-0.153,-0.147,-0.13,-0.125
-0.026,0.02,0.047,0.003,-0.037,0.033,0.001,-0.063,-0.125,-0.134,-0.117,-0.114
-0.031,0.006,0.037,0.013,-0.034,0.022,0.008,-0.063,-0.105,-0.139,-0.107,-0.114
-0.025,0.015,0.04,0.005,-0.032,0.027,0.013,-0.05,-0.08,-0.118,-0.084,-0.102
-0.017,0.015,0.032,0.001,-0.025,0.023,0.013,-0.048,-0.088,-0.116,-0.087,-0.099
-0.013,0.025,0.037,-0.006,-0.025,0.031,0.008,-0.037,-0.073,-0.097,-0.076,-0.09
0.001,0.034,0.033,-0.018,-0.017,0.034,0.011,-0.028,-0.074,-0.085,-0.074,-0.085
0.014,0.053,0.039,-0.034,-0.012,0.046,0.009,-0.017,-0.065,-0.067,-0.067,-0.079
-0.007,0.047,0.054,-0.02,-0.031,0.051,0.011,-0.007,-0.06,-0.055,-0.061,-0.072
-0.011,0.06,0.071,-0.024,-0.041,0.065,0.009,0.003,-0.046,-0.04,-0.047,-0.066
0.013,0.083,0.07,-0.048,-0.029,0.076,0.002,0.012,-0.035,-0.026,-0.033,-0.059
0.024,0.094,0.07,-0.059,-0.023,0.082,-0.004,0.025,-0.018,-0.013,-0.023,-0.051
0.036,0.106,0.07,-0.071,-0.017,0.088,-0.012,0.058,0.007,0.008,-0.009,-0.033
0.05,0.119,0.069,-0.085,-0.009,0.094,-0.015,0.085,0.038,0.041,0.024,-0.005
0.077,0.146,0.069,-0.112,0.004,0.107,-0.034,0.111,0.085,0.079,0.065,0.022
0.123,0.185,0.062,-0.155,0.031,0.123,-0.065,0.151,0.123,0.14,0.121,0.064
0.153,0.237,0.084,-0.195,0.034,0.16,-0.088,0.191,0.181,0.211,0.192,0.12
0.182,0.297,0.115,-0.24,0.033,0.206,-0.118,0.223,0.238,0.285,0.248,0.178
0.223,0.358,0.135,-0.29,0.043,0.246,-0.148,0.237,0.28,0.352,0.307,0.223
0.245,0.406,0.161,-0.326,0.042,0.283,-0.171,0.234,0.316,0.4,0.365,0.263
0.263,0.434,0.171,-0.349,0.045,0.303,-0.171,0.223,0.336,0.436,0.405,0.302
0.255,0.431,0.176,-0.344,0.039,0.303,-0.161,0.216,0.331,0.434,0.401,0.305
0.223,0.398,0.175,-0.311,0.024,0.286,-0.133,0.202,0.297,0.379,0.344,0.258
0.169,0.345,0.175,-0.258,-0.003,0.26,-0.079,0.167,0.242,0.294,0.264,0.186
0.106,0.278,0.172,-0.193,-0.033,0.225,-0.041,0.13,0.163,0.209,0.187,0.117
0.062,0.221,0.159,-0.142,-0.049,0.19,-0.006,0.092,0.098,0.134,0.112,0.053
0.023,0.171,0.148,-0.097,-0.063,0.159,0.015,0.042,0.038,0.074,0.046,0.009
-0.008,0.126,0.133,-0.059,-0.071,0.129,0.015,0.011,-0.013,0.027,0.019,-0.021
-0.012,0.104,0.116,-0.046,-0.064,0.11,0.015,-0.007,-0.055,0.006,-0.019,-0.048
-0.011,0.092,0.103,-0.041,-0.057,0.097,0.015,-0.021,-0.094,-0.003,-0.053,-0.056
-0.015,0.081,0.096,-0.033,-0.056,0.088,0.016,-0.032,-0.095,-0.015,-0.045,-0.055
-0.012,0.08,0.092,-0.034,-0.052,0.086,0.021,-0.042,-0.097,-0.025,-0.041,-0.057
-0.005,0.08,0.085,-0.038,-0.045,0.083,0.025,-0.036,-0.104,-0.03,-0.038,-0.061
0.0,0.08,0.08,-0.04,-0.04,0.08,0.03,-0.029,-0.109,-0.032,-0.031,-0.06
0.005,0.08,0.075,-0.043,-0.035,0.077,0.035,-0.023,-0.122,-0.036,-0.032,-0.057
0.009,0.078,0.07,-0.044,-0.031,0.074,0.032,-0.015,-0.118,-0.035,-0.035,-0.054
0.004,0.075,0.071,-0.039,-0.034,0.072,0.027,-0.012,-0.115,-0.034,-0.035,-0.051
0.007,0.075,0.068,-0.041,-0.031,0.071,0.025,-0.007,-0.113,-0.031,-0.035,-0.048
0.009,0.075,0.066,-0.042,-0.029,0.071,0.021,-0.027,-0.108,-0.029,-0.035,-0.045
0.012,0.075,0.063,-0.044,-0.026,0.069,0.016,-0.047,-0.115,-0.032,-0.035,-0.046
0.009,0.075,0.067,-0.042,-0.029,0.071,0.015,-0.047,-0.125,-0.043,-0.039,-0.05
-0.006,0.07,0.076,-0.032,-0.042,0.073,0.015,-0.051,-0.126,-0.048,-0.043,-0.05
-0.007,0.062,0.069,-0.028,-0.038,0.065,0.015,-0.053,-0.124,-0.051,-0.046,-0.049
0.001,0.056,0.054,-0.029,-0.027,0.055,0.015,-0.056,-0.136,-0.056,-0.051,-0.058
-0.008,0.048,0.056,-0.021,-0.032,0.052,0.016,-0.054,-0.143,-0.054,-0.056,-0.066
-0.031,0.04,0.07,-0.004,-0.051,0.055,0.014,-0.059,-0.146,-0.062,-0.059,-0.065
-0.03,0.037,0.067,-0.004,-0.049,0.052,0.02,-0.065,-0.157,-0.075,-0.064,-0.065
-0.023,0.039,0.063,-0.008,-0.043,0.051,0.032,-0.068,-0.161,-0.078,-0.065,-0.065
-0.019,0.041,0.06,-0.011,-0.04,0.05,0.028,-0.076,-0.174,-0.083,-0.065,-0.065
-0.016,0.039,0.055,-0.012,-0.036,0.047,0.025,-0.075,-0.182,-0.084,-0.07,-0.065
-0.012,0.04,0.053,-0.014,-0.032,0.046,0.023,-0.075,-0.179,-0.08,-0.07,-0.065
-0.009,0.037,0.046,-0.014,-0.028,0.041,0.019,-0.076,-0.181,-0.08,-0.07,-0.065
-0.009,0.032,0.041,-0.012,-0.025,0.036,0.02,-0.074,-0.179,-0.077,-0.07,-0.065
0.016,0.052,0.036,-0.034,-0.011,0.044,0.02,-0.077,-0.18,-0.075,-0.07,-0.065
0.027,0.057,0.03,-0.042,-0.001,0.043,0.02,-0.08,-0.185,-0.075,-0.07,-0.065
0.021,0.046,0.025,-0.034,-0.002,0.036,0.02,-0.081,-0.185,-0.078,-0.07,-0.062
0.004,0.041,0.037,-0.023,-0.017,0.039,0.02,-0.085,-0.188,-0.082,-0.07,-0.057
-0.009,0.031,0.041,-0.011,-0.025,0.036,0.019,-0.085,-0.193,-0.087,-0.07,-0.054
-0.01,0.027,0.036,-0.009,-0.023,0.031,0.016,-0.086,-0.192,-0.092,-0.071,-0.051
-0.004,0.029,0.033,-0.013,-0.019,0.031,0.015,-0.083,-0.188,-0.087,-0.07,-0.047
0.005,0.037,0.031,-0.021,-0.014,0.033,0.016,-0.079,-0.186,-0.082,-0.07,-0.044
0.005,0.033,0.028,-0.019,-0.012,0.03,0.015,-0.077,-0.181,-0.077,-0.066,-0.038
-0.001,0.047,0.048,-0.023,-0.025,0.047,0.015,-0.072,-0.181,-0.073,-0.064,-0.032
-0.029,0.049,0.078,-0.011,-0.053,0.063,0.018,-0.07,-0.173,-0.068,-0.065,-0.028
-0.023,0.049,0.071,-0.014,-0.048,0.06,0.038,-0.058,-0.154,-0.053,-0.056,-0.021
0.015,0.103,0.088,-0.059,-0.037,0.095,0.061,-0.044,-0.132,-0.035,-0.044,-0.018
0.033,0.133,0.1,-0.083,-0.033,0.116,0.058,-0.045,-0.128,-0.033,-0.028,-0.003
0.041,0.149,0.108,-0.095,-0.034,0.128,0.039,-0.046,-0.131,-0.029,-0.001,0.014
0.05,0.149,0.099,-0.1,-0.025,0.124,0.014,-0.058,-0.133,-0.025,0.005,0.014
0.066,0.113,0.047,-0.09,0.009,0.08,-0.004,-0.07,-0.141,-0.024,-0.015,0.0
0.051,0.093,0.043,-0.072,0.004,0.068,-0.006,-0.062,-0.134,-0.017,-0.017,0.003
0.008,0.044,0.036,-0.026,-0.014,0.039,-0.004,-0.079,-0.159,-0.052,-0.039,-0.017
-0.011,0.032,0.044,-0.011,-0.028,0.038,-0.006,-0.067,-0.152,-0.056,-0.05,-0.037
-0.017,0.01,0.027,0.003,-0.022,0.018,-0.004,-0.091,-0.18,-0.081,-0.075,-0.058
-0.016,0.028,0.045,-0.006,-0.031,0.036,-0.003,-0.082,-0.15,-0.059,-0.064,-0.05
-0.033,-0.027,0.006,0.03,-0.019,-0.011,0.041,-0.035,-0.173,-0.097,-0.092,-0.057
-0.03,-0.105,-0.075,0.068,0.023,-0.09,0.229,0.307,-0.109,-0.157,-0.168,-0.145
0.126,0.284,0.158,-0.205,-0.016,0.221,0.2,0.511,0.319,0.201,0.131,0.086
0.392,0.944,0.553,-0.668,-0.081,0.748,-0.425,-0.549,0.78,0.96,0.826,0.699
0.502,1.37,0.869,-0.936,-0.184,1.119,-0.972,-1.47,0.861,1.39,1.263,1.085
0.18,0.8,0.621,-0.49,-0.221,0.71,-0.861,-1.505,-0.219,0.469,0.585,0.619
-0.089,0.05,0.139,0.019,-0.114,0.094,-0.53,-1.179,-0.896,-0.355,-0.161,0.004
-0.045,0.031,0.075,0.007,-0.06,0.053,-0.234,-0.487,-0.413,-0.182,-0.104,-0.05
-0.038,0.009,0.047,0.014,-0.042,0.028,-0.047,-0.156,-0.257,-0.128,-0.082,-0.055
-0.01,0.002,0.012,0.003,-0.011,0.007,-0.017,-0.092,-0.211,-0.095,-0.081,-0.064
-0.002,0.01,0.012,-0.004,-0.007,0.011,0.009,-0.044,-0.184,-0.084,-0.068,-0.049
-0.018,-0.008,0.01,0.013,-0.014,0.001,0.02,-0.039,-0.188,-0.095,-0.078,-0.054
-0.027,0.003,0.03,0.012,-0.028,0.016,0.029,-0.017,-0.157,-0.076,-0.06,-0.039
-0.029,-0.01,0.02,0.019,-0.024,0.005,0.042,-0.017,-0.16,-0.088,-0.07,-0.042
-0.013,0.008,0.021,0.003,-0.018,0.014,0.041,0.001,-0.131,-0.073,-0.053,-0.03
-0.012,0.003,0.015,0.004,-0.014,0.008,0.041,0.006,-0.13,-0.079,-0.054,-0.029
0.001,0.013,0.012,-0.007,-0.005,0.012,0.039,0.019,-0.109,-0.064,-0.043,-0.024
0.006,0.015,0.009,-0.011,-0.001,0.012,0.04,0.027,-0.104,-0.062,-0.038,-0.022
0.03,0.026,-0.004,-0.028,0.017,0.011,0.04,0.042,-0.092,-0.054,-0.032,-0.019
0.038,0.032,-0.006,-0.035,0.021,0.013,0.039,0.052,-0.08,-0.047,-0.025,-0.016
0.025,0.039,0.015,-0.032,0.005,0.027,0.034,0.067,-0.067,-0.042,-0.016,-0.015
0.017,0.058,0.041,-0.038,-0.012,0.049,0.03,0.082,-0.052,-0.027,-0.004,-0.004
0.014,0.06,0.046,-0.037,-0.016,0.053,0.028,0.098,-0.035,-0.015,0.004,0.017
0.033,0.076,0.043,-0.055,-0.005,0.06,0.023,0.139,-0.007,0.013,0.023,0.037
0.039,0.089,0.05,-0.064,-0.006,0.069,0.021,0.172,0.02,0.046,0.045,0.053
0.067,0.115,0.049,-0.091,0.009,0.082,0.013,0.219,0.068,0.087,0.09,0.085
0.108,0.159,0.051,-0.133,0.028,0.105,-0.008,0.261,0.107,0.123,0.139,0.123
0.146,0.202,0.056,-0.174,0.045,0.129,-0.023,0.306,0.16,0.184,0.195,0.171
0.196,0.265,0.07,-0.231,0.063,0.167,-0.045,0.346,0.225,0.271,0.275,0.231
0.223,0.323,0.1,-0.274,0.061,0.211,-0.077,0.354,0.261,0.321,0.325,0.276
0.26,0.362,0.101,-0.311,0.079,0.231,-0.103,0.359,0.304,0.387,0.386,0.328
0.277,0.406,0.13,-0.342,0.073,0.267,-0.104,0.348,0.326,0.42,0.415,0.352
0.259,0.421,0.162,-0.34,0.048,0.291,-0.099,0.336,0.314,0.405,0.4,0.348
0.23,0.379,0.15,-0.305,0.039,0.264,-0.085,0.316,0.286,0.394,0.388,0.34
0.181,0.333,0.153,-0.257,0.014,0.243,-0.041,0.273,0.238,0.32,0.321,0.266
0.136,0.279,0.142,-0.208,-0.003,0.21,-0.005,0.223,0.174,0.227,0.23,0.189
0.084,0.196,0.111,-0.14,-0.014,0.153,0.017,0.167,0.096,0.151,0.15,0.137
0.04,0.126,0.086,-0.084,-0.023,0.106,0.039,0.117,0.042,0.084,0.088,0.088
0.026,0.098,0.072,-0.062,-0.023,0.085,0.055,0.074,-0.005,0.041,0.052,0.054
0.019,0.082,0.063,-0.051,-0.022,0.073,0.05,0.039,-0.053,0.008,0.033,0.027
0.021,0.072,0.051,-0.047,-0.015,0.062,0.042,0.017,-0.073,-0.003,0.027,0.019
0.017,0.063,0.046,-0.04,-0.015,0.054,0.037,0.009,-0.088,-0.008,0.017,0.016
0.01,0.052,0.042,-0.031,-0.016,0.047,0.028,0.006,-0.097,-0.017,0.008,0.013
0.008,0.05,0.042,-0.029,-0.017,0.046,0.024,0.003,-0.098,-0.021,0.005,0.008
0.014,0.05,0.036,-0.032,-0.011,0.043,0.016,-0.002,-0.114,-0.033,0.005,0.005
0.013,0.05,0.037,-0.032,-0.012,0.043,0.022,-0.005,-0.127,-0.045,0.005,0.008
0.021,0.05,0.029,-0.036,-0.004,0.039,0.043,-0.001,-0.122,-0.045,0.005,0.011
0.026,0.05,0.023,-0.038,0.001,0.036,0.051,0.006,-0.119,-0.045,0.005,0.014
-0.008,0.045,0.053,-0.019,-0.031,0.049,0.05,0.012,-0.116,-0.045,0.004,0.017
-0.01,0.04,0.05,-0.015,-0.03,0.044,0.05,0.019,-0.112,-0.045,0.0,0.02
0.002,0.036,0.033,-0.019,-0.016,0.034,0.05,0.026,-0.109,-0.048,0.0,0.019
0.004,0.031,0.027,-0.018,-0.011,0.029,0.05,0.029,-0.104,-0.05,-0.003,0.012
0.014,0.027,0.013,-0.02,0.0,0.02,0.047,0.025,-0.103,-0.05,-0.006,0.008
0.015,0.022,0.007,-0.019,0.004,0.014,0.042,0.022,-0.096,-0.05,-0.005,0.002
0.028,0.02,-0.008,-0.023,0.018,0.006,0.04,0.018,-0.097,-0.051,-0.009,-0.004
0.023,0.02,-0.004,-0.021,0.013,0.008,0.035,0.016,-0.117,-0.049,-0.014,-0.009
0.014,0.016,0.002,-0.016,0.006,0.009,0.032,0.009,-0.127,-0.058,-0.019,-0.01
-0.008,0.014,0.022,-0.004,-0.016,0.018,0.028,-0.003,-0.131,-0.064,-0.023,-0.01
-0.031,0.016,0.047,0.008,-0.04,0.031,0.025,-0.015,-0.135,-0.067,-0.027,-0.01
-0.011,0.02,0.031,-0.005,-0.021,0.025,0.021,-0.023,-0.135,-0.083,-0.032,-0.01
0.004,0.02,0.016,-0.012,-0.006,0.018,0.017,-0.02,-0.135,-0.086,-0.034,-0.01
0.022,0.021,-0.001,-0.022,0.011,0.01,0.014,-0.02,-0.135,-0.084,-0.038,-0.011
0.019,0.025,0.006,-0.022,0.006,0.016,0.008,-0.028,-0.137,-0.086,-0.04,-0.024
0.002,0.025,0.024,-0.014,-0.011,0.024,0.025,-0.032,-0.135,-0.084,-0.044,-0.027
0.009,0.023,0.014,-0.016,-0.003,0.018,0.043,-0.027,-0.135,-0.085,-0.046,-0.024
0.004,0.016,0.012,-0.01,-0.004,0.013,0.037,-0.025,-0.133,-0.078,-0.041,-0.025
0.004,0.011,0.007,-0.008,-0.002,0.009,0.034,-0.022,-0.129,-0.082,-0.039,-0.025
0.01,0.006,-0.004,-0.008,0.007,0.001,0.031,-0.019,-0.13,-0.103,-0.036,-0.025
-0.008,-0.001,0.008,0.005,-0.008,0.003,0.026,-0.031,-0.133,-0.101,-0.034,-0.026
-0.027,-0.004,0.023,0.015,-0.024,0.009,0.025,-0.042,-0.142,-0.094,-0.03,-0.03
-0.02,-0.001,0.019,0.01,-0.019,0.009,0.025,-0.044,-0.144,-0.09,-0.03,-0.03
-0.007,0.013,0.02,-0.003,-0.014,0.016,0.025,-0.042,-0.14,-0.083,-0.049,-0.035
0.001,0.022,0.021,-0.011,-0.01,0.021,0.025,-0.039,-0.14,-0.081,-0.055,-0.035
0.0,0.018,0.018,-0.009,-0.009,0.018,0.025,-0.041,-0.14,-0.087,-0.045,-0.031
-0.014,0.016,0.029,-0.001,-0.022,0.022,0.029,-0.04,-0.14,-0.094,-0.04,-0.029
-0.022,0.012,0.034,0.005,-0.028,0.023,0.031,-0.041,-0.14,-0.091,-0.032,-0.026
-0.017,0.01,0.027,0.003,-0.022,0.018,0.027,-0.039,-0.136,-0.09,-0.026,-0.024
-0.014,0.007,0.021,0.003,-0.018,0.014,0.025,-0.035,-0.135,-0.09,-0.033,-0.021
-0.012,0.005,0.016,0.003,-0.015,0.01,0.022,-0.035,-0.135,-0.085,-0.036,-0.02
-0.009,0.004,0.013,0.002,-0.012,0.009,0.02,-0.034,-0.135,-0.085,-0.035,-0.019
-0.021,0.0,0.021,0.01,-0.021,0.01,0.024,-0.035,-0.135,-0.084,-0.032,-0.015
-0.031,0.0,0.031,0.016,-0.031,0.015,0.025,-0.034,-0.134,-0.077,-0.029,-0.015
-0.009,0.001,0.009,0.004,-0.009,0.005,0.03,-0.032,-0.129,-0.072,-0.031,-0.013
-0.007,-0.001,0.006,0.004,-0.006,0.002,0.03,-0.023,-0.127,-0.063,-0.02,-0.003
-0.023,0.009,0.032,0.007,-0.028,0.02,0.044,-0.019,-0.111,-0.059,-0.009,0.005
0.012,0.057,0.045,-0.035,-0.017,0.051,0.078,0.008,-0.08,-0.043,0.003,0.014
0.026,0.092,0.066,-0.059,-0.021,0.079,0.083,0.034,-0.079,-0.019,0.012,0.026
0.024,0.106,0.082,-0.065,-0.03,0.094,0.064,0.017,-0.085,-0.025,0.019,0.038
0.04,0.105,0.065,-0.073,-0.013,0.085,0.029,0.003,-0.084,-0.029,0.031,0.044
0.052,0.055,0.003,-0.053,0.024,0.028,0.013,-0.01,-0.095,-0.041,0.018,0.03
0.074,0.045,-0.029,-0.059,0.051,0.007,0.02,-0.007,-0.087,-0.041,0.013,0.026
0.029,0.004,-0.025,-0.016,0.027,-0.011,0.027,-0.027,-0.114,-0.058,-0.007,0.009
-0.016,-0.025,-0.009,0.021,-0.004,-0.017,0.028,-0.018,-0.105,-0.057,-0.009,0.006
-0.035,-0.042,-0.006,0.038,-0.014,-0.024,0.026,-0.039,-0.127,-0.087,-0.035,-0.01
-0.036,-0.026,0.01,0.031,-0.023,-0.008,0.017,-0.032,-0.102,-0.076,-0.029,-0.018
-0.009,-0.042,-0.033,0.025,0.012,-0.037,0.044,0.005,-0.113,-0.081,-0.036,-0.028
-0.03,-0.154,-0.124,0.092,0.048,-0.139,0.228,0.311,-0.089,-0.168,-0.138,-0.121
0.108,0.184,0.076,-0.146,0.016,0.13,0.231,0.575,0.318,0.144,0.131,0.087
0.387,0.86,0.473,-0.624,-0.043,0.666,-0.364,-0.474,0.755,0.853,0.782,0.676
0.504,1.33,0.826,-0.917,-0.161,1.078,-0.956,-1.49,0.856,1.333,1.255,1.117
0.237,0.858,0.621,-0.548,-0.192,0.739,-0.884,-1.521,-0.088,0.57,0.703,0.718
-0.087,0.034,0.121,0.026,-0.104,0.077,-0.534,-1.184,-0.801,-0.32,-0.1,0.058
-0.095,-0.051,0.044,0.073,-0.069,-0.004,-0.234,-0.477,-0.366,-0.187,-0.095,-0.022
-0.06,-0.038,0.022,0.048,-0.04,-0.008,-0.04,-0.121,-0.196,-0.111,-0.062,-0.024
-0.038,-0.054,-0.017,0.046,-0.01,-0.035,0.001,-0.056,-0.16,-0.104,-0.074,-0.037
-0.002,-0.036,-0.033,0.019,0.016,-0.034,0.025,-0.005,-0.12,-0.084,-0.045,-0.019
-0.004,-0.054,-0.051,0.029,0.024,-0.052,0.036,-0.008,-0.133,-0.1,-0.057,-0.03
-0.009,-0.036,-0.026,0.023,0.009,-0.031,0.044,0.021,-0.093,-0.074,-0.034,-0.015
-0.016,-0.045,-0.029,0.031,0.007,-0.037,0.056,0.032,-0.091,-0.086,-0.043,-0.023
-0.015,-0.037,-0.022,0.026,0.004,-0.029,0.054,0.05,-0.066,-0.067,-0.031,-0.013
-0.015,-0.042,-0.027,0.029,0.006,-0.034,0.058,0.047,-0.071,-0.071,-0.033,-0.014
-0.009,-0.033,-0.024,0.021,0.008,-0.028,0.06,0.056,-0.06,-0.06,-0.026,-0.009
0.0,-0.025,-0.025,0.013,0.013,-0.025,0.059,0.064,-0.054,-0.056,-0.024,-0.006
0.008,-0.017,-0.025,0.005,0.017,-0.021,0.054,0.074,-0.042,-0.05,-0.016,-0.006
0.009,-0.009,-0.018,0.001,0.013,-0.014,0.056,0.093,-0.028,-0.044,-0.004,0.0
0.009,-0.002,-0.01,-0.003,0.01,-0.006,0.053,0.114,-0.016,-0.039,0.005,0.007
0.004,0.002,-0.002,-0.003,0.002,0.0,0.049,0.133,-0.001,-0.027,0.016,0.015
0.025,0.03,0.005,-0.028,0.009,0.018,0.051,0.154,0.012,-0.016,0.029,0.018
0.04,0.053,0.013,-0.047,0.013,0.033,0.045,0.178,0.032,0.001,0.045,0.041
0.041,0.061,0.021,-0.051,0.01,0.041,0.036,0.207,0.055,0.036,0.067,0.065
0.063,0.097,0.034,-0.08,0.014,0.066,0.028,0.247,0.087,0.07,0.109,0.083
0.092,0.116,0.024,-0.104,0.034,0.07,0.018,0.289,0.133,0.118,0.154,0.129
0.137,0.172,0.035,-0.155,0.051,0.103,-0.01,0.333,0.184,0.192,0.211,0.176
0.173,0.239,0.067,-0.207,0.053,0.153,-0.042,0.369,0.24,0.251,0.275,0.229
0.212,0.281,0.069,-0.247,0.071,0.174,-0.063,0.393,0.296,0.32,0.353,0.291
0.245,0.341,0.096,-0.293,0.074,0.218,-0.087,0.393,0.34,0.386,0.413,0.342
0.265,0.391,0.126,-0.328,0.069,0.258,-0.104,0.382,0.372,0.417,0.44,0.379
0.257,0.4,0.142,-0.329,0.057,0.271,-0.112,0.38,0.387,0.434,0.448,0.374
0.245,0.393,0.148,-0.319,0.048,0.27,-0.091,0.36,0.375,0.416,0.428,0.357
0.223,0.361,0.138,-0.293,0.043,0.249,-0.046,0.321,0.323,0.35,0.377,0.321
0.159,0.283,0.124,-0.221,0.017,0.203,-0.003,0.276,0.268,0.274,0.295,0.248
0.103,0.201,0.098,-0.152,0.003,0.149,0.024,0.221,0.202,0.196,0.216,0.176
0.058,0.142,0.084,-0.101,-0.013,0.113,0.035,0.17,0.126,0.118,0.145,0.121
0.032,0.108,0.076,-0.07,-0.022,0.092,0.041,0.13,0.073,0.063,0.083,0.082
0.02,0.078,0.058,-0.049,-0.02,0.068,0.04,0.089,0.035,0.026,0.051,0.054
0.022,0.059,0.037,-0.041,-0.008,0.048,0.04,0.063,0.013,0.008,0.047,0.046
0.018,0.047,0.029,-0.033,-0.005,0.038,0.04,0.05,0.0,-0.006,0.045,0.039
0.004,0.035,0.031,-0.02,-0.014,0.033,0.039,0.045,-0.014,-0.017,0.04,0.032
0.005,0.032,0.027,-0.019,-0.011,0.029,0.044,0.043,-0.031,-0.016,0.036,0.026
0.001,0.025,0.025,-0.014,-0.012,0.025,0.045,0.039,-0.036,-0.013,0.034,0.02
-0.002,0.024,0.025,-0.011,-0.014,0.024,0.045,0.037,-0.034,-0.01,0.035,0.026
-0.005,0.016,0.021,-0.006,-0.014,0.018,0.05,0.034,-0.039,-0.008,0.035,0.033
-0.002,0.018,0.019,-0.008,-0.011,0.018,0.05,0.04,-0.04,-0.004,0.035,0.035
0.019,0.035,0.016,-0.028,0.002,0.025,0.05,0.043,-0.04,-0.007,0.035,0.035
0.02,0.033,0.014,-0.027,0.003,0.023,0.05,0.039,-0.035,-0.014,0.035,0.035
0.016,0.025,0.009,-0.02,0.003,0.017,0.05,0.045,-0.035,-0.02,0.031,0.035
0.008,0.02,0.011,-0.014,-0.002,0.015,0.05,0.045,-0.035,-0.025,0.024,0.034
-0.013,0.012,0.025,0.0,-0.019,0.018,0.05,0.04,-0.035,-0.026,0.017,0.03
-0.019,0.006,0.026,0.006,-0.023,0.016,0.05,0.038,-0.034,-0.03,0.011,0.025
-0.023,0.001,0.025,0.011,-0.024,0.013,0.047,0.033,-0.042,-0.03,0.004,0.02
-0.023,-0.001,0.022,0.012,-0.022,0.01,0.044,0.03,-0.061,-0.03,-0.001,0.016
-0.018,-0.004,0.014,0.01,-0.016,0.005,0.041,0.025,-0.066,-0.031,-0.006,0.011
-0.018,-0.007,0.011,0.013,-0.014,0.002,0.039,0.017,-0.065,-0.028,-0.011,0.008
-0.012,-0.009,0.003,0.01,-0.008,-0.002,0.035,0.011,-0.065,-0.046,-0.016,0.003
-0.012,-0.012,0.0,0.012,-0.006,-0.006,0.036,0.003,-0.065,-0.062,-0.02,0.0
-0.007,-0.014,-0.008,0.011,0.001,-0.011,0.04,-0.005,-0.065,-0.059,-0.025,-0.003
-0.012,-0.021,-0.009,0.016,-0.002,-0.015,0.039,-0.008,-0.06,-0.06,-0.028,-0.008
-0.01,-0.022,-0.012,0.016,0.001,-0.017,0.043,-0.005,-0.06,-0.06,-0.031,-0.011
0.008,-0.018,-0.026,0.006,0.017,-0.022,0.045,-0.005,-0.059,-0.06,-0.034,-0.015
0.011,-0.012,-0.023,0.001,0.018,-0.018,0.045,-0.003,-0.055,-0.064,-0.037,-0.019
0.016,-0.004,-0.02,-0.006,0.018,-0.012,0.041,0.001,-0.055,-0.065,-0.04,-0.024
-0.02,-0.037,-0.018,0.029,0.0,-0.027,0.04,0.0,-0.057,-0.065,-0.043,-0.023
-0.044,-0.059,-0.015,0.052,-0.014,-0.037,0.04,-0.003,-0.064,-0.065,-0.047,-0.019
-0.034,-0.046,-0.013,0.04,-0.01,-0.029,0.036,-0.006,-0.065,-0.065,-0.05,-0.02
-0.036,-0.045,-0.01,0.041,-0.013,-0.027,0.034,-0.009,-0.065,-0.065,-0.046,-0.02
-0.031,-0.041,-0.01,0.036,-0.01,-0.025,0.037,-0.012,-0.065,-0.065,-0.044,-0.02
-0.023,-0.033,-0.01,0.028,-0.006,-0.021,0.04,-0.015,-0.065,-0.065,-0.045,-0.02
-0.039,-0.049,-0.01,0.044,-0.014,-0.029,0.04,-0.017,-0.066,-0.062,-0.044,-0.026
-0.057,-0.067,-0.01,0.062,-0.023,-0.038,0.04,-0.02,-0.062,-0.058,-0.046,-0.031
-0.038,-0.065,-0.026,0.052,-0.006,-0.045,0.04,-0.02,-0.059,-0.064,-0.043,-0.03
-0.033,-0.065,-0.032,0.049,0.0,-0.048,0.04,-0.02,-0.06,-0.075,-0.04,-0.03
-0.036,-0.065,-0.029,0.051,-0.003,-0.047,0.037,-0.02,-0.056,-0.075,-0.04,-0.03
-0.036,-0.065,-0.029,0.05,-0.003,-0.047,0.034,-0.02,-0.055,-0.075,-0.04,-0.03
-0.037,-0.062,-0.025,0.05,-0.006,-0.043,0.035,-0.02,-0.055,-0.075,-0.04,-0.03
-0.035,-0.059,-0.025,0.048,-0.005,-0.042,0.035,-0.02,-0.05,-0.075,-0.04,-0.025
-0.033,-0.06,-0.027,0.047,-0.003,-0.044,0.035,-0.02,-0.05,-0.073,-0.04,-0.025
-0.03,-0.06,-0.03,0.045,0.0,-0.045,0.034,-0.02,-0.05,-0.069,-0.04,-0.024
-0.03,-0.06,-0.03,0.045,0.0,-0.045,0.03,-0.021,-0.05,-0.071,-0.041,-0.019
-0.032,-0.061,-0.03,0.046,-0.001,-0.046,0.03,-0.019,-0.05,-0.065,-0.039,-0.021
-0.035,-0.065,-0.03,0.05,-0.002,-0.047,0.03,-0.015,-0.052,-0.066,-0.041,-0.017
-0.04,-0.065,-0.025,0.053,-0.007,-0.045,0.03,-0.016,-0.057,-0.064,-0.038,-0.015
-0.045,-0.07,-0.025,0.058,-0.01,-0.047,0.03,-0.013,-0.062,-0.061,-0.037,-0.015
-0.045,-0.07,-0.026,0.058,-0.01,-0.047,0.03,-0.01,-0.065,-0.079,-0.055,-0.012
-0.043,-0.067,-0.025,0.055,-0.009,-0.046,0.03,-0.009,-0.061,-0.081,-0.055,-0.009
-0.038,-0.064,-0.026,0.051,-0.005,-0.045,0.03,-0.018,-0.054,-0.075,-0.051,-0.013
-0.045,-0.066,-0.021,0.056,-0.011,-0.043,0.03,-0.025,-0.05,-0.073,-0.049,-0.029
-0.044,-0.059,-0.015,0.051,-0.014,-0.037,0.029,-0.016,-0.046,-0.07,-0.045,-0.025
-0.057,-0.062,-0.004,0.06,-0.027,-0.033,0.033,-0.007,-0.042,-0.068,-0.044,-0.017
-0.055,-0.054,0.0,0.055,-0.028,-0.027,0.046,0.001,-0.034,-0.061,-0.035,-0.011
-0.016,-0.004,0.012,0.009,-0.014,0.004,0.075,0.028,-0.005,-0.047,-0.025,-0.004
-0.014,0.028,0.041,-0.007,-0.028,0.034,0.096,0.044,0.016,-0.029,-0.014,0.002
-0.01,0.042,0.052,-0.016,-0.031,0.047,0.075,0.031,0.027,-0.031,-0.007,0.016
0.001,0.053,0.053,-0.027,-0.026,0.053,0.027,0.031,0.038,-0.028,0.0,0.029
0.025,0.021,-0.004,-0.023,0.014,0.009,0.014,0.017,0.004,-0.033,0.001,0.019
0.035,-0.015,-0.05,-0.01,0.043,-0.032,0.022,0.018,-0.007,-0.031,0.006,0.02
0.005,-0.052,-0.057,0.023,0.031,-0.054,0.028,0.002,-0.034,-0.05,-0.019,0.011
-0.02,-0.067,-0.047,0.044,0.014,-0.057,0.028,-0.001,-0.029,-0.057,-0.038,-0.01
-0.039,-0.085,-0.045,0.062,0.004,-0.065,0.024,-0.008,-0.027,-0.072,-0.052,-0.028
-0.048,-0.091,-0.043,0.07,-0.002,-0.066,0.026,-0.026,-0.026,-0.083,-0.067,-0.036
-0.058,-0.09,-0.032,0.074,-0.012,-0.061,0.033,0.006,-0.001,-0.074,-0.058,-0.036
-0.075,-0.221,-0.146,0.149,0.035,-0.183,0.184,0.204,-0.038,-0.174,-0.163,-0.14
0.029,-0.013,-0.042,-0.008,0.036,-0.028,0.28,0.628,0.284,0.035,-0.013,-0.028
0.294,0.623,0.328,-0.459,-0.017,0.475,-0.164,-0.061,0.723,0.654,0.58,0.505
0.46,1.214,0.754,-0.837,-0.147,0.983,-0.821,-1.308,0.944,1.283,1.197,1.056
0.258,0.986,0.728,-0.622,-0.236,0.857,-0.918,-1.554,0.27,0.831,0.894,0.859
-0.077,0.104,0.181,-0.014,-0.129,0.142,-0.606,-1.299,-0.674,-0.22,-0.017,0.14
-0.144,-0.143,0.002,0.143,-0.073,-0.07,-0.292,-0.636,-0.418,-0.261,-0.163,-0.06
-0.08,-0.094,-0.014,0.087,-0.032,-0.054,-0.061,-0.144,-0.121,-0.116,-0.087,-0.032
-0.065,-0.133,-0.068,0.099,0.002,-0.1,0.005,-0.058,-0.115,-0.126,-0.124,-0.061
-0.068,-0.118,-0.049,0.093,-0.009,-0.083,0.027,0.003,-0.049,-0.082,-0.089,-0.05
-0.048,-0.137,-0.09,0.093,0.021,-0.113,0.042,0.004,-0.066,-0.111,-0.108,-0.065
-0.038,-0.118,-0.08,0.078,0.022,-0.099,0.044,0.038,-0.033,-0.084,-0.086,-0.048
-0.044,-0.124,-0.08,0.084,0.018,-0.102,0.052,0.04,-0.041,-0.097,-0.092,-0.052
-0.039,-0.115,-0.076,0.078,0.019,-0.095,0.051,0.051,-0.023,-0.087,-0.082,-0.042
-0.043,-0.113,-0.07,0.078,0.014,-0.092,0.056,0.06,-0.016,-0.085,-0.079,-0.04
-0.042,-0.112,-0.07,0.077,0.014,-0.09,0.059,0.069,-0.005,-0.078,-0.076,-0.043
-0.042,-0.106,-0.064,0.075,0.011,-0.084,0.062,0.08,0.011,-0.069,-0.066,-0.036
-0.04,-0.107,-0.066,0.074,0.014,-0.086,0.06,0.08,0.021,-0.066,-0.063,-0.033
-0.038,-0.1,-0.062,0.069,0.012,-0.081,0.06,0.092,0.039,-0.056,-0.053,-0.028
-0.041,-0.101,-0.06,0.071,0.009,-0.081,0.056,0.106,0.046,-0.049,-0.048,-0.024
-0.033,-0.092,-0.06,0.063,0.014,-0.076,0.055,0.124,0.059,-0.039,-0.038,-0.019
0.0,-0.072,-0.072,0.036,0.036,-0.072,0.054,0.141,0.075,-0.031,-0.029,-0.013
0.018,-0.055,-0.072,0.019,0.045,-0.063,0.045,0.165,0.089,-0.012,-0.022,-0.001
0.024,-0.042,-0.066,0.009,0.045,-0.054,0.037,0.196,0.12,0.024,0.004,0.016
0.035,-0.024,-0.059,-0.006,0.047,-0.041,0.029,0.232,0.15,0.064,0.043,0.045
0.068,0.01,-0.058,-0.038,0.063,-0.024,0.014,0.273,0.18,0.096,0.078,0.077
0.108,0.048,-0.06,-0.078,0.083,-0.006,-0.008,0.32,0.231,0.147,0.125,0.125
0.13,0.102,-0.028,-0.116,0.079,0.036,-0.036,0.356,0.282,0.216,0.19,0.185
0.168,0.169,0.001,-0.168,0.084,0.084,-0.057,0.38,0.339,0.28,0.265,0.231
0.2,0.226,0.026,-0.214,0.087,0.126,-0.078,0.383,0.391,0.344,0.317,0.288
0.224,0.272,0.048,-0.249,0.088,0.16,-0.098,0.373,0.428,0.401,0.361,0.338
0.237,0.305,0.068,-0.271,0.084,0.187,-0.092,0.361,0.453,0.429,0.393,0.355
0.206,0.298,0.092,-0.253,0.057,0.195,-0.076,0.356,0.439,0.42,0.386,0.35
0.171,0.259,0.088,-0.216,0.041,0.173,-0.059,0.349,0.406,0.377,0.341,0.319
0.15,0.216,0.067,-0.183,0.041,0.141,-0.031,0.301,0.364,0.309,0.266,0.246
0.079,0.129,0.05,-0.104,0.014,0.089,0.004,0.249,0.294,0.217,0.175,0.165
0.024,0.046,0.021,-0.035,0.001,0.033,0.027,0.199,0.223,0.129,0.092,0.11
0.034,0.006,-0.028,-0.019,0.031,-0.011,0.041,0.145,0.162,0.069,0.036,0.06
0.011,-0.033,-0.044,0.011,0.028,-0.038,0.043,0.109,0.104,0.031,-0.009,0.02
-0.006,-0.06,-0.054,0.034,0.024,-0.057,0.039,0.078,0.069,0.004,-0.042,0.002
-0.006,-0.073,-0.068,0.04,0.031,-0.07,0.041,0.052,0.055,-0.018,-0.051,-0.004
-0.031,-0.089,-0.057,0.06,0.013,-0.073,0.036,0.045,0.047,-0.027,-0.049,-0.011
-0.047,-0.105,-0.058,0.077,0.006,-0.082,0.035,0.043,0.038,-0.035,-0.054,-0.019
-0.054,-0.106,-0.051,0.08,-0.001,-0.078,0.035,0.04,0.031,-0.033,-0.055,-0.026
-0.054,-0.103,-0.049,0.078,-0.002,-0.076,0.03,0.037,0.03,-0.03,-0.055,-0.03
-0.039,-0.101,-0.062,0.07,0.011,-0.081,0.03,0.033,0.029,-0.028,-0.055,-0.03
-0.035,-0.099,-0.064,0.067,0.015,-0.081,0.03,0.052,0.025,-0.024,-0.054,-0.03
-0.023,-0.103,-0.08,0.063,0.029,-0.091,0.03,0.062,0.025,-0.045,-0.057,-0.03
-0.015,-0.105,-0.09,0.06,0.038,-0.097,0.029,0.062,0.024,-0.058,-0.06,-0.03
-0.028,-0.105,-0.077,0.067,0.025,-0.091,0.039,0.066,0.019,-0.055,-0.061,-0.031
-0.031,-0.105,-0.074,0.068,0.022,-0.089,0.047,0.057,0.014,-0.062,-0.059,-0.034
-0.04,-0.105,-0.065,0.073,0.013,-0.085,0.044,0.051,0.009,-0.059,-0.065,-0.037
-0.047,-0.105,-0.059,0.076,0.007,-0.082,0.045,0.044,0.005,-0.055,-0.075,-0.04
-0.024,-0.104,-0.081,0.064,0.029,-0.092,0.045,0.036,0.0,-0.076,-0.077,-0.043
-0.02,-0.11,-0.09,0.066,0.035,-0.1,0.045,0.029,-0.004,-0.088,-0.079,-0.045
-0.037,-0.116,-0.079,0.076,0.022,-0.097,0.042,0.022,-0.01,-0.083,-0.083,-0.047
-0.037,-0.115,-0.077,0.076,0.02,-0.096,0.037,0.016,-0.015,-0.089,-0.084,-0.052
-0.046,-0.115,-0.069,0.081,0.012,-0.092,0.034,0.009,-0.021,-0.09,-0.088,-0.055
-0.049,-0.114,-0.065,0.082,0.009,-0.09,0.031,0.003,-0.027,-0.09,-0.089,-0.06
-0.043,-0.123,-0.08,0.084,0.019,-0.102,0.026,-0.005,-0.031,-0.094,-0.092,-0.065
-0.04,-0.126,-0.087,0.083,0.024,-0.106,0.026,-0.009,-0.038,-0.097,-0.094,-0.068
-0.036,-0.12,-0.084,0.079,0.024,-0.102,0.03,-0.019,-0.044,-0.107,-0.097,-0.073
-0.038,-0.12,-0.082,0.079,0.022,-0.1,0.03,-0.027,-0.046,-0.111,-0.116,-0.075
-0.034,-0.113,-0.079,0.073,0.023,-0.096,0.03,-0.022,-0.049,-0.109,-0.121,-0.075
-0.047,-0.128,-0.08,0.087,0.017,-0.103,0.03,-0.02,-0.052,-0.106,-0.119,-0.075
-0.071,-0.146,-0.075,0.109,0.002,-0.11,0.03,-0.016,-0.055,-0.095,-0.121,-0.075
-0.07,-0.145,-0.075,0.108,0.003,-0.11,0.026,-0.014,-0.056,-0.106,-0.12,-0.082
-0.07,-0.145,-0.074,0.108,0.002,-0.109,0.025,-0.019,-0.06,-0.122,-0.126,-0.086
-0.077,-0.145,-0.069,0.111,-0.004,-0.107,0.025,-0.02,-0.06,-0.12,-0.129,-0.084
-0.073,-0.144,-0.072,0.108,0.0,-0.108,0.021,-0.02,-0.06,-0.125,-0.134,-0.081
-0.081,-0.145,-0.065,0.113,-0.007,-0.105,0.019,-0.021,-0.06,-0.125,-0.135,-0.08
-0.078,-0.155,-0.076,0.117,-0.001,-0.115,0.022,-0.025,-0.06,-0.128,-0.135,-0.08
-0.06,-0.157,-0.097,0.109,0.019,-0.127,0.025,-0.025,-0.064,-0.131,-0.14,-0.08
-0.06,-0.154,-0.094,0.107,0.018,-0.124,0.025,-0.025,-0.068,-0.129,-0.14,-0.08
-0.06,-0.156,-0.095,0.108,0.018,-0.125,0.028,-0.025,-0.073,-0.131,-0.141,-0.082
-0.06,-0.155,-0.095,0.108,0.018,-0.125,0.03,-0.025,-0.074,-0.129,-0.145,-0.086
-0.06,-0.155,-0.095,0.108,0.018,-0.125,0.03,-0.025,-0.07,-0.131,-0.145,-0.085
-0.064,-0.157,-0.093,0.111,0.015,-0.125,0.03,-0.025,-0.07,-0.135,-0.145,-0.085
-0.071,-0.16,-0.089,0.116,0.009,-0.125,0.03,-0.025,-0.07,-0.135,-0.145,-0.085
-0.069,-0.16,-0.091,0.114,0.011,-0.125,0.029,-0.025,-0.07,-0.137,-0.145,-0.085
-0.074,-0.16,-0.086,0.117,0.006,-0.123,0.025,-0.025,-0.07,-0.14,-0.142,-0.09
-0.075,-0.16,-0.085,0.118,0.005,-0.122,0.025,-0.024,-0.07,-0.14,-0.137,-0.09
-0.075,-0.16,-0.085,0.118,0.005,-0.122,0.023,-0.02,-0.07,-0.137,-0.134,-0.09
-0.082,-0.161,-0.079,0.122,-0.002,-0.119,0.02,-0.02,-0.07,-0.132,-0.131,-0.09
-0.085,-0.16,-0.075,0.123,-0.005,-0.117,0.021,-0.017,-0.07,-0.13,-0.126,-0.09
-0.095,-0.161,-0.066,0.128,-0.014,-0.113,0.023,-0.013,-0.069,-0.125,-0.126,-0.088
-0.087,-0.158,-0.071,0.123,-0.008,-0.114,0.026,-0.016,-0.069,-0.121,-0.131,-0.083
-0.069,-0.163,-0.094,0.116,0.013,-0.128,0.029,-0.009,-0.06,-0.119,-0.126,-0.082
-0.058,-0.149,-0.091,0.104,0.017,-0.12,0.033,0.004,-0.054,-0.104,-0.122,-0.076
-0.049,-0.108,-0.059,0.079,0.005,-0.083,0.051,0.014,-0.038,-0.093,-0.118,-0.077
-0.035,-0.067,-0.032,0.051,-0.002,-0.049,0.074,0.039,-0.009,-0.075,-0.096,-0.055
-0.015,-0.052,-0.037,0.034,0.011,-0.044,0.065,0.039,-0.014,-0.061,-0.089,-0.037
-0.014,-0.041,-0.027,0.028,0.007,-0.034,0.024,0.031,-0.015,-0.058,-0.09,-0.034
-0.022,-0.048,-0.026,0.035,0.003,-0.037,-0.006,0.013,-0.027,-0.066,-0.095,-0.036
-0.017,-0.083,-0.067,0.05,0.025,-0.075,-0.003,0.002,-0.026,-0.072,-0.096,-0.048
-0.02,-0.125,-0.105,0.072,0.043,-0.114,-0.001,-0.014,-0.042,-0.087,-0.11,-0.048
-0.065,-0.146,-0.081,0.106,0.008,-0.113,0.005,-0.036,-0.063,-0.1,-0.134,-0.076
-0.086,-0.142,-0.056,0.114,-0.015,-0.099,0.006,-0.027,-0.059,-0.113,-0.144,-0.103
-0.093,-0.185,-0.091,0.14,-0.001,-0.138,0.014,-0.048,-0.076,-0.139,-0.161,-0.111
-0.096,-0.17,-0.073,0.133,-0.012,-0.121,0.032,-0.011,-0.047,-0.101,-0.131,-0.095
-0.1,-0.266,-0.166,0.183,0.033,-0.216,0.124,0.118,-0.081,-0.195,-0.229,-0.185
-0.032,-0.165,-0.133,0.099,0.05,-0.149,0.269,0.568,0.181,-0.088,-0.166,-0.16
0.194,0.402,0.208,-0.298,-0.007,0.305,-0.03,0.276,0.645,0.483,0.356,0.305
0.404,1.062,0.658,-0.733,-0.127,0.86,-0.707,-1.033,0.948,1.182,1.028,0.903
0.272,1.063,0.792,-0.667,-0.26,0.927,-0.92,-1.571,0.47,0.994,0.948,0.885
-0.087,0.184,0.271,-0.048,-0.179,0.227,-0.656,-1.387,-0.592,-0.108,0.033,0.188
-0.189,-0.216,-0.027,0.203,-0.081,-0.121,-0.364,-0.816,-0.568,-0.344,-0.266,-0.146
-0.137,-0.158,-0.021,0.148,-0.057,-0.089,-0.114,-0.233,-0.175,-0.141,-0.169,-0.115
-0.104,-0.2,-0.096,0.152,-0.004,-0.148,-0.018,-0.099,-0.145,-0.161,-0.207,-0.136
-0.096,-0.182,-0.086,0.139,-0.005,-0.133,-0.004,-0.035,-0.083,-0.101,-0.164,-0.116
-0.112,-0.203,-0.091,0.158,-0.01,-0.147,0.015,-0.012,-0.099,-0.125,-0.178,-0.122
-0.105,-0.192,-0.087,0.149,-0.008,-0.14,0.014,0.011,-0.076,-0.103,-0.161,-0.114
-0.121,-0.201,-0.08,0.162,-0.021,-0.14,0.026,0.021,-0.07,-0.105,-0.162,-0.112
-0.107,-0.201,-0.094,0.155,-0.007,-0.147,0.034,0.028,-0.053,-0.099,-0.157,-0.111
-0.077,-0.196,-0.119,0.136,0.021,-0.157,0.037,0.042,-0.041,-0.09,-0.15,-0.109
-0.097,-0.194,-0.096,0.146,0.0,-0.145,0.035,0.045,-0.035,-0.089,-0.15,-0.111
-0.104,-0.184,-0.08,0.144,-0.012,-0.132,0.034,0.052,-0.02,-0.076,-0.137,-0.109
-0.099,-0.182,-0.082,0.14,-0.008,-0.132,0.03,0.053,-0.015,-0.075,-0.133,-0.11
-0.1,-0.172,-0.073,0.136,-0.013,-0.122,0.03,0.072,-0.001,-0.064,-0.122,-0.1
-0.06,-0.162,-0.102,0.111,0.021,-0.132,0.028,0.083,0.008,-0.061,-0.116,-0.09
-0.048,-0.149,-0.101,0.099,0.027,-0.125,0.02,0.096,0.02,-0.051,-0.106,-0.08
-0.038,-0.126,-0.088,0.082,0.025,-0.107,0.017,0.118,0.034,-0.036,-0.093,-0.069
-0.013,-0.105,-0.092,0.059,0.04,-0.098,0.01,0.134,0.049,-0.019,-0.082,-0.061
-0.02,-0.106,-0.086,0.063,0.034,-0.096,0.005,0.158,0.074,0.015,-0.069,-0.047
-0.003,-0.082,-0.079,0.043,0.039,-0.081,0.001,0.196,0.111,0.053,-0.035,-0.012
0.032,-0.037,-0.069,0.003,0.051,-0.053,-0.012,0.233,0.148,0.094,0.018,0.035
0.068,0.006,-0.062,-0.037,0.065,-0.028,-0.029,0.273,0.203,0.154,0.068,0.079
0.084,0.048,-0.036,-0.066,0.06,0.006,-0.065,0.314,0.266,0.218,0.134,0.122
0.104,0.107,0.003,-0.106,0.051,0.055,-0.089,0.336,0.328,0.297,0.205,0.175
0.161,0.176,0.015,-0.169,0.072,0.095,-0.11,0.347,0.377,0.365,0.257,0.229
0.184,0.225,0.04,-0.205,0.072,0.132,-0.139,0.355,0.418,0.424,0.324,0.275
0.193,0.262,0.069,-0.228,0.062,0.165,-0.142,0.351,0.435,0.467,0.347,0.303
0.196,0.27,0.074,-0.233,0.061,0.172,-0.137,0.337,0.443,0.462,0.33,0.305
0.152,0.237,0.086,-0.195,0.033,0.161,-0.106,0.317,0.442,0.44,0.319,0.275
0.111,0.182,0.071,-0.147,0.02,0.126,-0.059,0.281,0.379,0.371,0.25,0.219
0.084,0.117,0.033,-0.1,0.026,0.075,-0.026,0.232,0.307,0.274,0.16,0.148
0.011,0.041,0.03,-0.026,-0.01,0.035,0.005,0.185,0.238,0.191,0.08,0.079
-0.025,-0.015,0.011,0.02,-0.018,-0.002,0.025,0.143,0.172,0.119,0.01,0.027
-0.026,-0.057,-0.032,0.042,0.004,-0.044,0.026,0.099,0.122,0.068,-0.029,-0.013
-0.043,-0.088,-0.045,0.066,0.001,-0.066,0.025,0.067,0.083,0.04,-0.066,-0.046
-0.051,-0.095,-0.044,0.073,-0.004,-0.069,0.025,0.049,0.058,0.031,-0.082,-0.062
-0.067,-0.115,-0.048,0.092,-0.01,-0.081,0.02,0.042,0.047,0.023,-0.079,-0.067
-0.053,-0.117,-0.064,0.085,0.006,-0.09,0.02,0.038,0.043,0.013,-0.081,-0.074
-0.051,-0.113,-0.062,0.082,0.006,-0.088,0.019,0.034,0.037,0.011,-0.079,-0.072
-0.061,-0.116,-0.055,0.089,-0.002,-0.086,0.015,0.029,0.031,0.007,-0.08,-0.069
-0.06,-0.114,-0.053,0.087,-0.003,-0.083,0.015,0.025,0.026,0.005,-0.083,-0.066
-0.07,-0.116,-0.047,0.093,-0.011,-0.081,0.016,0.03,0.028,0.002,-0.087,-0.063
-0.065,-0.111,-0.046,0.088,-0.009,-0.078,0.014,0.033,0.031,-0.001,-0.09,-0.06
-0.068,-0.12,-0.052,0.094,-0.008,-0.086,0.027,0.039,0.029,0.004,-0.094,-0.061
-0.066,-0.133,-0.067,0.1,0.001,-0.1,0.037,0.04,0.03,0.008,-0.095,-0.076
-0.056,-0.127,-0.071,0.092,0.007,-0.099,0.034,0.033,0.03,0.013,-0.095,-0.081
-0.067,-0.137,-0.07,0.102,0.001,-0.103,0.035,0.03,0.03,0.014,-0.095,-0.079
-0.085,-0.155,-0.07,0.12,-0.007,-0.112,0.035,0.025,0.03,0.008,-0.095,-0.081
-0.085,-0.155,-0.07,0.12,-0.007,-0.112,0.035,0.02,0.03,0.002,-0.095,-0.08
-0.085,-0.155,-0.07,0.12,-0.007,-0.112,0.034,0.016,0.03,-0.004,-0.095,-0.08
-0.09,-0.155,-0.065,0.123,-0.012,-0.11,0.03,0.009,0.03,-0.01,-0.099,-0.083
-0.09,-0.155,-0.065,0.123,-0.012,-0.11,0.028,0.003,0.03,-0.006,-0.101,-0.088
-0.089,-0.152,-0.064,0.121,-0.012,-0.108,0.025,-0.004,0.025,-0.001,-0.1,-0.091
-0.089,-0.15,-0.06,0.12,-0.015,-0.105,0.021,-0.011,0.016,-0.009,-0.1,-0.095
-0.091,-0.15,-0.059,0.121,-0.016,-0.104,0.02,-0.017,0.007,-0.017,-0.099,-0.098
-0.078,-0.147,-0.069,0.112,-0.004,-0.108,0.016,-0.021,-0.001,-0.025,-0.101,-0.102
-0.069,-0.144,-0.075,0.107,0.004,-0.109,0.015,-0.027,-0.01,-0.033,-0.109,-0.105
-0.077,-0.146,-0.068,0.112,-0.004,-0.107,0.015,-0.03,-0.012,-0.032,-0.111,-0.105
-0.09,-0.154,-0.064,0.123,-0.013,-0.109,0.011,-0.035,-0.007,-0.027,-0.109,-0.105
-0.097,-0.157,-0.061,0.127,-0.017,-0.109,0.009,-0.04,-0.005,-0.024,-0.113,-0.105
-0.098,-0.152,-0.054,0.126,-0.022,-0.103,0.012,-0.036,0.0,-0.021,-0.115,-0.105
-0.091,-0.151,-0.06,0.121,-0.015,-0.105,0.015,-0.035,0.003,-0.016,-0.11,-0.105
-0.079,-0.148,-0.069,0.113,-0.005,-0.108,0.015,-0.035,0.007,-0.014,-0.105,-0.104
-0.085,-0.143,-0.058,0.115,-0.013,-0.101,0.017,-0.031,0.014,-0.009,-0.102,-0.1
-0.085,-0.154,-0.069,0.119,-0.008,-0.111,0.02,-0.03,0.022,-0.006,-0.094,-0.101
-0.08,-0.161,-0.081,0.121,0.001,-0.121,0.02,-0.031,0.029,-0.003,-0.102,-0.098
-0.084,-0.155,-0.071,0.12,-0.006,-0.113,0.02,-0.035,0.03,0.001,-0.123,-0.095
-0.085,-0.153,-0.069,0.119,-0.008,-0.111,0.02,-0.036,0.035,0.005,-0.123,-0.095
-0.087,-0.148,-0.061,0.118,-0.013,-0.104,0.02,-0.041,0.036,0.009,-0.115,-0.092
-0.089,-0.144,-0.055,0.117,-0.016,-0.1,0.021,-0.042,0.041,0.016,-0.11,-0.089
-0.088,-0.15,-0.061,0.119,-0.013,-0.105,0.019,-0.048,0.04,0.02,-0.105,-0.086
-0.093,-0.146,-0.052,0.12,-0.02,-0.099,0.022,-0.031,0.048,0.028,-0.088,-0.082
-0.087,-0.113,-0.025,0.1,-0.031,-0.069,0.046,-0.01,0.066,0.029,-0.069,-0.081
-0.06,-0.066,-0.005,0.063,-0.027,-0.035,0.065,0.012,0.084,0.044,-0.06,-0.077
-0.032,-0.039,-0.007,0.035,-0.012,-0.022,0.053,0.028,0.121,0.072,-0.066,-0.059
-0.032,-0.012,0.02,0.021,-0.026,0.004,0.035,-0.009,0.128,0.079,-0.062,-0.046
-0.043,-0.046,-0.004,0.044,-0.019,-0.025,0.036,-0.041,0.096,0.059,-0.069,-0.053
-0.034,-0.095,-0.06,0.065,0.013,-0.077,0.034,-0.032,0.096,0.061,-0.068,-0.047
-0.051,-0.122,-0.071,0.087,0.01,-0.096,0.031,-0.035,0.065,0.044,-0.07,-0.053
-0.08,-0.14,-0.06,0.111,-0.01,-0.1,0.029,-0.042,0.066,0.042,-0.076,-0.066
-0.093,-0.156,-0.063,0.124,-0.014,-0.109,0.03,-0.042,0.066,0.033,-0.078,-0.083
-0.099,-0.161,-0.061,0.13,-0.019,-0.11,0.024,-0.067,0.058,0.017,-0.079,-0.095
-0.095,-0.149,-0.054,0.122,-0.02,-0.101,0.031,-0.024,0.081,0.028,-0.059,-0.088
-0.119,-0.294,-0.175,0.207,0.029,-0.235,0.173,0.158,0.058,-0.076,-0.168,-0.184
-0.035,-0.103,-0.068,0.069,0.017,-0.086,0.295,0.59,0.411,0.115,-0.055,-0.098
0.2,0.52,0.32,-0.36,-0.061,0.42,-0.067,0.204,0.9,0.76,0.52,0.381
0.35,1.111,0.76,-0.731,-0.205,0.935,-0.715,-1.043,1.16,1.442,1.125,0.91
0.17,0.952,0.782,-0.561,-0.306,0.866,-0.857,-1.505,0.452,0.99,0.834,0.747
-0.164,0.096,0.261,0.034,-0.213,0.178,-0.578,-1.298,-0.615,-0.131,-0.051,0.069
-0.233,-0.206,0.026,0.219,-0.129,-0.09,-0.305,-0.729,-0.408,-0.202,-0.212,-0.127
-0.177,-0.194,-0.017,0.185,-0.08,-0.105,-0.079,-0.204,-0.066,-0.032,-0.117,-0.098
-0.136,-0.218,-0.082,0.177,-0.027,-0.149,0.001,-0.093,-0.035,-0.035,-0.12,-0.12
-0.114,-0.188,-0.074,0.151,-0.02,-0.131,0.022,-0.039,0.034,0.014,-0.073,-0.099
-0.118,-0.203,-0.085,0.161,-0.016,-0.144,0.028,-0.027,0.016,-0.009,-0.094,-0.11
-0.11,-0.186,-0.076,0.148,-0.016,-0.131,0.019,-0.007,0.049,0.017,-0.079,-0.101
-0.103,-0.184,-0.082,0.143,-0.01,-0.133,0.021,0.012,0.045,0.007,-0.084,-0.102
-0.09,-0.17,-0.08,0.13,-0.004,-0.125,0.014,0.024,0.062,0.019,-0.079,-0.092
-0.112,-0.18,-0.068,0.146,-0.022,-0.124,0.015,0.026,0.068,0.024,-0.079,-0.086
-0.101,-0.175,-0.074,0.138,-0.013,-0.124,0.01,0.025,0.078,0.039,-0.072,-0.08
-0.079,-0.166,-0.087,0.123,0.004,-0.126,0.005,0.045,0.083,0.048,-0.062,-0.072
-0.079,-0.163,-0.084,0.122,0.003,-0.124,0.001,0.048,0.083,0.05,-0.06,-0.067
-0.067,-0.148,-0.08,0.108,0.007,-0.114,-0.004,0.06,0.096,0.061,-0.046,-0.061
-0.058,-0.139,-0.08,0.098,0.011,-0.109,-0.008,0.082,0.106,0.071,-0.029,-0.057
-0.049,-0.125,-0.076,0.087,0.014,-0.1,-0.013,0.088,0.12,0.077,-0.015,-0.049
-0.039,-0.113,-0.075,0.077,0.018,-0.094,-0.018,0.096,0.14,0.086,-0.014,-0.046
-0.025,-0.1,-0.075,0.063,0.025,-0.087,-0.021,0.125,0.167,0.12,0.006,-0.025
-0.005,-0.075,-0.07,0.04,0.033,-0.073,-0.027,0.149,0.185,0.142,0.042,0.002
0.015,-0.055,-0.071,0.02,0.043,-0.063,-0.028,0.179,0.217,0.17,0.074,0.024
0.051,-0.017,-0.068,-0.017,0.059,-0.042,-0.039,0.221,0.265,0.226,0.118,0.061
0.075,0.027,-0.048,-0.051,0.061,-0.01,-0.069,0.259,0.316,0.282,0.17,0.101
0.105,0.077,-0.027,-0.091,0.066,0.025,-0.101,0.301,0.37,0.352,0.234,0.157
0.17,0.157,-0.013,-0.163,0.091,0.072,-0.138,0.329,0.418,0.42,0.305,0.222
0.195,0.197,0.001,-0.196,0.097,0.099,-0.158,0.339,0.466,0.482,0.37,0.273
0.198,0.24,0.042,-0.219,0.077,0.141,-0.18,0.331,0.496,0.536,0.418,0.301
0.197,0.291,0.094,-0.244,0.051,0.193,-0.197,0.317,0.495,0.534,0.424,0.312
0.182,0.278,0.097,-0.23,0.042,0.187,-0.176,0.309,0.487,0.521,0.417,0.317
0.156,0.241,0.085,-0.199,0.035,0.163,-0.141,0.281,0.459,0.495,0.385,0.28
0.112,0.196,0.085,-0.154,0.013,0.14,-0.096,0.24,0.391,0.404,0.286,0.2
0.072,0.118,0.046,-0.095,0.013,0.081,-0.051,0.2,0.316,0.315,0.206,0.126
0.007,0.035,0.028,-0.021,-0.011,0.031,-0.032,0.154,0.25,0.242,0.141,0.066
-0.025,0.007,0.032,0.008,-0.028,0.019,-0.02,0.11,0.178,0.171,0.077,0.025
-0.023,-0.012,0.012,0.017,-0.017,0.0,-0.014,0.075,0.121,0.13,0.053,-0.003
-0.059,-0.059,0.0,0.059,-0.029,-0.029,-0.015,0.053,0.094,0.109,0.017,-0.022
-0.075,-0.085,-0.01,0.08,-0.032,-0.047,-0.015,0.036,0.082,0.097,0.03,-0.04
-0.071,-0.089,-0.019,0.08,-0.026,-0.054,-0.015,0.025,0.076,0.088,0.001,-0.052
-0.053,-0.091,-0.038,0.072,-0.007,-0.065,-0.015,0.024,0.069,0.077,0.017,-0.05
-0.046,-0.089,-0.042,0.068,-0.002,-0.065,-0.013,0.027,0.062,0.07,-0.008,-0.05
-0.063,-0.091,-0.028,0.078,-0.017,-0.06,-0.01,0.023,0.056,0.066,-0.014,-0.048
-0.063,-0.089,-0.026,0.076,-0.019,-0.057,-0.01,0.028,0.051,0.064,0.172,-0.045
-0.077,-0.088,-0.011,0.082,-0.032,-0.049,-0.01,0.029,0.05,0.059,0.052,-0.045
-0.062,-0.084,-0.021,0.073,-0.02,-0.052,-0.01,0.039,0.05,0.056,-0.031,-0.049
-0.038,-0.081,-0.042,0.059,0.002,-0.061,-0.01,0.039,0.045,0.053,0.022,-0.05
-0.041,-0.08,-0.039,0.061,-0.001,-0.06,-0.013,0.032,0.045,0.048,-0.015,-0.05
-0.031,-0.072,-0.04,0.051,0.005,-0.055,-0.016,0.029,0.044,0.045,0.01,-0.055
-0.042,-0.081,-0.04,0.061,0.0,-0.06,-0.014,0.012,0.037,0.042,-0.006,-0.055
-0.033,-0.073,-0.04,0.053,0.003,-0.056,-0.017,0.024,0.031,0.037,0.002,-0.056
-0.053,-0.093,-0.04,0.073,-0.006,-0.067,-0.02,-0.017,0.024,0.034,0.0,-0.06
-0.05,-0.089,-0.04,0.069,-0.004,-0.064,-0.02,0.046,0.017,0.029,-0.002,-0.063
-0.061,-0.101,-0.04,0.081,-0.01,-0.07,-0.02,-0.006,0.012,0.022,0.002,-0.065
-0.053,-0.094,-0.04,0.074,-0.006,-0.067,-0.02,-0.227,0.005,0.016,-0.002,-0.068
-0.027,-0.081,-0.054,0.055,0.014,-0.067,-0.02,-0.233,-0.002,0.009,0.002,-0.07
-0.189,-0.236,-0.047,0.213,-0.071,-0.141,-0.02,-0.224,-0.01,0.002,-0.002,-0.066
-0.154,-0.194,-0.04,0.174,-0.057,-0.117,-0.02,-0.243,-0.014,-0.001,0.002,-0.065
