-0.045,0.07,0.114,-0.013,-0.08,0.092,0.0,-0.055,-0.055,-0.035,-0.016,0.015
-0.045,0.069,0.115,-0.012,-0.08,0.092,-0.003,-0.057,-0.054,-0.035,-0.021,0.013
-0.042,0.074,0.116,-0.016,-0.079,0.094,-0.009,-0.065,-0.066,-0.034,-0.028,0.007
-0.039,0.073,0.112,-0.018,-0.076,0.092,-0.015,-0.075,-0.082,-0.036,-0.034,0.004
-0.043,0.082,0.126,-0.02,-0.085,0.104,-0.015,-0.083,-0.079,-0.033,-0.03,-0.001
-0.055,0.083,0.137,-0.014,-0.096,0.11,-0.016,-0.088,-0.08,-0.041,-0.03,-0.006
-0.076,0.058,0.134,0.008,-0.105,0.096,-0.032,-0.095,-0.08,-0.06,-0.029,-0.01
-0.081,0.054,0.135,0.013,-0.109,0.095,-0.042,-0.098,-0.08,-0.06,-0.025,-0.01
-0.082,0.052,0.135,0.015,-0.109,0.093,-0.04,-0.103,-0.077,-0.06,-0.025,-0.011
-0.086,0.048,0.135,0.019,-0.111,0.091,-0.038,-0.104,-0.074,-0.06,-0.027,-0.015
-0.084,0.046,0.13,0.019,-0.107,0.088,-0.034,-0.097,-0.075,-0.059,-0.035,-0.015
-0.08,0.045,0.125,0.017,-0.103,0.085,-0.035,-0.114,-0.075,-0.06,-0.04,-0.013
-0.07,0.05,0.121,0.01,-0.096,0.085,-0.031,-0.122,-0.075,-0.06,-0.04,-0.01
-0.066,0.05,0.116,0.008,-0.091,0.082,-0.029,-0.119,-0.076,-0.06,-0.04,-0.01
-0.062,0.05,0.112,0.006,-0.087,0.081,-0.031,-0.121,-0.086,-0.06,-0.04,-0.01
-0.057,0.05,0.107,0.004,-0.082,0.079,-0.029,-0.119,-0.092,-0.06,-0.04,-0.01
-0.073,0.05,0.123,0.011,-0.098,0.086,-0.031,-0.12,-0.089,-0.06,-0.04,-0.01
-0.082,0.05,0.132,0.016,-0.107,0.091,-0.028,-0.12,-0.086,-0.055,-0.04,-0.01
-0.076,0.05,0.126,0.013,-0.101,0.087,-0.025,-0.12,-0.083,-0.055,-0.04,-0.01
-0.074,0.05,0.124,0.012,-0.099,0.087,-0.025,-0.12,-0.08,-0.054,-0.04,-0.01
-0.071,0.05,0.121,0.01,-0.096,0.085,-0.023,-0.12,-0.08,-0.049,-0.04,-0.01
-0.069,0.05,0.119,0.01,-0.094,0.085,-0.019,-0.12,-0.08,-0.051,-0.04,-0.01
-0.065,0.05,0.115,0.007,-0.09,0.082,-0.02,-0.122,-0.08,-0.049,-0.045,-0.012
-0.06,0.05,0.11,0.005,-0.085,0.08,-0.032,-0.125,-0.088,-0.052,-0.045,-0.016
-0.055,0.05,0.105,0.002,-0.08,0.077,-0.036,-0.125,-0.091,-0.064,-0.045,-0.015
-0.052,0.05,0.102,0.001,-0.077,0.076,-0.034,-0.129,-0.089,-0.066,-0.045,-0.015
-0.045,0.05,0.095,-0.002,-0.07,0.072,-0.035,-0.13,-0.09,-0.064,-0.045,-0.015
-0.048,0.05,0.099,-0.002,-0.073,0.074,-0.035,-0.13,-0.09,-0.061,-0.045,-0.015
-0.059,0.047,0.106,0.005,-0.083,0.077,-0.035,-0.13,-0.09,-0.059,-0.045,-0.02
-0.064,0.045,0.109,0.01,-0.087,0.076,-0.03,-0.13,-0.095,-0.06,-0.045,-0.02
-0.081,0.045,0.126,0.018,-0.104,0.085,-0.03,-0.13,-0.104,-0.06,-0.045,-0.02
-0.088,0.042,0.13,0.023,-0.109,0.085,-0.03,-0.13,-0.105,-0.06,-0.045,-0.02
-0.085,0.039,0.124,0.022,-0.104,0.081,-0.03,-0.13,-0.105,-0.06,-0.045,-0.02
-0.081,0.041,0.122,0.02,-0.102,0.081,-0.03,-0.127,-0.105,-0.06,-0.04,-0.018
-0.073,0.044,0.117,0.014,-0.096,0.08,-0.028,-0.124,-0.105,-0.06,-0.04,-0.014
-0.067,0.047,0.114,0.01,-0.091,0.081,-0.021,-0.125,-0.104,-0.064,-0.039,-0.015
-0.061,0.049,0.11,0.006,-0.085,0.08,-0.015,-0.121,-0.1,-0.065,-0.035,-0.015
-0.052,0.053,0.105,-0.001,-0.079,0.078,-0.037,-0.12,-0.1,-0.065,-0.035,-0.015
-0.045,0.056,0.1,-0.006,-0.073,0.077,-0.048,-0.12,-0.097,-0.065,-0.038,-0.015
-0.044,0.053,0.097,-0.005,-0.071,0.074,-0.044,-0.12,-0.094,-0.065,-0.04,-0.01
-0.042,0.048,0.09,-0.003,-0.066,0.068,-0.044,-0.12,-0.095,-0.064,-0.04,-0.01
-0.054,0.042,0.096,0.006,-0.076,0.069,-0.039,-0.12,-0.095,-0.06,-0.044,-0.008
-0.066,0.039,0.105,0.013,-0.085,0.071,-0.04,-0.12,-0.095,-0.06,-0.045,-0.005
-0.066,0.033,0.099,0.016,-0.083,0.066,-0.04,-0.12,-0.097,-0.058,-0.045,-0.004
-0.065,0.031,0.096,0.016,-0.08,0.063,-0.04,-0.117,-0.101,-0.054,-0.045,-0.012
-0.052,0.04,0.093,0.006,-0.073,0.066,-0.04,-0.114,-0.1,-0.055,-0.045,-0.021
-0.048,0.041,0.089,0.004,-0.068,0.064,-0.04,-0.115,-0.1,-0.059,-0.045,-0.014
-0.048,0.036,0.084,0.005,-0.066,0.06,-0.04,-0.115,-0.1,-0.06,-0.045,-0.011
-0.058,0.035,0.092,0.011,-0.076,0.064,-0.039,-0.115,-0.1,-0.06,-0.044,-0.007
-0.067,0.03,0.097,0.018,-0.082,0.063,-0.035,-0.114,-0.102,-0.064,-0.048,-0.001
-0.064,0.031,0.094,0.016,-0.079,0.062,-0.035,-0.11,-0.105,-0.066,-0.05,-0.002
-0.061,0.034,0.095,0.013,-0.079,0.065,-0.034,-0.11,-0.108,-0.063,-0.05,-0.006
-0.054,0.036,0.09,0.008,-0.072,0.063,-0.03,-0.11,-0.111,-0.061,-0.054,-0.008
-0.05,0.04,0.09,0.005,-0.07,0.065,-0.03,-0.11,-0.114,-0.057,-0.055,-0.011
-0.051,0.038,0.089,0.007,-0.07,0.063,-0.03,-0.11,-0.115,-0.055,-0.055,-0.014
-0.05,0.034,0.085,0.008,-0.068,0.059,-0.03,-0.11,-0.11,-0.052,-0.055,-0.016
-0.05,0.036,0.085,0.007,-0.068,0.06,-0.03,-0.11,-0.11,-0.049,-0.055,-0.019
-0.05,0.034,0.085,0.007,-0.068,0.06,-0.03,-0.11,-0.109,-0.058,-0.055,-0.02
-0.05,0.035,0.085,0.007,-0.068,0.06,-0.03,-0.11,-0.104,-0.062,-0.055,-0.02
-0.05,0.034,0.085,0.008,-0.068,0.059,-0.029,-0.11,-0.106,-0.059,-0.055,-0.02
-0.051,0.03,0.082,0.01,-0.067,0.056,-0.026,-0.11,-0.102,-0.06,-0.053,-0.02
-0.049,0.03,0.079,0.01,-0.064,0.055,-0.024,-0.105,-0.1,-0.06,-0.049,-0.018
-0.052,0.029,0.08,0.011,-0.066,0.054,-0.026,-0.105,-0.097,-0.06,-0.047,-0.014
-0.05,0.025,0.075,0.012,-0.063,0.05,-0.024,-0.105,-0.094,-0.058,-0.044,-0.015
-0.051,0.024,0.075,0.013,-0.064,0.05,-0.025,-0.105,-0.091,-0.055,-0.041,-0.015
-0.047,0.027,0.074,0.01,-0.061,0.051,-0.023,-0.105,-0.089,-0.052,-0.039,-0.015
-0.042,0.021,0.063,0.01,-0.053,0.042,-0.019,-0.102,-0.101,-0.05,-0.035,-0.015
-0.055,0.032,0.087,0.011,-0.071,0.059,-0.022,-0.098,-0.098,-0.046,-0.03,-0.008
-0.057,0.048,0.105,0.004,-0.082,0.077,-0.018,-0.092,-0.087,-0.046,-0.027,0.0
-0.063,0.042,0.105,0.01,-0.085,0.074,-0.023,-0.091,-0.078,-0.039,-0.022,0.005
-0.044,0.066,0.11,-0.011,-0.078,0.087,0.008,-0.059,-0.068,-0.026,-0.018,0.013
-0.011,0.095,0.106,-0.042,-0.059,0.1,0.025,-0.03,-0.064,-0.025,-0.012,0.022
-0.01,0.091,0.101,-0.041,-0.056,0.095,-0.033,-0.05,-0.065,-0.025,-0.009,0.03
-0.006,0.08,0.086,-0.037,-0.046,0.082,-0.048,-0.064,-0.066,-0.026,-0.003,0.039
-0.001,0.067,0.068,-0.034,-0.034,0.067,-0.043,-0.073,-0.062,-0.023,0.0,0.033
-0.002,0.058,0.059,-0.028,-0.031,0.058,-0.046,-0.096,-0.098,-0.04,-0.009,0.023
-0.005,0.047,0.052,-0.022,-0.029,0.049,-0.047,-0.105,-0.115,-0.057,-0.02,0.016
-0.009,0.037,0.046,-0.014,-0.027,0.041,-0.057,-0.13,-0.119,-0.06,-0.034,0.004
-0.011,0.029,0.04,-0.009,-0.026,0.034,-0.05,-0.128,-0.118,-0.065,-0.041,-0.001
-0.011,0.018,0.029,-0.004,-0.02,0.023,-0.043,-0.131,-0.118,-0.079,-0.061,-0.011
-0.035,0.015,0.049,0.01,-0.042,0.032,-0.041,-0.132,-0.115,-0.071,-0.057,-0.011
-0.067,0.006,0.073,0.03,-0.07,0.04,-0.031,-0.124,-0.112,-0.077,-0.063,-0.022
-0.055,0.014,0.069,0.02,-0.062,0.042,-0.033,-0.142,-0.123,-0.076,-0.062,-0.023
-0.067,0.002,0.07,0.033,-0.069,0.036,-0.02,-0.108,-0.101,-0.07,-0.063,-0.031
-0.064,0.008,0.071,0.028,-0.068,0.039,-0.024,-0.14,-0.135,-0.085,-0.072,-0.026
-0.063,0.004,0.067,0.029,-0.065,0.035,-0.014,-0.076,-0.079,-0.05,-0.039,-0.01
-0.083,-0.009,0.074,0.046,-0.078,0.033,0.002,-0.129,-0.13,-0.1,-0.072,-0.04
-0.059,-0.011,0.048,0.035,-0.053,0.018,0.118,0.275,0.065,-0.021,-0.065,-0.058
0.067,0.127,0.06,-0.098,0.003,0.093,0.168,0.387,0.445,0.342,0.22,0.138
0.371,0.641,0.269,-0.506,0.051,0.455,-0.383,-1.072,0.61,1.217,1.239,0.948
0.233,0.631,0.398,-0.432,-0.082,0.514,-0.82,-1.852,0.277,1.132,1.331,1.092
-0.148,0.088,0.237,0.03,-0.193,0.162,-0.649,-1.451,-0.717,-0.248,0.05,0.205
-0.097,-0.069,0.029,0.083,-0.063,-0.02,-0.361,-0.783,-0.638,-0.401,-0.227,-0.08
-0.026,-0.045,-0.02,0.036,-0.003,-0.032,-0.129,-0.231,-0.148,-0.084,-0.048,-0.009
-0.061,-0.002,0.058,0.031,-0.059,0.028,-0.03,-0.093,-0.149,-0.097,-0.058,-0.017
-0.07,0.018,0.088,0.026,-0.079,0.053,0.006,0.004,-0.039,-0.01,0.002,0.007
-0.054,0.021,0.075,0.016,-0.064,0.048,0.018,0.02,-0.063,-0.051,-0.037,-0.009
-0.04,0.034,0.074,0.002,-0.057,0.054,0.02,0.053,-0.029,-0.017,-0.007,0.009
-0.027,0.038,0.065,-0.006,-0.047,0.052,0.023,0.067,-0.026,-0.029,-0.02,0.001
-0.012,0.049,0.061,-0.019,-0.037,0.055,0.016,0.076,-0.02,-0.019,-0.014,0.009
-0.028,0.039,0.067,-0.005,-0.048,0.053,0.041,0.1,-0.004,-0.014,-0.011,0.018
-0.032,0.041,0.072,-0.005,-0.052,0.056,0.056,0.106,-0.001,-0.015,-0.007,0.024
-0.034,0.035,0.069,0.0,-0.052,0.052,0.055,0.136,0.024,-0.003,0.003,0.027
-0.035,0.035,0.07,0.0,-0.053,0.052,0.055,0.145,0.026,0.002,0.004,0.029
-0.024,0.046,0.07,-0.011,-0.047,0.058,0.055,0.172,0.048,0.021,0.016,0.033
-0.012,0.058,0.07,-0.023,-0.041,0.064,0.067,0.203,0.062,0.022,0.023,0.039
-0.004,0.065,0.069,-0.031,-0.037,0.067,0.071,0.224,0.078,0.038,0.031,0.046
0.004,0.065,0.061,-0.035,-0.029,0.063,0.087,0.272,0.1,0.051,0.044,0.049
0.016,0.068,0.052,-0.042,-0.018,0.06,0.098,0.308,0.127,0.066,0.057,0.053
-0.004,0.071,0.075,-0.034,-0.039,0.073,0.093,0.348,0.148,0.083,0.064,0.062
-0.008,0.071,0.079,-0.032,-0.044,0.075,0.098,0.42,0.186,0.108,0.082,0.074
0.031,0.091,0.06,-0.062,-0.014,0.075,0.106,0.485,0.222,0.128,0.094,0.08
0.044,0.101,0.056,-0.073,-0.006,0.078,0.123,0.578,0.267,0.157,0.121,0.1
0.068,0.1,0.032,-0.084,0.018,0.066,0.138,0.668,0.323,0.192,0.145,0.119
0.063,0.11,0.047,-0.087,0.008,0.078,0.155,0.765,0.368,0.215,0.172,0.136
0.051,0.124,0.074,-0.087,-0.012,0.099,0.176,0.867,0.436,0.264,0.211,0.165
0.092,0.161,0.068,-0.126,0.012,0.114,0.192,0.945,0.491,0.306,0.25,0.195
0.108,0.179,0.071,-0.143,0.018,0.124,0.201,1.005,0.54,0.347,0.298,0.228
0.127,0.196,0.069,-0.161,0.029,0.132,0.2,1.007,0.586,0.4,0.348,0.267
0.14,0.225,0.084,-0.182,0.028,0.154,0.194,0.978,0.593,0.43,0.387,0.307
0.156,0.249,0.093,-0.203,0.031,0.171,0.17,0.888,0.583,0.448,0.419,0.336
0.174,0.273,0.099,-0.224,0.037,0.186,0.127,0.749,0.567,0.447,0.46,0.349
0.151,0.252,0.101,-0.202,0.025,0.176,0.071,0.611,0.531,0.441,0.457,0.341
0.116,0.215,0.099,-0.165,0.009,0.157,0.022,0.469,0.455,0.412,0.415,0.328
0.081,0.181,0.1,-0.131,-0.01,0.14,-0.007,0.34,0.36,0.338,0.35,0.278
0.085,0.138,0.053,-0.112,0.016,0.095,-0.026,0.224,0.269,0.246,0.256,0.201
0.052,0.095,0.044,-0.074,0.004,0.069,-0.023,0.123,0.167,0.151,0.169,0.138
-0.01,0.055,0.065,-0.023,-0.038,0.06,-0.017,0.046,0.086,0.087,0.098,0.081
-0.029,0.024,0.052,0.002,-0.041,0.038,-0.013,0.011,0.035,0.042,0.044,0.036
-0.035,0.013,0.047,0.011,-0.041,0.03,-0.006,-0.006,-0.008,0.003,0.006,0.004
-0.031,0.009,0.04,0.011,-0.036,0.025,-0.001,-0.022,-0.034,-0.02,-0.009,-0.007
-0.025,0.004,0.029,0.01,-0.028,0.017,-0.004,-0.031,-0.048,-0.027,-0.014,-0.011
-0.038,0.0,0.038,0.019,-0.038,0.019,-0.014,-0.032,-0.051,-0.024,-0.021,-0.016
-0.056,-0.005,0.051,0.03,-0.053,0.023,-0.018,-0.029,-0.054,-0.026,-0.028,-0.02
-0.045,-0.002,0.043,0.023,-0.044,0.021,-0.015,-0.031,-0.057,-0.023,-0.034,-0.025
-0.039,0.001,0.039,0.019,-0.039,0.02,-0.011,-0.03,-0.06,-0.033,-0.032,-0.022
-0.031,0.004,0.036,0.013,-0.034,0.02,-0.008,-0.03,-0.059,-0.041,-0.029,-0.019
-0.024,0.004,0.029,0.01,-0.027,0.016,-0.003,-0.033,-0.055,-0.04,-0.026,-0.016
-0.042,-0.004,0.038,0.023,-0.04,0.017,0.0,-0.036,-0.055,-0.04,-0.024,-0.013
-0.054,-0.012,0.042,0.033,-0.047,0.015,-0.003,-0.035,-0.055,-0.04,-0.02,-0.01
-0.053,-0.013,0.04,0.033,-0.046,0.013,-0.006,-0.039,-0.055,-0.052,-0.021,-0.011
-0.047,-0.007,0.04,0.027,-0.043,0.016,-0.009,-0.041,-0.055,-0.056,-0.026,-0.016
-0.042,-0.007,0.035,0.024,-0.038,0.014,-0.012,-0.04,-0.059,-0.051,-0.024,-0.014
-0.034,0.001,0.035,0.016,-0.034,0.018,-0.015,-0.045,-0.06,-0.05,-0.035,-0.018
-0.042,-0.007,0.035,0.024,-0.039,0.013,-0.016,-0.045,-0.073,-0.045,-0.042,-0.021
-0.065,-0.03,0.035,0.047,-0.05,0.002,-0.02,-0.045,-0.083,-0.046,-0.039,-0.02
-0.061,-0.026,0.035,0.043,-0.048,0.005,-0.023,-0.044,-0.083,-0.049,-0.041,-0.024
-0.054,-0.019,0.035,0.036,-0.044,0.008,-0.027,-0.049,-0.088,-0.055,-0.04,-0.025
-0.051,-0.016,0.035,0.033,-0.043,0.009,-0.03,-0.073,-0.09,-0.061,-0.041,-0.025
-0.042,-0.006,0.035,0.024,-0.038,0.014,-0.027,-0.081,-0.095,-0.059,-0.045,-0.03
-0.041,-0.009,0.031,0.025,-0.035,0.011,-0.022,-0.08,-0.103,-0.06,-0.045,-0.03
-0.045,-0.02,0.025,0.032,-0.035,0.002,-0.019,-0.085,-0.103,-0.06,-0.046,-0.03
-0.04,-0.02,0.02,0.03,-0.03,0.0,-0.016,-0.088,-0.1,-0.06,-0.05,-0.03
-0.029,-0.015,0.014,0.022,-0.021,0.0,-0.011,-0.09,-0.1,-0.064,-0.05,-0.03
-0.023,-0.015,0.008,0.018,-0.015,-0.003,-0.011,-0.09,-0.1,-0.065,-0.047,-0.03
-0.015,-0.009,0.006,0.011,-0.011,-0.001,-0.018,-0.09,-0.099,-0.068,-0.045,-0.03
-0.026,-0.013,0.013,0.019,-0.02,0.0,-0.024,-0.09,-0.101,-0.07,-0.045,-0.03
-0.056,-0.033,0.023,0.045,-0.039,-0.005,-0.032,-0.09,-0.102,-0.071,-0.045,-0.034
-0.056,-0.035,0.021,0.045,-0.038,-0.007,-0.034,-0.091,-0.1,-0.075,-0.045,-0.035
-0.043,-0.028,0.015,0.035,-0.029,-0.006,-0.03,-0.094,-0.1,-0.075,-0.046,-0.035
-0.035,-0.025,0.01,0.03,-0.022,-0.007,-0.028,-0.095,-0.1,-0.075,-0.049,-0.035
-0.025,-0.02,0.005,0.022,-0.015,-0.007,-0.024,-0.098,-0.1,-0.075,-0.05,-0.035
-0.013,-0.015,-0.002,0.014,-0.005,-0.008,-0.022,-0.1,-0.1,-0.075,-0.05,-0.034
-0.017,-0.021,-0.004,0.019,-0.006,-0.012,-0.019,-0.102,-0.105,-0.071,-0.05,-0.03
-0.04,-0.036,0.004,0.037,-0.022,-0.015,-0.025,-0.106,-0.113,-0.07,-0.05,-0.03
-0.044,-0.04,0.004,0.042,-0.024,-0.018,-0.033,-0.105,-0.115,-0.069,-0.047,-0.028
-0.059,-0.04,0.019,0.049,-0.039,-0.01,-0.03,-0.105,-0.115,-0.066,-0.045,-0.024
-0.06,-0.04,0.02,0.05,-0.04,-0.01,-0.03,-0.105,-0.119,-0.064,-0.045,-0.026
-0.043,-0.04,0.003,0.041,-0.023,-0.018,-0.03,-0.105,-0.12,-0.067,-0.045,-0.028
-0.056,-0.04,0.016,0.048,-0.036,-0.012,-0.03,-0.11,-0.12,-0.077,-0.045,-0.032
-0.058,-0.036,0.021,0.047,-0.039,-0.007,-0.03,-0.11,-0.12,-0.076,-0.045,-0.039
-0.054,-0.034,0.019,0.044,-0.036,-0.007,-0.03,-0.11,-0.12,-0.074,-0.05,-0.04
-0.052,-0.035,0.017,0.044,-0.034,-0.009,-0.03,-0.11,-0.12,-0.075,-0.05,-0.04
-0.049,-0.035,0.014,0.041,-0.031,-0.01,-0.03,-0.109,-0.12,-0.075,-0.051,-0.04
-0.051,-0.036,0.016,0.043,-0.033,-0.01,-0.03,-0.113,-0.12,-0.075,-0.055,-0.04
-0.041,-0.033,0.007,0.037,-0.024,-0.013,-0.03,-0.115,-0.117,-0.075,-0.055,-0.039
-0.028,-0.03,-0.002,0.029,-0.013,-0.016,-0.03,-0.115,-0.115,-0.075,-0.055,-0.035
-0.014,-0.028,-0.013,0.021,0.0,-0.02,-0.03,-0.115,-0.112,-0.075,-0.055,-0.035
-0.007,-0.024,-0.017,0.016,0.006,-0.021,-0.03,-0.115,-0.109,-0.075,-0.055,-0.035
-0.009,-0.022,-0.014,0.016,0.003,-0.018,-0.03,-0.115,-0.106,-0.075,-0.055,-0.035
-0.008,-0.018,-0.009,0.013,0.0,-0.014,-0.03,-0.11,-0.103,-0.075,-0.055,-0.035
-0.018,-0.025,-0.007,0.022,-0.005,-0.016,-0.03,-0.11,-0.114,-0.075,-0.055,-0.035
-0.038,-0.039,-0.001,0.039,-0.018,-0.02,-0.034,-0.109,-0.12,-0.075,-0.05,-0.035
-0.041,-0.042,-0.001,0.041,-0.02,-0.021,-0.035,-0.104,-0.113,-0.075,-0.05,-0.035
-0.022,-0.044,-0.022,0.034,0.0,-0.033,-0.035,-0.106,-0.11,-0.075,-0.049,-0.035
-0.023,-0.048,-0.024,0.036,0.001,-0.036,-0.035,-0.102,-0.105,-0.075,-0.045,-0.035
-0.034,-0.05,-0.016,0.042,-0.009,-0.033,-0.035,-0.1,-0.1,-0.079,-0.045,-0.035
-0.033,-0.048,-0.015,0.041,-0.009,-0.031,-0.034,-0.1,-0.106,-0.08,-0.047,-0.035
-0.036,-0.044,-0.008,0.04,-0.014,-0.026,-0.03,-0.096,-0.111,-0.08,-0.05,-0.035
-0.037,-0.042,-0.005,0.04,-0.016,-0.023,-0.03,-0.094,-0.109,-0.084,-0.05,-0.035
-0.027,-0.039,-0.012,0.033,-0.007,-0.025,-0.028,-0.095,-0.114,-0.085,-0.05,-0.035
-0.013,-0.036,-0.023,0.025,0.006,-0.029,-0.024,-0.1,-0.115,-0.083,-0.05,-0.035
-0.006,-0.034,-0.028,0.02,0.011,-0.031,-0.026,-0.099,-0.115,-0.08,-0.051,-0.035
-0.008,-0.031,-0.023,0.02,0.008,-0.027,-0.021,-0.106,-0.12,-0.08,-0.054,-0.035
-0.01,-0.03,-0.02,0.02,0.005,-0.025,-0.02,-0.111,-0.12,-0.08,-0.057,-0.035
-0.012,-0.029,-0.017,0.021,0.002,-0.023,-0.014,-0.104,-0.121,-0.08,-0.06,-0.035
-0.013,-0.025,-0.012,0.019,0.0,-0.018,-0.018,-0.101,-0.125,-0.08,-0.062,-0.035
-0.014,-0.025,-0.01,0.019,-0.001,-0.017,-0.043,-0.096,-0.124,-0.076,-0.066,-0.034
-0.025,-0.028,-0.003,0.027,-0.011,-0.015,-0.045,-0.091,-0.127,-0.075,-0.062,-0.03
-0.011,-0.03,-0.019,0.021,0.004,-0.024,-0.036,-0.09,-0.13,-0.075,-0.059,-0.03
0.006,-0.031,-0.038,0.013,0.022,-0.034,-0.033,-0.102,-0.13,-0.075,-0.06,-0.03
0.001,-0.032,-0.034,0.016,0.018,-0.033,-0.026,-0.106,-0.13,-0.075,-0.06,-0.03
-0.011,-0.049,-0.038,0.031,0.013,-0.043,-0.02,-0.1,-0.13,-0.074,-0.06,-0.03
-0.017,-0.058,-0.041,0.037,0.012,-0.049,-0.029,-0.1,-0.13,-0.069,-0.06,-0.027
-0.006,-0.046,-0.039,0.026,0.017,-0.042,-0.029,-0.095,-0.124,-0.063,-0.054,-0.024
-0.002,-0.039,-0.036,0.021,0.018,-0.037,-0.026,-0.095,-0.118,-0.06,-0.048,-0.021
-0.005,-0.029,-0.024,0.017,0.01,-0.026,-0.018,-0.086,-0.111,-0.055,-0.043,-0.018
0.0,-0.016,-0.017,0.008,0.009,-0.016,-0.018,-0.073,-0.105,-0.05,-0.038,-0.015
-0.002,-0.005,-0.003,0.004,0.001,-0.004,0.001,-0.059,-0.094,-0.047,-0.035,-0.015
-0.007,0.005,0.012,0.0,-0.009,0.008,0.032,-0.024,-0.064,-0.042,-0.035,-0.015
0.033,0.012,-0.02,-0.022,0.026,-0.004,-0.027,-0.026,-0.06,-0.042,-0.035,-0.015
0.064,0.023,-0.041,-0.043,0.053,-0.009,-0.07,-0.043,-0.067,-0.033,-0.035,-0.015
0.041,0.015,-0.025,-0.028,0.033,-0.005,-0.064,-0.061,-0.083,-0.042,-0.035,-0.015
0.028,-0.017,-0.046,-0.005,0.037,-0.031,-0.073,-0.096,-0.119,-0.065,-0.035,-0.018
0.02,-0.041,-0.061,0.01,0.04,-0.051,-0.073,-0.097,-0.123,-0.068,-0.039,-0.024
0.021,-0.041,-0.062,0.01,0.042,-0.052,-0.074,-0.11,-0.136,-0.074,-0.044,-0.027
0.032,-0.044,-0.076,0.006,0.055,-0.06,-0.062,-0.1,-0.133,-0.076,-0.045,-0.031
0.002,-0.055,-0.058,0.027,0.031,-0.056,-0.052,-0.11,-0.146,-0.089,-0.061,-0.039
-0.017,-0.065,-0.048,0.041,0.016,-0.056,-0.044,-0.102,-0.14,-0.079,-0.062,-0.041
-0.018,-0.067,-0.049,0.043,0.016,-0.058,-0.032,-0.104,-0.143,-0.099,-0.072,-0.049
-0.018,-0.061,-0.043,0.04,0.013,-0.052,-0.036,-0.111,-0.137,-0.098,-0.058,-0.04
-0.028,-0.071,-0.044,0.05,0.009,-0.057,-0.024,-0.086,-0.127,-0.098,-0.071,-0.055
-0.02,-0.057,-0.037,0.039,0.009,-0.047,-0.029,-0.118,-0.144,-0.098,-0.062,-0.045
-0.033,-0.07,-0.036,0.052,0.002,-0.053,-0.018,-0.059,-0.101,-0.08,-0.062,-0.054
-0.038,-0.049,-0.011,0.044,-0.014,-0.03,0.002,-0.098,-0.154,-0.115,-0.087,-0.069
-0.009,-0.06,-0.05,0.034,0.021,-0.055,0.156,0.439,0.162,0.028,-0.047,-0.073
0.162,0.148,-0.014,-0.155,0.087,0.067,0.12,0.315,0.527,0.503,0.387,0.246
0.387,0.637,0.249,-0.512,0.069,0.443,-0.476,-1.274,0.591,1.338,1.416,1.07
0.115,0.44,0.325,-0.278,-0.105,0.382,-0.751,-1.783,0.006,0.821,1.061,0.894
-0.156,-0.042,0.115,0.099,-0.136,0.036,-0.538,-1.287,-0.857,-0.449,-0.155,0.034
-0.055,-0.136,-0.081,0.095,0.013,-0.108,-0.312,-0.655,-0.544,-0.333,-0.192,-0.09
-0.018,-0.112,-0.093,0.065,0.038,-0.102,-0.104,-0.181,-0.171,-0.117,-0.079,-0.048
-0.004,-0.047,-0.044,0.026,0.02,-0.045,-0.024,-0.065,-0.133,-0.103,-0.069,-0.041
0.004,-0.046,-0.05,0.021,0.028,-0.048,0.007,0.02,-0.05,-0.045,-0.037,-0.025
0.001,-0.041,-0.041,0.02,0.021,-0.041,0.024,0.039,-0.081,-0.077,-0.055,-0.033
0.004,-0.033,-0.037,0.015,0.021,-0.035,0.033,0.072,-0.035,-0.032,-0.023,-0.015
0.002,-0.033,-0.035,0.016,0.019,-0.034,0.036,0.071,-0.045,-0.048,-0.036,-0.021
-0.001,-0.024,-0.023,0.013,0.011,-0.023,0.034,0.088,-0.018,-0.021,-0.015,-0.009
0.003,-0.024,-0.026,0.011,0.015,-0.025,0.041,0.108,-0.008,-0.021,-0.016,-0.01
0.032,-0.016,-0.047,-0.008,0.04,-0.031,0.039,0.124,-0.001,-0.007,-0.003,-0.002
0.037,-0.015,-0.052,-0.011,0.045,-0.033,0.042,0.137,0.02,0.004,0.005,0.002
0.039,-0.009,-0.048,-0.015,0.043,-0.028,0.045,0.143,0.035,0.01,0.012,0.008
0.039,-0.007,-0.047,-0.016,0.044,-0.027,0.05,0.166,0.044,0.025,0.017,0.013
0.042,-0.002,-0.044,-0.019,0.043,-0.023,0.06,0.2,0.056,0.03,0.029,0.023
0.046,0.0,-0.046,-0.023,0.046,-0.022,0.066,0.238,0.085,0.044,0.045,0.039
0.038,-0.007,-0.044,-0.015,0.041,-0.025,0.064,0.264,0.098,0.052,0.05,0.042
0.039,-0.006,-0.045,-0.016,0.042,-0.025,0.07,0.304,0.123,0.073,0.06,0.046
0.05,0.004,-0.045,-0.027,0.047,-0.02,0.073,0.353,0.159,0.09,0.072,0.055
0.064,0.019,-0.045,-0.041,0.054,-0.012,0.082,0.413,0.19,0.112,0.09,0.064
0.068,0.022,-0.046,-0.045,0.057,-0.012,0.101,0.486,0.23,0.134,0.098,0.076
0.077,0.038,-0.039,-0.057,0.058,-0.001,0.111,0.567,0.283,0.163,0.128,0.089
0.097,0.05,-0.046,-0.074,0.072,0.002,0.131,0.662,0.338,0.206,0.162,0.108
0.117,0.057,-0.06,-0.086,0.088,-0.002,0.146,0.761,0.398,0.243,0.187,0.132
0.136,0.082,-0.053,-0.109,0.094,0.014,0.16,0.851,0.467,0.292,0.234,0.164
0.144,0.097,-0.047,-0.12,0.096,0.024,0.177,0.932,0.526,0.345,0.282,0.197
0.165,0.122,-0.043,-0.143,0.104,0.039,0.176,0.985,0.583,0.396,0.331,0.235
0.188,0.15,-0.038,-0.169,0.113,0.055,0.176,0.993,0.626,0.443,0.387,0.283
0.197,0.161,-0.037,-0.179,0.117,0.062,0.172,0.961,0.637,0.486,0.436,0.323
0.209,0.178,-0.031,-0.193,0.12,0.073,0.15,0.872,0.626,0.506,0.465,0.356
0.237,0.206,-0.031,-0.221,0.133,0.087,0.107,0.728,0.585,0.493,0.464,0.362
0.225,0.191,-0.034,-0.207,0.129,0.078,0.055,0.576,0.529,0.482,0.457,0.347
0.183,0.147,-0.036,-0.165,0.109,0.056,0.016,0.437,0.451,0.43,0.427,0.319
0.149,0.116,-0.034,-0.132,0.091,0.041,0.003,0.311,0.348,0.342,0.347,0.256
0.111,0.073,-0.038,-0.092,0.074,0.017,-0.001,0.209,0.24,0.24,0.239,0.182
0.093,0.041,-0.051,-0.067,0.072,-0.005,-0.005,0.12,0.133,0.142,0.147,0.105
0.056,0.008,-0.048,-0.032,0.052,-0.019,-0.01,0.05,0.056,0.076,0.08,0.044
0.03,-0.017,-0.046,-0.006,0.038,-0.031,-0.015,0.011,0.004,0.026,0.018,0.006
0.009,-0.033,-0.041,0.012,0.025,-0.037,-0.012,-0.006,-0.036,0.004,-0.01,-0.017
-0.013,-0.054,-0.041,0.033,0.014,-0.047,-0.009,-0.014,-0.056,-0.005,-0.031,-0.032
-0.02,-0.056,-0.036,0.038,0.009,-0.046,-0.006,-0.026,-0.069,-0.024,-0.05,-0.045
-0.021,-0.05,-0.03,0.036,0.005,-0.04,-0.003,-0.027,-0.075,-0.041,-0.049,-0.045
0.007,-0.049,-0.056,0.021,0.031,-0.052,0.0,-0.022,-0.075,-0.046,-0.051,-0.045
0.016,-0.045,-0.061,0.015,0.039,-0.053,0.001,-0.02,-0.075,-0.044,-0.05,-0.045
0.027,-0.034,-0.06,0.004,0.044,-0.047,0.007,-0.016,-0.074,-0.045,-0.05,-0.045
0.016,-0.048,-0.064,0.017,0.04,-0.055,0.01,-0.011,-0.078,-0.052,-0.05,-0.044
0.005,-0.063,-0.067,0.03,0.036,-0.065,0.01,-0.012,-0.08,-0.056,-0.051,-0.04
0.008,-0.05,-0.059,0.021,0.034,-0.054,0.01,-0.014,-0.081,-0.055,-0.049,-0.041
0.003,-0.051,-0.054,0.024,0.029,-0.052,0.01,-0.021,-0.086,-0.059,-0.054,-0.038
0.035,-0.043,-0.078,0.005,0.056,-0.06,0.01,-0.041,-0.084,-0.061,-0.065,-0.035
0.039,-0.031,-0.07,-0.004,0.055,-0.05,0.008,-0.038,-0.097,-0.06,-0.058,-0.035
0.005,-0.054,-0.058,0.025,0.032,-0.056,0.005,-0.022,-0.112,-0.055,-0.05,-0.039
-0.003,-0.062,-0.058,0.033,0.027,-0.059,0.002,-0.042,-0.109,-0.055,-0.046,-0.04
0.006,-0.053,-0.06,0.023,0.033,-0.056,0.0,-0.062,-0.11,-0.054,-0.035,-0.04
0.009,-0.053,-0.061,0.022,0.035,-0.057,-0.004,-0.06,-0.11,-0.05,-0.041,-0.044
0.018,-0.047,-0.065,0.015,0.042,-0.056,-0.005,-0.059,-0.11,-0.05,-0.059,-0.046
0.02,-0.045,-0.065,0.013,0.043,-0.055,-0.009,-0.061,-0.112,-0.051,-0.061,-0.043
0.015,-0.045,-0.06,0.015,0.038,-0.052,-0.013,-0.058,-0.117,-0.061,-0.06,-0.04
0.011,-0.045,-0.056,0.017,0.034,-0.05,-0.018,-0.066,-0.12,-0.061,-0.06,-0.04
0.004,-0.045,-0.049,0.021,0.027,-0.046,-0.019,-0.085,-0.12,-0.069,-0.072,-0.04
0.004,-0.045,-0.049,0.021,0.027,-0.047,-0.014,-0.085,-0.12,-0.082,-0.082,-0.04
-0.008,-0.044,-0.035,0.026,0.014,-0.039,-0.029,-0.088,-0.12,-0.08,-0.079,-0.04
0.006,-0.053,-0.059,0.024,0.033,-0.056,-0.037,-0.09,-0.121,-0.078,-0.08,-0.043
0.014,-0.062,-0.076,0.024,0.045,-0.068,-0.029,-0.092,-0.119,-0.075,-0.08,-0.052
-0.004,-0.059,-0.056,0.032,0.026,-0.057,-0.029,-0.096,-0.124,-0.075,-0.08,-0.054
0.009,-0.06,-0.07,0.026,0.039,-0.065,-0.023,-0.094,-0.135,-0.072,-0.077,-0.05
0.004,-0.06,-0.064,0.028,0.034,-0.061,-0.02,-0.099,-0.135,-0.069,-0.074,-0.05
-0.005,-0.06,-0.055,0.033,0.025,-0.057,-0.024,-0.1,-0.135,-0.07,-0.071,-0.05
0.0,-0.057,-0.057,0.029,0.029,-0.057,-0.025,-0.099,-0.135,-0.07,-0.068,-0.05
-0.008,-0.054,-0.047,0.031,0.02,-0.05,-0.025,-0.096,-0.135,-0.069,-0.065,-0.05
0.003,-0.056,-0.058,0.027,0.031,-0.057,-0.025,-0.095,-0.133,-0.073,-0.066,-0.053
0.019,-0.054,-0.074,0.018,0.047,-0.064,-0.026,-0.094,-0.129,-0.081,-0.07,-0.055
0.014,-0.056,-0.07,0.021,0.042,-0.062,-0.023,-0.089,-0.127,-0.075,-0.07,-0.055
0.008,-0.054,-0.062,0.023,0.035,-0.058,-0.02,-0.09,-0.124,-0.07,-0.07,-0.055
0.004,-0.056,-0.06,0.026,0.032,-0.058,-0.018,-0.088,-0.121,-0.067,-0.07,-0.055
-0.005,-0.054,-0.049,0.03,0.023,-0.051,-0.014,-0.084,-0.12,-0.06,-0.074,-0.054
-0.002,-0.057,-0.055,0.029,0.027,-0.055,-0.012,-0.086,-0.125,-0.067,-0.081,-0.05
0.009,-0.071,-0.08,0.031,0.045,-0.075,-0.008,-0.083,-0.125,-0.077,-0.085,-0.05
0.02,-0.061,-0.081,0.021,0.05,-0.071,-0.02,-0.094,-0.125,-0.074,-0.085,-0.051
0.022,-0.054,-0.076,0.016,0.049,-0.064,-0.037,-0.111,-0.125,-0.07,-0.085,-0.048
0.019,-0.056,-0.075,0.019,0.048,-0.066,-0.031,-0.108,-0.124,-0.07,-0.085,-0.059
0.023,-0.054,-0.077,0.016,0.05,-0.065,-0.028,-0.105,-0.127,-0.063,-0.085,-0.072
0.028,-0.057,-0.084,0.015,0.057,-0.07,-0.025,-0.102,-0.13,-0.072,-0.089,-0.068
0.027,-0.052,-0.079,0.013,0.054,-0.066,-0.02,-0.1,-0.133,-0.086,-0.09,-0.065
0.01,-0.063,-0.073,0.027,0.042,-0.068,-0.021,-0.098,-0.136,-0.081,-0.09,-0.063
-0.008,-0.077,-0.069,0.042,0.031,-0.073,-0.018,-0.094,-0.139,-0.078,-0.094,-0.059
-0.015,-0.074,-0.059,0.045,0.023,-0.067,-0.025,-0.095,-0.14,-0.074,-0.095,-0.06
-0.001,-0.075,-0.074,0.038,0.037,-0.074,-0.037,-0.091,-0.135,-0.071,-0.093,-0.06
0.011,-0.075,-0.087,0.032,0.049,-0.081,-0.033,-0.089,-0.13,-0.066,-0.09,-0.06
0.005,-0.075,-0.08,0.035,0.043,-0.077,-0.031,-0.091,-0.125,-0.075,-0.087,-0.06
0.006,-0.072,-0.078,0.033,0.042,-0.075,-0.027,-0.094,-0.122,-0.087,-0.085,-0.06
0.004,-0.069,-0.073,0.032,0.039,-0.07,-0.025,-0.095,-0.115,-0.084,-0.081,-0.059
0.004,-0.067,-0.07,0.031,0.038,-0.068,-0.023,-0.095,-0.117,-0.085,-0.08,-0.055
0.006,-0.063,-0.069,0.028,0.038,-0.065,-0.019,-0.095,-0.12,-0.085,-0.076,-0.055
0.011,-0.061,-0.071,0.025,0.041,-0.066,-0.021,-0.095,-0.12,-0.085,-0.075,-0.055
0.009,-0.059,-0.068,0.025,0.038,-0.063,-0.016,-0.093,-0.125,-0.082,-0.075,-0.055
0.011,-0.063,-0.074,0.026,0.042,-0.068,-0.015,-0.089,-0.125,-0.077,-0.071,-0.054
-0.008,-0.07,-0.062,0.039,0.027,-0.066,-0.015,-0.09,-0.125,-0.074,-0.069,-0.061
-0.023,-0.07,-0.047,0.047,0.012,-0.058,-0.01,-0.09,-0.125,-0.071,-0.071,-0.067
0.0,-0.07,-0.07,0.035,0.035,-0.07,-0.011,-0.09,-0.125,-0.066,-0.075,-0.063
-0.002,-0.07,-0.068,0.036,0.033,-0.068,-0.008,-0.09,-0.122,-0.066,-0.075,-0.06
-0.008,-0.07,-0.062,0.04,0.027,-0.066,-0.005,-0.09,-0.12,-0.07,-0.077,-0.057
-0.007,-0.068,-0.06,0.037,0.027,-0.064,-0.004,-0.09,-0.12,-0.07,-0.081,-0.055
-0.009,-0.064,-0.055,0.037,0.023,-0.06,-0.009,-0.09,-0.117,-0.07,-0.08,-0.057
-0.013,-0.065,-0.053,0.039,0.02,-0.059,-0.021,-0.09,-0.114,-0.066,-0.08,-0.067
-0.011,-0.061,-0.05,0.036,0.02,-0.055,-0.021,-0.09,-0.116,-0.064,-0.08,-0.07
-0.01,-0.06,-0.049,0.035,0.019,-0.055,-0.02,-0.09,-0.12,-0.066,-0.08,-0.065
-0.012,-0.06,-0.048,0.036,0.018,-0.053,-0.019,-0.09,-0.124,-0.064,-0.08,-0.063
-0.012,-0.055,-0.043,0.034,0.016,-0.049,-0.015,-0.09,-0.129,-0.068,-0.08,-0.058
-0.003,-0.05,-0.047,0.027,0.022,-0.048,-0.015,-0.09,-0.127,-0.069,-0.079,-0.055
0.005,-0.045,-0.05,0.021,0.028,-0.047,-0.014,-0.09,-0.119,-0.063,-0.071,-0.051
0.005,-0.042,-0.047,0.019,0.026,-0.044,-0.007,-0.09,-0.109,-0.056,-0.063,-0.044
0.032,-0.036,-0.068,0.002,0.05,-0.052,-0.007,-0.069,-0.103,-0.05,-0.055,-0.038
0.021,-0.033,-0.054,0.006,0.038,-0.043,0.01,-0.048,-0.078,-0.041,-0.047,-0.031
0.008,-0.029,-0.038,0.011,0.023,-0.033,0.015,-0.049,-0.058,-0.035,-0.048,-0.024
0.045,-0.03,-0.076,-0.007,0.061,-0.053,-0.025,-0.055,-0.064,-0.027,-0.054,-0.02
0.06,-0.03,-0.089,-0.015,0.074,-0.059,-0.037,-0.053,-0.07,-0.021,-0.057,-0.028
0.044,-0.031,-0.075,-0.006,0.06,-0.053,-0.034,-0.078,-0.111,-0.054,-0.062,-0.037
0.038,-0.052,-0.089,0.007,0.064,-0.07,-0.035,-0.093,-0.123,-0.071,-0.065,-0.04
0.055,-0.057,-0.112,0.001,0.084,-0.084,-0.043,-0.095,-0.125,-0.074,-0.073,-0.041
0.047,-0.052,-0.099,0.003,0.074,-0.076,-0.049,-0.097,-0.13,-0.076,-0.071,-0.037
0.025,-0.066,-0.091,0.021,0.058,-0.079,-0.034,-0.09,-0.129,-0.084,-0.082,-0.059
0.009,-0.067,-0.076,0.029,0.042,-0.071,-0.031,-0.104,-0.14,-0.085,-0.078,-0.064
-0.006,-0.076,-0.07,0.041,0.032,-0.073,-0.017,-0.082,-0.125,-0.095,-0.09,-0.065
-0.008,-0.072,-0.064,0.04,0.029,-0.068,-0.018,-0.116,-0.141,-0.098,-0.083,-0.057
-0.018,-0.074,-0.056,0.047,0.019,-0.065,-0.003,-0.091,-0.109,-0.087,-0.079,-0.058
-0.01,-0.068,-0.058,0.039,0.024,-0.063,-0.004,-0.116,-0.143,-0.105,-0.086,-0.056
-0.032,-0.069,-0.037,0.051,0.003,-0.053,0.007,-0.072,-0.097,-0.069,-0.06,-0.053
-0.014,-0.08,-0.066,0.047,0.026,-0.073,0.017,-0.075,-0.126,-0.12,-0.105,-0.082
-0.01,-0.091,-0.081,0.05,0.036,-0.086,0.097,0.2,0.041,-0.034,-0.1,-0.102
0.064,-0.003,-0.067,-0.031,0.066,-0.034,0.213,0.633,0.557,0.348,0.138,0.036
0.267,0.49,0.223,-0.379,0.022,0.356,-0.2,-0.594,0.584,1.201,1.146,0.822
0.079,0.561,0.482,-0.32,-0.202,0.521,-0.55,-1.652,0.063,1.135,1.277,0.995
-0.192,0.07,0.263,0.061,-0.228,0.166,-0.428,-1.239,-0.753,-0.27,-0.035,0.108
-0.135,-0.116,0.019,0.125,-0.077,-0.048,-0.299,-0.743,-0.74,-0.507,-0.327,-0.163
-0.015,-0.136,-0.121,0.076,0.053,-0.128,-0.123,-0.3,-0.267,-0.182,-0.129,-0.082
-0.017,-0.096,-0.079,0.057,0.031,-0.088,-0.023,-0.082,-0.152,-0.13,-0.118,-0.072
-0.054,-0.073,-0.019,0.064,-0.017,-0.046,0.018,0.012,-0.024,-0.015,-0.029,-0.022
-0.024,-0.07,-0.046,0.047,0.012,-0.058,0.041,0.042,-0.03,-0.054,-0.053,-0.035
-0.019,-0.044,-0.025,0.032,0.003,-0.034,0.038,0.055,0.0,0.0,-0.02,-0.015
-0.008,-0.042,-0.034,0.025,0.014,-0.038,0.042,0.072,0.012,-0.007,-0.03,-0.02
-0.004,-0.031,-0.027,0.018,0.012,-0.029,0.04,0.071,0.028,0.004,-0.015,-0.008
-0.01,-0.038,-0.028,0.024,0.01,-0.033,0.06,0.103,0.056,0.014,-0.01,-0.005
-0.012,-0.03,-0.018,0.022,0.003,-0.024,0.06,0.108,0.052,0.011,-0.007,-0.001
-0.016,-0.03,-0.014,0.023,-0.001,-0.022,0.06,0.133,0.072,0.037,0.005,0.005
-0.028,-0.03,-0.002,0.029,-0.013,-0.015,0.061,0.145,0.085,0.041,0.006,0.005
-0.01,-0.025,-0.015,0.018,0.003,-0.02,0.059,0.154,0.1,0.051,0.018,0.012
0.038,-0.024,-0.062,-0.007,0.05,-0.042,0.062,0.176,0.111,0.067,0.023,0.014
0.04,-0.02,-0.06,-0.01,0.05,-0.04,0.066,0.191,0.135,0.077,0.036,0.018
0.042,-0.018,-0.06,-0.012,0.051,-0.038,0.076,0.22,0.16,0.083,0.044,0.028
0.046,-0.015,-0.061,-0.015,0.054,-0.037,0.069,0.256,0.183,0.101,0.05,0.036
0.047,-0.013,-0.06,-0.017,0.054,-0.036,0.076,0.299,0.222,0.129,0.078,0.053
0.055,-0.003,-0.058,-0.026,0.057,-0.03,0.096,0.341,0.272,0.169,0.113,0.075
0.06,0.005,-0.055,-0.032,0.057,-0.024,0.102,0.393,0.295,0.181,0.128,0.08
0.065,0.013,-0.052,-0.039,0.058,-0.019,0.118,0.471,0.339,0.21,0.151,0.099
0.064,0.015,-0.05,-0.04,0.057,-0.017,0.126,0.546,0.393,0.251,0.168,0.111
0.075,0.03,-0.045,-0.052,0.06,-0.007,0.138,0.632,0.452,0.285,0.204,0.125
0.098,0.053,-0.046,-0.075,0.072,0.003,0.153,0.723,0.52,0.336,0.246,0.151
0.127,0.058,-0.069,-0.092,0.098,-0.006,0.163,0.803,0.578,0.388,0.294,0.189
0.155,0.083,-0.072,-0.119,0.113,0.006,0.167,0.876,0.656,0.453,0.362,0.243
0.162,0.102,-0.059,-0.132,0.11,0.021,0.156,0.903,0.701,0.505,0.407,0.277
0.173,0.121,-0.052,-0.147,0.112,0.035,0.147,0.882,0.72,0.54,0.45,0.32
0.175,0.138,-0.036,-0.156,0.105,0.051,0.14,0.814,0.716,0.559,0.492,0.352
0.17,0.147,-0.023,-0.158,0.096,0.062,0.115,0.695,0.664,0.559,0.508,0.351
0.2,0.159,-0.041,-0.179,0.12,0.058,0.067,0.552,0.603,0.537,0.491,0.349
0.187,0.13,-0.058,-0.158,0.122,0.036,0.027,0.412,0.514,0.478,0.444,0.323
0.144,0.088,-0.056,-0.116,0.099,0.016,0.006,0.299,0.406,0.387,0.359,0.259
0.12,0.059,-0.061,-0.089,0.09,-0.001,0.004,0.19,0.285,0.279,0.249,0.175
0.098,0.035,-0.063,-0.066,0.08,-0.013,0.006,0.11,0.172,0.18,0.147,0.097
0.052,-0.014,-0.066,-0.019,0.059,-0.04,0.004,0.059,0.103,0.105,0.071,0.041
0.013,-0.047,-0.06,0.017,0.037,-0.053,0.007,0.018,0.049,0.055,0.019,-0.004
0.004,-0.046,-0.05,0.021,0.027,-0.047,0.012,0.005,0.011,0.019,-0.013,-0.037
-0.011,-0.051,-0.04,0.031,0.015,-0.046,0.018,-0.006,-0.005,-0.006,-0.024,-0.046
-0.021,-0.05,-0.029,0.036,0.004,-0.04,0.022,-0.018,-0.01,-0.014,-0.038,-0.049
-0.024,-0.048,-0.024,0.037,0.0,-0.036,0.029,-0.02,-0.018,-0.019,-0.057,-0.063
-0.037,-0.056,-0.018,0.047,-0.009,-0.037,0.034,-0.02,-0.026,-0.024,-0.061,-0.064
-0.049,-0.064,-0.015,0.057,-0.017,-0.04,0.032,-0.02,-0.033,-0.03,-0.056,-0.057
-0.049,-0.059,-0.01,0.054,-0.02,-0.034,0.029,-0.02,-0.036,-0.035,-0.054,-0.054
-0.047,-0.053,-0.006,0.051,-0.021,-0.029,0.03,-0.02,-0.035,-0.035,-0.051,-0.049
-0.041,-0.048,-0.007,0.045,-0.017,-0.027,0.03,-0.022,-0.035,-0.035,-0.049,-0.045
-0.027,-0.042,-0.014,0.034,-0.006,-0.028,0.03,-0.026,-0.035,-0.035,-0.046,-0.041
-0.016,-0.042,-0.026,0.03,0.005,-0.034,0.029,-0.024,-0.035,-0.035,-0.045,-0.04
-0.024,-0.047,-0.023,0.036,0.0,-0.035,0.024,-0.026,-0.036,-0.035,-0.045,-0.04
-0.031,-0.049,-0.019,0.04,-0.006,-0.034,0.021,-0.024,-0.046,-0.038,-0.046,-0.04
-0.03,-0.046,-0.016,0.038,-0.006,-0.031,0.018,-0.027,-0.05,-0.044,-0.044,-0.04
-0.033,-0.043,-0.01,0.038,-0.011,-0.027,0.013,-0.035,-0.054,-0.051,-0.048,-0.042
-0.029,-0.04,-0.012,0.035,-0.009,-0.026,0.01,-0.035,-0.066,-0.043,-0.05,-0.047
-0.023,-0.038,-0.015,0.031,-0.004,-0.026,0.014,-0.047,-0.071,-0.045,-0.052,-0.05
-0.019,-0.034,-0.015,0.027,-0.001,-0.025,0.024,-0.057,-0.076,-0.068,-0.072,-0.055
-0.026,-0.041,-0.015,0.034,-0.005,-0.028,0.028,-0.054,-0.079,-0.071,-0.076,-0.055
-0.031,-0.046,-0.015,0.039,-0.008,-0.031,0.025,-0.055,-0.084,-0.069,-0.074,-0.056
-0.029,-0.044,-0.015,0.037,-0.007,-0.03,0.02,-0.062,-0.085,-0.071,-0.076,-0.06
-0.034,-0.045,-0.012,0.04,-0.011,-0.028,0.018,-0.071,-0.085,-0.069,-0.074,-0.06
-0.037,-0.045,-0.007,0.041,-0.015,-0.026,0.013,-0.07,-0.085,-0.072,-0.075,-0.06
-0.041,-0.045,-0.004,0.043,-0.018,-0.024,0.01,-0.07,-0.085,-0.075,-0.075,-0.06
-0.048,-0.049,-0.001,0.048,-0.023,-0.025,0.01,-0.071,-0.086,-0.075,-0.075,-0.06
-0.054,-0.05,0.004,0.052,-0.029,-0.023,0.01,-0.069,-0.09,-0.075,-0.075,-0.06
-0.055,-0.051,0.004,0.053,-0.03,-0.023,0.01,-0.073,-0.092,-0.075,-0.075,-0.06
-0.05,-0.055,-0.005,0.053,-0.022,-0.03,0.01,-0.088,-0.095,-0.075,-0.075,-0.061
-0.04,-0.055,-0.015,0.048,-0.012,-0.035,0.01,-0.09,-0.098,-0.079,-0.078,-0.064
-0.03,-0.055,-0.025,0.043,-0.002,-0.04,0.008,-0.092,-0.1,-0.08,-0.081,-0.065
-0.028,-0.055,-0.027,0.042,0.0,-0.041,0.005,-0.096,-0.1,-0.08,-0.085,-0.065
-0.031,-0.055,-0.024,0.043,-0.003,-0.039,0.002,-0.093,-0.099,-0.081,-0.084,-0.065
-0.037,-0.058,-0.021,0.048,-0.008,-0.04,0.0,-0.091,-0.101,-0.081,-0.08,-0.065
-0.042,-0.061,-0.018,0.052,-0.012,-0.039,-0.003,-0.087,-0.098,-0.076,-0.078,-0.062
-0.043,-0.058,-0.015,0.051,-0.014,-0.036,-0.006,-0.085,-0.105,-0.073,-0.075,-0.06
-0.041,-0.055,-0.014,0.049,-0.013,-0.034,-0.001,-0.081,-0.116,-0.07,-0.071,-0.06
-0.046,-0.053,-0.006,0.05,-0.02,-0.029,0.005,-0.08,-0.112,-0.065,-0.07,-0.057
-0.052,-0.049,0.003,0.051,-0.028,-0.023,0.011,-0.084,-0.108,-0.067,-0.07,-0.054
-0.038,-0.047,-0.009,0.043,-0.015,-0.027,0.014,-0.085,-0.105,-0.071,-0.07,-0.056
-0.026,-0.044,-0.018,0.035,-0.004,-0.031,0.01,-0.085,-0.1,-0.074,-0.07,-0.059
-0.037,-0.05,-0.013,0.044,-0.012,-0.032,0.01,-0.084,-0.1,-0.078,-0.07,-0.06
-0.046,-0.058,-0.011,0.052,-0.017,-0.034,0.01,-0.08,-0.1,-0.08,-0.069,-0.06
-0.045,-0.055,-0.01,0.05,-0.017,-0.032,0.01,-0.08,-0.099,-0.085,-0.072,-0.06
-0.048,-0.055,-0.007,0.052,-0.02,-0.031,0.01,-0.096,-0.108,-0.085,-0.08,-0.062
-0.03,-0.053,-0.023,0.041,-0.003,-0.037,0.013,-0.1,-0.115,-0.086,-0.08,-0.065
-0.014,-0.05,-0.036,0.032,0.011,-0.043,0.016,-0.094,-0.104,-0.09,-0.08,-0.065
-0.023,-0.05,-0.027,0.037,0.002,-0.038,0.015,-0.093,-0.1,-0.09,-0.08,-0.065
-0.033,-0.054,-0.021,0.044,-0.006,-0.037,0.015,-0.087,-0.092,-0.087,-0.08,-0.065
-0.039,-0.054,-0.015,0.047,-0.012,-0.035,0.015,-0.085,-0.086,-0.085,-0.08,-0.064
-0.044,-0.049,-0.005,0.047,-0.02,-0.027,0.013,-0.085,-0.089,-0.085,-0.075,-0.061
-0.036,-0.051,-0.015,0.044,-0.01,-0.033,0.01,-0.084,-0.09,-0.081,-0.075,-0.058
-0.022,-0.047,-0.026,0.035,0.002,-0.036,0.009,-0.089,-0.098,-0.08,-0.074,-0.055
-0.027,-0.044,-0.017,0.036,-0.004,-0.031,0.029,-0.088,-0.097,-0.08,-0.069,-0.052
-0.036,-0.046,-0.01,0.041,-0.012,-0.028,0.03,-0.078,-0.086,-0.073,-0.071,-0.05
-0.032,-0.038,-0.006,0.035,-0.013,-0.021,0.015,-0.066,-0.078,-0.062,-0.068,-0.048
-0.027,-0.02,0.007,0.023,-0.017,-0.006,0.048,-0.063,-0.071,-0.056,-0.065,-0.045
-0.028,-0.007,0.021,0.017,-0.024,0.007,0.044,-0.064,-0.069,-0.054,-0.065,-0.041
-0.001,0.003,0.004,-0.001,-0.003,0.004,0.001,-0.066,-0.07,-0.055,-0.062,-0.039
0.037,0.028,-0.009,-0.032,0.023,0.009,-0.01,-0.071,-0.07,-0.055,-0.059,-0.035
0.016,0.007,-0.009,-0.011,0.012,-0.001,-0.011,-0.068,-0.072,-0.055,-0.061,-0.035
-0.008,-0.033,-0.025,0.021,0.008,-0.028,-0.008,-0.088,-0.091,-0.066,-0.064,-0.04
-0.003,-0.042,-0.039,0.023,0.018,-0.041,-0.005,-0.091,-0.093,-0.073,-0.066,-0.044
-0.005,-0.038,-0.033,0.022,0.014,-0.035,-0.003,-0.102,-0.104,-0.077,-0.071,-0.05
-0.021,-0.045,-0.025,0.033,0.002,-0.035,0.0,-0.105,-0.107,-0.075,-0.071,-0.05
-0.059,-0.08,-0.022,0.07,-0.018,-0.051,0.002,-0.103,-0.117,-0.1,-0.092,-0.063
-0.075,-0.083,-0.008,0.079,-0.033,-0.046,0.0,-0.118,-0.12,-0.092,-0.089,-0.063
-0.06,-0.081,-0.021,0.07,-0.019,-0.051,-0.005,-0.107,-0.119,-0.097,-0.095,-0.068
-0.051,-0.072,-0.021,0.062,-0.015,-0.046,-0.019,-0.129,-0.13,-0.096,-0.085,-0.062
-0.044,-0.073,-0.029,0.059,-0.008,-0.051,0.001,-0.096,-0.102,-0.082,-0.085,-0.066
-0.034,-0.063,-0.029,0.049,-0.002,-0.046,-0.002,-0.14,-0.146,-0.106,-0.088,-0.066
-0.047,-0.061,-0.014,0.054,-0.016,-0.037,0.015,-0.087,-0.079,-0.059,-0.065,-0.056
-0.036,-0.07,-0.033,0.053,-0.002,-0.051,0.025,-0.1,-0.133,-0.125,-0.12,-0.079
-0.045,-0.081,-0.036,0.063,-0.004,-0.059,0.154,0.269,0.117,-0.02,-0.107,-0.106
0.046,0.047,0.001,-0.046,0.023,0.023,0.237,0.483,0.577,0.401,0.215,0.114
0.255,0.529,0.274,-0.392,-0.01,0.402,-0.291,-0.892,0.542,1.243,1.187,0.878
0.079,0.515,0.436,-0.297,-0.179,0.475,-0.638,-1.689,0.025,1.025,1.113,0.893
-0.174,0.029,0.202,0.072,-0.188,0.115,-0.469,-1.231,-0.84,-0.407,-0.134,0.047
-0.114,-0.145,-0.031,0.13,-0.041,-0.088,-0.291,-0.682,-0.684,-0.482,-0.304,-0.153
-0.049,-0.156,-0.107,0.103,0.029,-0.132,-0.088,-0.235,-0.196,-0.153,-0.131,-0.073
-0.03,-0.075,-0.045,0.053,0.008,-0.06,0.004,-0.081,-0.136,-0.152,-0.122,-0.062
-0.031,-0.038,-0.007,0.035,-0.012,-0.022,0.019,0.01,-0.015,-0.048,-0.055,-0.031
-0.024,-0.038,-0.014,0.031,-0.004,-0.025,0.031,0.019,-0.032,-0.083,-0.078,-0.044
-0.021,-0.028,-0.008,0.025,-0.006,-0.018,0.035,0.041,0.008,-0.034,-0.042,-0.028
-0.02,-0.032,-0.012,0.026,-0.004,-0.022,0.035,0.055,0.007,-0.046,-0.054,-0.033
-0.016,-0.023,-0.007,0.02,-0.004,-0.015,0.041,0.059,0.023,-0.029,-0.034,-0.024
-0.007,-0.026,-0.019,0.017,0.006,-0.022,0.048,0.075,0.042,-0.025,-0.032,-0.023
0.008,-0.018,-0.027,0.006,0.018,-0.022,0.039,0.083,0.044,-0.023,-0.024,-0.016
-0.014,-0.036,-0.022,0.026,0.004,-0.029,0.063,0.102,0.062,-0.007,-0.013,-0.011
-0.017,-0.036,-0.019,0.027,0.001,-0.027,0.077,0.116,0.079,-0.002,-0.009,-0.007
-0.008,-0.024,-0.016,0.017,0.004,-0.02,0.074,0.137,0.106,0.016,0.002,0.001
-0.01,-0.02,-0.011,0.015,0.001,-0.015,0.078,0.16,0.099,0.03,0.007,0.003
-0.001,-0.013,-0.011,0.007,0.005,-0.011,0.08,0.187,0.117,0.05,0.017,0.018
0.007,-0.01,-0.016,0.002,0.011,-0.012,0.08,0.212,0.148,0.056,0.016,0.031
0.019,-0.002,-0.021,-0.008,0.02,-0.011,0.083,0.246,0.168,0.072,0.032,0.029
0.027,0.002,-0.025,-0.014,0.025,-0.011,0.087,0.279,0.197,0.088,0.048,0.034
0.03,0.008,-0.022,-0.019,0.025,-0.006,0.089,0.327,0.232,0.108,0.067,0.047
0.041,0.024,-0.017,-0.032,0.029,0.003,0.107,0.386,0.275,0.142,0.092,0.059
0.046,0.036,-0.01,-0.041,0.028,0.013,0.127,0.458,0.335,0.171,0.112,0.077
0.06,0.05,-0.01,-0.055,0.035,0.02,0.146,0.54,0.388,0.204,0.143,0.097
0.071,0.073,0.002,-0.072,0.034,0.037,0.162,0.626,0.45,0.254,0.173,0.118
0.096,0.082,-0.014,-0.089,0.055,0.033,0.177,0.717,0.528,0.305,0.22,0.144
0.135,0.095,-0.04,-0.115,0.087,0.027,0.194,0.797,0.59,0.365,0.278,0.185
0.14,0.119,-0.021,-0.129,0.081,0.049,0.197,0.856,0.654,0.424,0.327,0.225
0.152,0.132,-0.02,-0.142,0.086,0.056,0.188,0.863,0.697,0.475,0.384,0.268
0.18,0.16,-0.02,-0.17,0.1,0.07,0.176,0.823,0.687,0.518,0.431,0.308
0.192,0.177,-0.015,-0.184,0.104,0.081,0.156,0.754,0.676,0.541,0.46,0.332
0.183,0.169,-0.014,-0.175,0.098,0.077,0.122,0.634,0.653,0.55,0.483,0.351
0.172,0.163,-0.009,-0.167,0.09,0.076,0.075,0.503,0.599,0.524,0.47,0.341
0.165,0.156,-0.009,-0.161,0.087,0.074,0.032,0.374,0.524,0.461,0.411,0.303
0.134,0.132,-0.002,-0.132,0.068,0.065,0.01,0.251,0.4,0.367,0.322,0.242
0.107,0.09,-0.016,-0.098,0.061,0.037,0.01,0.162,0.276,0.254,0.211,0.157
0.08,0.048,-0.032,-0.064,0.056,0.008,0.01,0.082,0.173,0.152,0.114,0.081
0.029,0.003,-0.026,-0.015,0.027,-0.011,0.012,0.027,0.085,0.07,0.042,0.028
-0.002,-0.025,-0.023,0.014,0.011,-0.024,0.016,-0.002,0.031,0.019,-0.012,-0.015
-0.013,-0.033,-0.02,0.023,0.004,-0.027,0.014,-0.029,-0.004,-0.019,-0.045,-0.055
-0.029,-0.042,-0.013,0.036,-0.007,-0.028,0.019,-0.041,-0.018,-0.047,-0.06,-0.071
-0.031,-0.056,-0.025,0.044,-0.003,-0.04,0.02,-0.04,-0.039,-0.057,-0.071,-0.069
-0.029,-0.066,-0.037,0.048,0.004,-0.051,0.02,-0.04,-0.056,-0.067,-0.087,-0.072
-0.034,-0.065,-0.031,0.05,-0.001,-0.048,0.025,-0.04,-0.054,-0.078,-0.083,-0.075
-0.034,-0.062,-0.029,0.048,-0.002,-0.045,0.025,-0.04,-0.056,-0.08,-0.08,-0.075
-0.036,-0.06,-0.024,0.048,-0.006,-0.042,0.023,-0.04,-0.055,-0.08,-0.078,-0.073
-0.039,-0.06,-0.021,0.049,-0.009,-0.04,0.02,-0.04,-0.056,-0.08,-0.074,-0.07
-0.04,-0.057,-0.017,0.049,-0.011,-0.037,0.018,-0.04,-0.053,-0.08,-0.076,-0.067
-0.037,-0.052,-0.015,0.045,-0.011,-0.033,0.015,-0.04,-0.05,-0.08,-0.075,-0.064
-0.038,-0.05,-0.012,0.044,-0.013,-0.03,0.012,-0.04,-0.051,-0.076,-0.075,-0.061
-0.036,-0.046,-0.009,0.041,-0.013,-0.027,0.009,-0.04,-0.05,-0.075,-0.075,-0.06
-0.012,-0.041,-0.029,0.027,0.008,-0.035,0.007,-0.041,-0.05,-0.075,-0.075,-0.06
-0.003,-0.04,-0.037,0.022,0.017,-0.038,0.004,-0.039,-0.05,-0.075,-0.076,-0.06
-0.009,-0.04,-0.031,0.025,0.011,-0.035,0.001,-0.049,-0.058,-0.075,-0.079,-0.06
-0.011,-0.04,-0.029,0.026,0.009,-0.034,-0.001,-0.056,-0.069,-0.077,-0.082,-0.06
-0.016,-0.04,-0.024,0.028,0.004,-0.032,-0.005,-0.064,-0.073,-0.081,-0.084,-0.059
-0.019,-0.04,-0.021,0.03,0.001,-0.03,-0.004,-0.085,-0.078,-0.083,-0.088,-0.063
-0.022,-0.04,-0.018,0.031,-0.002,-0.028,0.0,-0.085,-0.081,-0.086,-0.09,-0.065
-0.022,-0.037,-0.014,0.03,-0.004,-0.025,0.002,-0.084,-0.09,-0.089,-0.093,-0.065
-0.019,-0.034,-0.015,0.027,-0.001,-0.025,0.006,-0.085,-0.099,-0.092,-0.095,-0.068
-0.019,-0.031,-0.011,0.025,-0.004,-0.021,0.001,-0.087,-0.1,-0.095,-0.095,-0.071
-0.02,-0.029,-0.009,0.024,-0.005,-0.019,0.0,-0.092,-0.101,-0.095,-0.098,-0.069
-0.012,-0.025,-0.012,0.018,0.001,-0.018,0.0,-0.095,-0.099,-0.095,-0.101,-0.066
-0.028,-0.026,0.002,0.027,-0.015,-0.012,0.0,-0.1,-0.105,-0.095,-0.099,-0.065
-0.03,-0.03,-0.001,0.03,-0.014,-0.015,0.001,-0.1,-0.116,-0.095,-0.096,-0.065
-0.017,-0.03,-0.013,0.023,-0.002,-0.021,-0.002,-0.1,-0.11,-0.095,-0.095,-0.065
-0.022,-0.03,-0.009,0.026,-0.007,-0.02,-0.005,-0.1,-0.105,-0.095,-0.095,-0.065
-0.02,-0.029,-0.009,0.025,-0.005,-0.019,-0.008,-0.1,-0.102,-0.1,-0.095,-0.067
-0.029,-0.031,-0.002,0.031,-0.014,-0.016,-0.01,-0.1,-0.095,-0.105,-0.095,-0.07
-0.013,-0.026,-0.013,0.02,0.001,-0.019,-0.013,-0.1,-0.099,-0.108,-0.097,-0.07
-0.001,-0.031,-0.03,0.016,0.015,-0.03,-0.016,-0.101,-0.112,-0.113,-0.1,-0.07
-0.023,-0.046,-0.023,0.035,0.001,-0.035,-0.011,-0.106,-0.116,-0.115,-0.1,-0.07
-0.021,-0.04,-0.019,0.031,-0.001,-0.029,-0.01,-0.105,-0.114,-0.115,-0.1,-0.07
-0.022,-0.035,-0.014,0.028,-0.004,-0.024,-0.01,-0.101,-0.115,-0.118,-0.1,-0.07
-0.027,-0.032,-0.005,0.03,-0.011,-0.019,-0.01,-0.099,-0.114,-0.121,-0.1,-0.07
-0.012,-0.024,-0.012,0.018,0.0,-0.018,-0.011,-0.095,-0.116,-0.119,-0.1,-0.07
-0.013,-0.035,-0.022,0.024,0.005,-0.028,-0.008,-0.095,-0.119,-0.116,-0.1,-0.07
-0.027,-0.047,-0.019,0.037,-0.003,-0.032,-0.005,-0.1,-0.12,-0.115,-0.1,-0.07
-0.024,-0.044,-0.02,0.034,-0.001,-0.032,-0.005,-0.103,-0.12,-0.115,-0.1,-0.07
-0.025,-0.045,-0.02,0.035,-0.002,-0.032,-0.005,-0.108,-0.12,-0.115,-0.1,-0.07
-0.025,-0.045,-0.02,0.035,-0.002,-0.032,-0.005,-0.11,-0.12,-0.115,-0.097,-0.07
-0.028,-0.045,-0.017,0.036,-0.005,-0.03,-0.005,-0.11,-0.118,-0.117,-0.095,-0.07
-0.046,-0.049,-0.003,0.048,-0.021,-0.026,-0.009,-0.11,-0.114,-0.12,-0.095,-0.07
-0.041,-0.05,-0.009,0.046,-0.016,-0.029,-0.01,-0.11,-0.115,-0.12,-0.095,-0.069
-0.027,-0.05,-0.023,0.039,-0.002,-0.037,-0.01,-0.109,-0.115,-0.12,-0.095,-0.065
-0.03,-0.054,-0.025,0.043,-0.002,-0.039,-0.01,-0.105,-0.115,-0.12,-0.095,-0.065
-0.03,-0.056,-0.025,0.043,-0.002,-0.04,-0.01,-0.105,-0.115,-0.119,-0.095,-0.065
-0.029,-0.053,-0.025,0.042,-0.002,-0.039,-0.01,-0.104,-0.11,-0.116,-0.095,-0.065
-0.025,-0.05,-0.025,0.038,0.0,-0.037,-0.01,-0.11,-0.11,-0.113,-0.095,-0.065
-0.023,-0.047,-0.025,0.036,0.001,-0.036,-0.01,-0.117,-0.109,-0.11,-0.095,-0.062
-0.024,-0.045,-0.02,0.035,-0.002,-0.032,-0.01,-0.113,-0.105,-0.108,-0.095,-0.059
-0.021,-0.041,-0.02,0.031,-0.001,-0.031,-0.01,-0.11,-0.105,-0.104,-0.095,-0.06
-0.02,-0.04,-0.02,0.03,0.0,-0.03,-0.01,-0.108,-0.107,-0.108,-0.095,-0.06
-0.016,-0.036,-0.021,0.026,0.003,-0.028,-0.006,-0.104,-0.11,-0.11,-0.095,-0.06
-0.016,-0.035,-0.019,0.026,0.002,-0.026,-0.005,-0.108,-0.113,-0.11,-0.095,-0.06
-0.009,-0.034,-0.025,0.022,0.008,-0.029,-0.005,-0.11,-0.116,-0.114,-0.095,-0.055
0.003,-0.031,-0.034,0.014,0.019,-0.032,-0.001,-0.11,-0.12,-0.115,-0.095,-0.055
-0.007,-0.028,-0.021,0.018,0.007,-0.025,0.001,-0.113,-0.12,-0.114,-0.095,-0.054
-0.018,-0.035,-0.018,0.027,0.0,-0.026,-0.002,-0.115,-0.115,-0.11,-0.095,-0.05
-0.025,-0.046,-0.021,0.035,-0.002,-0.033,-0.005,-0.114,-0.11,-0.11,-0.095,-0.05
-0.026,-0.045,-0.019,0.036,-0.003,-0.032,-0.005,-0.11,-0.105,-0.109,-0.095,-0.05
-0.02,-0.044,-0.024,0.033,0.002,-0.034,-0.005,-0.11,-0.102,-0.104,-0.095,-0.05
-0.021,-0.046,-0.025,0.034,0.002,-0.036,-0.005,-0.109,-0.095,-0.105,-0.092,-0.05
-0.018,-0.043,-0.026,0.031,0.004,-0.034,-0.005,-0.105,-0.097,-0.102,-0.089,-0.05
-0.021,-0.05,-0.029,0.035,0.004,-0.039,-0.005,-0.105,-0.1,-0.099,-0.09,-0.05
-0.032,-0.065,-0.033,0.049,0.001,-0.049,-0.005,-0.105,-0.1,-0.1,-0.086,-0.05
-0.028,-0.063,-0.035,0.046,0.004,-0.049,-0.004,-0.105,-0.1,-0.1,-0.085,-0.05
-0.022,-0.059,-0.036,0.041,0.007,-0.047,0.001,-0.105,-0.1,-0.1,-0.084,-0.05
-0.016,-0.056,-0.04,0.036,0.013,-0.048,-0.001,-0.105,-0.1,-0.099,-0.081,-0.05
-0.011,-0.051,-0.04,0.031,0.014,-0.045,0.003,-0.105,-0.095,-0.095,-0.079,-0.05
-0.015,-0.049,-0.034,0.032,0.01,-0.041,0.005,-0.105,-0.096,-0.09,-0.08,-0.05
-0.012,-0.041,-0.029,0.027,0.009,-0.035,0.005,-0.1,-0.091,-0.086,-0.08,-0.048
-0.011,-0.034,-0.024,0.023,0.007,-0.029,0.002,-0.097,-0.09,-0.081,-0.081,-0.041
-0.01,-0.028,-0.018,0.019,0.005,-0.023,0.0,-0.088,-0.084,-0.077,-0.075,-0.037
-0.009,-0.02,-0.011,0.015,0.001,-0.015,0.031,-0.055,-0.049,-0.071,-0.047,-0.031
-0.001,-0.016,-0.015,0.008,0.008,-0.015,0.026,-0.049,-0.036,-0.071,-0.035,-0.025
0.028,-0.008,-0.035,-0.01,0.032,-0.021,-0.03,-0.052,-0.032,-0.066,-0.026,-0.02
0.027,-0.008,-0.035,-0.009,0.032,-0.021,-0.04,-0.068,-0.052,-0.065,-0.034,-0.025
0.008,-0.027,-0.035,0.01,0.022,-0.031,-0.04,-0.104,-0.094,-0.09,-0.067,-0.028
0.025,-0.039,-0.064,0.007,0.045,-0.051,-0.044,-0.096,-0.085,-0.101,-0.075,-0.032
0.038,-0.032,-0.07,-0.003,0.055,-0.05,-0.045,-0.105,-0.096,-0.107,-0.076,-0.038
0.018,-0.043,-0.061,0.013,0.04,-0.052,-0.041,-0.114,-0.103,-0.106,-0.073,-0.04
-0.002,-0.062,-0.06,0.033,0.029,-0.061,-0.034,-0.124,-0.113,-0.119,-0.081,-0.048
-0.004,-0.056,-0.052,0.031,0.024,-0.054,-0.032,-0.119,-0.11,-0.109,-0.079,-0.046
-0.007,-0.058,-0.051,0.032,0.023,-0.054,-0.021,-0.118,-0.123,-0.12,-0.089,-0.054
-0.005,-0.049,-0.043,0.028,0.019,-0.046,-0.024,-0.126,-0.118,-0.117,-0.075,-0.045
-0.007,-0.054,-0.047,0.031,0.02,-0.05,-0.007,-0.108,-0.103,-0.118,-0.082,-0.054
-0.008,-0.051,-0.043,0.03,0.018,-0.047,-0.017,-0.133,-0.129,-0.129,-0.082,-0.047
-0.025,-0.071,-0.046,0.049,0.011,-0.059,-0.005,-0.089,-0.071,-0.109,-0.071,-0.052
-0.017,-0.062,-0.044,0.04,0.014,-0.053,0.013,-0.103,-0.148,-0.168,-0.115,-0.081
-0.008,-0.051,-0.044,0.03,0.018,-0.047,0.181,0.349,0.177,-0.007,-0.082,-0.087
0.126,0.142,0.016,-0.134,0.055,0.079,0.177,0.212,0.523,0.463,0.327,0.21
0.336,0.643,0.307,-0.49,0.014,0.475,-0.488,-1.287,0.595,1.364,1.355,1.01
0.129,0.479,0.35,-0.304,-0.11,0.414,-0.812,-1.777,0.088,0.967,1.111,0.896
-0.112,-0.051,0.06,0.081,-0.086,0.005,-0.549,-1.204,-0.873,-0.471,-0.149,0.052
-0.037,-0.13,-0.093,0.083,0.028,-0.111,-0.277,-0.606,-0.545,-0.39,-0.224,-0.084
-0.005,-0.107,-0.101,0.057,0.048,-0.104,-0.08,-0.178,-0.128,-0.112,-0.081,-0.035
-0.019,-0.062,-0.044,0.041,0.013,-0.053,-0.022,-0.073,-0.125,-0.128,-0.093,-0.036
-0.002,-0.038,-0.036,0.02,0.018,-0.036,0.017,0.001,-0.016,-0.043,-0.05,-0.023
0.01,-0.03,-0.039,0.011,0.025,-0.034,0.024,0.025,-0.052,-0.089,-0.076,-0.035
0.015,-0.015,-0.03,0.0,0.023,-0.022,0.031,0.045,0.001,-0.042,-0.042,-0.019
0.022,-0.01,-0.033,-0.006,0.028,-0.021,0.042,0.059,-0.014,-0.063,-0.056,-0.03
0.019,-0.01,-0.029,-0.004,0.024,-0.019,0.037,0.069,0.008,-0.041,-0.04,-0.019
0.017,-0.02,-0.037,0.002,0.027,-0.028,0.047,0.089,0.029,-0.039,-0.04,-0.019
0.021,-0.013,-0.034,-0.003,0.028,-0.023,0.045,0.099,0.04,-0.032,-0.027,-0.014
0.022,-0.016,-0.038,-0.003,0.03,-0.027,0.044,0.119,0.049,-0.019,-0.017,-0.01
0.026,-0.015,-0.041,-0.006,0.034,-0.027,0.069,0.15,0.066,-0.017,-0.01,-0.007
0.024,-0.015,-0.039,-0.005,0.032,-0.027,0.083,0.164,0.086,-0.001,0.0,-0.003
0.022,-0.015,-0.037,-0.003,0.03,-0.026,0.083,0.18,0.093,0.001,0.006,0.003
0.024,-0.009,-0.033,-0.007,0.029,-0.021,0.088,0.214,0.116,0.019,0.014,0.012
0.028,-0.004,-0.032,-0.012,0.03,-0.017,0.091,0.247,0.134,0.036,0.027,0.02
0.03,0.002,-0.028,-0.016,0.028,-0.013,0.108,0.294,0.163,0.046,0.043,0.027
0.035,0.009,-0.026,-0.021,0.03,-0.008,0.112,0.341,0.185,0.069,0.048,0.038
0.051,0.027,-0.024,-0.038,0.037,0.001,0.12,0.394,0.218,0.086,0.06,0.048
0.061,0.035,-0.026,-0.048,0.043,0.005,0.144,0.467,0.264,0.109,0.078,0.055
0.072,0.037,-0.035,-0.054,0.053,0.001,0.167,0.556,0.321,0.151,0.108,0.082
0.081,0.049,-0.032,-0.065,0.056,0.008,0.194,0.647,0.38,0.182,0.13,0.102
0.082,0.066,-0.015,-0.074,0.048,0.025,0.213,0.741,0.434,0.222,0.161,0.115
0.093,0.083,-0.011,-0.088,0.052,0.036,0.237,0.837,0.501,0.271,0.202,0.136
0.118,0.096,-0.022,-0.107,0.07,0.037,0.254,0.918,0.562,0.316,0.238,0.166
0.133,0.122,-0.01,-0.127,0.071,0.056,0.271,0.964,0.615,0.37,0.294,0.207
0.13,0.15,0.02,-0.14,0.055,0.085,0.273,0.968,0.649,0.415,0.334,0.237
0.139,0.169,0.03,-0.154,0.054,0.099,0.238,0.925,0.64,0.445,0.379,0.272
0.152,0.183,0.031,-0.167,0.06,0.107,0.207,0.819,0.628,0.464,0.419,0.309
0.154,0.182,0.028,-0.168,0.063,0.105,0.154,0.685,0.602,0.453,0.43,0.322
0.144,0.168,0.025,-0.156,0.059,0.096,0.085,0.547,0.559,0.439,0.431,0.329
0.133,0.16,0.026,-0.147,0.053,0.093,0.042,0.412,0.484,0.41,0.392,0.303
0.136,0.139,0.004,-0.137,0.066,0.071,0.009,0.298,0.389,0.337,0.321,0.24
0.101,0.089,-0.011,-0.095,0.056,0.039,-0.001,0.2,0.284,0.236,0.226,0.169
0.062,0.043,-0.019,-0.052,0.041,0.012,0.0,0.115,0.17,0.14,0.135,0.098
0.06,0.013,-0.047,-0.036,0.053,-0.017,0.0,0.055,0.09,0.077,0.07,0.046
0.036,-0.008,-0.044,-0.014,0.041,-0.026,0.0,0.015,0.033,0.025,0.008,0.004
0.013,-0.027,-0.039,0.007,0.026,-0.033,0.0,-0.024,0.006,-0.021,-0.032,-0.022
0.005,-0.036,-0.041,0.016,0.023,-0.038,0.002,-0.051,-0.026,-0.041,-0.043,-0.033
-0.036,-0.043,-0.007,0.039,-0.014,-0.024,0.006,-0.059,-0.059,-0.057,-0.052,-0.047
-0.02,-0.046,-0.026,0.033,0.004,-0.036,0.008,-0.056,-0.06,-0.071,-0.066,-0.051
0.014,-0.052,-0.066,0.019,0.04,-0.058,0.011,-0.053,-0.061,-0.073,-0.073,-0.048
-0.022,-0.065,-0.043,0.043,0.011,-0.054,0.014,-0.049,-0.064,-0.075,-0.073,-0.044
-0.024,-0.062,-0.038,0.043,0.007,-0.049,0.016,-0.046,-0.066,-0.075,-0.07,-0.041
-0.023,-0.056,-0.033,0.04,0.005,-0.044,0.02,-0.042,-0.064,-0.075,-0.07,-0.036
-0.027,-0.053,-0.026,0.04,0.0,-0.039,0.026,-0.04,-0.06,-0.075,-0.066,-0.036
-0.024,-0.047,-0.023,0.036,-0.001,-0.035,0.032,-0.04,-0.061,-0.075,-0.065,-0.049
-0.03,-0.044,-0.014,0.037,-0.008,-0.029,0.033,-0.04,-0.058,-0.077,-0.065,-0.05
0.001,-0.039,-0.04,0.019,0.021,-0.039,0.027,-0.04,-0.055,-0.08,-0.06,-0.044
-0.006,-0.034,-0.028,0.02,0.011,-0.031,0.023,-0.04,-0.055,-0.083,-0.06,-0.042
-0.018,-0.03,-0.011,0.024,-0.003,-0.02,0.018,-0.046,-0.059,-0.085,-0.06,-0.037
0.017,-0.025,-0.042,0.004,0.03,-0.034,0.014,-0.053,-0.071,-0.089,-0.06,-0.035
0.026,-0.02,-0.046,-0.003,0.036,-0.033,0.01,-0.063,-0.075,-0.09,-0.06,-0.042
0.018,-0.026,-0.044,0.004,0.031,-0.034,0.004,-0.069,-0.075,-0.094,-0.06,-0.05
0.013,-0.032,-0.045,0.01,0.029,-0.038,-0.001,-0.073,-0.075,-0.095,-0.06,-0.05
0.011,-0.028,-0.038,0.009,0.024,-0.033,-0.006,-0.076,-0.074,-0.095,-0.06,-0.05
-0.002,-0.038,-0.036,0.02,0.018,-0.037,-0.012,-0.083,-0.08,-0.095,-0.072,-0.05
-0.012,-0.046,-0.034,0.03,0.012,-0.04,-0.019,-0.099,-0.086,-0.095,-0.076,-0.049
-0.009,-0.044,-0.035,0.027,0.014,-0.04,-0.017,-0.101,-0.084,-0.093,-0.074,-0.053
-0.01,-0.045,-0.035,0.028,0.013,-0.04,-0.015,-0.099,-0.089,-0.09,-0.072,-0.055
-0.01,-0.045,-0.035,0.028,0.013,-0.04,-0.015,-0.101,-0.095,-0.09,-0.07,-0.055
-0.009,-0.045,-0.036,0.028,0.014,-0.04,-0.011,-0.099,-0.095,-0.09,-0.069,-0.055
-0.012,-0.045,-0.033,0.029,0.011,-0.039,-0.01,-0.102,-0.095,-0.09,-0.078,-0.055
-0.015,-0.045,-0.03,0.03,0.008,-0.037,-0.01,-0.105,-0.095,-0.09,-0.086,-0.055
-0.015,-0.045,-0.03,0.03,0.008,-0.037,-0.011,-0.105,-0.094,-0.094,-0.08,-0.055
-0.017,-0.045,-0.028,0.031,0.006,-0.036,-0.009,-0.105,-0.098,-0.095,-0.078,-0.055
-0.021,-0.045,-0.024,0.034,0.002,-0.035,-0.017,-0.109,-0.107,-0.097,-0.074,-0.055
-0.018,-0.044,-0.025,0.031,0.004,-0.034,-0.026,-0.11,-0.106,-0.101,-0.069,-0.055
-0.013,-0.04,-0.027,0.027,0.007,-0.033,-0.025,-0.112,-0.105,-0.099,-0.078,-0.055
-0.015,-0.04,-0.025,0.028,0.005,-0.032,-0.024,-0.116,-0.104,-0.1,-0.086,-0.055
-0.015,-0.04,-0.026,0.028,0.006,-0.033,-0.02,-0.113,-0.1,-0.1,-0.085,-0.055
-0.017,-0.039,-0.022,0.029,0.002,-0.03,-0.02,-0.11,-0.1,-0.1,-0.085,-0.055
-0.021,-0.041,-0.02,0.031,0.0,-0.031,-0.018,-0.107,-0.102,-0.105,-0.085,-0.055
-0.019,-0.039,-0.019,0.029,0.0,-0.029,-0.014,-0.105,-0.105,-0.106,-0.085,-0.055
-0.019,-0.044,-0.024,0.032,0.003,-0.034,-0.015,-0.102,-0.105,-0.105,-0.081,-0.055
-0.011,-0.051,-0.04,0.031,0.014,-0.046,-0.011,-0.099,-0.105,-0.103,-0.08,-0.055
-0.012,-0.05,-0.037,0.031,0.013,-0.043,-0.009,-0.104,-0.105,-0.099,-0.08,-0.055
-0.015,-0.05,-0.035,0.033,0.01,-0.042,-0.011,-0.105,-0.105,-0.1,-0.08,-0.055
-0.016,-0.045,-0.029,0.03,0.007,-0.036,-0.014,-0.107,-0.105,-0.103,-0.08,-0.055
-0.017,-0.046,-0.029,0.032,0.007,-0.038,-0.017,-0.111,-0.105,-0.106,-0.081,-0.054
-0.024,-0.042,-0.018,0.033,-0.002,-0.03,-0.02,-0.108,-0.105,-0.109,-0.085,-0.058
-0.016,-0.043,-0.027,0.03,0.006,-0.035,-0.02,-0.106,-0.105,-0.11,-0.085,-0.06
0.005,-0.06,-0.065,0.028,0.035,-0.063,-0.02,-0.102,-0.105,-0.11,-0.087,-0.06
-0.002,-0.06,-0.058,0.031,0.028,-0.059,-0.02,-0.1,-0.105,-0.11,-0.09,-0.06
-0.008,-0.059,-0.051,0.034,0.022,-0.055,-0.02,-0.096,-0.105,-0.11,-0.09,-0.06
-0.011,-0.061,-0.05,0.036,0.02,-0.055,-0.019,-0.094,-0.105,-0.11,-0.086,-0.06
-0.016,-0.06,-0.044,0.038,0.014,-0.051,-0.022,-0.101,-0.105,-0.11,-0.085,-0.055
-0.015,-0.058,-0.043,0.037,0.014,-0.05,-0.035,-0.101,-0.105,-0.106,-0.085,-0.055
-0.018,-0.054,-0.036,0.036,0.01,-0.045,-0.035,-0.099,-0.105,-0.104,-0.08,-0.054
-0.017,-0.052,-0.035,0.035,0.009,-0.043,-0.031,-0.1,-0.105,-0.105,-0.08,-0.05
-0.013,-0.049,-0.035,0.031,0.011,-0.042,-0.028,-0.1,-0.105,-0.104,-0.079,-0.05
-0.012,-0.046,-0.034,0.03,0.011,-0.04,-0.025,-0.1,-0.105,-0.105,-0.075,-0.053
-0.003,-0.044,-0.041,0.024,0.02,-0.043,-0.024,-0.1,-0.105,-0.103,-0.075,-0.055
0.006,-0.04,-0.046,0.018,0.026,-0.043,-0.02,-0.1,-0.105,-0.1,-0.075,-0.055
0.003,-0.037,-0.039,0.017,0.021,-0.038,-0.02,-0.1,-0.107,-0.1,-0.075,-0.055
0.003,-0.033,-0.036,0.015,0.02,-0.034,-0.018,-0.1,-0.11,-0.097,-0.075,-0.055
0.0,-0.03,-0.03,0.015,0.015,-0.03,-0.014,-0.1,-0.11,-0.095,-0.079,-0.054
0.004,-0.024,-0.028,0.011,0.016,-0.026,-0.015,-0.099,-0.11,-0.095,-0.08,-0.051
-0.011,-0.027,-0.016,0.02,0.003,-0.022,-0.027,-0.096,-0.11,-0.099,-0.08,-0.05
-0.022,-0.044,-0.023,0.033,0.001,-0.033,-0.031,-0.091,-0.11,-0.1,-0.085,-0.05
-0.001,-0.044,-0.043,0.023,0.021,-0.043,-0.029,-0.089,-0.11,-0.1,-0.085,-0.05
0.001,-0.038,-0.039,0.018,0.02,-0.039,-0.027,-0.084,-0.11,-0.104,-0.085,-0.05
0.003,-0.037,-0.04,0.017,0.022,-0.038,-0.024,-0.08,-0.11,-0.106,-0.085,-0.053
0.007,-0.029,-0.037,0.011,0.022,-0.033,-0.025,-0.082,-0.11,-0.103,-0.085,-0.055
0.0,-0.034,-0.034,0.017,0.017,-0.033,-0.025,-0.088,-0.111,-0.1,-0.085,-0.055
-0.004,-0.041,-0.037,0.023,0.016,-0.039,-0.025,-0.094,-0.107,-0.097,-0.085,-0.059
-0.005,-0.04,-0.035,0.023,0.015,-0.037,-0.025,-0.1,-0.105,-0.095,-0.085,-0.061
-0.004,-0.04,-0.036,0.022,0.016,-0.037,-0.025,-0.1,-0.105,-0.092,-0.081,-0.059
-0.002,-0.035,-0.034,0.019,0.016,-0.034,-0.025,-0.1,-0.102,-0.089,-0.08,-0.055
-0.004,-0.035,-0.031,0.019,0.014,-0.033,-0.022,-0.101,-0.099,-0.098,-0.08,-0.055
-0.005,-0.034,-0.029,0.02,0.012,-0.031,-0.02,-0.098,-0.1,-0.102,-0.08,-0.054
0.005,-0.026,-0.03,0.01,0.018,-0.028,-0.02,-0.109,-0.1,-0.096,-0.08,-0.049
0.025,-0.018,-0.044,-0.003,0.035,-0.031,-0.021,-0.107,-0.099,-0.093,-0.079,-0.051
0.027,-0.009,-0.036,-0.008,0.032,-0.023,-0.019,-0.091,-0.107,-0.087,-0.073,-0.048
0.017,-0.003,-0.02,-0.007,0.019,-0.012,-0.021,-0.073,-0.098,-0.086,-0.067,-0.041
0.021,0.005,-0.016,-0.013,0.018,-0.005,0.003,-0.049,-0.088,-0.091,-0.06,-0.034
0.017,0.014,-0.003,-0.015,0.01,0.005,0.023,-0.049,-0.091,-0.089,-0.045,-0.027
0.029,0.022,-0.006,-0.025,0.017,0.008,-0.031,-0.055,-0.095,-0.093,-0.039,-0.021
0.057,0.029,-0.028,-0.043,0.042,0.001,-0.069,-0.061,-0.097,-0.095,-0.037,-0.014
0.041,-0.006,-0.046,-0.017,0.044,-0.026,-0.062,-0.084,-0.104,-0.095,-0.054,-0.028
0.011,-0.034,-0.045,0.012,0.029,-0.04,-0.068,-0.091,-0.122,-0.099,-0.067,-0.04
0.011,-0.036,-0.047,0.013,0.029,-0.041,-0.062,-0.095,-0.117,-0.099,-0.064,-0.041
0.025,-0.04,-0.066,0.008,0.046,-0.053,-0.072,-0.126,-0.129,-0.102,-0.066,-0.045
0.023,-0.042,-0.065,0.01,0.045,-0.054,-0.068,-0.121,-0.127,-0.097,-0.064,-0.046
0.004,-0.051,-0.056,0.024,0.03,-0.053,-0.042,-0.129,-0.133,-0.116,-0.081,-0.059
-0.01,-0.058,-0.048,0.034,0.019,-0.053,-0.041,-0.123,-0.13,-0.111,-0.076,-0.058
-0.015,-0.057,-0.042,0.036,0.014,-0.049,-0.038,-0.125,-0.138,-0.118,-0.085,-0.063
0.0,-0.043,-0.044,0.022,0.022,-0.043,-0.039,-0.13,-0.135,-0.113,-0.075,-0.06
-0.004,-0.05,-0.046,0.028,0.022,-0.048,-0.031,-0.115,-0.121,-0.113,-0.083,-0.069
0.016,-0.028,-0.044,0.006,0.031,-0.036,-0.04,-0.142,-0.144,-0.122,-0.081,-0.063
0.005,-0.048,-0.053,0.022,0.029,-0.05,-0.02,-0.1,-0.096,-0.089,-0.065,-0.056
0.018,-0.03,-0.048,0.006,0.033,-0.038,0.008,-0.114,-0.152,-0.132,-0.098,-0.069
0.028,-0.02,-0.048,-0.004,0.038,-0.034,0.151,0.361,0.118,-0.027,-0.069,-0.089
0.135,0.154,0.019,-0.144,0.058,0.086,0.129,0.179,0.46,0.425,0.321,0.197
0.425,0.658,0.233,-0.542,0.096,0.445,-0.502,-1.32,0.659,1.308,1.355,1.017
0.214,0.502,0.288,-0.358,-0.037,0.395,-0.855,-1.835,0.173,0.923,1.141,0.935
-0.103,-0.008,0.095,0.055,-0.099,0.043,-0.607,-1.335,-0.832,-0.418,-0.106,0.08
-0.031,-0.105,-0.074,0.068,0.021,-0.089,-0.309,-0.656,-0.54,-0.37,-0.203,-0.096
0.001,-0.084,-0.085,0.042,0.043,-0.084,-0.097,-0.171,-0.131,-0.113,-0.065,-0.046
0.008,-0.024,-0.032,0.008,0.021,-0.028,-0.034,-0.062,-0.135,-0.122,-0.071,-0.04
0.01,-0.015,-0.025,0.003,0.017,-0.02,-0.009,0.019,-0.034,-0.049,-0.033,-0.029
0.018,-0.011,-0.029,-0.003,0.023,-0.02,0.004,0.037,-0.071,-0.088,-0.06,-0.041
0.018,-0.008,-0.025,-0.004,0.021,-0.016,0.015,0.065,-0.024,-0.05,-0.03,-0.029
0.008,-0.012,-0.019,0.002,0.014,-0.015,0.036,0.075,-0.036,-0.067,-0.045,-0.04
0.011,-0.002,-0.013,-0.004,0.013,-0.008,0.032,0.091,-0.021,-0.048,-0.027,-0.03
-0.007,-0.008,-0.001,0.007,-0.003,-0.004,0.039,0.116,-0.015,-0.048,-0.029,-0.029
-0.002,-0.001,0.0,0.002,-0.001,0.0,0.053,0.127,-0.007,-0.043,-0.021,-0.022
0.008,0.001,-0.007,-0.004,0.008,-0.003,0.056,0.153,0.021,-0.033,-0.015,-0.019
0.015,0.005,-0.01,-0.01,0.012,-0.002,0.055,0.184,0.033,-0.033,-0.012,-0.014
0.024,0.009,-0.016,-0.016,0.02,-0.003,0.054,0.213,0.046,-0.021,-0.004,-0.009
0.031,0.012,-0.019,-0.022,0.025,-0.003,0.073,0.237,0.065,-0.014,0.001,-0.005
0.04,0.016,-0.024,-0.028,0.032,-0.004,0.081,0.266,0.081,-0.001,0.013,0.003
0.044,0.019,-0.025,-0.031,0.035,-0.003,0.081,0.297,0.092,0.008,0.018,0.009
0.053,0.023,-0.03,-0.038,0.041,-0.003,0.102,0.338,0.126,0.028,0.029,0.016
0.069,0.038,-0.031,-0.054,0.05,0.004,0.112,0.393,0.149,0.045,0.039,0.022
0.095,0.059,-0.035,-0.076,0.065,0.012,0.118,0.455,0.187,0.067,0.058,0.029
0.087,0.052,-0.035,-0.069,0.06,0.008,0.131,0.523,0.223,0.087,0.082,0.043
0.066,0.051,-0.016,-0.058,0.041,0.017,0.151,0.61,0.267,0.115,0.098,0.052
0.11,0.074,-0.036,-0.092,0.073,0.019,0.173,0.709,0.333,0.159,0.125,0.073
0.132,0.083,-0.05,-0.107,0.091,0.016,0.198,0.809,0.381,0.193,0.153,0.098
0.134,0.101,-0.032,-0.117,0.083,0.034,0.221,0.901,0.445,0.229,0.187,0.115
0.143,0.117,-0.026,-0.13,0.084,0.045,0.236,0.987,0.51,0.278,0.23,0.152
0.162,0.147,-0.014,-0.154,0.088,0.066,0.236,1.035,0.559,0.33,0.273,0.189
0.19,0.185,-0.005,-0.187,0.097,0.09,0.236,1.028,0.599,0.371,0.32,0.218
0.195,0.2,0.004,-0.198,0.095,0.102,0.228,0.982,0.598,0.408,0.363,0.259
0.192,0.216,0.024,-0.204,0.084,0.119,0.192,0.881,0.58,0.42,0.398,0.294
0.182,0.211,0.029,-0.196,0.076,0.12,0.148,0.742,0.564,0.422,0.418,0.3
0.187,0.204,0.017,-0.196,0.085,0.11,0.099,0.602,0.519,0.417,0.414,0.291
0.18,0.185,0.005,-0.183,0.087,0.095,0.055,0.467,0.448,0.371,0.383,0.277
0.151,0.146,-0.005,-0.149,0.078,0.07,0.016,0.342,0.359,0.301,0.314,0.231
0.114,0.103,-0.011,-0.108,0.062,0.046,-0.002,0.222,0.249,0.204,0.22,0.154
0.076,0.062,-0.014,-0.069,0.045,0.024,0.001,0.125,0.146,0.115,0.137,0.079
0.055,0.038,-0.018,-0.046,0.036,0.01,-0.001,0.063,0.077,0.053,0.068,0.026
0.021,-0.001,-0.022,-0.01,0.021,-0.011,0.003,0.019,0.027,-0.002,0.013,-0.012
-0.005,-0.03,-0.025,0.018,0.01,-0.027,0.004,-0.006,-0.023,-0.036,-0.021,-0.036
-0.001,-0.029,-0.029,0.015,0.014,-0.029,0.007,-0.016,-0.045,-0.051,-0.036,-0.054
-0.001,-0.031,-0.03,0.016,0.015,-0.031,0.01,-0.028,-0.047,-0.064,-0.049,-0.07
-0.004,-0.034,-0.03,0.019,0.013,-0.032,0.011,-0.03,-0.056,-0.073,-0.061,-0.07
-0.006,-0.035,-0.03,0.021,0.013,-0.032,0.024,-0.025,-0.065,-0.078,-0.061,-0.07
-0.003,-0.034,-0.03,0.019,0.014,-0.032,0.024,-0.025,-0.07,-0.083,-0.06,-0.07
0.001,-0.028,-0.029,0.013,0.015,-0.028,0.019,-0.025,-0.072,-0.085,-0.06,-0.07
0.002,-0.023,-0.025,0.011,0.014,-0.023,0.017,-0.026,-0.075,-0.085,-0.06,-0.068
0.008,-0.017,-0.025,0.005,0.017,-0.021,0.012,-0.025,-0.079,-0.085,-0.06,-0.064
0.011,-0.011,-0.023,0.0,0.017,-0.017,0.009,-0.028,-0.08,-0.085,-0.061,-0.066
0.013,-0.006,-0.02,-0.004,0.017,-0.012,0.006,-0.031,-0.084,-0.085,-0.065,-0.065
0.012,-0.008,-0.02,-0.002,0.016,-0.014,0.003,-0.03,-0.085,-0.085,-0.068,-0.065
0.0,-0.017,-0.017,0.009,0.009,-0.016,0.0,-0.036,-0.085,-0.089,-0.072,-0.065
-0.008,-0.02,-0.012,0.014,0.002,-0.016,-0.002,-0.034,-0.085,-0.091,-0.075,-0.061
-0.01,-0.02,-0.01,0.015,0.0,-0.015,-0.006,-0.045,-0.085,-0.09,-0.075,-0.06
-0.015,-0.02,-0.005,0.018,-0.005,-0.012,-0.002,-0.057,-0.087,-0.09,-0.075,-0.06
-0.019,-0.02,-0.001,0.019,-0.009,-0.011,0.0,-0.054,-0.09,-0.09,-0.075,-0.06
-0.019,-0.02,-0.001,0.02,-0.009,-0.01,0.0,-0.069,-0.093,-0.091,-0.075,-0.06
-0.005,-0.02,-0.015,0.013,0.005,-0.017,0.004,-0.078,-0.094,-0.097,-0.075,-0.062
-0.002,-0.024,-0.022,0.013,0.01,-0.023,0.006,-0.07,-0.102,-0.104,-0.076,-0.066
-0.036,-0.025,0.011,0.03,-0.023,-0.007,0.004,-0.08,-0.107,-0.105,-0.08,-0.069
-0.045,-0.025,0.019,0.035,-0.031,-0.003,0.001,-0.097,-0.104,-0.105,-0.08,-0.07
-0.039,-0.03,0.01,0.034,-0.024,-0.01,0.0,-0.095,-0.105,-0.105,-0.08,-0.07
-0.037,-0.03,0.007,0.034,-0.022,-0.011,0.0,-0.095,-0.105,-0.105,-0.08,-0.07
-0.028,-0.03,-0.002,0.029,-0.013,-0.016,0.0,-0.095,-0.104,-0.105,-0.08,-0.07
-0.027,-0.03,-0.003,0.029,-0.012,-0.016,0.0,-0.095,-0.107,-0.106,-0.084,-0.072
-0.015,-0.03,-0.015,0.023,0.0,-0.022,-0.002,-0.099,-0.11,-0.11,-0.085,-0.075
-0.03,-0.03,0.0,0.03,-0.015,-0.015,-0.008,-0.101,-0.11,-0.11,-0.085,-0.078
-0.033,-0.03,0.003,0.031,-0.018,-0.013,-0.011,-0.104,-0.109,-0.11,-0.089,-0.081
-0.005,-0.03,-0.025,0.018,0.01,-0.027,-0.017,-0.106,-0.111,-0.11,-0.091,-0.085
-0.008,-0.034,-0.026,0.021,0.009,-0.03,-0.02,-0.11,-0.119,-0.11,-0.088,-0.085
-0.015,-0.035,-0.02,0.025,0.003,-0.028,-0.015,-0.113,-0.12,-0.114,-0.085,-0.081
-0.014,-0.035,-0.021,0.024,0.004,-0.027,-0.011,-0.117,-0.12,-0.115,-0.085,-0.078
-0.021,-0.035,-0.015,0.028,-0.003,-0.025,-0.009,-0.12,-0.12,-0.115,-0.083,-0.075
-0.021,-0.035,-0.014,0.028,-0.003,-0.025,-0.005,-0.116,-0.12,-0.115,-0.079,-0.072
-0.02,-0.035,-0.015,0.028,-0.002,-0.025,0.0,-0.111,-0.119,-0.115,-0.08,-0.069
-0.033,-0.035,-0.002,0.034,-0.015,-0.018,-0.002,-0.106,-0.115,-0.115,-0.08,-0.072
-0.021,-0.035,-0.014,0.028,-0.003,-0.024,-0.01,-0.102,-0.115,-0.115,-0.08,-0.077
-0.012,-0.035,-0.023,0.024,0.006,-0.028,-0.015,-0.098,-0.115,-0.115,-0.08,-0.08
-0.017,-0.035,-0.018,0.026,0.001,-0.026,-0.023,-0.093,-0.115,-0.115,-0.08,-0.085
-0.014,-0.035,-0.021,0.024,0.004,-0.028,-0.028,-0.091,-0.114,-0.115,-0.08,-0.085
-0.013,-0.031,-0.019,0.022,0.003,-0.025,-0.026,-0.088,-0.12,-0.115,-0.081,-0.085
-0.008,-0.03,-0.021,0.019,0.007,-0.026,-0.023,-0.101,-0.128,-0.115,-0.085,-0.085
-0.024,-0.03,-0.007,0.027,-0.008,-0.018,-0.02,-0.112,-0.125,-0.115,-0.085,-0.085
-0.033,-0.03,0.003,0.031,-0.018,-0.013,-0.017,-0.109,-0.125,-0.115,-0.087,-0.085
-0.023,-0.03,-0.007,0.027,-0.008,-0.018,-0.015,-0.108,-0.125,-0.115,-0.09,-0.085
-0.023,-0.03,-0.007,0.027,-0.008,-0.018,-0.017,-0.104,-0.125,-0.115,-0.09,-0.085
-0.038,-0.03,0.008,0.034,-0.023,-0.01,-0.023,-0.105,-0.125,-0.113,-0.087,-0.085
-0.048,-0.03,0.018,0.039,-0.033,-0.006,-0.026,-0.108,-0.121,-0.11,-0.084,-0.085
-0.039,-0.03,0.009,0.034,-0.024,-0.01,-0.032,-0.112,-0.12,-0.11,-0.085,-0.084
-0.031,-0.03,0.001,0.03,-0.016,-0.014,-0.035,-0.116,-0.12,-0.11,-0.085,-0.081
-0.013,-0.03,-0.017,0.022,0.002,-0.023,-0.03,-0.112,-0.115,-0.11,-0.085,-0.078
-0.003,-0.03,-0.027,0.017,0.012,-0.028,-0.025,-0.109,-0.115,-0.11,-0.085,-0.075
-0.006,-0.03,-0.024,0.019,0.009,-0.027,-0.02,-0.105,-0.114,-0.113,-0.085,-0.072
-0.004,-0.03,-0.026,0.017,0.011,-0.027,-0.017,-0.101,-0.11,-0.116,-0.085,-0.07
-0.006,-0.03,-0.024,0.019,0.009,-0.027,-0.011,-0.098,-0.107,-0.119,-0.085,-0.07
-0.004,-0.03,-0.026,0.017,0.011,-0.027,-0.012,-0.095,-0.105,-0.122,-0.085,-0.07
-0.009,-0.031,-0.022,0.02,0.007,-0.027,-0.023,-0.095,-0.101,-0.125,-0.085,-0.07
-0.016,-0.035,-0.019,0.025,0.002,-0.027,-0.025,-0.095,-0.1,-0.124,-0.085,-0.07
-0.014,-0.035,-0.021,0.025,0.004,-0.027,-0.025,-0.095,-0.103,-0.12,-0.085,-0.07
-0.019,-0.035,-0.016,0.027,-0.001,-0.025,-0.025,-0.095,-0.108,-0.118,-0.085,-0.07
-0.02,-0.035,-0.015,0.028,-0.002,-0.025,-0.025,-0.098,-0.11,-0.115,-0.085,-0.07
-0.021,-0.035,-0.014,0.028,-0.003,-0.025,-0.025,-0.101,-0.11,-0.112,-0.085,-0.07
-0.024,-0.035,-0.011,0.03,-0.006,-0.023,-0.023,-0.104,-0.11,-0.109,-0.085,-0.07
-0.027,-0.035,-0.008,0.031,-0.009,-0.021,-0.018,-0.107,-0.11,-0.114,-0.085,-0.07
-0.03,-0.035,-0.005,0.033,-0.012,-0.02,-0.015,-0.11,-0.11,-0.115,-0.085,-0.069
-0.032,-0.035,-0.002,0.034,-0.014,-0.018,-0.012,-0.109,-0.11,-0.115,-0.085,-0.073
-0.036,-0.035,0.001,0.036,-0.018,-0.017,-0.007,-0.105,-0.113,-0.119,-0.085,-0.075
-0.031,-0.034,-0.003,0.032,-0.013,-0.018,-0.005,-0.102,-0.115,-0.12,-0.085,-0.075
-0.022,-0.029,-0.008,0.026,-0.007,-0.018,-0.011,-0.1,-0.115,-0.118,-0.081,-0.079
-0.027,-0.026,0.001,0.026,-0.013,-0.012,-0.018,-0.096,-0.115,-0.115,-0.079,-0.081
-0.032,-0.023,0.01,0.027,-0.021,-0.006,-0.02,-0.095,-0.115,-0.115,-0.08,-0.079
-0.009,-0.019,-0.01,0.014,0.001,-0.014,-0.02,-0.091,-0.114,-0.115,-0.08,-0.076
0.018,-0.014,-0.031,-0.002,0.025,-0.022,-0.019,-0.089,-0.109,-0.114,-0.08,-0.071
0.0,-0.023,-0.024,0.012,0.012,-0.023,-0.021,-0.09,-0.103,-0.116,-0.079,-0.069
-0.02,-0.031,-0.01,0.026,-0.005,-0.02,-0.019,-0.085,-0.1,-0.111,-0.075,-0.064
-0.016,-0.022,-0.006,0.019,-0.005,-0.014,-0.021,-0.086,-0.095,-0.104,-0.075,-0.061
-0.028,-0.013,0.015,0.02,-0.021,0.001,-0.012,-0.083,-0.091,-0.097,-0.07,-0.057
-0.009,-0.001,0.008,0.005,-0.009,0.003,-0.006,-0.073,-0.082,-0.091,-0.071,-0.052
0.025,0.031,0.006,-0.028,0.009,0.018,0.007,-0.046,-0.064,-0.084,-0.06,-0.047
0.017,0.052,0.035,-0.034,-0.009,0.043,0.035,-0.007,-0.058,-0.076,-0.037,-0.04
0.053,0.044,-0.009,-0.048,0.031,0.017,-0.01,-0.013,-0.062,-0.074,-0.037,-0.036
0.068,0.038,-0.03,-0.053,0.049,0.003,-0.046,-0.036,-0.057,-0.062,-0.031,-0.028
0.029,0.017,-0.011,-0.023,0.02,0.003,-0.035,-0.072,-0.08,-0.085,-0.054,-0.039
0.03,0.0,-0.03,-0.015,0.03,-0.014,-0.037,-0.099,-0.102,-0.113,-0.081,-0.05
0.028,-0.01,-0.038,-0.009,0.033,-0.024,-0.03,-0.098,-0.096,-0.108,-0.079,-0.051
0.033,-0.016,-0.049,-0.009,0.041,-0.032,-0.029,-0.119,-0.112,-0.112,-0.084,-0.049
0.026,-0.028,-0.054,0.002,0.04,-0.041,-0.023,-0.109,-0.105,-0.107,-0.084,-0.055
0.002,-0.036,-0.039,0.017,0.021,-0.037,-0.026,-0.122,-0.117,-0.117,-0.09,-0.072
-0.004,-0.035,-0.031,0.02,0.014,-0.033,-0.025,-0.109,-0.108,-0.111,-0.091,-0.074
-0.017,-0.036,-0.019,0.027,0.002,-0.028,-0.023,-0.119,-0.121,-0.121,-0.098,-0.078
-0.026,-0.031,-0.005,0.029,-0.01,-0.018,-0.028,-0.115,-0.111,-0.109,-0.082,-0.071
-0.064,-0.056,0.008,0.06,-0.036,-0.024,-0.02,-0.105,-0.108,-0.119,-0.097,-0.081
-0.062,-0.049,0.013,0.055,-0.037,-0.018,-0.03,-0.123,-0.121,-0.114,-0.078,-0.069
-0.062,-0.06,0.002,0.061,-0.032,-0.029,-0.004,-0.077,-0.085,-0.108,-0.088,-0.082
-0.04,-0.04,0.0,0.04,-0.02,-0.02,0.021,-0.067,-0.124,-0.138,-0.116,-0.091
-0.01,-0.038,-0.028,0.024,0.009,-0.033,0.205,0.505,0.239,0.029,-0.062,-0.093
0.186,0.243,0.057,-0.215,0.064,0.15,0.078,0.09,0.561,0.585,0.491,0.322
0.4,0.692,0.292,-0.546,0.053,0.492,-0.551,-1.47,0.583,1.346,1.451,1.1
0.078,0.403,0.325,-0.241,-0.124,0.364,-0.71,-1.749,-0.104,0.587,0.84,0.746
-0.142,-0.037,0.105,0.089,-0.123,0.034,-0.502,-1.208,-0.87,-0.563,-0.247,-0.052
-0.048,-0.116,-0.067,0.082,0.01,-0.092,-0.264,-0.564,-0.424,-0.311,-0.169,-0.116
-0.02,-0.077,-0.057,0.049,0.019,-0.067,-0.073,-0.15,-0.138,-0.159,-0.113,-0.08
0.004,-0.014,-0.018,0.005,0.012,-0.015,-0.028,-0.044,-0.094,-0.131,-0.089,-0.064
-0.015,-0.029,-0.014,0.022,0.0,-0.021,0.018,0.034,-0.009,-0.067,-0.063,-0.061
-0.026,-0.013,0.013,0.019,-0.019,0.0,0.028,0.049,-0.045,-0.094,-0.072,-0.063
-0.03,-0.011,0.019,0.021,-0.024,0.003,0.04,0.082,0.004,-0.055,-0.046,-0.052
0.002,0.013,0.01,-0.008,-0.004,0.011,0.041,0.081,-0.014,-0.074,-0.061,-0.059
0.025,0.03,0.005,-0.027,0.009,0.017,0.038,0.101,0.013,-0.048,-0.04,-0.048
0.021,0.018,-0.003,-0.02,0.012,0.007,0.043,0.119,0.019,-0.054,-0.047,-0.049
0.029,0.021,-0.009,-0.025,0.019,0.006,0.036,0.138,0.04,-0.041,-0.036,-0.04
0.02,0.013,-0.007,-0.016,0.013,0.003,0.052,0.153,0.058,-0.035,-0.034,-0.038
0.019,0.011,-0.008,-0.015,0.013,0.002,0.066,0.167,0.061,-0.026,-0.026,-0.032
0.025,0.013,-0.012,-0.019,0.018,0.0,0.064,0.193,0.078,-0.014,-0.018,-0.028
0.048,0.033,-0.015,-0.04,0.031,0.009,0.066,0.219,0.09,-0.006,-0.014,-0.025
0.059,0.041,-0.018,-0.05,0.039,0.011,0.064,0.249,0.113,0.009,-0.002,-0.018
0.062,0.04,-0.022,-0.051,0.042,0.009,0.072,0.279,0.133,0.017,0.009,-0.017
0.065,0.04,-0.025,-0.052,0.045,0.007,0.081,0.33,0.16,0.045,0.023,-0.007
0.07,0.04,-0.03,-0.055,0.05,0.005,0.083,0.381,0.196,0.065,0.033,0.005
0.081,0.039,-0.042,-0.06,0.061,-0.001,0.103,0.434,0.23,0.084,0.048,0.021
0.084,0.044,-0.041,-0.064,0.062,0.001,0.11,0.509,0.272,0.108,0.065,0.028
0.094,0.062,-0.032,-0.078,0.063,0.015,0.121,0.598,0.332,0.139,0.093,0.044
0.095,0.069,-0.026,-0.082,0.061,0.021,0.141,0.691,0.387,0.179,0.134,0.081
0.11,0.09,-0.02,-0.1,0.064,0.035,0.156,0.784,0.446,0.217,0.163,0.096
0.126,0.105,-0.02,-0.116,0.073,0.042,0.178,0.888,0.523,0.272,0.202,0.126
0.149,0.133,-0.016,-0.141,0.083,0.058,0.19,0.969,0.586,0.324,0.246,0.165
0.177,0.162,-0.015,-0.169,0.096,0.073,0.194,1.014,0.637,0.371,0.294,0.203
0.196,0.183,-0.013,-0.19,0.104,0.085,0.182,1.014,0.674,0.426,0.35,0.245
0.216,0.214,-0.002,-0.215,0.108,0.106,0.172,0.966,0.668,0.465,0.396,0.283
0.211,0.217,0.006,-0.215,0.102,0.112,0.144,0.868,0.653,0.467,0.433,0.318
0.205,0.227,0.022,-0.216,0.091,0.124,0.091,0.729,0.629,0.463,0.429,0.32
0.183,0.214,0.031,-0.199,0.075,0.123,0.053,0.595,0.57,0.456,0.417,0.321
0.15,0.175,0.024,-0.163,0.063,0.099,0.03,0.455,0.488,0.402,0.388,0.285
0.113,0.135,0.022,-0.124,0.045,0.079,0.022,0.33,0.381,0.308,0.3,0.211
0.08,0.097,0.017,-0.089,0.032,0.057,0.016,0.222,0.265,0.206,0.193,0.135
0.051,0.06,0.009,-0.056,0.02,0.035,0.008,0.139,0.161,0.116,0.1,0.059
0.022,0.023,0.001,-0.023,0.01,0.012,0.001,0.088,0.088,0.045,0.042,0.011
0.019,0.002,-0.016,-0.01,0.017,-0.007,-0.004,0.038,0.037,-0.002,-0.006,-0.031
0.006,-0.015,-0.022,0.005,0.014,-0.018,0.001,0.007,0.009,-0.034,-0.05,-0.062
-0.012,-0.028,-0.016,0.021,0.002,-0.022,0.004,0.004,0.0,-0.054,-0.066,-0.072
-0.022,-0.036,-0.014,0.029,-0.004,-0.024,0.007,0.005,-0.013,-0.061,-0.066,-0.078
-0.03,-0.04,-0.01,0.035,-0.01,-0.025,0.012,0.005,-0.023,-0.067,-0.075,-0.088
-0.037,-0.04,-0.004,0.039,-0.016,-0.022,0.014,0.005,-0.032,-0.067,-0.085,-0.093
-0.023,-0.039,-0.016,0.031,-0.003,-0.027,0.02,0.005,-0.036,-0.064,-0.085,-0.089
-0.01,-0.035,-0.025,0.023,0.008,-0.03,0.025,0.005,-0.035,-0.066,-0.085,-0.09
-0.021,-0.035,-0.015,0.028,-0.002,-0.025,0.025,0.005,-0.036,-0.064,-0.085,-0.09
-0.023,-0.033,-0.01,0.028,-0.006,-0.021,0.029,0.005,-0.035,-0.067,-0.085,-0.09
-0.027,-0.029,-0.002,0.029,-0.012,-0.016,0.03,0.005,-0.036,-0.078,-0.085,-0.09
-0.035,-0.03,0.004,0.032,-0.019,-0.013,0.03,0.005,-0.039,-0.081,-0.085,-0.085
-0.031,-0.03,0.002,0.03,-0.016,-0.014,0.03,0.003,-0.043,-0.08,-0.085,-0.085
-0.03,-0.03,0.0,0.03,-0.015,-0.015,0.03,-0.003,-0.046,-0.08,-0.085,-0.084
-0.03,-0.03,0.0,0.03,-0.015,-0.015,0.03,-0.008,-0.049,-0.08,-0.085,-0.08
-0.025,-0.03,-0.005,0.028,-0.01,-0.017,0.025,-0.011,-0.053,-0.08,-0.085,-0.08
-0.026,-0.03,-0.005,0.028,-0.011,-0.017,0.025,-0.017,-0.056,-0.08,-0.088,-0.082
-0.023,-0.03,-0.007,0.027,-0.008,-0.018,0.024,-0.02,-0.059,-0.083,-0.09,-0.085
-0.011,-0.03,-0.019,0.021,0.004,-0.025,0.02,-0.027,-0.063,-0.086,-0.093,-0.088
-0.016,-0.029,-0.014,0.023,-0.001,-0.021,0.02,-0.038,-0.066,-0.089,-0.096,-0.091
-0.033,-0.033,0.001,0.033,-0.017,-0.016,0.023,-0.04,-0.069,-0.092,-0.099,-0.095
-0.037,-0.035,0.002,0.036,-0.019,-0.016,0.025,-0.04,-0.073,-0.095,-0.1,-0.094
-0.034,-0.035,-0.001,0.035,-0.016,-0.017,0.029,-0.04,-0.076,-0.095,-0.095,-0.091
-0.036,-0.035,0.001,0.035,-0.018,-0.017,0.03,-0.04,-0.079,-0.095,-0.095,-0.088
-0.034,-0.035,-0.001,0.034,-0.016,-0.018,0.025,-0.04,-0.082,-0.094,-0.095,-0.085
-0.037,-0.035,0.002,0.036,-0.019,-0.016,0.025,-0.051,-0.086,-0.1,-0.095,-0.082
-0.025,-0.03,-0.006,0.028,-0.009,-0.018,0.024,-0.056,-0.089,-0.108,-0.095,-0.079
-0.011,-0.03,-0.019,0.021,0.004,-0.024,0.02,-0.054,-0.09,-0.105,-0.097,-0.082
-0.025,-0.03,-0.005,0.028,-0.01,-0.017,0.02,-0.059,-0.09,-0.105,-0.1,-0.085
-0.031,-0.03,0.001,0.03,-0.016,-0.015,0.02,-0.06,-0.09,-0.105,-0.1,-0.088
-0.029,-0.03,0.0,0.03,-0.015,-0.015,0.021,-0.06,-0.09,-0.105,-0.104,-0.091
-0.03,-0.03,0.0,0.03,-0.015,-0.015,0.019,-0.065,-0.09,-0.106,-0.105,-0.094
-0.045,-0.045,-0.001,0.045,-0.022,-0.023,0.021,-0.065,-0.09,-0.101,-0.105,-0.095
-0.051,-0.05,0.001,0.05,-0.026,-0.024,0.02,-0.065,-0.09,-0.101,-0.105,-0.095
-0.027,-0.041,-0.014,0.034,-0.006,-0.027,0.02,-0.065,-0.09,-0.098,-0.105,-0.095
-0.027,-0.04,-0.013,0.034,-0.007,-0.026,0.019,-0.065,-0.09,-0.106,-0.105,-0.095
-0.039,-0.033,0.006,0.036,-0.022,-0.013,0.014,-0.065,-0.09,-0.121,-0.105,-0.095
-0.035,-0.031,0.005,0.033,-0.02,-0.013,0.03,-0.065,-0.085,-0.116,-0.105,-0.095
-0.038,-0.043,-0.005,0.041,-0.016,-0.023,0.035,-0.065,-0.085,-0.113,-0.105,-0.095
-0.039,-0.046,-0.007,0.043,-0.015,-0.026,0.026,-0.065,-0.084,-0.11,-0.106,-0.095
-0.052,-0.045,0.007,0.048,-0.029,-0.019,0.023,-0.065,-0.08,-0.105,-0.104,-0.095
-0.052,-0.042,0.01,0.046,-0.031,-0.015,0.016,-0.064,-0.08,-0.105,-0.106,-0.096
-0.027,-0.04,-0.013,0.034,-0.007,-0.026,0.012,-0.06,-0.082,-0.105,-0.103,-0.088
-0.025,-0.04,-0.014,0.033,-0.005,-0.027,0.006,-0.057,-0.085,-0.105,-0.106,-0.098
-0.029,-0.035,-0.006,0.032,-0.011,-0.021,0.005,-0.053,-0.088,-0.105,-0.121,-0.11
-0.032,-0.035,-0.003,0.034,-0.014,-0.019,0.005,-0.05,-0.091,-0.105,-0.118,-0.102
-0.038,-0.033,0.004,0.035,-0.021,-0.014,0.005,-0.044,-0.094,-0.105,-0.115,-0.097
-0.039,-0.03,0.009,0.034,-0.024,-0.011,0.004,-0.052,-0.095,-0.1,-0.113,-0.095
-0.034,-0.029,0.005,0.031,-0.019,-0.012,0.01,-0.066,-0.089,-0.1,-0.11,-0.095
-0.029,-0.039,-0.01,0.034,-0.009,-0.024,0.021,-0.057,-0.084,-0.099,-0.108,-0.095
-0.029,-0.046,-0.017,0.038,-0.005,-0.031,0.014,-0.051,-0.079,-0.095,-0.104,-0.095
-0.025,-0.04,-0.015,0.033,-0.005,-0.027,0.011,-0.045,-0.073,-0.095,-0.105,-0.094
-0.03,-0.038,-0.007,0.034,-0.011,-0.023,0.007,-0.036,-0.067,-0.093,-0.101,-0.091
-0.027,-0.033,-0.006,0.031,-0.01,-0.019,0.0,-0.041,-0.068,-0.089,-0.1,-0.088
-0.031,-0.03,0.001,0.031,-0.016,-0.014,0.002,-0.045,-0.07,-0.091,-0.1,-0.086
-0.029,-0.026,0.003,0.027,-0.016,-0.011,0.008,-0.039,-0.064,-0.089,-0.095,-0.082
-0.023,-0.02,0.003,0.021,-0.013,-0.008,0.015,-0.035,-0.061,-0.091,-0.095,-0.08
-0.026,-0.014,0.012,0.02,-0.019,-0.001,0.018,-0.031,-0.056,-0.09,-0.096,-0.078
-0.009,-0.01,-0.001,0.009,-0.003,-0.005,0.039,-0.024,-0.05,-0.08,-0.093,-0.072
-0.014,-0.001,0.013,0.007,-0.013,0.006,0.043,-0.018,-0.043,-0.064,-0.083,-0.066
-0.027,0.001,0.028,0.013,-0.028,0.014,0.018,-0.008,-0.033,-0.055,-0.072,-0.061
0.007,0.019,0.012,-0.013,-0.003,0.015,0.009,-0.007,-0.031,-0.056,-0.067,-0.056
0.013,0.017,0.004,-0.015,0.004,0.01,0.002,-0.019,-0.028,-0.054,-0.062,-0.05
0.003,-0.016,-0.019,0.007,0.011,-0.018,-0.018,-0.047,-0.052,-0.077,-0.078,-0.057
0.033,-0.011,-0.044,-0.011,0.039,-0.027,-0.027,-0.078,-0.084,-0.085,-0.099,-0.067
0.011,-0.024,-0.035,0.007,0.023,-0.029,-0.014,-0.069,-0.076,-0.091,-0.104,-0.077
-0.021,-0.035,-0.014,0.029,-0.003,-0.024,-0.014,-0.08,-0.084,-0.111,-0.096,-0.076
-0.038,-0.052,-0.014,0.045,-0.011,-0.033,-0.001,-0.068,-0.076,-0.111,-0.109,-0.093
-0.063,-0.068,-0.005,0.066,-0.028,-0.036,0.001,-0.079,-0.083,-0.113,-0.115,-0.104
-0.052,-0.063,-0.011,0.058,-0.02,-0.037,0.006,-0.072,-0.079,-0.116,-0.115,-0.106
-0.04,-0.068,-0.028,0.055,-0.006,-0.048,0.008,-0.07,-0.079,-0.117,-0.114,-0.108
-0.047,-0.061,-0.013,0.054,-0.016,-0.037,-0.001,-0.09,-0.089,-0.108,-0.103,-0.1
-0.055,-0.073,-0.018,0.064,-0.018,-0.045,0.017,-0.067,-0.064,-0.111,-0.116,-0.116
-0.056,-0.051,0.005,0.054,-0.03,-0.023,-0.012,-0.108,-0.091,-0.096,-0.091,-0.091
-0.055,-0.073,-0.019,0.064,-0.018,-0.046,0.049,-0.023,-0.038,-0.109,-0.135,-0.124
-0.032,-0.075,-0.043,0.054,0.006,-0.058,0.06,0.015,-0.06,-0.125,-0.128,-0.117
0.0,-0.058,-0.058,0.029,0.029,-0.058,0.236,0.631,0.417,0.103,-0.058,-0.11
0.194,0.324,0.129,-0.259,0.032,0.226,0.025,0.007,0.727,0.884,0.746,0.497
0.231,0.661,0.43,-0.447,-0.1,0.546,-0.518,-1.569,0.324,1.282,1.412,1.071
