0.31,0.426,0.116,-0.368,0.096,0.271,-0.018,0.306,0.44,0.448,0.423,0.126
0.326,0.449,0.123,-0.387,0.101,0.286,-0.039,0.323,0.464,0.49,0.472,0.154
0.333,0.506,0.173,-0.42,0.08,0.339,-0.061,0.337,0.488,0.54,0.53,0.198
0.349,0.534,0.184,-0.442,0.082,0.359,-0.079,0.323,0.472,0.555,0.56,0.225
0.325,0.518,0.192,-0.422,0.066,0.355,-0.086,0.297,0.457,0.552,0.575,0.251
0.33,0.498,0.168,-0.414,0.081,0.332,-0.087,0.246,0.393,0.505,0.544,0.232
0.292,0.438,0.146,-0.365,0.073,0.291,-0.052,0.19,0.334,0.454,0.514,0.214
0.249,0.393,0.145,-0.321,0.052,0.269,-0.028,0.15,0.291,0.361,0.438,0.156
0.265,0.372,0.107,-0.319,0.079,0.24,-0.025,0.101,0.232,0.262,0.329,0.071
0.269,0.33,0.061,-0.3,0.104,0.196,0.017,0.087,0.21,0.193,0.254,0.024
0.221,0.275,0.054,-0.248,0.083,0.164,0.047,0.072,0.165,0.119,0.173,-0.032
0.2,0.235,0.035,-0.218,0.082,0.135,0.055,0.038,0.094,0.067,0.109,-0.086
0.196,0.223,0.027,-0.209,0.084,0.125,0.069,0.035,0.077,0.036,0.072,-0.12
0.147,0.217,0.069,-0.182,0.039,0.142,0.095,0.035,0.077,0.013,0.053,-0.133
0.125,0.196,0.071,-0.161,0.027,0.133,0.102,0.029,0.071,-0.018,0.046,-0.139
0.095,0.164,0.069,-0.129,0.013,0.116,0.093,0.017,0.069,-0.034,0.034,-0.142
0.1,0.171,0.07,-0.136,0.015,0.12,0.093,0.006,0.064,-0.038,0.027,-0.15
0.127,0.186,0.058,-0.157,0.034,0.122,0.087,-0.006,0.069,-0.04,0.017,-0.161
0.119,0.176,0.057,-0.148,0.031,0.117,0.084,-0.02,0.072,-0.033,-0.01,-0.154
0.123,0.172,0.048,-0.148,0.037,0.11,0.079,-0.017,0.077,-0.026,0.003,-0.151
0.107,0.168,0.061,-0.137,0.022,0.114,0.074,-0.009,0.088,-0.019,0.031,-0.146
0.11,0.157,0.048,-0.133,0.031,0.102,0.072,-0.003,0.09,-0.013,0.039,-0.141
0.142,0.178,0.036,-0.16,0.053,0.107,0.061,0.007,0.092,-0.003,0.044,-0.137
0.166,0.214,0.048,-0.19,0.058,0.131,0.086,0.022,0.106,0.017,0.049,-0.131
0.192,0.235,0.043,-0.214,0.074,0.139,0.111,0.033,0.126,0.043,0.077,-0.125
0.202,0.248,0.046,-0.226,0.078,0.147,0.097,0.029,0.111,0.039,0.075,-0.121
0.186,0.23,0.044,-0.209,0.071,0.137,0.091,0.024,0.081,0.026,0.053,-0.12
0.156,0.201,0.045,-0.179,0.055,0.123,0.082,0.019,0.066,0.015,0.048,-0.119
0.129,0.167,0.038,-0.148,0.045,0.102,0.08,0.016,0.05,0.004,0.038,-0.121
0.168,0.199,0.03,-0.184,0.069,0.114,0.08,0.009,0.043,-0.003,0.031,-0.117
0.211,0.235,0.024,-0.223,0.093,0.129,0.076,0.007,0.039,-0.015,0.024,-0.13
0.19,0.214,0.024,-0.203,0.083,0.119,0.075,-0.004,0.034,-0.014,0.019,-0.138
0.166,0.217,0.051,-0.192,0.057,0.134,0.074,-0.028,0.03,-0.03,0.021,-0.143
0.145,0.209,0.064,-0.177,0.04,0.137,0.093,-0.03,0.025,-0.044,0.017,-0.157
0.159,0.213,0.053,-0.186,0.053,0.132,0.099,-0.021,0.028,-0.029,0.015,-0.15
0.13,0.177,0.047,-0.153,0.041,0.111,0.09,-0.017,0.033,-0.019,0.015,-0.153
0.112,0.153,0.041,-0.133,0.035,0.097,0.087,-0.018,0.034,-0.02,0.01,-0.156
0.161,0.188,0.027,-0.175,0.067,0.107,0.079,-0.02,0.03,-0.025,0.001,-0.154
0.104,0.152,0.047,-0.128,0.028,0.099,0.075,-0.035,0.03,-0.043,-0.007,-0.156
0.088,0.128,0.041,-0.108,0.023,0.084,0.071,-0.046,0.028,-0.055,-0.017,-0.155
0.088,0.128,0.041,-0.108,0.023,0.084,0.068,-0.038,0.024,-0.047,-0.029,-0.154
0.036,0.12,0.084,-0.078,-0.024,0.102,0.065,-0.035,0.025,-0.043,-0.031,-0.15
0.067,0.149,0.082,-0.108,-0.007,0.115,0.062,-0.03,0.029,-0.036,-0.025,-0.148
0.053,0.138,0.085,-0.096,-0.016,0.112,0.059,-0.025,0.036,-0.03,-0.023,-0.145
0.061,0.151,0.091,-0.106,-0.015,0.121,0.063,-0.022,0.045,-0.042,-0.018,-0.141
0.1,0.19,0.09,-0.145,0.004,0.14,0.079,-0.019,0.054,-0.045,-0.016,-0.14
0.082,0.18,0.098,-0.132,-0.008,0.139,0.08,-0.016,0.056,-0.039,-0.01,-0.136
0.073,0.17,0.097,-0.121,-0.013,0.133,0.078,-0.014,0.063,-0.038,-0.001,-0.135
0.061,0.163,0.103,-0.112,-0.021,0.133,0.089,-0.009,0.078,-0.031,-0.008,-0.135
0.079,0.171,0.092,-0.125,-0.007,0.131,0.087,-0.012,0.081,-0.032,-0.012,-0.13
0.103,0.175,0.072,-0.139,0.015,0.123,0.072,-0.023,0.076,-0.035,-0.026,-0.129
0.092,0.171,0.079,-0.131,0.006,0.125,0.063,-0.033,0.074,-0.04,-0.043,-0.135
0.067,0.149,0.082,-0.108,-0.008,0.116,0.055,-0.053,0.071,-0.054,-0.038,-0.153
0.066,0.14,0.073,-0.103,-0.004,0.106,0.05,-0.051,0.069,-0.056,-0.051,-0.144
0.069,0.128,0.058,-0.099,0.005,0.093,0.048,-0.044,0.066,-0.054,-0.062,-0.15
0.075,0.119,0.043,-0.097,0.016,0.081,0.037,-0.039,0.064,-0.051,-0.059,-0.174
0.085,0.155,0.07,-0.12,0.007,0.113,0.059,-0.031,0.06,-0.049,-0.057,-0.137
0.073,0.161,0.088,-0.117,-0.008,0.125,0.083,-0.024,0.058,-0.05,-0.052,-0.129
0.06,0.138,0.079,-0.099,-0.01,0.108,0.078,-0.017,0.053,-0.062,-0.05,-0.15
0.075,0.154,0.079,-0.115,-0.002,0.116,0.084,-0.03,0.06,-0.065,-0.046,-0.157
0.105,0.175,0.069,-0.14,0.018,0.121,0.084,-0.033,0.09,-0.056,-0.042,-0.161
0.101,0.175,0.074,-0.138,0.014,0.124,0.087,-0.024,0.089,-0.054,-0.04,-0.159
0.137,0.211,0.074,-0.174,0.031,0.142,0.072,-0.022,0.085,-0.048,-0.049,-0.161
0.153,0.225,0.072,-0.189,0.04,0.149,0.057,-0.013,0.082,-0.046,-0.037,-0.159
0.124,0.217,0.093,-0.171,0.016,0.154,0.052,-0.011,0.078,-0.043,-0.026,-0.162
0.137,0.218,0.081,-0.177,0.028,0.149,0.065,0.018,0.113,-0.02,-0.007,-0.133
0.181,0.218,0.037,-0.2,0.071,0.128,0.037,0.06,0.126,0.015,0.026,-0.108
0.193,0.202,0.01,-0.198,0.091,0.106,-0.043,0.022,0.092,0.008,-0.007,-0.107
0.161,0.177,0.016,-0.17,0.073,0.096,-0.01,-0.003,0.066,-0.025,-0.021,-0.113
0.133,0.157,0.025,-0.145,0.053,0.091,0.042,-0.016,0.053,-0.053,-0.042,-0.126
0.096,0.152,0.056,-0.124,0.02,0.104,0.031,-0.061,0.041,-0.071,-0.069,-0.126
0.082,0.143,0.061,-0.113,0.011,0.102,0.036,-0.055,0.046,-0.079,-0.073,-0.158
0.068,0.135,0.066,-0.102,0.001,0.1,0.039,-0.058,0.026,-0.09,-0.087,-0.165
0.058,0.151,0.093,-0.104,-0.018,0.122,0.042,-0.041,0.037,-0.062,-0.056,-0.146
0.059,0.133,0.074,-0.096,-0.008,0.103,0.043,-0.074,0.015,-0.087,-0.088,-0.166
0.075,0.169,0.094,-0.122,-0.01,0.131,0.022,-0.066,0.054,-0.049,-0.038,-0.134
0.078,0.121,0.043,-0.1,0.017,0.082,0.036,-0.006,0.058,-0.074,-0.083,-0.171
0.142,0.151,0.009,-0.147,0.067,0.08,0.006,0.071,0.132,0.049,0.018,-0.123
0.168,0.444,0.276,-0.306,-0.055,0.36,0.049,0.121,0.554,0.463,0.349,0.151
0.151,0.843,0.692,-0.497,-0.271,0.768,-0.083,-0.591,0.271,0.813,1.203,0.874
0.181,1.09,0.91,-0.636,-0.365,1.0,-0.488,-1.302,-0.596,0.73,1.838,1.404
0.027,0.726,0.699,-0.377,-0.337,0.713,-0.425,-1.071,-0.911,-0.273,0.484,0.594
-0.034,0.262,0.296,-0.114,-0.166,0.279,-0.151,-0.59,-0.616,-0.627,-0.369,-0.088
0.004,0.134,0.13,-0.069,-0.063,0.132,-0.033,-0.239,-0.172,-0.195,-0.1,-0.102
-0.004,0.128,0.132,-0.062,-0.068,0.13,0.039,-0.081,0.017,-0.124,-0.148,-0.168
0.04,0.163,0.123,-0.102,-0.041,0.142,0.046,-0.029,0.076,-0.045,-0.065,-0.131
0.045,0.157,0.112,-0.102,-0.033,0.134,0.056,-0.006,0.098,-0.056,-0.098,-0.165
0.061,0.162,0.101,-0.111,-0.02,0.131,0.041,-0.023,0.09,-0.055,-0.085,-0.168
0.062,0.158,0.096,-0.111,-0.017,0.127,0.039,-0.02,0.102,-0.041,-0.068,-0.143
0.07,0.163,0.093,-0.117,-0.011,0.127,0.03,-0.014,0.105,-0.023,-0.052,-0.126
0.102,0.191,0.089,-0.146,0.006,0.139,0.026,0.006,0.108,0.015,-0.017,-0.116
0.135,0.212,0.077,-0.173,0.029,0.144,0.055,0.023,0.125,0.013,-0.026,-0.121
0.159,0.227,0.069,-0.193,0.045,0.148,0.047,0.029,0.133,0.038,0.008,-0.108
0.171,0.221,0.05,-0.196,0.06,0.135,0.027,0.055,0.159,0.054,-0.007,-0.11
0.152,0.206,0.055,-0.179,0.048,0.13,0.021,0.06,0.176,0.072,-0.022,-0.101
0.13,0.197,0.067,-0.164,0.032,0.132,0.015,0.048,0.165,0.065,-0.019,-0.099
0.134,0.209,0.075,-0.172,0.029,0.142,0.015,0.051,0.175,0.075,-0.003,-0.091
0.147,0.229,0.082,-0.189,0.032,0.155,0.008,0.038,0.164,0.071,0.004,-0.079
0.188,0.256,0.068,-0.222,0.059,0.161,0.007,0.049,0.17,0.079,0.015,-0.071
0.133,0.231,0.098,-0.182,0.017,0.164,0.002,0.077,0.19,0.122,0.041,-0.057
0.123,0.232,0.109,-0.178,0.007,0.171,-0.006,0.089,0.2,0.13,0.052,-0.044
0.194,0.289,0.095,-0.242,0.05,0.191,-0.013,0.112,0.246,0.16,0.083,-0.03
0.195,0.275,0.08,-0.235,0.057,0.178,-0.036,0.137,0.281,0.213,0.132,-0.002
0.182,0.284,0.101,-0.233,0.04,0.192,-0.037,0.171,0.316,0.252,0.176,0.028
0.173,0.326,0.154,-0.25,0.009,0.24,-0.071,0.214,0.362,0.304,0.227,0.064
0.177,0.34,0.163,-0.258,0.006,0.251,-0.107,0.242,0.383,0.352,0.278,0.107
0.184,0.37,0.186,-0.277,-0.001,0.278,-0.127,0.273,0.413,0.401,0.334,0.155
0.213,0.412,0.199,-0.313,0.007,0.305,-0.155,0.294,0.42,0.446,0.386,0.19
0.238,0.448,0.21,-0.343,0.014,0.328,-0.142,0.293,0.422,0.455,0.41,0.216
0.242,0.47,0.228,-0.356,0.007,0.349,-0.132,0.269,0.406,0.439,0.406,0.245
0.252,0.459,0.207,-0.356,0.022,0.333,-0.122,0.227,0.364,0.415,0.396,0.242
0.22,0.425,0.205,-0.322,0.007,0.315,-0.103,0.176,0.328,0.372,0.366,0.214
0.203,0.369,0.166,-0.286,0.018,0.267,-0.073,0.114,0.254,0.276,0.284,0.142
0.158,0.283,0.125,-0.221,0.016,0.204,-0.061,0.074,0.195,0.174,0.17,0.069
0.088,0.215,0.127,-0.151,-0.02,0.171,-0.052,0.042,0.166,0.115,0.098,0.013
0.091,0.19,0.099,-0.141,-0.004,0.144,-0.029,0.019,0.127,0.059,0.044,-0.043
0.067,0.159,0.092,-0.113,-0.012,0.125,-0.027,0.011,0.089,0.007,-0.016,-0.065
0.075,0.142,0.067,-0.109,0.004,0.104,-0.023,-0.01,0.077,-0.035,-0.048,-0.092
0.05,0.13,0.081,-0.09,-0.016,0.105,-0.017,-0.014,0.078,-0.062,-0.063,-0.11
0.002,0.122,0.12,-0.063,-0.059,0.121,-0.016,-0.022,0.06,-0.064,-0.074,-0.113
0.002,0.104,0.102,-0.053,-0.051,0.102,-0.028,-0.036,0.051,-0.081,-0.099,-0.133
0.007,0.099,0.092,-0.053,-0.043,0.095,-0.032,-0.028,0.049,-0.08,-0.104,-0.136
0.051,0.136,0.085,-0.094,-0.017,0.11,-0.021,-0.017,0.046,-0.06,-0.087,-0.127
0.057,0.132,0.075,-0.095,-0.009,0.103,-0.014,-0.009,0.043,-0.054,-0.076,-0.118
0.096,0.164,0.068,-0.13,0.014,0.116,-0.009,-0.014,0.058,-0.043,-0.068,-0.111
0.125,0.187,0.062,-0.156,0.031,0.124,-0.005,-0.016,0.072,-0.03,-0.064,-0.11
0.116,0.159,0.044,-0.138,0.036,0.101,-0.012,-0.014,0.069,-0.021,-0.059,-0.109
0.066,0.117,0.051,-0.092,0.008,0.084,-0.023,-0.016,0.07,-0.02,-0.056,-0.107
0.029,0.088,0.059,-0.059,-0.015,0.074,-0.018,-0.014,0.07,-0.014,-0.048,-0.102
0.068,0.128,0.06,-0.098,0.004,0.093,-0.026,-0.01,0.07,-0.022,-0.058,-0.114
0.073,0.139,0.065,-0.106,0.004,0.102,-0.034,-0.003,0.07,-0.042,-0.076,-0.116
0.072,0.133,0.061,-0.103,0.005,0.097,-0.023,0.001,0.07,-0.038,-0.072,-0.09
0.076,0.143,0.067,-0.11,0.004,0.105,-0.016,0.007,0.07,-0.036,-0.068,-0.09
0.078,0.142,0.064,-0.111,0.006,0.103,-0.005,0.013,0.07,-0.033,-0.065,-0.106
0.103,0.167,0.065,-0.136,0.019,0.116,0.008,0.013,0.07,-0.029,-0.06,-0.11
0.109,0.175,0.066,-0.142,0.021,0.12,0.022,0.003,0.069,-0.033,-0.059,-0.11
0.097,0.158,0.061,-0.128,0.018,0.11,0.036,-0.002,0.065,-0.039,-0.071,-0.113
0.108,0.15,0.043,-0.129,0.032,0.096,0.035,-0.011,0.065,-0.045,-0.079,-0.116
0.1,0.14,0.04,-0.12,0.029,0.09,0.029,-0.028,0.065,-0.045,-0.08,-0.115
0.076,0.129,0.054,-0.103,0.011,0.091,0.023,-0.031,0.065,-0.049,-0.09,-0.12
0.069,0.124,0.055,-0.097,0.007,0.09,0.019,-0.029,0.065,-0.05,-0.099,-0.141
0.057,0.119,0.061,-0.088,-0.002,0.09,0.01,-0.031,0.062,-0.052,-0.1,-0.146
0.064,0.116,0.052,-0.09,0.006,0.083,0.017,-0.029,0.059,-0.056,-0.103,-0.144
0.065,0.11,0.045,-0.088,0.01,0.077,0.036,-0.032,0.055,-0.055,-0.105,-0.146
0.071,0.106,0.035,-0.089,0.018,0.07,0.033,-0.035,0.054,-0.061,-0.106,-0.144
0.082,0.106,0.024,-0.094,0.028,0.065,0.027,-0.035,0.048,-0.063,-0.11,-0.145
0.046,0.096,0.05,-0.071,-0.002,0.072,0.024,-0.035,0.056,-0.056,-0.109,-0.145
0.058,0.116,0.057,-0.088,0.001,0.086,0.018,-0.035,0.075,-0.049,-0.113,-0.145
0.056,0.104,0.048,-0.08,0.004,0.076,0.015,-0.035,0.077,-0.043,-0.114,-0.144
0.038,0.089,0.05,-0.064,-0.006,0.069,0.021,-0.032,0.079,-0.035,-0.116,-0.146
0.061,0.105,0.044,-0.084,0.009,0.074,0.026,-0.029,0.083,-0.031,-0.107,-0.134
0.075,0.119,0.044,-0.097,0.015,0.081,0.033,-0.03,0.083,-0.035,-0.092,-0.114
0.114,0.157,0.043,-0.136,0.036,0.099,0.033,-0.03,0.094,-0.036,-0.095,-0.115
0.106,0.15,0.044,-0.129,0.031,0.097,0.026,-0.03,0.097,-0.032,-0.095,-0.115
0.073,0.125,0.051,-0.099,0.011,0.088,0.019,-0.029,0.084,-0.044,-0.1,-0.115
0.063,0.112,0.049,-0.088,0.007,0.08,0.013,-0.023,0.075,-0.057,-0.099,-0.115
0.066,0.127,0.062,-0.097,0.002,0.094,0.005,-0.016,0.066,-0.049,-0.107,-0.118
0.068,0.142,0.074,-0.106,-0.003,0.108,0.0,-0.009,0.065,-0.048,-0.115,-0.123
0.08,0.127,0.047,-0.104,0.016,0.087,0.007,-0.003,0.065,-0.043,-0.106,-0.125
0.08,0.127,0.047,-0.104,0.016,0.087,0.013,0.004,0.064,-0.039,-0.103,-0.125
0.054,0.116,0.062,-0.085,-0.004,0.088,0.007,-0.001,0.066,-0.059,-0.096,-0.125
0.069,0.103,0.033,-0.086,0.018,0.068,0.003,-0.014,0.063,-0.067,-0.091,-0.125
0.048,0.088,0.04,-0.068,0.004,0.064,-0.001,-0.026,0.061,-0.064,-0.099,-0.125
0.013,0.041,0.027,-0.027,-0.007,0.034,-0.008,-0.032,0.057,-0.066,-0.108,-0.125
0.017,0.039,0.022,-0.029,-0.003,0.031,-0.008,-0.026,0.055,-0.065,-0.11,-0.123
0.026,0.067,0.041,-0.047,-0.008,0.054,-0.004,-0.021,0.052,-0.065,-0.105,-0.119
0.03,0.064,0.034,-0.047,-0.002,0.049,0.022,-0.018,0.05,-0.058,-0.098,-0.117
0.009,0.057,0.048,-0.033,-0.02,0.052,0.034,-0.011,0.062,-0.05,-0.093,-0.112
0.05,0.077,0.026,-0.064,0.012,0.051,0.011,-0.009,0.066,-0.045,-0.087,-0.113
0.102,0.13,0.028,-0.116,0.037,0.079,-0.01,0.025,0.076,-0.033,-0.087,-0.102
0.093,0.123,0.03,-0.108,0.031,0.076,-0.003,0.072,0.118,0.004,-0.092,-0.081
0.146,0.133,-0.013,-0.139,0.079,0.06,-0.027,0.076,0.13,0.025,-0.087,-0.081
0.182,0.137,-0.045,-0.159,0.113,0.046,-0.093,0.046,0.085,-0.007,-0.094,-0.091
0.141,0.096,-0.044,-0.118,0.092,0.026,-0.069,0.015,0.06,-0.032,-0.085,-0.087
0.126,0.098,-0.029,-0.112,0.077,0.034,-0.029,-0.009,0.047,-0.058,-0.094,-0.093
0.133,0.101,-0.032,-0.116,0.082,0.034,-0.03,-0.028,0.042,-0.062,-0.082,-0.097
0.094,0.1,0.006,-0.097,0.044,0.053,-0.011,-0.033,0.049,-0.065,-0.082,-0.116
0.072,0.108,0.035,-0.09,0.018,0.071,-0.01,-0.04,0.041,-0.075,-0.089,-0.118
0.089,0.106,0.018,-0.098,0.035,0.062,0.0,-0.021,0.06,-0.055,-0.092,-0.12
0.081,0.112,0.031,-0.096,0.025,0.072,0.007,-0.023,0.038,-0.069,-0.117,-0.134
0.062,0.094,0.032,-0.079,0.015,0.063,0.008,0.012,0.062,-0.031,-0.073,-0.109
0.078,0.041,-0.037,-0.059,0.057,0.002,0.021,0.036,0.024,-0.058,-0.139,-0.152
0.153,0.136,-0.017,-0.145,0.085,0.06,-0.011,0.164,0.205,0.155,0.05,-0.037
0.109,0.413,0.304,-0.262,-0.098,0.358,0.022,0.076,0.564,0.552,0.418,0.277
0.098,0.837,0.738,-0.467,-0.32,0.787,-0.22,-0.81,0.07,0.853,1.409,1.115
0.06,0.924,0.863,-0.492,-0.402,0.893,-0.55,-1.344,-0.739,0.562,1.709,1.443
-0.112,0.457,0.568,-0.173,-0.34,0.512,-0.383,-0.98,-0.888,-0.446,0.135,0.423
-0.072,0.081,0.152,-0.005,-0.112,0.116,-0.154,-0.484,-0.516,-0.52,-0.337,-0.066
-0.015,0.005,0.019,0.005,-0.017,0.012,-0.044,-0.144,-0.128,-0.123,-0.082,-0.047
0.007,0.069,0.062,-0.038,-0.028,0.065,0.006,-0.025,0.02,-0.097,-0.163,-0.106
0.029,0.079,0.05,-0.054,-0.011,0.064,0.015,0.012,0.063,-0.018,-0.062,-0.064
0.017,0.073,0.056,-0.045,-0.02,0.064,0.045,0.037,0.079,-0.021,-0.112,-0.107
0.074,0.11,0.036,-0.092,0.019,0.073,0.047,0.047,0.104,-0.004,-0.068,-0.066
0.072,0.109,0.037,-0.091,0.017,0.073,0.068,0.063,0.116,0.009,-0.077,-0.056
0.046,0.117,0.07,-0.082,-0.013,0.093,0.091,0.088,0.153,0.04,-0.065,-0.056
0.065,0.113,0.048,-0.09,0.008,0.081,0.085,0.081,0.153,0.035,-0.052,-0.052
0.081,0.116,0.036,-0.099,0.022,0.076,0.068,0.063,0.141,0.005,-0.054,-0.052
0.073,0.104,0.031,-0.088,0.02,0.067,0.064,0.095,0.151,0.03,-0.035,-0.048
0.065,0.082,0.017,-0.074,0.024,0.049,0.059,0.102,0.142,0.048,-0.038,-0.05
0.065,0.081,0.016,-0.073,0.025,0.048,0.053,0.094,0.146,0.052,-0.022,-0.037
0.053,0.078,0.026,-0.066,0.014,0.052,0.046,0.094,0.144,0.048,-0.022,-0.032
0.038,0.083,0.045,-0.061,-0.003,0.063,0.054,0.088,0.145,0.053,-0.01,-0.022
0.029,0.076,0.047,-0.052,-0.009,0.061,0.057,0.111,0.168,0.086,0.002,-0.017
0.043,0.086,0.043,-0.065,0.0,0.064,0.044,0.124,0.179,0.104,0.018,-0.007
0.019,0.064,0.045,-0.042,-0.013,0.054,0.035,0.107,0.169,0.098,0.025,-0.006
0.028,0.074,0.046,-0.052,-0.009,0.06,0.026,0.131,0.211,0.142,0.06,0.01
0.045,0.132,0.088,-0.089,-0.022,0.109,0.013,0.161,0.247,0.189,0.104,0.037
0.054,0.161,0.107,-0.107,-0.027,0.133,-0.008,0.174,0.275,0.234,0.143,0.071
0.116,0.222,0.105,-0.169,0.005,0.163,-0.036,0.209,0.328,0.289,0.19,0.113
0.108,0.246,0.138,-0.177,-0.015,0.192,-0.061,0.22,0.353,0.345,0.24,0.149
0.105,0.251,0.146,-0.179,-0.02,0.198,-0.085,0.243,0.373,0.411,0.311,0.198
0.116,0.295,0.179,-0.206,-0.031,0.237,-0.114,0.263,0.405,0.464,0.376,0.249
0.141,0.358,0.217,-0.25,-0.039,0.287,-0.114,0.25,0.421,0.503,0.421,0.305
0.134,0.363,0.228,-0.249,-0.047,0.295,-0.108,0.246,0.41,0.508,0.452,0.334
0.133,0.356,0.223,-0.244,-0.045,0.289,-0.106,0.223,0.39,0.483,0.446,0.327
0.154,0.346,0.192,-0.25,-0.019,0.269,-0.101,0.184,0.332,0.429,0.408,0.314
0.11,0.29,0.18,-0.2,-0.036,0.235,-0.098,0.146,0.266,0.357,0.342,0.285
0.089,0.254,0.165,-0.172,-0.038,0.209,-0.076,0.09,0.206,0.264,0.24,0.214
0.041,0.175,0.134,-0.108,-0.047,0.154,-0.052,0.042,0.147,0.18,0.163,0.114
0.004,0.107,0.103,-0.056,-0.05,0.105,-0.039,0.025,0.107,0.111,0.093,0.056
0.01,0.093,0.084,-0.052,-0.037,0.088,-0.024,0.021,0.073,0.055,0.018,0.016
-0.005,0.068,0.073,-0.032,-0.039,0.07,0.006,0.019,0.061,0.015,-0.026,-0.026
-0.017,0.045,0.062,-0.014,-0.04,0.053,0.023,0.014,0.054,-0.017,-0.047,-0.046
-0.002,0.046,0.048,-0.023,-0.025,0.047,0.034,0.012,0.048,-0.028,-0.063,-0.054
-0.026,0.024,0.05,0.001,-0.038,0.036,0.042,0.004,0.038,-0.039,-0.077,-0.056
-0.041,0.017,0.058,0.012,-0.05,0.037,0.035,-0.022,0.023,-0.051,-0.09,-0.067
-0.043,0.005,0.048,0.019,-0.046,0.026,0.035,-0.024,0.01,-0.055,-0.105,-0.08
-0.063,-0.02,0.043,0.041,-0.053,0.011,0.035,-0.012,-0.008,-0.051,-0.095,-0.073
-0.013,0.026,0.039,-0.007,-0.026,0.033,0.035,-0.003,-0.013,-0.042,-0.09,-0.069
0.022,0.063,0.041,-0.042,-0.009,0.052,0.035,0.009,-0.006,-0.036,-0.081,-0.063
0.018,0.057,0.039,-0.037,-0.011,0.048,0.035,0.02,-0.003,-0.029,-0.065,-0.057
0.006,0.046,0.04,-0.026,-0.018,0.043,0.035,0.033,0.002,-0.022,-0.065,-0.053
0.038,0.078,0.04,-0.058,-0.001,0.058,0.036,0.029,0.025,-0.016,-0.06,-0.05
0.054,0.093,0.039,-0.074,0.007,0.066,0.051,0.026,0.041,-0.009,-0.052,-0.05
0.046,0.081,0.035,-0.064,0.006,0.057,0.062,0.019,0.039,-0.003,-0.047,-0.05
0.044,0.071,0.027,-0.058,0.009,0.049,0.057,0.026,0.041,0.005,-0.039,-0.05
0.034,0.065,0.031,-0.05,0.001,0.048,0.055,0.052,0.039,0.003,-0.034,-0.05
0.064,0.045,-0.018,-0.055,0.041,0.013,0.052,0.049,0.031,-0.028,-0.055,-0.055
0.035,0.01,-0.025,-0.022,0.03,-0.007,0.048,0.039,0.023,-0.042,-0.07,-0.055
0.05,0.046,-0.004,-0.048,0.027,0.021,0.057,0.035,0.015,-0.039,-0.07,-0.056
0.081,0.039,-0.043,-0.06,0.062,-0.002,0.066,0.024,0.008,-0.041,-0.077,-0.061
0.039,0.002,-0.037,-0.02,0.038,-0.017,0.065,0.024,0.0,-0.04,-0.078,-0.059
0.044,0.023,-0.021,-0.033,0.032,0.001,0.063,0.031,-0.009,-0.04,-0.083,-0.063
0.02,0.01,-0.01,-0.015,0.015,-0.001,0.06,0.027,-0.018,-0.043,-0.088,-0.065
0.016,-0.007,-0.023,-0.004,0.02,-0.015,0.06,0.021,-0.024,-0.055,-0.086,-0.07
0.032,0.005,-0.028,-0.018,0.03,-0.011,0.056,0.018,-0.02,-0.059,-0.085,-0.07
0.014,-0.006,-0.02,-0.004,0.017,-0.013,0.047,0.012,-0.02,-0.059,-0.085,-0.068
0.042,0.001,-0.041,-0.021,0.042,-0.02,0.041,0.009,-0.018,-0.062,-0.086,-0.06
0.014,-0.022,-0.036,0.004,0.025,-0.029,0.033,0.003,-0.013,-0.057,-0.083,-0.055
-0.036,-0.068,-0.033,0.052,-0.001,-0.05,0.026,-0.003,-0.017,-0.064,-0.095,-0.07
-0.054,-0.06,-0.006,0.057,-0.024,-0.033,0.02,-0.009,-0.016,-0.066,-0.113,-0.079
-0.025,-0.055,-0.031,0.04,0.003,-0.043,0.019,-0.014,-0.03,-0.068,-0.111,-0.089
-0.016,-0.048,-0.032,0.032,0.008,-0.04,0.037,-0.012,-0.026,-0.083,-0.104,-0.082
-0.061,-0.036,0.025,0.048,-0.043,-0.006,0.047,-0.007,-0.001,-0.079,-0.097,-0.062
-0.002,-0.033,-0.03,0.018,0.014,-0.031,0.044,-0.004,-0.015,-0.075,-0.085,-0.064
0.03,-0.03,-0.06,0.0,0.045,-0.045,0.045,0.005,-0.027,-0.075,-0.086,-0.079
0.008,-0.026,-0.033,0.009,0.021,-0.029,0.045,0.015,-0.024,-0.071,-0.095,-0.075
0.019,-0.021,-0.04,0.001,0.03,-0.03,0.045,0.025,-0.026,-0.066,-0.096,-0.074
0.009,-0.017,-0.026,0.004,0.018,-0.021,0.045,0.025,-0.024,-0.061,-0.093,-0.081
0.001,-0.011,-0.012,0.005,0.007,-0.012,0.045,0.007,-0.025,-0.058,-0.103,-0.074
0.045,-0.008,-0.053,-0.019,0.05,-0.03,0.043,-0.004,-0.022,-0.051,-0.11,-0.072
0.037,0.002,-0.035,-0.019,0.036,-0.016,0.054,0.009,-0.017,-0.051,-0.094,-0.068
0.021,0.001,-0.02,-0.011,0.02,-0.01,0.06,0.019,-0.015,-0.055,-0.085,-0.064
0.073,0.022,-0.051,-0.047,0.062,-0.014,0.054,0.02,-0.01,-0.055,-0.086,-0.062
0.04,0.01,-0.03,-0.025,0.035,-0.009,0.049,0.021,-0.006,-0.055,-0.085,-0.058
0.016,-0.016,-0.032,0.001,0.024,-0.024,0.047,0.02,-0.004,-0.055,-0.085,-0.056
0.033,-0.003,-0.036,-0.014,0.035,-0.019,0.038,0.02,0.005,-0.055,-0.084,-0.052
0.021,-0.003,-0.024,-0.008,0.022,-0.013,0.044,0.025,0.02,-0.044,-0.086,-0.049
0.05,0.027,-0.023,-0.038,0.036,0.002,0.059,0.056,0.034,-0.016,-0.063,-0.053
0.065,0.021,-0.044,-0.043,0.055,-0.011,0.06,0.086,0.047,-0.01,-0.051,-0.055
0.055,-0.003,-0.059,-0.026,0.057,-0.03,0.058,0.098,0.06,-0.011,-0.06,-0.055
0.053,-0.024,-0.078,-0.014,0.066,-0.051,0.014,0.092,0.035,0.004,-0.061,-0.055
0.037,-0.064,-0.101,0.014,0.069,-0.082,0.018,0.061,0.006,-0.013,-0.058,-0.056
0.012,-0.083,-0.094,0.036,0.053,-0.088,0.067,0.029,0.008,-0.052,-0.077,-0.057
-0.015,-0.101,-0.086,0.058,0.036,-0.093,0.056,0.004,-0.021,-0.063,-0.081,-0.055
-0.015,-0.099,-0.084,0.057,0.035,-0.091,0.061,-0.014,-0.046,-0.093,-0.109,-0.099
-0.019,-0.095,-0.075,0.057,0.029,-0.085,0.056,-0.04,-0.032,-0.105,-0.125,-0.11
-0.034,-0.092,-0.058,0.063,0.012,-0.075,0.052,-0.028,-0.001,-0.076,-0.099,-0.097
-0.026,-0.09,-0.064,0.058,0.019,-0.077,0.062,-0.049,-0.024,-0.103,-0.133,-0.117
-0.051,-0.109,-0.059,0.08,0.004,-0.084,0.051,-0.025,0.012,-0.055,-0.08,-0.089
-0.069,-0.173,-0.104,0.121,0.018,-0.138,0.075,0.02,-0.023,-0.1,-0.151,-0.129
0.003,-0.079,-0.082,0.038,0.043,-0.08,0.047,0.134,0.109,0.073,-0.019,-0.053
-0.004,0.199,0.203,-0.098,-0.104,0.201,0.101,0.121,0.509,0.485,0.349,0.224
-0.009,0.595,0.603,-0.293,-0.306,0.599,-0.106,-0.723,0.108,0.814,1.255,0.996
0.003,0.789,0.786,-0.396,-0.392,0.787,-0.506,-1.378,-0.717,0.699,1.752,1.447
-0.212,0.342,0.554,-0.065,-0.383,0.448,-0.356,-1.061,-0.947,-0.327,0.309,0.552
-0.229,-0.117,0.112,0.173,-0.17,-0.003,-0.119,-0.568,-0.631,-0.598,-0.392,-0.053
-0.116,-0.208,-0.091,0.163,-0.012,-0.149,-0.033,-0.22,-0.229,-0.195,-0.136,-0.074
-0.147,-0.178,-0.031,0.163,-0.058,-0.104,0.044,-0.074,-0.069,-0.158,-0.192,-0.134
-0.114,-0.159,-0.045,0.137,-0.034,-0.102,0.062,-0.029,-0.006,-0.075,-0.093,-0.094
-0.087,-0.158,-0.071,0.123,-0.008,-0.115,0.102,0.009,0.022,-0.073,-0.133,-0.12
-0.061,-0.127,-0.066,0.094,0.002,-0.096,0.11,0.043,0.052,-0.039,-0.098,-0.105
-0.054,-0.127,-0.073,0.091,0.01,-0.1,0.112,0.078,0.073,-0.04,-0.096,-0.11
-0.064,-0.124,-0.06,0.094,-0.002,-0.092,0.107,0.074,0.071,-0.043,-0.094,-0.103
-0.084,-0.131,-0.047,0.108,-0.018,-0.089,0.104,0.075,0.076,-0.022,-0.076,-0.091
-0.093,-0.156,-0.064,0.125,-0.014,-0.11,0.103,0.076,0.079,-0.027,-0.083,-0.091
-0.067,-0.149,-0.083,0.108,0.009,-0.116,0.098,0.074,0.079,-0.009,-0.063,-0.077
-0.051,-0.116,-0.066,0.084,0.008,-0.091,0.105,0.079,0.085,-0.004,-0.068,-0.075
-0.058,-0.106,-0.048,0.082,-0.005,-0.076,0.103,0.087,0.106,0.016,-0.05,-0.062
-0.052,-0.108,-0.056,0.08,0.002,-0.081,0.098,0.095,0.109,0.024,-0.042,-0.057
-0.011,-0.092,-0.081,0.052,0.035,-0.086,0.092,0.11,0.114,0.035,-0.029,-0.048
-0.007,-0.081,-0.074,0.045,0.033,-0.077,0.087,0.125,0.117,0.045,-0.02,-0.038
0.009,-0.066,-0.075,0.029,0.042,-0.071,0.082,0.123,0.13,0.06,-0.009,-0.026
-0.003,-0.059,-0.056,0.031,0.027,-0.057,0.074,0.138,0.143,0.076,0.005,-0.013
0.005,-0.053,-0.058,0.024,0.031,-0.055,0.084,0.166,0.163,0.115,0.039,0.0
0.042,-0.025,-0.067,-0.008,0.054,-0.046,0.078,0.18,0.203,0.153,0.07,0.024
0.026,-0.01,-0.036,-0.008,0.032,-0.023,0.042,0.192,0.222,0.176,0.092,0.039
0.051,0.013,-0.038,-0.032,0.045,-0.013,0.015,0.224,0.26,0.228,0.138,0.063
0.019,0.03,0.01,-0.025,0.004,0.019,-0.007,0.275,0.304,0.283,0.188,0.116
-0.014,0.06,0.074,-0.023,-0.044,0.066,-0.027,0.304,0.332,0.342,0.245,0.154
0.03,0.1,0.07,-0.065,-0.021,0.085,-0.056,0.303,0.36,0.395,0.3,0.193
0.067,0.118,0.051,-0.093,0.008,0.084,-0.077,0.297,0.364,0.424,0.343,0.236
0.068,0.146,0.079,-0.107,-0.006,0.112,-0.074,0.293,0.363,0.422,0.369,0.256
0.033,0.14,0.107,-0.087,-0.038,0.123,-0.083,0.271,0.341,0.414,0.364,0.251
0.047,0.13,0.083,-0.089,-0.018,0.106,-0.067,0.22,0.294,0.379,0.345,0.233
0.085,0.119,0.034,-0.102,0.025,0.076,-0.025,0.166,0.239,0.301,0.306,0.222
0.088,0.087,-0.001,-0.087,0.044,0.043,0.014,0.122,0.174,0.238,0.231,0.186
0.037,0.043,0.007,-0.04,0.015,0.024,0.047,0.097,0.13,0.154,0.136,0.116
0.011,-0.009,-0.02,-0.001,0.016,-0.015,0.051,0.067,0.094,0.074,0.049,0.051
-0.002,-0.066,-0.065,0.034,0.032,-0.065,0.074,0.045,0.059,0.029,-0.005,0.0
-0.059,-0.116,-0.057,0.088,-0.001,-0.086,0.097,0.045,0.037,-0.02,-0.048,-0.034
-0.031,-0.113,-0.082,0.072,0.026,-0.097,0.103,0.04,0.021,-0.06,-0.068,-0.046
-0.01,-0.116,-0.106,0.063,0.048,-0.111,0.106,0.04,0.014,-0.075,-0.08,-0.061
-0.034,-0.119,-0.084,0.077,0.025,-0.101,0.116,0.033,0.008,-0.076,-0.101,-0.08
-0.012,-0.091,-0.079,0.052,0.034,-0.085,0.128,0.038,0.0,-0.073,-0.1,-0.08
0.001,-0.085,-0.085,0.042,0.043,-0.085,0.117,0.041,-0.006,-0.081,-0.1,-0.081
-0.028,-0.128,-0.1,0.078,0.036,-0.114,0.108,0.026,-0.01,-0.091,-0.1,-0.085
-0.041,-0.143,-0.101,0.092,0.03,-0.122,0.095,0.022,-0.003,-0.076,-0.1,-0.085
-0.014,-0.111,-0.097,0.063,0.042,-0.104,0.103,0.034,0.001,-0.069,-0.098,-0.083
-0.001,-0.106,-0.105,0.053,0.052,-0.105,0.113,0.056,0.003,-0.071,-0.091,-0.076
0.001,-0.085,-0.086,0.042,0.044,-0.085,0.098,0.058,0.022,-0.069,-0.087,-0.072
-0.008,-0.1,-0.092,0.054,0.042,-0.096,0.099,0.049,0.03,-0.071,-0.08,-0.065
-0.016,-0.135,-0.119,0.076,0.052,-0.126,0.101,0.047,0.021,-0.069,-0.076,-0.061
-0.011,-0.129,-0.117,0.07,0.053,-0.123,0.098,0.038,0.017,-0.068,-0.069,-0.052
0.016,-0.111,-0.127,0.048,0.072,-0.118,0.095,0.036,0.011,-0.054,-0.086,-0.067
-0.017,-0.146,-0.129,0.082,0.057,-0.137,0.09,0.05,0.003,-0.057,-0.103,-0.087
-0.07,-0.194,-0.124,0.132,0.027,-0.158,0.089,0.051,-0.008,-0.074,-0.103,-0.087
-0.086,-0.212,-0.126,0.149,0.02,-0.169,0.083,0.04,-0.02,-0.078,-0.111,-0.089
-0.124,-0.245,-0.121,0.185,-0.001,-0.183,0.08,0.036,-0.028,-0.094,-0.111,-0.101
-0.112,-0.233,-0.121,0.172,0.004,-0.176,0.077,0.034,-0.024,-0.096,-0.11,-0.117
-0.099,-0.218,-0.119,0.158,0.011,-0.168,0.07,0.028,-0.018,-0.094,-0.11,-0.114
-0.063,-0.181,-0.117,0.122,0.028,-0.149,0.105,0.041,-0.015,-0.095,-0.105,-0.112
-0.05,-0.162,-0.112,0.106,0.031,-0.137,0.13,0.061,-0.01,-0.095,-0.105,-0.109
-0.081,-0.189,-0.107,0.135,0.013,-0.148,0.123,0.061,-0.006,-0.094,-0.106,-0.105
-0.038,-0.16,-0.122,0.099,0.043,-0.141,0.126,0.065,0.0,-0.09,-0.107,-0.104
-0.016,-0.143,-0.127,0.08,0.055,-0.135,0.124,0.068,0.01,-0.087,-0.102,-0.087
-0.024,-0.13,-0.106,0.077,0.041,-0.118,0.125,0.07,0.02,-0.083,-0.099,-0.071
-0.012,-0.134,-0.122,0.073,0.056,-0.128,0.122,0.068,0.025,-0.082,-0.096,-0.069
-0.013,-0.164,-0.152,0.089,0.07,-0.158,0.117,0.063,0.025,-0.066,-0.091,-0.066
-0.022,-0.161,-0.139,0.092,0.059,-0.15,0.115,0.06,0.025,-0.081,-0.091,-0.063
-0.026,-0.152,-0.125,0.089,0.05,-0.139,0.11,0.056,0.025,-0.09,-0.095,-0.061
-0.048,-0.158,-0.11,0.103,0.031,-0.134,0.107,0.053,0.029,-0.067,-0.095,-0.058
-0.056,-0.197,-0.141,0.127,0.043,-0.169,0.103,0.049,0.03,-0.08,-0.095,-0.072
-0.052,-0.204,-0.152,0.128,0.051,-0.178,0.1,0.046,0.03,-0.092,-0.103,-0.086
-0.071,-0.201,-0.131,0.136,0.031,-0.166,0.099,0.045,0.03,-0.089,-0.106,-0.085
-0.048,-0.194,-0.146,0.121,0.049,-0.17,0.096,0.045,0.03,-0.09,-0.101,-0.083
-0.017,-0.15,-0.132,0.084,0.058,-0.141,0.094,0.045,0.03,-0.09,-0.099,-0.08
-0.035,-0.185,-0.151,0.11,0.058,-0.168,0.11,0.045,0.021,-0.09,-0.095,-0.08
-0.029,-0.198,-0.169,0.114,0.071,-0.184,0.116,0.043,0.029,-0.086,-0.095,-0.076
-0.038,-0.2,-0.162,0.12,0.062,-0.181,0.115,0.039,0.046,-0.08,-0.1,-0.074
-0.075,-0.24,-0.165,0.157,0.046,-0.202,0.121,0.04,0.044,-0.075,-0.1,-0.075
-0.073,-0.23,-0.157,0.152,0.042,-0.194,0.119,0.04,0.047,-0.07,-0.098,-0.07
-0.061,-0.223,-0.162,0.142,0.051,-0.193,0.12,0.04,0.05,-0.062,-0.094,-0.07
-0.033,-0.186,-0.153,0.11,0.06,-0.169,0.119,0.04,0.05,-0.066,-0.092,-0.069
-0.024,-0.178,-0.154,0.101,0.065,-0.166,0.121,0.041,0.052,-0.076,-0.089,-0.065
-0.027,-0.203,-0.176,0.115,0.075,-0.19,0.118,0.058,0.056,-0.076,-0.086,-0.066
-0.028,-0.187,-0.159,0.108,0.066,-0.173,0.114,0.061,0.058,-0.074,-0.085,-0.065
-0.034,-0.191,-0.157,0.113,0.062,-0.174,0.109,0.06,0.061,-0.077,-0.078,-0.064
-0.04,-0.182,-0.142,0.111,0.051,-0.162,0.106,0.06,0.065,-0.068,-0.068,-0.066
-0.032,-0.162,-0.13,0.098,0.049,-0.146,0.122,0.058,0.063,-0.042,-0.057,-0.059
-0.002,-0.163,-0.161,0.083,0.08,-0.162,0.12,0.096,0.073,-0.049,-0.048,-0.053
0.014,-0.15,-0.164,0.068,0.089,-0.156,0.101,0.127,0.075,-0.059,-0.037,-0.054
0.03,-0.168,-0.197,0.069,0.114,-0.182,0.096,0.122,0.064,-0.051,-0.039,-0.058
0.032,-0.186,-0.218,0.077,0.125,-0.201,0.095,0.086,0.056,-0.06,-0.042,-0.061
0.03,-0.175,-0.205,0.073,0.117,-0.19,0.094,0.067,0.038,-0.049,-0.039,-0.062
0.024,-0.184,-0.207,0.08,0.116,-0.195,0.097,0.058,0.027,-0.063,-0.074,-0.069
0.006,-0.192,-0.198,0.093,0.102,-0.195,0.092,0.051,0.039,-0.078,-0.073,-0.057
-0.02,-0.218,-0.198,0.119,0.089,-0.208,0.096,0.047,0.033,-0.091,-0.089,-0.065
-0.02,-0.213,-0.193,0.117,0.087,-0.203,0.084,0.039,0.035,-0.081,-0.071,-0.049
-0.003,-0.199,-0.196,0.102,0.096,-0.197,0.086,0.039,0.038,-0.085,-0.086,-0.06
-0.004,-0.198,-0.195,0.102,0.096,-0.196,0.077,0.023,0.028,-0.09,-0.079,-0.045
-0.029,-0.224,-0.195,0.127,0.083,-0.209,0.073,0.045,0.054,-0.073,-0.075,-0.057
-0.02,-0.25,-0.23,0.135,0.105,-0.24,0.075,0.1,0.025,-0.075,-0.108,-0.091
0.033,-0.094,-0.127,0.031,0.08,-0.11,0.065,0.278,0.339,0.24,0.134,0.047
-0.003,0.199,0.202,-0.098,-0.103,0.2,0.095,-0.037,0.576,0.632,0.619,0.451
0.049,0.585,0.536,-0.318,-0.243,0.56,-0.269,-1.007,-0.055,0.94,1.629,1.296
-0.066,0.511,0.577,-0.223,-0.322,0.544,-0.536,-1.325,-0.733,0.382,1.263,1.143
-0.236,-0.004,0.232,0.119,-0.234,0.114,-0.261,-0.873,-0.749,-0.574,-0.168,0.166
-0.113,-0.231,-0.119,0.172,0.003,-0.175,-0.056,-0.364,-0.348,-0.375,-0.203,-0.039
-0.071,-0.263,-0.192,0.167,0.061,-0.227,0.049,-0.057,-0.056,-0.118,-0.099,-0.067
-0.059,-0.238,-0.179,0.149,0.06,-0.208,0.089,0.026,0.015,-0.106,-0.117,-0.078
-0.082,-0.25,-0.168,0.166,0.043,-0.209,0.099,0.063,0.053,-0.043,-0.064,-0.065
-0.098,-0.272,-0.174,0.185,0.039,-0.223,0.116,0.089,0.072,-0.074,-0.113,-0.093
-0.078,-0.258,-0.18,0.168,0.051,-0.218,0.111,0.1,0.082,-0.039,-0.072,-0.064
-0.082,-0.263,-0.181,0.172,0.05,-0.222,0.118,0.092,0.079,-0.052,-0.103,-0.079
-0.061,-0.255,-0.194,0.158,0.067,-0.224,0.115,0.085,0.08,-0.034,-0.083,-0.061
-0.083,-0.255,-0.171,0.169,0.044,-0.213,0.122,0.106,0.092,-0.032,-0.083,-0.065
-0.08,-0.253,-0.173,0.167,0.047,-0.213,0.12,0.118,0.103,-0.02,-0.057,-0.058
-0.065,-0.24,-0.175,0.153,0.055,-0.207,0.113,0.107,0.091,-0.005,-0.046,-0.062
-0.061,-0.25,-0.189,0.156,0.064,-0.219,0.096,0.123,0.108,-0.001,-0.043,-0.075
-0.061,-0.264,-0.203,0.163,0.071,-0.234,0.08,0.147,0.119,0.009,-0.032,-0.069
-0.051,-0.242,-0.191,0.146,0.07,-0.216,0.074,0.145,0.113,0.013,-0.029,-0.063
-0.045,-0.236,-0.191,0.141,0.073,-0.213,0.071,0.142,0.136,0.022,-0.022,-0.055
-0.04,-0.224,-0.184,0.132,0.072,-0.204,0.068,0.139,0.137,0.027,-0.011,-0.049
-0.046,-0.227,-0.181,0.137,0.068,-0.204,0.063,0.151,0.142,0.04,-0.002,-0.015
-0.042,-0.217,-0.175,0.129,0.067,-0.196,0.06,0.183,0.163,0.062,0.023,0.005
-0.019,-0.186,-0.167,0.103,0.074,-0.177,0.055,0.212,0.182,0.094,0.054,0.006
0.013,-0.146,-0.159,0.067,0.086,-0.152,0.048,0.244,0.22,0.14,0.081,0.036
0.084,-0.068,-0.152,-0.008,0.118,-0.109,0.037,0.286,0.261,0.195,0.134,0.072
0.115,-0.015,-0.129,-0.05,0.122,-0.072,0.029,0.336,0.311,0.257,0.186,0.13
0.14,0.046,-0.093,-0.093,0.116,-0.023,0.003,0.373,0.361,0.325,0.244,0.17
0.151,0.09,-0.06,-0.12,0.105,0.015,-0.022,0.392,0.387,0.37,0.297,0.199
0.14,0.095,-0.045,-0.117,0.092,0.025,-0.059,0.392,0.401,0.401,0.339,0.244
0.161,0.116,-0.045,-0.138,0.103,0.036,-0.101,0.378,0.4,0.439,0.363,0.276
0.159,0.114,-0.045,-0.136,0.102,0.034,-0.101,0.367,0.387,0.437,0.372,0.288
0.127,0.079,-0.047,-0.103,0.087,0.016,-0.094,0.343,0.362,0.396,0.361,0.272
0.112,0.063,-0.049,-0.088,0.08,0.007,-0.065,0.295,0.318,0.341,0.327,0.258
0.087,0.006,-0.082,-0.046,0.085,-0.038,-0.046,0.225,0.253,0.249,0.25,0.211
0.029,-0.074,-0.103,0.023,0.066,-0.088,-0.036,0.167,0.182,0.152,0.16,0.144
-0.016,-0.142,-0.126,0.079,0.055,-0.134,-0.004,0.129,0.139,0.08,0.097,0.074
-0.033,-0.187,-0.155,0.11,0.061,-0.171,0.016,0.103,0.105,0.026,0.025,0.017
-0.046,-0.195,-0.149,0.121,0.051,-0.172,0.048,0.093,0.077,-0.015,-0.015,-0.003
-0.077,-0.225,-0.148,0.151,0.036,-0.186,0.062,0.085,0.06,-0.051,-0.042,-0.036
-0.099,-0.259,-0.16,0.179,0.031,-0.21,0.052,0.076,0.043,-0.073,-0.066,-0.061
-0.103,-0.263,-0.16,0.183,0.029,-0.211,0.051,0.07,0.035,-0.091,-0.074,-0.064
-0.111,-0.25,-0.139,0.18,0.014,-0.194,0.044,0.067,0.03,-0.096,-0.093,-0.066
-0.126,-0.28,-0.154,0.203,0.015,-0.217,0.041,0.063,0.025,-0.099,-0.106,-0.076
-0.127,-0.3,-0.173,0.214,0.024,-0.236,0.043,0.06,0.022,-0.107,-0.105,-0.082
-0.112,-0.287,-0.175,0.199,0.032,-0.23,0.046,0.054,0.015,-0.11,-0.109,-0.076
-0.092,-0.283,-0.19,0.188,0.049,-0.236,0.044,0.059,0.017,-0.115,-0.111,-0.074
-0.097,-0.289,-0.191,0.193,0.047,-0.24,0.038,0.077,0.027,-0.111,-0.105,-0.071
-0.101,-0.285,-0.184,0.193,0.042,-0.234,0.051,0.073,0.038,-0.102,-0.095,-0.068
-0.088,-0.264,-0.176,0.176,0.045,-0.22,0.062,0.078,0.045,-0.094,-0.085,-0.066
-0.081,-0.26,-0.179,0.171,0.049,-0.219,0.06,0.103,0.045,-0.089,-0.079,-0.062
-0.076,-0.256,-0.179,0.166,0.052,-0.217,0.058,0.101,0.046,-0.086,-0.076,-0.06
-0.066,-0.248,-0.182,0.157,0.058,-0.215,0.055,0.093,0.05,-0.083,-0.073,-0.062
-0.043,-0.245,-0.203,0.144,0.08,-0.224,0.055,0.091,0.05,-0.079,-0.068,-0.066
-0.029,-0.235,-0.206,0.133,0.089,-0.22,0.052,0.081,0.048,-0.075,-0.065,-0.068
-0.044,-0.247,-0.204,0.146,0.08,-0.225,0.049,0.086,0.044,-0.072,-0.065,-0.071
-0.067,-0.268,-0.201,0.168,0.068,-0.234,0.045,0.094,0.042,-0.069,-0.064,-0.074
-0.063,-0.263,-0.199,0.163,0.068,-0.23,0.045,0.089,0.039,-0.074,-0.07,-0.075
-0.075,-0.274,-0.199,0.175,0.063,-0.237,0.037,0.084,0.036,-0.081,-0.088,-0.07
-0.069,-0.263,-0.194,0.166,0.063,-0.228,0.049,0.078,0.035,-0.078,-0.099,-0.065
-0.057,-0.251,-0.193,0.154,0.068,-0.222,0.072,0.073,0.035,-0.075,-0.095,-0.061
-0.093,-0.282,-0.189,0.188,0.048,-0.235,0.07,0.068,0.035,-0.073,-0.087,-0.056
-0.092,-0.279,-0.187,0.186,0.048,-0.233,0.069,0.081,0.035,-0.069,-0.081,-0.051
-0.084,-0.268,-0.184,0.177,0.05,-0.226,0.065,0.097,0.035,-0.074,-0.073,-0.05
-0.063,-0.248,-0.185,0.156,0.062,-0.216,0.065,0.094,0.035,-0.075,-0.071,-0.05
-0.064,-0.249,-0.185,0.157,0.061,-0.217,0.064,0.095,0.033,-0.07,-0.075,-0.05
-0.074,-0.256,-0.182,0.166,0.054,-0.219,0.067,0.095,0.028,-0.068,-0.075,-0.049
-0.012,-0.227,-0.215,0.12,0.102,-0.22,0.079,0.095,0.025,-0.064,-0.075,-0.058
-0.028,-0.23,-0.202,0.13,0.087,-0.216,0.075,0.092,0.022,-0.059,-0.074,-0.067
-0.056,-0.234,-0.177,0.145,0.061,-0.205,0.07,0.089,0.017,-0.065,-0.076,-0.062
-0.044,-0.235,-0.191,0.139,0.074,-0.212,0.065,0.086,0.015,-0.07,-0.067,-0.06
-0.056,-0.242,-0.186,0.148,0.065,-0.214,0.058,0.083,0.026,-0.07,-0.052,-0.056
-0.04,-0.24,-0.2,0.141,0.081,-0.22,0.054,0.08,0.03,-0.075,-0.056,-0.054
-0.047,-0.255,-0.207,0.152,0.08,-0.231,0.049,0.08,0.018,-0.075,-0.054,-0.052
-0.064,-0.266,-0.202,0.166,0.069,-0.234,0.044,0.08,0.016,-0.078,-0.056,-0.049
-0.073,-0.275,-0.202,0.174,0.065,-0.238,0.04,0.08,0.014,-0.081,-0.069,-0.049
-0.074,-0.272,-0.198,0.173,0.062,-0.235,0.035,0.08,0.016,-0.079,-0.07,-0.043
-0.067,-0.267,-0.2,0.167,0.067,-0.233,0.03,0.08,0.029,-0.081,-0.071,-0.051
-0.075,-0.267,-0.192,0.171,0.059,-0.229,0.035,0.08,0.03,-0.079,-0.075,-0.065
-0.064,-0.256,-0.193,0.16,0.064,-0.224,0.043,0.077,0.024,-0.082,-0.075,-0.065
-0.063,-0.269,-0.206,0.166,0.072,-0.237,0.044,0.07,0.022,-0.085,-0.075,-0.065
-0.071,-0.281,-0.21,0.177,0.07,-0.245,0.039,0.069,0.017,-0.085,-0.075,-0.065
-0.107,-0.292,-0.185,0.2,0.039,-0.238,0.03,0.061,0.015,-0.086,-0.076,-0.066
-0.158,-0.316,-0.157,0.237,0.0,-0.236,0.025,0.063,0.016,-0.083,-0.072,-0.063
-0.114,-0.308,-0.194,0.211,0.04,-0.251,0.017,0.065,0.015,-0.095,-0.074,-0.056
-0.082,-0.3,-0.218,0.192,0.068,-0.259,0.011,0.08,0.016,-0.096,-0.073,-0.051
-0.091,-0.288,-0.197,0.189,0.053,-0.242,0.007,0.097,0.017,-0.09,-0.068,-0.045
-0.069,-0.272,-0.203,0.17,0.067,-0.237,-0.002,0.097,0.034,-0.064,-0.065,-0.039
-0.073,-0.265,-0.192,0.17,0.06,-0.229,0.023,0.122,0.052,-0.02,-0.048,-0.037
-0.055,-0.256,-0.201,0.156,0.073,-0.228,0.005,0.13,0.05,-0.025,-0.025,-0.03
-0.006,-0.253,-0.246,0.13,0.12,-0.249,-0.063,0.116,0.041,-0.046,-0.035,-0.029
0.0,-0.241,-0.242,0.121,0.121,-0.241,-0.041,0.096,0.027,-0.051,-0.033,-0.017
-0.012,-0.244,-0.232,0.128,0.11,-0.238,-0.004,0.077,0.02,-0.05,-0.04,-0.013
-0.022,-0.247,-0.224,0.135,0.101,-0.235,-0.001,0.074,-0.016,-0.061,-0.053,-0.039
-0.029,-0.247,-0.218,0.138,0.095,-0.232,0.024,0.073,-0.033,-0.074,-0.065,-0.059
-0.026,-0.244,-0.218,0.136,0.097,-0.231,0.026,0.05,-0.035,-0.079,-0.072,-0.055
-0.034,-0.241,-0.206,0.138,0.086,-0.223,0.022,0.056,-0.018,-0.059,-0.052,-0.045
-0.03,-0.242,-0.212,0.136,0.091,-0.226,0.028,0.036,-0.029,-0.081,-0.085,-0.058
-0.056,-0.244,-0.187,0.15,0.066,-0.215,0.01,0.052,-0.009,-0.048,-0.036,-0.029
-0.071,-0.295,-0.223,0.184,0.076,-0.259,0.034,0.071,-0.016,-0.075,-0.112,-0.076
0.013,-0.205,-0.218,0.096,0.115,-0.211,-0.006,0.156,0.065,0.057,0.01,-0.013
0.049,0.066,0.018,-0.058,0.015,0.042,0.027,0.265,0.5,0.489,0.38,0.269
0.091,0.477,0.387,-0.284,-0.148,0.432,-0.088,-0.377,0.342,0.886,1.263,1.018
0.048,0.697,0.649,-0.373,-0.3,0.673,-0.439,-1.067,-0.447,0.781,1.811,1.495
-0.151,0.353,0.504,-0.101,-0.328,0.429,-0.378,-0.939,-0.842,-0.249,0.419,0.629
-0.165,-0.078,0.087,0.121,-0.126,0.004,-0.159,-0.535,-0.648,-0.613,-0.341,0.018
-0.063,-0.24,-0.177,0.152,0.057,-0.208,-0.043,-0.157,-0.242,-0.193,-0.075,0.018
-0.037,-0.216,-0.179,0.127,0.071,-0.197,0.032,0.027,-0.068,-0.108,-0.12,-0.055
-0.029,-0.2,-0.171,0.115,0.071,-0.185,0.049,0.065,-0.021,-0.051,-0.042,-0.014
-0.044,-0.237,-0.193,0.141,0.074,-0.215,0.072,0.093,-0.001,-0.058,-0.078,-0.039
-0.08,-0.245,-0.165,0.163,0.043,-0.205,0.061,0.102,-0.005,-0.04,-0.052,-0.027
-0.083,-0.237,-0.155,0.16,0.036,-0.196,0.073,0.108,0.008,-0.021,-0.046,-0.03
-0.053,-0.24,-0.186,0.147,0.067,-0.213,0.068,0.106,0.004,-0.018,-0.046,-0.031
-0.004,-0.212,-0.208,0.108,0.102,-0.209,0.066,0.12,0.022,0.002,-0.023,-0.016
0.02,-0.177,-0.196,0.079,0.108,-0.187,0.082,0.144,0.054,-0.003,-0.025,-0.02
0.007,-0.187,-0.194,0.091,0.101,-0.191,0.072,0.147,0.061,0.013,-0.02,-0.003
0.003,-0.183,-0.186,0.091,0.094,-0.184,0.061,0.149,0.063,0.025,-0.029,-0.003
-0.027,-0.206,-0.178,0.117,0.076,-0.192,0.05,0.153,0.066,0.042,-0.004,0.002
-0.04,-0.206,-0.166,0.124,0.064,-0.186,0.043,0.155,0.069,0.041,0.001,0.014
-0.031,-0.19,-0.16,0.111,0.065,-0.174,0.037,0.157,0.071,0.043,0.009,0.014
-0.009,-0.183,-0.174,0.096,0.083,-0.178,0.032,0.161,0.069,0.06,0.033,0.034
0.019,-0.156,-0.175,0.069,0.097,-0.165,0.026,0.162,0.076,0.077,0.063,0.052
0.026,-0.145,-0.171,0.059,0.099,-0.158,0.021,0.168,0.081,0.086,0.071,0.054
0.026,-0.141,-0.167,0.057,0.097,-0.154,0.016,0.19,0.105,0.109,0.082,0.069
0.013,-0.144,-0.157,0.066,0.085,-0.15,0.003,0.215,0.131,0.147,0.121,0.086
0.035,-0.089,-0.125,0.028,0.08,-0.107,-0.001,0.223,0.156,0.182,0.152,0.113
0.056,-0.054,-0.109,-0.001,0.083,-0.081,-0.026,0.244,0.188,0.226,0.185,0.141
0.083,-0.029,-0.112,-0.027,0.098,-0.071,-0.055,0.281,0.22,0.281,0.242,0.179
0.118,0.045,-0.073,-0.081,0.095,-0.014,-0.077,0.308,0.249,0.336,0.3,0.226
0.117,0.076,-0.04,-0.096,0.078,0.018,-0.094,0.334,0.276,0.393,0.358,0.277
0.125,0.117,-0.008,-0.12,0.066,0.054,-0.102,0.329,0.296,0.428,0.404,0.324
0.132,0.131,-0.001,-0.131,0.066,0.065,-0.119,0.312,0.273,0.424,0.401,0.343
0.138,0.111,-0.027,-0.124,0.082,0.041,-0.12,0.298,0.245,0.407,0.388,0.342
0.13,0.107,-0.024,-0.118,0.077,0.041,-0.11,0.273,0.226,0.376,0.378,0.327
0.119,0.081,-0.038,-0.1,0.079,0.021,-0.075,0.221,0.169,0.311,0.33,0.295
0.075,0.019,-0.057,-0.046,0.066,-0.019,-0.051,0.157,0.111,0.213,0.247,0.228
0.065,-0.07,-0.135,0.002,0.1,-0.102,-0.051,0.148,0.088,0.125,0.163,0.15
-0.004,-0.131,-0.127,0.068,0.062,-0.129,-0.022,0.152,0.076,0.068,0.128,0.111
-0.062,-0.141,-0.079,0.102,0.009,-0.11,0.03,0.137,0.044,0.033,0.096,0.086
0.016,-0.119,-0.135,0.052,0.076,-0.127,0.065,0.116,0.01,-0.004,0.047,0.047
-0.035,-0.149,-0.114,0.092,0.04,-0.131,0.065,0.087,-0.013,-0.035,0.004,0.003
-0.101,-0.205,-0.104,0.154,0.002,-0.154,0.064,0.074,-0.032,-0.047,-0.035,-0.015
-0.101,-0.204,-0.104,0.153,0.002,-0.154,0.061,0.07,-0.03,-0.06,-0.045,-0.007
-0.068,-0.2,-0.132,0.134,0.032,-0.166,0.06,0.065,-0.046,-0.075,-0.059,-0.02
-0.062,-0.2,-0.137,0.131,0.038,-0.168,0.059,0.062,-0.058,-0.078,-0.065,-0.038
-0.073,-0.193,-0.119,0.133,0.023,-0.156,0.053,0.055,-0.053,-0.07,-0.056,-0.042
-0.052,-0.2,-0.148,0.126,0.048,-0.173,0.049,0.058,-0.056,-0.065,-0.054,-0.036
-0.049,-0.202,-0.153,0.125,0.052,-0.177,0.044,0.063,-0.055,-0.06,-0.048,-0.033
-0.038,-0.185,-0.147,0.112,0.055,-0.166,0.04,0.066,-0.055,-0.054,-0.045,-0.028
-0.039,-0.171,-0.132,0.105,0.047,-0.151,0.035,0.086,-0.05,-0.048,-0.039,-0.025
-0.007,-0.168,-0.162,0.088,0.077,-0.165,0.035,0.088,-0.051,-0.045,-0.034,-0.026
-0.002,-0.17,-0.168,0.087,0.083,-0.169,0.035,0.077,-0.048,-0.045,-0.028,-0.022
-0.013,-0.17,-0.158,0.092,0.072,-0.164,0.035,0.074,-0.046,-0.045,-0.024,-0.021
-0.013,-0.174,-0.161,0.094,0.074,-0.167,0.035,0.065,-0.043,-0.045,-0.014,-0.018
-0.022,-0.176,-0.153,0.1,0.066,-0.165,0.035,0.06,-0.056,-0.046,-0.027,-0.026
-0.018,-0.173,-0.155,0.096,0.068,-0.164,0.035,0.07,-0.081,-0.042,-0.055,-0.02
-0.023,-0.17,-0.148,0.097,0.063,-0.159,0.035,0.076,-0.083,-0.054,-0.056,-0.028
-0.022,-0.164,-0.141,0.093,0.06,-0.152,0.035,0.074,-0.087,-0.072,-0.05,-0.054
-0.034,-0.173,-0.139,0.104,0.053,-0.156,0.035,0.075,-0.082,-0.071,-0.052,-0.048
-0.069,-0.198,-0.129,0.134,0.03,-0.164,0.035,0.075,-0.088,-0.076,-0.071,-0.051
-0.074,-0.201,-0.128,0.138,0.027,-0.164,0.035,0.075,-0.107,-0.078,-0.077,-0.05
-0.061,-0.198,-0.137,0.13,0.038,-0.167,0.031,0.072,-0.101,-0.081,-0.074,-0.049
-0.054,-0.204,-0.15,0.13,0.048,-0.177,0.024,0.066,-0.098,-0.085,-0.076,-0.054
-0.057,-0.209,-0.152,0.133,0.048,-0.18,0.017,0.061,-0.096,-0.082,-0.075,-0.053
-0.095,-0.227,-0.132,0.161,0.019,-0.179,0.012,0.055,-0.088,-0.097,-0.082,-0.065
-0.088,-0.242,-0.154,0.166,0.033,-0.198,0.002,0.05,-0.104,-0.107,-0.086,-0.072
-0.065,-0.239,-0.174,0.152,0.054,-0.206,0.004,0.045,-0.116,-0.104,-0.089,-0.069
-0.084,-0.241,-0.158,0.162,0.037,-0.199,0.014,0.045,-0.108,-0.105,-0.094,-0.067
-0.097,-0.234,-0.137,0.166,0.02,-0.185,0.006,0.045,-0.105,-0.1,-0.095,-0.064
-0.053,-0.205,-0.152,0.129,0.05,-0.178,-0.003,0.045,-0.1,-0.095,-0.095,-0.066
-0.017,-0.194,-0.176,0.106,0.08,-0.185,-0.009,0.045,-0.095,-0.092,-0.094,-0.069
-0.039,-0.196,-0.157,0.118,0.06,-0.176,-0.001,0.049,-0.099,-0.085,-0.087,-0.072
-0.049,-0.194,-0.145,0.122,0.049,-0.169,0.008,0.051,-0.1,-0.088,-0.081,-0.075
-0.061,-0.196,-0.135,0.129,0.037,-0.165,0.006,0.05,-0.1,-0.09,-0.073,-0.077
-0.067,-0.193,-0.126,0.13,0.03,-0.159,0.0,0.05,-0.104,-0.09,-0.069,-0.081
-0.091,-0.202,-0.112,0.146,0.011,-0.157,-0.006,0.05,-0.106,-0.09,-0.059,-0.078
-0.083,-0.217,-0.134,0.15,0.025,-0.175,-0.011,0.05,-0.104,-0.089,-0.063,-0.089
-0.081,-0.222,-0.141,0.152,0.03,-0.181,-0.017,0.046,-0.106,-0.091,-0.084,-0.092
-0.12,-0.224,-0.104,0.172,-0.007,-0.164,-0.003,0.041,-0.102,-0.083,-0.086,-0.08
-0.1,-0.221,-0.12,0.161,0.01,-0.171,-0.027,0.036,-0.117,-0.097,-0.083,-0.077
-0.086,-0.218,-0.132,0.152,0.023,-0.175,-0.036,0.032,-0.137,-0.118,-0.082,-0.071
-0.091,-0.215,-0.123,0.153,0.017,-0.169,-0.001,0.027,-0.131,-0.112,-0.078,-0.068
-0.103,-0.214,-0.111,0.158,0.004,-0.162,-0.013,0.024,-0.129,-0.111,-0.083,-0.061
-0.106,-0.208,-0.102,0.157,-0.002,-0.154,-0.029,0.026,-0.124,-0.107,-0.098,-0.065
-0.099,-0.218,-0.118,0.159,0.01,-0.168,-0.038,0.024,-0.121,-0.106,-0.097,-0.076
-0.096,-0.219,-0.122,0.157,0.013,-0.17,-0.038,0.027,-0.116,-0.101,-0.088,-0.067
-0.098,-0.214,-0.116,0.156,0.009,-0.165,-0.03,0.023,-0.101,-0.087,-0.085,-0.061
-0.082,-0.2,-0.118,0.141,0.018,-0.159,-0.028,0.033,-0.089,-0.073,-0.077,-0.054
-0.026,-0.135,-0.109,0.081,0.042,-0.122,-0.023,0.072,-0.071,-0.053,-0.056,-0.047
0.017,-0.121,-0.139,0.052,0.079,-0.13,-0.017,0.105,-0.055,-0.034,-0.034,-0.045
0.071,-0.128,-0.199,0.029,0.135,-0.163,-0.054,0.108,-0.047,-0.024,-0.03,-0.044
0.057,-0.135,-0.192,0.039,0.125,-0.163,-0.085,0.067,-0.077,-0.045,-0.042,-0.043
0.008,-0.173,-0.181,0.083,0.095,-0.177,-0.045,0.052,-0.105,-0.061,-0.061,-0.036
0.007,-0.168,-0.175,0.081,0.091,-0.171,-0.033,0.043,-0.118,-0.086,-0.088,-0.045
-0.041,-0.173,-0.132,0.107,0.046,-0.152,-0.042,0.036,-0.137,-0.103,-0.083,-0.063
-0.084,-0.205,-0.122,0.145,0.019,-0.163,-0.024,0.026,-0.155,-0.122,-0.105,-0.083
-0.094,-0.194,-0.1,0.145,0.003,-0.146,-0.027,0.025,-0.148,-0.104,-0.078,-0.06
-0.073,-0.175,-0.102,0.124,0.015,-0.138,-0.004,0.027,-0.141,-0.105,-0.096,-0.076
-0.072,-0.148,-0.077,0.11,0.003,-0.112,-0.003,0.021,-0.143,-0.096,-0.078,-0.055
-0.071,-0.166,-0.095,0.119,0.012,-0.13,0.013,0.044,-0.106,-0.063,-0.074,-0.062
0.038,-0.157,-0.196,0.06,0.118,-0.176,-0.002,0.092,-0.103,-0.055,-0.094,-0.088
0.075,0.035,-0.04,-0.055,0.057,-0.002,-0.004,0.27,0.227,0.268,0.16,0.08
0.043,0.361,0.318,-0.202,-0.138,0.339,0.022,-0.114,0.414,0.678,0.708,0.544
0.078,0.736,0.657,-0.407,-0.289,0.696,-0.384,-1.079,-0.241,0.981,1.73,1.384
-0.05,0.591,0.641,-0.271,-0.346,0.616,-0.589,-1.326,-0.875,0.33,1.205,1.12
-0.222,0.044,0.267,0.089,-0.244,0.155,-0.308,-0.86,-0.862,-0.593,-0.203,0.145
-0.154,-0.167,-0.013,0.161,-0.07,-0.09,-0.145,-0.366,-0.477,-0.348,-0.178,-0.023
-0.09,-0.178,-0.087,0.134,-0.001,-0.132,-0.025,-0.079,-0.192,-0.136,-0.111,-0.067
-0.085,-0.162,-0.077,0.124,-0.004,-0.119,0.015,0.005,-0.118,-0.116,-0.119,-0.071
-0.067,-0.148,-0.081,0.108,0.007,-0.115,0.026,0.034,-0.092,-0.06,-0.075,-0.052
-0.073,-0.151,-0.079,0.112,0.003,-0.115,0.048,0.056,-0.084,-0.084,-0.11,-0.069
-0.049,-0.14,-0.09,0.094,0.021,-0.115,0.043,0.063,-0.072,-0.054,-0.065,-0.057
-0.038,-0.14,-0.102,0.089,0.032,-0.121,0.047,0.07,-0.065,-0.062,-0.09,-0.077
-0.023,-0.115,-0.092,0.069,0.035,-0.103,0.039,0.092,-0.065,-0.017,-0.06,-0.054
-0.009,-0.099,-0.09,0.054,0.041,-0.094,0.04,0.092,-0.063,-0.017,-0.07,-0.059
-0.024,-0.11,-0.086,0.068,0.031,-0.098,0.03,0.083,-0.06,-0.013,-0.057,-0.045
-0.029,-0.106,-0.077,0.068,0.024,-0.092,0.022,0.079,-0.059,-0.008,-0.052,-0.045
-0.041,-0.128,-0.087,0.085,0.023,-0.108,0.014,0.069,-0.063,-0.009,-0.049,-0.046
-0.052,-0.143,-0.09,0.098,0.019,-0.116,0.002,0.067,-0.072,-0.002,-0.039,-0.041
-0.063,-0.132,-0.069,0.098,0.004,-0.101,-0.012,0.069,-0.07,-0.003,-0.039,-0.041
-0.065,-0.133,-0.069,0.099,0.002,-0.101,-0.025,0.094,-0.065,0.012,-0.027,-0.039
-0.063,-0.126,-0.062,0.095,0.0,-0.094,-0.039,0.1,-0.062,0.015,-0.018,-0.042
-0.065,-0.126,-0.061,0.096,-0.002,-0.093,-0.052,0.106,-0.054,0.031,-0.003,-0.033
-0.038,-0.095,-0.056,0.067,0.009,-0.075,-0.056,0.136,-0.029,0.065,0.025,-0.014
0.005,-0.044,-0.049,0.02,0.027,-0.046,-0.051,0.154,0.006,0.099,0.058,0.027
0.03,-0.012,-0.042,-0.009,0.036,-0.027,-0.049,0.2,0.04,0.153,0.098,0.063
0.002,0.033,0.031,-0.018,-0.014,0.032,-0.081,0.231,0.079,0.203,0.146,0.105
0.011,0.077,0.066,-0.044,-0.028,0.071,-0.092,0.261,0.105,0.248,0.185,0.134
0.047,0.096,0.05,-0.072,-0.002,0.073,-0.108,0.294,0.133,0.301,0.227,0.148
0.026,0.13,0.104,-0.079,-0.039,0.117,-0.132,0.316,0.172,0.353,0.292,0.207
0.048,0.197,0.149,-0.123,-0.051,0.173,-0.138,0.337,0.183,0.402,0.35,0.265
0.091,0.227,0.136,-0.159,-0.023,0.182,-0.168,0.321,0.185,0.425,0.371,0.287
0.102,0.223,0.121,-0.163,-0.01,0.172,-0.171,0.303,0.175,0.415,0.372,0.294
0.095,0.205,0.111,-0.15,-0.008,0.158,-0.162,0.258,0.124,0.372,0.36,0.29
0.06,0.17,0.11,-0.115,-0.025,0.139,-0.141,0.198,0.069,0.32,0.318,0.261
0.019,0.1,0.081,-0.06,-0.031,0.09,-0.126,0.153,0.017,0.231,0.237,0.216
-0.064,-0.02,0.044,0.042,-0.054,0.012,-0.107,0.092,-0.049,0.127,0.148,0.136
-0.098,-0.063,0.035,0.08,-0.066,-0.014,-0.059,0.045,-0.101,0.067,0.073,0.045
-0.118,-0.091,0.026,0.104,-0.072,-0.032,-0.05,0.023,-0.133,0.009,0.019,-0.013
-0.16,-0.148,0.012,0.153,-0.086,-0.067,-0.039,0.001,-0.168,-0.057,-0.048,-0.049
-0.119,-0.127,-0.007,0.123,-0.056,-0.067,-0.017,-0.008,-0.186,-0.088,-0.089,-0.064
-0.081,-0.089,-0.009,0.085,-0.036,-0.049,0.0,-0.005,-0.169,-0.085,-0.083,-0.076
-0.075,-0.072,0.003,0.074,-0.039,-0.034,0.01,-0.002,-0.157,-0.083,-0.089,-0.07
-0.083,-0.076,0.007,0.079,-0.045,-0.034,0.023,0.001,-0.155,-0.081,-0.09,-0.064
-0.066,-0.072,-0.006,0.07,-0.03,-0.039,0.037,0.005,-0.154,-0.078,-0.092,-0.063
-0.02,-0.054,-0.034,0.037,0.007,-0.044,0.03,0.005,-0.156,-0.083,-0.1,-0.053
-0.074,-0.083,-0.009,0.078,-0.032,-0.046,0.029,-0.006,-0.154,-0.095,-0.107,-0.072
-0.14,-0.103,0.037,0.121,-0.088,-0.033,0.023,-0.009,-0.157,-0.095,-0.105,-0.086
-0.105,-0.09,0.016,0.097,-0.06,-0.037,0.022,0.011,-0.169,-0.095,-0.098,-0.078
-0.077,-0.079,-0.002,0.078,-0.038,-0.04,0.012,0.005,-0.165,-0.096,-0.093,-0.074
-0.063,-0.072,-0.009,0.068,-0.026,-0.041,-0.015,-0.016,-0.157,-0.092,-0.087,-0.071
-0.089,-0.087,0.002,0.088,-0.046,-0.042,-0.014,-0.008,-0.152,-0.084,-0.083,-0.063
-0.068,-0.076,-0.008,0.072,-0.03,-0.042,-0.009,0.003,-0.143,-0.076,-0.078,-0.069
-0.013,-0.04,-0.027,0.027,0.007,-0.033,-0.007,0.027,-0.142,-0.071,-0.073,-0.066
-0.033,-0.057,-0.024,0.045,-0.004,-0.04,-0.001,0.038,-0.149,-0.067,-0.068,-0.041
-0.045,-0.09,-0.045,0.068,0.0,-0.067,-0.001,0.028,-0.146,-0.066,-0.065,-0.056
-0.036,-0.063,-0.028,0.05,-0.004,-0.045,0.013,0.028,-0.133,-0.057,-0.056,-0.077
-0.057,-0.08,-0.023,0.069,-0.017,-0.052,0.024,0.021,-0.157,-0.078,-0.079,-0.074
-0.107,-0.127,-0.02,0.117,-0.044,-0.073,0.015,0.014,-0.179,-0.107,-0.113,-0.073
-0.109,-0.113,-0.004,0.112,-0.053,-0.058,0.01,0.006,-0.168,-0.108,-0.108,-0.068
-0.136,-0.139,-0.003,0.137,-0.066,-0.071,0.002,-0.002,-0.182,-0.112,-0.109,-0.082
-0.162,-0.166,-0.004,0.165,-0.079,-0.085,-0.004,-0.009,-0.197,-0.118,-0.123,-0.09
-0.164,-0.156,0.009,0.16,-0.086,-0.073,-0.009,-0.028,-0.194,-0.128,-0.121,-0.082
-0.195,-0.174,0.022,0.184,-0.108,-0.076,-0.025,-0.042,-0.195,-0.121,-0.114,-0.078
-0.157,-0.146,0.011,0.151,-0.084,-0.067,-0.027,-0.036,-0.195,-0.108,-0.108,-0.072
-0.092,-0.086,0.006,0.089,-0.049,-0.04,0.001,-0.031,-0.19,-0.103,-0.106,-0.065
-0.058,-0.055,0.003,0.057,-0.031,-0.026,0.028,-0.025,-0.182,-0.104,-0.11,-0.07
-0.033,-0.044,-0.01,0.039,-0.011,-0.027,0.027,-0.019,-0.175,-0.108,-0.112,-0.081
-0.045,-0.054,-0.009,0.05,-0.018,-0.032,0.018,-0.015,-0.172,-0.11,-0.115,-0.08
-0.027,-0.042,-0.015,0.035,-0.006,-0.028,0.013,-0.006,-0.174,-0.114,-0.118,-0.08
-0.04,-0.053,-0.013,0.047,-0.014,-0.032,0.006,-0.01,-0.186,-0.115,-0.12,-0.081
-0.098,-0.072,0.026,0.085,-0.062,-0.023,0.002,-0.02,-0.196,-0.119,-0.123,-0.079
-0.074,-0.068,0.007,0.071,-0.04,-0.03,-0.001,-0.02,-0.194,-0.12,-0.126,-0.083
-0.06,-0.075,-0.015,0.068,-0.022,-0.045,-0.005,-0.02,-0.195,-0.122,-0.129,-0.085
-0.076,-0.072,0.003,0.074,-0.039,-0.034,-0.008,-0.02,-0.195,-0.126,-0.132,-0.085
-0.092,-0.094,-0.002,0.092,-0.045,-0.047,-0.011,-0.03,-0.195,-0.124,-0.135,-0.09
-0.149,-0.146,0.004,0.147,-0.076,-0.071,-0.024,-0.036,-0.195,-0.125,-0.135,-0.092
-0.185,-0.152,0.033,0.168,-0.108,-0.06,-0.027,-0.037,-0.195,-0.124,-0.135,-0.1
-0.157,-0.126,0.031,0.141,-0.094,-0.047,-0.024,-0.042,-0.195,-0.126,-0.135,-0.104
-0.126,-0.106,0.02,0.116,-0.073,-0.043,-0.024,-0.044,-0.195,-0.124,-0.135,-0.1
-0.122,-0.102,0.02,0.112,-0.071,-0.041,-0.015,-0.045,-0.195,-0.125,-0.135,-0.095
-0.13,-0.137,-0.007,0.133,-0.061,-0.072,-0.004,-0.045,-0.194,-0.128,-0.135,-0.09
-0.171,-0.153,0.018,0.162,-0.095,-0.067,-0.004,-0.045,-0.208,-0.136,-0.139,-0.088
-0.189,-0.152,0.038,0.17,-0.113,-0.057,-0.015,-0.046,-0.2,-0.14,-0.144,-0.078
-0.186,-0.156,0.03,0.171,-0.108,-0.063,-0.025,-0.043,-0.209,-0.124,-0.148,-0.098
-0.185,-0.149,0.035,0.167,-0.11,-0.057,-0.034,-0.055,-0.228,-0.142,-0.15,-0.119
-0.146,-0.151,-0.005,0.149,-0.071,-0.078,-0.035,-0.071,-0.218,-0.156,-0.143,-0.111
-0.141,-0.149,-0.007,0.145,-0.067,-0.078,-0.035,-0.062,-0.22,-0.145,-0.14,-0.111
-0.155,-0.152,0.003,0.154,-0.079,-0.074,-0.036,-0.059,-0.21,-0.139,-0.134,-0.106
-0.154,-0.14,0.014,0.147,-0.083,-0.063,-0.034,-0.046,-0.215,-0.123,-0.132,-0.106
-0.107,-0.1,0.007,0.103,-0.057,-0.046,-0.037,0.002,-0.177,-0.109,-0.115,-0.092
-0.061,-0.06,0.001,0.06,-0.03,-0.029,-0.035,0.043,-0.13,-0.087,-0.078,-0.059
-0.019,-0.024,-0.004,0.021,-0.007,-0.014,-0.064,0.047,-0.127,-0.077,-0.065,-0.054
0.043,-0.021,-0.063,-0.011,0.053,-0.042,-0.081,0.016,-0.128,-0.081,-0.054,-0.056
0.041,-0.015,-0.056,-0.013,0.049,-0.035,-0.053,-0.011,-0.168,-0.083,-0.071,-0.053
0.027,-0.017,-0.044,-0.005,0.036,-0.03,-0.031,-0.03,-0.193,-0.098,-0.119,-0.058
0.009,-0.028,-0.037,0.009,0.023,-0.032,-0.022,-0.05,-0.186,-0.093,-0.104,-0.049
-0.006,-0.032,-0.026,0.019,0.01,-0.029,-0.001,-0.048,-0.181,-0.122,-0.112,-0.084
-0.001,-0.029,-0.028,0.015,0.014,-0.028,0.005,-0.053,-0.185,-0.13,-0.105,-0.084
-0.025,-0.039,-0.014,0.032,-0.005,-0.026,0.023,-0.033,-0.166,-0.116,-0.098,-0.084
-0.032,-0.057,-0.025,0.045,-0.003,-0.041,0.019,-0.054,-0.189,-0.134,-0.124,-0.09
-0.082,-0.061,0.021,0.071,-0.051,-0.02,0.002,-0.037,-0.18,-0.099,-0.119,-0.073
-0.077,-0.119,-0.042,0.098,-0.017,-0.08,0.008,0.023,-0.2,-0.146,-0.181,-0.125
0.013,-0.015,-0.029,0.001,0.021,-0.022,-0.034,0.165,0.007,0.086,0.023,-0.007
-0.007,0.321,0.328,-0.157,-0.168,0.324,0.041,0.069,0.403,0.536,0.458,0.347
0.087,0.764,0.677,-0.426,-0.295,0.72,-0.214,-0.805,-0.015,0.912,1.487,1.189
0.034,0.846,0.812,-0.441,-0.389,0.829,-0.552,-1.353,-0.783,0.574,1.556,1.348
-0.179,0.373,0.552,-0.097,-0.366,0.463,-0.342,-1.003,-0.952,-0.47,0.039,0.357
-0.122,0.039,0.161,0.041,-0.141,0.1,-0.136,-0.507,-0.627,-0.505,-0.28,-0.029
-0.049,-0.035,0.014,0.042,-0.031,-0.011,-0.023,-0.155,-0.287,-0.162,-0.105,-0.045
-0.062,-0.048,0.014,0.055,-0.038,-0.017,0.026,-0.031,-0.18,-0.145,-0.155,-0.094
-0.084,-0.028,0.056,0.056,-0.07,0.014,0.016,0.002,-0.126,-0.071,-0.064,-0.052
-0.078,-0.032,0.046,0.054,-0.062,0.007,0.044,0.024,-0.114,-0.1,-0.138,-0.071
-0.101,-0.051,0.05,0.075,-0.075,0.0,0.041,0.012,-0.117,-0.072,-0.095,-0.064
-0.083,-0.052,0.031,0.067,-0.057,-0.01,0.041,0.028,-0.111,-0.075,-0.11,-0.099
-0.058,-0.027,0.031,0.042,-0.044,0.002,0.033,0.054,-0.11,-0.069,-0.094,-0.08
-0.092,-0.044,0.048,0.068,-0.07,0.002,0.031,0.054,-0.099,-0.059,-0.087,-0.072
-0.082,-0.055,0.027,0.068,-0.055,-0.013,0.026,0.043,-0.102,-0.064,-0.088,-0.069
-0.084,-0.053,0.031,0.069,-0.057,-0.011,0.02,0.044,-0.089,-0.048,-0.075,-0.068
-0.078,-0.069,0.009,0.073,-0.044,-0.029,0.012,0.028,-0.096,-0.057,-0.08,-0.072
-0.104,-0.069,0.035,0.086,-0.069,-0.017,0.006,0.047,-0.095,-0.053,-0.067,-0.062
-0.126,-0.062,0.063,0.094,-0.094,0.0,-0.002,0.092,-0.072,-0.03,-0.068,-0.06
-0.105,-0.053,0.052,0.079,-0.078,-0.001,-0.009,0.09,-0.075,-0.011,-0.055,-0.052
-0.099,-0.04,0.059,0.069,-0.079,0.009,-0.017,0.093,-0.058,0.0,-0.052,-0.048
-0.071,-0.027,0.044,0.049,-0.057,0.009,-0.03,0.096,-0.063,-0.007,-0.043,-0.04
-0.049,-0.006,0.043,0.027,-0.046,0.018,-0.036,0.095,-0.049,0.018,-0.012,-0.013
-0.001,0.031,0.032,-0.015,-0.017,0.031,-0.035,0.116,-0.009,0.071,0.03,0.012
0.024,0.057,0.033,-0.04,-0.005,0.044,-0.034,0.144,0.024,0.112,0.072,0.04
-0.003,0.086,0.089,-0.042,-0.047,0.087,-0.056,0.163,0.062,0.148,0.101,0.07
-0.009,0.116,0.125,-0.054,-0.067,0.12,-0.068,0.192,0.09,0.195,0.144,0.087
-0.007,0.149,0.155,-0.071,-0.081,0.152,-0.093,0.231,0.139,0.263,0.21,0.143
0.039,0.203,0.164,-0.121,-0.063,0.183,-0.131,0.249,0.163,0.313,0.268,0.202
0.046,0.218,0.172,-0.133,-0.063,0.195,-0.157,0.256,0.176,0.36,0.322,0.242
0.046,0.25,0.204,-0.148,-0.079,0.227,-0.176,0.248,0.174,0.369,0.351,0.276
0.073,0.267,0.194,-0.17,-0.061,0.23,-0.177,0.231,0.163,0.358,0.343,0.286
0.03,0.215,0.185,-0.123,-0.078,0.199,-0.19,0.189,0.145,0.352,0.33,0.283
-0.003,0.174,0.177,-0.086,-0.09,0.175,-0.179,0.137,0.093,0.311,0.308,0.27
-0.003,0.154,0.157,-0.076,-0.08,0.155,-0.144,0.104,0.045,0.232,0.254,0.224
-0.039,0.103,0.142,-0.032,-0.091,0.122,-0.117,0.064,0.002,0.136,0.167,0.148
-0.096,0.036,0.132,0.029,-0.114,0.084,-0.083,0.032,-0.043,0.06,0.085,0.079
-0.125,-0.012,0.113,0.068,-0.119,0.05,-0.061,0.015,-0.096,-0.017,0.009,0.017
-0.159,-0.06,0.099,0.109,-0.129,0.019,-0.056,0.007,-0.129,-0.067,-0.051,-0.025
-0.148,-0.068,0.081,0.108,-0.114,0.006,-0.038,0.001,-0.135,-0.085,-0.081,-0.052
-0.119,-0.054,0.065,0.086,-0.091,0.005,-0.019,-0.006,-0.142,-0.102,-0.092,-0.055
-0.134,-0.048,0.086,0.091,-0.11,0.018,-0.007,-0.012,-0.145,-0.107,-0.101,-0.062
-0.12,-0.042,0.078,0.081,-0.099,0.018,0.004,-0.02,-0.145,-0.117,-0.107,-0.086
-0.089,-0.029,0.059,0.059,-0.074,0.015,0.005,-0.015,-0.147,-0.127,-0.11,-0.086
-0.096,-0.044,0.052,0.07,-0.073,0.004,0.007,-0.011,-0.15,-0.123,-0.111,-0.09
-0.108,-0.059,0.05,0.083,-0.079,-0.004,0.012,-0.003,-0.15,-0.116,-0.106,-0.092
-0.079,-0.042,0.037,0.061,-0.058,-0.002,0.007,-0.003,-0.15,-0.109,-0.104,-0.096
-0.101,-0.057,0.044,0.079,-0.072,-0.007,-0.02,-0.028,-0.15,-0.102,-0.101,-0.089
-0.135,-0.067,0.067,0.101,-0.1,0.0,-0.027,-0.031,-0.15,-0.096,-0.099,-0.055
-0.129,-0.067,0.062,0.098,-0.095,-0.003,-0.023,-0.029,-0.15,-0.091,-0.096,-0.051
-0.126,-0.071,0.054,0.098,-0.09,-0.008,-0.027,-0.031,-0.151,-0.09,-0.095,-0.065
-0.101,-0.065,0.036,0.082,-0.068,-0.014,-0.023,-0.029,-0.148,-0.09,-0.094,-0.066
-0.128,-0.065,0.064,0.096,-0.095,-0.001,-0.031,-0.031,-0.145,-0.091,-0.089,-0.064
-0.149,-0.066,0.083,0.108,-0.116,0.008,-0.039,-0.026,-0.143,-0.089,-0.091,-0.066
-0.127,-0.062,0.066,0.094,-0.096,0.002,-0.033,-0.025,-0.139,-0.093,-0.088,-0.064
-0.143,-0.078,0.065,0.11,-0.104,-0.006,-0.025,-0.024,-0.151,-0.103,-0.099,-0.067
-0.157,-0.104,0.053,0.13,-0.104,-0.025,-0.021,-0.021,-0.157,-0.115,-0.113,-0.078
-0.14,-0.096,0.044,0.118,-0.092,-0.026,-0.01,-0.018,-0.154,-0.116,-0.108,-0.065
-0.133,-0.084,0.049,0.108,-0.091,-0.018,-0.019,-0.025,-0.155,-0.118,-0.114,-0.068
-0.151,-0.084,0.067,0.117,-0.109,-0.008,-0.041,-0.035,-0.155,-0.137,-0.121,-0.081
-0.115,-0.06,0.055,0.088,-0.085,-0.002,-0.038,-0.029,-0.155,-0.134,-0.114,-0.073
-0.098,-0.065,0.034,0.081,-0.066,-0.015,-0.033,-0.024,-0.151,-0.123,-0.111,-0.069
-0.126,-0.085,0.041,0.105,-0.084,-0.022,-0.03,-0.018,-0.144,-0.117,-0.105,-0.063
-0.106,-0.067,0.039,0.086,-0.072,-0.014,-0.024,-0.011,-0.141,-0.109,-0.102,-0.056
-0.131,-0.064,0.067,0.097,-0.098,0.001,-0.021,-0.016,-0.133,-0.103,-0.096,-0.058
-0.119,-0.063,0.055,0.091,-0.087,-0.004,-0.016,-0.031,-0.129,-0.1,-0.097,-0.067
-0.09,-0.057,0.033,0.073,-0.061,-0.012,-0.014,-0.033,-0.124,-0.094,-0.117,-0.071
-0.118,-0.059,0.059,0.088,-0.088,0.001,-0.01,-0.035,-0.125,-0.103,-0.121,-0.073
-0.097,-0.051,0.046,0.074,-0.071,-0.002,-0.004,-0.048,-0.142,-0.129,-0.119,-0.076
-0.105,-0.06,0.045,0.082,-0.075,-0.008,-0.012,-0.048,-0.145,-0.127,-0.12,-0.079
-0.126,-0.084,0.041,0.105,-0.083,-0.021,-0.025,-0.041,-0.14,-0.12,-0.12,-0.08
-0.122,-0.09,0.032,0.105,-0.077,-0.029,-0.033,-0.038,-0.138,-0.118,-0.119,-0.081
-0.135,-0.082,0.053,0.108,-0.094,-0.015,-0.034,-0.033,-0.136,-0.112,-0.129,-0.086
-0.14,-0.082,0.058,0.111,-0.099,-0.011,-0.019,-0.027,-0.132,-0.109,-0.142,-0.083
-0.131,-0.078,0.053,0.104,-0.092,-0.012,-0.018,-0.045,-0.138,-0.126,-0.139,-0.089
-0.117,-0.071,0.046,0.094,-0.081,-0.012,-0.012,-0.058,-0.156,-0.146,-0.14,-0.1
-0.144,-0.101,0.042,0.122,-0.093,-0.029,-0.01,-0.053,-0.154,-0.145,-0.14,-0.094
-0.151,-0.116,0.035,0.133,-0.093,-0.04,-0.036,-0.07,-0.149,-0.143,-0.139,-0.088
-0.163,-0.131,0.032,0.147,-0.097,-0.05,-0.04,-0.077,-0.15,-0.154,-0.149,-0.084
-0.195,-0.148,0.047,0.171,-0.121,-0.05,-0.042,-0.07,-0.141,-0.16,-0.156,-0.075
-0.169,-0.127,0.042,0.147,-0.105,-0.043,-0.034,-0.07,-0.153,-0.155,-0.158,-0.086
-0.184,-0.131,0.053,0.157,-0.118,-0.039,-0.038,-0.064,-0.17,-0.153,-0.161,-0.101
-0.199,-0.132,0.066,0.165,-0.132,-0.033,-0.059,-0.066,-0.166,-0.149,-0.164,-0.092
-0.186,-0.136,0.05,0.16,-0.117,-0.043,-0.048,-0.068,-0.159,-0.145,-0.166,-0.086
-0.204,-0.153,0.051,0.178,-0.127,-0.051,-0.036,-0.064,-0.157,-0.144,-0.156,-0.081
-0.176,-0.141,0.035,0.158,-0.105,-0.053,-0.029,-0.051,-0.151,-0.148,-0.137,-0.069
-0.113,-0.092,0.021,0.103,-0.067,-0.035,-0.021,-0.043,-0.145,-0.143,-0.141,-0.085
-0.108,-0.051,0.057,0.079,-0.082,0.003,-0.019,-0.027,-0.131,-0.118,-0.131,-0.084
-0.072,-0.008,0.065,0.04,-0.068,0.028,-0.016,0.022,-0.091,-0.077,-0.116,-0.069
0.008,0.03,0.023,-0.019,-0.008,0.026,-0.004,0.043,-0.071,-0.063,-0.123,-0.07
-0.002,0.012,0.014,-0.005,-0.008,0.013,-0.061,0.03,-0.077,-0.071,-0.117,-0.069
-0.009,-0.013,-0.004,0.011,-0.002,-0.008,-0.103,-0.017,-0.106,-0.087,-0.125,-0.071
-0.02,-0.065,-0.046,0.042,0.013,-0.055,-0.069,-0.041,-0.125,-0.102,-0.113,-0.067
-0.071,-0.099,-0.029,0.085,-0.021,-0.064,-0.058,-0.061,-0.147,-0.136,-0.129,-0.073
-0.065,-0.072,-0.008,0.069,-0.028,-0.04,-0.054,-0.097,-0.166,-0.149,-0.135,-0.054
-0.107,-0.099,0.008,0.103,-0.057,-0.046,-0.035,-0.086,-0.156,-0.158,-0.152,-0.081
-0.147,-0.097,0.05,0.122,-0.099,-0.023,-0.035,-0.091,-0.161,-0.156,-0.146,-0.089
-0.158,-0.096,0.063,0.127,-0.11,-0.016,-0.016,-0.072,-0.145,-0.148,-0.148,-0.092
-0.145,-0.094,0.052,0.119,-0.098,-0.021,-0.015,-0.083,-0.16,-0.172,-0.174,-0.119
-0.115,-0.081,0.034,0.098,-0.074,-0.023,-0.004,-0.057,-0.12,-0.117,-0.141,-0.109
-0.046,-0.098,-0.052,0.072,0.003,-0.075,0.031,0.008,-0.128,-0.131,-0.181,-0.126
0.065,0.08,0.015,-0.073,0.025,0.047,-0.002,0.145,0.106,0.128,0.051,0.022
0.011,0.376,0.364,-0.194,-0.177,0.37,0.032,0.007,0.455,0.563,0.516,0.412
0.069,0.783,0.713,-0.426,-0.322,0.748,-0.248,-0.858,-0.037,0.901,1.558,1.267
-0.004,0.834,0.838,-0.415,-0.421,0.836,-0.533,-1.32,-0.776,0.49,1.497,1.331
-0.203,0.337,0.54,-0.067,-0.372,0.439,-0.325,-0.966,-0.923,-0.561,-0.072,0.315
-0.133,0.028,0.161,0.052,-0.147,0.094,-0.136,-0.499,-0.583,-0.517,-0.301,-0.031
-0.129,-0.042,0.087,0.086,-0.108,0.022,-0.022,-0.146,-0.215,-0.165,-0.11,-0.046
-0.107,-0.038,0.069,0.072,-0.087,0.015,0.027,-0.041,-0.107,-0.146,-0.161,-0.083
-0.063,-0.031,0.032,0.047,-0.047,0.001,0.039,-0.013,-0.08,-0.07,-0.078,-0.049
-0.027,-0.028,0.0,0.027,-0.013,-0.014,0.055,0.03,-0.075,-0.1,-0.134,-0.079
-0.043,-0.032,0.011,0.037,-0.026,-0.01,0.037,0.022,-0.071,-0.068,-0.088,-0.073
-0.111,-0.055,0.056,0.083,-0.083,0.001,0.034,0.012,-0.066,-0.077,-0.114,-0.093
-0.112,-0.066,0.045,0.089,-0.078,-0.01,0.024,0.005,-0.062,-0.061,-0.094,-0.081
-0.124,-0.08,0.044,0.102,-0.084,-0.018,0.005,-0.003,-0.055,-0.065,-0.105,-0.087
-0.125,-0.085,0.04,0.105,-0.082,-0.022,-0.009,0.024,-0.053,-0.08,-0.112,-0.084
-0.141,-0.102,0.039,0.121,-0.09,-0.031,0.007,0.049,-0.047,-0.06,-0.091,-0.074
-0.121,-0.082,0.04,0.101,-0.08,-0.021,0.003,0.043,-0.043,-0.055,-0.086,-0.066
-0.116,-0.085,0.032,0.1,-0.074,-0.027,-0.004,0.046,-0.022,-0.04,-0.071,-0.053
-0.108,-0.069,0.039,0.088,-0.073,-0.015,-0.004,0.045,-0.006,-0.034,-0.068,-0.047
-0.068,-0.045,0.024,0.056,-0.046,-0.011,-0.014,0.045,0.0,-0.022,-0.056,-0.038
-0.073,-0.056,0.017,0.064,-0.045,-0.019,-0.012,0.046,0.005,-0.009,-0.052,-0.033
-0.068,-0.023,0.046,0.045,-0.057,0.011,-0.013,0.058,0.012,0.012,-0.029,-0.001
-0.062,-0.008,0.054,0.035,-0.057,0.022,0.002,0.084,0.034,0.039,0.004,0.027
-0.028,0.0,0.028,0.014,-0.029,0.014,-0.008,0.102,0.054,0.062,0.019,0.02
-0.023,0.025,0.048,-0.001,-0.036,0.036,-0.031,0.126,0.092,0.106,0.048,0.041
-0.049,0.033,0.082,0.008,-0.066,0.057,-0.035,0.138,0.133,0.146,0.086,0.083
-0.029,0.039,0.068,-0.005,-0.049,0.053,-0.055,0.157,0.163,0.183,0.124,0.103
0.006,0.103,0.097,-0.055,-0.045,0.099,-0.068,0.202,0.212,0.253,0.185,0.145
0.058,0.176,0.118,-0.117,-0.03,0.147,-0.115,0.233,0.251,0.305,0.246,0.202
0.054,0.189,0.135,-0.122,-0.041,0.161,-0.148,0.242,0.262,0.349,0.301,0.25
0.033,0.2,0.167,-0.117,-0.067,0.184,-0.146,0.24,0.261,0.38,0.342,0.287
0.009,0.185,0.176,-0.098,-0.084,0.181,-0.154,0.223,0.24,0.366,0.351,0.288
-0.005,0.157,0.162,-0.076,-0.084,0.159,-0.15,0.178,0.206,0.363,0.357,0.304
0.009,0.139,0.13,-0.074,-0.061,0.134,-0.144,0.125,0.165,0.302,0.307,0.272
-0.012,0.126,0.138,-0.058,-0.075,0.132,-0.121,0.081,0.114,0.218,0.232,0.208
-0.022,0.085,0.107,-0.032,-0.065,0.096,-0.095,0.049,0.073,0.147,0.161,0.171
-0.078,-0.011,0.067,0.045,-0.073,0.028,-0.068,0.027,0.035,0.051,0.057,0.088
-0.147,-0.07,0.077,0.108,-0.111,0.003,-0.038,0.012,-0.017,-0.016,-0.006,0.025
-0.155,-0.081,0.074,0.118,-0.114,-0.003,-0.025,-0.007,-0.036,-0.061,-0.053,-0.005
-0.143,-0.08,0.063,0.111,-0.103,-0.008,-0.015,-0.028,-0.029,-0.079,-0.088,-0.029
-0.159,-0.103,0.056,0.131,-0.108,-0.023,-0.005,-0.037,-0.062,-0.105,-0.112,-0.056
-0.163,-0.118,0.045,0.14,-0.103,-0.036,0.008,-0.039,-0.073,-0.12,-0.135,-0.075
-0.147,-0.116,0.031,0.131,-0.089,-0.042,0.013,-0.033,-0.064,-0.125,-0.138,-0.073
-0.167,-0.122,0.045,0.145,-0.106,-0.038,0.009,-0.027,-0.066,-0.131,-0.151,-0.083
-0.154,-0.11,0.044,0.131,-0.098,-0.033,0.006,-0.023,-0.06,-0.119,-0.149,-0.075
-0.131,-0.102,0.029,0.116,-0.079,-0.037,0.006,-0.016,-0.06,-0.115,-0.137,-0.059
-0.068,-0.064,0.004,0.066,-0.036,-0.029,0.015,-0.012,-0.053,-0.107,-0.128,-0.049
-0.029,-0.031,-0.002,0.03,-0.013,-0.016,0.026,-0.006,-0.045,-0.1,-0.117,-0.037
-0.08,-0.041,0.039,0.06,-0.059,-0.001,0.027,-0.005,-0.038,-0.093,-0.108,-0.029
-0.044,-0.009,0.035,0.026,-0.039,0.013,0.019,-0.004,-0.028,-0.085,-0.1,-0.017
-0.001,0.024,0.025,-0.012,-0.013,0.025,0.017,0.012,-0.025,-0.082,-0.097,-0.01
0.006,0.004,-0.002,-0.005,0.004,0.001,0.041,0.013,-0.025,-0.085,-0.093,-0.01
0.004,-0.04,-0.044,0.018,0.024,-0.042,0.053,0.005,-0.026,-0.085,-0.09,-0.008
-0.08,-0.065,0.016,0.072,-0.048,-0.024,0.039,0.002,-0.025,-0.085,-0.084,-0.006
-0.092,-0.058,0.034,0.075,-0.063,-0.011,0.03,-0.006,-0.025,-0.085,-0.09,-0.002
-0.035,-0.061,-0.026,0.048,-0.004,-0.044,0.01,-0.009,-0.035,-0.086,-0.098,-0.021
-0.038,-0.059,-0.022,0.049,-0.008,-0.04,0.009,-0.006,-0.043,-0.08,-0.093,-0.038
-0.073,-0.064,0.009,0.069,-0.041,-0.027,0.03,-0.001,-0.044,-0.08,-0.09,-0.03
-0.071,-0.056,0.015,0.063,-0.043,-0.02,0.031,0.003,-0.04,-0.091,-0.087,-0.029
-0.032,-0.028,0.004,0.03,-0.018,-0.012,0.029,0.005,-0.032,-0.086,-0.081,-0.025
-0.034,-0.032,0.002,0.033,-0.018,-0.015,0.036,0.008,-0.026,-0.083,-0.08,-0.021
-0.019,-0.009,0.01,0.014,-0.015,0.001,0.041,0.011,-0.02,-0.08,-0.081,-0.019
0.011,-0.007,-0.018,-0.002,0.014,-0.013,0.04,0.015,-0.011,-0.075,-0.08,-0.015
0.027,-0.016,-0.043,-0.006,0.035,-0.029,0.038,0.015,-0.019,-0.074,-0.101,-0.014
-0.007,-0.01,-0.004,0.009,-0.001,-0.007,0.036,0.01,-0.024,-0.066,-0.117,-0.009
-0.008,-0.025,-0.017,0.017,0.005,-0.021,0.034,0.008,-0.016,-0.064,-0.114,-0.011
0.041,0.001,-0.04,-0.021,0.04,-0.019,0.039,0.003,-0.012,-0.058,-0.115,-0.017
0.02,0.009,-0.011,-0.014,0.015,-0.001,0.045,0.002,-0.005,-0.055,-0.115,-0.021
0.056,0.012,-0.044,-0.034,0.05,-0.016,0.045,-0.008,-0.016,-0.081,-0.115,-0.025
0.047,0.018,-0.03,-0.032,0.038,-0.006,0.045,-0.013,-0.028,-0.092,-0.112,-0.024
0.006,0.008,0.001,-0.007,0.003,0.004,0.045,0.003,-0.023,-0.082,-0.107,-0.017
0.03,0.011,-0.018,-0.02,0.024,-0.004,0.046,0.007,-0.021,-0.08,-0.105,-0.014
0.024,0.003,-0.021,-0.013,0.022,-0.009,0.042,0.005,-0.019,-0.075,-0.1,-0.008
0.014,0.008,-0.007,-0.011,0.01,0.0,0.04,0.005,-0.014,-0.07,-0.096,-0.005
0.03,0.026,-0.004,-0.028,0.017,0.01,0.039,0.002,-0.02,-0.075,-0.096,-0.022
0.04,0.014,-0.027,-0.027,0.033,-0.006,0.041,-0.001,-0.03,-0.078,-0.1,-0.036
0.029,-0.003,-0.032,-0.013,0.03,-0.017,0.039,0.001,-0.031,-0.076,-0.118,-0.036
0.04,-0.01,-0.05,-0.015,0.045,-0.03,0.041,0.01,-0.028,-0.073,-0.127,-0.041
0.037,-0.017,-0.055,-0.01,0.046,-0.036,0.066,0.009,-0.041,-0.078,-0.124,-0.044
0.007,-0.027,-0.034,0.01,0.02,-0.03,0.068,0.004,-0.057,-0.096,-0.125,-0.043
0.001,-0.031,-0.033,0.015,0.017,-0.032,0.061,0.002,-0.055,-0.093,-0.125,-0.038
-0.003,-0.031,-0.028,0.017,0.013,-0.03,0.056,-0.003,-0.055,-0.088,-0.124,-0.036
-0.024,-0.051,-0.027,0.038,0.002,-0.039,0.049,-0.005,-0.051,-0.087,-0.12,-0.032
-0.051,-0.077,-0.025,0.064,-0.012,-0.051,0.046,-0.015,-0.05,-0.08,-0.115,-0.029
-0.035,-0.056,-0.021,0.045,-0.007,-0.038,0.037,-0.023,-0.05,-0.083,-0.111,-0.052
0.004,-0.019,-0.023,0.008,0.014,-0.021,0.068,-0.018,-0.04,-0.087,-0.108,-0.058
-0.04,-0.054,-0.014,0.047,-0.013,-0.033,0.083,-0.018,-0.034,-0.083,-0.099,-0.045
-0.025,-0.058,-0.033,0.042,0.004,-0.045,0.082,-0.012,-0.023,-0.072,-0.11,-0.043
0.008,-0.009,-0.017,0.001,0.013,-0.013,0.087,-0.007,-0.019,-0.07,-0.115,-0.019
0.058,0.041,-0.017,-0.05,0.037,0.012,0.087,0.03,-0.003,-0.049,-0.082,0.007
0.159,0.096,-0.063,-0.127,0.111,0.016,0.093,0.077,0.016,-0.015,-0.047,0.018
0.15,0.094,-0.055,-0.122,0.102,0.019,0.056,0.08,0.007,-0.017,-0.03,0.027
0.137,0.048,-0.089,-0.092,0.113,-0.02,0.035,0.064,-0.003,-0.022,-0.044,0.026
0.103,0.002,-0.1,-0.052,0.102,-0.049,0.029,0.035,-0.024,-0.038,-0.061,0.018
0.06,-0.014,-0.074,-0.022,0.067,-0.044,0.034,0.013,-0.049,-0.067,-0.087,-0.019
0.063,-0.017,-0.08,-0.023,0.072,-0.048,0.033,-0.029,-0.068,-0.089,-0.116,-0.04
0.049,-0.01,-0.059,-0.02,0.054,-0.034,0.051,-0.048,-0.067,-0.092,-0.117,-0.029
0.017,-0.012,-0.028,-0.002,0.023,-0.02,0.1,-0.038,-0.074,-0.102,-0.132,-0.043
0.029,-0.003,-0.032,-0.013,0.031,-0.017,0.079,-0.023,-0.063,-0.074,-0.1,-0.025
0.059,0.021,-0.037,-0.04,0.048,-0.008,0.105,-0.021,-0.067,-0.091,-0.129,-0.047
0.062,0.039,-0.023,-0.05,0.042,0.008,0.104,-0.017,-0.062,-0.063,-0.087,-0.022
0.06,0.003,-0.058,-0.031,0.059,-0.027,0.102,0.006,-0.039,-0.07,-0.124,-0.049
0.08,-0.001,-0.081,-0.039,0.081,-0.041,0.075,0.079,0.004,-0.016,-0.086,-0.04
0.108,0.204,0.097,-0.156,0.005,0.15,0.085,0.221,0.387,0.373,0.215,0.174
0.117,0.581,0.464,-0.349,-0.174,0.523,0.053,-0.317,0.393,0.776,0.928,0.787
0.116,0.88,0.764,-0.498,-0.324,0.822,-0.368,-1.206,-0.373,0.906,1.825,1.539
-0.06,0.616,0.676,-0.278,-0.368,0.645,-0.45,-1.24,-0.879,0.026,0.808,0.936
-0.144,0.122,0.266,0.011,-0.205,0.194,-0.17,-0.747,-0.732,-0.631,-0.357,0.067
-0.021,-0.038,-0.017,0.029,-0.002,-0.027,-0.018,-0.301,-0.325,-0.254,-0.153,0.035
0.051,-0.022,-0.073,-0.014,0.062,-0.047,0.097,-0.072,-0.089,-0.123,-0.168,-0.034
0.073,0.006,-0.068,-0.04,0.071,-0.031,0.108,-0.025,-0.037,-0.074,-0.114,-0.029
0.06,-0.013,-0.073,-0.023,0.067,-0.043,0.115,0.008,-0.006,-0.048,-0.108,-0.027
0.036,-0.025,-0.061,-0.005,0.049,-0.043,0.116,0.027,0.005,-0.057,-0.121,-0.037
0.004,-0.024,-0.028,0.01,0.016,-0.026,0.124,0.04,0.014,-0.032,-0.094,-0.022
-0.011,-0.055,-0.044,0.033,0.017,-0.049,0.128,0.04,0.012,-0.047,-0.115,-0.044
-0.026,-0.07,-0.044,0.048,0.009,-0.057,0.112,0.042,0.01,-0.024,-0.089,-0.048
-0.025,-0.059,-0.034,0.042,0.005,-0.046,0.112,0.046,0.009,-0.031,-0.103,-0.055
-0.008,-0.044,-0.035,0.026,0.014,-0.039,0.101,0.046,0.011,-0.033,-0.083,-0.039
-0.013,-0.064,-0.051,0.039,0.019,-0.057,0.097,0.053,0.028,-0.036,-0.087,-0.038
-0.015,-0.078,-0.062,0.047,0.024,-0.07,0.089,0.06,0.024,-0.021,-0.076,-0.028
0.002,-0.055,-0.056,0.027,0.03,-0.055,0.082,0.061,0.019,-0.013,-0.072,-0.021
0.005,-0.041,-0.046,0.018,0.026,-0.044,0.082,0.069,0.021,-0.002,-0.068,-0.014
0.015,-0.012,-0.027,-0.001,0.022,-0.02,0.086,0.069,0.019,0.017,-0.057,-0.004
0.054,0.009,-0.046,-0.031,0.05,-0.018,0.085,0.081,0.025,0.032,-0.048,0.001
0.099,0.052,-0.047,-0.075,0.072,0.003,0.074,0.107,0.048,0.061,-0.033,0.018
0.142,0.099,-0.043,-0.12,0.093,0.028,0.056,0.115,0.077,0.081,-0.014,0.039
0.15,0.103,-0.048,-0.126,0.099,0.027,0.047,0.138,0.089,0.113,0.02,0.047
0.142,0.102,-0.04,-0.122,0.091,0.031,0.052,0.158,0.119,0.152,0.052,0.064
0.155,0.125,-0.03,-0.14,0.092,0.047,0.026,0.198,0.157,0.195,0.103,0.109
0.182,0.174,-0.008,-0.178,0.095,0.083,0.0,0.234,0.182,0.255,0.145,0.145
0.148,0.192,0.044,-0.17,0.052,0.118,-0.028,0.26,0.225,0.306,0.192,0.182
0.143,0.227,0.084,-0.185,0.029,0.155,-0.058,0.294,0.261,0.357,0.262,0.236
0.187,0.264,0.077,-0.225,0.054,0.17,-0.068,0.298,0.261,0.397,0.305,0.27
0.178,0.273,0.096,-0.226,0.041,0.184,-0.094,0.286,0.253,0.395,0.325,0.291
0.173,0.285,0.112,-0.229,0.03,0.198,-0.1,0.28,0.249,0.387,0.324,0.31
0.165,0.265,0.101,-0.215,0.032,0.182,-0.079,0.255,0.236,0.382,0.31,0.301
0.167,0.241,0.074,-0.204,0.046,0.157,-0.059,0.178,0.168,0.309,0.271,0.267
0.14,0.183,0.043,-0.162,0.049,0.112,-0.034,0.115,0.104,0.218,0.196,0.212
0.084,0.123,0.039,-0.104,0.022,0.081,-0.015,0.081,0.074,0.143,0.118,0.144
0.065,0.1,0.035,-0.083,0.015,0.067,0.017,0.051,0.027,0.058,0.041,0.101
0.027,0.041,0.014,-0.034,0.006,0.027,0.05,0.035,-0.002,0.004,-0.035,0.043
0.047,0.026,-0.021,-0.036,0.034,0.003,0.056,0.017,-0.03,-0.041,-0.083,-0.008
0.082,0.023,-0.06,-0.052,0.071,-0.018,0.073,0.002,-0.056,-0.071,-0.101,-0.016
0.003,-0.033,-0.036,0.015,0.02,-0.034,0.076,-0.014,-0.063,-0.091,-0.136,-0.047
-0.041,-0.048,-0.007,0.044,-0.017,-0.027,0.072,-0.032,-0.067,-0.113,-0.159,-0.068
-0.024,-0.042,-0.018,0.033,-0.003,-0.03,0.077,-0.034,-0.065,-0.115,-0.151,-0.064
-0.028,-0.041,-0.013,0.034,-0.007,-0.027,0.074,-0.025,-0.065,-0.112,-0.162,-0.064
-0.001,-0.037,-0.036,0.02,0.018,-0.037,0.075,-0.019,-0.062,-0.109,-0.165,-0.073
0.011,-0.034,-0.045,0.012,0.029,-0.04,0.075,-0.016,-0.059,-0.106,-0.152,-0.063
-0.009,-0.035,-0.025,0.022,0.008,-0.03,0.073,-0.022,-0.06,-0.105,-0.15,-0.038
-0.002,-0.025,-0.023,0.014,0.011,-0.023,0.062,-0.019,-0.055,-0.098,-0.147,-0.049
-0.018,-0.027,-0.009,0.023,-0.004,-0.018,0.054,-0.022,-0.055,-0.087,-0.144,-0.062
-0.015,-0.015,-0.001,0.015,-0.007,-0.008,0.045,-0.018,-0.055,-0.085,-0.141,-0.059
0.011,-0.018,-0.03,0.004,0.021,-0.024,0.037,0.006,-0.055,-0.092,-0.139,-0.059
-0.017,-0.039,-0.022,0.028,0.003,-0.031,0.039,0.008,-0.055,-0.089,-0.136,-0.054
0.01,-0.014,-0.024,0.002,0.017,-0.019,0.031,-0.003,-0.052,-0.091,-0.134,-0.055
0.007,-0.043,-0.05,0.018,0.029,-0.046,0.02,-0.007,-0.05,-0.09,-0.136,-0.052
-0.037,-0.06,-0.023,0.049,-0.007,-0.041,0.015,-0.014,-0.049,-0.092,-0.133,-0.047
-0.011,-0.057,-0.045,0.034,0.017,-0.051,0.0,-0.026,-0.052,-0.101,-0.141,-0.048
-0.016,-0.06,-0.044,0.038,0.014,-0.052,0.006,-0.029,-0.046,-0.094,-0.142,-0.037
-0.03,-0.058,-0.028,0.044,0.0,-0.042,0.011,-0.037,-0.064,-0.117,-0.152,-0.054
0.003,-0.05,-0.053,0.024,0.028,-0.051,-0.016,-0.027,-0.065,-0.122,-0.15,-0.067
0.035,-0.008,-0.043,-0.013,0.04,-0.026,-0.004,-0.022,-0.051,-0.108,-0.139,-0.052
-0.014,-0.039,-0.026,0.027,0.006,-0.032,0.009,-0.046,-0.071,-0.127,-0.161,-0.06
-0.05,-0.075,-0.025,0.063,-0.012,-0.05,0.004,-0.045,-0.065,-0.125,-0.16,-0.061
-0.021,-0.07,-0.048,0.046,0.014,-0.058,0.003,-0.045,-0.059,-0.123,-0.159,-0.059
-0.026,-0.078,-0.052,0.052,0.013,-0.065,-0.001,-0.046,-0.058,-0.121,-0.161,-0.061
-0.042,-0.09,-0.048,0.066,0.003,-0.069,-0.003,-0.044,-0.049,-0.118,-0.158,-0.059
-0.042,-0.089,-0.047,0.066,0.002,-0.068,-0.006,-0.048,-0.053,-0.124,-0.164,-0.064
-0.048,-0.092,-0.044,0.07,-0.002,-0.067,-0.001,-0.05,-0.055,-0.131,-0.171,-0.071
-0.037,-0.082,-0.045,0.06,0.004,-0.063,0.009,-0.054,-0.055,-0.132,-0.176,-0.076
-0.014,-0.053,-0.039,0.034,0.013,-0.046,0.013,-0.056,-0.058,-0.129,-0.174,-0.075
-0.036,-0.077,-0.04,0.057,0.002,-0.058,0.008,-0.059,-0.06,-0.131,-0.176,-0.073
-0.05,-0.091,-0.04,0.071,-0.005,-0.065,0.002,-0.06,-0.06,-0.13,-0.179,-0.079
-0.031,-0.071,-0.039,0.051,0.004,-0.055,-0.003,-0.055,-0.053,-0.13,-0.18,-0.087
-0.029,-0.073,-0.044,0.051,0.007,-0.058,-0.01,-0.055,-0.042,-0.132,-0.18,-0.08
-0.014,-0.051,-0.037,0.033,0.012,-0.044,-0.018,-0.054,-0.033,-0.135,-0.18,-0.06
-0.006,-0.043,-0.036,0.025,0.015,-0.039,-0.024,-0.049,-0.026,-0.138,-0.18,-0.062
-0.046,-0.075,-0.028,0.061,-0.009,-0.051,-0.019,-0.052,-0.019,-0.141,-0.178,-0.077
-0.054,-0.081,-0.027,0.068,-0.013,-0.054,-0.016,-0.045,-0.013,-0.144,-0.174,-0.074
-0.036,-0.068,-0.032,0.053,-0.002,-0.05,-0.013,-0.052,-0.006,-0.145,-0.175,-0.073
-0.068,-0.073,-0.005,0.071,-0.031,-0.039,-0.009,-0.071,0.0,-0.145,-0.169,-0.069
-0.059,-0.083,-0.024,0.071,-0.017,-0.053,-0.004,-0.07,-0.01,-0.145,-0.171,-0.07
-0.024,-0.07,-0.046,0.047,0.011,-0.058,-0.006,-0.07,-0.026,-0.145,-0.191,-0.082
-0.091,-0.096,-0.005,0.093,-0.043,-0.05,-0.004,-0.07,-0.037,-0.143,-0.196,-0.083
-0.129,-0.116,0.012,0.122,-0.071,-0.051,-0.008,-0.07,-0.041,-0.138,-0.194,-0.075
-0.093,-0.102,-0.009,0.098,-0.042,-0.055,-0.014,-0.067,-0.04,-0.152,-0.192,-0.072
-0.076,-0.108,-0.032,0.092,-0.021,-0.07,-0.015,-0.065,-0.044,-0.166,-0.19,-0.064
-0.06,-0.093,-0.033,0.077,-0.013,-0.063,-0.015,-0.064,-0.045,-0.157,-0.191,-0.064
-0.077,-0.086,-0.009,0.082,-0.034,-0.047,-0.014,-0.066,-0.045,-0.156,-0.197,-0.084
-0.086,-0.066,0.021,0.076,-0.053,-0.022,-0.019,-0.063,-0.037,-0.145,-0.193,-0.082
-0.048,-0.04,0.008,0.044,-0.028,-0.015,-0.022,-0.067,-0.031,-0.146,-0.193,-0.077
-0.012,-0.03,-0.018,0.022,0.003,-0.024,-0.041,-0.051,-0.014,-0.128,-0.182,-0.072
0.038,0.048,0.011,-0.043,0.013,0.029,-0.017,0.013,0.029,-0.075,-0.133,-0.042
0.123,0.09,-0.033,-0.107,0.078,0.028,-0.03,0.03,0.05,-0.057,-0.115,-0.005
0.114,0.035,-0.079,-0.074,0.097,-0.022,-0.085,-0.007,0.036,-0.074,-0.131,-0.018
0.089,0.028,-0.061,-0.058,0.074,-0.016,-0.065,-0.035,0.017,-0.092,-0.136,-0.05
0.097,0.02,-0.077,-0.058,0.087,-0.028,-0.035,-0.061,0.008,-0.12,-0.17,-0.058
0.064,-0.011,-0.074,-0.026,0.069,-0.042,-0.03,-0.078,-0.01,-0.144,-0.186,-0.059
0.072,-0.002,-0.074,-0.035,0.074,-0.038,-0.011,-0.062,-0.015,-0.125,-0.167,-0.05
0.027,-0.019,-0.046,-0.004,0.036,-0.032,0.013,-0.073,-0.041,-0.143,-0.189,-0.057
-0.036,-0.044,-0.007,0.04,-0.014,-0.026,0.001,-0.086,-0.046,-0.146,-0.188,-0.074
-0.053,-0.061,-0.008,0.057,-0.022,-0.034,0.003,-0.11,-0.063,-0.171,-0.219,-0.102
-0.031,-0.029,0.002,0.03,-0.017,-0.013,0.005,-0.076,-0.049,-0.139,-0.171,-0.083
-0.018,-0.084,-0.065,0.052,0.024,-0.074,-0.008,-0.067,-0.054,-0.159,-0.208,-0.121
0.017,-0.071,-0.089,0.027,0.053,-0.08,-0.066,0.004,0.013,-0.069,-0.15,-0.077
0.035,0.192,0.158,-0.114,-0.062,0.175,-0.004,0.116,0.436,0.352,0.175,0.17
0.025,0.575,0.55,-0.301,-0.263,0.563,-0.104,-0.576,0.299,0.755,0.995,0.866
0.035,0.817,0.782,-0.426,-0.373,0.799,-0.535,-1.364,-0.48,0.779,1.678,1.448
-0.173,0.458,0.631,-0.142,-0.403,0.544,-0.523,-1.27,-0.897,-0.233,0.41,0.665
-0.172,0.044,0.216,0.064,-0.194,0.129,-0.239,-0.766,-0.684,-0.697,-0.497,-0.057
-0.055,-0.074,-0.019,0.065,-0.018,-0.046,-0.103,-0.323,-0.268,-0.256,-0.2,-0.031
-0.055,-0.048,0.007,0.051,-0.031,-0.02,-0.006,-0.136,-0.096,-0.222,-0.299,-0.121
