0.03,0.005,-0.024,-0.017,0.027,-0.009,0.04,-0.01,0.025,-0.051,-0.06,-0.046
0.029,-0.001,-0.03,-0.014,0.03,-0.015,0.038,-0.01,0.025,-0.053,-0.06,-0.048
0.035,-0.01,-0.045,-0.012,0.04,-0.028,0.032,-0.014,0.022,-0.05,-0.06,-0.044
0.059,0.02,-0.038,-0.039,0.048,-0.009,0.029,-0.015,0.019,-0.047,-0.06,-0.042
0.059,0.026,-0.033,-0.042,0.046,-0.004,0.024,-0.009,0.016,-0.044,-0.06,-0.039
0.043,0.014,-0.029,-0.028,0.036,-0.008,0.019,-0.007,0.014,-0.04,-0.059,-0.036
0.049,0.03,-0.02,-0.04,0.034,0.005,0.029,-0.015,0.026,-0.041,-0.055,-0.034
0.041,0.013,-0.028,-0.027,0.034,-0.007,0.032,-0.019,0.032,-0.05,-0.052,-0.036
0.059,0.013,-0.046,-0.035,0.052,-0.016,0.03,-0.015,0.027,-0.049,-0.048,-0.034
0.061,0.02,-0.04,-0.04,0.05,-0.01,0.024,-0.01,0.026,-0.044,-0.046,-0.04
0.043,0.009,-0.034,-0.026,0.038,-0.012,0.031,-0.005,0.022,-0.043,-0.038,-0.052
0.039,0.005,-0.033,-0.022,0.036,-0.014,0.046,-0.003,0.021,-0.036,-0.048,-0.048
0.021,-0.002,-0.023,-0.009,0.022,-0.012,0.04,0.006,0.017,-0.036,-0.062,-0.045
0.022,-0.008,-0.03,-0.007,0.026,-0.019,0.034,-0.001,0.015,-0.04,-0.059,-0.042
0.029,-0.012,-0.041,-0.008,0.036,-0.027,0.033,-0.009,0.012,-0.037,-0.06,-0.04
0.045,0.006,-0.038,-0.025,0.041,-0.016,0.023,-0.011,0.009,-0.03,-0.055,-0.038
0.05,0.025,-0.025,-0.037,0.037,0.0,0.033,-0.014,0.032,-0.026,-0.055,-0.035
0.052,0.017,-0.035,-0.034,0.043,-0.008,0.056,-0.008,0.043,-0.045,-0.054,-0.035
0.076,0.012,-0.064,-0.044,0.07,-0.026,0.05,-0.021,0.039,-0.061,-0.049,-0.032
0.053,0.002,-0.051,-0.027,0.052,-0.024,0.044,-0.013,0.04,-0.055,-0.05,-0.029
0.061,0.013,-0.048,-0.037,0.054,-0.017,0.043,-0.001,0.034,-0.05,-0.05,-0.031
0.085,0.027,-0.057,-0.056,0.071,-0.015,0.034,-0.023,0.036,-0.047,-0.05,-0.04
0.07,0.016,-0.054,-0.043,0.062,-0.018,0.039,-0.031,0.032,-0.04,-0.05,-0.039
0.066,0.017,-0.05,-0.041,0.057,-0.016,0.054,-0.024,0.026,-0.043,-0.054,-0.034
0.05,0.008,-0.042,-0.028,0.045,-0.017,0.049,-0.018,0.021,-0.056,-0.055,-0.032
0.049,0.008,-0.042,-0.028,0.045,-0.017,0.039,-0.014,0.015,-0.051,-0.055,-0.027
0.02,-0.004,-0.025,-0.008,0.022,-0.014,0.037,-0.003,0.011,-0.049,-0.06,-0.025
0.029,-0.019,-0.049,-0.005,0.039,-0.034,0.024,-0.019,0.003,-0.044,-0.06,-0.029
0.048,-0.01,-0.058,-0.019,0.053,-0.033,0.031,-0.025,0.02,-0.041,-0.059,-0.027
0.045,-0.004,-0.048,-0.02,0.047,-0.026,0.047,0.001,0.028,-0.037,-0.05,-0.019
0.099,0.051,-0.049,-0.075,0.074,0.001,0.052,-0.009,0.045,-0.028,-0.04,-0.013
0.12,0.094,-0.027,-0.107,0.073,0.033,0.071,0.001,0.075,-0.022,-0.024,-0.003
0.112,0.102,-0.01,-0.107,0.061,0.045,0.081,0.037,0.089,0.02,-0.002,0.017
0.125,0.136,0.01,-0.131,0.057,0.073,0.064,0.058,0.108,0.044,0.007,0.039
0.159,0.136,-0.023,-0.147,0.091,0.056,0.021,0.047,0.092,0.029,0.009,0.036
0.187,0.11,-0.077,-0.148,0.132,0.016,-0.02,0.001,0.084,0.029,0.005,0.025
0.162,0.062,-0.1,-0.112,0.13,-0.019,-0.014,-0.02,0.075,0.006,-0.019,0.015
0.102,0.014,-0.088,-0.058,0.095,-0.037,0.021,-0.028,0.047,-0.017,-0.043,-0.003
0.081,0.004,-0.078,-0.042,0.079,-0.037,0.029,-0.035,0.019,-0.053,-0.07,-0.037
0.04,-0.029,-0.069,-0.005,0.055,-0.049,0.021,-0.032,0.031,-0.053,-0.062,-0.04
0.023,-0.049,-0.072,0.013,0.048,-0.06,0.013,-0.061,0.019,-0.073,-0.065,-0.039
0.053,-0.023,-0.076,-0.014,0.065,-0.05,0.008,-0.054,-0.001,-0.083,-0.068,-0.043
0.023,-0.033,-0.056,0.006,0.04,-0.044,0.026,-0.026,0.026,-0.058,-0.07,-0.048
-0.063,-0.029,0.034,0.046,-0.049,0.002,0.165,0.135,0.05,-0.107,-0.157,-0.13
0.069,0.074,0.005,-0.071,0.032,0.04,0.158,0.283,0.328,0.117,-0.002,-0.029
0.624,0.338,-0.286,-0.481,0.454,0.026,-0.376,-0.305,0.331,0.477,0.516,0.438
1.155,0.698,-0.458,-0.926,0.806,0.12,-1.085,-1.281,0.115,0.905,1.185,1.073
1.117,0.423,-0.694,-0.769,0.905,-0.136,-1.16,-1.507,-0.145,0.585,0.942,0.994
0.493,-0.172,-0.665,-0.161,0.579,-0.418,-0.551,-1.043,-0.686,-0.442,-0.052,0.226
0.006,-0.213,-0.22,0.104,0.113,-0.216,-0.113,-0.622,-0.617,-0.514,-0.29,-0.105
-0.065,-0.166,-0.101,0.116,0.019,-0.134,0.03,-0.319,-0.267,-0.259,-0.198,-0.115
0.014,-0.088,-0.102,0.038,0.058,-0.095,0.053,-0.103,-0.1,-0.162,-0.148,-0.087
0.058,-0.004,-0.062,-0.027,0.06,-0.032,0.023,-0.038,0.043,-0.045,-0.066,-0.033
0.027,-0.037,-0.063,0.005,0.045,-0.05,0.06,0.002,0.06,-0.051,-0.067,-0.03
0.078,-0.005,-0.084,-0.036,0.081,-0.044,0.053,0.044,0.085,-0.014,-0.042,-0.018
0.064,-0.024,-0.088,-0.02,0.076,-0.056,0.069,0.061,0.088,-0.017,-0.045,-0.021
0.085,0.012,-0.072,-0.048,0.078,-0.029,0.07,0.066,0.104,0.01,-0.03,-0.013
0.107,0.037,-0.07,-0.072,0.088,-0.017,0.059,0.078,0.121,0.019,-0.024,-0.011
0.094,0.02,-0.074,-0.057,0.084,-0.027,0.064,0.081,0.132,0.023,-0.015,-0.008
0.131,0.043,-0.088,-0.087,0.109,-0.022,0.051,0.107,0.147,0.045,-0.005,0.002
0.103,0.019,-0.083,-0.061,0.093,-0.032,0.059,0.111,0.159,0.051,0.004,0.007
0.101,0.014,-0.086,-0.057,0.093,-0.036,0.073,0.093,0.175,0.067,0.022,0.014
0.147,0.064,-0.083,-0.105,0.115,-0.01,0.069,0.117,0.191,0.079,0.032,0.026
0.166,0.078,-0.088,-0.121,0.127,-0.005,0.061,0.125,0.215,0.098,0.05,0.039
0.171,0.087,-0.083,-0.129,0.127,0.002,0.06,0.141,0.245,0.124,0.062,0.056
0.235,0.13,-0.105,-0.183,0.17,0.012,0.054,0.171,0.285,0.149,0.087,0.072
0.202,0.121,-0.081,-0.162,0.141,0.02,0.048,0.194,0.326,0.188,0.124,0.104
0.193,0.154,-0.039,-0.173,0.116,0.057,0.042,0.226,0.375,0.246,0.16,0.14
0.264,0.21,-0.054,-0.237,0.159,0.078,0.033,0.253,0.436,0.296,0.207,0.174
0.285,0.23,-0.055,-0.257,0.169,0.087,0.011,0.285,0.5,0.353,0.258,0.223
0.34,0.29,-0.05,-0.315,0.195,0.12,-0.026,0.299,0.561,0.422,0.316,0.268
0.373,0.329,-0.043,-0.351,0.208,0.143,-0.045,0.332,0.616,0.473,0.371,0.318
0.366,0.337,-0.028,-0.351,0.197,0.154,-0.03,0.339,0.639,0.506,0.405,0.342
0.377,0.362,-0.015,-0.369,0.196,0.174,-0.045,0.325,0.65,0.533,0.409,0.356
0.385,0.37,-0.015,-0.378,0.2,0.178,-0.063,0.311,0.639,0.542,0.399,0.362
0.358,0.342,-0.017,-0.35,0.187,0.162,-0.037,0.25,0.57,0.497,0.376,0.327
0.3,0.293,-0.007,-0.297,0.154,0.143,-0.021,0.206,0.484,0.395,0.306,0.268
0.21,0.217,0.007,-0.214,0.101,0.112,-0.01,0.178,0.375,0.295,0.211,0.19
0.163,0.151,-0.012,-0.157,0.088,0.069,0.017,0.142,0.279,0.195,0.13,0.117
0.097,0.098,0.001,-0.098,0.048,0.05,0.052,0.092,0.206,0.122,0.068,0.063
0.101,0.077,-0.024,-0.089,0.062,0.026,0.062,0.062,0.132,0.08,0.024,0.031
0.124,0.065,-0.058,-0.094,0.091,0.003,0.056,0.057,0.088,0.047,0.004,0.018
0.094,0.044,-0.05,-0.069,0.072,-0.003,0.056,0.038,0.07,0.028,-0.008,0.008
0.114,0.044,-0.07,-0.079,0.092,-0.012,0.051,0.03,0.068,0.01,-0.016,-0.003
0.1,0.037,-0.063,-0.068,0.081,-0.012,0.044,0.027,0.066,0.007,-0.025,-0.012
0.099,0.033,-0.065,-0.065,0.082,-0.016,0.037,0.022,0.062,0.001,-0.034,-0.011
0.093,0.028,-0.066,-0.06,0.079,-0.019,0.032,0.021,0.06,-0.002,-0.03,-0.009
0.083,0.019,-0.064,-0.051,0.073,-0.022,0.022,0.014,0.062,-0.008,-0.03,-0.01
0.094,0.031,-0.063,-0.062,0.078,-0.016,0.025,0.018,0.066,-0.009,-0.029,-0.01
0.1,0.041,-0.059,-0.07,0.079,-0.009,0.036,0.021,0.064,-0.005,-0.025,-0.01
0.092,0.033,-0.06,-0.062,0.076,-0.013,0.035,0.025,0.069,-0.005,-0.025,-0.012
0.084,0.029,-0.055,-0.056,0.069,-0.012,0.035,0.026,0.07,-0.005,-0.027,-0.017
0.079,0.026,-0.053,-0.052,0.065,-0.013,0.036,0.015,0.069,-0.005,-0.031,-0.02
0.067,0.017,-0.05,-0.042,0.058,-0.017,0.034,0.028,0.066,-0.005,-0.034,-0.023
0.083,0.038,-0.046,-0.06,0.064,-0.004,0.039,0.037,0.063,-0.009,-0.038,-0.028
0.1,0.054,-0.046,-0.076,0.073,0.004,0.052,0.034,0.06,-0.01,-0.041,-0.03
0.083,0.043,-0.04,-0.063,0.062,0.001,0.056,0.033,0.057,-0.012,-0.044,-0.026
0.077,0.038,-0.039,-0.057,0.058,0.0,0.055,0.029,0.055,-0.015,-0.045,-0.025
0.062,0.031,-0.031,-0.046,0.046,0.0,0.055,0.031,0.052,-0.016,-0.045,-0.025
0.04,0.03,-0.01,-0.034,0.025,0.01,0.055,0.026,0.044,-0.02,-0.045,-0.024
0.064,0.029,-0.035,-0.046,0.049,-0.003,0.055,0.019,0.036,-0.023,-0.045,-0.026
0.072,0.024,-0.048,-0.047,0.06,-0.012,0.05,0.012,0.03,-0.027,-0.047,-0.024
0.061,0.018,-0.042,-0.039,0.051,-0.012,0.05,0.006,0.025,-0.03,-0.053,-0.026
0.063,0.015,-0.048,-0.038,0.055,-0.016,0.049,-0.002,0.02,-0.034,-0.055,-0.035
0.048,0.009,-0.039,-0.028,0.043,-0.015,0.044,-0.003,0.016,-0.035,-0.055,-0.036
0.049,0.007,-0.042,-0.028,0.045,-0.017,0.046,0.019,0.011,-0.035,-0.059,-0.034
0.031,-0.004,-0.035,-0.013,0.033,-0.019,0.043,0.02,0.007,-0.04,-0.06,-0.036
0.02,-0.017,-0.037,-0.001,0.029,-0.027,0.037,0.013,0.004,-0.04,-0.06,-0.034
0.015,-0.016,-0.03,0.001,0.023,-0.023,0.033,0.011,0.0,-0.041,-0.06,-0.036
-0.001,-0.011,-0.011,0.006,0.005,-0.011,0.028,0.004,-0.003,-0.045,-0.06,-0.04
0.034,-0.008,-0.042,-0.013,0.038,-0.025,0.024,0.002,-0.008,-0.045,-0.06,-0.04
0.047,-0.007,-0.054,-0.02,0.051,-0.03,0.018,-0.006,-0.009,-0.047,-0.06,-0.04
0.069,0.021,-0.048,-0.045,0.058,-0.013,0.032,-0.011,-0.006,-0.051,-0.06,-0.037
0.069,0.018,-0.052,-0.044,0.06,-0.017,0.046,-0.008,-0.003,-0.05,-0.062,-0.034
0.062,0.013,-0.049,-0.037,0.055,-0.017,0.045,0.005,0.0,-0.047,-0.065,-0.036
0.079,0.029,-0.051,-0.054,0.065,-0.011,0.044,-0.005,0.002,-0.042,-0.065,-0.037
0.062,0.012,-0.05,-0.037,0.056,-0.019,0.04,-0.015,0.006,-0.039,-0.065,-0.035
0.067,0.017,-0.05,-0.042,0.058,-0.016,0.04,0.005,0.002,-0.036,-0.065,-0.034
0.04,-0.007,-0.047,-0.016,0.043,-0.027,0.038,-0.011,-0.001,-0.03,-0.066,-0.036
0.0,-0.038,-0.038,0.019,0.019,-0.038,0.035,-0.018,0.0,-0.032,-0.069,-0.034
0.007,-0.029,-0.035,0.012,0.021,-0.032,0.032,-0.013,0.0,-0.033,-0.071,-0.036
0.022,-0.013,-0.035,-0.004,0.028,-0.024,0.029,-0.017,0.0,-0.039,-0.067,-0.045
0.054,0.019,-0.035,-0.036,0.044,-0.008,0.026,-0.014,-0.001,-0.056,-0.065,-0.046
0.07,0.034,-0.036,-0.052,0.053,0.0,0.025,-0.016,-0.004,-0.053,-0.065,-0.045
0.033,0.0,-0.033,-0.016,0.033,-0.016,0.036,-0.01,-0.006,-0.05,-0.061,-0.042
0.021,-0.017,-0.038,-0.002,0.03,-0.028,0.048,0.0,-0.004,-0.048,-0.059,-0.039
0.031,0.01,-0.02,-0.02,0.025,-0.005,0.057,0.01,-0.014,-0.044,-0.06,-0.041
0.019,0.009,-0.01,-0.014,0.014,-0.001,0.055,0.018,-0.022,-0.043,-0.065,-0.045
0.06,0.019,-0.041,-0.039,0.05,-0.011,0.049,0.014,-0.017,-0.039,-0.065,-0.045
0.093,0.033,-0.06,-0.063,0.076,-0.013,0.043,0.01,-0.016,-0.037,-0.066,-0.046
0.03,0.009,-0.021,-0.019,0.025,-0.006,0.039,0.008,-0.011,-0.033,-0.07,-0.05
0.017,0.009,-0.008,-0.013,0.012,0.001,0.03,0.002,-0.011,-0.032,-0.071,-0.051
0.041,0.006,-0.034,-0.023,0.037,-0.014,0.036,0.002,-0.003,-0.028,-0.068,-0.048
0.001,-0.006,-0.007,0.002,0.004,-0.006,0.059,-0.009,0.008,-0.037,-0.062,-0.041
0.049,0.013,-0.036,-0.031,0.042,-0.011,0.061,-0.02,0.001,-0.043,-0.059,-0.034
0.08,0.014,-0.066,-0.046,0.072,-0.026,0.058,-0.004,-0.003,-0.023,-0.053,-0.027
0.031,0.016,-0.015,-0.023,0.023,0.001,0.065,0.035,0.009,-0.007,-0.051,-0.022
0.058,0.065,0.007,-0.062,0.025,0.036,0.086,0.058,0.036,0.0,-0.025,0.001
0.119,0.143,0.024,-0.131,0.047,0.083,0.107,0.072,0.075,0.032,0.003,0.022
0.139,0.165,0.026,-0.152,0.056,0.095,0.094,0.077,0.085,0.06,-0.004,0.017
0.125,0.112,-0.013,-0.119,0.069,0.05,0.053,0.048,0.065,0.053,-0.012,0.01
0.154,0.096,-0.059,-0.125,0.106,0.018,0.039,0.029,0.054,0.03,-0.014,0.006
0.122,0.062,-0.06,-0.092,0.091,0.001,0.03,0.015,0.029,-0.011,-0.029,-0.002
0.005,-0.011,-0.016,0.003,0.011,-0.013,0.015,-0.002,0.017,-0.032,-0.052,-0.037
0.011,-0.031,-0.043,0.01,0.027,-0.037,0.044,-0.03,-0.007,-0.071,-0.073,-0.073
0.029,-0.022,-0.051,-0.004,0.04,-0.036,0.056,-0.04,-0.02,-0.06,-0.057,-0.058
0.023,-0.02,-0.043,-0.001,0.033,-0.031,0.048,-0.032,-0.04,-0.068,-0.073,-0.07
0.022,-0.033,-0.055,0.005,0.039,-0.044,0.041,-0.028,-0.027,-0.066,-0.058,-0.061
-0.034,-0.059,-0.025,0.047,-0.005,-0.042,0.058,0.005,-0.009,-0.055,-0.093,-0.076
-0.077,-0.026,0.051,0.052,-0.064,0.012,0.225,0.226,0.066,-0.074,-0.189,-0.17
0.153,0.081,-0.072,-0.117,0.113,0.004,0.133,0.296,0.347,0.185,0.063,0.018
0.785,0.416,-0.369,-0.6,0.577,0.023,-0.506,-0.394,0.318,0.582,0.688,0.602
1.197,0.726,-0.471,-0.961,0.834,0.127,-1.057,-1.214,0.129,0.917,1.221,1.143
0.906,0.309,-0.597,-0.607,0.751,-0.143,-0.944,-1.323,-0.302,0.316,0.654,0.79
0.255,-0.164,-0.418,-0.046,0.337,-0.291,-0.349,-0.885,-0.752,-0.535,-0.225,0.051
-0.118,-0.184,-0.066,0.151,-0.026,-0.125,0.043,-0.477,-0.504,-0.397,-0.278,-0.137
-0.141,-0.198,-0.057,0.17,-0.042,-0.127,0.108,-0.264,-0.297,-0.262,-0.235,-0.147
-0.062,-0.114,-0.053,0.088,-0.004,-0.083,0.092,-0.11,-0.165,-0.175,-0.164,-0.112
0.003,-0.04,-0.043,0.018,0.023,-0.041,0.069,-0.027,-0.014,-0.048,-0.087,-0.065
0.036,-0.023,-0.059,-0.007,0.048,-0.041,0.078,0.014,-0.005,-0.044,-0.081,-0.052
0.05,0.005,-0.045,-0.028,0.047,-0.02,0.077,0.041,0.044,-0.013,-0.057,-0.035
-0.001,-0.029,-0.027,0.015,0.013,-0.028,0.081,0.074,0.045,-0.021,-0.066,-0.037
0.011,-0.036,-0.047,0.012,0.029,-0.041,0.08,0.08,0.057,0.004,-0.049,-0.02
0.038,0.002,-0.036,-0.02,0.037,-0.017,0.075,0.081,0.083,0.008,-0.046,-0.026
0.074,0.02,-0.054,-0.047,0.064,-0.016,0.074,0.09,0.088,0.017,-0.029,-0.031
0.072,-0.013,-0.085,-0.029,0.079,-0.049,0.07,0.089,0.087,0.036,-0.02,-0.019
0.057,-0.012,-0.069,-0.022,0.063,-0.04,0.068,0.098,0.098,0.045,-0.011,-0.006
0.097,0.019,-0.078,-0.057,0.087,-0.03,0.064,0.083,0.112,0.048,-0.002,0.005
0.105,0.02,-0.084,-0.062,0.095,-0.032,0.065,0.088,0.133,0.071,0.007,0.018
0.15,0.048,-0.103,-0.099,0.126,-0.027,0.065,0.114,0.144,0.088,0.028,0.031
0.13,0.059,-0.071,-0.095,0.1,-0.005,0.065,0.126,0.169,0.107,0.046,0.055
0.148,0.08,-0.068,-0.114,0.108,0.006,0.054,0.127,0.202,0.139,0.07,0.065
0.218,0.106,-0.112,-0.162,0.165,-0.003,0.037,0.137,0.237,0.164,0.103,0.092
0.24,0.131,-0.109,-0.186,0.175,0.011,0.021,0.157,0.294,0.215,0.15,0.137
0.29,0.181,-0.109,-0.236,0.2,0.036,0.003,0.155,0.335,0.267,0.199,0.172
0.318,0.206,-0.111,-0.262,0.214,0.047,-0.024,0.188,0.393,0.325,0.254,0.229
0.376,0.265,-0.111,-0.32,0.243,0.076,-0.062,0.21,0.437,0.374,0.306,0.271
0.399,0.295,-0.104,-0.347,0.251,0.096,-0.078,0.202,0.483,0.429,0.351,0.313
0.422,0.329,-0.093,-0.375,0.258,0.118,-0.087,0.208,0.526,0.477,0.398,0.355
0.456,0.359,-0.097,-0.407,0.276,0.13,-0.099,0.198,0.512,0.486,0.414,0.369
0.401,0.313,-0.088,-0.356,0.244,0.112,-0.096,0.192,0.499,0.466,0.4,0.366
0.352,0.291,-0.061,-0.322,0.206,0.115,-0.07,0.178,0.455,0.42,0.35,0.315
0.279,0.24,-0.038,-0.259,0.158,0.101,-0.03,0.148,0.378,0.359,0.277,0.249
0.211,0.18,-0.031,-0.195,0.12,0.075,-0.003,0.106,0.293,0.266,0.185,0.171
0.141,0.13,-0.012,-0.136,0.076,0.059,0.02,0.081,0.2,0.182,0.093,0.091
0.067,0.073,0.005,-0.07,0.031,0.039,0.048,0.078,0.141,0.11,0.038,0.044
0.082,0.067,-0.015,-0.074,0.048,0.026,0.062,0.062,0.096,0.06,-0.004,0.008
0.059,0.037,-0.022,-0.048,0.04,0.008,0.061,0.047,0.059,0.042,-0.029,-0.024
0.008,0.007,-0.001,-0.007,0.004,0.002,0.058,0.038,0.042,0.016,-0.041,-0.032
0.02,0.005,-0.015,-0.012,0.017,-0.005,0.055,0.029,0.033,0.005,-0.051,-0.031
0.037,-0.007,-0.044,-0.015,0.041,-0.025,0.052,0.021,0.028,0.0,-0.055,-0.042
0.039,-0.007,-0.046,-0.016,0.043,-0.026,0.05,0.015,0.025,-0.005,-0.056,-0.046
0.034,-0.006,-0.041,-0.014,0.038,-0.023,0.05,0.016,0.022,-0.008,-0.054,-0.044
0.041,0.001,-0.04,-0.021,0.04,-0.019,0.05,0.013,0.017,-0.015,-0.056,-0.046
0.047,0.008,-0.04,-0.027,0.043,-0.016,0.05,0.01,0.014,-0.012,-0.054,-0.045
0.036,-0.005,-0.04,-0.016,0.038,-0.022,0.05,0.01,0.011,-0.01,-0.057,-0.044
0.033,-0.005,-0.038,-0.014,0.036,-0.022,0.05,0.012,0.009,-0.01,-0.068,-0.053
0.035,0.0,-0.035,-0.017,0.035,-0.017,0.049,0.015,0.01,-0.01,-0.071,-0.055
0.026,-0.004,-0.03,-0.011,0.028,-0.017,0.046,0.015,0.009,-0.011,-0.07,-0.039
0.025,-0.004,-0.029,-0.01,0.027,-0.016,0.044,0.018,0.01,-0.009,-0.071,-0.038
0.022,0.001,-0.022,-0.011,0.022,-0.01,0.049,0.021,0.008,-0.023,-0.069,-0.043
0.027,0.004,-0.022,-0.016,0.024,-0.009,0.055,0.019,0.001,-0.039,-0.072,-0.045
0.012,0.001,-0.011,-0.007,0.011,-0.004,0.055,0.016,-0.006,-0.04,-0.075,-0.046
-0.005,-0.006,0.0,0.005,-0.002,-0.003,0.055,0.013,-0.013,-0.04,-0.078,-0.044
0.021,-0.01,-0.03,-0.005,0.026,-0.02,0.055,0.011,-0.019,-0.041,-0.08,-0.054
0.018,-0.016,-0.033,-0.001,0.026,-0.024,0.055,0.007,-0.026,-0.039,-0.084,-0.062
0.0,-0.022,-0.022,0.011,0.011,-0.022,0.053,0.005,-0.029,-0.041,-0.085,-0.059
-0.004,-0.023,-0.019,0.014,0.008,-0.021,0.048,0.003,-0.031,-0.052,-0.085,-0.061
-0.008,-0.018,-0.01,0.013,0.002,-0.013,0.045,-0.002,-0.033,-0.057,-0.085,-0.059
0.006,-0.005,-0.01,-0.001,0.008,-0.007,0.042,-0.005,-0.037,-0.058,-0.086,-0.061
-0.016,-0.026,-0.01,0.021,-0.003,-0.018,0.037,-0.008,-0.031,-0.062,-0.084,-0.059
-0.043,-0.053,-0.01,0.048,-0.016,-0.031,0.034,-0.013,-0.032,-0.065,-0.088,-0.063
-0.03,-0.04,-0.011,0.035,-0.009,-0.025,0.031,-0.015,-0.05,-0.065,-0.103,-0.079
-0.029,-0.037,-0.008,0.033,-0.01,-0.022,0.026,-0.011,-0.05,-0.067,-0.106,-0.08
-0.035,-0.04,-0.005,0.038,-0.015,-0.022,0.024,-0.01,-0.045,-0.071,-0.105,-0.08
-0.037,-0.04,-0.002,0.039,-0.018,-0.021,0.019,-0.01,-0.044,-0.07,-0.105,-0.085
-0.041,-0.04,0.0,0.04,-0.02,-0.02,0.016,-0.011,-0.039,-0.074,-0.105,-0.085
-0.043,-0.04,0.003,0.041,-0.023,-0.018,0.012,-0.009,-0.041,-0.075,-0.104,-0.084
-0.046,-0.04,0.006,0.043,-0.026,-0.017,0.01,-0.017,-0.039,-0.075,-0.099,-0.08
-0.037,-0.036,0.0,0.036,-0.018,-0.017,0.01,-0.027,-0.051,-0.075,-0.1,-0.08
-0.03,-0.035,-0.005,0.033,-0.012,-0.02,0.01,-0.024,-0.061,-0.075,-0.097,-0.078
-0.021,-0.035,-0.014,0.028,-0.003,-0.024,0.01,-0.025,-0.059,-0.073,-0.094,-0.074
-0.009,-0.035,-0.026,0.022,0.009,-0.03,0.011,-0.025,-0.06,-0.07,-0.095,-0.075
-0.013,-0.035,-0.022,0.024,0.005,-0.028,0.014,-0.025,-0.06,-0.07,-0.098,-0.078
-0.019,-0.034,-0.015,0.027,-0.001,-0.024,0.016,-0.023,-0.06,-0.07,-0.102,-0.081
-0.012,-0.025,-0.014,0.019,0.001,-0.019,0.015,-0.019,-0.056,-0.07,-0.105,-0.08
-0.018,-0.023,-0.005,0.021,-0.006,-0.014,0.016,-0.017,-0.049,-0.07,-0.109,-0.081
-0.049,-0.058,-0.01,0.054,-0.019,-0.034,0.015,-0.013,-0.046,-0.075,-0.109,-0.079
-0.032,-0.058,-0.026,0.045,-0.004,-0.042,0.013,-0.01,-0.038,-0.071,-0.1,-0.071
-0.002,-0.016,-0.014,0.009,0.006,-0.015,0.009,-0.01,-0.035,-0.06,-0.091,-0.063
0.005,-0.006,-0.01,0.001,0.008,-0.008,0.011,-0.002,-0.027,-0.05,-0.084,-0.055
0.031,0.026,-0.005,-0.028,0.018,0.011,0.041,0.008,-0.006,-0.038,-0.067,-0.047
0.033,0.076,0.043,-0.055,-0.005,0.059,0.045,0.03,0.019,-0.017,-0.046,-0.042
0.039,0.096,0.057,-0.068,-0.009,0.076,0.024,0.047,0.034,-0.008,-0.043,-0.039
0.062,0.083,0.022,-0.073,0.02,0.052,0.011,0.026,0.016,-0.013,-0.055,-0.04
0.079,0.046,-0.033,-0.062,0.056,0.006,-0.022,-0.009,0.001,-0.015,-0.049,-0.031
0.045,-0.004,-0.049,-0.02,0.047,-0.026,-0.038,-0.037,-0.031,-0.06,-0.073,-0.041
-0.043,-0.051,-0.007,0.047,-0.018,-0.029,-0.03,-0.032,-0.051,-0.068,-0.093,-0.061
-0.073,-0.069,0.004,0.071,-0.038,-0.033,-0.028,-0.029,-0.082,-0.096,-0.12,-0.092
-0.063,-0.062,0.001,0.063,-0.032,-0.03,-0.021,-0.045,-0.083,-0.103,-0.122,-0.098
-0.048,-0.059,-0.011,0.054,-0.018,-0.035,-0.02,-0.061,-0.09,-0.106,-0.134,-0.103
-0.064,-0.072,-0.008,0.068,-0.028,-0.04,-0.011,-0.051,-0.095,-0.108,-0.137,-0.108
-0.079,-0.105,-0.026,0.092,-0.026,-0.066,0.015,-0.03,-0.061,-0.098,-0.126,-0.106
-0.146,-0.118,0.028,0.132,-0.086,-0.045,0.158,0.148,-0.028,-0.173,-0.264,-0.228
0.003,-0.021,-0.024,0.009,0.013,-0.022,0.142,0.302,0.27,0.078,-0.077,-0.114
0.577,0.307,-0.27,-0.442,0.423,0.019,-0.396,-0.237,0.318,0.527,0.588,0.499
1.02,0.71,-0.31,-0.865,0.665,0.2,-0.985,-1.042,0.135,1.036,1.309,1.192
0.865,0.425,-0.44,-0.645,0.652,-0.008,-0.993,-1.288,-0.267,0.594,0.929,1.004
0.254,-0.13,-0.384,-0.061,0.319,-0.257,-0.46,-0.96,-0.815,-0.511,-0.162,0.151
-0.124,-0.201,-0.077,0.163,-0.023,-0.139,-0.029,-0.528,-0.628,-0.518,-0.358,-0.184
-0.186,-0.237,-0.05,0.212,-0.068,-0.143,0.091,-0.307,-0.385,-0.336,-0.298,-0.205
-0.165,-0.2,-0.035,0.183,-0.065,-0.117,0.072,-0.168,-0.275,-0.285,-0.261,-0.183
-0.062,-0.095,-0.032,0.079,-0.015,-0.063,0.013,-0.079,-0.098,-0.129,-0.15,-0.11
-0.047,-0.085,-0.038,0.066,-0.004,-0.061,0.014,-0.028,-0.068,-0.119,-0.142,-0.102
-0.052,-0.079,-0.026,0.066,-0.013,-0.052,0.007,-0.017,-0.038,-0.08,-0.108,-0.091
-0.037,-0.068,-0.031,0.053,-0.003,-0.05,0.003,-0.009,-0.033,-0.076,-0.116,-0.093
-0.022,-0.062,-0.04,0.042,0.009,-0.051,0.003,0.002,-0.009,-0.066,-0.098,-0.084
0.002,-0.065,-0.066,0.032,0.034,-0.065,-0.007,-0.01,-0.01,-0.061,-0.093,-0.077
-0.002,-0.055,-0.053,0.029,0.026,-0.054,0.0,0.014,-0.011,-0.056,-0.083,-0.069
-0.01,-0.053,-0.043,0.032,0.017,-0.048,0.009,0.03,0.012,-0.046,-0.071,-0.06
0.008,-0.044,-0.051,0.018,0.03,-0.047,0.005,0.038,0.043,-0.026,-0.064,-0.054
0.026,-0.047,-0.073,0.011,0.049,-0.059,-0.004,0.024,0.057,-0.014,-0.051,-0.048
0.02,-0.038,-0.058,0.009,0.039,-0.048,-0.008,0.03,0.066,0.014,-0.039,-0.034
0.021,-0.022,-0.043,0.001,0.032,-0.032,-0.016,0.056,0.1,0.03,-0.02,-0.012
0.067,0.002,-0.065,-0.034,0.066,-0.031,-0.024,0.053,0.127,0.054,-0.003,0.014
0.111,0.04,-0.071,-0.076,0.091,-0.015,-0.042,0.084,0.145,0.096,0.026,0.028
0.118,0.057,-0.061,-0.087,0.089,-0.002,-0.038,0.094,0.173,0.119,0.062,0.051
0.149,0.084,-0.065,-0.116,0.106,0.009,-0.041,0.102,0.231,0.175,0.105,0.098
0.171,0.12,-0.052,-0.145,0.111,0.034,-0.075,0.126,0.281,0.229,0.161,0.143
0.22,0.163,-0.057,-0.191,0.138,0.052,-0.09,0.129,0.345,0.294,0.226,0.199
0.284,0.221,-0.063,-0.252,0.173,0.079,-0.112,0.141,0.399,0.357,0.281,0.248
0.286,0.24,-0.046,-0.263,0.166,0.096,-0.142,0.135,0.433,0.403,0.337,0.295
0.335,0.281,-0.053,-0.308,0.194,0.114,-0.16,0.131,0.466,0.447,0.382,0.334
0.386,0.327,-0.059,-0.357,0.222,0.134,-0.158,0.128,0.465,0.463,0.399,0.351
0.325,0.289,-0.035,-0.307,0.18,0.127,-0.146,0.117,0.443,0.451,0.383,0.337
0.26,0.26,0.0,-0.26,0.13,0.13,-0.139,0.108,0.395,0.395,0.317,0.28
0.2,0.221,0.021,-0.211,0.09,0.121,-0.109,0.088,0.313,0.308,0.23,0.209
0.122,0.152,0.03,-0.137,0.046,0.09,-0.078,0.068,0.213,0.209,0.132,0.121
0.082,0.096,0.014,-0.089,0.033,0.055,-0.052,0.058,0.139,0.117,0.048,0.055
0.026,0.053,0.027,-0.04,0.0,0.04,-0.045,0.047,0.071,0.053,-0.015,-0.005
-0.01,0.005,0.015,0.003,-0.013,0.01,-0.035,0.034,0.019,-0.005,-0.078,-0.07
-0.051,-0.041,0.01,0.046,-0.03,-0.015,0.002,0.009,-0.006,-0.033,-0.106,-0.094
-0.048,-0.045,0.003,0.047,-0.025,-0.021,0.015,-0.024,-0.026,-0.052,-0.104,-0.095
-0.048,-0.051,-0.002,0.049,-0.022,-0.026,0.008,-0.037,-0.029,-0.076,-0.11,-0.095
-0.082,-0.058,0.023,0.07,-0.053,-0.017,0.003,-0.034,-0.048,-0.075,-0.12,-0.095
-0.08,-0.067,0.013,0.073,-0.046,-0.027,-0.002,-0.035,-0.049,-0.073,-0.12,-0.095
-0.088,-0.062,0.026,0.075,-0.057,-0.018,-0.012,-0.037,-0.039,-0.083,-0.12,-0.096
-0.073,-0.062,0.011,0.067,-0.042,-0.025,-0.022,-0.042,-0.04,-0.091,-0.121,-0.096
-0.066,-0.078,-0.012,0.072,-0.027,-0.044,-0.019,-0.045,-0.03,-0.09,-0.119,-0.095
-0.039,-0.076,-0.037,0.058,0.0,-0.057,-0.02,-0.037,-0.033,-0.09,-0.123,-0.096
-0.064,-0.073,-0.009,0.068,-0.027,-0.041,-0.013,-0.03,-0.049,-0.087,-0.125,-0.091
-0.088,-0.066,0.022,0.077,-0.055,-0.022,-0.016,-0.03,-0.051,-0.084,-0.125,-0.088
-0.054,-0.071,-0.016,0.063,-0.019,-0.043,-0.011,-0.03,-0.045,-0.081,-0.128,-0.084
-0.067,-0.069,-0.002,0.068,-0.033,-0.035,0.002,-0.03,-0.045,-0.079,-0.131,-0.081
-0.083,-0.077,0.006,0.08,-0.044,-0.036,-0.007,-0.029,-0.039,-0.074,-0.129,-0.077
-0.068,-0.072,-0.004,0.07,-0.032,-0.038,0.004,-0.031,-0.04,-0.076,-0.126,-0.074
-0.056,-0.062,-0.006,0.059,-0.025,-0.034,-0.014,-0.029,-0.061,-0.092,-0.125,-0.096
-0.075,-0.068,0.007,0.072,-0.041,-0.03,-0.028,-0.031,-0.066,-0.097,-0.125,-0.112
-0.064,-0.056,0.007,0.06,-0.035,-0.024,-0.02,-0.029,-0.065,-0.108,-0.126,-0.109
-0.071,-0.071,0.0,0.071,-0.035,-0.035,-0.033,-0.031,-0.065,-0.109,-0.123,-0.109
-0.081,-0.08,0.001,0.081,-0.041,-0.039,-0.026,-0.027,-0.077,-0.111,-0.136,-0.104
-0.064,-0.066,-0.002,0.065,-0.031,-0.033,-0.023,-0.007,-0.085,-0.118,-0.153,-0.105
-0.056,-0.068,-0.012,0.062,-0.022,-0.04,-0.021,-0.041,-0.09,-0.113,-0.154,-0.103
-0.023,-0.055,-0.032,0.04,0.005,-0.044,-0.013,-0.056,-0.108,-0.112,-0.155,-0.099
-0.049,-0.055,-0.005,0.052,-0.022,-0.03,-0.023,-0.04,-0.102,-0.108,-0.155,-0.101
-0.104,-0.08,0.024,0.092,-0.064,-0.028,-0.031,-0.057,-0.101,-0.115,-0.155,-0.098
-0.11,-0.085,0.025,0.097,-0.067,-0.03,-0.03,-0.047,-0.096,-0.132,-0.155,-0.112
-0.096,-0.07,0.026,0.083,-0.061,-0.022,-0.029,-0.043,-0.096,-0.137,-0.158,-0.126
-0.096,-0.062,0.034,0.079,-0.065,-0.014,-0.024,-0.037,-0.091,-0.133,-0.16,-0.124
-0.118,-0.094,0.023,0.106,-0.07,-0.035,-0.026,-0.016,-0.08,-0.131,-0.16,-0.125
-0.116,-0.116,-0.001,0.116,-0.057,-0.058,-0.022,-0.04,-0.109,-0.129,-0.16,-0.125
-0.112,-0.097,0.015,0.105,-0.063,-0.041,-0.016,-0.058,-0.116,-0.13,-0.16,-0.125
-0.139,-0.091,0.048,0.115,-0.093,-0.021,-0.011,-0.054,-0.107,-0.143,-0.158,-0.123
-0.114,-0.096,0.017,0.105,-0.065,-0.039,-0.005,-0.055,-0.107,-0.143,-0.155,-0.118
-0.054,-0.08,-0.026,0.067,-0.014,-0.053,-0.027,-0.049,-0.104,-0.139,-0.155,-0.115
-0.099,-0.089,0.01,0.094,-0.054,-0.039,-0.037,-0.051,-0.106,-0.136,-0.155,-0.112
-0.144,-0.105,0.039,0.124,-0.092,-0.033,-0.027,-0.048,-0.104,-0.131,-0.156,-0.107
-0.105,-0.097,0.008,0.101,-0.057,-0.044,-0.025,-0.04,-0.105,-0.129,-0.155,-0.106
-0.086,-0.102,-0.016,0.094,-0.035,-0.059,-0.016,-0.036,-0.103,-0.12,-0.16,-0.109
-0.075,-0.097,-0.022,0.087,-0.026,-0.06,-0.013,-0.03,-0.092,-0.113,-0.159,-0.112
-0.089,-0.085,0.004,0.087,-0.046,-0.04,-0.007,-0.025,-0.083,-0.104,-0.163,-0.121
-0.095,-0.056,0.04,0.075,-0.067,-0.008,-0.001,-0.02,-0.071,-0.099,-0.144,-0.105
-0.044,-0.005,0.039,0.024,-0.041,0.017,0.004,-0.01,-0.05,-0.083,-0.109,-0.07
-0.028,0.051,0.079,-0.012,-0.053,0.065,0.029,0.008,-0.012,-0.06,-0.098,-0.052
-0.026,0.056,0.082,-0.015,-0.055,0.069,0.019,0.008,-0.002,-0.061,-0.1,-0.056
-0.012,0.02,0.032,-0.004,-0.022,0.026,-0.033,-0.02,-0.027,-0.063,-0.096,-0.056
-0.038,-0.015,0.023,0.026,-0.031,0.004,-0.066,-0.056,-0.045,-0.083,-0.09,-0.053
-0.078,-0.065,0.013,0.072,-0.045,-0.026,-0.061,-0.062,-0.079,-0.112,-0.126,-0.079
-0.087,-0.089,-0.002,0.088,-0.042,-0.045,-0.058,-0.06,-0.114,-0.141,-0.151,-0.104
-0.112,-0.108,0.004,0.11,-0.058,-0.051,-0.052,-0.061,-0.133,-0.174,-0.178,-0.128
-0.14,-0.127,0.013,0.133,-0.077,-0.057,-0.048,-0.065,-0.116,-0.146,-0.171,-0.119
-0.13,-0.135,-0.005,0.133,-0.062,-0.07,-0.04,-0.098,-0.141,-0.181,-0.194,-0.132
-0.116,-0.121,-0.005,0.119,-0.056,-0.063,-0.023,-0.073,-0.118,-0.15,-0.171,-0.124
-0.146,-0.152,-0.007,0.149,-0.069,-0.079,0.006,-0.017,-0.11,-0.192,-0.223,-0.167
-0.191,-0.134,0.057,0.162,-0.123,-0.039,0.176,0.205,0.027,-0.196,-0.325,-0.278
0.079,0.047,-0.033,-0.063,0.056,0.007,0.005,0.182,0.31,0.18,0.045,0.005
0.629,0.445,-0.184,-0.536,0.406,0.13,-0.637,-0.532,0.209,0.726,0.876,0.764
0.925,0.71,-0.215,-0.817,0.57,0.247,-1.071,-1.192,0.024,1.189,1.464,1.323
0.612,0.212,-0.4,-0.412,0.506,-0.094,-0.906,-1.245,-0.489,0.323,0.667,0.824
0.033,-0.243,-0.276,0.105,0.155,-0.259,-0.335,-0.829,-0.872,-0.675,-0.316,0.005
-0.222,-0.259,-0.037,0.241,-0.093,-0.148,-0.01,-0.457,-0.561,-0.499,-0.361,-0.208
-0.247,-0.282,-0.035,0.264,-0.106,-0.158,0.056,-0.281,-0.39,-0.389,-0.345,-0.22
-0.179,-0.189,-0.01,0.184,-0.084,-0.099,0.022,-0.143,-0.23,-0.259,-0.25,-0.173
-0.115,-0.133,-0.018,0.124,-0.048,-0.075,-0.042,-0.078,-0.083,-0.153,-0.181,-0.126
-0.11,-0.12,-0.011,0.115,-0.049,-0.065,-0.029,-0.025,-0.062,-0.143,-0.176,-0.112
-0.102,-0.105,-0.003,0.104,-0.049,-0.054,-0.038,-0.014,-0.047,-0.114,-0.151,-0.102
-0.09,-0.106,-0.015,0.098,-0.037,-0.06,-0.038,-0.014,-0.05,-0.126,-0.16,-0.104
-0.059,-0.095,-0.035,0.078,-0.012,-0.065,-0.04,-0.008,-0.019,-0.097,-0.14,-0.094
-0.053,-0.087,-0.035,0.071,-0.009,-0.061,-0.042,-0.008,-0.012,-0.098,-0.144,-0.093
-0.066,-0.095,-0.029,0.08,-0.018,-0.062,-0.043,-0.004,0.003,-0.077,-0.128,-0.086
-0.081,-0.109,-0.028,0.095,-0.026,-0.068,-0.048,-0.001,0.006,-0.069,-0.117,-0.077
-0.058,-0.082,-0.025,0.071,-0.016,-0.053,-0.049,0.017,0.021,-0.06,-0.105,-0.068
-0.052,-0.072,-0.02,0.063,-0.016,-0.046,-0.053,0.02,0.049,-0.055,-0.091,-0.056
-0.067,-0.063,0.004,0.064,-0.035,-0.029,-0.056,0.03,0.059,-0.032,-0.08,-0.05
-0.041,-0.042,-0.001,0.042,-0.02,-0.021,-0.051,0.048,0.079,0.013,-0.052,-0.031
-0.005,-0.019,-0.014,0.013,0.005,-0.016,-0.051,0.057,0.11,0.06,-0.018,0.003
0.008,-0.023,-0.031,0.008,0.02,-0.027,-0.048,0.063,0.146,0.089,0.022,0.031
0.053,0.016,-0.036,-0.034,0.045,-0.01,-0.054,0.075,0.187,0.11,0.051,0.056
0.093,0.07,-0.023,-0.081,0.057,0.024,-0.075,0.083,0.231,0.159,0.081,0.084
0.113,0.086,-0.027,-0.099,0.069,0.03,-0.098,0.089,0.287,0.221,0.151,0.144
0.172,0.157,-0.015,-0.164,0.093,0.071,-0.137,0.105,0.356,0.312,0.232,0.213
0.184,0.189,0.005,-0.187,0.09,0.097,-0.146,0.1,0.414,0.382,0.298,0.264
0.226,0.234,0.009,-0.23,0.108,0.121,-0.169,0.092,0.452,0.415,0.335,0.299
0.247,0.283,0.036,-0.265,0.106,0.159,-0.197,0.089,0.468,0.447,0.354,0.327
0.208,0.259,0.05,-0.233,0.079,0.154,-0.195,0.08,0.463,0.457,0.359,0.326
0.199,0.258,0.06,-0.229,0.069,0.159,-0.204,0.064,0.426,0.435,0.334,0.294
0.137,0.217,0.079,-0.177,0.029,0.148,-0.174,0.05,0.346,0.346,0.274,0.247
0.077,0.144,0.067,-0.111,0.004,0.106,-0.111,0.039,0.257,0.24,0.157,0.158
0.022,0.079,0.057,-0.051,-0.018,0.068,-0.085,0.026,0.17,0.139,0.055,0.07
-0.051,0.0,0.051,0.025,-0.051,0.025,-0.064,0.008,0.086,0.031,-0.022,0.0
-0.089,-0.04,0.049,0.064,-0.069,0.005,-0.035,-0.012,0.019,-0.024,-0.084,-0.046
-0.113,-0.062,0.051,0.088,-0.082,-0.006,-0.035,-0.024,-0.027,-0.072,-0.125,-0.083
-0.108,-0.066,0.042,0.087,-0.075,-0.012,-0.034,-0.039,-0.046,-0.118,-0.161,-0.115
-0.132,-0.097,0.035,0.114,-0.083,-0.031,-0.037,-0.05,-0.058,-0.123,-0.16,-0.113
-0.162,-0.127,0.035,0.144,-0.099,-0.045,-0.049,-0.05,-0.073,-0.128,-0.154,-0.108
-0.149,-0.115,0.034,0.131,-0.091,-0.04,-0.051,-0.049,-0.076,-0.129,-0.155,-0.107
-0.148,-0.117,0.031,0.133,-0.089,-0.043,-0.049,-0.045,-0.074,-0.136,-0.147,-0.1
-0.139,-0.115,0.024,0.126,-0.081,-0.045,-0.047,-0.045,-0.075,-0.146,-0.155,-0.101
-0.147,-0.124,0.023,0.135,-0.085,-0.05,-0.043,-0.042,-0.091,-0.128,-0.173,-0.112
-0.142,-0.122,0.02,0.132,-0.08,-0.051,-0.048,-0.04,-0.087,-0.119,-0.171,-0.111
-0.128,-0.121,0.006,0.125,-0.067,-0.057,-0.063,-0.036,-0.073,-0.11,-0.161,-0.104
-0.113,-0.1,0.013,0.107,-0.063,-0.043,-0.063,-0.035,-0.069,-0.106,-0.157,-0.1
-0.103,-0.083,0.02,0.093,-0.061,-0.031,-0.055,-0.03,-0.07,-0.135,-0.147,-0.092
-0.141,-0.11,0.031,0.125,-0.086,-0.039,-0.054,-0.032,-0.075,-0.147,-0.148,-0.092
-0.126,-0.092,0.034,0.109,-0.08,-0.029,-0.046,-0.049,-0.079,-0.147,-0.165,-0.108
-0.123,-0.102,0.021,0.112,-0.072,-0.04,-0.045,-0.05,-0.08,-0.151,-0.167,-0.126
-0.14,-0.116,0.024,0.128,-0.082,-0.046,-0.057,-0.05,-0.081,-0.153,-0.159,-0.131
-0.111,-0.104,0.007,0.107,-0.059,-0.048,-0.062,-0.05,-0.084,-0.155,-0.167,-0.129
-0.126,-0.103,0.023,0.115,-0.075,-0.039,-0.058,-0.051,-0.087,-0.155,-0.181,-0.13
-0.141,-0.08,0.062,0.11,-0.101,-0.009,-0.056,-0.049,-0.083,-0.155,-0.187,-0.13
-0.153,-0.094,0.059,0.124,-0.106,-0.018,-0.054,-0.056,-0.092,-0.155,-0.193,-0.13
-0.17,-0.123,0.047,0.146,-0.108,-0.037,-0.053,-0.071,-0.11,-0.177,-0.196,-0.135
-0.135,-0.122,0.014,0.128,-0.074,-0.054,-0.066,-0.07,-0.11,-0.187,-0.194,-0.133
-0.122,-0.101,0.021,0.111,-0.071,-0.04,-0.068,-0.07,-0.11,-0.184,-0.196,-0.129
-0.155,-0.106,0.05,0.13,-0.102,-0.028,-0.06,-0.07,-0.11,-0.185,-0.194,-0.13
-0.149,-0.123,0.026,0.136,-0.087,-0.048,-0.058,-0.07,-0.111,-0.185,-0.196,-0.13
-0.106,-0.105,0.0,0.105,-0.053,-0.052,-0.052,-0.067,-0.107,-0.184,-0.199,-0.129
-0.146,-0.116,0.031,0.131,-0.088,-0.042,-0.051,-0.065,-0.105,-0.181,-0.202,-0.131
-0.171,-0.115,0.056,0.143,-0.114,-0.029,-0.058,-0.061,-0.105,-0.174,-0.205,-0.133
-0.168,-0.134,0.034,0.151,-0.101,-0.05,-0.064,-0.06,-0.102,-0.173,-0.202,-0.14
-0.181,-0.151,0.029,0.166,-0.104,-0.061,-0.062,-0.054,-0.099,-0.165,-0.2,-0.148
-0.156,-0.139,0.017,0.147,-0.086,-0.061,-0.059,-0.058,-0.102,-0.167,-0.198,-0.143
-0.151,-0.144,0.007,0.147,-0.079,-0.068,-0.06,-0.083,-0.124,-0.2,-0.197,-0.14
-0.172,-0.134,0.039,0.153,-0.105,-0.047,-0.059,-0.081,-0.123,-0.202,-0.192,-0.137
-0.207,-0.137,0.07,0.171,-0.138,-0.034,-0.06,-0.073,-0.134,-0.189,-0.216,-0.132
-0.194,-0.132,0.062,0.162,-0.128,-0.035,-0.059,-0.069,-0.132,-0.184,-0.222,-0.13
-0.187,-0.121,0.067,0.153,-0.127,-0.027,-0.051,-0.064,-0.097,-0.174,-0.191,-0.123
-0.156,-0.089,0.067,0.122,-0.112,-0.011,-0.043,-0.066,-0.09,-0.17,-0.177,-0.115
-0.096,-0.042,0.054,0.069,-0.075,0.006,-0.042,-0.06,-0.086,-0.15,-0.163,-0.103
-0.113,-0.017,0.096,0.065,-0.104,0.039,-0.047,-0.058,-0.055,-0.12,-0.155,-0.076
-0.073,0.023,0.095,0.025,-0.084,0.059,-0.041,-0.05,-0.028,-0.084,-0.154,-0.062
-0.061,0.011,0.072,0.025,-0.067,0.041,-0.063,-0.053,-0.054,-0.101,-0.155,-0.071
-0.099,-0.035,0.064,0.066,-0.081,0.014,-0.102,-0.084,-0.082,-0.141,-0.144,-0.074
-0.119,-0.071,0.048,0.095,-0.083,-0.011,-0.098,-0.1,-0.103,-0.167,-0.169,-0.095
-0.174,-0.122,0.052,0.148,-0.113,-0.035,-0.093,-0.095,-0.112,-0.17,-0.2,-0.119
-0.191,-0.151,0.04,0.17,-0.115,-0.055,-0.093,-0.096,-0.128,-0.192,-0.217,-0.139
-0.187,-0.139,0.048,0.163,-0.117,-0.046,-0.083,-0.1,-0.129,-0.199,-0.209,-0.144
-0.172,-0.141,0.031,0.157,-0.102,-0.055,-0.088,-0.117,-0.136,-0.207,-0.221,-0.153
-0.191,-0.151,0.039,0.171,-0.115,-0.055,-0.064,-0.105,-0.125,-0.208,-0.225,-0.149
-0.181,-0.167,0.014,0.174,-0.097,-0.077,-0.042,-0.085,-0.121,-0.196,-0.227,-0.156
-0.23,-0.173,0.057,0.202,-0.144,-0.058,0.077,0.096,-0.067,-0.285,-0.38,-0.299
-0.116,-0.056,0.06,0.086,-0.088,0.002,0.06,0.212,0.23,-0.01,-0.169,-0.157
0.382,0.294,-0.088,-0.338,0.235,0.103,-0.473,-0.337,0.241,0.549,0.61,0.529
0.739,0.692,-0.047,-0.715,0.393,0.322,-1.034,-1.07,0.05,1.232,1.469,1.278
0.642,0.37,-0.273,-0.506,0.457,0.048,-1.042,-1.287,-0.334,0.825,1.115,1.122
0.105,-0.245,-0.35,0.071,0.227,-0.297,-0.535,-0.955,-0.855,-0.552,-0.125,0.218
-0.266,-0.327,-0.061,0.296,-0.102,-0.194,-0.107,-0.538,-0.7,-0.667,-0.436,-0.211
-0.271,-0.301,-0.03,0.286,-0.121,-0.165,0.003,-0.323,-0.431,-0.423,-0.359,-0.254
-0.249,-0.238,0.01,0.244,-0.129,-0.114,0.004,-0.185,-0.294,-0.375,-0.329,-0.243
-0.198,-0.154,0.045,0.175,-0.121,-0.054,-0.049,-0.11,-0.12,-0.201,-0.231,-0.162
-0.188,-0.148,0.041,0.168,-0.114,-0.053,-0.056,-0.058,-0.085,-0.196,-0.225,-0.141
-0.178,-0.135,0.043,0.157,-0.111,-0.046,-0.05,-0.042,-0.051,-0.146,-0.189,-0.131
-0.169,-0.137,0.032,0.153,-0.1,-0.053,-0.05,-0.035,-0.045,-0.151,-0.19,-0.127
-0.163,-0.128,0.035,0.145,-0.099,-0.047,-0.043,-0.024,-0.038,-0.137,-0.173,-0.119
-0.153,-0.127,0.026,0.14,-0.089,-0.05,-0.041,-0.019,-0.034,-0.128,-0.167,-0.112
-0.145,-0.12,0.025,0.132,-0.085,-0.047,-0.041,-0.01,-0.025,-0.125,-0.162,-0.108
-0.133,-0.112,0.021,0.122,-0.077,-0.045,-0.042,-0.005,0.0,-0.11,-0.152,-0.1
-0.12,-0.104,0.017,0.112,-0.068,-0.043,-0.039,0.003,0.016,-0.094,-0.144,-0.093
-0.109,-0.096,0.013,0.103,-0.061,-0.041,-0.041,0.01,0.035,-0.064,-0.129,-0.082
-0.119,-0.088,0.031,0.103,-0.075,-0.028,-0.039,0.014,0.051,-0.05,-0.114,-0.071
-0.113,-0.076,0.037,0.094,-0.075,-0.02,-0.041,0.023,0.067,-0.024,-0.081,-0.057
-0.094,-0.06,0.034,0.077,-0.063,-0.013,-0.039,0.028,0.1,-0.005,-0.057,-0.043
-0.075,-0.042,0.032,0.058,-0.053,-0.005,-0.054,0.025,0.136,0.037,-0.031,-0.02
-0.027,0.002,0.029,0.013,-0.028,0.015,-0.076,0.047,0.185,0.093,0.01,0.019
0.015,0.046,0.03,-0.031,-0.008,0.038,-0.084,0.061,0.232,0.138,0.057,0.063
0.025,0.063,0.038,-0.044,-0.007,0.05,-0.095,0.065,0.28,0.193,0.117,0.117
0.075,0.138,0.063,-0.107,0.006,0.1,-0.116,0.08,0.358,0.282,0.185,0.169
0.118,0.192,0.074,-0.155,0.021,0.133,-0.148,0.075,0.419,0.368,0.254,0.221
0.126,0.201,0.075,-0.164,0.025,0.138,-0.165,0.067,0.461,0.417,0.324,0.28
0.135,0.228,0.094,-0.182,0.02,0.161,-0.174,0.061,0.488,0.46,0.353,0.31
0.128,0.247,0.119,-0.187,0.004,0.182,-0.192,0.054,0.491,0.47,0.358,0.31
0.093,0.224,0.131,-0.159,-0.019,0.177,-0.191,0.049,0.443,0.44,0.335,0.285
0.05,0.171,0.121,-0.111,-0.036,0.146,-0.163,0.025,0.359,0.355,0.251,0.226
0.02,0.123,0.103,-0.072,-0.042,0.113,-0.127,0.005,0.263,0.221,0.136,0.131
-0.036,0.057,0.093,-0.011,-0.065,0.075,-0.096,-0.005,0.161,0.115,0.037,0.054
-0.1,-0.015,0.085,0.057,-0.093,0.035,-0.073,-0.015,0.079,0.02,-0.047,-0.013
-0.132,-0.052,0.08,0.092,-0.105,0.013,-0.059,-0.026,0.007,-0.055,-0.12,-0.082
-0.159,-0.087,0.072,0.123,-0.116,-0.008,-0.047,-0.047,-0.034,-0.103,-0.157,-0.106
-0.19,-0.127,0.063,0.158,-0.126,-0.032,-0.04,-0.053,-0.058,-0.141,-0.173,-0.122
-0.185,-0.131,0.054,0.158,-0.119,-0.038,-0.04,-0.056,-0.067,-0.146,-0.182,-0.133
-0.175,-0.129,0.045,0.152,-0.11,-0.042,-0.039,-0.061,-0.071,-0.144,-0.192,-0.132
-0.166,-0.13,0.035,0.148,-0.101,-0.047,-0.035,-0.06,-0.084,-0.146,-0.19,-0.131
-0.16,-0.13,0.029,0.145,-0.094,-0.05,-0.035,-0.06,-0.087,-0.15,-0.185,-0.126
-0.173,-0.129,0.044,0.151,-0.109,-0.042,-0.033,-0.06,-0.09,-0.15,-0.184,-0.125
-0.187,-0.135,0.052,0.161,-0.119,-0.041,-0.029,-0.06,-0.093,-0.145,-0.178,-0.121
-0.194,-0.145,0.049,0.17,-0.121,-0.048,-0.031,-0.057,-0.095,-0.144,-0.175,-0.12
-0.184,-0.137,0.047,0.16,-0.115,-0.045,-0.026,-0.054,-0.093,-0.138,-0.179,-0.132
-0.177,-0.133,0.044,0.154,-0.11,-0.044,-0.025,-0.056,-0.085,-0.145,-0.181,-0.136
-0.167,-0.122,0.045,0.144,-0.106,-0.038,-0.025,-0.054,-0.08,-0.156,-0.18,-0.134
-0.154,-0.114,0.04,0.134,-0.097,-0.036,-0.019,-0.056,-0.072,-0.155,-0.18,-0.131
-0.14,-0.101,0.039,0.12,-0.089,-0.031,-0.034,-0.053,-0.066,-0.154,-0.18,-0.128
-0.132,-0.098,0.035,0.115,-0.083,-0.032,-0.042,-0.048,-0.06,-0.149,-0.179,-0.126
-0.162,-0.126,0.036,0.143,-0.099,-0.045,-0.039,-0.04,-0.065,-0.15,-0.185,-0.122
-0.193,-0.132,0.061,0.163,-0.127,-0.035,-0.037,-0.035,-0.068,-0.151,-0.194,-0.12
-0.202,-0.133,0.069,0.167,-0.135,-0.032,-0.034,-0.028,-0.072,-0.161,-0.197,-0.119
-0.197,-0.138,0.06,0.167,-0.128,-0.039,-0.035,-0.02,-0.092,-0.18,-0.2,-0.126
-0.196,-0.139,0.057,0.167,-0.126,-0.041,-0.03,-0.049,-0.096,-0.18,-0.204,-0.136
-0.192,-0.142,0.05,0.166,-0.121,-0.046,-0.025,-0.064,-0.095,-0.18,-0.204,-0.134
-0.188,-0.145,0.043,0.166,-0.115,-0.051,-0.02,-0.058,-0.099,-0.18,-0.199,-0.137
-0.21,-0.15,0.06,0.179,-0.135,-0.045,-0.017,-0.062,-0.101,-0.181,-0.2,-0.14
-0.216,-0.147,0.07,0.181,-0.143,-0.039,-0.01,-0.058,-0.098,-0.178,-0.2,-0.14
-0.203,-0.144,0.059,0.173,-0.131,-0.042,-0.014,-0.062,-0.094,-0.175,-0.2,-0.14
-0.198,-0.141,0.057,0.169,-0.128,-0.042,-0.026,-0.046,-0.089,-0.174,-0.2,-0.14
-0.188,-0.138,0.049,0.163,-0.118,-0.044,-0.025,-0.042,-0.085,-0.175,-0.199,-0.14
-0.178,-0.135,0.044,0.156,-0.11,-0.045,-0.026,-0.07,-0.107,-0.193,-0.219,-0.14
-0.186,-0.136,0.05,0.161,-0.118,-0.043,-0.023,-0.075,-0.116,-0.2,-0.223,-0.14
-0.194,-0.135,0.058,0.164,-0.126,-0.038,-0.036,-0.066,-0.105,-0.189,-0.212,-0.14
-0.179,-0.134,0.045,0.156,-0.111,-0.044,-0.047,-0.065,-0.105,-0.187,-0.209,-0.14
-0.17,-0.128,0.042,0.149,-0.106,-0.043,-0.034,-0.058,-0.097,-0.179,-0.199,-0.14
-0.168,-0.136,0.032,0.152,-0.1,-0.052,-0.037,-0.054,-0.095,-0.175,-0.197,-0.141
-0.176,-0.153,0.023,0.164,-0.099,-0.065,-0.026,-0.079,-0.112,-0.198,-0.205,-0.14
-0.188,-0.137,0.051,0.162,-0.119,-0.043,-0.026,-0.082,-0.113,-0.202,-0.203,-0.141
-0.161,-0.124,0.037,0.142,-0.098,-0.043,-0.027,-0.065,-0.094,-0.198,-0.194,-0.135
-0.187,-0.111,0.076,0.149,-0.131,-0.018,-0.002,-0.066,-0.092,-0.177,-0.191,-0.128
-0.205,-0.076,0.129,0.14,-0.167,0.026,0.01,-0.063,-0.079,-0.14,-0.184,-0.117
-0.146,-0.05,0.096,0.098,-0.121,0.023,0.016,-0.059,-0.068,-0.137,-0.168,-0.098
-0.148,-0.047,0.101,0.097,-0.125,0.027,-0.037,-0.065,-0.053,-0.125,-0.143,-0.079
-0.131,-0.026,0.105,0.078,-0.118,0.039,-0.08,-0.086,-0.032,-0.112,-0.132,-0.071
-0.103,-0.028,0.076,0.065,-0.089,0.024,-0.073,-0.081,-0.062,-0.153,-0.156,-0.101
-0.125,-0.084,0.042,0.104,-0.083,-0.021,-0.071,-0.077,-0.07,-0.168,-0.14,-0.111
-0.132,-0.113,0.019,0.122,-0.075,-0.047,-0.056,-0.073,-0.092,-0.18,-0.16,-0.112
-0.184,-0.14,0.044,0.162,-0.113,-0.048,-0.061,-0.066,-0.121,-0.193,-0.197,-0.123
-0.222,-0.161,0.061,0.191,-0.141,-0.049,-0.057,-0.095,-0.135,-0.206,-0.211,-0.139
-0.215,-0.162,0.053,0.188,-0.134,-0.054,-0.048,-0.1,-0.141,-0.196,-0.218,-0.142
-0.219,-0.173,0.047,0.196,-0.133,-0.063,-0.037,-0.087,-0.142,-0.216,-0.223,-0.129
-0.211,-0.162,0.049,0.186,-0.13,-0.056,-0.028,-0.077,-0.135,-0.242,-0.221,-0.132
-0.209,-0.196,0.013,0.202,-0.111,-0.091,-0.022,-0.078,-0.123,-0.209,-0.209,-0.148
-0.253,-0.202,0.051,0.227,-0.152,-0.075,0.111,0.089,-0.071,-0.287,-0.356,-0.267
-0.142,-0.067,0.076,0.104,-0.109,0.004,0.098,0.22,0.24,-0.028,-0.18,-0.156
0.303,0.272,-0.031,-0.287,0.167,0.12,-0.404,-0.307,0.256,0.537,0.575,0.491
0.715,0.668,-0.047,-0.691,0.381,0.31,-0.997,-1.074,0.049,1.224,1.452,1.259
0.653,0.354,-0.299,-0.503,0.476,0.028,-1.042,-1.308,-0.276,0.908,1.193,1.168
0.172,-0.234,-0.406,0.031,0.289,-0.319,-0.53,-0.974,-0.831,-0.488,-0.05,0.285
-0.228,-0.338,-0.11,0.283,-0.059,-0.224,-0.1,-0.564,-0.735,-0.695,-0.421,-0.176
-0.291,-0.338,-0.047,0.315,-0.122,-0.193,0.03,-0.323,-0.413,-0.409,-0.334,-0.211
-0.269,-0.262,0.007,0.265,-0.137,-0.128,0.042,-0.158,-0.26,-0.343,-0.309,-0.2
-0.204,-0.161,0.044,0.182,-0.124,-0.058,-0.007,-0.086,-0.096,-0.171,-0.211,-0.166
-0.172,-0.161,0.01,0.166,-0.091,-0.075,-0.022,-0.053,-0.067,-0.18,-0.225,-0.158
-0.22,-0.168,0.052,0.193,-0.135,-0.058,-0.016,-0.04,-0.043,-0.141,-0.198,-0.135
-0.198,-0.165,0.034,0.181,-0.116,-0.065,-0.017,-0.028,-0.029,-0.141,-0.177,-0.127
-0.144,-0.139,0.005,0.141,-0.074,-0.067,-0.013,-0.012,-0.017,-0.12,-0.149,-0.116
-0.153,-0.133,0.021,0.143,-0.087,-0.056,-0.014,0.002,-0.016,-0.107,-0.146,-0.111
-0.172,-0.155,0.018,0.164,-0.095,-0.068,-0.007,0.027,0.005,-0.104,-0.144,-0.107
-0.153,-0.141,0.012,0.147,-0.082,-0.064,-0.012,0.013,0.026,-0.085,-0.135,-0.102
-0.186,-0.136,0.05,0.161,-0.118,-0.043,-0.015,0.009,0.029,-0.078,-0.135,-0.099
-0.159,-0.108,0.052,0.133,-0.105,-0.028,-0.011,0.031,0.051,-0.041,-0.101,-0.09
-0.085,-0.068,0.017,0.077,-0.051,-0.025,-0.025,0.048,0.069,-0.033,-0.057,-0.08
-0.097,-0.078,0.019,0.088,-0.058,-0.029,-0.03,0.035,0.108,-0.008,-0.003,-0.063
-0.129,-0.069,0.059,0.099,-0.094,-0.005,-0.022,0.031,0.137,0.038,0.042,-0.032
-0.111,-0.05,0.061,0.081,-0.086,0.005,-0.02,0.059,0.17,0.074,0.093,0.004
-0.05,0.008,0.058,0.021,-0.054,0.033,-0.039,0.073,0.217,0.111,0.142,0.033
-0.019,0.045,0.064,-0.013,-0.042,0.054,-0.053,0.097,0.265,0.159,0.18,0.068
-0.004,0.075,0.079,-0.036,-0.042,0.077,-0.072,0.112,0.335,0.237,0.246,0.121
0.066,0.136,0.07,-0.102,-0.002,0.103,-0.105,0.13,0.397,0.316,0.321,0.179
0.127,0.189,0.062,-0.158,0.032,0.125,-0.111,0.148,0.458,0.384,0.388,0.23
0.137,0.237,0.1,-0.187,0.018,0.168,-0.133,0.154,0.513,0.451,0.454,0.281
0.167,0.265,0.099,-0.216,0.034,0.182,-0.14,0.158,0.538,0.495,0.495,0.317
0.143,0.266,0.122,-0.205,0.01,0.194,-0.132,0.141,0.541,0.509,0.498,0.328
0.103,0.239,0.136,-0.171,-0.017,0.187,-0.139,0.129,0.509,0.487,0.477,0.308
0.096,0.21,0.114,-0.153,-0.009,0.162,-0.117,0.102,0.429,0.399,0.413,0.248
0.027,0.134,0.107,-0.081,-0.04,0.121,-0.081,0.059,0.311,0.274,0.305,0.16
-0.025,0.066,0.091,-0.02,-0.059,0.079,-0.053,0.034,0.202,0.153,0.196,0.068
-0.068,0.015,0.083,0.026,-0.075,0.049,-0.032,0.019,0.106,0.041,0.111,0.005
-0.132,-0.059,0.073,0.095,-0.102,0.007,-0.015,0.008,0.04,-0.019,0.051,-0.049
-0.154,-0.096,0.057,0.125,-0.105,-0.019,-0.002,-0.014,0.006,-0.061,0.011,-0.094
-0.153,-0.114,0.039,0.133,-0.096,-0.037,0.0,-0.042,-0.023,-0.106,-0.002,-0.105
-0.172,-0.141,0.03,0.156,-0.101,-0.055,0.003,-0.046,-0.039,-0.113,-0.004,-0.109
-0.169,-0.143,0.027,0.156,-0.098,-0.058,0.006,-0.045,-0.053,-0.105,-0.008,-0.11
-0.152,-0.131,0.021,0.141,-0.086,-0.055,0.009,-0.05,-0.06,-0.116,-0.011,-0.109
-0.148,-0.133,0.015,0.14,-0.081,-0.059,0.01,-0.05,-0.06,-0.123,-0.015,-0.11
-0.143,-0.133,0.01,0.138,-0.076,-0.061,0.005,-0.049,-0.061,-0.117,-0.011,-0.11
-0.159,-0.138,0.021,0.148,-0.089,-0.058,0.001,-0.045,-0.06,-0.116,-0.01,-0.111
-0.148,-0.122,0.026,0.134,-0.086,-0.048,0.002,-0.042,-0.06,-0.112,-0.01,-0.107
-0.12,-0.108,0.012,0.114,-0.065,-0.048,0.012,-0.038,-0.06,-0.11,-0.006,-0.105
-0.138,-0.12,0.019,0.129,-0.078,-0.05,0.019,-0.035,-0.055,-0.108,-0.005,-0.105
-0.151,-0.106,0.045,0.129,-0.098,-0.03,0.027,-0.031,-0.055,-0.104,-0.007,-0.101
-0.141,-0.096,0.045,0.118,-0.093,-0.025,0.034,-0.03,-0.054,-0.105,-0.01,-0.1
-0.135,-0.094,0.041,0.115,-0.088,-0.026,0.03,-0.03,-0.05,-0.105,-0.01,-0.1
-0.125,-0.086,0.039,0.106,-0.082,-0.023,0.025,-0.025,-0.05,-0.105,-0.01,-0.095
-0.118,-0.083,0.035,0.1,-0.077,-0.023,0.02,-0.025,-0.052,-0.106,-0.01,-0.096
-0.109,-0.074,0.035,0.091,-0.072,-0.019,0.017,-0.024,-0.057,-0.109,-0.01,-0.094
-0.121,-0.093,0.029,0.107,-0.075,-0.032,0.01,-0.02,-0.062,-0.111,-0.014,-0.1
-0.144,-0.12,0.024,0.131,-0.084,-0.047,0.014,-0.018,-0.065,-0.108,-0.019,-0.118
-0.131,-0.114,0.018,0.122,-0.074,-0.048,0.029,-0.014,-0.066,-0.122,-0.021,-0.121
-0.125,-0.111,0.014,0.118,-0.07,-0.048,0.031,-0.012,-0.064,-0.137,-0.024,-0.119
-0.119,-0.115,0.004,0.117,-0.061,-0.055,0.03,-0.008,-0.071,-0.134,-0.027,-0.12
-0.134,-0.117,0.016,0.125,-0.075,-0.05,0.03,-0.018,-0.081,-0.138,-0.03,-0.12
-0.165,-0.12,0.045,0.143,-0.105,-0.037,0.03,-0.034,-0.079,-0.14,-0.03,-0.12
-0.165,-0.123,0.042,0.144,-0.103,-0.04,0.028,-0.035,-0.081,-0.14,-0.03,-0.12
-0.161,-0.125,0.035,0.143,-0.098,-0.045,0.039,-0.035,-0.079,-0.137,-0.03,-0.12
-0.153,-0.121,0.032,0.137,-0.092,-0.045,0.045,-0.035,-0.081,-0.134,-0.03,-0.12
-0.143,-0.119,0.024,0.131,-0.084,-0.047,0.036,-0.035,-0.077,-0.135,-0.03,-0.12
-0.135,-0.116,0.019,0.125,-0.077,-0.048,0.035,-0.035,-0.076,-0.13,-0.03,-0.119
-0.145,-0.113,0.032,0.129,-0.088,-0.04,0.028,-0.031,-0.093,-0.13,-0.034,-0.123
-0.151,-0.11,0.041,0.13,-0.096,-0.034,0.025,-0.03,-0.096,-0.13,-0.039,-0.125
-0.141,-0.11,0.031,0.125,-0.085,-0.039,0.041,-0.03,-0.094,-0.123,-0.043,-0.128
-0.146,-0.117,0.03,0.131,-0.087,-0.043,0.046,-0.03,-0.095,-0.137,-0.044,-0.13
-0.136,-0.112,0.024,0.124,-0.079,-0.044,0.044,-0.031,-0.095,-0.155,-0.039,-0.125
-0.139,-0.12,0.019,0.129,-0.079,-0.05,0.042,-0.028,-0.094,-0.147,-0.036,-0.125
-0.161,-0.134,0.027,0.147,-0.094,-0.053,0.039,-0.025,-0.09,-0.139,-0.033,-0.124
-0.139,-0.124,0.015,0.131,-0.076,-0.054,0.04,-0.02,-0.087,-0.131,-0.028,-0.12
-0.135,-0.122,0.013,0.128,-0.074,-0.054,0.035,-0.018,-0.085,-0.124,-0.025,-0.12
-0.154,-0.126,0.028,0.139,-0.09,-0.049,0.035,-0.013,-0.081,-0.12,-0.021,-0.118
-0.143,-0.124,0.019,0.134,-0.08,-0.052,0.034,-0.01,-0.08,-0.12,-0.02,-0.113
-0.124,-0.125,-0.001,0.125,-0.061,-0.063,0.03,-0.029,-0.085,-0.12,-0.019,-0.11
-0.132,-0.125,0.007,0.128,-0.069,-0.059,0.03,-0.037,-0.083,-0.12,-0.016,-0.106
-0.157,-0.125,0.032,0.141,-0.094,-0.046,0.032,-0.03,-0.087,-0.128,-0.014,-0.102
-0.15,-0.12,0.03,0.135,-0.09,-0.045,0.036,-0.03,-0.091,-0.13,-0.017,-0.099
-0.144,-0.115,0.029,0.129,-0.086,-0.042,0.034,-0.025,-0.09,-0.123,-0.02,-0.106
-0.137,-0.111,0.026,0.123,-0.081,-0.042,0.03,-0.024,-0.086,-0.12,-0.02,-0.12
-0.13,-0.106,0.024,0.117,-0.077,-0.041,0.03,-0.036,-0.085,-0.115,-0.022,-0.12
-0.127,-0.102,0.025,0.114,-0.075,-0.038,0.028,-0.04,-0.085,-0.11,-0.025,-0.116
-0.098,-0.099,-0.001,0.098,-0.049,-0.049,0.025,-0.031,-0.087,-0.118,-0.025,-0.113
-0.11,-0.102,0.009,0.106,-0.059,-0.046,0.024,-0.029,-0.1,-0.121,-0.021,-0.11
-0.132,-0.098,0.034,0.115,-0.083,-0.032,0.028,-0.024,-0.098,-0.115,-0.02,-0.109
-0.132,-0.104,0.027,0.118,-0.079,-0.039,0.037,-0.018,-0.094,-0.113,-0.02,-0.104
-0.153,-0.125,0.027,0.139,-0.09,-0.049,0.037,-0.034,-0.091,-0.108,-0.015,-0.101
-0.14,-0.117,0.022,0.128,-0.081,-0.047,0.034,-0.04,-0.086,-0.106,-0.016,-0.098
-0.126,-0.105,0.021,0.116,-0.073,-0.042,0.036,-0.034,-0.084,-0.101,-0.014,-0.093
-0.125,-0.104,0.022,0.115,-0.073,-0.041,0.033,-0.023,-0.076,-0.094,-0.007,-0.09
-0.101,-0.08,0.021,0.09,-0.061,-0.03,0.04,-0.004,-0.073,-0.088,-0.002,-0.084
-0.07,-0.029,0.041,0.05,-0.055,0.006,0.061,0.02,-0.054,-0.062,0.011,-0.067
-0.041,0.022,0.064,0.009,-0.053,0.043,0.061,0.039,-0.02,-0.041,0.037,-0.059
-0.022,0.053,0.075,-0.015,-0.049,0.063,0.043,0.03,0.006,-0.038,0.064,-0.058
-0.016,0.039,0.055,-0.012,-0.036,0.046,0.034,0.019,0.001,-0.037,0.056,-0.062
-0.011,0.013,0.025,-0.001,-0.018,0.019,0.029,0.004,-0.023,-0.037,0.05,-0.063
-0.007,-0.015,-0.008,0.011,0.001,-0.011,0.027,-0.014,-0.052,-0.066,0.035,-0.067
-0.063,-0.078,-0.015,0.071,-0.023,-0.047,0.025,-0.025,-0.071,-0.079,0.026,-0.07
-0.116,-0.12,-0.005,0.118,-0.055,-0.062,0.019,-0.04,-0.095,-0.099,0.005,-0.093
-0.12,-0.109,0.011,0.114,-0.066,-0.049,0.022,-0.032,-0.09,-0.102,-0.009,-0.102
-0.135,-0.107,0.029,0.121,-0.082,-0.039,0.008,-0.031,-0.098,-0.104,-0.009,-0.096
-0.125,-0.112,0.013,0.118,-0.069,-0.049,-0.001,-0.026,-0.109,-0.13,-0.03,-0.108
-0.122,-0.126,-0.004,0.124,-0.059,-0.065,0.003,-0.027,-0.075,-0.09,-0.006,-0.091
-0.19,-0.135,0.055,0.162,-0.122,-0.04,0.133,0.106,-0.082,-0.175,-0.114,-0.183
-0.119,-0.033,0.086,0.076,-0.102,0.026,0.19,0.302,0.197,0.006,-0.013,-0.135
0.34,0.227,-0.113,-0.284,0.226,0.057,-0.277,-0.143,0.278,0.431,0.537,0.349
0.88,0.644,-0.236,-0.762,0.558,0.204,-0.955,-1.039,0.105,1.007,1.328,1.062
0.932,0.477,-0.455,-0.704,0.693,0.011,-1.126,-1.382,-0.087,0.917,1.294,1.142
0.402,-0.17,-0.572,-0.116,0.487,-0.371,-0.624,-1.046,-0.7,-0.303,0.19,0.354
-0.117,-0.303,-0.186,0.21,0.035,-0.244,-0.148,-0.634,-0.766,-0.618,-0.23,-0.119
-0.232,-0.261,-0.028,0.247,-0.102,-0.144,0.008,-0.358,-0.416,-0.331,-0.147,-0.162
-0.211,-0.221,-0.011,0.216,-0.1,-0.115,0.072,-0.137,-0.258,-0.26,-0.132,-0.157
-0.159,-0.11,0.049,0.134,-0.104,-0.031,0.055,-0.028,-0.092,-0.113,-0.02,-0.102
-0.121,-0.113,0.008,0.117,-0.064,-0.052,0.052,0.031,-0.058,-0.099,-0.011,-0.091
-0.109,-0.113,-0.004,0.111,-0.052,-0.058,0.051,0.052,-0.03,-0.054,0.012,-0.076
-0.093,-0.098,-0.005,0.096,-0.044,-0.052,0.045,0.069,-0.017,-0.056,0.005,-0.074
-0.12,-0.095,0.025,0.107,-0.072,-0.034,0.046,0.092,-0.005,-0.043,0.011,-0.065
-0.113,-0.095,0.018,0.104,-0.065,-0.038,0.039,0.08,0.013,-0.033,0.023,-0.059
-0.111,-0.096,0.015,0.103,-0.062,-0.041,0.041,0.088,0.02,-0.033,0.036,-0.054
-0.106,-0.09,0.015,0.098,-0.06,-0.037,0.051,0.094,0.044,-0.018,0.046,-0.046
-0.064,-0.078,-0.013,0.071,-0.025,-0.045,0.056,0.099,0.053,-0.006,0.048,-0.038
-0.045,-0.062,-0.017,0.054,-0.014,-0.039,0.048,0.116,0.074,0.023,0.077,-0.028
-0.056,-0.067,-0.011,0.062,-0.022,-0.038,0.048,0.124,0.093,0.036,0.087,-0.015
-0.036,-0.055,-0.019,0.045,-0.008,-0.037,0.041,0.134,0.124,0.066,0.1,0.002
0.001,-0.01,-0.011,0.005,0.006,-0.01,0.04,0.148,0.152,0.084,0.117,0.018
0.011,0.016,0.006,-0.013,0.002,0.011,0.049,0.171,0.179,0.121,0.139,0.039
0.046,0.044,-0.001,-0.045,0.023,0.021,0.03,0.195,0.225,0.162,0.176,0.059
0.092,0.082,-0.009,-0.087,0.05,0.036,0.012,0.218,0.283,0.209,0.222,0.101
0.106,0.119,0.013,-0.113,0.046,0.066,0.009,0.244,0.342,0.274,0.274,0.147
0.123,0.16,0.038,-0.141,0.042,0.099,0.0,0.269,0.406,0.328,0.329,0.191
0.178,0.219,0.041,-0.198,0.068,0.13,-0.01,0.294,0.478,0.403,0.392,0.247
0.23,0.27,0.04,-0.25,0.095,0.154,-0.024,0.314,0.536,0.465,0.449,0.289
0.244,0.283,0.04,-0.264,0.102,0.162,-0.03,0.322,0.571,0.505,0.484,0.319
0.236,0.295,0.059,-0.266,0.088,0.177,-0.04,0.319,0.581,0.532,0.502,0.338
0.238,0.305,0.067,-0.272,0.085,0.186,-0.047,0.302,0.564,0.53,0.495,0.33
0.218,0.278,0.06,-0.248,0.079,0.169,-0.034,0.266,0.501,0.483,0.46,0.296
0.162,0.222,0.06,-0.192,0.051,0.141,-0.023,0.222,0.4,0.396,0.383,0.241
0.108,0.164,0.055,-0.136,0.026,0.109,-0.008,0.173,0.295,0.295,0.286,0.171
0.036,0.091,0.055,-0.064,-0.009,0.072,0.012,0.131,0.184,0.187,0.204,0.097
-0.01,0.038,0.048,-0.015,-0.03,0.043,0.033,0.103,0.102,0.104,0.134,0.038
-0.036,0.005,0.04,0.015,-0.038,0.022,0.051,0.084,0.048,0.047,0.083,0.012
-0.069,-0.035,0.034,0.051,-0.052,0.0,0.051,0.072,0.008,0.009,0.055,-0.018
-0.066,-0.04,0.026,0.053,-0.046,-0.007,0.05,0.063,-0.009,-0.006,0.047,-0.04
-0.069,-0.05,0.019,0.059,-0.044,-0.015,0.049,0.052,-0.028,-0.013,0.041,-0.042
-0.079,-0.062,0.017,0.07,-0.048,-0.022,0.045,0.043,-0.041,-0.019,0.033,-0.049
-0.072,-0.052,0.02,0.062,-0.046,-0.015,0.045,0.039,-0.04,-0.027,0.025,-0.049
-0.074,-0.05,0.023,0.062,-0.048,-0.013,0.047,0.04,-0.04,-0.028,0.023,-0.044
-0.071,-0.045,0.026,0.057,-0.048,-0.01,0.05,0.04,-0.037,-0.025,0.031,-0.041
-0.069,-0.039,0.03,0.054,-0.049,-0.005,0.05,0.04,-0.034,-0.022,0.03,-0.038
-0.078,-0.048,0.03,0.063,-0.053,-0.009,0.058,0.04,-0.036,-0.019,0.029,-0.033
-0.077,-0.052,0.025,0.064,-0.051,-0.013,0.066,0.039,-0.039,-0.016,0.031,-0.03
-0.071,-0.046,0.025,0.058,-0.048,-0.011,0.071,0.049,-0.041,-0.015,0.028,-0.033
-0.066,-0.041,0.025,0.053,-0.045,-0.007,0.075,0.056,-0.04,-0.021,0.034,-0.036
-0.064,-0.039,0.025,0.051,-0.044,-0.007,0.075,0.055,-0.041,-0.028,0.04,-0.039
-0.056,-0.031,0.025,0.043,-0.04,-0.003,0.075,0.053,-0.04,-0.033,0.035,-0.042
-0.059,-0.032,0.027,0.045,-0.043,-0.002,0.075,0.05,-0.041,-0.036,0.03,-0.044
-0.074,-0.044,0.03,0.059,-0.052,-0.006,0.075,0.05,-0.044,-0.035,0.024,-0.048
-0.074,-0.044,0.03,0.059,-0.051,-0.007,0.072,0.047,-0.046,-0.035,0.018,-0.05
-0.092,-0.062,0.03,0.077,-0.061,-0.016,0.067,0.044,-0.044,-0.035,0.014,-0.05
-0.101,-0.071,0.03,0.086,-0.065,-0.02,0.064,0.041,-0.047,-0.035,0.01,-0.05
-0.09,-0.06,0.03,0.075,-0.059,-0.015,0.061,0.038,-0.052,-0.041,0.008,-0.05
-0.086,-0.06,0.025,0.073,-0.055,-0.017,0.056,0.035,-0.055,-0.048,0.005,-0.05
-0.077,-0.052,0.025,0.064,-0.051,-0.013,0.056,0.036,-0.066,-0.052,0.002,-0.05
-0.074,-0.051,0.024,0.062,-0.049,-0.013,0.061,0.04,-0.071,-0.055,-0.001,-0.051
-0.075,-0.055,0.02,0.065,-0.047,-0.017,0.059,0.039,-0.069,-0.06,0.004,-0.056
-0.073,-0.053,0.02,0.063,-0.046,-0.016,0.063,0.043,-0.07,-0.06,0.005,-0.06
-0.092,-0.072,0.02,0.082,-0.056,-0.026,0.065,0.045,-0.07,-0.061,0.005,-0.06
-0.096,-0.076,0.02,0.086,-0.058,-0.028,0.065,0.045,-0.07,-0.065,0.005,-0.06
-0.085,-0.065,0.02,0.075,-0.053,-0.022,0.069,0.042,-0.072,-0.065,0.005,-0.06
-0.09,-0.07,0.02,0.08,-0.055,-0.025,0.07,0.039,-0.075,-0.065,0.004,-0.06
-0.09,-0.069,0.02,0.08,-0.055,-0.025,0.07,0.04,-0.075,-0.065,0.0,-0.06
-0.091,-0.071,0.019,0.081,-0.055,-0.026,0.07,0.04,-0.075,-0.065,0.0,-0.061
-0.09,-0.075,0.015,0.082,-0.052,-0.03,0.07,0.04,-0.075,-0.065,0.0,-0.065
-0.09,-0.075,0.015,0.082,-0.052,-0.03,0.069,0.039,-0.075,-0.065,0.0,-0.064
-0.087,-0.072,0.015,0.079,-0.051,-0.029,0.065,0.035,-0.08,-0.064,0.0,-0.067
-0.082,-0.066,0.016,0.074,-0.049,-0.025,0.065,0.035,-0.08,-0.061,-0.003,-0.07
-0.075,-0.061,0.014,0.067,-0.044,-0.023,0.065,0.035,-0.08,-0.058,-0.006,-0.07
-0.076,-0.057,0.02,0.066,-0.048,-0.018,0.065,0.035,-0.08,-0.055,-0.009,-0.07
-0.08,-0.049,0.031,0.064,-0.055,-0.009,0.065,0.035,-0.08,-0.053,-0.012,-0.07
-0.077,-0.047,0.03,0.062,-0.053,-0.008,0.061,0.032,-0.08,-0.048,-0.015,-0.07
-0.093,-0.063,0.03,0.078,-0.061,-0.016,0.06,0.029,-0.08,-0.059,-0.014,-0.07
-0.092,-0.066,0.026,0.079,-0.059,-0.02,0.06,0.026,-0.08,-0.067,-0.009,-0.071
-0.089,-0.064,0.025,0.076,-0.056,-0.02,0.055,0.024,-0.08,-0.062,-0.011,-0.068
-0.091,-0.065,0.025,0.078,-0.057,-0.02,0.055,0.019,-0.08,-0.06,-0.007,-0.065
-0.084,-0.065,0.019,0.074,-0.051,-0.022,0.055,0.022,-0.079,-0.056,-0.005,-0.062
-0.078,-0.064,0.013,0.071,-0.045,-0.025,0.054,0.026,-0.075,-0.054,-0.005,-0.06
-0.068,-0.059,0.009,0.064,-0.039,-0.025,0.067,0.025,-0.075,-0.058,-0.001,-0.057
-0.063,-0.061,0.003,0.062,-0.033,-0.029,0.071,0.024,-0.075,-0.073,0.0,-0.053
-0.054,-0.057,-0.003,0.056,-0.025,-0.03,0.066,0.021,-0.075,-0.075,0.0,-0.064
-0.052,-0.054,-0.003,0.053,-0.024,-0.028,0.065,0.019,-0.075,-0.069,0.0,-0.071
-0.063,-0.056,0.007,0.059,-0.034,-0.024,0.06,0.024,-0.078,-0.067,0.0,-0.07
-0.07,-0.051,0.019,0.06,-0.044,-0.016,0.06,0.031,-0.08,-0.062,0.0,-0.068
-0.057,-0.047,0.01,0.051,-0.033,-0.018,0.059,0.03,-0.075,-0.06,0.0,-0.064
-0.064,-0.04,0.023,0.052,-0.044,-0.008,0.069,0.029,-0.075,-0.053,0.0,-0.065
-0.082,-0.039,0.043,0.06,-0.062,0.002,0.076,0.026,-0.072,-0.058,0.0,-0.061
-0.064,-0.03,0.034,0.047,-0.049,0.002,0.07,0.024,-0.068,-0.067,0.0,-0.06
-0.07,-0.037,0.033,0.054,-0.052,-0.002,0.068,0.027,-0.079,-0.062,0.0,-0.06
-0.084,-0.056,0.028,0.07,-0.056,-0.013,0.063,0.031,-0.091,-0.06,-0.003,-0.055
-0.066,-0.041,0.025,0.053,-0.045,-0.008,0.06,0.03,-0.089,-0.057,-0.008,-0.055
-0.087,-0.058,0.029,0.072,-0.057,-0.014,0.064,0.025,-0.09,-0.053,-0.011,-0.056
-0.109,-0.078,0.031,0.094,-0.07,-0.023,0.066,0.025,-0.089,-0.063,-0.014,-0.06
-0.094,-0.066,0.028,0.08,-0.061,-0.019,0.063,0.018,-0.091,-0.071,-0.019,-0.06
-0.091,-0.067,0.025,0.079,-0.058,-0.021,0.076,0.025,-0.086,-0.065,-0.019,-0.06
-0.079,-0.058,0.02,0.068,-0.049,-0.019,0.081,0.039,-0.08,-0.063,-0.014,-0.06
-0.075,-0.057,0.018,0.065,-0.046,-0.019,0.076,0.041,-0.074,-0.059,-0.011,-0.06
-0.071,-0.058,0.013,0.064,-0.042,-0.022,0.075,0.04,-0.069,-0.053,-0.008,-0.057
-0.076,-0.067,0.009,0.072,-0.042,-0.029,0.071,0.041,-0.09,-0.062,-0.003,-0.051
-0.097,-0.069,0.028,0.082,-0.062,-0.02,0.07,0.039,-0.09,-0.059,0.0,-0.047
-0.076,-0.034,0.042,0.055,-0.059,0.004,0.069,0.044,-0.069,-0.04,0.004,-0.042
-0.069,-0.029,0.04,0.049,-0.054,0.005,0.078,0.061,-0.065,-0.034,0.014,-0.037
-0.053,-0.006,0.047,0.029,-0.05,0.02,0.088,0.054,-0.056,-0.028,0.02,-0.033
-0.02,0.052,0.072,-0.016,-0.046,0.061,0.108,0.086,-0.02,0.005,0.05,-0.004
0.014,0.09,0.076,-0.052,-0.031,0.083,0.099,0.117,0.011,0.036,0.071,0.013
0.026,0.083,0.057,-0.055,-0.015,0.069,0.063,0.08,0.007,0.031,0.058,0.003
-0.005,0.034,0.039,-0.014,-0.022,0.036,0.061,0.056,-0.023,0.003,0.056,0.002
-0.021,-0.002,0.018,0.011,-0.019,0.008,0.055,0.051,-0.057,-0.028,0.038,-0.01
-0.046,-0.036,0.01,0.04,-0.027,-0.013,0.048,0.042,-0.068,-0.036,0.009,-0.036
-0.098,-0.069,0.029,0.083,-0.063,-0.02,0.045,0.032,-0.098,-0.071,-0.029,-0.074
-0.115,-0.072,0.044,0.093,-0.079,-0.014,0.037,0.024,-0.084,-0.056,-0.022,-0.066
-0.096,-0.072,0.023,0.084,-0.059,-0.024,0.054,0.01,-0.093,-0.061,-0.032,-0.073
-0.077,-0.062,0.015,0.069,-0.046,-0.023,0.054,0.004,-0.098,-0.076,-0.035,-0.07
-0.085,-0.074,0.01,0.079,-0.047,-0.031,0.062,0.009,-0.081,-0.066,-0.029,-0.07
-0.179,-0.073,0.106,0.126,-0.142,0.016,0.205,0.196,-0.039,-0.117,-0.121,-0.157
-0.026,0.03,0.056,-0.002,-0.041,0.043,0.16,0.303,0.241,0.121,0.061,-0.03
0.532,0.32,-0.212,-0.426,0.372,0.054,-0.396,-0.338,0.204,0.513,0.625,0.469
1.018,0.688,-0.33,-0.852,0.674,0.179,-1.068,-1.264,0.024,0.974,1.296,1.106
0.94,0.33,-0.61,-0.635,0.775,-0.14,-1.067,-1.417,-0.251,0.566,0.962,0.946
0.331,-0.247,-0.578,-0.042,0.455,-0.413,-0.444,-0.936,-0.786,-0.49,-0.045,0.171
-0.125,-0.258,-0.134,0.192,0.004,-0.196,-0.056,-0.552,-0.677,-0.504,-0.232,-0.118
-0.174,-0.209,-0.035,0.191,-0.069,-0.122,0.077,-0.239,-0.342,-0.263,-0.159,-0.134
-0.113,-0.118,-0.005,0.116,-0.054,-0.062,0.11,-0.042,-0.19,-0.179,-0.108,-0.105
-0.124,-0.08,0.044,0.102,-0.084,-0.018,0.089,0.023,-0.068,-0.06,-0.029,-0.067
-0.095,-0.078,0.017,0.086,-0.056,-0.03,0.119,0.1,-0.052,-0.06,-0.036,-0.065
-0.059,-0.063,-0.004,0.061,-0.028,-0.033,0.118,0.1,-0.007,-0.033,-0.012,-0.05
-0.077,-0.086,-0.009,0.082,-0.034,-0.047,0.12,0.113,0.003,-0.036,-0.023,-0.054
-0.059,-0.066,-0.007,0.062,-0.026,-0.036,0.121,0.122,-0.008,-0.014,-0.009,-0.044
-0.057,-0.071,-0.014,0.064,-0.022,-0.042,0.13,0.129,0.006,-0.003,-0.004,-0.043
-0.052,-0.046,0.006,0.049,-0.029,-0.019,0.121,0.139,0.029,0.005,0.007,-0.037
-0.056,-0.052,0.004,0.054,-0.03,-0.024,0.126,0.152,0.061,0.033,0.018,-0.027
-0.027,-0.048,-0.021,0.038,-0.003,-0.034,0.122,0.159,0.075,0.047,0.027,-0.018
-0.026,-0.038,-0.012,0.033,-0.007,-0.025,0.101,0.14,0.075,0.043,0.046,-0.007
0.0,-0.014,-0.014,0.007,0.007,-0.014,0.1,0.169,0.104,0.058,0.06,0.004
0.026,0.013,-0.013,-0.019,0.019,0.001,0.089,0.19,0.13,0.078,0.077,0.017
-0.023,-0.005,0.018,0.014,-0.02,0.006,0.085,0.201,0.152,0.101,0.095,0.029
0.019,0.054,0.035,-0.037,-0.009,0.044,0.075,0.224,0.188,0.134,0.115,0.051
0.052,0.087,0.036,-0.07,0.008,0.061,0.088,0.246,0.233,0.167,0.145,0.078
0.082,0.111,0.029,-0.097,0.026,0.07,0.099,0.276,0.287,0.215,0.184,0.107
0.14,0.171,0.03,-0.156,0.055,0.1,0.083,0.305,0.345,0.272,0.23,0.147
0.18,0.2,0.02,-0.191,0.08,0.11,0.077,0.335,0.41,0.337,0.287,0.193
0.207,0.25,0.043,-0.229,0.082,0.146,0.068,0.355,0.479,0.405,0.347,0.244
0.209,0.284,0.074,-0.247,0.067,0.179,0.061,0.372,0.537,0.46,0.399,0.287
0.231,0.304,0.073,-0.268,0.079,0.189,0.055,0.378,0.564,0.5,0.434,0.311
0.259,0.339,0.079,-0.299,0.09,0.209,0.046,0.37,0.581,0.507,0.443,0.341
0.264,0.344,0.081,-0.304,0.092,0.212,0.041,0.337,0.56,0.509,0.443,0.337
0.217,0.301,0.084,-0.259,0.066,0.192,0.028,0.294,0.488,0.47,0.411,0.293
0.149,0.234,0.085,-0.192,0.032,0.159,0.045,0.26,0.391,0.38,0.333,0.238
0.1,0.175,0.075,-0.138,0.012,0.125,0.076,0.22,0.273,0.279,0.243,0.162
0.053,0.122,0.068,-0.088,-0.008,0.095,0.095,0.176,0.177,0.173,0.155,0.094
0.014,0.074,0.06,-0.044,-0.023,0.067,0.111,0.134,0.104,0.109,0.096,0.047
-0.024,0.028,0.052,-0.002,-0.039,0.04,0.11,0.107,0.038,0.049,0.052,0.005
-0.052,-0.005,0.046,0.028,-0.049,0.02,0.114,0.093,-0.007,0.002,0.018,-0.013
-0.06,-0.017,0.044,0.038,-0.052,0.014,0.116,0.08,-0.024,-0.017,0.005,-0.024
-0.064,-0.023,0.041,0.043,-0.052,0.009,0.118,0.073,-0.03,-0.029,0.005,-0.039
-0.065,-0.028,0.038,0.046,-0.051,0.005,0.121,0.069,-0.041,-0.037,0.004,-0.04
-0.08,-0.044,0.036,0.061,-0.058,-0.004,0.119,0.064,-0.044,-0.041,-0.001,-0.035
-0.084,-0.051,0.033,0.067,-0.058,-0.008,0.12,0.061,-0.041,-0.039,0.001,-0.033
-0.074,-0.044,0.03,0.059,-0.052,-0.006,0.12,0.053,-0.038,-0.044,-0.003,-0.028
-0.07,-0.042,0.028,0.056,-0.049,-0.007,0.118,0.065,-0.035,-0.045,-0.006,-0.025
-0.061,-0.037,0.024,0.049,-0.043,-0.006,0.115,0.077,-0.033,-0.045,-0.005,-0.031
-0.057,-0.035,0.023,0.046,-0.04,-0.006,0.113,0.074,-0.029,-0.039,-0.005,-0.036
-0.046,-0.029,0.017,0.038,-0.032,-0.006,0.109,0.073,-0.035,-0.034,-0.005,-0.043
-0.054,-0.024,0.03,0.039,-0.042,0.003,0.107,0.07,-0.041,-0.028,-0.006,-0.046
-0.065,-0.018,0.047,0.041,-0.056,0.014,0.103,0.069,-0.04,-0.024,-0.01,-0.045
-0.058,-0.014,0.044,0.035,-0.051,0.015,0.114,0.077,-0.041,-0.015,-0.015,-0.043
-0.05,-0.006,0.045,0.027,-0.047,0.019,0.127,0.083,-0.039,-0.023,-0.02,-0.04
-0.058,-0.013,0.045,0.035,-0.051,0.016,0.124,0.078,-0.048,-0.051,-0.024,-0.04
-0.084,-0.039,0.045,0.061,-0.064,0.002,0.125,0.076,-0.056,-0.056,-0.029,-0.044
-0.082,-0.04,0.042,0.061,-0.062,0.001,0.125,0.073,-0.057,-0.058,-0.033,-0.048
-0.078,-0.04,0.038,0.059,-0.058,-0.001,0.125,0.07,-0.06,-0.061,-0.035,-0.053
-0.077,-0.041,0.037,0.059,-0.057,-0.002,0.122,0.069,-0.064,-0.064,-0.038,-0.055
-0.072,-0.039,0.033,0.055,-0.052,-0.003,0.117,0.064,-0.076,-0.065,-0.041,-0.055
-0.072,-0.041,0.03,0.057,-0.051,-0.006,0.114,0.061,-0.08,-0.06,-0.044,-0.055
-0.062,-0.033,0.03,0.047,-0.046,-0.001,0.111,0.057,-0.08,-0.06,-0.046,-0.055
-0.063,-0.033,0.03,0.048,-0.047,-0.002,0.106,0.053,-0.08,-0.06,-0.049,-0.055
-0.064,-0.022,0.042,0.043,-0.052,0.01,0.106,0.05,-0.08,-0.06,-0.05,-0.055
-0.082,-0.035,0.046,0.058,-0.064,0.006,0.11,0.047,-0.08,-0.06,-0.051,-0.059
-0.093,-0.053,0.041,0.073,-0.067,-0.006,0.109,0.044,-0.08,-0.062,-0.055,-0.06
-0.088,-0.048,0.04,0.068,-0.064,-0.004,0.112,0.041,-0.08,-0.069,-0.055,-0.061
-0.105,-0.07,0.035,0.087,-0.07,-0.017,0.115,0.039,-0.08,-0.075,-0.053,-0.065
-0.088,-0.053,0.035,0.07,-0.061,-0.008,0.114,0.034,-0.08,-0.075,-0.05,-0.064
-0.095,-0.052,0.043,0.073,-0.069,-0.004,0.119,0.04,-0.08,-0.076,-0.05,-0.068
-0.108,-0.062,0.046,0.085,-0.077,-0.008,0.12,0.051,-0.08,-0.08,-0.05,-0.07
-0.096,-0.052,0.044,0.074,-0.07,-0.004,0.12,0.05,-0.08,-0.08,-0.05,-0.07
-0.099,-0.054,0.046,0.076,-0.072,-0.004,0.124,0.05,-0.08,-0.08,-0.05,-0.066
-0.09,-0.045,0.045,0.067,-0.067,0.0,0.125,0.05,-0.086,-0.08,-0.05,-0.065
-0.091,-0.047,0.044,0.068,-0.067,-0.001,0.123,0.05,-0.091,-0.08,-0.05,-0.065
-0.071,-0.034,0.036,0.052,-0.053,0.001,0.12,0.048,-0.089,-0.08,-0.05,-0.06
-0.075,-0.049,0.026,0.061,-0.05,-0.011,0.117,0.043,-0.086,-0.08,-0.05,-0.06
-0.118,-0.066,0.052,0.092,-0.085,-0.007,0.115,0.04,-0.085,-0.08,-0.049,-0.059
-0.117,-0.056,0.061,0.086,-0.089,0.003,0.111,0.037,-0.085,-0.075,-0.053,-0.055
-0.107,-0.053,0.054,0.08,-0.08,0.0,0.109,0.032,-0.085,-0.075,-0.055,-0.055
-0.098,-0.046,0.052,0.072,-0.075,0.003,0.114,0.03,-0.085,-0.074,-0.055,-0.055
-0.088,-0.042,0.047,0.065,-0.067,0.002,0.115,0.035,-0.087,-0.07,-0.055,-0.055
-0.081,-0.036,0.045,0.058,-0.063,0.004,0.114,0.043,-0.091,-0.071,-0.056,-0.055
-0.069,-0.032,0.037,0.05,-0.053,0.002,0.116,0.045,-0.09,-0.067,-0.054,-0.055
-0.056,-0.026,0.03,0.041,-0.043,0.002,0.113,0.045,-0.094,-0.065,-0.051,-0.055
-0.047,-0.03,0.017,0.038,-0.032,-0.006,0.11,0.045,-0.095,-0.065,-0.048,-0.055
-0.078,-0.046,0.033,0.062,-0.055,-0.006,0.11,0.045,-0.095,-0.065,-0.045,-0.055
-0.098,-0.045,0.053,0.071,-0.075,0.003,0.11,0.045,-0.1,-0.065,-0.043,-0.055
-0.086,-0.044,0.042,0.065,-0.063,-0.001,0.11,0.044,-0.1,-0.065,-0.038,-0.055
-0.085,-0.044,0.04,0.064,-0.062,-0.002,0.109,0.041,-0.101,-0.061,-0.051,-0.055
-0.071,-0.036,0.035,0.053,-0.053,0.0,0.114,0.038,-0.105,-0.059,-0.062,-0.055
-0.068,-0.039,0.029,0.053,-0.048,-0.004,0.121,0.036,-0.105,-0.061,-0.054,-0.055
-0.095,-0.058,0.037,0.076,-0.066,-0.01,0.126,0.031,-0.103,-0.058,-0.053,-0.055
-0.105,-0.062,0.043,0.083,-0.074,-0.01,0.131,0.031,-0.098,-0.072,-0.048,-0.056
-0.092,-0.056,0.036,0.074,-0.063,-0.01,0.13,0.032,-0.095,-0.08,-0.046,-0.05
-0.089,-0.056,0.034,0.072,-0.061,-0.011,0.133,0.038,-0.091,-0.07,-0.05,-0.062
-0.08,-0.053,0.027,0.066,-0.053,-0.013,0.134,0.049,-0.087,-0.064,-0.044,-0.068
-0.058,-0.03,0.027,0.043,-0.042,-0.002,0.136,0.047,-0.085,-0.057,-0.036,-0.054
-0.054,-0.002,0.053,0.028,-0.053,0.025,0.129,0.074,-0.073,-0.052,-0.028,-0.045
-0.021,0.035,0.056,-0.008,-0.039,0.046,0.136,0.099,-0.054,-0.038,-0.021,-0.034
-0.003,0.078,0.081,-0.038,-0.042,0.079,0.155,0.107,-0.029,-0.014,-0.01,-0.007
0.002,0.107,0.105,-0.054,-0.051,0.106,0.139,0.11,-0.019,0.012,0.007,0.008
0.027,0.094,0.067,-0.061,-0.02,0.08,0.122,0.094,-0.019,0.004,0.01,0.0
0.014,0.054,0.041,-0.034,-0.014,0.047,0.103,0.067,-0.037,-0.022,-0.003,-0.001
-0.006,0.018,0.024,-0.006,-0.015,0.021,0.099,0.045,-0.079,-0.048,-0.024,-0.009
-0.052,-0.03,0.021,0.041,-0.036,-0.005,0.1,0.045,-0.085,-0.056,-0.035,-0.029
-0.095,-0.046,0.049,0.07,-0.072,0.002,0.096,0.038,-0.111,-0.086,-0.065,-0.059
-0.089,-0.035,0.054,0.062,-0.072,0.009,0.095,0.039,-0.122,-0.1,-0.062,-0.058
-0.083,-0.044,0.039,0.063,-0.061,-0.002,0.094,0.03,-0.13,-0.107,-0.067,-0.068
-0.069,-0.036,0.033,0.052,-0.051,-0.001,0.096,0.023,-0.137,-0.108,-0.066,-0.069
-0.07,-0.042,0.027,0.056,-0.048,-0.007,0.11,0.03,-0.118,-0.095,-0.068,-0.069
-0.171,-0.045,0.125,0.108,-0.148,0.04,0.262,0.212,-0.056,-0.126,-0.158,-0.145
-0.013,0.045,0.058,-0.016,-0.036,0.051,0.225,0.336,0.22,0.104,0.023,-0.022
0.576,0.339,-0.237,-0.457,0.406,0.051,-0.352,-0.308,0.197,0.477,0.572,0.466
1.064,0.686,-0.378,-0.875,0.721,0.154,-1.031,-1.265,0.004,0.883,1.2,1.074
0.973,0.339,-0.633,-0.656,0.803,-0.147,-1.02,-1.41,-0.292,0.46,0.846,0.901
0.339,-0.222,-0.561,-0.058,0.451,-0.392,-0.399,-0.93,-0.813,-0.527,-0.125,0.141
-0.127,-0.234,-0.107,0.181,-0.01,-0.17,-0.005,-0.534,-0.697,-0.519,-0.283,-0.136
-0.196,-0.183,0.013,0.19,-0.104,-0.085,0.122,-0.226,-0.367,-0.284,-0.2,-0.144
-0.143,-0.112,0.032,0.127,-0.087,-0.04,0.139,-0.039,-0.219,-0.194,-0.157,-0.11
-0.082,-0.057,0.025,0.069,-0.053,-0.016,0.118,0.048,-0.091,-0.081,-0.077,-0.064
-0.079,-0.063,0.016,0.071,-0.047,-0.023,0.143,0.095,-0.075,-0.086,-0.077,-0.06
-0.06,-0.04,0.02,0.05,-0.039,-0.01,0.131,0.103,-0.048,-0.048,-0.05,-0.047
-0.053,-0.048,0.005,0.05,-0.028,-0.021,0.137,0.123,-0.042,-0.051,-0.053,-0.052
-0.071,-0.037,0.034,0.054,-0.052,-0.002,0.153,0.131,-0.029,-0.033,-0.035,-0.042
-0.075,-0.039,0.037,0.057,-0.056,-0.001,0.16,0.153,-0.015,-0.025,-0.03,-0.042
-0.061,-0.032,0.029,0.046,-0.044,-0.001,0.154,0.153,-0.007,-0.017,-0.022,-0.037
-0.046,-0.024,0.022,0.035,-0.034,-0.001,0.149,0.152,0.012,-0.003,-0.011,-0.027
-0.023,-0.009,0.014,0.016,-0.018,0.002,0.146,0.166,0.022,0.006,-0.008,-0.018
-0.02,-0.014,0.006,0.017,-0.013,-0.004,0.139,0.173,0.037,0.019,0.014,-0.007
-0.019,0.008,0.027,0.005,-0.023,0.017,0.137,0.193,0.063,0.042,0.028,0.002
-0.012,0.028,0.04,-0.008,-0.026,0.034,0.133,0.204,0.082,0.063,0.032,0.013
-0.019,0.008,0.027,0.006,-0.023,0.017,0.131,0.216,0.111,0.077,0.048,0.024
0.038,0.061,0.023,-0.05,0.007,0.042,0.128,0.241,0.152,0.11,0.085,0.052
0.079,0.093,0.014,-0.086,0.032,0.054,0.126,0.265,0.194,0.147,0.118,0.086
0.11,0.116,0.006,-0.114,0.052,0.061,0.124,0.292,0.242,0.194,0.146,0.106
0.152,0.166,0.014,-0.159,0.069,0.09,0.115,0.324,0.304,0.246,0.195,0.151
0.199,0.211,0.012,-0.205,0.093,0.111,0.105,0.361,0.367,0.308,0.255,0.2
0.257,0.272,0.015,-0.265,0.12,0.144,0.095,0.385,0.424,0.369,0.307,0.236
0.266,0.301,0.034,-0.284,0.116,0.167,0.089,0.394,0.479,0.418,0.355,0.283
0.295,0.331,0.036,-0.313,0.129,0.183,0.09,0.403,0.511,0.456,0.395,0.325
0.301,0.34,0.038,-0.32,0.131,0.189,0.09,0.389,0.532,0.473,0.419,0.33
0.286,0.329,0.043,-0.307,0.121,0.186,0.09,0.357,0.515,0.466,0.417,0.32
0.278,0.321,0.043,-0.3,0.117,0.182,0.09,0.326,0.447,0.427,0.373,0.306
0.216,0.269,0.053,-0.243,0.081,0.161,0.09,0.285,0.362,0.354,0.294,0.247
0.146,0.207,0.061,-0.177,0.042,0.134,0.102,0.246,0.252,0.259,0.206,0.166
0.097,0.154,0.057,-0.126,0.019,0.105,0.135,0.213,0.152,0.166,0.131,0.097
0.049,0.104,0.055,-0.077,-0.003,0.079,0.152,0.175,0.081,0.093,0.072,0.043
0.015,0.066,0.052,-0.041,-0.018,0.059,0.147,0.138,0.022,0.041,0.026,0.003
-0.011,0.038,0.05,-0.013,-0.031,0.044,0.145,0.112,-0.01,0.008,-0.002,-0.02
-0.025,0.021,0.047,0.002,-0.036,0.034,0.145,0.104,-0.033,-0.01,-0.021,-0.03
-0.031,0.014,0.045,0.008,-0.038,0.029,0.145,0.101,-0.056,-0.029,-0.036,-0.036
-0.044,0.001,0.045,0.021,-0.044,0.023,0.145,0.097,-0.06,-0.041,-0.042,-0.035
-0.046,-0.006,0.04,0.026,-0.043,0.017,0.145,0.093,-0.06,-0.04,-0.04,-0.035
-0.053,-0.013,0.04,0.033,-0.046,0.013,0.15,0.09,-0.064,-0.038,-0.036,-0.035
-0.059,-0.019,0.04,0.039,-0.05,0.01,0.15,0.09,-0.066,-0.035,-0.034,-0.035
-0.044,-0.005,0.04,0.025,-0.042,0.017,0.151,0.09,-0.062,-0.035,-0.03,-0.036
-0.047,-0.007,0.04,0.027,-0.044,0.016,0.155,0.09,-0.06,-0.036,-0.03,-0.039
-0.052,-0.012,0.04,0.032,-0.046,0.014,0.155,0.09,-0.06,-0.034,-0.035,-0.04
-0.049,-0.009,0.04,0.029,-0.044,0.016,0.152,0.09,-0.06,-0.036,-0.035,-0.04
-0.051,-0.011,0.04,0.031,-0.045,0.015,0.15,0.089,-0.06,-0.047,-0.036,-0.04
-0.053,-0.01,0.043,0.031,-0.048,0.016,0.15,0.085,-0.06,-0.051,-0.034,-0.04
-0.057,-0.01,0.047,0.033,-0.052,0.018,0.15,0.085,-0.065,-0.049,-0.036,-0.043
-0.053,-0.004,0.049,0.029,-0.051,0.023,0.15,0.085,-0.064,-0.051,-0.034,-0.046
-0.048,0.006,0.054,0.021,-0.051,0.03,0.15,0.085,-0.069,-0.049,-0.037,-0.045
-0.046,0.008,0.054,0.019,-0.05,0.03,0.154,0.085,-0.083,-0.052,-0.061,-0.049
-0.053,-0.003,0.05,0.028,-0.051,0.023,0.155,0.081,-0.087,-0.063,-0.067,-0.05
-0.06,-0.01,0.05,0.035,-0.055,0.02,0.155,0.08,-0.092,-0.066,-0.064,-0.05
-0.06,-0.01,0.05,0.035,-0.055,0.02,0.155,0.08,-0.095,-0.064,-0.066,-0.055
-0.06,-0.01,0.05,0.035,-0.055,0.02,0.155,0.075,-0.095,-0.066,-0.064,-0.055
-0.06,-0.01,0.05,0.035,-0.055,0.02,0.153,0.075,-0.094,-0.064,-0.065,-0.055
-0.059,-0.009,0.05,0.034,-0.055,0.02,0.149,0.074,-0.102,-0.066,-0.065,-0.055
-0.063,-0.013,0.05,0.038,-0.056,0.018,0.15,0.069,-0.116,-0.084,-0.065,-0.055
-0.068,-0.018,0.05,0.043,-0.059,0.016,0.146,0.064,-0.114,-0.092,-0.065,-0.052
-0.066,-0.017,0.049,0.041,-0.057,0.016,0.145,0.059,-0.116,-0.089,-0.065,-0.05
-0.066,-0.01,0.056,0.038,-0.061,0.023,0.145,0.056,-0.121,-0.091,-0.065,-0.05
-0.075,-0.014,0.06,0.045,-0.068,0.023,0.14,0.049,-0.119,-0.089,-0.068,-0.05
-0.081,-0.026,0.055,0.053,-0.068,0.014,0.14,0.059,-0.123,-0.091,-0.07,-0.05
-0.08,-0.025,0.055,0.052,-0.067,0.015,0.14,0.066,-0.125,-0.095,-0.072,-0.051
-0.079,-0.025,0.054,0.052,-0.066,0.015,0.14,0.06,-0.125,-0.095,-0.076,-0.056
-0.081,-0.025,0.056,0.053,-0.068,0.015,0.14,0.058,-0.125,-0.095,-0.073,-0.055
-0.078,-0.025,0.053,0.051,-0.065,0.014,0.137,0.053,-0.125,-0.095,-0.07,-0.055
-0.083,-0.025,0.058,0.054,-0.07,0.016,0.135,0.05,-0.13,-0.096,-0.07,-0.055
-0.09,-0.02,0.07,0.055,-0.08,0.025,0.132,0.046,-0.13,-0.092,-0.068,-0.055
-0.088,-0.017,0.07,0.053,-0.079,0.026,0.129,0.045,-0.133,-0.089,-0.065,-0.055
-0.081,-0.012,0.068,0.046,-0.074,0.027,0.126,0.045,-0.136,-0.09,-0.065,-0.06
-0.076,-0.011,0.065,0.043,-0.07,0.027,0.124,0.04,-0.132,-0.086,-0.072,-0.068
-0.069,-0.004,0.065,0.036,-0.067,0.031,0.125,0.04,-0.13,-0.085,-0.076,-0.07
-0.071,-0.009,0.063,0.04,-0.067,0.027,0.124,0.04,-0.129,-0.084,-0.074,-0.073
-0.08,-0.024,0.056,0.052,-0.068,0.016,0.126,0.04,-0.131,-0.095,-0.076,-0.076
-0.064,-0.013,0.051,0.038,-0.057,0.019,0.124,0.04,-0.128,-0.106,-0.074,-0.079
-0.079,-0.032,0.047,0.055,-0.063,0.007,0.126,0.04,-0.138,-0.098,-0.079,-0.081
-0.08,-0.041,0.039,0.061,-0.059,-0.002,0.122,0.041,-0.149,-0.095,-0.079,-0.074
-0.055,-0.017,0.038,0.035,-0.046,0.01,0.12,0.039,-0.14,-0.087,-0.07,-0.068
-0.068,-0.018,0.05,0.043,-0.059,0.016,0.12,0.04,-0.13,-0.082,-0.065,-0.06
-0.076,-0.009,0.067,0.042,-0.071,0.029,0.12,0.055,-0.117,-0.078,-0.056,-0.055
-0.064,0.021,0.085,0.021,-0.074,0.053,0.138,0.068,-0.102,-0.066,-0.053,-0.043
-0.014,0.069,0.083,-0.028,-0.048,0.076,0.149,0.081,-0.081,-0.06,-0.035,-0.019
0.012,0.117,0.105,-0.065,-0.047,0.111,0.166,0.11,-0.043,-0.028,0.0,-0.002
0.012,0.118,0.106,-0.065,-0.048,0.112,0.144,0.111,-0.055,-0.001,-0.006,-0.003
0.023,0.093,0.069,-0.058,-0.023,0.081,0.106,0.074,-0.076,-0.005,-0.02,0.006
-0.017,0.046,0.063,-0.015,-0.04,0.055,0.111,0.033,-0.093,-0.054,-0.027,-0.001
-0.069,-0.002,0.067,0.035,-0.068,0.032,0.109,0.014,-0.132,-0.085,-0.049,-0.036
-0.067,-0.004,0.063,0.035,-0.065,0.03,0.103,0.015,-0.143,-0.092,-0.074,-0.059
-0.071,-0.005,0.066,0.038,-0.068,0.03,0.107,0.013,-0.157,-0.128,-0.091,-0.077
-0.067,-0.007,0.06,0.037,-0.064,0.027,0.1,0.012,-0.149,-0.109,-0.077,-0.071
-0.065,-0.007,0.058,0.036,-0.061,0.025,0.098,0.006,-0.183,-0.133,-0.106,-0.091
-0.091,-0.035,0.056,0.063,-0.073,0.01,0.087,0.024,-0.14,-0.107,-0.078,-0.072
-0.139,-0.07,0.069,0.104,-0.104,0.0,0.17,0.1,-0.126,-0.146,-0.151,-0.127
-0.156,-0.031,0.126,0.094,-0.141,0.047,0.334,0.334,0.006,-0.109,-0.196,-0.194
0.238,0.124,-0.114,-0.181,0.175,0.005,0.051,0.212,0.264,0.233,0.211,0.14
0.852,0.539,-0.313,-0.695,0.582,0.113,-0.624,-0.574,0.176,0.722,0.957,0.841
1.044,0.697,-0.347,-0.87,0.695,0.175,-0.987,-1.192,-0.054,0.887,1.237,1.183
0.593,0.131,-0.462,-0.362,0.528,-0.165,-0.675,-1.123,-0.629,-0.061,0.331,0.538
-0.034,-0.184,-0.151,0.109,0.059,-0.167,-0.086,-0.66,-0.853,-0.626,-0.322,-0.079
-0.236,-0.164,0.072,0.2,-0.154,-0.046,0.165,-0.334,-0.524,-0.377,-0.26,-0.156
-0.229,-0.189,0.04,0.209,-0.134,-0.074,0.157,-0.182,-0.422,-0.354,-0.261,-0.189
-0.177,-0.093,0.085,0.135,-0.131,-0.004,0.119,-0.058,-0.249,-0.196,-0.149,-0.117
-0.101,-0.045,0.056,0.073,-0.078,0.005,0.111,0.027,-0.14,-0.111,-0.097,-0.076
-0.081,-0.023,0.058,0.052,-0.07,0.018,0.114,0.081,-0.127,-0.093,-0.085,-0.07
-0.074,-0.031,0.044,0.052,-0.059,0.006,0.105,0.082,-0.105,-0.069,-0.074,-0.052
-0.081,-0.036,0.045,0.058,-0.063,0.004,0.107,0.082,-0.103,-0.079,-0.075,-0.053
-0.053,-0.001,0.052,0.026,-0.052,0.025,0.102,0.087,-0.083,-0.057,-0.055,-0.042
-0.016,0.008,0.025,0.004,-0.021,0.016,0.101,0.1,-0.087,-0.058,-0.048,-0.041
-0.026,-0.003,0.023,0.015,-0.025,0.01,0.098,0.102,-0.067,-0.036,-0.03,-0.032
-0.05,-0.014,0.036,0.032,-0.043,0.011,0.093,0.097,-0.049,-0.033,-0.026,-0.028
-0.037,-0.002,0.035,0.019,-0.036,0.016,0.094,0.106,-0.038,-0.019,-0.015,-0.016
-0.015,0.009,0.024,0.003,-0.02,0.016,0.086,0.112,-0.032,-0.015,-0.014,-0.016
0.01,0.031,0.021,-0.021,-0.006,0.025,0.089,0.123,0.001,0.001,0.016,0.008
0.062,0.071,0.009,-0.067,0.027,0.04,0.087,0.143,0.03,0.037,0.049,0.036
0.111,0.094,-0.017,-0.102,0.064,0.038,0.068,0.148,0.046,0.057,0.066,0.046
0.109,0.09,-0.019,-0.099,0.063,0.036,0.065,0.14,0.072,0.08,0.092,0.079
0.11,0.112,0.002,-0.111,0.054,0.057,0.044,0.156,0.116,0.125,0.122,0.1
0.148,0.14,-0.008,-0.144,0.078,0.066,0.024,0.172,0.167,0.174,0.171,0.147
0.206,0.178,-0.028,-0.191,0.117,0.074,0.017,0.18,0.214,0.222,0.215,0.194
0.264,0.231,-0.033,-0.247,0.148,0.098,-0.015,0.193,0.269,0.287,0.277,0.234
0.285,0.259,-0.026,-0.272,0.155,0.117,-0.044,0.198,0.314,0.342,0.341,0.293
0.333,0.297,-0.036,-0.315,0.184,0.13,-0.061,0.217,0.357,0.39,0.383,0.336
0.326,0.319,-0.006,-0.322,0.166,0.156,-0.084,0.223,0.376,0.423,0.414,0.359
0.312,0.337,0.025,-0.324,0.143,0.18,-0.087,0.214,0.372,0.44,0.419,0.364
0.311,0.322,0.01,-0.317,0.15,0.166,-0.077,0.201,0.339,0.418,0.389,0.336
0.221,0.26,0.04,-0.241,0.09,0.15,-0.053,0.182,0.272,0.345,0.324,0.278
0.151,0.213,0.062,-0.183,0.044,0.138,-0.005,0.168,0.202,0.255,0.241,0.213
0.086,0.166,0.08,-0.126,0.003,0.123,0.029,0.148,0.112,0.158,0.143,0.128
0.032,0.115,0.083,-0.073,-0.026,0.099,0.056,0.124,0.029,0.079,0.068,0.057
-0.005,0.065,0.07,-0.03,-0.037,0.067,0.076,0.103,-0.025,0.029,0.025,0.026
-0.045,0.027,0.072,0.009,-0.058,0.049,0.087,0.09,-0.068,-0.008,-0.008,-0.005
-0.063,-0.005,0.058,0.034,-0.061,0.026,0.092,0.078,-0.093,-0.044,-0.037,-0.038
-0.083,-0.019,0.064,0.051,-0.074,0.022,0.084,0.067,-0.108,-0.065,-0.051,-0.047
-0.093,-0.008,0.085,0.05,-0.089,0.038,0.08,0.06,-0.117,-0.07,-0.049,-0.044
-0.084,-0.002,0.082,0.043,-0.083,0.04,0.075,0.055,-0.12,-0.081,-0.05,-0.046
-0.09,-0.011,0.079,0.051,-0.085,0.034,0.067,0.05,-0.12,-0.081,-0.05,-0.045
-0.1,-0.019,0.08,0.06,-0.09,0.03,0.07,0.047,-0.12,-0.078,-0.05,-0.045
-0.079,0.001,0.08,0.039,-0.079,0.04,0.083,0.04,-0.12,-0.077,-0.05,-0.043
-0.066,0.015,0.08,0.025,-0.073,0.047,0.089,0.043,-0.12,-0.072,-0.05,-0.038
-0.08,-0.006,0.074,0.043,-0.077,0.033,0.087,0.058,-0.121,-0.08,-0.061,-0.043
-0.066,0.002,0.068,0.032,-0.067,0.035,0.098,0.063,-0.119,-0.088,-0.066,-0.033
-0.045,0.015,0.06,0.015,-0.053,0.037,0.092,0.06,-0.121,-0.094,-0.064,-0.038
-0.054,0.002,0.056,0.026,-0.055,0.029,0.106,0.055,-0.119,-0.085,-0.066,-0.032
-0.047,-0.002,0.045,0.024,-0.045,0.021,0.095,0.05,-0.121,-0.089,-0.065,-0.037
-0.066,-0.011,0.055,0.038,-0.06,0.022,0.103,0.047,-0.118,-0.081,-0.066,-0.035
-0.096,-0.018,0.077,0.057,-0.086,0.029,0.101,0.039,-0.126,-0.095,-0.07,-0.035
-0.084,-0.013,0.071,0.048,-0.077,0.028,0.092,0.043,-0.151,-0.138,-0.07,-0.063
-0.068,0.002,0.069,0.033,-0.069,0.035,0.299,0.054,-0.148,-0.042,-0.074,-0.03
-0.05,0.014,0.064,0.017,-0.057,0.039,0.336,0.048,-0.153,0.013,-0.075,-0.08
-0.066,-0.003,0.062,0.035,-0.064,0.029,0.287,0.039,-0.153,-0.008,-0.077,0.052
-0.054,-0.006,0.048,0.03,-0.051,0.021,0.351,0.036,-0.158,0.005,-0.081,0.11
-0.015,-0.011,0.004,0.013,-0.009,-0.004,0.351,0.025,-0.147,-0.004,-0.08,-0.028
0.001,-0.021,-0.022,0.011,0.012,-0.022,0.396,0.035,-0.118,0.003,-0.08,0.017
