-0.013,-0.003,0.01,0.008,-0.011,0.003,-0.01,-0.215,-0.16,-0.04,0.049,0.089
-0.037,-0.02,0.018,0.028,-0.027,-0.001,-0.01,-0.215,-0.16,-0.04,0.045,0.085
-0.048,-0.02,0.028,0.034,-0.038,0.003,-0.01,-0.212,-0.16,-0.037,0.044,0.084
-0.038,-0.017,0.021,0.027,-0.029,0.002,-0.01,-0.209,-0.156,-0.034,0.04,0.08
-0.024,-0.013,0.011,0.018,-0.017,-0.001,-0.01,-0.207,-0.155,-0.031,0.038,0.078
-0.006,-0.012,-0.005,0.009,0.0,-0.008,-0.01,-0.204,-0.155,-0.03,0.034,0.074
-0.01,-0.008,0.002,0.009,-0.006,-0.003,-0.005,-0.215,-0.162,-0.035,0.038,0.076
-0.037,-0.024,0.013,0.03,-0.025,-0.005,-0.005,-0.223,-0.17,-0.048,0.041,0.073
-0.039,-0.032,0.007,0.036,-0.023,-0.012,-0.005,-0.226,-0.17,-0.05,0.039,0.075
-0.007,-0.018,-0.011,0.013,0.002,-0.014,-0.005,-0.23,-0.17,-0.051,0.041,0.081
-0.034,-0.033,0.001,0.034,-0.018,-0.015,-0.005,-0.225,-0.17,-0.055,0.039,0.077
-0.061,-0.042,0.019,0.052,-0.04,-0.012,-0.008,-0.225,-0.17,-0.055,0.041,0.075
-0.046,-0.039,0.007,0.042,-0.026,-0.016,-0.021,-0.224,-0.17,-0.055,0.044,0.072
-0.058,-0.04,0.017,0.049,-0.038,-0.011,-0.032,-0.219,-0.165,-0.055,0.047,0.069
-0.062,-0.04,0.021,0.051,-0.041,-0.009,-0.031,-0.221,-0.165,-0.056,0.049,0.074
-0.064,-0.04,0.024,0.051,-0.044,-0.007,-0.026,-0.217,-0.163,-0.051,0.052,0.075
-0.059,-0.039,0.02,0.049,-0.04,-0.009,-0.024,-0.215,-0.161,-0.05,0.056,0.075
-0.047,-0.032,0.015,0.039,-0.031,-0.008,-0.019,-0.211,-0.159,-0.049,0.052,0.074
-0.039,-0.028,0.011,0.033,-0.025,-0.008,-0.016,-0.21,-0.159,-0.045,0.05,0.068
-0.031,-0.025,0.006,0.027,-0.018,-0.009,-0.012,-0.205,-0.152,-0.045,0.049,0.081
-0.016,-0.016,0.0,0.016,-0.008,-0.007,-0.01,-0.206,-0.157,-0.044,0.052,0.091
-0.014,-0.023,-0.009,0.019,-0.002,-0.016,-0.01,-0.227,-0.152,-0.048,0.046,0.076
-0.006,0.002,0.008,0.002,-0.007,0.005,0.018,-0.231,-0.138,-0.031,0.055,0.1
-0.005,-0.02,-0.015,0.012,0.005,-0.018,0.029,-0.229,-0.171,-0.038,0.079,0.125
-0.033,-0.058,-0.024,0.046,-0.004,-0.041,0.013,-0.23,-0.174,-0.059,0.071,0.115
-0.033,-0.039,-0.006,0.036,-0.013,-0.022,0.004,-0.23,-0.161,-0.053,0.063,0.109
-0.027,-0.042,-0.015,0.035,-0.006,-0.028,-0.009,-0.229,-0.163,-0.056,0.057,0.101
-0.023,-0.034,-0.01,0.029,-0.006,-0.022,-0.021,-0.225,-0.156,-0.055,0.048,0.094
-0.042,-0.031,0.011,0.037,-0.027,-0.01,-0.02,-0.225,-0.155,-0.055,0.043,0.088
-0.037,-0.026,0.011,0.031,-0.024,-0.007,-0.013,-0.225,-0.15,-0.054,0.037,0.084
-0.028,-0.028,0.0,0.028,-0.013,-0.014,-0.009,-0.225,-0.155,-0.05,0.035,0.085
-0.061,-0.05,0.011,0.055,-0.036,-0.019,-0.002,-0.224,-0.159,-0.047,0.031,0.081
-0.047,-0.045,0.002,0.046,-0.024,-0.022,0.002,-0.222,-0.16,-0.044,0.028,0.08
-0.038,-0.039,-0.001,0.039,-0.018,-0.019,0.004,-0.219,-0.16,-0.041,0.024,0.08
-0.024,-0.034,-0.01,0.03,-0.007,-0.022,-0.002,-0.221,-0.159,-0.039,0.036,0.087
-0.023,-0.028,-0.005,0.025,-0.008,-0.017,-0.002,-0.215,-0.161,-0.037,0.061,0.096
-0.032,-0.021,0.012,0.026,-0.022,-0.004,-0.006,-0.214,-0.159,-0.029,0.066,0.099
0.009,-0.01,-0.019,0.0,0.015,-0.014,-0.026,-0.22,-0.156,-0.037,0.064,0.103
0.052,-0.001,-0.052,-0.025,0.052,-0.026,-0.034,-0.218,-0.138,-0.028,0.065,0.108
0.052,0.025,-0.027,-0.039,0.04,-0.001,0.0,-0.182,-0.142,-0.009,0.067,0.112
0.048,0.057,0.009,-0.053,0.019,0.033,0.009,-0.131,-0.139,0.015,0.083,0.124
0.047,0.005,-0.043,-0.026,0.045,-0.019,-0.038,-0.191,-0.138,-0.004,0.077,0.116
0.029,-0.004,-0.034,-0.012,0.032,-0.019,-0.011,-0.234,-0.145,-0.015,0.061,0.103
0.008,0.009,0.001,-0.009,0.004,0.005,0.019,-0.224,-0.141,0.004,0.061,0.098
-0.042,-0.042,0.0,0.042,-0.021,-0.02,-0.001,-0.229,-0.193,-0.062,0.041,0.082
-0.048,-0.078,-0.03,0.063,-0.009,-0.054,-0.007,-0.202,-0.147,-0.033,0.053,0.088
-0.049,-0.069,-0.02,0.06,-0.015,-0.044,-0.006,-0.194,-0.175,-0.07,0.032,0.06
-0.015,-0.039,-0.025,0.027,0.005,-0.032,0.122,0.114,-0.001,-0.047,0.034,0.032
0.067,0.065,-0.002,-0.066,0.034,0.031,0.157,0.445,0.302,0.171,0.185,0.181
0.336,0.655,0.319,-0.496,0.008,0.487,-0.183,0.273,1.249,1.282,1.14,0.957
0.448,0.988,0.54,-0.718,-0.046,0.764,-0.429,-0.247,1.649,2.088,1.789,1.422
-0.036,0.481,0.517,-0.223,-0.277,0.498,-0.292,-0.91,-0.398,0.425,0.509,0.5
-0.22,-0.045,0.176,0.132,-0.198,0.065,-0.074,-0.819,-1.036,-0.526,-0.297,-0.129
-0.033,-0.232,-0.199,0.133,0.083,-0.216,-0.009,-0.262,-0.224,-0.111,-0.074,-0.023
-0.001,-0.183,-0.182,0.092,0.091,-0.183,-0.012,-0.157,-0.212,-0.146,-0.084,-0.013
0.002,-0.097,-0.099,0.048,0.05,-0.097,0.03,-0.118,-0.051,-0.029,0.012,0.058
-0.017,-0.045,-0.028,0.031,0.006,-0.036,0.04,-0.085,-0.055,-0.018,0.021,0.085
-0.007,-0.014,-0.007,0.011,0.001,-0.011,0.049,-0.065,-0.011,0.022,0.045,0.096
-0.027,-0.03,-0.003,0.029,-0.012,-0.017,0.058,-0.044,0.019,0.038,0.063,0.105
-0.058,-0.043,0.014,0.05,-0.036,-0.014,0.052,-0.045,0.03,0.018,0.057,0.102
-0.004,-0.005,-0.001,0.004,-0.001,-0.003,0.06,-0.02,0.069,0.051,0.072,0.108
-0.02,0.003,0.023,0.008,-0.021,0.013,0.059,-0.006,0.051,0.05,0.058,0.101
-0.037,0.0,0.037,0.018,-0.037,0.018,0.061,0.021,0.088,0.072,0.072,0.11
0.01,0.043,0.033,-0.027,-0.012,0.038,0.071,0.022,0.087,0.053,0.081,0.122
0.008,0.045,0.037,-0.027,-0.014,0.041,0.076,0.049,0.128,0.08,0.098,0.126
-0.006,0.027,0.033,-0.011,-0.02,0.03,0.074,0.082,0.156,0.096,0.098,0.124
-0.001,0.043,0.044,-0.021,-0.023,0.044,0.075,0.105,0.182,0.106,0.107,0.125
-0.009,0.048,0.056,-0.02,-0.033,0.052,0.075,0.125,0.205,0.107,0.102,0.118
0.003,0.057,0.054,-0.03,-0.026,0.055,0.075,0.163,0.246,0.131,0.121,0.134
0.041,0.094,0.053,-0.068,-0.006,0.073,0.075,0.216,0.302,0.166,0.141,0.157
0.054,0.101,0.047,-0.077,0.004,0.074,0.075,0.25,0.34,0.164,0.139,0.162
0.028,0.094,0.066,-0.061,-0.019,0.08,0.075,0.31,0.398,0.2,0.165,0.166
0.023,0.104,0.081,-0.064,-0.029,0.093,0.075,0.382,0.47,0.235,0.184,0.177
0.078,0.146,0.068,-0.112,0.004,0.107,0.075,0.462,0.547,0.271,0.209,0.196
0.08,0.17,0.089,-0.125,-0.005,0.129,0.073,0.551,0.641,0.321,0.246,0.217
0.079,0.201,0.122,-0.14,-0.022,0.161,0.066,0.652,0.746,0.37,0.289,0.242
0.087,0.227,0.14,-0.157,-0.026,0.183,0.059,0.737,0.835,0.434,0.319,0.265
0.108,0.25,0.142,-0.179,-0.017,0.196,0.052,0.806,0.922,0.491,0.364,0.299
0.17,0.306,0.136,-0.238,0.017,0.22,0.046,0.863,0.996,0.534,0.412,0.331
0.137,0.299,0.162,-0.218,-0.013,0.23,0.04,0.853,1.02,0.569,0.431,0.353
0.106,0.281,0.175,-0.194,-0.035,0.228,0.034,0.804,0.998,0.585,0.449,0.352
0.111,0.264,0.153,-0.188,-0.021,0.208,0.028,0.689,0.901,0.551,0.425,0.336
0.09,0.221,0.131,-0.156,-0.021,0.176,0.02,0.515,0.706,0.462,0.368,0.313
0.066,0.172,0.106,-0.119,-0.021,0.139,0.015,0.33,0.471,0.336,0.288,0.262
0.037,0.111,0.074,-0.074,-0.019,0.092,0.006,0.158,0.268,0.212,0.201,0.203
0.018,0.057,0.039,-0.038,-0.011,0.048,0.012,0.046,0.116,0.125,0.142,0.151
-0.002,0.015,0.017,-0.007,-0.009,0.015,0.026,-0.046,0.011,0.062,0.099,0.117
-0.013,-0.007,0.006,0.009,-0.009,0.0,0.024,-0.102,-0.052,0.024,0.063,0.092
-0.027,-0.028,-0.001,0.028,-0.013,-0.014,0.025,-0.12,-0.087,-0.004,0.04,0.075
-0.041,-0.05,-0.008,0.046,-0.016,-0.029,0.025,-0.136,-0.1,-0.026,0.035,0.069
-0.036,-0.048,-0.013,0.042,-0.011,-0.03,0.025,-0.127,-0.093,-0.024,0.03,0.066
-0.02,-0.043,-0.023,0.032,0.002,-0.033,0.023,-0.121,-0.086,-0.031,0.024,0.063
-0.021,-0.041,-0.021,0.031,0.0,-0.031,0.019,-0.115,-0.08,-0.044,0.018,0.058
-0.013,-0.035,-0.023,0.024,0.005,-0.029,0.021,-0.107,-0.072,-0.036,0.016,0.056
-0.013,-0.036,-0.024,0.025,0.006,-0.03,0.019,-0.102,-0.072,-0.023,0.02,0.048
-0.021,-0.041,-0.02,0.031,0.0,-0.03,0.02,-0.1,-0.076,-0.021,0.019,0.06
0.008,-0.036,-0.045,0.014,0.027,-0.04,0.019,-0.1,-0.074,-0.03,0.022,0.073
-0.015,-0.034,-0.019,0.025,0.003,-0.026,0.016,-0.101,-0.079,-0.032,0.025,0.066
-0.013,-0.03,-0.016,0.022,0.001,-0.023,0.013,-0.1,-0.081,-0.028,0.025,0.065
0.026,-0.026,-0.052,0.001,0.039,-0.039,0.01,-0.101,-0.079,-0.027,0.021,0.061
0.018,-0.031,-0.049,0.006,0.034,-0.039,0.008,-0.124,-0.099,-0.023,0.014,0.059
-0.007,-0.058,-0.051,0.033,0.022,-0.054,0.004,-0.133,-0.113,-0.029,0.008,0.057
-0.025,-0.075,-0.05,0.05,0.013,-0.062,0.008,-0.128,-0.108,-0.056,0.001,0.052
-0.001,-0.051,-0.05,0.026,0.025,-0.05,0.016,-0.131,-0.112,-0.061,-0.006,0.05
-0.015,-0.063,-0.048,0.039,0.017,-0.055,0.022,-0.129,-0.132,-0.061,-0.011,0.045
-0.031,-0.074,-0.043,0.053,0.006,-0.058,0.029,-0.131,-0.136,-0.066,-0.02,0.042
-0.027,-0.068,-0.041,0.047,0.007,-0.054,0.025,-0.145,-0.135,-0.064,-0.028,0.038
-0.036,-0.072,-0.036,0.054,0.0,-0.053,0.02,-0.151,-0.14,-0.065,-0.037,0.034
-0.036,-0.069,-0.033,0.053,-0.001,-0.051,0.016,-0.155,-0.14,-0.065,-0.045,0.031
-0.04,-0.07,-0.03,0.055,-0.005,-0.05,0.011,-0.163,-0.139,-0.065,-0.055,0.028
-0.014,-0.066,-0.052,0.041,0.019,-0.059,0.007,-0.166,-0.132,-0.064,-0.061,0.023
-0.018,-0.089,-0.071,0.054,0.026,-0.079,0.0,-0.17,-0.147,-0.075,-0.06,0.02
-0.03,-0.1,-0.07,0.065,0.02,-0.085,0.011,-0.17,-0.157,-0.083,-0.06,0.02
-0.015,-0.084,-0.069,0.05,0.027,-0.076,0.018,-0.17,-0.154,-0.086,-0.06,0.02
-0.019,-0.083,-0.064,0.051,0.023,-0.073,0.008,-0.17,-0.156,-0.09,-0.06,0.02
-0.009,-0.075,-0.067,0.042,0.029,-0.071,0.003,-0.17,-0.155,-0.085,-0.06,0.02
-0.013,-0.073,-0.06,0.043,0.024,-0.067,-0.006,-0.169,-0.155,-0.085,-0.06,0.02
-0.007,-0.066,-0.06,0.037,0.027,-0.063,-0.012,-0.173,-0.15,-0.084,-0.06,0.019
-0.026,-0.066,-0.041,0.046,0.008,-0.053,-0.012,-0.175,-0.147,-0.086,-0.058,0.015
-0.055,-0.085,-0.03,0.07,-0.012,-0.057,-0.008,-0.175,-0.143,-0.083,-0.07,0.013
-0.026,-0.084,-0.058,0.056,0.016,-0.071,-0.007,-0.174,-0.141,-0.095,-0.076,0.01
-0.025,-0.084,-0.059,0.055,0.017,-0.071,-0.003,-0.177,-0.133,-0.112,-0.074,0.006
-0.019,-0.078,-0.059,0.049,0.02,-0.068,-0.001,-0.189,-0.144,-0.104,-0.072,0.005
-0.009,-0.081,-0.072,0.046,0.032,-0.076,0.001,-0.189,-0.165,-0.102,-0.069,0.001
-0.019,-0.094,-0.075,0.057,0.029,-0.085,0.009,-0.183,-0.154,-0.096,-0.07,0.0
-0.016,-0.092,-0.076,0.055,0.03,-0.084,0.002,-0.182,-0.152,-0.093,-0.065,-0.001
-0.006,-0.086,-0.08,0.046,0.037,-0.083,0.017,-0.175,-0.156,-0.089,-0.065,0.002
-0.014,-0.094,-0.08,0.054,0.034,-0.087,0.026,-0.174,-0.154,-0.093,-0.064,-0.005
-0.031,-0.109,-0.078,0.071,0.024,-0.093,0.015,-0.187,-0.155,-0.112,-0.06,-0.02
-0.009,-0.079,-0.07,0.045,0.031,-0.074,0.015,-0.188,-0.155,-0.091,-0.06,-0.015
-0.003,-0.069,-0.066,0.037,0.032,-0.067,0.007,-0.18,-0.154,-0.088,-0.062,-0.009
-0.013,-0.082,-0.069,0.047,0.029,-0.075,0.006,-0.179,-0.151,-0.107,-0.066,-0.005
0.005,-0.068,-0.074,0.032,0.04,-0.07,-0.002,-0.171,-0.148,-0.104,-0.065,0.003
0.004,-0.074,-0.078,0.035,0.041,-0.076,-0.002,-0.17,-0.145,-0.104,-0.065,0.003
-0.024,-0.103,-0.079,0.063,0.028,-0.091,0.016,-0.184,-0.142,-0.1,-0.065,-0.002
-0.031,-0.113,-0.082,0.072,0.025,-0.097,0.016,-0.185,-0.139,-0.099,-0.066,-0.008
-0.033,-0.108,-0.075,0.071,0.021,-0.092,0.011,-0.18,-0.142,-0.103,-0.069,-0.013
-0.021,-0.111,-0.09,0.066,0.035,-0.1,0.009,-0.179,-0.147,-0.107,-0.072,-0.019
-0.022,-0.109,-0.088,0.066,0.033,-0.098,0.005,-0.174,-0.152,-0.112,-0.075,-0.024
-0.034,-0.111,-0.076,0.073,0.021,-0.093,0.0,-0.177,-0.155,-0.115,-0.076,-0.026
-0.023,-0.104,-0.081,0.064,0.029,-0.092,0.003,-0.174,-0.151,-0.115,-0.075,-0.025
-0.031,-0.099,-0.068,0.065,0.019,-0.083,0.007,-0.176,-0.149,-0.115,-0.075,-0.025
-0.012,-0.093,-0.081,0.053,0.034,-0.087,0.013,-0.173,-0.151,-0.115,-0.075,-0.025
-0.013,-0.086,-0.073,0.05,0.03,-0.079,0.016,-0.17,-0.148,-0.114,-0.074,-0.023
-0.027,-0.086,-0.059,0.057,0.017,-0.073,0.021,-0.17,-0.152,-0.116,-0.076,-0.02
-0.013,-0.082,-0.07,0.048,0.029,-0.076,0.027,-0.172,-0.15,-0.112,-0.068,-0.015
-0.027,-0.09,-0.063,0.058,0.019,-0.076,-0.006,-0.184,-0.157,-0.106,-0.069,-0.014
0.012,-0.084,-0.096,0.036,0.054,-0.09,-0.031,-0.16,-0.162,-0.102,-0.087,-0.007
0.045,-0.067,-0.112,0.011,0.079,-0.089,-0.004,-0.122,-0.135,-0.093,-0.072,-0.005
0.053,-0.008,-0.061,-0.022,0.058,-0.034,0.028,-0.075,-0.12,-0.092,-0.059,-0.001
0.06,-0.026,-0.086,-0.017,0.073,-0.056,-0.023,-0.103,-0.101,-0.073,-0.052,0.01
0.013,-0.096,-0.109,0.042,0.061,-0.102,-0.023,-0.17,-0.105,-0.077,-0.048,-0.01
0.019,-0.081,-0.1,0.031,0.059,-0.09,0.04,-0.153,-0.088,-0.068,-0.058,-0.017
-0.001,-0.1,-0.1,0.051,0.05,-0.1,0.004,-0.164,-0.156,-0.112,-0.109,-0.034
-0.03,-0.119,-0.089,0.075,0.03,-0.104,0.008,-0.146,-0.123,-0.086,-0.095,-0.014
-0.037,-0.137,-0.101,0.087,0.032,-0.119,0.013,-0.171,-0.13,-0.087,-0.098,-0.03
-0.029,-0.095,-0.066,0.062,0.019,-0.08,0.071,0.014,-0.055,-0.096,-0.114,-0.05
0.021,-0.058,-0.079,0.019,0.05,-0.068,0.201,0.451,0.239,0.017,-0.053,-0.011
0.19,0.325,0.135,-0.258,0.027,0.23,-0.012,0.449,0.83,0.694,0.549,0.469
0.425,0.917,0.492,-0.671,-0.034,0.704,-0.343,0.102,1.868,2.053,1.661,1.316
0.116,0.745,0.629,-0.431,-0.257,0.687,-0.318,-0.477,0.476,1.127,0.974,0.829
-0.214,0.166,0.379,0.024,-0.297,0.272,-0.077,-0.709,-1.157,-0.569,-0.342,-0.159
-0.094,-0.241,-0.147,0.168,0.027,-0.194,0.049,-0.263,-0.415,-0.311,-0.261,-0.198
-0.032,-0.31,-0.278,0.171,0.123,-0.294,0.032,-0.035,-0.187,-0.194,-0.208,-0.154
0.004,-0.183,-0.187,0.09,0.095,-0.185,0.058,-0.034,-0.099,-0.148,-0.164,-0.107
-0.013,-0.131,-0.118,0.072,0.053,-0.124,0.07,-0.047,0.003,-0.06,-0.099,-0.048
-0.014,-0.087,-0.073,0.051,0.03,-0.079,0.061,-0.053,-0.031,-0.09,-0.12,-0.042
0.01,-0.078,-0.089,0.034,0.05,-0.083,0.068,-0.026,0.057,-0.032,-0.081,-0.025
0.001,-0.069,-0.07,0.035,0.035,-0.069,0.062,-0.026,0.015,-0.056,-0.1,-0.035
0.01,-0.065,-0.075,0.028,0.043,-0.07,0.067,-0.005,0.066,-0.005,-0.068,-0.02
0.007,-0.06,-0.067,0.026,0.038,-0.063,0.068,0.004,0.061,-0.016,-0.073,-0.024
0.012,-0.053,-0.065,0.021,0.038,-0.059,0.071,0.028,0.088,0.006,-0.055,-0.016
0.012,-0.05,-0.061,0.019,0.037,-0.055,0.069,0.048,0.104,0.014,-0.049,-0.012
0.014,-0.043,-0.057,0.015,0.036,-0.049,0.073,0.062,0.123,0.025,-0.043,-0.006
0.011,-0.041,-0.052,0.015,0.032,-0.046,0.075,0.081,0.149,0.038,-0.03,-0.001
0.013,-0.033,-0.046,0.01,0.03,-0.039,0.078,0.095,0.179,0.031,-0.03,0.005
0.007,-0.035,-0.042,0.014,0.024,-0.038,0.08,0.122,0.218,0.054,-0.009,0.009
0.023,-0.011,-0.034,-0.006,0.028,-0.022,0.075,0.155,0.248,0.073,-0.006,0.022
0.02,-0.012,-0.032,-0.004,0.026,-0.022,0.07,0.193,0.293,0.109,0.003,0.038
0.021,0.003,-0.018,-0.012,0.02,-0.008,0.065,0.225,0.33,0.128,0.025,0.041
0.061,0.048,-0.014,-0.054,0.037,0.017,0.062,0.267,0.377,0.14,0.036,0.045
0.029,0.054,0.024,-0.041,0.002,0.039,0.055,0.333,0.447,0.177,0.055,0.043
-0.001,0.061,0.062,-0.03,-0.032,0.062,0.063,0.392,0.509,0.2,0.076,0.055
0.02,0.08,0.06,-0.05,-0.02,0.07,0.068,0.465,0.59,0.249,0.103,0.079
0.066,0.125,0.059,-0.095,0.003,0.092,0.055,0.554,0.69,0.301,0.142,0.108
0.103,0.17,0.068,-0.137,0.017,0.119,0.049,0.632,0.782,0.358,0.19,0.15
0.111,0.199,0.088,-0.155,0.011,0.143,0.039,0.694,0.858,0.417,0.233,0.174
0.121,0.215,0.094,-0.169,0.013,0.154,0.03,0.729,0.921,0.45,0.261,0.197
0.115,0.248,0.133,-0.182,-0.009,0.19,0.022,0.727,0.972,0.497,0.288,0.22
0.096,0.252,0.156,-0.174,-0.031,0.204,0.012,0.692,0.962,0.514,0.308,0.238
0.095,0.233,0.138,-0.164,-0.022,0.185,0.005,0.626,0.896,0.49,0.314,0.247
0.109,0.232,0.122,-0.171,-0.007,0.177,-0.014,0.504,0.738,0.412,0.262,0.204
0.092,0.171,0.079,-0.132,0.007,0.124,-0.008,0.342,0.516,0.289,0.17,0.14
0.062,0.096,0.034,-0.079,0.014,0.065,0.012,0.188,0.324,0.17,0.096,0.089
0.022,0.039,0.017,-0.031,0.002,0.027,0.026,0.07,0.166,0.057,0.029,0.036
-0.008,-0.036,-0.028,0.022,0.01,-0.032,0.037,-0.007,0.062,0.002,-0.026,-0.006
-0.008,-0.084,-0.076,0.047,0.034,-0.08,0.03,-0.066,-0.008,-0.038,-0.067,-0.035
-0.019,-0.093,-0.075,0.057,0.028,-0.084,0.028,-0.106,-0.059,-0.082,-0.089,-0.051
-0.017,-0.092,-0.075,0.055,0.029,-0.083,0.024,-0.108,-0.069,-0.096,-0.096,-0.059
-0.024,-0.099,-0.075,0.062,0.026,-0.087,0.019,-0.101,-0.078,-0.101,-0.102,-0.072
-0.025,-0.1,-0.075,0.063,0.025,-0.087,0.032,-0.094,-0.07,-0.1,-0.1,-0.081
-0.014,-0.088,-0.074,0.052,0.03,-0.081,0.036,-0.088,-0.045,-0.1,-0.1,-0.08
-0.022,-0.09,-0.069,0.056,0.024,-0.079,0.031,-0.081,-0.045,-0.1,-0.101,-0.078
-0.027,-0.09,-0.063,0.059,0.018,-0.076,0.029,-0.076,-0.041,-0.1,-0.098,-0.074
-0.03,-0.09,-0.06,0.06,0.015,-0.075,0.026,-0.075,-0.039,-0.096,-0.106,-0.075
-0.035,-0.09,-0.055,0.063,0.01,-0.072,0.024,-0.07,-0.035,-0.095,-0.116,-0.071
-0.04,-0.089,-0.049,0.065,0.005,-0.069,0.021,-0.07,-0.036,-0.095,-0.112,-0.07
-0.026,-0.091,-0.065,0.058,0.02,-0.078,0.02,-0.063,-0.043,-0.096,-0.108,-0.07
-0.021,-0.089,-0.068,0.055,0.024,-0.079,0.02,-0.071,-0.049,-0.094,-0.105,-0.066
-0.016,-0.091,-0.075,0.054,0.03,-0.083,0.02,-0.091,-0.054,-0.097,-0.099,-0.065
-0.003,-0.088,-0.084,0.046,0.041,-0.086,0.02,-0.09,-0.062,-0.116,-0.103,-0.066
-0.024,-0.097,-0.072,0.061,0.024,-0.084,0.018,-0.093,-0.073,-0.122,-0.109,-0.07
-0.043,-0.111,-0.068,0.077,0.013,-0.089,0.013,-0.102,-0.069,-0.118,-0.114,-0.07
-0.044,-0.105,-0.061,0.075,0.009,-0.083,0.01,-0.113,-0.087,-0.124,-0.121,-0.074
-0.048,-0.101,-0.053,0.075,0.003,-0.077,0.007,-0.12,-0.097,-0.138,-0.119,-0.075
-0.029,-0.096,-0.067,0.063,0.019,-0.081,0.002,-0.122,-0.095,-0.141,-0.122,-0.077
-0.021,-0.097,-0.076,0.059,0.028,-0.086,0.0,-0.132,-0.111,-0.139,-0.134,-0.09
-0.031,-0.101,-0.07,0.066,0.019,-0.085,0.005,-0.135,-0.108,-0.145,-0.136,-0.09
-0.025,-0.099,-0.074,0.062,0.024,-0.086,0.013,-0.134,-0.115,-0.144,-0.134,-0.085
-0.02,-0.096,-0.075,0.059,0.028,-0.085,0.013,-0.135,-0.131,-0.147,-0.131,-0.084
-0.013,-0.09,-0.077,0.051,0.032,-0.083,0.01,-0.135,-0.129,-0.15,-0.128,-0.079
-0.004,-0.085,-0.081,0.045,0.039,-0.083,0.01,-0.135,-0.133,-0.15,-0.134,-0.082
-0.003,-0.082,-0.078,0.043,0.038,-0.08,0.006,-0.14,-0.14,-0.15,-0.144,-0.09
-0.004,-0.075,-0.071,0.04,0.034,-0.073,0.005,-0.14,-0.139,-0.15,-0.145,-0.09
-0.015,-0.079,-0.064,0.047,0.025,-0.071,0.005,-0.141,-0.142,-0.15,-0.144,-0.091
-0.034,-0.091,-0.057,0.063,0.012,-0.074,0.005,-0.145,-0.144,-0.146,-0.146,-0.095
-0.04,-0.098,-0.059,0.069,0.01,-0.078,0.004,-0.144,-0.147,-0.145,-0.144,-0.095
-0.033,-0.098,-0.064,0.066,0.016,-0.081,0.006,-0.148,-0.14,-0.144,-0.148,-0.092
-0.038,-0.095,-0.057,0.067,0.01,-0.075,-0.002,-0.15,-0.143,-0.141,-0.15,-0.09
-0.042,-0.095,-0.053,0.069,0.006,-0.074,-0.012,-0.15,-0.161,-0.138,-0.15,-0.09
-0.045,-0.092,-0.046,0.069,0.001,-0.069,-0.008,-0.154,-0.16,-0.145,-0.153,-0.086
-0.047,-0.089,-0.042,0.068,-0.003,-0.066,-0.006,-0.155,-0.16,-0.156,-0.156,-0.084
-0.056,-0.091,-0.035,0.074,-0.01,-0.063,-0.002,-0.154,-0.16,-0.155,-0.154,-0.086
-0.053,-0.094,-0.041,0.074,-0.005,-0.067,0.0,-0.15,-0.159,-0.153,-0.15,-0.089
-0.031,-0.095,-0.064,0.064,0.017,-0.08,0.003,-0.15,-0.16,-0.15,-0.145,-0.094
-0.032,-0.095,-0.063,0.064,0.016,-0.079,0.005,-0.15,-0.159,-0.15,-0.14,-0.093
-0.023,-0.095,-0.072,0.06,0.025,-0.084,0.005,-0.15,-0.16,-0.148,-0.137,-0.089
-0.035,-0.095,-0.06,0.066,0.013,-0.077,0.005,-0.15,-0.159,-0.141,-0.13,-0.087
-0.054,-0.093,-0.039,0.074,-0.007,-0.066,0.005,-0.147,-0.16,-0.136,-0.134,-0.084
-0.044,-0.089,-0.045,0.067,0.001,-0.066,0.006,-0.145,-0.159,-0.131,-0.145,-0.081
-0.042,-0.091,-0.049,0.067,0.003,-0.07,-0.002,-0.141,-0.156,-0.124,-0.145,-0.079
-0.028,-0.094,-0.065,0.061,0.019,-0.08,0.011,-0.14,-0.153,-0.122,-0.145,-0.076
-0.031,-0.097,-0.066,0.064,0.018,-0.081,0.026,-0.135,-0.15,-0.134,-0.145,-0.074
-0.044,-0.1,-0.056,0.072,0.006,-0.078,0.018,-0.137,-0.148,-0.136,-0.145,-0.078
-0.036,-0.102,-0.066,0.069,0.015,-0.084,0.014,-0.15,-0.144,-0.134,-0.143,-0.09
-0.045,-0.106,-0.061,0.076,0.009,-0.084,0.008,-0.151,-0.152,-0.136,-0.136,-0.09
-0.052,-0.102,-0.05,0.077,0.0,-0.076,0.001,-0.149,-0.156,-0.135,-0.13,-0.09
-0.048,-0.097,-0.049,0.073,0.001,-0.073,0.003,-0.146,-0.146,-0.136,-0.122,-0.09
-0.024,-0.088,-0.064,0.056,0.02,-0.076,0.005,-0.144,-0.141,-0.145,-0.115,-0.089
-0.03,-0.084,-0.054,0.057,0.012,-0.069,0.009,-0.145,-0.134,-0.148,-0.111,-0.091
-0.034,-0.074,-0.04,0.054,0.003,-0.057,0.013,-0.137,-0.127,-0.137,-0.103,-0.088
-0.01,-0.061,-0.051,0.036,0.021,-0.056,0.014,-0.132,-0.123,-0.136,-0.103,-0.093
-0.052,-0.027,0.025,0.039,-0.038,-0.001,0.038,-0.129,-0.111,-0.126,-0.091,-0.075
-0.015,0.008,0.023,0.003,-0.019,0.015,0.036,-0.131,-0.107,-0.129,-0.109,-0.066
0.007,-0.022,-0.03,0.008,0.019,-0.026,0.012,-0.13,-0.095,-0.113,-0.114,-0.056
0.009,0.03,0.021,-0.02,-0.006,0.025,0.009,-0.129,-0.105,-0.092,-0.093,-0.036
0.058,0.067,0.009,-0.063,0.024,0.037,0.004,-0.132,-0.115,-0.094,-0.087,-0.035
0.001,-0.025,-0.026,0.012,0.014,-0.025,0.003,-0.125,-0.093,-0.081,-0.076,-0.032
-0.033,-0.063,-0.03,0.048,-0.001,-0.046,-0.004,-0.136,-0.137,-0.128,-0.113,-0.063
-0.035,-0.093,-0.059,0.064,0.012,-0.076,-0.004,-0.156,-0.14,-0.124,-0.109,-0.073
-0.041,-0.094,-0.053,0.068,0.006,-0.073,-0.007,-0.166,-0.181,-0.149,-0.124,-0.082
-0.022,-0.077,-0.055,0.05,0.016,-0.066,-0.004,-0.152,-0.139,-0.12,-0.105,-0.074
-0.036,-0.09,-0.054,0.063,0.009,-0.072,0.002,-0.163,-0.168,-0.146,-0.124,-0.087
-0.008,-0.051,-0.042,0.03,0.017,-0.046,0.098,0.106,-0.039,-0.136,-0.15,-0.101
0.025,-0.007,-0.033,-0.009,0.029,-0.02,0.194,0.505,0.245,0.017,-0.052,-0.035
0.23,0.46,0.23,-0.345,0.0,0.345,-0.093,0.41,1.007,0.902,0.729,0.59
0.423,0.987,0.564,-0.705,-0.071,0.776,-0.402,-0.009,1.814,2.095,1.701,1.319
0.022,0.692,0.669,-0.357,-0.324,0.68,-0.329,-0.616,0.003,0.73,0.686,0.607
-0.241,0.088,0.329,0.076,-0.285,0.209,-0.085,-0.685,-1.165,-0.66,-0.433,-0.245
-0.074,-0.232,-0.157,0.153,0.042,-0.195,0.025,-0.189,-0.318,-0.259,-0.253,-0.206
-0.031,-0.246,-0.215,0.139,0.092,-0.23,-0.018,-0.057,-0.223,-0.246,-0.228,-0.176
-0.02,-0.132,-0.112,0.076,0.046,-0.121,0.013,-0.048,-0.08,-0.146,-0.15,-0.111
-0.041,-0.078,-0.037,0.06,-0.002,-0.057,0.033,-0.03,-0.05,-0.1,-0.122,-0.072
-0.018,-0.037,-0.019,0.027,0.001,-0.028,0.033,-0.031,-0.047,-0.102,-0.115,-0.067
-0.009,-0.033,-0.025,0.021,0.008,-0.029,0.038,-0.01,0.004,-0.058,-0.087,-0.053
-0.039,-0.048,-0.009,0.044,-0.015,-0.029,0.032,-0.007,-0.023,-0.082,-0.098,-0.056
-0.033,-0.044,-0.011,0.039,-0.011,-0.028,0.038,0.019,0.025,-0.041,-0.068,-0.04
-0.031,-0.032,-0.001,0.032,-0.015,-0.016,0.033,0.024,0.012,-0.056,-0.076,-0.041
-0.01,-0.008,0.002,0.009,-0.006,-0.003,0.046,0.044,0.066,-0.03,-0.057,-0.03
-0.037,-0.028,0.009,0.033,-0.023,-0.009,0.051,0.059,0.068,-0.032,-0.055,-0.025
-0.021,-0.007,0.014,0.014,-0.018,0.003,0.053,0.076,0.097,-0.004,-0.045,-0.016
-0.007,0.026,0.033,-0.01,-0.02,0.03,0.056,0.112,0.126,0.019,-0.037,-0.007
-0.004,0.039,0.043,-0.017,-0.024,0.041,0.054,0.136,0.145,0.029,-0.029,-0.002
0.014,0.051,0.038,-0.033,-0.012,0.044,0.056,0.157,0.172,0.042,-0.015,0.008
-0.006,0.036,0.041,-0.015,-0.024,0.038,0.055,0.189,0.204,0.054,0.001,0.016
0.026,0.065,0.04,-0.045,-0.007,0.052,0.055,0.225,0.248,0.085,0.023,0.024
0.051,0.089,0.038,-0.07,0.006,0.064,0.055,0.268,0.289,0.106,0.044,0.034
0.01,0.068,0.058,-0.04,-0.024,0.063,0.053,0.317,0.339,0.128,0.045,0.036
0.029,0.101,0.073,-0.065,-0.023,0.087,0.05,0.38,0.403,0.16,0.066,0.055
0.064,0.137,0.073,-0.101,-0.004,0.105,0.047,0.455,0.478,0.2,0.108,0.076
0.063,0.138,0.074,-0.101,-0.006,0.106,0.044,0.538,0.56,0.248,0.134,0.094
0.089,0.183,0.094,-0.137,-0.003,0.139,0.041,0.635,0.661,0.298,0.166,0.124
0.107,0.226,0.119,-0.167,-0.006,0.172,0.04,0.722,0.766,0.364,0.211,0.161
0.133,0.256,0.123,-0.194,0.005,0.189,0.033,0.8,0.852,0.426,0.263,0.2
0.116,0.278,0.162,-0.198,-0.023,0.22,0.022,0.826,0.919,0.476,0.296,0.216
0.117,0.309,0.191,-0.213,-0.037,0.25,0.013,0.815,0.951,0.517,0.322,0.24
0.154,0.317,0.163,-0.236,-0.005,0.24,0.002,0.797,0.94,0.511,0.321,0.247
0.118,0.27,0.152,-0.194,-0.017,0.211,0.0,0.701,0.855,0.492,0.309,0.235
0.101,0.245,0.143,-0.173,-0.021,0.194,0.0,0.523,0.66,0.414,0.272,0.21
0.075,0.191,0.116,-0.133,-0.021,0.153,0.0,0.345,0.431,0.277,0.178,0.147
0.04,0.116,0.076,-0.078,-0.018,0.096,0.0,0.192,0.232,0.159,0.1,0.09
0.009,0.06,0.051,-0.035,-0.022,0.055,0.006,0.069,0.083,0.062,0.022,0.042
-0.028,0.02,0.048,0.004,-0.038,0.033,0.016,-0.001,-0.005,0.004,-0.026,0.016
0.007,0.012,0.004,-0.01,0.002,0.008,0.018,-0.07,-0.08,-0.043,-0.057,0.0
-0.004,-0.011,-0.008,0.008,0.002,-0.009,0.014,-0.107,-0.126,-0.071,-0.083,-0.015
-0.043,-0.043,0.0,0.043,-0.021,-0.021,0.015,-0.104,-0.139,-0.08,-0.083,-0.023
-0.027,-0.06,-0.033,0.044,0.003,-0.046,0.015,-0.118,-0.137,-0.098,-0.101,-0.045
-0.041,-0.062,-0.021,0.052,-0.01,-0.041,0.015,-0.103,-0.131,-0.099,-0.104,-0.05
-0.049,-0.056,-0.007,0.053,-0.02,-0.031,0.015,-0.087,-0.128,-0.095,-0.096,-0.044
-0.011,-0.047,-0.037,0.029,0.013,-0.042,0.009,-0.085,-0.123,-0.092,-0.095,-0.042
-0.013,-0.052,-0.039,0.033,0.013,-0.045,0.002,-0.077,-0.118,-0.087,-0.088,-0.037
0.006,-0.028,-0.034,0.011,0.02,-0.031,-0.004,-0.075,-0.115,-0.085,-0.085,-0.035
0.024,-0.007,-0.031,-0.009,0.028,-0.019,-0.011,-0.064,-0.115,-0.08,-0.085,-0.031
-0.016,-0.042,-0.026,0.029,0.006,-0.034,-0.018,-0.079,-0.115,-0.08,-0.085,-0.027
-0.02,-0.044,-0.024,0.032,0.002,-0.034,-0.02,-0.097,-0.115,-0.08,-0.085,-0.023
-0.016,-0.035,-0.019,0.025,0.001,-0.026,-0.02,-0.094,-0.115,-0.081,-0.085,-0.02
0.011,-0.03,-0.041,0.01,0.026,-0.035,-0.02,-0.096,-0.12,-0.079,-0.085,-0.015
0.005,-0.047,-0.052,0.021,0.029,-0.049,-0.02,-0.094,-0.13,-0.087,-0.087,-0.018
0.014,-0.035,-0.049,0.01,0.032,-0.042,-0.02,-0.112,-0.141,-0.101,-0.091,-0.026
0.025,-0.025,-0.05,0.0,0.038,-0.037,-0.019,-0.123,-0.149,-0.099,-0.089,-0.033
-0.021,-0.071,-0.05,0.046,0.015,-0.061,-0.015,-0.123,-0.151,-0.101,-0.091,-0.038
-0.02,-0.07,-0.05,0.045,0.015,-0.06,-0.015,-0.129,-0.15,-0.099,-0.088,-0.036
-0.014,-0.069,-0.055,0.042,0.02,-0.061,-0.015,-0.129,-0.157,-0.105,-0.096,-0.034
-0.013,-0.072,-0.059,0.042,0.023,-0.065,-0.015,-0.136,-0.162,-0.121,-0.11,-0.035
-0.016,-0.068,-0.051,0.042,0.017,-0.06,-0.015,-0.14,-0.166,-0.12,-0.11,-0.035
-0.003,-0.072,-0.069,0.038,0.033,-0.07,-0.018,-0.14,-0.186,-0.12,-0.11,-0.035
0.005,-0.067,-0.072,0.031,0.039,-0.07,-0.02,-0.14,-0.192,-0.12,-0.11,-0.037
-0.003,-0.067,-0.064,0.035,0.031,-0.065,-0.02,-0.139,-0.189,-0.119,-0.109,-0.04
0.006,-0.054,-0.06,0.025,0.033,-0.057,-0.023,-0.141,-0.191,-0.123,-0.113,-0.043
-0.003,-0.056,-0.053,0.03,0.025,-0.055,-0.026,-0.138,-0.189,-0.125,-0.115,-0.046
-0.035,-0.084,-0.049,0.06,0.007,-0.066,-0.024,-0.147,-0.19,-0.125,-0.115,-0.05
-0.045,-0.081,-0.036,0.063,-0.005,-0.058,-0.021,-0.156,-0.19,-0.125,-0.12,-0.05
-0.019,-0.074,-0.055,0.046,0.019,-0.064,-0.02,-0.155,-0.19,-0.125,-0.12,-0.046
-0.005,-0.074,-0.069,0.04,0.032,-0.071,-0.019,-0.155,-0.19,-0.124,-0.121,-0.043
0.001,-0.062,-0.063,0.031,0.032,-0.062,-0.015,-0.156,-0.19,-0.12,-0.125,-0.04
-0.022,-0.089,-0.067,0.056,0.023,-0.078,-0.015,-0.154,-0.19,-0.115,-0.125,-0.037
-0.048,-0.112,-0.064,0.081,0.008,-0.087,-0.015,-0.157,-0.186,-0.11,-0.125,-0.035
-0.033,-0.099,-0.066,0.067,0.017,-0.082,-0.014,-0.168,-0.185,-0.107,-0.125,-0.033
-0.025,-0.094,-0.069,0.06,0.022,-0.081,-0.016,-0.169,-0.185,-0.099,-0.125,-0.028
-0.003,-0.073,-0.07,0.038,0.034,-0.071,-0.014,-0.16,-0.185,-0.111,-0.125,-0.022
0.004,-0.07,-0.074,0.034,0.039,-0.072,-0.016,-0.16,-0.185,-0.127,-0.126,-0.019
0.005,-0.071,-0.075,0.034,0.04,-0.072,-0.013,-0.15,-0.186,-0.124,-0.124,-0.013
0.022,-0.051,-0.073,0.015,0.048,-0.062,-0.013,-0.146,-0.19,-0.125,-0.127,-0.011
-0.024,-0.086,-0.061,0.055,0.019,-0.073,-0.029,-0.167,-0.19,-0.125,-0.139,-0.021
-0.015,-0.069,-0.054,0.042,0.02,-0.061,-0.029,-0.17,-0.195,-0.125,-0.139,-0.019
0.0,-0.041,-0.041,0.02,0.021,-0.04,-0.023,-0.162,-0.195,-0.121,-0.132,-0.014
-0.056,-0.089,-0.033,0.073,-0.011,-0.061,-0.022,-0.163,-0.191,-0.116,-0.133,-0.012
-0.029,-0.08,-0.051,0.054,0.012,-0.065,-0.015,-0.154,-0.189,-0.111,-0.124,-0.006
-0.031,-0.08,-0.049,0.055,0.01,-0.064,-0.016,-0.155,-0.185,-0.109,-0.127,-0.006
-0.023,-0.062,-0.039,0.043,0.008,-0.05,-0.024,-0.148,-0.184,-0.101,-0.132,0.006
-0.001,-0.04,-0.039,0.021,0.019,-0.039,-0.033,-0.143,-0.179,-0.102,-0.12,0.012
-0.037,-0.087,-0.05,0.063,0.007,-0.068,-0.032,-0.169,-0.182,-0.126,-0.144,0.01
-0.022,-0.077,-0.055,0.05,0.016,-0.066,-0.026,-0.172,-0.192,-0.127,-0.15,0.009
-0.007,-0.065,-0.058,0.036,0.026,-0.061,-0.021,-0.16,-0.189,-0.118,-0.139,0.005
-0.014,-0.074,-0.059,0.044,0.023,-0.066,-0.018,-0.158,-0.18,-0.116,-0.139,0.005
-0.031,-0.068,-0.038,0.049,0.004,-0.053,-0.011,-0.147,-0.175,-0.106,-0.131,-0.001
-0.023,-0.069,-0.046,0.046,0.012,-0.058,-0.013,-0.144,-0.167,-0.108,-0.129,0.01
-0.052,-0.078,-0.026,0.065,-0.013,-0.052,-0.033,-0.158,-0.16,-0.119,-0.124,0.022
-0.039,-0.052,-0.013,0.046,-0.013,-0.033,-0.036,-0.159,-0.188,-0.121,-0.121,0.014
0.002,-0.051,-0.053,0.024,0.027,-0.051,-0.034,-0.153,-0.204,-0.119,-0.118,0.01
-0.038,-0.084,-0.045,0.061,0.004,-0.064,-0.035,-0.152,-0.199,-0.116,-0.114,0.007
-0.036,-0.071,-0.034,0.054,-0.001,-0.052,-0.035,-0.145,-0.201,-0.115,-0.11,-0.001
-0.03,-0.068,-0.038,0.049,0.004,-0.052,-0.035,-0.145,-0.199,-0.114,-0.106,0.009
-0.056,-0.062,-0.006,0.059,-0.025,-0.034,-0.032,-0.145,-0.2,-0.11,-0.103,0.032
-0.042,-0.053,-0.012,0.048,-0.015,-0.032,-0.028,-0.144,-0.194,-0.11,-0.098,0.029
-0.018,-0.061,-0.044,0.04,0.013,-0.052,-0.026,-0.146,-0.188,-0.11,-0.097,0.024
-0.047,-0.077,-0.029,0.062,-0.009,-0.053,-0.02,-0.143,-0.182,-0.11,-0.09,0.023
-0.047,-0.075,-0.028,0.061,-0.009,-0.051,-0.025,-0.148,-0.173,-0.11,-0.092,0.016
-0.014,-0.065,-0.051,0.04,0.019,-0.058,-0.054,-0.136,-0.163,-0.108,-0.094,0.016
0.032,-0.038,-0.07,0.003,0.051,-0.054,-0.027,-0.119,-0.151,-0.103,-0.085,0.03
0.068,0.041,-0.027,-0.054,0.047,0.007,0.003,-0.082,-0.132,-0.115,-0.094,0.061
0.028,0.002,-0.025,-0.014,0.026,-0.012,-0.04,-0.085,-0.12,-0.105,-0.089,0.054
0.005,-0.067,-0.072,0.031,0.039,-0.069,-0.047,-0.144,-0.184,-0.123,-0.101,0.021
0.009,-0.06,-0.069,0.025,0.04,-0.064,-0.027,-0.126,-0.162,-0.111,-0.094,0.03
-0.014,-0.072,-0.058,0.044,0.022,-0.065,-0.024,-0.15,-0.186,-0.125,-0.103,0.021
-0.013,-0.054,-0.041,0.034,0.015,-0.048,-0.015,-0.154,-0.179,-0.117,-0.1,0.028
-0.028,-0.07,-0.042,0.05,0.007,-0.056,-0.008,-0.158,-0.161,-0.103,-0.093,0.022
-0.01,-0.028,-0.018,0.019,0.004,-0.022,0.048,-0.02,-0.139,-0.132,-0.123,-0.02
0.028,-0.015,-0.043,-0.007,0.036,-0.029,0.166,0.429,0.13,-0.025,-0.072,0.002
0.158,0.298,0.14,-0.228,0.009,0.218,0.004,0.479,0.676,0.549,0.445,0.446
0.467,0.917,0.45,-0.692,0.008,0.683,-0.392,0.1,1.77,1.934,1.593,1.296
0.223,0.789,0.566,-0.506,-0.171,0.677,-0.427,-0.537,0.698,1.361,1.172,0.986
-0.204,0.163,0.366,0.02,-0.285,0.264,-0.205,-0.881,-1.138,-0.455,-0.238,-0.026
-0.114,-0.218,-0.104,0.166,-0.005,-0.161,-0.091,-0.403,-0.557,-0.369,-0.286,-0.157
-0.018,-0.262,-0.244,0.141,0.113,-0.253,-0.028,-0.067,-0.212,-0.179,-0.175,-0.086
-0.003,-0.153,-0.15,0.079,0.073,-0.151,0.027,-0.03,-0.176,-0.165,-0.14,-0.051
-0.035,-0.094,-0.059,0.065,0.013,-0.077,0.032,-0.002,-0.033,-0.05,-0.051,0.017
-0.063,-0.067,-0.004,0.065,-0.029,-0.036,0.029,-0.007,-0.069,-0.093,-0.079,0.023
-0.04,-0.06,-0.02,0.05,-0.01,-0.04,0.036,0.013,0.019,-0.035,-0.04,0.049
-0.026,-0.052,-0.026,0.039,0.001,-0.039,0.036,0.016,-0.026,-0.067,-0.063,0.036
0.005,-0.037,-0.042,0.016,0.024,-0.039,0.042,0.042,0.016,-0.034,-0.039,0.048
-0.014,-0.029,-0.015,0.021,0.001,-0.022,0.044,0.041,0.018,-0.042,-0.046,0.051
0.009,-0.011,-0.02,0.001,0.015,-0.016,0.048,0.06,0.045,-0.027,-0.033,0.053
0.063,0.029,-0.034,-0.046,0.048,-0.002,0.05,0.093,0.071,-0.015,-0.025,0.071
0.043,0.008,-0.036,-0.025,0.039,-0.013,0.05,0.099,0.081,-0.008,-0.02,0.088
0.033,0.013,-0.02,-0.023,0.026,-0.003,0.05,0.119,0.104,0.016,-0.008,0.089
0.004,0.024,0.02,-0.014,-0.008,0.021,0.055,0.144,0.128,0.014,-0.001,0.092
0.02,0.032,0.012,-0.026,0.004,0.022,0.063,0.18,0.169,0.048,0.023,0.097
0.048,0.08,0.032,-0.064,0.008,0.056,0.063,0.218,0.207,0.066,0.028,0.092
0.006,0.05,0.044,-0.028,-0.019,0.047,0.06,0.249,0.247,0.07,0.044,0.11
-0.009,0.046,0.055,-0.019,-0.032,0.051,0.06,0.3,0.289,0.1,0.063,0.128
-0.001,0.085,0.086,-0.042,-0.044,0.085,0.06,0.351,0.344,0.119,0.062,0.122
0.025,0.102,0.077,-0.064,-0.026,0.089,0.06,0.415,0.409,0.147,0.079,0.14
0.029,0.111,0.081,-0.07,-0.026,0.096,0.061,0.496,0.482,0.183,0.111,0.158
0.07,0.15,0.08,-0.11,-0.005,0.115,0.064,0.586,0.57,0.224,0.134,0.173
0.104,0.19,0.086,-0.147,0.009,0.138,0.066,0.682,0.663,0.282,0.159,0.199
0.108,0.215,0.106,-0.162,0.001,0.16,0.061,0.773,0.76,0.328,0.203,0.226
0.125,0.258,0.133,-0.192,-0.004,0.195,0.051,0.857,0.854,0.392,0.246,0.262
0.112,0.27,0.159,-0.191,-0.024,0.214,0.038,0.907,0.926,0.443,0.275,0.28
0.14,0.296,0.156,-0.219,-0.008,0.226,0.029,0.92,0.977,0.482,0.319,0.309
0.169,0.318,0.149,-0.244,0.01,0.233,0.029,0.893,0.976,0.516,0.348,0.339
0.149,0.293,0.144,-0.221,0.002,0.218,0.023,0.811,0.921,0.493,0.329,0.331
0.12,0.258,0.138,-0.189,-0.009,0.198,0.015,0.655,0.77,0.432,0.297,0.315
0.074,0.203,0.128,-0.138,-0.027,0.165,0.009,0.461,0.539,0.316,0.221,0.262
0.038,0.143,0.104,-0.09,-0.033,0.123,-0.002,0.284,0.325,0.2,0.133,0.194
0.023,0.09,0.067,-0.057,-0.023,0.079,0.002,0.125,0.144,0.116,0.086,0.152
0.012,0.05,0.039,-0.031,-0.014,0.044,0.016,0.011,0.018,0.034,0.025,0.115
-0.017,0.007,0.024,0.005,-0.021,0.015,0.013,-0.053,-0.066,-0.013,-0.02,0.094
-0.05,-0.034,0.016,0.042,-0.033,-0.009,0.01,-0.095,-0.115,-0.054,-0.049,0.082
-0.034,-0.028,0.006,0.03,-0.02,-0.01,0.008,-0.111,-0.135,-0.082,-0.073,0.064
-0.038,-0.038,0.0,0.038,-0.019,-0.019,0.004,-0.106,-0.151,-0.085,-0.071,0.05
-0.04,-0.05,-0.01,0.046,-0.015,-0.03,0.003,-0.1,-0.148,-0.083,-0.07,0.049
-0.021,-0.034,-0.013,0.027,-0.003,-0.023,-0.002,-0.095,-0.142,-0.079,-0.07,0.051
-0.021,-0.031,-0.01,0.026,-0.005,-0.02,-0.005,-0.09,-0.139,-0.076,-0.066,0.05
-0.014,-0.025,-0.011,0.019,-0.001,-0.017,-0.008,-0.083,-0.133,-0.072,-0.064,0.05
-0.023,-0.02,0.004,0.021,-0.013,-0.008,-0.013,-0.081,-0.131,-0.068,-0.066,0.05
-0.007,-0.013,-0.006,0.01,-0.001,-0.009,-0.015,-0.086,-0.134,-0.066,-0.056,0.049
0.007,-0.011,-0.018,0.002,0.013,-0.014,-0.02,-0.085,-0.137,-0.062,-0.068,0.052
-0.009,-0.017,-0.009,0.013,0.0,-0.013,-0.02,-0.086,-0.14,-0.06,-0.005,0.065
-0.016,-0.022,-0.006,0.019,-0.005,-0.013,-0.021,-0.084,-0.142,-0.057,0.11,0.062
-0.015,-0.014,0.0,0.014,-0.007,-0.007,-0.025,-0.087,-0.146,-0.054,0.125,0.056
0.004,0.011,0.008,-0.008,-0.002,0.009,-0.025,-0.088,-0.146,-0.059,0.136,0.053
-0.011,-0.005,0.006,0.008,-0.009,0.0,-0.023,-0.094,-0.154,-0.06,0.152,0.047
-0.029,-0.047,-0.019,0.038,-0.005,-0.033,-0.019,-0.115,-0.172,-0.061,0.148,0.044
-0.021,-0.05,-0.028,0.036,0.003,-0.039,-0.021,-0.124,-0.177,-0.066,0.151,0.037
-0.052,-0.044,0.008,0.048,-0.03,-0.018,-0.015,-0.133,-0.173,-0.064,0.149,0.032
-0.048,-0.043,0.006,0.045,-0.027,-0.018,-0.016,-0.137,-0.178,-0.071,0.151,0.027
-0.029,-0.036,-0.007,0.033,-0.011,-0.021,-0.014,-0.133,-0.183,-0.075,0.147,0.021
-0.03,-0.036,-0.006,0.033,-0.012,-0.021,-0.013,-0.136,-0.185,-0.077,0.144,0.016
-0.026,-0.038,-0.012,0.032,-0.007,-0.025,-0.034,-0.151,-0.202,-0.089,0.145,0.011
-0.046,-0.049,-0.003,0.048,-0.022,-0.025,-0.034,-0.157,-0.207,-0.09,0.145,0.01
-0.04,-0.056,-0.016,0.048,-0.012,-0.036,-0.028,-0.153,-0.203,-0.089,0.145,0.01
-0.03,-0.055,-0.024,0.043,-0.002,-0.039,-0.027,-0.152,-0.201,-0.091,0.145,0.006
-0.016,-0.055,-0.038,0.036,0.011,-0.046,-0.019,-0.149,-0.199,-0.089,0.139,0.004
-0.026,-0.055,-0.03,0.041,0.002,-0.042,-0.024,-0.152,-0.2,-0.091,0.134,0.007
-0.033,-0.054,-0.021,0.044,-0.006,-0.038,-0.031,-0.155,-0.2,-0.098,0.128,0.01
-0.009,-0.052,-0.043,0.031,0.017,-0.048,-0.03,-0.155,-0.2,-0.097,0.123,0.014
-0.011,-0.049,-0.038,0.03,0.014,-0.044,-0.029,-0.157,-0.2,-0.095,0.117,0.015
-0.012,-0.051,-0.038,0.031,0.013,-0.044,-0.024,-0.16,-0.215,-0.11,0.115,0.015
-0.022,-0.045,-0.023,0.034,0.001,-0.034,-0.025,-0.16,-0.221,-0.118,0.123,0.015
-0.029,-0.045,-0.016,0.037,-0.006,-0.03,-0.025,-0.156,-0.213,-0.115,0.126,0.015
-0.003,-0.043,-0.041,0.023,0.019,-0.042,-0.025,-0.15,-0.213,-0.116,0.125,0.014
0.03,-0.003,-0.033,-0.013,0.031,-0.018,-0.025,-0.144,-0.205,-0.112,0.124,0.009
-0.011,-0.028,-0.017,0.019,0.003,-0.022,-0.024,-0.142,-0.207,-0.109,0.126,0.005
-0.012,-0.04,-0.028,0.026,0.008,-0.034,-0.027,-0.129,-0.208,-0.111,0.122,0.003
0.017,-0.017,-0.034,0.0,0.025,-0.025,-0.004,-0.144,-0.208,-0.106,0.14,-0.002
-0.04,-0.062,-0.022,0.052,-0.009,-0.042,0.009,-0.176,-0.224,-0.1,0.153,-0.004
-0.04,-0.059,-0.019,0.05,-0.01,-0.039,-0.005,-0.168,-0.221,-0.091,0.138,-0.003
-0.04,-0.049,-0.009,0.044,-0.015,-0.029,-0.011,-0.163,-0.214,-0.087,0.131,0.005
-0.039,-0.046,-0.008,0.043,-0.015,-0.027,-0.016,-0.158,-0.212,-0.077,0.118,-0.001
0.004,-0.035,-0.039,0.016,0.022,-0.037,-0.015,-0.151,-0.205,-0.08,0.129,-0.02
0.009,-0.035,-0.044,0.013,0.027,-0.039,-0.015,-0.153,-0.207,-0.105,0.143,-0.021
0.009,-0.025,-0.034,0.008,0.022,-0.029,-0.016,-0.155,-0.21,-0.102,0.136,-0.019
-0.009,-0.041,-0.032,0.026,0.012,-0.037,-0.024,-0.155,-0.209,-0.096,0.136,-0.016
-0.025,-0.049,-0.023,0.037,-0.001,-0.036,-0.033,-0.156,-0.211,-0.093,0.131,-0.014
-0.029,-0.05,-0.021,0.04,-0.003,-0.035,-0.032,-0.17,-0.214,-0.087,0.129,-0.017
0.006,-0.013,-0.019,0.004,0.013,-0.016,-0.026,-0.169,-0.215,-0.084,0.134,-0.02
0.026,0.006,-0.021,-0.016,0.023,-0.007,-0.021,-0.165,-0.215,-0.079,0.135,-0.02
-0.028,-0.047,-0.019,0.037,-0.004,-0.033,-0.018,-0.164,-0.215,-0.076,0.136,-0.022
-0.035,-0.058,-0.023,0.047,-0.006,-0.04,-0.012,-0.159,-0.215,-0.072,0.139,-0.026
-0.028,-0.051,-0.024,0.04,-0.002,-0.037,-0.01,-0.16,-0.212,-0.069,0.141,-0.024
-0.066,-0.07,-0.004,0.068,-0.031,-0.036,-0.018,-0.148,-0.208,-0.063,0.138,-0.029
-0.028,-0.052,-0.024,0.04,-0.002,-0.037,-0.024,-0.156,-0.202,-0.075,0.134,-0.03
-0.001,-0.041,-0.04,0.022,0.02,-0.04,-0.022,-0.176,-0.2,-0.087,0.129,-0.03
-0.011,-0.03,-0.019,0.021,0.004,-0.024,-0.018,-0.17,-0.192,-0.084,0.124,-0.03
0.014,-0.003,-0.016,-0.005,0.015,-0.009,-0.017,-0.165,-0.192,-0.083,0.121,-0.029
-0.026,-0.04,-0.014,0.033,-0.006,-0.026,-0.013,-0.16,-0.214,-0.08,0.114,-0.033
-0.039,-0.059,-0.02,0.049,-0.009,-0.039,-0.011,-0.152,-0.215,-0.08,0.12,-0.033
-0.022,-0.053,-0.032,0.037,0.005,-0.042,-0.008,-0.152,-0.21,-0.077,0.121,-0.039
0.014,-0.015,-0.029,0.001,0.022,-0.022,0.013,-0.154,-0.209,-0.073,0.128,-0.012
0.008,-0.021,-0.03,0.007,0.019,-0.025,0.019,-0.156,-0.205,-0.072,0.138,0.003
-0.053,-0.077,-0.024,0.066,-0.014,-0.051,0.0,-0.153,-0.205,-0.067,0.116,-0.027
-0.035,-0.06,-0.025,0.048,-0.004,-0.043,-0.012,-0.157,-0.2,-0.068,0.107,-0.038
-0.029,-0.056,-0.027,0.043,-0.001,-0.041,-0.01,-0.153,-0.197,-0.061,0.112,-0.032
-0.024,-0.054,-0.031,0.039,0.003,-0.042,-0.01,-0.146,-0.194,-0.057,0.108,-0.029
-0.011,-0.041,-0.03,0.026,0.01,-0.035,-0.01,-0.165,-0.192,-0.078,0.111,-0.046
-0.046,-0.048,-0.002,0.047,-0.022,-0.024,-0.01,-0.163,-0.188,-0.081,0.11,-0.037
-0.007,-0.028,-0.02,0.018,0.007,-0.024,-0.011,-0.149,-0.194,-0.079,0.104,-0.03
0.047,-0.004,-0.051,-0.021,0.05,-0.027,0.0,-0.162,-0.2,-0.075,0.121,-0.039
-0.016,-0.043,-0.027,0.03,0.005,-0.034,-0.023,-0.158,-0.19,-0.076,0.132,-0.03
-0.023,-0.055,-0.032,0.039,0.005,-0.044,-0.048,-0.136,-0.171,-0.073,0.129,-0.023
0.007,0.002,-0.005,-0.005,0.006,-0.001,-0.023,-0.127,-0.137,-0.076,0.132,-0.023
0.022,0.02,-0.002,-0.021,0.012,0.009,-0.027,-0.115,-0.12,-0.075,0.141,-0.026
0.019,-0.042,-0.061,0.011,0.04,-0.051,-0.041,-0.143,-0.167,-0.072,0.13,-0.03
-0.054,-0.073,-0.019,0.064,-0.018,-0.045,-0.02,-0.164,-0.175,-0.081,0.111,-0.036
-0.059,-0.076,-0.018,0.068,-0.02,-0.047,-0.013,-0.156,-0.174,-0.064,0.112,-0.048
-0.027,-0.053,-0.027,0.04,0.0,-0.04,-0.016,-0.169,-0.226,-0.091,0.086,-0.061
-0.018,-0.06,-0.042,0.039,0.012,-0.051,-0.015,-0.166,-0.17,-0.055,0.101,-0.048
-0.043,-0.058,-0.016,0.051,-0.013,-0.037,0.007,-0.141,-0.206,-0.097,0.057,-0.075
-0.02,-0.032,-0.012,0.026,-0.004,-0.021,0.119,0.184,-0.027,-0.052,0.041,-0.1
0.063,0.062,-0.001,-0.062,0.032,0.03,0.141,0.5,0.282,0.174,0.233,0.048
0.349,0.671,0.322,-0.51,0.013,0.497,-0.185,0.321,1.26,1.311,1.216,0.844
0.435,0.978,0.543,-0.707,-0.054,0.76,-0.446,-0.241,1.542,2.065,1.823,1.28
-0.067,0.462,0.529,-0.197,-0.298,0.495,-0.293,-0.883,-0.533,0.343,0.503,0.328
-0.221,-0.063,0.158,0.142,-0.189,0.047,-0.05,-0.728,-1.029,-0.538,-0.259,-0.267
-0.051,-0.286,-0.235,0.169,0.092,-0.261,-0.007,-0.189,-0.258,-0.128,-0.027,-0.18
-0.016,-0.203,-0.187,0.11,0.086,-0.195,-0.012,-0.079,-0.255,-0.174,-0.042,-0.165
0.003,-0.103,-0.107,0.05,0.055,-0.105,0.035,-0.053,-0.069,-0.039,0.06,-0.081
-0.037,-0.081,-0.044,0.059,0.004,-0.062,0.034,-0.028,-0.084,-0.043,0.059,-0.072
-0.024,-0.057,-0.033,0.041,0.005,-0.045,0.043,0.004,-0.03,-0.016,0.088,-0.058
-0.021,-0.062,-0.041,0.042,0.01,-0.051,0.05,0.001,-0.025,-0.007,0.099,-0.055
-0.028,-0.053,-0.024,0.04,-0.001,-0.038,0.049,0.001,-0.028,-0.002,0.091,-0.052
-0.027,-0.053,-0.027,0.04,0.0,-0.04,0.052,0.044,0.016,0.035,0.107,-0.04
-0.035,-0.048,-0.013,0.042,-0.011,-0.03,0.046,0.048,0.01,0.014,0.089,-0.042
-0.032,-0.044,-0.012,0.038,-0.009,-0.028,0.064,0.065,0.063,0.05,0.116,-0.03
-0.043,-0.047,-0.004,0.046,-0.02,-0.025,0.071,0.094,0.066,0.046,0.119,-0.03
-0.035,-0.036,-0.001,0.036,-0.016,-0.018,0.069,0.116,0.097,0.063,0.121,-0.021
-0.023,-0.019,0.005,0.021,-0.014,-0.007,0.071,0.126,0.115,0.081,0.126,-0.017
0.015,0.022,0.007,-0.019,0.004,0.014,0.069,0.149,0.147,0.088,0.138,-0.011
0.018,0.037,0.019,-0.027,-0.001,0.027,0.071,0.183,0.184,0.106,0.141,-0.006
-0.017,0.029,0.046,-0.006,-0.031,0.037,0.062,0.224,0.21,0.12,0.151,0.0
-0.003,0.05,0.053,-0.024,-0.028,0.051,0.073,0.272,0.265,0.137,0.167,0.006
0.011,0.063,0.052,-0.038,-0.021,0.058,0.088,0.311,0.306,0.151,0.174,0.012
0.026,0.093,0.066,-0.06,-0.02,0.079,0.081,0.371,0.364,0.176,0.199,0.041
0.022,0.099,0.077,-0.061,-0.028,0.088,0.081,0.437,0.431,0.207,0.219,0.05
0.048,0.121,0.073,-0.085,-0.013,0.097,0.076,0.516,0.509,0.242,0.246,0.057
0.079,0.168,0.089,-0.123,-0.006,0.128,0.075,0.609,0.601,0.291,0.275,0.077
0.066,0.176,0.11,-0.121,-0.022,0.143,0.071,0.691,0.693,0.335,0.309,0.092
0.081,0.202,0.121,-0.142,-0.02,0.161,0.059,0.783,0.793,0.399,0.349,0.128
0.111,0.244,0.132,-0.178,-0.011,0.187,0.053,0.843,0.864,0.451,0.383,0.155
0.126,0.282,0.156,-0.204,-0.016,0.219,0.042,0.866,0.934,0.503,0.429,0.187
0.122,0.289,0.167,-0.206,-0.023,0.228,0.034,0.863,0.951,0.542,0.446,0.204
0.137,0.286,0.15,-0.212,-0.006,0.218,0.022,0.817,0.933,0.534,0.455,0.204
0.12,0.272,0.152,-0.196,-0.016,0.212,0.011,0.726,0.844,0.503,0.446,0.198
0.077,0.217,0.14,-0.147,-0.032,0.178,0.01,0.548,0.634,0.421,0.386,0.159
0.064,0.16,0.096,-0.112,-0.017,0.128,0.01,0.358,0.42,0.304,0.31,0.103
0.049,0.099,0.05,-0.075,0.0,0.074,0.01,0.21,0.219,0.184,0.219,0.046
0.028,0.042,0.014,-0.035,0.007,0.027,0.01,0.089,0.073,0.093,0.151,0.005
-0.016,-0.012,0.003,0.014,-0.009,-0.005,0.01,0.004,-0.036,0.028,0.102,-0.031
-0.024,-0.045,-0.021,0.035,-0.002,-0.033,0.01,-0.064,-0.109,-0.024,0.06,-0.072
-0.006,-0.048,-0.042,0.027,0.018,-0.045,0.014,-0.09,-0.134,-0.043,0.045,-0.081
-0.032,-0.072,-0.04,0.052,0.005,-0.056,0.016,-0.102,-0.156,-0.052,0.037,-0.079
-0.036,-0.076,-0.039,0.056,0.002,-0.057,0.012,-0.104,-0.152,-0.067,0.028,-0.075
-0.028,-0.069,-0.041,0.048,0.007,-0.055,0.01,-0.096,-0.147,-0.075,0.024,-0.077
-0.029,-0.067,-0.039,0.048,0.005,-0.053,0.006,-0.095,-0.144,-0.075,0.025,-0.094
-0.022,-0.065,-0.043,0.044,0.01,-0.053,0.005,-0.088,-0.135,-0.075,0.025,-0.093
-0.005,-0.071,-0.066,0.038,0.03,-0.068,0.008,-0.084,-0.127,-0.075,0.025,-0.088
0.003,-0.069,-0.072,0.033,0.037,-0.071,0.011,-0.08,-0.119,-0.076,0.025,-0.087
0.001,-0.067,-0.069,0.033,0.035,-0.068,0.014,-0.075,-0.109,-0.073,0.024,-0.08
0.008,-0.063,-0.071,0.028,0.04,-0.067,0.017,-0.071,-0.117,-0.082,0.019,-0.085
0.002,-0.067,-0.068,0.033,0.036,-0.067,0.02,-0.066,-0.131,-0.101,0.016,-0.097
0.006,-0.058,-0.064,0.026,0.035,-0.061,0.02,-0.066,-0.13,-0.1,0.012,-0.092
-0.003,-0.063,-0.06,0.033,0.028,-0.061,0.02,-0.08,-0.131,-0.1,0.008,-0.09
-0.001,-0.056,-0.055,0.029,0.027,-0.055,0.02,-0.091,-0.128,-0.101,0.005,-0.084
-0.005,-0.055,-0.05,0.03,0.023,-0.052,0.02,-0.094,-0.141,-0.099,0.002,-0.086
-0.027,-0.092,-0.065,0.059,0.019,-0.078,0.02,-0.096,-0.15,-0.103,-0.001,-0.113
-0.011,-0.078,-0.067,0.045,0.029,-0.073,0.02,-0.094,-0.161,-0.113,-0.004,-0.114
-0.008,-0.06,-0.052,0.035,0.022,-0.056,0.016,-0.096,-0.175,-0.12,-0.007,-0.108
0.009,-0.062,-0.072,0.027,0.041,-0.067,0.01,-0.094,-0.179,-0.124,-0.01,-0.107
0.021,-0.071,-0.093,0.025,0.057,-0.082,0.005,-0.095,-0.178,-0.125,-0.011,-0.1
0.008,-0.08,-0.089,0.036,0.049,-0.084,-0.001,-0.095,-0.172,-0.126,-0.019,-0.101
-0.003,-0.096,-0.093,0.049,0.046,-0.094,-0.007,-0.094,-0.19,-0.123,-0.031,-0.113
-0.013,-0.108,-0.095,0.061,0.042,-0.102,-0.009,-0.091,-0.197,-0.13,-0.031,-0.117
-0.009,-0.103,-0.095,0.056,0.043,-0.099,-0.004,-0.086,-0.193,-0.142,-0.03,-0.114
-0.004,-0.103,-0.099,0.053,0.048,-0.101,0.0,-0.086,-0.196,-0.137,-0.03,-0.116
0.002,-0.098,-0.1,0.048,0.051,-0.099,0.005,-0.076,-0.194,-0.135,-0.025,-0.114
-0.003,-0.101,-0.099,0.052,0.048,-0.1,0.01,-0.101,-0.195,-0.132,-0.025,-0.116
-0.003,-0.098,-0.095,0.051,0.046,-0.096,0.014,-0.123,-0.189,-0.129,-0.026,-0.113
-0.023,-0.117,-0.093,0.07,0.035,-0.105,0.02,-0.119,-0.19,-0.134,-0.03,-0.11
-0.013,-0.102,-0.089,0.058,0.038,-0.095,0.025,-0.12,-0.189,-0.135,-0.022,-0.105
0.007,-0.08,-0.087,0.037,0.048,-0.083,0.032,-0.119,-0.184,-0.137,-0.018,-0.103
-0.04,-0.124,-0.084,0.083,0.022,-0.104,0.034,-0.122,-0.186,-0.141,-0.012,-0.098
-0.046,-0.127,-0.081,0.087,0.018,-0.104,0.029,-0.103,-0.181,-0.139,-0.004,-0.094
-0.012,-0.118,-0.105,0.065,0.047,-0.111,0.025,-0.12,-0.196,-0.14,-0.045,-0.128
0.004,-0.115,-0.119,0.056,0.062,-0.116,0.023,-0.14,-0.207,-0.14,-0.064,-0.144
0.005,-0.108,-0.113,0.052,0.059,-0.11,0.018,-0.129,-0.204,-0.14,-0.058,-0.138
0.009,-0.103,-0.113,0.047,0.061,-0.108,0.016,-0.13,-0.205,-0.14,-0.061,-0.141
0.015,-0.094,-0.109,0.04,0.063,-0.102,0.007,-0.125,-0.205,-0.139,-0.06,-0.139
-0.017,-0.125,-0.108,0.071,0.046,-0.116,-0.011,-0.124,-0.205,-0.153,-0.06,-0.14
-0.019,-0.137,-0.118,0.078,0.05,-0.128,-0.008,-0.12,-0.2,-0.161,-0.056,-0.136
-0.018,-0.127,-0.109,0.073,0.045,-0.118,-0.002,-0.113,-0.192,-0.159,-0.053,-0.133
-0.035,-0.128,-0.093,0.082,0.03,-0.111,0.002,-0.109,-0.186,-0.16,-0.05,-0.13
-0.029,-0.121,-0.093,0.075,0.032,-0.107,0.009,-0.103,-0.18,-0.16,-0.048,-0.128
-0.032,-0.12,-0.088,0.076,0.028,-0.104,0.013,-0.096,-0.17,-0.16,-0.044,-0.124
-0.029,-0.114,-0.085,0.072,0.029,-0.099,0.019,-0.103,-0.181,-0.155,-0.053,-0.126
-0.021,-0.1,-0.079,0.06,0.029,-0.089,0.02,-0.112,-0.192,-0.155,-0.061,-0.123
-0.01,-0.098,-0.088,0.054,0.039,-0.093,0.02,-0.11,-0.185,-0.155,-0.055,-0.128
-0.009,-0.111,-0.102,0.06,0.047,-0.106,0.02,-0.108,-0.183,-0.154,-0.053,-0.146
-0.038,-0.141,-0.103,0.09,0.033,-0.122,0.02,-0.104,-0.178,-0.156,-0.048,-0.143
-0.039,-0.149,-0.109,0.094,0.035,-0.129,0.019,-0.105,-0.175,-0.152,-0.045,-0.14
-0.021,-0.13,-0.11,0.076,0.045,-0.12,0.014,-0.105,-0.171,-0.149,-0.049,-0.137
-0.025,-0.136,-0.111,0.08,0.043,-0.123,0.011,-0.105,-0.169,-0.15,-0.05,-0.135
-0.02,-0.134,-0.114,0.078,0.048,-0.124,0.008,-0.105,-0.17,-0.146,-0.052,-0.133
-0.019,-0.135,-0.116,0.078,0.049,-0.125,0.003,-0.104,-0.165,-0.145,-0.056,-0.126
-0.023,-0.137,-0.113,0.08,0.046,-0.125,0.0,-0.105,-0.165,-0.145,-0.053,-0.141
-0.013,-0.122,-0.11,0.068,0.049,-0.116,0.004,-0.104,-0.165,-0.14,-0.05,-0.147
-0.028,-0.138,-0.11,0.083,0.041,-0.124,0.015,-0.106,-0.165,-0.137,-0.048,-0.141
-0.045,-0.153,-0.108,0.099,0.031,-0.13,0.024,-0.105,-0.165,-0.133,-0.045,-0.139
-0.036,-0.141,-0.105,0.089,0.035,-0.122,0.025,-0.105,-0.166,-0.132,-0.043,-0.135
-0.036,-0.141,-0.105,0.089,0.035,-0.123,0.025,-0.121,-0.165,-0.123,-0.039,-0.129
-0.031,-0.133,-0.102,0.082,0.036,-0.117,0.025,-0.125,-0.164,-0.136,-0.048,-0.137
-0.017,-0.115,-0.098,0.066,0.041,-0.106,0.025,-0.119,-0.17,-0.158,-0.056,-0.152
-0.041,-0.138,-0.098,0.09,0.029,-0.118,0.025,-0.117,-0.169,-0.152,-0.056,-0.148
-0.061,-0.149,-0.087,0.105,0.013,-0.118,0.019,-0.113,-0.172,-0.151,-0.062,-0.145
-0.03,-0.13,-0.1,0.08,0.036,-0.115,0.006,-0.109,-0.173,-0.147,-0.062,-0.143
-0.003,-0.13,-0.127,0.066,0.062,-0.128,-0.004,-0.104,-0.176,-0.144,-0.067,-0.139
0.01,-0.104,-0.114,0.047,0.062,-0.109,-0.014,-0.094,-0.174,-0.145,-0.057,-0.143
0.032,-0.094,-0.126,0.031,0.079,-0.11,0.014,-0.087,-0.139,-0.132,-0.043,-0.144
0.02,-0.087,-0.106,0.034,0.063,-0.096,0.046,-0.085,-0.111,-0.14,-0.064,-0.146
0.026,-0.08,-0.106,0.027,0.066,-0.093,0.006,-0.078,-0.091,-0.128,-0.056,-0.147
0.02,-0.113,-0.132,0.046,0.077,-0.122,-0.004,-0.107,-0.151,-0.142,-0.064,-0.152
-0.024,-0.128,-0.104,0.076,0.04,-0.115,0.032,-0.113,-0.136,-0.129,-0.057,-0.148
-0.02,-0.127,-0.107,0.074,0.043,-0.116,0.033,-0.118,-0.159,-0.139,-0.061,-0.156
-0.031,-0.119,-0.088,0.075,0.029,-0.104,0.038,-0.104,-0.173,-0.138,-0.065,-0.157
-0.05,-0.16,-0.11,0.105,0.031,-0.135,0.03,-0.116,-0.142,-0.117,-0.057,-0.157
-0.022,-0.129,-0.107,0.076,0.043,-0.118,0.07,0.003,-0.113,-0.148,-0.093,-0.173
-0.018,-0.129,-0.111,0.074,0.047,-0.12,0.2,0.426,0.159,-0.063,-0.064,-0.174
0.118,0.167,0.048,-0.143,0.035,0.108,0.076,0.527,0.606,0.412,0.364,0.197
0.425,0.835,0.41,-0.63,0.007,0.622,-0.292,0.227,1.746,1.839,1.55,1.094
0.215,0.821,0.605,-0.518,-0.195,0.713,-0.362,-0.33,0.905,1.484,1.303,0.929
-0.204,0.251,0.455,-0.024,-0.329,0.353,-0.097,-0.659,-1.09,-0.431,-0.174,-0.129
-0.119,-0.203,-0.084,0.161,-0.017,-0.143,0.066,-0.262,-0.606,-0.444,-0.292,-0.332
0.001,-0.327,-0.327,0.163,0.164,-0.327,0.037,0.031,-0.184,-0.209,-0.174,-0.239
-0.003,-0.224,-0.222,0.114,0.11,-0.223,0.055,0.042,-0.173,-0.23,-0.168,-0.22
-0.024,-0.176,-0.152,0.1,0.064,-0.164,0.076,0.051,-0.008,-0.096,-0.062,-0.164
-0.037,-0.141,-0.104,0.089,0.033,-0.122,0.065,0.035,-0.062,-0.14,-0.094,-0.169
-0.024,-0.133,-0.109,0.079,0.042,-0.121,0.077,0.037,0.025,-0.078,-0.047,-0.146
-0.027,-0.124,-0.097,0.075,0.035,-0.11,0.073,0.042,-0.012,-0.108,-0.067,-0.156
-0.017,-0.113,-0.096,0.066,0.039,-0.104,0.077,0.066,0.03,-0.077,-0.042,-0.147
-0.019,-0.109,-0.091,0.064,0.036,-0.1,0.079,0.064,0.032,-0.079,-0.042,-0.149
-0.011,-0.096,-0.085,0.054,0.037,-0.09,0.08,0.082,0.064,-0.063,-0.033,-0.139
-0.014,-0.094,-0.08,0.054,0.033,-0.087,0.079,0.094,0.076,-0.045,-0.024,-0.13
-0.008,-0.08,-0.072,0.044,0.032,-0.076,0.074,0.112,0.089,-0.038,-0.022,-0.124
-0.009,-0.075,-0.066,0.043,0.029,-0.07,0.076,0.132,0.129,-0.007,-0.01,-0.111
0.003,-0.056,-0.059,0.027,0.032,-0.057,0.072,0.144,0.134,0.001,-0.008,-0.104
0.021,-0.023,-0.044,0.001,0.033,-0.034,0.07,0.18,0.174,0.027,0.003,-0.092
0.007,-0.026,-0.033,0.01,0.02,-0.029,0.07,0.199,0.193,0.034,0.014,-0.083
0.023,-0.014,-0.037,-0.004,0.03,-0.025,0.067,0.231,0.229,0.053,0.029,-0.072
0.058,0.014,-0.044,-0.036,0.051,-0.014,0.062,0.281,0.281,0.078,0.041,-0.063
0.046,0.024,-0.022,-0.035,0.034,0.001,0.06,0.32,0.322,0.098,0.058,-0.055
0.021,0.028,0.007,-0.024,0.007,0.017,0.055,0.371,0.377,0.126,0.064,-0.056
0.062,0.063,0.001,-0.063,0.03,0.032,0.052,0.44,0.445,0.161,0.093,-0.048
0.069,0.088,0.02,-0.079,0.024,0.054,0.049,0.519,0.528,0.215,0.139,-0.016
0.075,0.127,0.053,-0.101,0.011,0.089,0.041,0.608,0.626,0.262,0.166,0.015
0.098,0.171,0.073,-0.135,0.012,0.122,0.034,0.694,0.716,0.316,0.208,0.046
0.101,0.182,0.081,-0.141,0.01,0.131,0.027,0.763,0.803,0.378,0.257,0.087
0.108,0.223,0.115,-0.166,-0.003,0.169,0.019,0.819,0.88,0.433,0.295,0.121
0.098,0.224,0.126,-0.162,-0.014,0.175,0.013,0.828,0.912,0.476,0.322,0.142
0.14,0.256,0.116,-0.199,0.011,0.186,0.005,0.807,0.931,0.489,0.358,0.156
0.148,0.286,0.137,-0.217,0.005,0.211,-0.004,0.748,0.893,0.475,0.36,0.16
0.097,0.225,0.127,-0.161,-0.015,0.176,-0.008,0.615,0.733,0.417,0.314,0.139
0.082,0.174,0.093,-0.128,-0.006,0.134,-0.005,0.462,0.52,0.302,0.238,0.081
0.068,0.112,0.044,-0.09,0.012,0.078,-0.002,0.295,0.31,0.159,0.139,0.012
0.032,0.054,0.022,-0.043,0.005,0.037,0.0,0.159,0.144,0.065,0.069,-0.04
0.0,-0.001,-0.001,0.0,0.001,-0.001,0.004,0.071,0.023,0.0,0.009,-0.083
-0.01,-0.041,-0.031,0.025,0.011,-0.035,0.005,0.001,-0.058,-0.07,-0.036,-0.115
-0.012,-0.058,-0.046,0.035,0.017,-0.051,0.009,-0.047,-0.104,-0.104,-0.063,-0.128
-0.016,-0.079,-0.063,0.048,0.023,-0.071,0.014,-0.062,-0.134,-0.117,-0.081,-0.137
-0.017,-0.077,-0.06,0.047,0.022,-0.068,0.01,-0.052,-0.143,-0.116,-0.074,-0.141
-0.013,-0.071,-0.057,0.042,0.022,-0.064,0.01,-0.05,-0.141,-0.115,-0.075,-0.14
-0.013,-0.068,-0.055,0.041,0.021,-0.061,0.01,-0.045,-0.134,-0.113,-0.073,-0.14
-0.008,-0.062,-0.054,0.036,0.024,-0.058,0.01,-0.04,-0.129,-0.109,-0.069,-0.14
-0.001,-0.06,-0.059,0.031,0.029,-0.059,0.01,-0.037,-0.121,-0.111,-0.071,-0.141
-0.009,-0.085,-0.076,0.047,0.033,-0.08,0.007,-0.031,-0.114,-0.106,-0.073,-0.137
-0.017,-0.096,-0.08,0.057,0.032,-0.088,0.002,-0.027,-0.108,-0.105,-0.077,-0.135
-0.007,-0.079,-0.072,0.043,0.032,-0.075,-0.001,-0.023,-0.101,-0.105,-0.079,-0.135
-0.01,-0.081,-0.071,0.045,0.031,-0.076,-0.004,-0.017,-0.099,-0.106,-0.082,-0.135
-0.018,-0.08,-0.062,0.049,0.022,-0.071,-0.009,-0.016,-0.094,-0.102,-0.085,-0.135
-0.018,-0.075,-0.057,0.047,0.02,-0.066,-0.009,-0.033,-0.114,-0.117,-0.087,-0.135
-0.029,-0.075,-0.046,0.052,0.009,-0.06,-0.005,-0.045,-0.132,-0.137,-0.09,-0.14
-0.019,-0.076,-0.057,0.048,0.019,-0.066,-0.005,-0.047,-0.129,-0.134,-0.093,-0.14
-0.002,-0.08,-0.078,0.041,0.038,-0.079,-0.005,-0.052,-0.139,-0.135,-0.095,-0.14
-0.023,-0.095,-0.072,0.059,0.025,-0.083,-0.005,-0.058,-0.138,-0.135,-0.099,-0.14
-0.026,-0.097,-0.071,0.061,0.023,-0.083,-0.005,-0.064,-0.141,-0.134,-0.1,-0.14
-0.018,-0.085,-0.067,0.052,0.025,-0.076,-0.002,-0.069,-0.16,-0.136,-0.1,-0.14
-0.02,-0.085,-0.065,0.053,0.023,-0.075,0.001,-0.072,-0.161,-0.134,-0.1,-0.14
-0.021,-0.084,-0.063,0.052,0.021,-0.073,-0.001,-0.075,-0.16,-0.136,-0.1,-0.14
-0.043,-0.103,-0.06,0.073,0.009,-0.082,0.001,-0.087,-0.176,-0.144,-0.099,-0.139
-0.03,-0.113,-0.082,0.072,0.026,-0.097,0.0,-0.09,-0.182,-0.145,-0.101,-0.14
-0.015,-0.101,-0.086,0.058,0.036,-0.093,-0.001,-0.083,-0.175,-0.145,-0.098,-0.14
-0.013,-0.097,-0.084,0.056,0.035,-0.09,-0.006,-0.083,-0.175,-0.15,-0.095,-0.14
-0.007,-0.094,-0.088,0.051,0.041,-0.091,-0.01,-0.077,-0.17,-0.15,-0.095,-0.141
-0.018,-0.095,-0.077,0.057,0.03,-0.086,-0.005,-0.075,-0.169,-0.15,-0.095,-0.135
0.002,-0.095,-0.097,0.046,0.05,-0.096,-0.022,-0.094,-0.192,-0.15,-0.117,-0.149
0.015,-0.095,-0.11,0.04,0.063,-0.102,-0.03,-0.1,-0.199,-0.15,-0.124,-0.155
0.004,-0.095,-0.099,0.046,0.052,-0.097,-0.017,-0.091,-0.189,-0.15,-0.114,-0.146
-0.001,-0.097,-0.096,0.049,0.048,-0.096,-0.015,-0.09,-0.187,-0.15,-0.112,-0.144
-0.012,-0.101,-0.089,0.057,0.038,-0.095,-0.004,-0.083,-0.179,-0.15,-0.104,-0.138
-0.02,-0.103,-0.083,0.062,0.032,-0.092,-0.002,-0.081,-0.175,-0.153,-0.1,-0.134
-0.031,-0.106,-0.076,0.069,0.023,-0.091,-0.018,-0.093,-0.189,-0.155,-0.111,-0.13
-0.039,-0.109,-0.07,0.074,0.015,-0.089,-0.021,-0.096,-0.196,-0.155,-0.116,-0.13
-0.05,-0.111,-0.061,0.081,0.006,-0.085,-0.02,-0.095,-0.194,-0.155,-0.111,-0.13
-0.033,-0.104,-0.07,0.069,0.019,-0.087,-0.017,-0.095,-0.195,-0.155,-0.109,-0.129
-0.016,-0.099,-0.082,0.057,0.033,-0.09,-0.015,-0.095,-0.195,-0.153,-0.106,-0.131
-0.016,-0.094,-0.079,0.055,0.032,-0.086,-0.015,-0.094,-0.194,-0.15,-0.104,-0.127
-0.005,-0.086,-0.081,0.046,0.038,-0.083,-0.01,-0.09,-0.191,-0.145,-0.101,-0.125
-0.006,-0.086,-0.08,0.046,0.037,-0.082,-0.01,-0.09,-0.188,-0.143,-0.098,-0.125
0.012,-0.068,-0.08,0.028,0.046,-0.074,-0.009,-0.089,-0.185,-0.138,-0.096,-0.125
-0.004,-0.087,-0.083,0.046,0.04,-0.085,-0.005,-0.085,-0.183,-0.135,-0.093,-0.125
-0.03,-0.118,-0.088,0.074,0.029,-0.103,-0.003,-0.083,-0.178,-0.147,-0.088,-0.126
-0.016,-0.105,-0.089,0.061,0.037,-0.097,-0.016,-0.096,-0.188,-0.15,-0.099,-0.129
-0.021,-0.103,-0.083,0.062,0.031,-0.093,-0.027,-0.107,-0.197,-0.144,-0.106,-0.126
-0.019,-0.096,-0.077,0.058,0.029,-0.086,-0.025,-0.105,-0.192,-0.143,-0.105,-0.124
-0.019,-0.091,-0.071,0.055,0.026,-0.081,-0.023,-0.103,-0.19,-0.136,-0.103,-0.125
-0.029,-0.102,-0.073,0.066,0.022,-0.087,-0.019,-0.099,-0.186,-0.135,-0.099,-0.124
-0.029,-0.106,-0.076,0.068,0.024,-0.091,-0.02,-0.1,-0.184,-0.139,-0.1,-0.126
-0.026,-0.105,-0.079,0.066,0.027,-0.091,-0.016,-0.096,-0.185,-0.14,-0.1,-0.122
-0.023,-0.105,-0.082,0.064,0.03,-0.093,-0.015,-0.094,-0.185,-0.14,-0.1,-0.116
-0.02,-0.105,-0.085,0.064,0.033,-0.095,-0.015,-0.095,-0.185,-0.14,-0.1,-0.108
-0.013,-0.097,-0.084,0.055,0.036,-0.09,-0.015,-0.095,-0.185,-0.14,-0.1,-0.103
-0.008,-0.088,-0.08,0.048,0.036,-0.084,-0.015,-0.095,-0.185,-0.137,-0.1,-0.094
0.002,-0.076,-0.078,0.038,0.04,-0.077,-0.016,-0.095,-0.185,-0.134,-0.101,-0.093
-0.003,-0.077,-0.075,0.04,0.036,-0.076,-0.02,-0.095,-0.185,-0.135,-0.105,-0.109
-0.023,-0.094,-0.071,0.058,0.025,-0.082,-0.02,-0.095,-0.185,-0.131,-0.105,-0.111
-0.026,-0.095,-0.07,0.061,0.023,-0.082,-0.02,-0.095,-0.185,-0.13,-0.105,-0.109
-0.029,-0.095,-0.066,0.062,0.019,-0.08,-0.02,-0.095,-0.185,-0.13,-0.105,-0.11
-0.03,-0.09,-0.06,0.06,0.015,-0.075,-0.02,-0.095,-0.185,-0.125,-0.105,-0.11
-0.037,-0.091,-0.054,0.064,0.009,-0.072,-0.016,-0.092,-0.182,-0.125,-0.102,-0.109
-0.037,-0.088,-0.051,0.063,0.007,-0.069,-0.015,-0.09,-0.18,-0.126,-0.1,-0.105
-0.047,-0.088,-0.041,0.068,-0.003,-0.064,-0.015,-0.089,-0.18,-0.125,-0.1,-0.105
-0.055,-0.103,-0.048,0.079,-0.003,-0.075,-0.01,-0.085,-0.179,-0.125,-0.095,-0.105
-0.027,-0.096,-0.069,0.062,0.021,-0.082,-0.011,-0.084,-0.18,-0.123,-0.096,-0.105
-0.012,-0.083,-0.071,0.047,0.03,-0.077,-0.008,-0.085,-0.178,-0.118,-0.093,-0.105
-0.008,-0.078,-0.07,0.043,0.031,-0.074,-0.006,-0.076,-0.174,-0.116,-0.091,-0.101
-0.005,-0.084,-0.079,0.045,0.038,-0.081,-0.002,-0.074,-0.165,-0.11,-0.088,-0.091
-0.001,-0.078,-0.078,0.039,0.039,-0.078,-0.022,-0.064,-0.164,-0.109,-0.087,-0.085
0.009,-0.064,-0.072,0.028,0.041,-0.068,-0.029,-0.064,-0.153,-0.103,-0.083,-0.074
-0.015,-0.072,-0.057,0.044,0.021,-0.064,0.0,-0.045,-0.161,-0.111,-0.082,-0.072
-0.02,-0.066,-0.046,0.043,0.013,-0.055,-0.02,-0.01,-0.161,-0.111,-0.08,-0.076
0.013,-0.078,-0.091,0.033,0.052,-0.084,-0.046,-0.08,-0.162,-0.105,-0.078,-0.078
-0.016,-0.098,-0.083,0.057,0.034,-0.091,-0.019,-0.119,-0.177,-0.122,-0.08,-0.08
-0.031,-0.086,-0.055,0.059,0.012,-0.07,-0.005,-0.106,-0.157,-0.115,-0.066,-0.062
-0.023,-0.076,-0.054,0.05,0.016,-0.065,-0.005,-0.123,-0.197,-0.148,-0.09,-0.08
-0.022,-0.102,-0.08,0.063,0.029,-0.091,-0.005,-0.114,-0.154,-0.113,-0.078,-0.087
-0.045,-0.101,-0.057,0.073,0.006,-0.079,0.005,-0.094,-0.18,-0.159,-0.104,-0.093
-0.029,-0.09,-0.061,0.06,0.016,-0.075,0.126,0.247,0.007,-0.125,-0.108,-0.114
0.053,0.016,-0.037,-0.034,0.045,-0.011,0.148,0.551,0.296,0.096,0.053,0.026
0.322,0.606,0.283,-0.464,0.019,0.444,-0.189,0.348,1.252,1.236,1.022,0.806
0.409,0.973,0.565,-0.691,-0.078,0.769,-0.452,-0.166,1.61,2.051,1.68,1.287
-0.06,0.506,0.566,-0.223,-0.313,0.535,-0.314,-0.766,-0.488,0.31,0.372,0.355
-0.194,-0.069,0.125,0.131,-0.16,0.029,-0.108,-0.614,-1.037,-0.618,-0.413,-0.279
-0.012,-0.279,-0.267,0.146,0.128,-0.273,-0.045,-0.103,-0.229,-0.177,-0.184,-0.171
-0.005,-0.221,-0.216,0.113,0.106,-0.219,-0.018,-0.012,-0.24,-0.23,-0.205,-0.163
-0.003,-0.137,-0.134,0.07,0.066,-0.135,0.024,-0.008,-0.06,-0.09,-0.099,-0.098
-0.019,-0.091,-0.072,0.055,0.027,-0.081,0.035,0.004,-0.077,-0.096,-0.099,-0.083
-0.025,-0.08,-0.055,0.053,0.015,-0.067,0.036,0.038,-0.039,-0.074,-0.077,-0.066
-0.028,-0.077,-0.049,0.052,0.011,-0.063,0.034,0.03,-0.026,-0.058,-0.066,-0.059
-0.027,-0.064,-0.036,0.045,0.005,-0.05,0.04,0.042,-0.024,-0.067,-0.069,-0.057
-0.029,-0.061,-0.032,0.045,0.002,-0.047,0.06,0.069,0.024,-0.032,-0.046,-0.044
-0.02,-0.042,-0.021,0.031,0.001,-0.031,0.06,0.072,0.021,-0.044,-0.052,-0.045
-0.027,-0.038,-0.011,0.033,-0.008,-0.024,0.06,0.098,0.055,-0.019,-0.03,-0.033
-0.022,-0.04,-0.018,0.031,-0.002,-0.029,0.06,0.101,0.06,-0.023,-0.032,-0.032
0.014,-0.004,-0.018,-0.005,0.016,-0.011,0.059,0.116,0.099,-0.005,-0.014,-0.024
0.012,0.025,0.013,-0.018,-0.001,0.018,0.063,0.155,0.12,0.013,-0.009,-0.02
0.012,0.029,0.017,-0.02,-0.003,0.023,0.065,0.187,0.157,0.042,0.003,-0.012
0.01,0.025,0.015,-0.018,-0.003,0.02,0.069,0.204,0.187,0.048,0.012,-0.01
0.018,0.027,0.009,-0.023,0.005,0.018,0.071,0.234,0.214,0.059,0.022,-0.001
0.027,0.056,0.029,-0.042,-0.001,0.042,0.075,0.275,0.265,0.096,0.053,0.002
0.014,0.062,0.049,-0.039,-0.018,0.055,0.075,0.326,0.309,0.107,0.061,0.017
0.041,0.083,0.042,-0.062,-0.001,0.062,0.071,0.383,0.368,0.135,0.082,0.046
0.046,0.105,0.059,-0.076,-0.007,0.082,0.068,0.452,0.434,0.17,0.104,0.05
0.037,0.118,0.081,-0.078,-0.022,0.099,0.066,0.542,0.512,0.208,0.129,0.076
0.066,0.145,0.078,-0.106,-0.006,0.111,0.062,0.627,0.604,0.25,0.158,0.087
0.094,0.176,0.083,-0.135,0.005,0.13,0.06,0.728,0.706,0.304,0.201,0.112
0.117,0.226,0.109,-0.172,0.004,0.167,0.057,0.824,0.811,0.371,0.256,0.15
0.113,0.241,0.129,-0.177,-0.008,0.185,0.049,0.885,0.892,0.415,0.289,0.169
0.125,0.282,0.157,-0.204,-0.016,0.219,0.042,0.934,0.97,0.48,0.341,0.223
0.129,0.297,0.167,-0.213,-0.019,0.232,0.036,0.93,0.995,0.512,0.37,0.245
0.14,0.296,0.155,-0.218,-0.008,0.225,0.03,0.877,0.97,0.505,0.385,0.248
0.159,0.307,0.148,-0.233,0.006,0.227,0.025,0.759,0.878,0.479,0.375,0.249
0.093,0.232,0.139,-0.163,-0.023,0.185,0.02,0.568,0.666,0.39,0.299,0.197
0.055,0.172,0.117,-0.113,-0.031,0.145,0.016,0.372,0.423,0.262,0.216,0.129
0.048,0.122,0.074,-0.085,-0.013,0.097,0.011,0.208,0.221,0.144,0.136,0.076
0.011,0.057,0.046,-0.034,-0.018,0.051,0.007,0.083,0.076,0.063,0.073,0.036
-0.001,0.01,0.011,-0.004,-0.006,0.01,0.003,-0.002,-0.025,-0.001,0.025,-0.005
-0.016,-0.044,-0.027,0.03,0.006,-0.035,-0.003,-0.045,-0.092,-0.043,-0.008,-0.025
-0.024,-0.054,-0.031,0.039,0.004,-0.042,-0.006,-0.075,-0.131,-0.072,-0.03,-0.035
-0.003,-0.033,-0.03,0.018,0.014,-0.031,-0.012,-0.086,-0.143,-0.085,-0.047,-0.05
-0.029,-0.057,-0.028,0.043,0.0,-0.042,-0.015,-0.079,-0.157,-0.091,-0.048,-0.048
-0.06,-0.083,-0.024,0.072,-0.018,-0.053,-0.01,-0.076,-0.157,-0.096,-0.043,-0.044
-0.048,-0.074,-0.026,0.062,-0.01,-0.05,-0.01,-0.071,-0.142,-0.09,-0.048,-0.046
-0.052,-0.07,-0.018,0.062,-0.017,-0.044,-0.01,-0.067,-0.145,-0.088,-0.063,-0.044
-0.055,-0.063,-0.007,0.059,-0.024,-0.035,-0.01,-0.062,-0.137,-0.083,-0.061,-0.046
-0.031,-0.053,-0.022,0.042,-0.004,-0.037,-0.009,-0.06,-0.134,-0.08,-0.051,-0.044
-0.009,-0.044,-0.035,0.027,0.013,-0.039,-0.013,-0.061,-0.136,-0.076,-0.047,-0.04
0.006,-0.029,-0.034,0.012,0.02,-0.031,-0.019,-0.057,-0.131,-0.075,-0.038,-0.035
0.014,-0.022,-0.036,0.005,0.025,-0.029,-0.024,-0.055,-0.13,-0.074,-0.036,-0.03
0.027,-0.007,-0.034,-0.01,0.031,-0.02,-0.029,-0.056,-0.131,-0.072,-0.041,-0.028
0.024,-0.011,-0.036,-0.006,0.03,-0.023,-0.025,-0.049,-0.123,-0.068,-0.035,-0.019
-0.018,-0.053,-0.035,0.036,0.008,-0.044,-0.025,-0.058,-0.129,-0.076,-0.041,-0.028
0.013,-0.029,-0.042,0.008,0.028,-0.035,-0.024,-0.075,-0.153,-0.095,-0.056,-0.046
0.024,-0.014,-0.038,-0.005,0.031,-0.026,-0.02,-0.077,-0.145,-0.095,-0.055,-0.038
-0.012,-0.049,-0.038,0.031,0.013,-0.044,-0.02,-0.082,-0.154,-0.098,-0.054,-0.033
0.031,-0.024,-0.055,-0.003,0.043,-0.039,-0.023,-0.078,-0.177,-0.101,-0.05,-0.029
0.012,-0.023,-0.035,0.006,0.024,-0.029,-0.025,-0.083,-0.174,-0.101,-0.05,-0.02
-0.017,-0.059,-0.042,0.038,0.013,-0.05,-0.025,-0.105,-0.175,-0.107,-0.052,-0.029
0.002,-0.049,-0.051,0.024,0.027,-0.05,-0.028,-0.105,-0.175,-0.108,-0.059,-0.041
-0.014,-0.049,-0.036,0.032,0.011,-0.042,-0.031,-0.105,-0.174,-0.113,-0.065,-0.046
-0.002,-0.045,-0.043,0.023,0.021,-0.043,-0.029,-0.103,-0.181,-0.115,-0.066,-0.039
0.007,-0.038,-0.044,0.016,0.025,-0.041,-0.025,-0.1,-0.191,-0.11,-0.07,-0.034
0.0,-0.049,-0.049,0.025,0.024,-0.048,-0.025,-0.1,-0.19,-0.11,-0.072,-0.023
0.027,-0.023,-0.05,-0.002,0.038,-0.036,-0.024,-0.1,-0.19,-0.11,-0.076,-0.027
-0.018,-0.06,-0.042,0.039,0.012,-0.051,-0.02,-0.121,-0.19,-0.11,-0.072,-0.061
-0.037,-0.075,-0.037,0.056,0.0,-0.056,-0.019,-0.127,-0.189,-0.11,-0.069,-0.065
-0.004,-0.037,-0.033,0.021,0.015,-0.035,-0.023,-0.12,-0.194,-0.108,-0.071,-0.056
-0.052,-0.076,-0.024,0.064,-0.014,-0.05,-0.028,-0.12,-0.195,-0.104,-0.066,-0.055
-0.054,-0.078,-0.025,0.066,-0.014,-0.051,-0.026,-0.115,-0.195,-0.105,-0.065,-0.048
-0.055,-0.069,-0.014,0.062,-0.02,-0.041,-0.023,-0.114,-0.195,-0.105,-0.065,-0.045
-0.055,-0.07,-0.015,0.063,-0.02,-0.043,-0.02,-0.111,-0.195,-0.105,-0.06,-0.04
-0.017,-0.059,-0.042,0.038,0.013,-0.05,-0.018,-0.109,-0.195,-0.105,-0.06,-0.04
-0.022,-0.063,-0.04,0.043,0.009,-0.052,-0.014,-0.108,-0.195,-0.105,-0.059,-0.04
0.008,-0.029,-0.038,0.011,0.023,-0.033,-0.019,-0.102,-0.195,-0.105,-0.055,-0.04
-0.01,-0.046,-0.036,0.028,0.013,-0.041,-0.037,-0.114,-0.197,-0.104,-0.055,-0.04
-0.053,-0.087,-0.034,0.071,-0.01,-0.06,-0.041,-0.131,-0.209,-0.114,-0.057,-0.042
-0.042,-0.077,-0.034,0.06,-0.004,-0.055,-0.034,-0.13,-0.216,-0.119,-0.06,-0.046
-0.043,-0.071,-0.027,0.057,-0.008,-0.049,-0.031,-0.13,-0.214,-0.112,-0.06,-0.045
-0.032,-0.064,-0.032,0.048,0.001,-0.048,-0.026,-0.13,-0.214,-0.108,-0.06,-0.045
-0.03,-0.057,-0.028,0.044,-0.001,-0.042,-0.021,-0.129,-0.208,-0.101,-0.06,-0.045
-0.023,-0.055,-0.032,0.039,0.005,-0.043,-0.021,-0.133,-0.212,-0.096,-0.06,-0.045
-0.039,-0.068,-0.028,0.054,-0.005,-0.048,-0.026,-0.135,-0.201,-0.099,-0.057,-0.045
-0.068,-0.064,0.004,0.066,-0.036,-0.03,-0.024,-0.135,-0.189,-0.1,-0.055,-0.045
-0.076,-0.082,-0.006,0.079,-0.034,-0.044,-0.025,-0.135,-0.217,-0.1,-0.055,-0.045
-0.03,-0.054,-0.024,0.043,-0.002,-0.039,-0.026,-0.135,-0.227,-0.1,-0.055,-0.045
0.0,-0.033,-0.033,0.017,0.017,-0.033,-0.006,-0.135,-0.219,-0.1,-0.055,-0.045
-0.053,-0.09,-0.037,0.072,-0.008,-0.063,-0.01,-0.13,-0.218,-0.1,-0.056,-0.045
-0.042,-0.071,-0.029,0.057,-0.007,-0.049,-0.023,-0.125,-0.213,-0.1,-0.059,-0.045
-0.03,-0.06,-0.03,0.045,0.001,-0.045,-0.019,-0.121,-0.21,-0.1,-0.06,-0.045
-0.039,-0.063,-0.023,0.052,-0.008,-0.042,-0.02,-0.116,-0.206,-0.1,-0.062,-0.045
-0.027,-0.055,-0.027,0.041,0.0,-0.041,-0.016,-0.112,-0.202,-0.1,-0.066,-0.045
-0.024,-0.054,-0.03,0.039,0.003,-0.041,-0.013,-0.107,-0.199,-0.1,-0.068,-0.045
-0.016,-0.048,-0.032,0.033,0.007,-0.04,-0.021,-0.105,-0.196,-0.097,-0.071,-0.049
-0.021,-0.06,-0.038,0.041,0.009,-0.049,-0.035,-0.101,-0.19,-0.093,-0.074,-0.05
-0.066,-0.067,-0.001,0.066,-0.032,-0.034,-0.035,-0.1,-0.193,-0.087,-0.076,-0.05
-0.061,-0.057,0.004,0.06,-0.033,-0.026,-0.034,-0.095,-0.202,-0.085,-0.079,-0.05
-0.004,-0.034,-0.03,0.019,0.013,-0.032,-0.035,-0.097,-0.2,-0.078,-0.081,-0.051
-0.027,-0.056,-0.029,0.042,0.001,-0.043,-0.035,-0.126,-0.196,-0.078,-0.081,-0.048
-0.037,-0.054,-0.017,0.046,-0.01,-0.035,-0.033,-0.131,-0.193,-0.098,-0.085,-0.044
-0.044,-0.042,0.002,0.043,-0.023,-0.02,-0.03,-0.129,-0.191,-0.101,-0.085,-0.045
-0.038,-0.046,-0.008,0.042,-0.015,-0.027,-0.027,-0.131,-0.188,-0.098,-0.082,-0.045
0.002,-0.029,-0.031,0.013,0.017,-0.03,-0.024,-0.128,-0.204,-0.096,-0.078,-0.045
-0.035,-0.028,0.006,0.032,-0.02,-0.011,-0.02,-0.127,-0.215,-0.094,-0.071,-0.045
-0.042,-0.02,0.022,0.031,-0.031,0.001,-0.02,-0.12,-0.199,-0.096,-0.07,-0.038
-0.041,-0.029,0.012,0.035,-0.026,-0.008,-0.045,-0.123,-0.199,-0.094,-0.062,-0.031
-0.029,-0.042,-0.013,0.036,-0.008,-0.027,-0.049,-0.105,-0.183,-0.096,-0.064,-0.024
0.018,-0.006,-0.024,-0.006,0.021,-0.015,-0.02,-0.089,-0.192,-0.076,-0.064,-0.017
0.04,0.051,0.011,-0.046,0.014,0.031,-0.023,-0.078,-0.188,-0.036,-0.031,0.003
0.024,0.001,-0.023,-0.012,0.023,-0.011,-0.059,-0.09,-0.188,-0.061,-0.044,0.005
-0.034,-0.078,-0.045,0.056,0.006,-0.061,-0.051,-0.111,-0.196,-0.078,-0.067,-0.014
-0.054,-0.083,-0.028,0.069,-0.013,-0.055,-0.02,-0.107,-0.178,-0.082,-0.076,-0.029
-0.047,-0.06,-0.014,0.054,-0.016,-0.037,-0.031,-0.105,-0.222,-0.123,-0.106,-0.042
-0.046,-0.064,-0.018,0.056,-0.014,-0.041,-0.031,-0.1,-0.178,-0.083,-0.083,-0.018
-0.04,-0.033,0.007,0.037,-0.024,-0.012,0.0,-0.073,-0.198,-0.139,-0.116,-0.044
0.005,-0.004,-0.009,-0.001,0.007,-0.006,0.125,0.28,-0.009,-0.086,-0.129,-0.088
0.064,0.119,0.055,-0.092,0.004,0.087,0.115,0.553,0.337,0.192,0.102,0.112
0.366,0.745,0.379,-0.556,-0.007,0.562,-0.251,0.319,1.373,1.428,1.165,0.957
0.41,0.997,0.587,-0.703,-0.089,0.792,-0.466,-0.237,1.449,1.975,1.611,1.271
-0.112,0.419,0.531,-0.154,-0.322,0.475,-0.296,-0.842,-0.688,0.125,0.202,0.252
-0.219,-0.076,0.144,0.147,-0.181,0.034,-0.063,-0.629,-0.967,-0.566,-0.418,-0.249
-0.042,-0.241,-0.199,0.142,0.078,-0.22,-0.015,-0.115,-0.239,-0.168,-0.18,-0.142
-0.025,-0.173,-0.147,0.099,0.061,-0.16,-0.035,-0.04,-0.261,-0.223,-0.207,-0.139
0.008,-0.056,-0.064,0.024,0.037,-0.06,-0.005,-0.007,-0.065,-0.074,-0.101,-0.048
-0.012,-0.024,-0.011,0.018,0.0,-0.017,-0.005,0.017,-0.103,-0.096,-0.109,-0.039
-0.027,-0.016,0.011,0.022,-0.019,-0.003,0.005,0.054,-0.027,-0.056,-0.083,-0.02
-0.004,0.004,0.007,0.0,-0.005,0.005,0.017,0.068,-0.024,-0.059,-0.082,-0.023
-0.034,0.006,0.04,0.014,-0.037,0.023,0.035,0.063,-0.021,-0.058,-0.082,-0.021
-0.033,0.014,0.047,0.009,-0.039,0.03,0.042,0.077,0.01,-0.04,-0.065,-0.013
-0.027,0.017,0.044,0.004,-0.036,0.03,0.042,0.078,-0.008,-0.05,-0.072,-0.018
-0.021,0.025,0.046,-0.002,-0.034,0.035,0.047,0.107,0.043,-0.022,-0.056,-0.007
0.032,0.076,0.044,-0.054,-0.006,0.06,0.039,0.136,0.061,-0.023,-0.058,-0.007
0.027,0.073,0.046,-0.051,-0.01,0.06,0.041,0.142,0.08,0.006,-0.046,0.0
0.0,0.05,0.05,-0.025,-0.025,0.049,0.039,0.168,0.098,0.019,-0.035,0.003
-0.013,0.046,0.059,-0.017,-0.036,0.052,0.034,0.197,0.136,0.035,-0.017,0.007
0.002,0.09,0.087,-0.046,-0.043,0.088,0.036,0.228,0.176,0.045,-0.007,0.017
0.016,0.103,0.087,-0.06,-0.035,0.094,0.033,0.265,0.21,0.062,0.006,0.021
0.02,0.094,0.074,-0.058,-0.027,0.084,0.038,0.305,0.256,0.094,0.029,0.031
0.044,0.142,0.098,-0.093,-0.027,0.12,0.062,0.363,0.313,0.121,0.051,0.057
0.073,0.147,0.074,-0.111,0.0,0.11,0.066,0.415,0.364,0.132,0.053,0.059
0.064,0.152,0.089,-0.108,-0.013,0.12,0.064,0.487,0.436,0.162,0.07,0.066
0.063,0.195,0.132,-0.129,-0.035,0.163,0.066,0.578,0.53,0.218,0.097,0.089
0.074,0.205,0.13,-0.14,-0.028,0.167,0.065,0.671,0.628,0.266,0.124,0.108
0.072,0.225,0.154,-0.149,-0.041,0.189,0.064,0.772,0.732,0.318,0.165,0.14
0.119,0.278,0.159,-0.199,-0.02,0.218,0.049,0.863,0.833,0.378,0.206,0.17
0.116,0.298,0.181,-0.207,-0.033,0.239,0.033,0.926,0.923,0.44,0.253,0.201
0.116,0.321,0.206,-0.219,-0.045,0.263,0.017,0.964,0.989,0.489,0.284,0.231
0.144,0.347,0.204,-0.246,-0.03,0.275,0.001,0.962,1.021,0.521,0.315,0.257
0.163,0.364,0.201,-0.264,-0.019,0.283,-0.015,0.894,0.99,0.523,0.327,0.268
0.176,0.372,0.197,-0.274,-0.011,0.284,-0.024,0.761,0.861,0.476,0.298,0.247
0.111,0.283,0.172,-0.198,-0.031,0.227,-0.032,0.561,0.632,0.365,0.225,0.195
0.057,0.182,0.125,-0.119,-0.035,0.153,-0.032,0.365,0.389,0.232,0.129,0.126
0.064,0.155,0.091,-0.11,-0.013,0.123,-0.029,0.212,0.196,0.117,0.06,0.066
0.031,0.11,0.078,-0.071,-0.024,0.094,-0.03,0.097,0.058,0.035,-0.001,0.02
-0.024,0.048,0.072,-0.013,-0.048,0.06,-0.03,0.03,-0.027,-0.008,-0.046,0.011
-0.002,0.013,0.015,-0.006,-0.009,0.014,-0.03,-0.027,-0.1,-0.07,-0.09,-0.008
0.005,0.004,-0.001,-0.005,0.003,0.002,-0.03,-0.07,-0.152,-0.11,-0.121,-0.052
-0.015,0.0,0.014,0.007,-0.014,0.007,-0.03,-0.075,-0.16,-0.11,-0.124,-0.056
-0.027,-0.005,0.021,0.016,-0.024,0.008,-0.03,-0.067,-0.153,-0.121,-0.133,-0.048
-0.034,0.014,0.048,0.01,-0.041,0.031,-0.03,-0.063,-0.15,-0.124,-0.13,-0.061
-0.024,0.015,0.04,0.004,-0.032,0.027,-0.03,-0.056,-0.145,-0.12,-0.13,-0.064
-0.024,0.01,0.034,0.007,-0.029,0.022,-0.03,-0.052,-0.141,-0.115,-0.13,-0.07
-0.025,0.009,0.033,0.008,-0.029,0.021,-0.027,-0.046,-0.137,-0.11,-0.13,-0.081
-0.019,0.005,0.024,0.007,-0.022,0.014,-0.024,-0.043,-0.133,-0.107,-0.13,-0.076
-0.02,0.006,0.026,0.007,-0.023,0.016,-0.021,-0.04,-0.129,-0.101,-0.125,-0.073
-0.026,0.015,0.041,0.006,-0.034,0.028,-0.019,-0.035,-0.126,-0.102,-0.126,-0.07
-0.016,0.026,0.042,-0.005,-0.029,0.033,-0.014,-0.033,-0.122,-0.106,-0.123,-0.065
-0.005,0.025,0.03,-0.01,-0.018,0.027,-0.017,-0.028,-0.121,-0.105,-0.121,-0.067
-0.006,0.022,0.028,-0.008,-0.017,0.024,-0.03,-0.042,-0.129,-0.109,-0.119,-0.071
-0.015,0.003,0.018,0.006,-0.017,0.01,-0.031,-0.057,-0.134,-0.11,-0.127,-0.073
-0.004,0.01,0.014,-0.003,-0.009,0.012,-0.03,-0.058,-0.141,-0.11,-0.141,-0.076
0.001,0.011,0.01,-0.006,-0.004,0.01,-0.028,-0.06,-0.161,-0.115,-0.145,-0.079
-0.009,-0.011,-0.002,0.01,-0.003,-0.007,-0.024,-0.06,-0.173,-0.115,-0.144,-0.081
-0.022,-0.012,0.01,0.017,-0.016,-0.001,-0.025,-0.061,-0.173,-0.117,-0.147,-0.084
-0.024,-0.006,0.018,0.014,-0.021,0.005,-0.022,-0.062,-0.171,-0.128,-0.163,-0.086
-0.028,-0.017,0.011,0.023,-0.019,-0.003,-0.016,-0.059,-0.17,-0.135,-0.166,-0.09
-0.026,-0.016,0.011,0.021,-0.019,-0.002,-0.02,-0.06,-0.169,-0.137,-0.164,-0.089
-0.016,-0.01,0.006,0.013,-0.011,-0.002,-0.031,-0.082,-0.19,-0.14,-0.166,-0.091
-0.048,-0.043,0.005,0.045,-0.027,-0.019,-0.025,-0.092,-0.202,-0.143,-0.164,-0.1
-0.044,-0.042,0.001,0.043,-0.022,-0.021,-0.02,-0.089,-0.199,-0.146,-0.167,-0.1
-0.029,-0.033,-0.003,0.031,-0.013,-0.018,-0.018,-0.091,-0.201,-0.149,-0.169,-0.1
-0.023,-0.031,-0.008,0.028,-0.007,-0.019,-0.008,-0.09,-0.2,-0.151,-0.173,-0.1
-0.013,-0.022,-0.009,0.018,-0.002,-0.015,-0.023,-0.09,-0.199,-0.154,-0.175,-0.1
-0.038,-0.02,0.018,0.029,-0.028,-0.001,-0.043,-0.085,-0.196,-0.159,-0.179,-0.099
-0.057,-0.025,0.032,0.041,-0.045,0.004,-0.038,-0.085,-0.194,-0.157,-0.185,-0.109
-0.053,-0.035,0.018,0.044,-0.035,-0.008,-0.035,-0.084,-0.196,-0.155,-0.185,-0.122
-0.043,-0.029,0.013,0.036,-0.028,-0.007,-0.033,-0.08,-0.194,-0.155,-0.185,-0.118
-0.024,-0.022,0.001,0.023,-0.012,-0.01,-0.028,-0.08,-0.195,-0.151,-0.185,-0.115
-0.016,-0.02,-0.004,0.019,-0.006,-0.012,-0.032,-0.08,-0.193,-0.15,-0.185,-0.113
-0.031,-0.008,0.023,0.019,-0.026,0.007,-0.027,-0.08,-0.189,-0.15,-0.185,-0.109
-0.055,-0.029,0.027,0.042,-0.041,-0.001,-0.031,-0.086,-0.205,-0.157,-0.188,-0.112
-0.074,-0.058,0.016,0.066,-0.045,-0.02,-0.045,-0.085,-0.216,-0.161,-0.19,-0.123
-0.052,-0.041,0.011,0.046,-0.031,-0.015,-0.037,-0.082,-0.214,-0.159,-0.19,-0.13
-0.044,-0.042,0.002,0.043,-0.023,-0.02,-0.034,-0.078,-0.215,-0.164,-0.195,-0.13
-0.018,-0.022,-0.004,0.02,-0.007,-0.012,-0.035,-0.074,-0.215,-0.166,-0.195,-0.13
-0.005,-0.015,-0.01,0.01,0.003,-0.013,-0.035,-0.097,-0.215,-0.164,-0.196,-0.13
-0.017,-0.026,-0.01,0.021,-0.003,-0.018,-0.035,-0.107,-0.211,-0.161,-0.2,-0.131
-0.001,-0.013,-0.011,0.007,0.005,-0.012,-0.035,-0.104,-0.21,-0.158,-0.2,-0.127
-0.029,-0.044,-0.015,0.037,-0.006,-0.03,-0.035,-0.106,-0.21,-0.155,-0.2,-0.125
-0.049,-0.063,-0.015,0.056,-0.017,-0.039,-0.03,-0.105,-0.205,-0.152,-0.2,-0.125
-0.033,-0.046,-0.013,0.04,-0.01,-0.029,-0.03,-0.105,-0.204,-0.149,-0.204,-0.126
-0.045,-0.047,-0.003,0.046,-0.021,-0.025,-0.029,-0.099,-0.206,-0.152,-0.205,-0.124
-0.042,-0.036,0.005,0.039,-0.023,-0.015,-0.025,-0.094,-0.21,-0.156,-0.205,-0.127
-0.017,-0.004,0.013,0.01,-0.015,0.004,-0.025,-0.088,-0.21,-0.154,-0.209,-0.143
-0.05,-0.037,0.013,0.043,-0.031,-0.012,-0.027,-0.083,-0.21,-0.155,-0.21,-0.146
-0.054,-0.056,-0.002,0.055,-0.025,-0.029,-0.031,-0.075,-0.21,-0.154,-0.208,-0.144
-0.05,-0.037,0.013,0.044,-0.031,-0.012,-0.03,-0.088,-0.21,-0.15,-0.204,-0.145
-0.052,-0.03,0.022,0.041,-0.036,-0.004,-0.03,-0.103,-0.207,-0.15,-0.2,-0.145
-0.045,-0.029,0.016,0.036,-0.03,-0.006,-0.03,-0.096,-0.204,-0.15,-0.198,-0.144
-0.053,-0.038,0.015,0.045,-0.033,-0.012,-0.03,-0.095,-0.201,-0.151,-0.193,-0.139
-0.034,-0.024,0.01,0.029,-0.022,-0.006,-0.035,-0.091,-0.198,-0.149,-0.19,-0.14
-0.033,-0.022,0.011,0.028,-0.022,-0.006,-0.035,-0.09,-0.195,-0.155,-0.199,-0.137
0.003,-0.01,-0.013,0.004,0.008,-0.012,-0.035,-0.086,-0.196,-0.162,-0.212,-0.134
-0.026,-0.022,0.003,0.024,-0.014,-0.009,-0.035,-0.085,-0.2,-0.16,-0.216,-0.135
-0.075,-0.046,0.03,0.06,-0.052,-0.008,-0.035,-0.085,-0.199,-0.16,-0.211,-0.138
-0.052,-0.03,0.022,0.041,-0.037,-0.003,-0.033,-0.081,-0.202,-0.157,-0.208,-0.141
-0.043,-0.016,0.027,0.029,-0.034,0.005,-0.029,-0.079,-0.205,-0.153,-0.205,-0.139
-0.039,-0.015,0.024,0.027,-0.031,0.004,-0.027,-0.081,-0.205,-0.157,-0.198,-0.141
-0.062,-0.037,0.026,0.049,-0.044,-0.005,-0.023,-0.093,-0.201,-0.169,-0.211,-0.138
-0.061,-0.038,0.023,0.049,-0.041,-0.007,-0.022,-0.092,-0.195,-0.169,-0.227,-0.135
-0.045,-0.027,0.018,0.036,-0.031,-0.005,-0.018,-0.083,-0.19,-0.163,-0.224,-0.129
-0.043,-0.028,0.015,0.035,-0.029,-0.006,-0.023,-0.082,-0.186,-0.163,-0.226,-0.136
-0.026,-0.015,0.011,0.02,-0.018,-0.001,-0.034,-0.07,-0.177,-0.154,-0.225,-0.155
-0.03,-0.022,0.007,0.026,-0.018,-0.007,-0.03,-0.079,-0.18,-0.161,-0.225,-0.152
-0.021,-0.016,0.005,0.018,-0.012,-0.006,-0.023,-0.095,-0.191,-0.177,-0.229,-0.145
-0.004,0.017,0.022,-0.007,-0.013,0.019,-0.02,-0.096,-0.189,-0.172,-0.23,-0.143
-0.024,0.0,0.025,0.012,-0.024,0.012,-0.019,-0.093,-0.191,-0.171,-0.23,-0.136
-0.031,-0.017,0.014,0.024,-0.022,-0.002,-0.011,-0.09,-0.182,-0.166,-0.23,-0.137
-0.012,-0.005,0.008,0.008,-0.01,0.001,-0.037,-0.091,-0.188,-0.166,-0.229,-0.146
0.01,0.007,-0.003,-0.008,0.006,0.002,-0.042,-0.08,-0.177,-0.16,-0.225,-0.139
0.027,0.037,0.009,-0.032,0.008,0.023,-0.004,-0.038,-0.139,-0.131,-0.227,-0.123
0.033,0.071,0.037,-0.052,-0.002,0.054,-0.017,0.008,-0.13,-0.121,-0.233,-0.125
0.016,0.029,0.013,-0.023,0.002,0.021,-0.053,-0.047,-0.138,-0.12,-0.228,-0.123
0.015,0.01,-0.005,-0.013,0.01,0.003,-0.042,-0.101,-0.174,-0.152,-0.241,-0.129
-0.012,0.001,0.012,0.005,-0.012,0.006,-0.009,-0.082,-0.153,-0.14,-0.229,-0.148
-0.068,-0.033,0.035,0.051,-0.051,0.001,-0.02,-0.098,-0.212,-0.168,-0.247,-0.166
-0.034,-0.006,0.028,0.02,-0.031,0.01,-0.02,-0.081,-0.172,-0.141,-0.237,-0.156
-0.044,-0.027,0.017,0.035,-0.03,-0.005,-0.014,-0.101,-0.184,-0.151,-0.245,-0.161
-0.015,-0.004,0.011,0.01,-0.013,0.003,0.054,0.122,-0.084,-0.154,-0.262,-0.186
0.041,0.033,-0.008,-0.037,0.024,0.012,0.162,0.536,0.202,-0.031,-0.196,-0.149
0.197,0.465,0.268,-0.332,-0.036,0.366,-0.058,0.513,0.86,0.732,0.479,0.414
0.429,1.039,0.61,-0.734,-0.09,0.824,-0.398,0.125,1.823,2.043,1.553,1.206
0.076,0.811,0.735,-0.443,-0.33,0.773,-0.364,-0.485,0.252,0.952,0.75,0.647
-0.229,0.22,0.449,0.004,-0.34,0.335,-0.107,-0.618,-1.202,-0.645,-0.521,-0.291
-0.086,-0.164,-0.078,0.125,-0.004,-0.121,0.056,-0.134,-0.402,-0.329,-0.407,-0.305
-0.012,-0.193,-0.181,0.103,0.084,-0.187,0.053,0.067,-0.226,-0.241,-0.343,-0.263
0.016,-0.071,-0.087,0.028,0.052,-0.079,0.036,0.077,-0.127,-0.189,-0.29,-0.23
-0.029,-0.04,-0.01,0.035,-0.009,-0.025,0.04,0.085,-0.055,-0.123,-0.238,-0.174
-0.048,-0.029,0.019,0.038,-0.033,-0.005,0.031,0.078,-0.063,-0.143,-0.251,-0.176
-0.05,-0.011,0.039,0.031,-0.044,0.013,0.031,0.09,0.006,-0.092,-0.214,-0.164
-0.029,0.037,0.066,-0.004,-0.048,0.051,0.025,0.081,-0.048,-0.12,-0.229,-0.17
0.017,0.045,0.029,-0.031,-0.006,0.037,0.026,0.081,0.009,-0.079,-0.199,-0.152
-0.022,0.037,0.059,-0.008,-0.041,0.048,0.037,0.086,-0.002,-0.092,-0.203,-0.15
-0.043,0.028,0.071,0.008,-0.057,0.049,0.045,0.098,0.021,-0.07,-0.186,-0.138
0.018,0.068,0.05,-0.043,-0.017,0.059,0.046,0.115,0.056,-0.067,-0.182,-0.134
0.037,0.111,0.074,-0.074,-0.019,0.093,0.044,0.128,0.081,-0.05,-0.174,-0.133
-0.003,0.105,0.108,-0.051,-0.056,0.106,0.048,0.146,0.104,-0.025,-0.164,-0.123
0.009,0.11,0.102,-0.06,-0.047,0.106,0.059,0.176,0.132,-0.022,-0.163,-0.123
0.031,0.115,0.084,-0.073,-0.027,0.099,0.056,0.184,0.158,-0.003,-0.156,-0.112
0.008,0.111,0.103,-0.06,-0.048,0.107,0.049,0.211,0.182,0.002,-0.157,-0.11
0.032,0.119,0.087,-0.076,-0.028,0.103,0.045,0.258,0.225,0.032,-0.15,-0.107
0.076,0.141,0.065,-0.109,0.005,0.103,0.038,0.289,0.266,0.057,-0.138,-0.035
0.056,0.156,0.1,-0.106,-0.022,0.128,0.036,0.327,0.307,0.077,-0.123,0.013
