-0.015,0.015,0.03,0.0,-0.023,0.022,0.065,0.035,0.025,0.005,0.01,-0.01
-0.014,0.015,0.029,-0.001,-0.022,0.022,0.062,0.034,0.025,0.004,0.01,-0.01
-0.01,0.015,0.025,-0.003,-0.018,0.02,0.056,0.03,0.021,0.0,0.01,-0.01
-0.007,0.015,0.022,-0.004,-0.015,0.018,0.051,0.027,0.019,-0.003,0.006,-0.014
-0.002,0.015,0.017,-0.006,-0.01,0.016,0.044,0.022,0.015,-0.008,0.005,-0.016
0.001,0.016,0.015,-0.009,-0.007,0.015,0.041,0.02,0.015,-0.01,0.006,-0.014
-0.003,0.019,0.022,-0.008,-0.013,0.02,0.044,0.025,0.02,-0.004,0.009,-0.011
-0.011,0.022,0.033,-0.006,-0.022,0.027,0.047,0.025,0.02,0.003,0.014,-0.006
-0.011,0.024,0.035,-0.007,-0.024,0.03,0.049,0.026,0.024,0.009,0.016,-0.004
-0.007,0.028,0.035,-0.011,-0.021,0.031,0.053,0.03,0.025,0.016,0.021,0.001
-0.009,0.03,0.039,-0.011,-0.024,0.034,0.055,0.029,0.027,0.022,0.024,0.005
-0.008,0.033,0.041,-0.012,-0.025,0.036,0.055,0.032,0.031,0.027,0.027,0.003
-0.005,0.035,0.04,-0.015,-0.023,0.037,0.059,0.036,0.029,0.03,0.03,-0.003
-0.006,0.04,0.045,-0.017,-0.026,0.042,0.061,0.035,0.034,0.03,0.03,-0.005
-0.009,0.042,0.052,-0.017,-0.031,0.047,0.06,0.035,0.036,0.03,0.03,0.001
-0.011,0.046,0.056,-0.018,-0.034,0.051,0.055,0.044,0.035,0.03,0.031,0.01
-0.002,0.056,0.057,-0.027,-0.03,0.056,0.053,0.046,0.042,0.03,0.029,0.016
0.003,0.066,0.062,-0.035,-0.03,0.064,0.04,0.035,0.037,0.037,0.043,0.021
0.014,0.08,0.067,-0.047,-0.027,0.073,0.0,0.021,0.022,0.034,0.053,0.025
0.022,0.071,0.049,-0.047,-0.014,0.06,-0.03,0.011,0.014,0.022,0.032,0.02
0.009,0.054,0.045,-0.032,-0.018,0.049,-0.037,-0.008,0.002,0.013,0.021,0.015
-0.003,0.037,0.04,-0.017,-0.021,0.038,-0.032,-0.011,-0.001,0.003,0.013,0.009
-0.017,0.021,0.038,-0.002,-0.028,0.029,-0.011,-0.008,-0.011,-0.008,0.005,0.003
-0.03,0.003,0.033,0.013,-0.032,0.018,0.012,-0.004,-0.018,-0.017,-0.002,0.0
-0.048,-0.019,0.029,0.034,-0.038,0.005,0.034,0.005,-0.022,-0.027,-0.01,-0.009
-0.053,-0.023,0.03,0.038,-0.041,0.003,0.038,-0.001,-0.025,-0.026,-0.015,-0.011
-0.047,-0.028,0.018,0.037,-0.032,-0.005,0.045,0.022,-0.008,-0.022,-0.024,-0.021
-0.055,-0.019,0.036,0.037,-0.045,0.008,0.046,-0.002,-0.023,-0.022,-0.022,-0.021
-0.041,-0.034,0.007,0.037,-0.024,-0.013,0.06,0.054,0.017,-0.01,-0.029,-0.032
-0.093,-0.006,0.087,0.049,-0.09,0.041,0.169,0.234,0.13,0.05,-0.005,-0.066
-0.077,0.018,0.095,0.03,-0.086,0.056,0.354,0.741,0.577,0.347,0.166,0.002
0.385,0.189,-0.196,-0.287,0.29,-0.004,0.146,0.732,0.912,0.895,0.762,0.517
0.887,0.513,-0.374,-0.7,0.63,0.069,-0.524,-0.564,0.467,1.052,1.211,1.15
0.603,0.357,-0.246,-0.48,0.425,0.055,-0.699,-1.522,-0.479,0.213,0.533,0.798
0.024,-0.025,-0.049,0.0,0.037,-0.037,-0.52,-1.52,-1.169,-0.651,-0.273,0.054
-0.096,-0.113,-0.017,0.105,-0.039,-0.065,-0.445,-1.006,-0.848,-0.571,-0.318,-0.106
-0.072,-0.087,-0.015,0.08,-0.028,-0.051,-0.189,-0.361,-0.299,-0.237,-0.166,-0.092
-0.072,-0.074,-0.002,0.073,-0.035,-0.037,-0.017,-0.055,-0.086,-0.082,-0.06,-0.063
-0.058,-0.063,-0.005,0.061,-0.026,-0.034,0.003,0.033,0.009,-0.029,-0.034,-0.027
-0.062,-0.053,0.009,0.057,-0.035,-0.022,0.026,0.056,0.008,-0.025,-0.029,-0.03
-0.056,-0.049,0.006,0.052,-0.031,-0.021,0.033,0.076,0.033,-0.006,-0.014,-0.02
-0.051,-0.044,0.008,0.047,-0.029,-0.018,0.042,0.088,0.039,-0.003,-0.013,-0.02
-0.04,-0.038,0.002,0.039,-0.021,-0.017,0.04,0.1,0.064,0.011,0.0,-0.012
-0.032,-0.032,0.001,0.032,-0.016,-0.015,0.039,0.116,0.06,0.014,0.003,-0.008
-0.03,-0.033,-0.003,0.032,-0.014,-0.018,0.046,0.132,0.065,0.02,0.011,-0.001
-0.033,-0.038,-0.005,0.036,-0.013,-0.021,0.053,0.133,0.092,0.028,0.016,0.006
-0.027,-0.034,-0.008,0.031,-0.009,-0.021,0.043,0.138,0.092,0.029,0.02,0.011
-0.01,-0.032,-0.022,0.021,0.006,-0.027,0.034,0.151,0.099,0.049,0.036,0.023
0.001,-0.029,-0.03,0.014,0.016,-0.03,0.026,0.163,0.11,0.062,0.054,0.035
0.01,-0.019,-0.029,0.005,0.02,-0.024,0.016,0.187,0.129,0.073,0.058,0.045
0.037,0.006,-0.031,-0.021,0.034,-0.012,0.01,0.202,0.138,0.083,0.064,0.057
0.056,0.028,-0.028,-0.042,0.042,0.0,0.002,0.215,0.152,0.092,0.081,0.075
0.077,0.043,-0.034,-0.06,0.055,0.005,-0.003,0.241,0.177,0.119,0.1,0.1
0.094,0.062,-0.032,-0.078,0.063,0.015,-0.015,0.271,0.195,0.131,0.114,0.118
0.106,0.079,-0.027,-0.092,0.067,0.025,-0.025,0.296,0.218,0.146,0.129,0.133
0.147,0.1,-0.047,-0.123,0.097,0.026,-0.045,0.312,0.232,0.156,0.154,0.164
0.165,0.119,-0.046,-0.142,0.106,0.036,-0.06,0.337,0.248,0.177,0.176,0.187
0.183,0.146,-0.036,-0.164,0.109,0.054,-0.05,0.352,0.263,0.195,0.182,0.187
0.183,0.154,-0.029,-0.168,0.106,0.062,-0.045,0.339,0.248,0.177,0.174,0.174
0.157,0.135,-0.021,-0.146,0.089,0.057,-0.034,0.322,0.239,0.169,0.166,0.164
0.119,0.119,0.0,-0.119,0.059,0.059,-0.005,0.287,0.22,0.153,0.146,0.148
0.054,0.091,0.037,-0.073,0.008,0.063,0.012,0.232,0.173,0.121,0.114,0.111
0.008,0.049,0.041,-0.029,-0.017,0.044,0.028,0.18,0.123,0.087,0.085,0.069
-0.019,0.021,0.04,-0.001,-0.029,0.03,0.05,0.135,0.081,0.057,0.055,0.037
-0.022,0.016,0.038,0.002,-0.03,0.027,0.05,0.098,0.049,0.037,0.027,0.018
-0.021,0.013,0.034,0.004,-0.028,0.023,0.051,0.081,0.033,0.022,0.012,0.008
-0.027,0.008,0.036,0.009,-0.032,0.022,0.055,0.068,0.028,0.013,-0.002,0.0
-0.03,0.002,0.031,0.014,-0.031,0.016,0.055,0.059,0.021,0.003,-0.01,-0.008
-0.034,-0.006,0.028,0.02,-0.031,0.01,0.053,0.057,0.014,-0.008,-0.013,-0.016
-0.036,-0.012,0.023,0.024,-0.03,0.005,0.048,0.053,0.008,-0.017,-0.017,-0.023
-0.043,-0.021,0.022,0.032,-0.032,0.001,0.042,0.05,0.002,-0.025,-0.02,-0.025
-0.041,-0.028,0.013,0.034,-0.027,-0.007,0.039,0.045,-0.002,-0.034,-0.026,-0.029
-0.052,-0.027,0.025,0.039,-0.038,-0.001,0.033,0.043,-0.008,-0.031,-0.021,-0.03
-0.067,-0.022,0.045,0.045,-0.056,0.011,0.032,0.038,-0.011,-0.03,-0.027,-0.025
-0.059,-0.019,0.039,0.039,-0.049,0.01,0.045,0.035,-0.017,-0.029,-0.041,-0.025
-0.048,-0.016,0.032,0.032,-0.04,0.008,0.043,0.032,-0.019,-0.024,-0.035,-0.024
-0.041,-0.011,0.03,0.026,-0.036,0.009,0.038,0.027,-0.016,-0.026,-0.032,-0.02
-0.029,-0.011,0.018,0.02,-0.024,0.003,0.037,0.024,-0.014,-0.022,-0.026,-0.02
-0.045,-0.015,0.03,0.03,-0.037,0.007,0.03,0.02,-0.01,-0.02,-0.027,-0.023
-0.074,-0.015,0.059,0.044,-0.066,0.022,0.032,0.02,-0.009,-0.017,-0.031,-0.025
-0.061,-0.015,0.046,0.038,-0.053,0.015,0.035,0.019,-0.002,-0.014,-0.03,-0.025
-0.062,-0.014,0.048,0.038,-0.055,0.017,0.035,0.014,-0.012,-0.011,-0.03,-0.025
-0.079,-0.022,0.058,0.05,-0.068,0.018,0.035,0.015,-0.013,-0.009,-0.03,-0.025
-0.084,-0.033,0.051,0.058,-0.067,0.009,0.035,0.012,-0.015,-0.029,-0.03,-0.025
-0.081,-0.03,0.051,0.056,-0.066,0.01,0.035,0.009,-0.032,-0.037,-0.025,-0.02
-0.073,-0.028,0.046,0.05,-0.059,0.009,0.03,0.01,-0.029,-0.034,-0.025,-0.02
-0.071,-0.025,0.046,0.047,-0.058,0.011,0.022,0.01,-0.03,-0.034,-0.023,-0.019
-0.06,-0.021,0.039,0.04,-0.05,0.009,0.016,0.01,-0.03,-0.029,-0.02,-0.015
-0.055,-0.02,0.034,0.037,-0.045,0.007,0.008,0.009,-0.03,-0.03,-0.019,-0.015
-0.037,-0.016,0.022,0.026,-0.029,0.003,0.0,0.005,-0.028,-0.032,-0.024,-0.017
-0.051,-0.016,0.035,0.033,-0.043,0.009,-0.003,0.0,-0.021,-0.036,-0.03,-0.021
-0.082,-0.013,0.069,0.047,-0.075,0.028,0.0,-0.004,-0.016,-0.039,-0.03,-0.024
-0.08,-0.022,0.058,0.051,-0.069,0.018,0.003,-0.009,-0.009,-0.043,-0.03,-0.028
-0.078,-0.034,0.045,0.056,-0.061,0.005,0.005,-0.014,-0.034,-0.045,-0.029,-0.03
-0.06,-0.025,0.034,0.042,-0.047,0.004,0.01,-0.015,-0.044,-0.038,-0.038,-0.024
-0.031,-0.016,0.014,0.023,-0.022,-0.001,0.008,-0.015,-0.026,-0.027,-0.04,-0.015
-0.049,-0.01,0.039,0.029,-0.044,0.014,0.022,-0.004,-0.019,-0.018,-0.017,-0.007
-0.074,0.001,0.076,0.036,-0.075,0.038,0.04,0.01,-0.009,-0.007,0.006,0.001
-0.046,0.03,0.076,0.007,-0.061,0.053,0.027,0.022,-0.005,0.001,0.01,0.005
-0.035,0.034,0.07,0.0,-0.053,0.052,0.014,0.022,0.004,0.007,0.004,0.005
-0.047,0.025,0.071,0.011,-0.059,0.048,-0.007,-0.012,0.0,0.015,0.003,0.005
-0.049,0.017,0.067,0.016,-0.058,0.042,-0.051,-0.044,-0.028,0.004,0.0,0.005
-0.048,0.009,0.057,0.019,-0.053,0.033,-0.065,-0.052,-0.034,-0.009,-0.004,0.005
-0.056,0.0,0.056,0.028,-0.056,0.028,-0.052,-0.05,-0.039,-0.025,-0.003,0.005
-0.089,-0.037,0.052,0.062,-0.07,0.007,-0.041,-0.06,-0.054,-0.051,-0.019,-0.001
-0.115,-0.049,0.066,0.081,-0.09,0.008,-0.03,-0.076,-0.058,-0.058,-0.035,-0.008
-0.114,-0.064,0.05,0.089,-0.081,-0.007,-0.006,-0.046,-0.049,-0.058,-0.051,-0.026
-0.121,-0.074,0.047,0.098,-0.084,-0.013,0.01,-0.055,-0.055,-0.055,-0.055,-0.041
-0.124,-0.077,0.047,0.1,-0.085,-0.015,0.034,-0.035,-0.044,-0.05,-0.056,-0.051
-0.128,-0.07,0.058,0.098,-0.093,-0.006,0.033,-0.048,-0.052,-0.049,-0.055,-0.051
-0.114,-0.071,0.043,0.092,-0.079,-0.014,0.022,-0.031,-0.026,-0.042,-0.054,-0.047
-0.112,-0.063,0.048,0.087,-0.08,-0.008,0.095,0.1,0.035,-0.022,-0.059,-0.066
-0.159,-0.006,0.153,0.082,-0.156,0.073,0.274,0.458,0.326,0.158,0.029,-0.055
0.087,0.052,-0.035,-0.07,0.061,0.009,0.318,0.872,0.827,0.634,0.444,0.227
0.671,0.361,-0.31,-0.516,0.49,0.026,-0.265,0.0,0.698,1.075,1.119,0.944
0.788,0.458,-0.33,-0.623,0.559,0.064,-0.763,-1.338,-0.121,0.624,0.921,1.072
0.23,0.05,-0.18,-0.14,0.205,-0.065,-0.62,-1.684,-1.043,-0.451,-0.068,0.305
-0.065,-0.147,-0.081,0.106,0.008,-0.113,-0.516,-1.326,-1.126,-0.744,-0.406,-0.1
-0.065,-0.115,-0.049,0.09,-0.008,-0.082,-0.315,-0.609,-0.49,-0.369,-0.237,-0.073
-0.119,-0.084,0.035,0.101,-0.077,-0.024,-0.042,-0.145,-0.152,-0.137,-0.121,-0.05
-0.079,-0.052,0.028,0.065,-0.053,-0.012,0.011,-0.007,-0.035,-0.062,-0.067,-0.031
-0.071,-0.047,0.023,0.059,-0.047,-0.012,0.048,0.026,-0.01,-0.043,-0.058,-0.035
-0.063,-0.038,0.025,0.05,-0.044,-0.006,0.054,0.059,0.008,-0.031,-0.043,-0.023
-0.047,-0.033,0.014,0.04,-0.03,-0.009,0.049,0.093,0.022,-0.027,-0.036,-0.021
-0.043,-0.025,0.017,0.033,-0.03,-0.004,0.052,0.09,0.032,-0.019,-0.024,-0.015
-0.04,-0.02,0.02,0.029,-0.03,0.0,0.047,0.117,0.066,-0.007,-0.016,-0.009
-0.043,-0.015,0.028,0.029,-0.035,0.006,0.047,0.116,0.064,0.008,-0.009,-0.004
-0.006,-0.009,-0.004,0.008,-0.001,-0.006,0.042,0.123,0.073,0.028,-0.003,0.003
0.029,-0.006,-0.035,-0.011,0.032,-0.02,0.051,0.139,0.075,0.036,0.007,0.008
0.042,-0.001,-0.043,-0.021,0.042,-0.022,0.057,0.145,0.079,0.034,0.018,0.018
0.04,0.003,-0.037,-0.021,0.038,-0.017,0.051,0.161,0.094,0.039,0.032,0.028
0.044,0.009,-0.035,-0.026,0.039,-0.013,0.044,0.178,0.103,0.063,0.038,0.046
0.053,0.02,-0.033,-0.036,0.042,-0.006,0.037,0.193,0.11,0.071,0.046,0.058
0.06,0.033,-0.027,-0.046,0.043,0.003,0.031,0.21,0.131,0.08,0.067,0.067
0.083,0.04,-0.043,-0.061,0.063,-0.002,0.025,0.238,0.148,0.095,0.077,0.078
0.089,0.043,-0.046,-0.066,0.067,-0.002,0.018,0.268,0.167,0.111,0.096,0.095
0.117,0.063,-0.054,-0.09,0.085,0.004,0.008,0.298,0.188,0.13,0.122,0.12
0.159,0.088,-0.071,-0.123,0.115,0.009,-0.002,0.336,0.207,0.146,0.141,0.141
0.166,0.106,-0.059,-0.136,0.112,0.023,-0.009,0.355,0.221,0.158,0.149,0.158
0.174,0.119,-0.055,-0.146,0.114,0.032,-0.014,0.378,0.23,0.167,0.158,0.165
0.161,0.114,-0.047,-0.137,0.104,0.033,-0.02,0.385,0.226,0.171,0.162,0.156
0.147,0.102,-0.045,-0.124,0.096,0.028,-0.025,0.354,0.215,0.159,0.146,0.147
0.134,0.091,-0.043,-0.112,0.088,0.024,-0.006,0.312,0.197,0.144,0.134,0.138
0.09,0.078,-0.012,-0.084,0.051,0.033,0.022,0.252,0.153,0.13,0.111,0.109
0.035,0.056,0.021,-0.046,0.007,0.039,0.032,0.183,0.111,0.104,0.08,0.078
0.01,0.025,0.016,-0.018,-0.003,0.02,0.046,0.128,0.063,0.066,0.05,0.052
-0.011,-0.006,0.005,0.008,-0.008,0.0,0.051,0.084,0.012,0.024,0.022,0.015
-0.056,-0.021,0.035,0.038,-0.045,0.007,0.055,0.053,-0.009,0.0,0.004,-0.012
-0.069,-0.029,0.04,0.049,-0.055,0.005,0.063,0.046,-0.018,-0.006,-0.005,-0.025
-0.072,-0.041,0.031,0.056,-0.051,-0.005,0.065,0.041,-0.034,-0.013,-0.011,-0.03
-0.07,-0.042,0.029,0.056,-0.049,-0.006,0.065,0.036,-0.046,-0.019,-0.018,-0.032
-0.06,-0.04,0.021,0.05,-0.04,-0.009,0.065,0.03,-0.043,-0.027,-0.024,-0.036
-0.056,-0.04,0.016,0.048,-0.036,-0.012,0.065,0.026,-0.04,-0.034,-0.03,-0.035
-0.063,-0.04,0.023,0.051,-0.043,-0.008,0.065,0.029,-0.038,-0.037,-0.034,-0.035
-0.072,-0.041,0.032,0.056,-0.052,-0.004,0.064,0.03,-0.033,-0.036,-0.038,-0.035
-0.063,-0.038,0.025,0.05,-0.044,-0.007,0.061,0.03,-0.043,-0.035,-0.04,-0.035
-0.058,-0.035,0.023,0.047,-0.04,-0.006,0.058,0.03,-0.051,-0.034,-0.04,-0.036
-0.051,-0.032,0.019,0.042,-0.035,-0.007,0.056,0.03,-0.049,-0.031,-0.04,-0.034
-0.044,-0.03,0.014,0.036,-0.029,-0.008,0.052,0.027,-0.051,-0.029,-0.04,-0.03
-0.05,-0.027,0.024,0.038,-0.037,-0.001,0.05,0.019,-0.05,-0.032,-0.039,-0.03
-0.056,-0.025,0.031,0.04,-0.043,0.003,0.047,0.013,-0.05,-0.035,-0.036,-0.03
-0.055,-0.025,0.03,0.04,-0.042,0.002,0.045,0.005,-0.053,-0.035,-0.035,-0.03
-0.052,-0.025,0.027,0.038,-0.039,0.001,0.045,-0.003,-0.056,-0.037,-0.035,-0.03
-0.05,-0.025,0.025,0.037,-0.037,0.0,0.042,-0.009,-0.059,-0.041,-0.035,-0.03
-0.048,-0.025,0.023,0.036,-0.035,-0.001,0.039,-0.015,-0.061,-0.04,-0.035,-0.03
-0.06,-0.025,0.035,0.042,-0.047,0.005,0.041,-0.018,-0.066,-0.044,-0.037,-0.03
-0.071,-0.026,0.046,0.048,-0.058,0.01,0.045,-0.022,-0.064,-0.045,-0.041,-0.042
-0.073,-0.035,0.038,0.054,-0.056,0.001,0.043,-0.025,-0.06,-0.045,-0.04,-0.046
-0.078,-0.044,0.034,0.06,-0.056,-0.005,0.039,-0.03,-0.06,-0.045,-0.04,-0.044
-0.077,-0.046,0.031,0.061,-0.054,-0.007,0.04,-0.028,-0.06,-0.044,-0.04,-0.045
-0.072,-0.049,0.023,0.06,-0.047,-0.013,0.04,-0.025,-0.061,-0.046,-0.041,-0.045
-0.082,-0.052,0.03,0.066,-0.056,-0.01,0.04,-0.025,-0.059,-0.05,-0.044,-0.045
-0.097,-0.055,0.042,0.076,-0.069,-0.006,0.04,-0.025,-0.069,-0.05,-0.048,-0.04
-0.091,-0.054,0.037,0.072,-0.064,-0.008,0.044,-0.025,-0.076,-0.05,-0.05,-0.04
-0.084,-0.049,0.034,0.066,-0.059,-0.007,0.045,-0.025,-0.07,-0.05,-0.05,-0.04
-0.078,-0.046,0.032,0.062,-0.054,-0.006,0.045,-0.03,-0.068,-0.05,-0.05,-0.04
-0.072,-0.043,0.029,0.057,-0.05,-0.007,0.045,-0.03,-0.063,-0.05,-0.05,-0.04
-0.066,-0.038,0.028,0.052,-0.047,-0.005,0.045,-0.031,-0.061,-0.05,-0.05,-0.038
-0.059,-0.035,0.024,0.047,-0.041,-0.006,0.047,-0.028,-0.056,-0.05,-0.044,-0.033
-0.057,-0.031,0.026,0.043,-0.041,-0.002,0.055,-0.017,-0.047,-0.05,-0.036,-0.028
-0.045,-0.02,0.026,0.032,-0.035,0.003,0.059,-0.01,-0.039,-0.049,-0.029,-0.024
-0.046,-0.01,0.035,0.028,-0.04,0.012,0.054,0.001,-0.03,-0.033,-0.022,-0.019
-0.049,0.001,0.05,0.024,-0.05,0.025,0.045,0.004,-0.026,-0.027,-0.019,-0.014
-0.039,0.011,0.05,0.013,-0.045,0.031,0.04,0.01,-0.03,-0.031,-0.02,-0.01
-0.032,0.033,0.065,-0.001,-0.049,0.049,0.028,0.004,-0.03,-0.029,-0.02,-0.01
-0.01,0.038,0.048,-0.014,-0.029,0.043,-0.011,-0.03,-0.029,-0.035,-0.02,-0.008
-0.004,0.022,0.026,-0.009,-0.015,0.024,-0.032,-0.051,-0.043,-0.035,-0.02,-0.005
-0.021,0.012,0.032,0.005,-0.027,0.022,-0.026,-0.068,-0.065,-0.036,-0.014,-0.004
-0.026,-0.005,0.021,0.015,-0.024,0.008,-0.012,-0.062,-0.062,-0.045,-0.02,-0.009
-0.038,-0.01,0.027,0.024,-0.032,0.008,0.002,-0.075,-0.067,-0.052,-0.035,-0.027
-0.07,-0.056,0.014,0.063,-0.042,-0.021,0.015,-0.064,-0.08,-0.064,-0.063,-0.052
-0.107,-0.073,0.034,0.09,-0.071,-0.019,0.032,-0.064,-0.098,-0.062,-0.07,-0.056
-0.103,-0.063,0.04,0.083,-0.071,-0.011,0.038,-0.057,-0.086,-0.056,-0.063,-0.059
-0.105,-0.067,0.038,0.086,-0.071,-0.014,0.044,-0.044,-0.079,-0.051,-0.061,-0.064
-0.097,-0.051,0.045,0.074,-0.071,-0.003,0.034,-0.058,-0.085,-0.044,-0.053,-0.063
-0.094,-0.067,0.026,0.08,-0.059,-0.02,0.078,0.041,-0.022,-0.043,-0.055,-0.078
-0.171,-0.012,0.16,0.091,-0.165,0.074,0.226,0.298,0.171,0.065,-0.017,-0.082
-0.048,0.02,0.067,0.014,-0.058,0.043,0.365,0.858,0.671,0.448,0.253,0.074
0.542,0.247,-0.295,-0.394,0.418,-0.024,-0.049,0.371,0.776,0.942,0.893,0.699
0.928,0.451,-0.476,-0.689,0.702,-0.012,-0.712,-1.174,0.054,0.726,0.964,1.056
0.456,0.118,-0.338,-0.287,0.397,-0.11,-0.702,-1.83,-0.921,-0.295,0.073,0.446
-0.016,-0.155,-0.139,0.086,0.062,-0.147,-0.539,-1.579,-1.261,-0.802,-0.45,-0.099
-0.06,-0.151,-0.092,0.106,0.016,-0.121,-0.377,-0.844,-0.687,-0.491,-0.308,-0.129
-0.086,-0.103,-0.017,0.095,-0.034,-0.06,-0.064,-0.229,-0.225,-0.2,-0.156,-0.098
-0.073,-0.067,0.005,0.07,-0.039,-0.031,0.021,-0.059,-0.087,-0.099,-0.094,-0.081
-0.072,-0.071,0.002,0.071,-0.037,-0.034,0.045,-0.003,-0.035,-0.062,-0.072,-0.069
-0.067,-0.062,0.006,0.064,-0.036,-0.028,0.069,0.021,-0.031,-0.047,-0.062,-0.059
-0.058,-0.062,-0.005,0.06,-0.026,-0.033,0.075,0.057,0.0,-0.035,-0.053,-0.054
-0.055,-0.056,-0.001,0.056,-0.026,-0.028,0.083,0.073,-0.003,-0.031,-0.043,-0.048
-0.045,-0.053,-0.008,0.05,-0.018,-0.03,0.077,0.093,0.017,-0.02,-0.034,-0.042
-0.058,-0.066,-0.008,0.062,-0.025,-0.037,0.082,0.103,0.036,-0.015,-0.026,-0.038
-0.051,-0.067,-0.016,0.06,-0.017,-0.042,0.079,0.112,0.041,-0.005,-0.017,-0.027
-0.039,-0.059,-0.019,0.049,-0.01,-0.039,0.08,0.128,0.04,0.005,-0.011,-0.018
-0.029,-0.052,-0.023,0.041,-0.003,-0.038,0.075,0.146,0.064,0.015,-0.003,-0.007
-0.017,-0.046,-0.029,0.032,0.006,-0.037,0.071,0.164,0.083,0.026,0.006,0.003
-0.003,-0.035,-0.032,0.019,0.015,-0.033,0.069,0.173,0.085,0.034,0.014,0.009
0.012,-0.023,-0.034,0.006,0.023,-0.028,0.064,0.187,0.102,0.041,0.025,0.02
0.035,-0.013,-0.048,-0.01,0.042,-0.03,0.061,0.217,0.119,0.058,0.037,0.032
0.038,-0.007,-0.045,-0.015,0.042,-0.025,0.057,0.245,0.139,0.076,0.048,0.048
0.049,0.007,-0.043,-0.028,0.046,-0.018,0.048,0.269,0.16,0.084,0.057,0.062
0.105,0.03,-0.075,-0.067,0.09,-0.022,0.037,0.308,0.183,0.101,0.078,0.078
0.136,0.052,-0.084,-0.094,0.11,-0.016,0.03,0.338,0.213,0.122,0.101,0.109
0.147,0.073,-0.075,-0.11,0.111,-0.001,0.025,0.361,0.238,0.137,0.117,0.129
0.15,0.08,-0.07,-0.115,0.11,0.005,0.02,0.391,0.253,0.156,0.131,0.133
0.149,0.088,-0.062,-0.118,0.105,0.013,0.017,0.398,0.258,0.164,0.138,0.128
0.149,0.092,-0.057,-0.121,0.103,0.018,0.01,0.384,0.257,0.162,0.138,0.118
0.128,0.079,-0.05,-0.103,0.089,0.014,0.013,0.35,0.245,0.16,0.128,0.112
0.111,0.069,-0.042,-0.09,0.076,0.013,0.028,0.282,0.202,0.137,0.103,0.103
0.074,0.041,-0.033,-0.057,0.053,0.004,0.046,0.203,0.149,0.094,0.069,0.072
0.008,0.001,-0.008,-0.005,0.008,-0.003,0.065,0.139,0.098,0.055,0.031,0.029
-0.033,-0.027,0.006,0.03,-0.019,-0.01,0.077,0.094,0.054,0.021,0.007,-0.006
-0.035,-0.046,-0.011,0.041,-0.012,-0.028,0.081,0.061,0.028,-0.001,-0.006,-0.021
-0.039,-0.053,-0.014,0.046,-0.012,-0.033,0.08,0.039,0.015,-0.009,-0.032,-0.029
-0.07,-0.055,0.015,0.063,-0.042,-0.02,0.08,0.033,0.003,-0.016,-0.046,-0.041
-0.082,-0.059,0.023,0.071,-0.052,-0.018,0.08,0.03,-0.001,-0.022,-0.047,-0.041
-0.08,-0.064,0.016,0.071,-0.048,-0.024,0.08,0.027,0.0,-0.029,-0.051,-0.04
-0.082,-0.066,0.016,0.073,-0.048,-0.025,0.085,0.022,-0.004,-0.035,-0.053,-0.035
-0.075,-0.065,0.01,0.07,-0.042,-0.027,0.083,0.02,-0.005,-0.034,-0.055,-0.038
-0.075,-0.064,0.011,0.069,-0.042,-0.026,0.079,0.02,-0.005,-0.044,-0.052,-0.048
-0.082,-0.077,0.005,0.079,-0.043,-0.036,0.08,0.02,-0.005,-0.051,-0.049,-0.044
-0.088,-0.087,0.001,0.088,-0.044,-0.043,0.076,0.02,-0.005,-0.045,-0.046,-0.045
-0.074,-0.081,-0.007,0.078,-0.033,-0.044,0.075,0.02,-0.005,-0.043,-0.043,-0.045
-0.073,-0.081,-0.007,0.077,-0.033,-0.044,0.074,0.02,-0.005,-0.038,-0.041,-0.045
-0.094,-0.074,0.02,0.084,-0.057,-0.027,0.071,0.018,-0.005,-0.035,-0.038,-0.045
-0.088,-0.061,0.027,0.074,-0.057,-0.017,0.068,0.012,-0.007,-0.032,-0.035,-0.04
-0.069,-0.05,0.019,0.06,-0.044,-0.015,0.066,0.007,-0.012,-0.029,-0.035,-0.04
-0.063,-0.044,0.019,0.053,-0.04,-0.013,0.062,0.003,-0.015,-0.026,-0.035,-0.038
-0.059,-0.046,0.013,0.052,-0.036,-0.016,0.06,-0.001,-0.018,-0.024,-0.035,-0.035
-0.051,-0.042,0.009,0.047,-0.03,-0.016,0.057,-0.006,-0.023,-0.02,-0.035,-0.035
-0.057,-0.04,0.017,0.048,-0.037,-0.011,0.055,-0.01,-0.025,-0.021,-0.039,-0.038
-0.065,-0.04,0.025,0.052,-0.045,-0.008,0.055,-0.019,-0.025,-0.035,-0.04,-0.04
-0.051,-0.036,0.015,0.043,-0.033,-0.011,0.051,-0.017,-0.025,-0.041,-0.04,-0.04
-0.044,-0.035,0.01,0.039,-0.026,-0.012,0.049,-0.015,-0.025,-0.043,-0.044,-0.043
-0.038,-0.035,0.003,0.036,-0.02,-0.016,0.05,-0.014,-0.025,-0.046,-0.046,-0.046
-0.03,-0.035,-0.005,0.033,-0.012,-0.02,0.05,-0.016,-0.026,-0.049,-0.043,-0.044
-0.044,-0.034,0.009,0.039,-0.026,-0.012,0.05,-0.033,-0.022,-0.05,-0.04,-0.04
-0.054,-0.037,0.017,0.045,-0.035,-0.009,0.05,-0.034,-0.02,-0.045,-0.04,-0.04
-0.052,-0.04,0.012,0.046,-0.032,-0.014,0.05,-0.026,-0.02,-0.042,-0.04,-0.039
-0.047,-0.036,0.01,0.042,-0.028,-0.013,0.05,-0.025,-0.02,-0.038,-0.04,-0.035
-0.041,-0.035,0.006,0.037,-0.023,-0.014,0.052,-0.017,-0.02,-0.035,-0.04,-0.035
-0.04,-0.035,0.005,0.037,-0.022,-0.015,0.056,-0.016,-0.02,-0.03,-0.04,-0.035
-0.037,-0.036,0.002,0.036,-0.019,-0.017,0.055,-0.028,-0.028,-0.032,-0.04,-0.035
-0.033,-0.033,0.0,0.033,-0.016,-0.016,0.055,-0.03,-0.033,-0.036,-0.04,-0.035
-0.04,-0.039,0.0,0.039,-0.019,-0.019,0.055,-0.023,-0.029,-0.035,-0.04,-0.035
-0.042,-0.042,0.0,0.042,-0.02,-0.021,0.055,-0.023,-0.027,-0.039,-0.04,-0.035
-0.056,-0.056,0.0,0.056,-0.028,-0.028,0.055,-0.016,-0.024,-0.041,-0.039,-0.036
-0.07,-0.069,0.001,0.069,-0.035,-0.034,0.055,-0.017,-0.021,-0.04,-0.033,-0.033
-0.055,-0.048,0.007,0.051,-0.031,-0.021,0.056,-0.032,-0.02,-0.034,-0.026,-0.026
-0.048,-0.04,0.007,0.044,-0.027,-0.016,0.056,-0.02,-0.011,-0.021,-0.019,-0.019
-0.042,-0.023,0.019,0.032,-0.03,-0.002,0.07,-0.002,0.004,-0.015,-0.012,-0.012
-0.011,0.019,0.03,-0.004,-0.021,0.024,0.073,0.015,0.012,-0.014,-0.006,-0.006
0.012,0.031,0.019,-0.022,-0.004,0.025,0.067,0.023,0.02,-0.015,-0.005,-0.001
0.01,0.025,0.015,-0.017,-0.003,0.02,0.047,0.002,0.029,-0.015,-0.005,0.0
0.017,0.024,0.007,-0.021,0.005,0.015,0.005,-0.022,0.02,-0.015,-0.004,0.001
0.015,0.017,0.002,-0.016,0.007,0.009,-0.01,-0.048,0.006,-0.016,-0.006,-0.001
0.03,0.017,-0.012,-0.023,0.021,0.002,-0.017,-0.07,-0.01,-0.008,-0.005,0.001
0.052,0.006,-0.046,-0.029,0.049,-0.02,-0.014,-0.062,-0.026,-0.018,-0.016,-0.002
0.007,-0.007,-0.014,0.0,0.011,-0.01,0.01,-0.067,-0.036,-0.036,-0.024,-0.015
-0.038,-0.03,0.008,0.034,-0.022,-0.011,0.04,-0.065,-0.045,-0.043,-0.035,-0.033
-0.066,-0.063,0.003,0.064,-0.034,-0.03,0.06,-0.062,-0.052,-0.048,-0.05,-0.045
-0.072,-0.064,0.008,0.068,-0.04,-0.028,0.051,-0.068,-0.05,-0.044,-0.049,-0.043
-0.069,-0.074,-0.005,0.071,-0.032,-0.039,0.059,-0.043,-0.039,-0.042,-0.049,-0.05
-0.078,-0.07,0.009,0.074,-0.043,-0.03,0.052,-0.062,-0.047,-0.036,-0.039,-0.046
-0.068,-0.079,-0.011,0.073,-0.028,-0.044,0.076,0.022,-0.011,-0.038,-0.047,-0.057
-0.131,-0.044,0.088,0.087,-0.109,0.022,0.197,0.2,0.125,0.039,-0.016,-0.056
-0.101,-0.022,0.08,0.062,-0.09,0.028,0.377,0.756,0.568,0.341,0.153,0.011
0.384,0.132,-0.252,-0.258,0.318,-0.06,0.156,0.721,0.858,0.829,0.697,0.484
0.938,0.429,-0.51,-0.683,0.724,-0.04,-0.551,-0.744,0.355,0.879,1.046,1.042
0.686,0.245,-0.442,-0.465,0.563,-0.098,-0.731,-1.747,-0.619,0.02,0.355,0.669
0.081,-0.115,-0.196,0.017,0.139,-0.155,-0.542,-1.698,-1.224,-0.732,-0.364,0.006
-0.072,-0.155,-0.084,0.114,0.006,-0.119,-0.436,-1.088,-0.852,-0.589,-0.359,-0.127
-0.051,-0.089,-0.037,0.07,-0.007,-0.063,-0.137,-0.362,-0.292,-0.235,-0.183,-0.097
-0.036,-0.054,-0.018,0.045,-0.008,-0.036,0.023,-0.08,-0.095,-0.1,-0.09,-0.067
-0.033,-0.053,-0.019,0.043,-0.007,-0.036,0.053,-0.006,-0.026,-0.051,-0.06,-0.046
-0.044,-0.046,-0.002,0.045,-0.02,-0.024,0.082,0.032,-0.015,-0.038,-0.042,-0.042
-0.04,-0.043,-0.002,0.042,-0.019,-0.022,0.072,0.072,0.021,-0.032,-0.034,-0.036
-0.037,-0.038,-0.001,0.038,-0.018,-0.019,0.078,0.083,0.028,-0.027,-0.028,-0.033
-0.02,-0.033,-0.013,0.027,-0.003,-0.023,0.073,0.091,0.045,-0.019,-0.02,-0.027
-0.015,-0.03,-0.015,0.023,0.0,-0.022,0.076,0.104,0.05,-0.007,-0.015,-0.024
-0.012,-0.03,-0.018,0.021,0.003,-0.024,0.075,0.111,0.056,0.005,-0.007,-0.015
-0.006,-0.028,-0.022,0.017,0.008,-0.025,0.074,0.13,0.071,0.015,-0.002,-0.007
-0.001,-0.024,-0.023,0.013,0.012,-0.024,0.068,0.135,0.073,0.024,0.008,0.002
0.0,-0.026,-0.026,0.013,0.014,-0.026,0.062,0.151,0.092,0.031,0.018,0.009
0.017,-0.018,-0.035,0.001,0.026,-0.026,0.058,0.167,0.106,0.043,0.027,0.017
0.041,-0.003,-0.044,-0.019,0.042,-0.023,0.05,0.182,0.121,0.058,0.038,0.041
0.056,0.01,-0.046,-0.032,0.051,-0.018,0.047,0.214,0.138,0.072,0.047,0.054
0.07,0.02,-0.05,-0.045,0.06,-0.015,0.04,0.235,0.155,0.08,0.057,0.057
0.088,0.03,-0.058,-0.058,0.072,-0.014,0.033,0.258,0.173,0.085,0.066,0.067
0.105,0.043,-0.062,-0.074,0.084,-0.009,0.026,0.289,0.191,0.106,0.082,0.086
0.128,0.07,-0.058,-0.099,0.093,0.006,0.019,0.325,0.212,0.126,0.107,0.106
0.15,0.099,-0.052,-0.124,0.101,0.023,0.01,0.352,0.236,0.147,0.131,0.127
0.16,0.11,-0.05,-0.135,0.105,0.03,0.007,0.38,0.25,0.167,0.144,0.149
0.154,0.112,-0.042,-0.133,0.098,0.035,0.012,0.388,0.25,0.173,0.142,0.152
0.165,0.122,-0.043,-0.144,0.103,0.039,0.019,0.374,0.25,0.166,0.133,0.146
0.176,0.119,-0.057,-0.147,0.116,0.031,0.026,0.364,0.252,0.16,0.124,0.147
0.148,0.102,-0.046,-0.125,0.097,0.028,0.031,0.319,0.231,0.156,0.119,0.13
0.112,0.083,-0.03,-0.097,0.071,0.026,0.047,0.248,0.178,0.127,0.095,0.09
0.063,0.046,-0.017,-0.054,0.04,0.014,0.055,0.178,0.118,0.084,0.047,0.053
0.021,0.015,-0.006,-0.017,0.013,0.004,0.063,0.129,0.079,0.051,0.023,0.024
0.008,0.003,-0.005,-0.005,0.006,0.0,0.081,0.091,0.045,0.022,0.009,0.002
-0.02,-0.021,-0.001,0.02,-0.009,-0.01,0.08,0.05,0.008,0.004,-0.006,-0.008
-0.053,-0.051,0.002,0.052,-0.027,-0.025,0.08,0.035,-0.005,-0.004,-0.009,-0.014
-0.062,-0.057,0.005,0.059,-0.033,-0.026,0.08,0.03,-0.01,-0.008,-0.017,-0.021
-0.063,-0.058,0.005,0.06,-0.034,-0.026,0.08,0.022,-0.018,-0.014,-0.021,-0.027
-0.068,-0.062,0.006,0.065,-0.037,-0.028,0.079,0.015,-0.026,-0.02,-0.027,-0.038
-0.077,-0.065,0.012,0.07,-0.044,-0.026,0.075,0.006,-0.033,-0.024,-0.043,-0.042
-0.079,-0.064,0.015,0.071,-0.047,-0.024,0.073,0.012,-0.032,-0.026,-0.044,-0.039
-0.08,-0.06,0.02,0.07,-0.05,-0.02,0.069,0.018,-0.026,-0.024,-0.037,-0.04
-0.083,-0.058,0.025,0.07,-0.054,-0.016,0.067,0.012,-0.021,-0.031,-0.033,-0.04
-0.076,-0.055,0.021,0.065,-0.048,-0.016,0.064,0.01,-0.018,-0.036,-0.026,-0.04
-0.068,-0.052,0.017,0.06,-0.042,-0.017,0.062,0.005,-0.012,-0.035,-0.021,-0.04
-0.06,-0.05,0.01,0.055,-0.035,-0.019,0.059,0.001,-0.011,-0.034,-0.023,-0.04
-0.056,-0.047,0.009,0.051,-0.032,-0.019,0.056,-0.002,-0.025,-0.03,-0.032,-0.04
-0.044,-0.045,0.0,0.044,-0.021,-0.022,0.054,-0.006,-0.039,-0.031,-0.034,-0.04
-0.052,-0.045,0.007,0.048,-0.029,-0.018,0.05,-0.012,-0.042,-0.028,-0.03,-0.04
-0.071,-0.041,0.03,0.056,-0.051,-0.005,0.051,-0.015,-0.04,-0.025,-0.03,-0.04
-0.064,-0.039,0.025,0.052,-0.045,-0.007,0.055,-0.02,-0.04,-0.025,-0.03,-0.036
-0.061,-0.041,0.02,0.051,-0.041,-0.01,0.057,-0.025,-0.04,-0.025,-0.03,-0.035
-0.053,-0.039,0.014,0.045,-0.033,-0.012,0.06,-0.022,-0.04,-0.025,-0.03,-0.035
-0.052,-0.042,0.01,0.047,-0.031,-0.016,0.063,-0.02,-0.041,-0.025,-0.034,-0.03
-0.036,-0.037,-0.001,0.036,-0.017,-0.019,0.066,-0.02,-0.045,-0.029,-0.035,-0.03
-0.031,-0.047,-0.016,0.039,-0.008,-0.031,0.06,-0.02,-0.047,-0.033,-0.035,-0.03
-0.052,-0.059,-0.007,0.056,-0.022,-0.033,0.055,-0.02,-0.05,-0.036,-0.039,-0.03
-0.037,-0.038,-0.001,0.038,-0.018,-0.019,0.05,-0.02,-0.053,-0.032,-0.041,-0.035
-0.039,-0.034,0.005,0.037,-0.022,-0.014,0.045,-0.02,-0.055,-0.03,-0.038,-0.035
-0.049,-0.036,0.014,0.042,-0.031,-0.011,0.038,-0.02,-0.058,-0.027,-0.035,-0.035
-0.043,-0.031,0.012,0.036,-0.027,-0.009,0.034,-0.02,-0.06,-0.023,-0.035,-0.033
-0.037,-0.03,0.007,0.033,-0.022,-0.011,0.053,-0.02,-0.06,-0.042,-0.035,-0.03
-0.044,-0.03,0.015,0.037,-0.029,-0.007,0.054,-0.02,-0.06,-0.052,-0.035,-0.03
-0.055,-0.036,0.019,0.045,-0.037,-0.008,0.048,-0.024,-0.06,-0.049,-0.035,-0.035
-0.055,-0.039,0.016,0.046,-0.035,-0.011,0.047,-0.025,-0.059,-0.051,-0.038,-0.037
-0.057,-0.045,0.012,0.051,-0.035,-0.016,0.04,-0.026,-0.053,-0.05,-0.043,-0.034
-0.05,-0.041,0.009,0.046,-0.029,-0.015,0.04,-0.024,-0.046,-0.051,-0.045,-0.032
-0.034,-0.028,0.006,0.03,-0.02,-0.011,0.025,-0.018,-0.039,-0.043,-0.035,-0.028
-0.013,-0.012,0.001,0.012,-0.007,-0.005,0.031,-0.011,-0.032,-0.032,-0.025,-0.026
-0.012,-0.006,0.006,0.009,-0.008,-0.001,0.053,-0.007,-0.026,-0.023,-0.015,-0.023
-0.013,0.013,0.026,0.0,-0.019,0.019,0.042,0.007,-0.024,-0.011,-0.009,-0.02
0.003,0.051,0.048,-0.027,-0.023,0.049,0.03,0.024,-0.026,-0.005,-0.01,-0.017
0.001,0.048,0.047,-0.025,-0.023,0.048,0.019,0.009,-0.024,0.004,-0.01,-0.015
0.011,0.054,0.043,-0.033,-0.016,0.048,-0.022,-0.019,-0.027,0.001,-0.01,-0.011
0.021,0.059,0.038,-0.04,-0.009,0.048,-0.041,-0.045,-0.045,-0.012,-0.011,-0.01
-0.006,0.031,0.036,-0.013,-0.021,0.033,-0.03,-0.061,-0.07,-0.028,-0.018,-0.015
-0.021,0.012,0.033,0.004,-0.027,0.023,-0.02,-0.062,-0.073,-0.035,-0.016,-0.029
-0.025,0.012,0.037,0.006,-0.031,0.025,-0.01,-0.077,-0.082,-0.034,-0.017,-0.038
-0.044,-0.011,0.033,0.027,-0.038,0.011,-0.003,-0.061,-0.08,-0.055,-0.045,-0.052
-0.059,-0.026,0.032,0.042,-0.045,0.003,0.005,-0.057,-0.081,-0.064,-0.06,-0.063
-0.069,-0.042,0.027,0.055,-0.048,-0.008,0.008,-0.049,-0.074,-0.054,-0.054,-0.065
-0.08,-0.061,0.019,0.07,-0.049,-0.021,0.023,-0.038,-0.067,-0.056,-0.053,-0.067
-0.069,-0.045,0.025,0.057,-0.047,-0.01,0.027,-0.052,-0.073,-0.049,-0.041,-0.061
-0.066,-0.062,0.004,0.064,-0.035,-0.029,0.058,0.044,-0.029,-0.04,-0.043,-0.083
-0.123,-0.016,0.108,0.069,-0.115,0.046,0.203,0.287,0.153,0.054,-0.022,-0.097
-0.033,-0.004,0.029,0.018,-0.031,0.013,0.341,0.813,0.665,0.435,0.23,0.045
0.516,0.23,-0.285,-0.373,0.4,-0.027,-0.022,0.454,0.831,0.97,0.908,0.68
0.865,0.526,-0.339,-0.695,0.602,0.094,-0.656,-0.956,0.21,0.903,1.129,1.144
0.404,0.234,-0.17,-0.319,0.287,0.032,-0.675,-1.654,-0.771,-0.084,0.259,0.569
-0.016,-0.076,-0.06,0.046,0.022,-0.068,-0.514,-1.481,-1.233,-0.745,-0.374,-0.056
-0.059,-0.092,-0.033,0.076,-0.013,-0.062,-0.415,-0.874,-0.742,-0.501,-0.304,-0.119
-0.078,-0.059,0.019,0.068,-0.048,-0.02,-0.129,-0.28,-0.271,-0.207,-0.157,-0.083
-0.04,-0.041,-0.001,0.041,-0.019,-0.021,-0.008,-0.057,-0.098,-0.103,-0.074,-0.064
-0.019,-0.045,-0.026,0.032,0.004,-0.036,0.019,-0.001,-0.045,-0.075,-0.075,-0.059
-0.021,-0.033,-0.012,0.027,-0.004,-0.023,0.041,0.033,-0.041,-0.061,-0.058,-0.05
-0.015,-0.031,-0.017,0.023,0.001,-0.024,0.049,0.057,-0.006,-0.04,-0.046,-0.042
-0.017,-0.025,-0.008,0.021,-0.004,-0.016,0.056,0.071,-0.009,-0.033,-0.04,-0.037
-0.013,-0.019,-0.006,0.017,-0.003,-0.012,0.043,0.081,0.007,-0.021,-0.025,-0.028
-0.002,-0.013,-0.011,0.008,0.005,-0.012,0.045,0.084,0.015,-0.016,-0.019,-0.023
0.017,-0.006,-0.023,-0.006,0.02,-0.014,0.036,0.101,0.03,-0.005,-0.007,-0.015
0.018,0.001,-0.017,-0.009,0.017,-0.007,0.034,0.109,0.044,0.006,-0.003,-0.009
0.02,0.006,-0.014,-0.012,0.017,-0.004,0.03,0.118,0.049,0.013,0.004,-0.004
0.031,0.019,-0.012,-0.025,0.021,0.004,0.03,0.126,0.064,0.031,0.015,0.005
0.023,0.021,-0.002,-0.022,0.012,0.009,0.03,0.14,0.085,0.043,0.025,0.011
0.047,0.029,-0.019,-0.038,0.033,0.005,0.031,0.159,0.095,0.05,0.041,0.027
0.11,0.057,-0.052,-0.083,0.081,0.002,0.017,0.173,0.109,0.067,0.054,0.052
0.101,0.054,-0.047,-0.077,0.073,0.003,-0.017,0.186,0.127,0.074,0.068,0.066
0.067,0.057,-0.01,-0.062,0.039,0.023,-0.028,0.213,0.149,0.095,0.082,0.073
0.122,0.078,-0.044,-0.1,0.083,0.017,-0.036,0.237,0.165,0.109,0.085,0.088
0.173,0.097,-0.077,-0.135,0.124,0.01,-0.047,0.267,0.175,0.125,0.117,0.122
0.184,0.118,-0.066,-0.151,0.125,0.025,-0.057,0.293,0.202,0.148,0.143,0.141
0.198,0.125,-0.072,-0.162,0.135,0.026,-0.062,0.31,0.217,0.155,0.151,0.158
0.208,0.142,-0.066,-0.175,0.137,0.038,-0.056,0.321,0.223,0.157,0.147,0.171
0.203,0.148,-0.055,-0.175,0.128,0.046,-0.056,0.302,0.227,0.146,0.135,0.16
0.174,0.131,-0.043,-0.152,0.108,0.044,-0.052,0.276,0.202,0.131,0.13,0.144
0.134,0.113,-0.021,-0.124,0.077,0.046,-0.034,0.233,0.173,0.114,0.109,0.115
0.065,0.075,0.01,-0.07,0.027,0.042,-0.008,0.182,0.133,0.09,0.073,0.083
0.019,0.059,0.04,-0.039,-0.011,0.049,0.017,0.128,0.073,0.048,0.035,0.047
0.011,0.058,0.047,-0.035,-0.018,0.052,0.031,0.076,0.022,0.011,0.008,0.004
-0.02,0.024,0.044,-0.002,-0.032,0.034,0.035,0.037,-0.009,-0.004,-0.005,-0.019
-0.036,0.009,0.045,0.013,-0.04,0.027,0.035,0.016,-0.024,-0.02,-0.02,-0.027
-0.023,0.016,0.039,0.003,-0.031,0.027,0.037,0.011,-0.035,-0.03,-0.034,-0.035
-0.032,0.01,0.041,0.011,-0.037,0.025,0.041,0.006,-0.045,-0.04,-0.044,-0.045
-0.03,0.006,0.036,0.012,-0.033,0.02,0.04,0.003,-0.05,-0.051,-0.051,-0.053
-0.024,0.001,0.025,0.011,-0.025,0.013,0.037,-0.003,-0.054,-0.059,-0.055,-0.055
-0.043,-0.004,0.039,0.023,-0.041,0.017,0.034,-0.005,-0.058,-0.06,-0.055,-0.055
-0.047,-0.008,0.039,0.028,-0.043,0.015,0.035,-0.005,-0.063,-0.06,-0.055,-0.055
-0.059,-0.013,0.046,0.036,-0.052,0.016,0.035,-0.005,-0.064,-0.06,-0.055,-0.055
-0.068,-0.008,0.06,0.037,-0.064,0.026,0.036,-0.005,-0.059,-0.06,-0.055,-0.055
-0.053,-0.006,0.047,0.029,-0.049,0.021,0.034,-0.005,-0.056,-0.059,-0.055,-0.055
-0.043,-0.001,0.042,0.022,-0.042,0.02,0.03,-0.005,-0.053,-0.055,-0.051,-0.055
-0.028,0.002,0.03,0.012,-0.029,0.016,0.03,-0.009,-0.048,-0.055,-0.05,-0.055
-0.015,0.006,0.021,0.004,-0.019,0.014,0.028,-0.014,-0.045,-0.055,-0.05,-0.055
-0.015,0.027,0.042,-0.007,-0.028,0.034,0.025,-0.017,-0.049,-0.055,-0.05,-0.056
-0.019,0.028,0.046,-0.005,-0.033,0.037,0.025,-0.023,-0.061,-0.055,-0.05,-0.052
-0.026,0.018,0.044,0.004,-0.035,0.031,0.028,-0.026,-0.065,-0.058,-0.051,-0.05
-0.032,0.013,0.046,0.009,-0.039,0.029,0.031,-0.031,-0.068,-0.061,-0.055,-0.05
-0.04,0.005,0.045,0.017,-0.043,0.025,0.03,-0.034,-0.07,-0.059,-0.055,-0.046
-0.044,0.0,0.044,0.021,-0.044,0.022,0.03,-0.039,-0.066,-0.061,-0.055,-0.044
-0.045,-0.005,0.04,0.025,-0.042,0.017,0.03,-0.04,-0.064,-0.059,-0.055,-0.046
-0.049,-0.009,0.04,0.029,-0.045,0.015,0.029,-0.041,-0.061,-0.062,-0.055,-0.049
-0.054,-0.014,0.04,0.034,-0.047,0.013,0.024,-0.044,-0.058,-0.065,-0.059,-0.053
-0.053,-0.013,0.04,0.033,-0.046,0.013,0.019,-0.045,-0.055,-0.065,-0.06,-0.056
-0.05,-0.009,0.04,0.029,-0.045,0.016,0.015,-0.045,-0.056,-0.069,-0.06,-0.059
-0.053,-0.01,0.043,0.032,-0.048,0.016,0.01,-0.044,-0.065,-0.07,-0.064,-0.06
-0.053,-0.006,0.046,0.029,-0.049,0.02,0.006,-0.063,-0.067,-0.073,-0.065,-0.06
-0.053,-0.004,0.049,0.029,-0.05,0.022,0.001,-0.072,-0.063,-0.075,-0.063,-0.06
-0.057,-0.005,0.052,0.031,-0.054,0.023,0.0,-0.069,-0.061,-0.075,-0.06,-0.06
-0.052,0.002,0.054,0.024,-0.053,0.028,-0.001,-0.071,-0.058,-0.075,-0.06,-0.06
-0.049,0.01,0.059,0.02,-0.054,0.034,0.001,-0.07,-0.056,-0.075,-0.061,-0.06
-0.042,0.018,0.06,0.012,-0.052,0.039,-0.005,-0.069,-0.054,-0.074,-0.06,-0.055
-0.034,0.026,0.06,0.004,-0.048,0.042,-0.016,-0.059,-0.045,-0.065,-0.061,-0.047
-0.043,0.033,0.077,0.005,-0.06,0.054,-0.006,-0.043,-0.035,-0.057,-0.055,-0.041
-0.028,0.058,0.086,-0.016,-0.057,0.072,-0.002,-0.035,-0.024,-0.047,-0.045,-0.034
-0.026,0.061,0.087,-0.018,-0.056,0.074,0.008,-0.036,-0.017,-0.048,-0.034,-0.027
-0.029,0.062,0.091,-0.017,-0.06,0.077,0.001,-0.033,-0.011,-0.052,-0.026,-0.027
-0.006,0.077,0.083,-0.035,-0.045,0.08,-0.047,-0.055,-0.012,-0.054,-0.024,-0.03
0.002,0.067,0.065,-0.035,-0.032,0.066,-0.064,-0.073,-0.024,-0.059,-0.025,-0.03
0.008,0.059,0.051,-0.034,-0.021,0.055,-0.056,-0.092,-0.057,-0.059,-0.037,-0.029
0.006,0.05,0.044,-0.029,-0.019,0.047,-0.058,-0.106,-0.08,-0.061,-0.048,-0.031
-0.004,0.041,0.045,-0.019,-0.025,0.042,-0.047,-0.096,-0.08,-0.057,-0.042,-0.029
-0.024,0.022,0.046,0.001,-0.035,0.034,-0.026,-0.097,-0.081,-0.074,-0.059,-0.05
-0.059,-0.009,0.05,0.034,-0.055,0.02,-0.005,-0.081,-0.08,-0.1,-0.082,-0.077
-0.079,-0.02,0.059,0.05,-0.069,0.019,-0.007,-0.091,-0.093,-0.101,-0.078,-0.075
-0.054,-0.014,0.04,0.034,-0.047,0.013,0.005,-0.068,-0.076,-0.101,-0.083,-0.083
-0.061,-0.006,0.055,0.033,-0.057,0.024,0.006,-0.086,-0.088,-0.109,-0.077,-0.082
-0.068,-0.041,0.026,0.054,-0.046,-0.008,0.021,-0.037,-0.054,-0.092,-0.084,-0.09
-0.102,-0.002,0.099,0.052,-0.1,0.048,0.124,0.117,0.047,-0.032,-0.07,-0.096
-0.12,0.036,0.157,0.042,-0.139,0.096,0.306,0.565,0.416,0.198,0.048,-0.065
0.234,0.132,-0.102,-0.183,0.168,0.015,0.227,0.797,0.834,0.721,0.559,0.325
0.805,0.483,-0.322,-0.644,0.564,0.08,-0.444,-0.381,0.518,1.028,1.147,1.021
0.728,0.42,-0.308,-0.574,0.518,0.056,-0.799,-1.588,-0.402,0.325,0.655,0.884
0.127,0.006,-0.121,-0.067,0.124,-0.057,-0.608,-1.72,-1.212,-0.673,-0.274,0.112
-0.066,-0.099,-0.034,0.083,-0.016,-0.066,-0.513,-1.234,-1.031,-0.721,-0.425,-0.15
-0.044,-0.073,-0.029,0.058,-0.007,-0.05,-0.26,-0.513,-0.404,-0.332,-0.233,-0.125
-0.064,-0.034,0.03,0.049,-0.047,-0.002,-0.04,-0.143,-0.148,-0.155,-0.119,-0.104
-0.048,-0.012,0.036,0.03,-0.042,0.012,-0.022,-0.036,-0.04,-0.104,-0.093,-0.065
-0.066,-0.023,0.042,0.045,-0.054,0.009,0.012,0.003,-0.034,-0.092,-0.086,-0.063
-0.061,-0.022,0.039,0.042,-0.05,0.008,0.03,0.023,-0.006,-0.06,-0.06,-0.053
-0.057,-0.017,0.04,0.037,-0.048,0.011,0.043,0.053,0.007,-0.054,-0.056,-0.049
-0.044,-0.003,0.041,0.024,-0.042,0.019,0.049,0.062,0.018,-0.043,-0.045,-0.04
-0.034,0.003,0.037,0.015,-0.036,0.02,0.054,0.069,0.035,-0.032,-0.038,-0.035
-0.019,0.014,0.033,0.002,-0.026,0.023,0.052,0.082,0.04,-0.024,-0.031,-0.028
-0.003,0.024,0.028,-0.011,-0.016,0.026,0.047,0.095,0.063,-0.014,-0.023,-0.019
0.002,0.027,0.024,-0.015,-0.011,0.025,0.046,0.102,0.068,-0.007,-0.012,-0.012
0.003,0.022,0.019,-0.013,-0.009,0.02,0.041,0.113,0.08,0.001,-0.003,-0.004
0.019,0.033,0.015,-0.026,0.002,0.024,0.041,0.135,0.095,0.009,0.009,0.003
0.046,0.054,0.008,-0.05,0.018,0.031,0.037,0.156,0.115,0.019,0.027,0.012
0.053,0.058,0.004,-0.056,0.024,0.031,0.029,0.171,0.131,0.036,0.036,0.02
0.061,0.058,-0.003,-0.06,0.032,0.028,0.021,0.184,0.139,0.051,0.036,0.03
0.073,0.066,-0.007,-0.069,0.04,0.029,0.012,0.214,0.165,0.068,0.049,0.045
0.107,0.093,-0.014,-0.1,0.06,0.039,0.007,0.253,0.189,0.096,0.073,0.069
0.136,0.11,-0.026,-0.122,0.081,0.041,-0.002,0.273,0.21,0.104,0.086,0.089
0.148,0.122,-0.026,-0.135,0.087,0.048,-0.01,0.306,0.232,0.121,0.106,0.108
0.156,0.136,-0.02,-0.146,0.087,0.058,-0.019,0.335,0.241,0.134,0.121,0.131
0.163,0.146,-0.017,-0.154,0.09,0.064,-0.036,0.35,0.254,0.141,0.129,0.14
0.168,0.157,-0.011,-0.162,0.089,0.073,-0.033,0.344,0.255,0.15,0.134,0.144
0.163,0.155,-0.008,-0.159,0.085,0.073,-0.026,0.327,0.249,0.143,0.119,0.137
0.149,0.145,-0.004,-0.146,0.076,0.07,-0.015,0.281,0.223,0.128,0.104,0.115
0.109,0.121,0.012,-0.116,0.049,0.066,-0.003,0.206,0.169,0.09,0.081,0.068
0.051,0.085,0.033,-0.068,0.009,0.059,0.015,0.149,0.115,0.05,0.048,0.031
-0.003,0.052,0.055,-0.025,-0.029,0.053,0.034,0.094,0.068,0.014,0.009,0.011
-0.031,0.032,0.063,-0.001,-0.047,0.047,0.036,0.052,0.036,-0.024,-0.019,-0.025
-0.034,0.024,0.058,0.005,-0.046,0.04,0.052,0.028,0.013,-0.042,-0.029,-0.041
-0.036,0.021,0.057,0.007,-0.046,0.038,0.057,0.007,0.006,-0.046,-0.044,-0.043
-0.037,0.018,0.054,0.009,-0.046,0.036,0.053,-0.013,-0.001,-0.054,-0.049,-0.048
-0.039,0.013,0.053,0.013,-0.046,0.033,0.056,-0.018,-0.008,-0.054,-0.051,-0.05
-0.057,0.009,0.066,0.023,-0.061,0.038,0.054,-0.012,-0.014,-0.056,-0.056,-0.051
-0.051,0.015,0.066,0.018,-0.059,0.04,0.057,-0.009,-0.032,-0.06,-0.054,-0.054
-0.037,0.023,0.06,0.007,-0.049,0.041,0.06,-0.006,-0.037,-0.062,-0.056,-0.059
-0.021,0.03,0.051,-0.004,-0.036,0.04,0.06,-0.001,-0.034,-0.07,-0.061,-0.06
-0.029,0.034,0.062,-0.003,-0.046,0.047,0.057,-0.001,-0.036,-0.071,-0.06,-0.06
-0.057,0.03,0.087,0.014,-0.072,0.058,0.052,-0.014,-0.034,-0.07,-0.06,-0.06
-0.029,0.03,0.059,-0.001,-0.044,0.045,0.049,-0.022,-0.036,-0.067,-0.06,-0.06
-0.02,0.028,0.048,-0.004,-0.034,0.037,0.046,-0.024,-0.032,-0.064,-0.06,-0.06
-0.047,0.024,0.072,0.011,-0.06,0.048,0.041,-0.028,-0.03,-0.065,-0.06,-0.059
-0.047,0.025,0.072,0.01,-0.06,0.048,0.041,-0.032,-0.03,-0.06,-0.055,-0.056
-0.039,0.025,0.063,0.007,-0.052,0.044,0.047,-0.035,-0.03,-0.06,-0.055,-0.053
-0.036,0.025,0.061,0.005,-0.049,0.043,0.05,-0.039,-0.03,-0.06,-0.054,-0.051
-0.027,0.025,0.052,0.001,-0.04,0.038,0.05,-0.046,-0.031,-0.059,-0.049,-0.047
-0.026,0.025,0.051,0.0,-0.039,0.037,0.05,-0.051,-0.038,-0.061,-0.051,-0.045
-0.046,0.025,0.071,0.01,-0.059,0.048,0.05,-0.048,-0.041,-0.058,-0.046,-0.044
-0.05,0.024,0.074,0.013,-0.062,0.049,0.05,-0.055,-0.046,-0.068,-0.051,-0.049
-0.045,0.02,0.064,0.012,-0.055,0.042,0.047,-0.066,-0.052,-0.081,-0.061,-0.056
-0.044,0.021,0.064,0.011,-0.054,0.042,0.042,-0.065,-0.048,-0.08,-0.06,-0.055
-0.039,0.017,0.056,0.011,-0.048,0.037,0.04,-0.065,-0.053,-0.079,-0.06,-0.057
-0.039,0.014,0.053,0.012,-0.047,0.034,0.035,-0.065,-0.064,-0.075,-0.06,-0.06
-0.051,0.016,0.067,0.018,-0.06,0.041,0.032,-0.065,-0.066,-0.075,-0.06,-0.06
-0.06,0.011,0.071,0.025,-0.066,0.041,0.028,-0.063,-0.064,-0.072,-0.057,-0.056
-0.054,0.01,0.064,0.021,-0.059,0.037,0.035,-0.06,-0.061,-0.07,-0.054,-0.055
-0.056,0.009,0.065,0.023,-0.06,0.036,0.046,-0.057,-0.06,-0.07,-0.055,-0.054
-0.053,0.006,0.059,0.023,-0.056,0.032,0.043,-0.054,-0.059,-0.067,-0.055,-0.051
-0.057,0.003,0.06,0.027,-0.059,0.031,0.04,-0.05,-0.055,-0.064,-0.055,-0.049
-0.06,0.012,0.072,0.024,-0.067,0.042,0.037,-0.051,-0.053,-0.067,-0.057,-0.053
-0.051,0.026,0.077,0.012,-0.064,0.051,0.035,-0.061,-0.05,-0.075,-0.059,-0.061
-0.049,0.024,0.073,0.012,-0.062,0.049,0.032,-0.06,-0.047,-0.076,-0.054,-0.056
-0.046,0.026,0.072,0.01,-0.059,0.048,0.03,-0.056,-0.045,-0.074,-0.049,-0.051
-0.046,0.023,0.069,0.011,-0.058,0.046,0.026,-0.053,-0.042,-0.07,-0.045,-0.048
-0.034,0.035,0.069,-0.001,-0.052,0.052,0.027,-0.049,-0.034,-0.071,-0.04,-0.042
-0.028,0.057,0.085,-0.014,-0.057,0.071,0.048,-0.05,-0.03,-0.057,-0.035,-0.039
-0.03,0.063,0.093,-0.017,-0.061,0.078,0.051,-0.049,-0.023,-0.046,-0.035,-0.033
-0.011,0.077,0.088,-0.033,-0.05,0.082,0.05,-0.051,-0.02,-0.051,-0.035,-0.027
-0.003,0.092,0.094,-0.045,-0.049,0.093,0.048,-0.047,-0.02,-0.049,-0.035,-0.023
-0.003,0.095,0.098,-0.046,-0.05,0.096,0.007,-0.06,-0.019,-0.05,-0.035,-0.016
0.008,0.087,0.079,-0.048,-0.036,0.083,-0.027,-0.085,-0.037,-0.05,-0.035,-0.011
0.01,0.084,0.075,-0.047,-0.033,0.079,-0.031,-0.1,-0.054,-0.051,-0.035,-0.014
0.004,0.08,0.076,-0.043,-0.036,0.077,-0.028,-0.096,-0.06,-0.054,-0.041,-0.025
-0.003,0.068,0.071,-0.032,-0.037,0.069,-0.006,-0.093,-0.066,-0.06,-0.044,-0.032
-0.025,0.047,0.072,-0.011,-0.049,0.059,0.014,-0.099,-0.072,-0.082,-0.051,-0.042
-0.055,0.011,0.066,0.022,-0.06,0.038,0.034,-0.083,-0.077,-0.096,-0.071,-0.06
-0.054,0.018,0.073,0.018,-0.064,0.045,0.043,-0.1,-0.086,-0.095,-0.067,-0.058
-0.038,0.018,0.056,0.009,-0.047,0.037,0.047,-0.076,-0.072,-0.095,-0.074,-0.063
-0.05,0.025,0.075,0.012,-0.063,0.049,0.044,-0.097,-0.089,-0.095,-0.07,-0.064
-0.041,0.015,0.057,0.013,-0.049,0.035,0.045,-0.051,-0.066,-0.088,-0.08,-0.08
-0.099,0.024,0.122,0.037,-0.111,0.073,0.137,0.101,0.033,-0.03,-0.066,-0.089
-0.146,0.054,0.2,0.045,-0.173,0.127,0.322,0.572,0.408,0.204,0.06,-0.055
0.233,0.148,-0.085,-0.19,0.159,0.031,0.245,0.828,0.823,0.704,0.541,0.32
0.84,0.474,-0.366,-0.656,0.603,0.054,-0.427,-0.433,0.489,0.96,1.07,0.982
0.786,0.425,-0.361,-0.605,0.573,0.032,-0.785,-1.7,-0.456,0.242,0.577,0.837
0.194,0.02,-0.174,-0.107,0.184,-0.077,-0.595,-1.81,-1.244,-0.689,-0.289,0.1
-0.068,-0.104,-0.036,0.086,-0.016,-0.069,-0.49,-1.289,-1.039,-0.71,-0.42,-0.152
-0.078,-0.046,0.032,0.062,-0.054,-0.007,-0.22,-0.522,-0.4,-0.324,-0.228,-0.114
-0.069,0.01,0.079,0.029,-0.074,0.044,0.0,-0.146,-0.144,-0.143,-0.109,-0.086
-0.043,0.016,0.06,0.013,-0.052,0.038,0.03,-0.047,-0.049,-0.084,-0.087,-0.057
-0.05,0.013,0.063,0.019,-0.057,0.038,0.059,-0.01,-0.043,-0.071,-0.08,-0.055
-0.05,0.005,0.055,0.022,-0.053,0.03,0.057,0.009,-0.016,-0.062,-0.065,-0.055
-0.035,0.016,0.051,0.009,-0.043,0.033,0.068,0.03,0.001,-0.059,-0.06,-0.055
-0.014,0.034,0.048,-0.01,-0.031,0.041,0.064,0.037,0.01,-0.051,-0.046,-0.055
-0.016,0.028,0.043,-0.007,-0.029,0.035,0.065,0.052,0.02,-0.039,-0.039,-0.055
-0.012,0.031,0.043,-0.01,-0.027,0.037,0.066,0.07,0.031,-0.028,-0.033,-0.045
-0.008,0.029,0.038,-0.01,-0.023,0.034,0.064,0.084,0.055,-0.017,-0.03,-0.029
-0.006,0.03,0.037,-0.013,-0.022,0.033,0.063,0.094,0.056,-0.011,-0.027,-0.018
0.018,0.052,0.034,-0.036,-0.008,0.043,0.055,0.114,0.065,-0.001,-0.021,-0.008
0.033,0.062,0.029,-0.048,0.002,0.045,0.052,0.123,0.073,0.005,-0.021,-0.003
0.042,0.062,0.02,-0.053,0.01,0.041,0.047,0.143,0.09,0.014,-0.008,0.004
0.053,0.067,0.014,-0.06,0.019,0.04,0.043,0.169,0.101,0.028,0.012,0.016
0.064,0.07,0.006,-0.067,0.028,0.038,0.038,0.192,0.125,0.042,0.022,0.03
0.089,0.086,-0.002,-0.087,0.045,0.042,0.028,0.22,0.154,0.056,0.041,0.043
0.092,0.091,0.0,-0.091,0.045,0.045,0.016,0.249,0.167,0.067,0.052,0.049
0.104,0.111,0.007,-0.108,0.048,0.058,0.005,0.28,0.19,0.09,0.068,0.071
0.143,0.138,-0.005,-0.14,0.074,0.066,-0.005,0.315,0.212,0.109,0.091,0.095
0.171,0.153,-0.018,-0.162,0.094,0.067,-0.012,0.335,0.23,0.118,0.103,0.107
0.188,0.179,-0.009,-0.183,0.098,0.085,-0.02,0.352,0.242,0.123,0.116,0.122
0.179,0.183,0.004,-0.181,0.087,0.093,-0.024,0.362,0.233,0.117,0.114,0.12
0.149,0.174,0.026,-0.162,0.061,0.1,-0.013,0.333,0.22,0.11,0.101,0.112
0.125,0.172,0.047,-0.148,0.038,0.109,-0.001,0.28,0.204,0.106,0.094,0.102
0.094,0.145,0.051,-0.12,0.022,0.098,0.012,0.216,0.169,0.081,0.076,0.066
0.038,0.108,0.071,-0.073,-0.017,0.089,0.027,0.144,0.111,0.04,0.031,0.027
0.007,0.089,0.082,-0.048,-0.038,0.085,0.039,0.083,0.055,0.014,-0.003,-0.002
-0.005,0.075,0.079,-0.035,-0.042,0.077,0.04,0.039,0.02,-0.014,-0.024,-0.031
-0.028,0.057,0.085,-0.015,-0.056,0.071,0.039,0.007,-0.004,-0.036,-0.045,-0.049
-0.047,0.039,0.086,0.004,-0.067,0.062,0.056,-0.009,-0.02,-0.051,-0.05,-0.055
-0.059,0.03,0.09,0.015,-0.075,0.06,0.06,-0.024,-0.034,-0.063,-0.067,-0.067
-0.068,0.024,0.093,0.022,-0.081,0.058,0.054,-0.033,-0.044,-0.067,-0.082,-0.07
-0.078,0.017,0.095,0.03,-0.087,0.056,0.052,-0.035,-0.045,-0.079,-0.079,-0.071
-0.084,0.011,0.095,0.036,-0.09,0.053,0.047,-0.035,-0.048,-0.081,-0.08,-0.075
-0.09,0.004,0.095,0.043,-0.093,0.049,0.044,-0.035,-0.05,-0.079,-0.08,-0.075
-0.078,0.018,0.095,0.029,-0.087,0.056,0.04,-0.035,-0.051,-0.08,-0.08,-0.075
-0.066,0.028,0.095,0.019,-0.081,0.061,0.035,-0.035,-0.055,-0.08,-0.077,-0.075
-0.071,0.024,0.095,0.023,-0.084,0.06,0.03,-0.036,-0.055,-0.079,-0.074,-0.075
-0.072,0.022,0.094,0.025,-0.083,0.058,0.027,-0.04,-0.055,-0.075,-0.076,-0.075
-0.072,0.019,0.091,0.026,-0.081,0.055,0.02,-0.04,-0.055,-0.073,-0.075,-0.075
-0.071,0.016,0.086,0.027,-0.079,0.051,0.026,-0.043,-0.055,-0.07,-0.076,-0.073
-0.069,0.014,0.083,0.027,-0.077,0.049,0.036,-0.046,-0.051,-0.067,-0.074,-0.069
-0.055,0.025,0.08,0.015,-0.068,0.053,0.035,-0.045,-0.05,-0.065,-0.07,-0.07
-0.041,0.033,0.074,0.004,-0.058,0.053,0.04,-0.049,-0.05,-0.065,-0.066,-0.066
-0.052,0.029,0.081,0.011,-0.067,0.055,0.04,-0.056,-0.046,-0.065,-0.063,-0.065
-0.058,0.027,0.085,0.015,-0.072,0.056,0.04,-0.061,-0.044,-0.065,-0.058,-0.065
-0.055,0.024,0.078,0.015,-0.067,0.051,0.04,-0.065,-0.047,-0.065,-0.055,-0.065
-0.053,0.021,0.074,0.016,-0.063,0.047,0.04,-0.065,-0.05,-0.065,-0.059,-0.065
-0.049,0.019,0.068,0.015,-0.058,0.043,0.039,-0.065,-0.05,-0.066,-0.06,-0.065
-0.046,0.016,0.062,0.015,-0.054,0.038,0.035,-0.065,-0.053,-0.07,-0.062,-0.065
-0.052,0.011,0.063,0.021,-0.058,0.037,0.035,-0.065,-0.061,-0.072,-0.065,-0.064
-0.075,0.009,0.084,0.033,-0.08,0.046,0.032,-0.069,-0.065,-0.075,-0.066,-0.068
-0.086,0.004,0.09,0.041,-0.089,0.047,0.03,-0.07,-0.065,-0.079,-0.07,-0.07
-0.083,0.001,0.084,0.041,-0.083,0.042,0.03,-0.071,-0.065,-0.08,-0.07,-0.07
-0.081,0.001,0.082,0.04,-0.082,0.041,0.034,-0.075,-0.065,-0.084,-0.072,-0.07
-0.07,0.007,0.077,0.031,-0.074,0.042,0.035,-0.075,-0.065,-0.085,-0.076,-0.07
-0.051,0.023,0.074,0.013,-0.063,0.048,0.036,-0.075,-0.065,-0.085,-0.075,-0.069
-0.048,0.023,0.071,0.013,-0.06,0.047,0.04,-0.075,-0.065,-0.089,-0.072,-0.065
-0.05,0.016,0.066,0.017,-0.058,0.041,0.039,-0.075,-0.065,-0.091,-0.069,-0.065
-0.053,0.011,0.064,0.02,-0.059,0.038,0.042,-0.071,-0.065,-0.088,-0.07,-0.065
-0.055,0.004,0.059,0.025,-0.057,0.031,0.046,-0.07,-0.065,-0.085,-0.07,-0.065
-0.054,0.001,0.055,0.026,-0.055,0.028,0.044,-0.07,-0.065,-0.085,-0.07,-0.065
-0.053,0.006,0.059,0.023,-0.057,0.033,0.049,-0.065,-0.064,-0.083,-0.069,-0.063
-0.045,0.019,0.064,0.013,-0.055,0.041,0.05,-0.065,-0.06,-0.08,-0.064,-0.057
-0.056,0.025,0.081,0.015,-0.069,0.053,0.05,-0.064,-0.06,-0.081,-0.06,-0.053
-0.054,0.033,0.088,0.01,-0.071,0.06,0.051,-0.057,-0.055,-0.074,-0.055,-0.049
-0.057,0.026,0.083,0.015,-0.07,0.054,0.048,-0.051,-0.054,-0.06,-0.05,-0.044
-0.041,0.046,0.087,-0.003,-0.064,0.066,0.046,-0.052,-0.058,-0.052,-0.046,-0.039
-0.011,0.072,0.083,-0.031,-0.047,0.077,0.042,-0.057,-0.06,-0.055,-0.034,-0.035
-0.019,0.069,0.088,-0.025,-0.054,0.078,0.041,-0.053,-0.059,-0.055,-0.027,-0.036
-0.009,0.086,0.096,-0.039,-0.053,0.091,0.023,-0.058,-0.061,-0.057,-0.023,-0.033
-0.013,0.067,0.08,-0.027,-0.047,0.073,-0.022,-0.075,-0.059,-0.061,-0.034,-0.03
-0.022,0.058,0.079,-0.018,-0.051,0.068,-0.029,-0.098,-0.061,-0.059,-0.04,-0.029
-0.024,0.056,0.081,-0.016,-0.053,0.068,-0.016,-0.1,-0.066,-0.061,-0.04,-0.033
-0.047,0.037,0.084,0.005,-0.065,0.06,-0.001,-0.092,-0.068,-0.058,-0.048,-0.042
-0.053,0.034,0.087,0.009,-0.071,0.06,0.026,-0.097,-0.076,-0.062,-0.062,-0.056
-0.067,0.009,0.076,0.029,-0.072,0.042,0.037,-0.079,-0.083,-0.084,-0.086,-0.076
-0.072,-0.003,0.069,0.037,-0.071,0.033,0.05,-0.096,-0.091,-0.093,-0.081,-0.079
-0.078,-0.029,0.049,0.054,-0.063,0.009,0.07,-0.066,-0.068,-0.088,-0.078,-0.09
-0.087,-0.033,0.054,0.059,-0.07,0.01,0.064,-0.093,-0.076,-0.091,-0.069,-0.095
-0.051,-0.03,0.021,0.04,-0.036,-0.004,0.06,-0.048,-0.054,-0.09,-0.066,-0.095
-0.11,-0.009,0.101,0.06,-0.105,0.045,0.125,0.101,0.037,-0.03,-0.059,-0.104
-0.162,0.02,0.182,0.071,-0.172,0.101,0.302,0.558,0.404,0.203,0.049,-0.081
0.219,0.109,-0.11,-0.164,0.164,0.0,0.248,0.853,0.843,0.706,0.525,0.306
0.839,0.445,-0.395,-0.642,0.617,0.025,-0.423,-0.37,0.533,0.972,1.061,0.967
0.771,0.427,-0.344,-0.598,0.557,0.041,-0.788,-1.641,-0.39,0.287,0.6,0.837
0.173,0.022,-0.151,-0.097,0.162,-0.064,-0.596,-1.768,-1.182,-0.643,-0.265,0.109
-0.06,-0.113,-0.053,0.087,-0.004,-0.083,-0.513,-1.286,-1.036,-0.704,-0.425,-0.164
-0.072,-0.077,-0.005,0.075,-0.033,-0.041,-0.261,-0.553,-0.426,-0.336,-0.253,-0.13
-0.098,-0.038,0.06,0.067,-0.079,0.011,-0.031,-0.162,-0.165,-0.149,-0.124,-0.108
-0.076,-0.011,0.065,0.043,-0.07,0.027,-0.001,-0.05,-0.068,-0.09,-0.092,-0.093
-0.078,-0.022,0.056,0.05,-0.066,0.017,0.037,-0.018,-0.053,-0.081,-0.094,-0.087
-0.094,-0.031,0.063,0.063,-0.078,0.015,0.038,0.007,-0.017,-0.058,-0.077,-0.074
-0.092,-0.025,0.067,0.059,-0.079,0.021,0.056,0.035,-0.004,-0.051,-0.077,-0.068
-0.081,-0.023,0.058,0.052,-0.069,0.017,0.059,0.062,0.0,-0.044,-0.065,-0.06
-0.065,-0.018,0.046,0.041,-0.055,0.014,0.051,0.066,0.012,-0.034,-0.06,-0.054
-0.061,-0.015,0.046,0.038,-0.053,0.016,0.05,0.066,0.018,-0.027,-0.051,-0.047
-0.054,-0.011,0.043,0.032,-0.048,0.016,0.042,0.079,0.035,-0.017,-0.043,-0.041
-0.049,-0.002,0.047,0.025,-0.048,0.022,0.041,0.079,0.046,-0.009,-0.033,-0.035
-0.034,0.007,0.041,0.013,-0.038,0.024,0.033,0.106,0.06,-0.004,-0.022,-0.025
-0.009,0.025,0.034,-0.008,-0.022,0.029,0.026,0.113,0.064,-0.001,-0.013,-0.015
-0.002,0.025,0.027,-0.012,-0.015,0.026,0.019,0.139,0.091,0.011,-0.002,-0.005
0.031,0.024,-0.008,-0.027,0.019,0.008,0.01,0.167,0.108,0.032,0.007,0.008
0.048,0.041,-0.007,-0.045,0.027,0.017,0.005,0.181,0.124,0.061,0.029,0.019
0.072,0.055,-0.017,-0.063,0.044,0.019,-0.003,0.209,0.148,0.071,0.049,0.032
0.098,0.08,-0.018,-0.089,0.057,0.031,-0.011,0.233,0.169,0.083,0.056,0.049
0.115,0.094,-0.021,-0.104,0.068,0.036,-0.024,0.265,0.183,0.091,0.064,0.061
0.152,0.093,-0.059,-0.122,0.105,0.017,-0.047,0.291,0.197,0.111,0.086,0.08
0.167,0.117,-0.049,-0.142,0.108,0.034,-0.05,0.316,0.221,0.138,0.104,0.104
0.18,0.13,-0.049,-0.155,0.114,0.04,-0.044,0.334,0.235,0.132,0.115,0.122
0.178,0.126,-0.052,-0.152,0.115,0.036,-0.043,0.329,0.238,0.135,0.122,0.127
0.157,0.12,-0.037,-0.139,0.097,0.041,-0.037,0.311,0.229,0.138,0.119,0.124
0.127,0.118,-0.009,-0.122,0.068,0.054,-0.037,0.285,0.213,0.118,0.104,0.108
0.073,0.105,0.032,-0.09,0.021,0.068,-0.022,0.228,0.172,0.099,0.07,0.07
0.018,0.065,0.047,-0.042,-0.014,0.056,0.006,0.146,0.116,0.066,0.031,0.023
-0.014,0.031,0.044,-0.009,-0.029,0.037,0.028,0.077,0.075,0.025,-0.005,-0.015
-0.033,0.008,0.04,0.013,-0.037,0.024,0.044,0.035,0.034,-0.006,-0.026,-0.036
-0.049,-0.01,0.039,0.03,-0.044,0.014,0.045,0.017,0.003,-0.025,-0.033,-0.048
-0.06,-0.026,0.034,0.042,-0.047,0.004,0.045,0.011,-0.006,-0.034,-0.044,-0.061
-0.073,-0.036,0.037,0.054,-0.055,0.001,0.049,0.006,-0.014,-0.043,-0.051,-0.07
-0.083,-0.035,0.049,0.059,-0.066,0.007,0.051,0.004,-0.022,-0.048,-0.061,-0.073
-0.081,-0.035,0.046,0.058,-0.063,0.005,0.049,-0.001,-0.029,-0.053,-0.066,-0.076
-0.074,-0.035,0.039,0.054,-0.056,0.002,0.043,-0.004,-0.038,-0.062,-0.064,-0.075
-0.071,-0.035,0.036,0.053,-0.053,0.0,0.035,-0.007,-0.045,-0.06,-0.062,-0.075
-0.059,-0.033,0.026,0.046,-0.042,-0.003,0.03,-0.011,-0.045,-0.053,-0.059,-0.075
-0.059,-0.029,0.029,0.044,-0.044,0.0,0.022,-0.013,-0.046,-0.05,-0.06,-0.075
-0.076,-0.027,0.049,0.051,-0.062,0.01,0.016,-0.016,-0.05,-0.045,-0.055,-0.074
-0.075,-0.024,0.051,0.05,-0.063,0.013,0.03,-0.019,-0.05,-0.04,-0.055,-0.071
-0.07,-0.021,0.049,0.045,-0.059,0.014,0.033,-0.021,-0.048,-0.059,-0.055,-0.068
-0.066,-0.02,0.046,0.042,-0.056,0.013,0.025,-0.025,-0.045,-0.063,-0.055,-0.065
-0.065,-0.02,0.044,0.042,-0.054,0.011,0.022,-0.025,-0.042,-0.053,-0.055,-0.063
-0.065,-0.019,0.046,0.042,-0.055,0.013,0.014,-0.026,-0.039,-0.049,-0.055,-0.059
-0.067,-0.023,0.044,0.044,-0.056,0.011,0.01,-0.03,-0.036,-0.04,-0.055,-0.063
-0.077,-0.031,0.045,0.053,-0.061,0.007,0.005,-0.03,-0.035,-0.036,-0.055,-0.065
-0.078,-0.037,0.041,0.058,-0.06,0.002,0.005,-0.033,-0.039,-0.035,-0.055,-0.065
-0.082,-0.045,0.038,0.063,-0.06,-0.003,0.004,-0.035,-0.042,-0.036,-0.055,-0.069
-0.083,-0.049,0.034,0.066,-0.058,-0.007,0.0,-0.038,-0.046,-0.034,-0.055,-0.071
-0.077,-0.046,0.031,0.061,-0.053,-0.007,0.0,-0.041,-0.05,-0.041,-0.06,-0.069
-0.07,-0.045,0.026,0.057,-0.048,-0.009,0.002,-0.044,-0.048,-0.051,-0.06,-0.066
-0.071,-0.045,0.025,0.058,-0.048,-0.01,0.006,-0.045,-0.044,-0.049,-0.06,-0.065
-0.084,-0.045,0.04,0.064,-0.061,-0.002,0.005,-0.04,-0.045,-0.053,-0.06,-0.065
-0.085,-0.046,0.04,0.065,-0.062,-0.003,0.005,-0.04,-0.045,-0.055,-0.06,-0.065
-0.078,-0.042,0.036,0.06,-0.056,-0.003,0.004,-0.04,-0.045,-0.054,-0.058,-0.065
-0.073,-0.04,0.034,0.056,-0.053,-0.003,0.0,-0.04,-0.045,-0.059,-0.054,-0.067
-0.07,-0.04,0.03,0.055,-0.05,-0.005,0.0,-0.04,-0.04,-0.06,-0.055,-0.07
-0.069,-0.04,0.029,0.054,-0.049,-0.005,0.0,-0.038,-0.04,-0.06,-0.051,-0.07
-0.062,-0.04,0.022,0.051,-0.042,-0.008,0.0,-0.035,-0.04,-0.06,-0.05,-0.07
-0.056,-0.04,0.016,0.048,-0.036,-0.012,0.0,-0.032,-0.04,-0.06,-0.05,-0.07
-0.053,-0.044,0.009,0.048,-0.03,-0.017,0.002,-0.029,-0.041,-0.061,-0.046,-0.069
-0.05,-0.046,0.003,0.048,-0.026,-0.021,0.009,-0.026,-0.038,-0.06,-0.044,-0.066
-0.045,-0.051,-0.006,0.049,-0.02,-0.028,0.016,-0.024,-0.031,-0.062,-0.041,-0.063
-0.053,-0.044,0.009,0.049,-0.031,-0.017,0.022,-0.02,-0.025,-0.048,-0.037,-0.059
-0.061,-0.022,0.039,0.041,-0.05,0.009,0.03,-0.014,-0.019,-0.025,-0.035,-0.056
-0.047,-0.009,0.039,0.028,-0.043,0.015,0.022,-0.013,-0.015,-0.024,-0.035,-0.052
-0.034,-0.003,0.031,0.018,-0.033,0.014,0.013,-0.004,-0.015,-0.028,-0.035,-0.048
-0.026,0.003,0.028,0.011,-0.027,0.016,-0.004,-0.012,-0.014,-0.03,-0.035,-0.042
-0.011,0.009,0.021,0.001,-0.016,0.015,-0.046,-0.05,-0.022,-0.034,-0.035,-0.039
-0.002,0.015,0.017,-0.006,-0.01,0.015,-0.054,-0.067,-0.054,-0.035,-0.035,-0.034
-0.004,0.007,0.01,-0.002,-0.007,0.008,-0.044,-0.068,-0.073,-0.038,-0.034,-0.029
-0.009,-0.008,0.002,0.008,-0.005,-0.003,-0.035,-0.061,-0.067,-0.042,-0.042,-0.041
-0.046,-0.02,0.026,0.033,-0.035,0.003,-0.027,-0.069,-0.08,-0.047,-0.046,-0.056
-0.085,-0.061,0.024,0.073,-0.054,-0.019,-0.021,-0.055,-0.069,-0.054,-0.061,-0.069
-0.096,-0.072,0.024,0.084,-0.06,-0.024,-0.013,-0.064,-0.082,-0.064,-0.069,-0.076
-0.087,-0.067,0.019,0.077,-0.053,-0.024,-0.01,-0.056,-0.086,-0.059,-0.071,-0.085
-0.094,-0.08,0.015,0.087,-0.054,-0.032,0.004,-0.048,-0.09,-0.06,-0.07,-0.095
-0.108,-0.087,0.021,0.097,-0.065,-0.032,-0.002,-0.055,-0.082,-0.062,-0.069,-0.105
-0.092,-0.098,-0.007,0.095,-0.043,-0.052,0.052,0.056,-0.007,-0.034,-0.073,-0.11
-0.148,-0.066,0.082,0.107,-0.115,0.008,0.209,0.347,0.216,0.1,-0.018,-0.105
0.005,-0.028,-0.033,0.011,0.019,-0.031,0.31,0.847,0.735,0.522,0.295,0.077
0.59,0.284,-0.306,-0.437,0.448,-0.011,-0.141,0.28,0.79,1.054,1.025,0.788
0.806,0.515,-0.291,-0.661,0.548,0.112,-0.728,-1.117,0.081,0.853,1.109,1.155
0.305,0.162,-0.144,-0.233,0.224,0.009,-0.664,-1.651,-0.891,-0.22,0.131,0.446
-0.08,-0.141,-0.061,0.11,-0.009,-0.1,-0.526,-1.416,-1.222,-0.771,-0.426,-0.126
-0.099,-0.153,-0.054,0.126,-0.022,-0.103,-0.394,-0.764,-0.655,-0.465,-0.305,-0.134
-0.061,-0.104,-0.044,0.083,-0.008,-0.074,-0.115,-0.228,-0.225,-0.188,-0.153,-0.11
-0.033,-0.077,-0.044,0.055,0.006,-0.06,-0.019,-0.046,-0.08,-0.081,-0.077,-0.09
-0.035,-0.082,-0.047,0.059,0.006,-0.064,0.003,0.023,-0.036,-0.054,-0.064,-0.079
-0.036,-0.079,-0.043,0.058,0.003,-0.06,0.016,0.043,-0.012,-0.045,-0.052,-0.069
-0.033,-0.08,-0.047,0.057,0.007,-0.063,0.02,0.068,0.018,-0.039,-0.048,-0.062
-0.035,-0.074,-0.04,0.054,0.003,-0.057,0.021,0.081,0.011,-0.037,-0.041,-0.057
-0.034,-0.075,-0.041,0.055,0.004,-0.058,0.019,0.092,0.028,-0.024,-0.034,-0.048
-0.034,-0.073,-0.039,0.054,0.003,-0.056,0.021,0.101,0.028,-0.02,-0.029,-0.044
-0.029,-0.065,-0.036,0.048,0.004,-0.051,0.019,0.114,0.039,-0.007,-0.02,-0.036
-0.025,-0.06,-0.034,0.043,0.005,-0.047,0.019,0.121,0.055,0.001,-0.012,-0.029
-0.018,-0.052,-0.034,0.035,0.008,-0.043,0.014,0.135,0.072,0.015,-0.003,-0.019
0.0,-0.046,-0.046,0.023,0.023,-0.046,0.012,0.144,0.08,0.036,0.006,-0.012
0.018,-0.034,-0.052,0.008,0.035,-0.043,0.008,0.15,0.091,0.054,0.014,0.001
0.023,-0.019,-0.043,-0.002,0.033,-0.031,0.006,0.168,0.104,0.065,0.029,0.015
0.042,-0.008,-0.051,-0.017,0.047,-0.029,0.0,0.182,0.119,0.074,0.053,0.028
0.075,0.002,-0.072,-0.038,0.074,-0.035,-0.009,0.202,0.137,0.09,0.061,0.046
0.084,0.007,-0.077,-0.045,0.08,-0.034,-0.022,0.229,0.151,0.106,0.076,0.063
0.097,0.024,-0.073,-0.06,0.085,-0.024,-0.046,0.255,0.166,0.118,0.093,0.081
0.115,0.039,-0.076,-0.077,0.095,-0.018,-0.053,0.277,0.187,0.132,0.106,0.1
0.143,0.063,-0.079,-0.103,0.111,-0.008,-0.054,0.302,0.207,0.153,0.133,0.124
0.167,0.102,-0.065,-0.134,0.116,0.018,-0.061,0.326,0.225,0.165,0.145,0.143
0.15,0.101,-0.049,-0.125,0.099,0.026,-0.059,0.322,0.226,0.156,0.138,0.14
0.141,0.091,-0.05,-0.116,0.095,0.02,-0.061,0.316,0.222,0.144,0.127,0.135
0.117,0.087,-0.03,-0.102,0.073,0.028,-0.049,0.299,0.212,0.133,0.118,0.127
0.073,0.063,-0.01,-0.068,0.041,0.027,-0.022,0.249,0.177,0.119,0.103,0.089
0.035,0.029,-0.006,-0.032,0.02,0.011,-0.007,0.192,0.128,0.097,0.071,0.045
-0.019,0.002,0.021,0.008,-0.02,0.011,0.005,0.138,0.079,0.072,0.042,0.014
-0.059,-0.027,0.032,0.043,-0.045,0.003,0.016,0.096,0.044,0.044,0.021,-0.016
-0.076,-0.048,0.028,0.062,-0.052,-0.01,0.029,0.064,0.005,0.005,-0.007,-0.037
-0.089,-0.056,0.033,0.072,-0.061,-0.011,0.038,0.047,-0.019,-0.024,-0.032,-0.051
-0.105,-0.07,0.035,0.087,-0.07,-0.017,0.035,0.041,-0.026,-0.03,-0.041,-0.059
-0.106,-0.071,0.035,0.088,-0.071,-0.017,0.03,0.032,-0.031,-0.03,-0.04,-0.06
-0.101,-0.069,0.032,0.085,-0.066,-0.019,0.028,0.028,-0.029,-0.03,-0.04,-0.06
-0.098,-0.071,0.027,0.084,-0.063,-0.022,0.023,0.022,-0.034,-0.03,-0.04,-0.06
-0.093,-0.069,0.025,0.081,-0.059,-0.022,0.02,0.019,-0.035,-0.029,-0.039,-0.06
-0.093,-0.073,0.02,0.083,-0.057,-0.026,0.039,0.013,-0.035,-0.033,-0.043,-0.06
-0.092,-0.075,0.017,0.083,-0.054,-0.029,0.042,0.011,-0.04,-0.035,-0.049,-0.06
-0.088,-0.075,0.013,0.081,-0.05,-0.031,0.031,0.029,-0.04,-0.035,-0.046,-0.06
-0.084,-0.079,0.006,0.081,-0.045,-0.036,0.026,0.023,-0.041,-0.038,-0.045,-0.06
-0.077,-0.08,-0.003,0.079,-0.037,-0.042,0.017,0.013,-0.045,-0.041,-0.045,-0.06
-0.068,-0.08,-0.012,0.074,-0.028,-0.046,0.011,0.005,-0.045,-0.039,-0.045,-0.06
-0.063,-0.074,-0.012,0.069,-0.025,-0.043,0.01,-0.004,-0.048,-0.036,-0.046,-0.056
-0.063,-0.068,-0.004,0.066,-0.029,-0.036,0.01,-0.001,-0.051,-0.035,-0.042,-0.055
-0.061,-0.061,0.0,0.061,-0.031,-0.03,0.01,0.001,-0.05,-0.034,-0.04,-0.055
-0.061,-0.054,0.007,0.057,-0.033,-0.024,0.01,0.005,-0.054,-0.03,-0.04,-0.051
-0.059,-0.048,0.011,0.054,-0.035,-0.018,0.01,0.003,-0.055,-0.03,-0.04,-0.05
-0.061,-0.043,0.019,0.052,-0.039,-0.012,0.01,-0.007,-0.055,-0.033,-0.039,-0.051
-0.084,-0.056,0.028,0.07,-0.056,-0.014,0.01,-0.012,-0.06,-0.035,-0.041,-0.06
-0.083,-0.056,0.027,0.069,-0.055,-0.015,0.01,-0.02,-0.06,-0.039,-0.033,-0.066
-0.076,-0.052,0.025,0.063,-0.05,-0.013,0.01,-0.027,-0.06,-0.04,-0.036,-0.065
-0.089,-0.064,0.025,0.076,-0.057,-0.019,0.01,-0.035,-0.06,-0.035,-0.058,-0.065
-0.081,-0.061,0.02,0.071,-0.05,-0.02,0.01,-0.04,-0.06,-0.035,-0.06,-0.065
-0.074,-0.054,0.02,0.064,-0.047,-0.016,0.004,-0.04,-0.062,-0.035,-0.054,-0.065
-0.07,-0.051,0.019,0.06,-0.044,-0.016,-0.006,-0.04,-0.067,-0.035,-0.053,-0.065
-0.054,-0.041,0.012,0.047,-0.033,-0.014,-0.008,-0.038,-0.07,-0.035,-0.046,-0.065
-0.051,-0.044,0.008,0.047,-0.029,-0.018,-0.004,-0.035,-0.07,-0.038,-0.046,-0.065
-0.07,-0.068,0.002,0.068,-0.036,-0.033,-0.005,-0.032,-0.07,-0.041,-0.049,-0.065
-0.068,-0.071,-0.004,0.07,-0.032,-0.037,-0.005,-0.029,-0.07,-0.039,-0.05,-0.065
-0.06,-0.069,-0.009,0.064,-0.025,-0.039,-0.005,-0.026,-0.07,-0.041,-0.05,-0.065
-0.065,-0.071,-0.006,0.068,-0.029,-0.038,-0.005,-0.026,-0.071,-0.04,-0.05,-0.062
-0.07,-0.069,0.001,0.07,-0.036,-0.034,0.0,-0.026,-0.067,-0.041,-0.051,-0.057
-0.077,-0.07,0.008,0.073,-0.042,-0.031,0.005,-0.019,-0.058,-0.038,-0.048,-0.055
-0.08,-0.054,0.025,0.067,-0.052,-0.014,0.01,-0.012,-0.049,-0.028,-0.038,-0.05
-0.068,-0.042,0.026,0.055,-0.046,-0.008,0.013,-0.005,-0.041,-0.02,-0.03,-0.047
-0.051,-0.027,0.024,0.038,-0.037,-0.001,0.021,0.001,-0.044,-0.01,-0.021,-0.043
-0.05,-0.01,0.04,0.029,-0.045,0.015,0.012,0.006,-0.045,-0.004,-0.02,-0.04
-0.046,-0.001,0.046,0.023,-0.046,0.022,-0.021,-0.006,-0.049,0.007,-0.02,-0.036
-0.034,0.012,0.046,0.01,-0.04,0.029,-0.051,-0.035,-0.05,0.004,-0.02,-0.032
-0.015,0.007,0.022,0.004,-0.019,0.014,-0.063,-0.058,-0.051,-0.025,-0.021,-0.029
-0.003,-0.004,-0.001,0.004,-0.001,-0.002,-0.056,-0.07,-0.064,-0.042,-0.019,-0.024
-0.027,-0.027,0.0,0.027,-0.013,-0.013,-0.045,-0.057,-0.067,-0.038,-0.025,-0.033
-0.053,-0.042,0.01,0.047,-0.031,-0.016,-0.029,-0.064,-0.078,-0.045,-0.036,-0.044
-0.069,-0.063,0.005,0.066,-0.037,-0.029,-0.009,-0.05,-0.071,-0.057,-0.059,-0.069
-0.089,-0.079,0.01,0.083,-0.049,-0.034,0.002,-0.054,-0.079,-0.061,-0.069,-0.087
-0.08,-0.081,-0.001,0.08,-0.039,-0.041,0.01,-0.047,-0.072,-0.06,-0.071,-0.083
-0.082,-0.08,0.002,0.081,-0.042,-0.039,0.021,-0.035,-0.077,-0.066,-0.069,-0.091
-0.073,-0.077,-0.004,0.076,-0.034,-0.04,0.012,-0.043,-0.073,-0.065,-0.07,-0.087
-0.086,-0.086,-0.001,0.086,-0.042,-0.043,0.07,0.065,-0.003,-0.035,-0.071,-0.101
-0.176,-0.041,0.135,0.108,-0.155,0.047,0.235,0.374,0.224,0.098,-0.012,-0.126
0.008,-0.004,-0.012,-0.002,0.01,-0.008,0.322,0.857,0.739,0.528,0.322,0.097
0.6,0.293,-0.307,-0.446,0.453,-0.007,-0.175,0.184,0.735,1.018,1.008,0.79
0.833,0.482,-0.35,-0.657,0.591,0.066,-0.782,-1.288,-0.051,0.715,0.989,1.069
0.341,0.084,-0.257,-0.212,0.299,-0.086,-0.7,-1.762,-1.004,-0.341,0.036,0.376
-0.049,-0.172,-0.123,0.111,0.037,-0.147,-0.55,-1.442,-1.232,-0.78,-0.438,-0.127
-0.097,-0.144,-0.047,0.121,-0.025,-0.095,-0.379,-0.749,-0.621,-0.429,-0.284,-0.136
-0.1,-0.112,-0.012,0.106,-0.044,-0.061,-0.079,-0.202,-0.215,-0.165,-0.149,-0.118
-0.066,-0.081,-0.016,0.074,-0.025,-0.048,-0.004,-0.043,-0.08,-0.077,-0.09,-0.073
-0.066,-0.08,-0.015,0.073,-0.025,-0.047,0.029,0.012,-0.036,-0.057,-0.074,-0.07
-0.065,-0.074,-0.008,0.069,-0.028,-0.04,0.051,0.042,-0.024,-0.043,-0.062,-0.066
-0.061,-0.073,-0.012,0.067,-0.025,-0.042,0.051,0.068,0.003,-0.026,-0.053,-0.056
-0.056,-0.067,-0.011,0.062,-0.023,-0.039,0.058,0.069,0.006,-0.019,-0.043,-0.053
-0.044,-0.064,-0.02,0.054,-0.011,-0.042,0.058,0.086,0.029,-0.006,-0.036,-0.042
-0.038,-0.061,-0.023,0.05,-0.007,-0.042,0.06,0.097,0.036,0.001,-0.031,-0.04
-0.025,-0.056,-0.031,0.041,0.003,-0.043,0.054,0.111,0.054,0.013,-0.024,-0.032
-0.019,-0.054,-0.035,0.037,0.008,-0.044,0.053,0.123,0.063,0.015,-0.021,-0.026
-0.009,-0.049,-0.04,0.029,0.015,-0.044,0.05,0.136,0.072,0.024,-0.009,-0.019
-0.005,-0.046,-0.04,0.026,0.018,-0.043,0.046,0.152,0.084,0.037,0.005,-0.012
-0.003,-0.043,-0.039,0.023,0.018,-0.041,0.045,0.163,0.099,0.047,0.018,-0.007
0.004,-0.037,-0.042,0.017,0.023,-0.039,0.04,0.181,0.118,0.054,0.031,0.001
0.003,-0.033,-0.037,0.015,0.021,-0.035,0.031,0.201,0.132,0.07,0.043,0.009
0.027,-0.03,-0.057,0.002,0.042,-0.043,0.022,0.227,0.151,0.083,0.05,0.021
0.063,-0.014,-0.077,-0.024,0.07,-0.045,0.014,0.257,0.18,0.096,0.066,0.047
0.085,0.008,-0.076,-0.046,0.08,-0.034,0.006,0.29,0.203,0.122,0.092,0.07
0.104,0.023,-0.081,-0.064,0.092,-0.029,-0.002,0.323,0.226,0.138,0.102,0.091
0.12,0.037,-0.083,-0.078,0.102,-0.023,-0.01,0.352,0.241,0.151,0.118,0.106
0.142,0.056,-0.086,-0.098,0.114,-0.015,-0.02,0.372,0.258,0.159,0.131,0.115
0.152,0.074,-0.078,-0.113,0.115,-0.002,-0.028,0.382,0.259,0.156,0.124,0.115
0.134,0.071,-0.063,-0.102,0.098,0.004,-0.021,0.371,0.242,0.145,0.116,0.102
0.11,0.059,-0.051,-0.084,0.08,0.004,-0.009,0.329,0.229,0.135,0.108,0.097
0.08,0.044,-0.036,-0.062,0.058,0.004,-0.001,0.264,0.186,0.124,0.101,0.08
0.041,0.015,-0.026,-0.028,0.033,-0.005,0.017,0.188,0.135,0.091,0.072,0.036
0.005,-0.014,-0.019,0.005,0.012,-0.016,0.037,0.13,0.096,0.05,0.03,0.002
-0.025,-0.039,-0.014,0.032,-0.005,-0.026,0.048,0.084,0.054,0.019,-0.004,-0.019
-0.047,-0.056,-0.009,0.052,-0.018,-0.032,0.053,0.052,0.019,0.002,-0.023,-0.047
-0.055,-0.066,-0.011,0.061,-0.022,-0.038,0.056,0.036,-0.003,-0.008,-0.03,-0.061
-0.064,-0.072,-0.007,0.068,-0.029,-0.039,0.055,0.02,-0.011,-0.021,-0.038,-0.063
-0.08,-0.085,-0.005,0.083,-0.038,-0.044,0.055,0.014,-0.016,-0.028,-0.044,-0.068
-0.086,-0.091,-0.006,0.089,-0.04,-0.048,0.056,0.016,-0.02,-0.031,-0.05,-0.07
-0.104,-0.093,0.011,0.098,-0.057,-0.041,0.053,0.012,-0.025,-0.038,-0.054,-0.07
-0.111,-0.095,0.015,0.103,-0.063,-0.04,0.07,0.01,-0.03,-0.037,-0.059,-0.076
-0.099,-0.09,0.009,0.094,-0.054,-0.04,0.08,0.01,-0.026,-0.034,-0.058,-0.081
-0.093,-0.085,0.008,0.088,-0.05,-0.039,0.072,0.006,-0.025,-0.037,-0.054,-0.08
-0.082,-0.08,0.001,0.081,-0.041,-0.039,0.068,0.0,-0.025,-0.041,-0.056,-0.08
-0.078,-0.077,0.001,0.078,-0.039,-0.038,0.061,-0.005,-0.025,-0.039,-0.051,-0.08
-0.073,-0.069,0.004,0.071,-0.039,-0.032,0.056,-0.011,-0.025,-0.036,-0.05,-0.08
-0.089,-0.083,0.005,0.085,-0.047,-0.039,0.052,-0.017,-0.026,-0.034,-0.05,-0.08
-0.106,-0.098,0.008,0.102,-0.056,-0.045,0.049,-0.02,-0.03,-0.03,-0.05,-0.075
-0.103,-0.091,0.012,0.097,-0.057,-0.039,0.046,-0.02,-0.03,-0.031,-0.05,-0.075
-0.093,-0.09,0.003,0.092,-0.048,-0.044,0.043,-0.02,-0.03,-0.035,-0.05,-0.074
-0.075,-0.086,-0.012,0.081,-0.031,-0.049,0.04,-0.021,-0.03,-0.037,-0.05,-0.07
-0.075,-0.085,-0.01,0.08,-0.032,-0.047,0.041,-0.019,-0.03,-0.041,-0.05,-0.07
-0.076,-0.082,-0.006,0.079,-0.035,-0.043,0.042,-0.021,-0.034,-0.043,-0.05,-0.073
-0.072,-0.077,-0.005,0.075,-0.033,-0.041,0.04,-0.015,-0.035,-0.046,-0.05,-0.075
-0.075,-0.074,0.001,0.074,-0.037,-0.036,0.04,-0.018,-0.036,-0.049,-0.05,-0.075
-0.069,-0.072,-0.002,0.071,-0.034,-0.037,0.035,-0.034,-0.039,-0.052,-0.05,-0.079
-0.068,-0.064,0.003,0.066,-0.035,-0.031,0.035,-0.036,-0.04,-0.055,-0.05,-0.08
-0.091,-0.07,0.021,0.08,-0.055,-0.024,0.035,-0.034,-0.04,-0.054,-0.05,-0.08
-0.11,-0.089,0.02,0.1,-0.065,-0.034,0.035,-0.035,-0.04,-0.05,-0.055,-0.08
-0.104,-0.085,0.019,0.095,-0.062,-0.033,0.035,-0.035,-0.04,-0.05,-0.055,-0.08
-0.097,-0.076,0.021,0.087,-0.059,-0.027,0.034,-0.033,-0.038,-0.05,-0.055,-0.08
-0.09,-0.072,0.018,0.081,-0.053,-0.027,0.036,-0.045,-0.051,-0.05,-0.055,-0.08
-0.087,-0.062,0.025,0.074,-0.056,-0.018,0.034,-0.055,-0.06,-0.05,-0.055,-0.08
-0.099,-0.064,0.035,0.081,-0.067,-0.014,0.033,-0.046,-0.049,-0.046,-0.055,-0.077
-0.097,-0.071,0.026,0.084,-0.062,-0.022,0.027,-0.043,-0.045,-0.045,-0.055,-0.074
-0.093,-0.07,0.023,0.081,-0.058,-0.023,0.026,-0.037,-0.037,-0.045,-0.056,-0.075
-0.086,-0.07,0.017,0.078,-0.052,-0.026,0.021,-0.03,-0.031,-0.045,-0.055,-0.071
-0.075,-0.065,0.009,0.07,-0.042,-0.028,0.019,-0.037,-0.039,-0.046,-0.056,-0.07
-0.092,-0.065,0.027,0.078,-0.059,-0.019,0.041,-0.038,-0.037,-0.044,-0.055,-0.07
-0.087,-0.064,0.023,0.075,-0.055,-0.02,0.048,-0.024,-0.029,-0.033,-0.046,-0.064
-0.087,-0.05,0.037,0.069,-0.062,-0.007,0.059,-0.015,-0.025,-0.02,-0.031,-0.058
-0.097,-0.036,0.061,0.066,-0.078,0.012,0.066,-0.005,-0.026,-0.018,-0.012,-0.051
-0.069,-0.026,0.043,0.047,-0.055,0.009,0.05,0.003,-0.023,-0.021,-0.023,-0.044
-0.064,-0.025,0.039,0.045,-0.051,0.007,0.033,-0.022,-0.021,-0.021,-0.032,-0.042
-0.052,-0.024,0.028,0.038,-0.039,0.001,0.003,-0.046,-0.019,-0.027,-0.029,-0.046
-0.038,-0.021,0.017,0.029,-0.028,-0.002,-0.018,-0.054,-0.026,-0.021,-0.034,-0.048
-0.021,-0.018,0.002,0.019,-0.011,-0.008,-0.039,-0.08,-0.053,-0.027,-0.034,-0.05
-0.008,-0.024,-0.015,0.016,0.003,-0.019,-0.024,-0.075,-0.053,-0.052,-0.036,-0.055
-0.072,-0.052,0.021,0.062,-0.047,-0.015,0.007,-0.076,-0.058,-0.057,-0.04,-0.054
-0.111,-0.086,0.025,0.099,-0.068,-0.03,0.026,-0.064,-0.056,-0.064,-0.06,-0.077
-0.115,-0.093,0.022,0.103,-0.068,-0.035,0.043,-0.067,-0.063,-0.076,-0.065,-0.091
-0.1,-0.103,-0.003,0.101,-0.048,-0.052,0.054,-0.058,-0.058,-0.074,-0.061,-0.09
-0.102,-0.098,0.004,0.1,-0.053,-0.047,0.065,-0.066,-0.062,-0.075,-0.057,-0.095
-0.119,-0.1,0.019,0.109,-0.069,-0.041,0.053,-0.066,-0.062,-0.075,-0.053,-0.094
-0.134,-0.112,0.022,0.122,-0.078,-0.044,0.109,0.06,0.013,-0.037,-0.053,-0.105
-0.194,-0.051,0.142,0.122,-0.168,0.045,0.274,0.397,0.261,0.117,0.005,-0.111
0.013,-0.006,-0.019,-0.004,0.016,-0.013,0.352,0.91,0.77,0.535,0.34,0.116
0.637,0.279,-0.357,-0.458,0.497,-0.039,-0.171,0.148,0.739,0.965,0.97,0.776
0.873,0.446,-0.427,-0.659,0.65,0.009,-0.75,-1.391,-0.106,0.582,0.859,0.983
0.335,0.044,-0.291,-0.19,0.313,-0.123,-0.646,-1.86,-1.044,-0.44,-0.063,0.296
-0.069,-0.207,-0.137,0.138,0.034,-0.172,-0.51,-1.496,-1.198,-0.786,-0.454,-0.16
-0.103,-0.16,-0.058,0.132,-0.022,-0.109,-0.329,-0.742,-0.583,-0.43,-0.286,-0.152
-0.093,-0.109,-0.016,0.101,-0.038,-0.063,-0.038,-0.197,-0.189,-0.169,-0.134,-0.126
-0.055,-0.079,-0.025,0.067,-0.015,-0.051,0.033,-0.045,-0.069,-0.087,-0.073,-0.087
-0.083,-0.082,0.001,0.082,-0.042,-0.04,0.058,0.008,-0.029,-0.074,-0.076,-0.079
-0.104,-0.079,0.025,0.091,-0.064,-0.027,0.075,0.038,-0.011,-0.059,-0.067,-0.076
-0.1,-0.081,0.02,0.09,-0.06,-0.03,0.072,0.055,0.014,-0.047,-0.062,-0.069
-0.082,-0.08,0.002,0.081,-0.042,-0.039,0.068,0.062,0.02,-0.034,-0.053,-0.068
-0.07,-0.08,-0.009,0.075,-0.031,-0.044,0.064,0.083,0.041,-0.016,-0.042,-0.06
-0.08,-0.073,0.007,0.077,-0.044,-0.033,0.061,0.093,0.044,-0.01,-0.033,-0.058
-0.039,-0.065,-0.026,0.052,-0.006,-0.045,0.055,0.111,0.062,-0.001,-0.025,-0.05
-0.027,-0.057,-0.03,0.042,0.002,-0.043,0.056,0.117,0.07,0.007,-0.02,-0.044
-0.032,-0.049,-0.017,0.041,-0.007,-0.033,0.067,0.137,0.087,0.014,-0.012,-0.038
-0.024,-0.042,-0.018,0.034,-0.003,-0.03,0.073,0.151,0.103,0.02,-0.003,-0.03
-0.03,-0.038,-0.008,0.034,-0.011,-0.022,0.065,0.166,0.101,0.027,0.006,-0.021
-0.003,-0.033,-0.031,0.018,0.014,-0.032,0.062,0.184,0.119,0.033,0.013,-0.008
0.028,-0.029,-0.057,0.001,0.042,-0.042,0.057,0.2,0.143,0.054,0.032,0.002
0.035,-0.025,-0.06,-0.005,0.048,-0.042,0.052,0.236,0.154,0.077,0.046,0.008
0.057,-0.007,-0.064,-0.025,0.061,-0.035,0.048,0.263,0.181,0.086,0.057,0.028
0.078,0.013,-0.065,-0.045,0.071,-0.026,0.023,0.283,0.195,0.094,0.065,0.051
0.096,0.036,-0.06,-0.066,0.078,-0.012,0.001,0.317,0.21,0.117,0.086,0.069
0.116,0.056,-0.06,-0.086,0.087,-0.002,-0.002,0.356,0.237,0.135,0.109,0.083
0.138,0.082,-0.056,-0.11,0.097,0.013,-0.006,0.374,0.246,0.141,0.112,0.095
0.154,0.099,-0.055,-0.126,0.104,0.022,-0.009,0.39,0.254,0.149,0.11,0.104
0.134,0.082,-0.052,-0.108,0.093,0.015,-0.014,0.385,0.25,0.145,0.099,0.106
0.115,0.068,-0.047,-0.091,0.08,0.01,-0.013,0.327,0.23,0.133,0.091,0.097
0.085,0.048,-0.036,-0.066,0.06,0.006,0.007,0.259,0.187,0.106,0.079,0.062
0.051,0.021,-0.03,-0.036,0.04,-0.004,0.028,0.196,0.137,0.072,0.054,0.024
-0.006,-0.014,-0.007,0.01,0.001,-0.01,0.035,0.122,0.089,0.04,0.021,-0.009
-0.074,-0.04,0.034,0.057,-0.054,-0.003,0.038,0.063,0.04,0.005,-0.004,-0.041
-0.089,-0.055,0.034,0.072,-0.061,-0.01,0.046,0.037,0.012,-0.015,-0.016,-0.057
-0.093,-0.067,0.026,0.08,-0.059,-0.02,0.045,0.019,-0.007,-0.026,-0.04,-0.074
-0.088,-0.063,0.025,0.075,-0.056,-0.019,0.04,0.002,-0.028,-0.036,-0.051,-0.087
-0.088,-0.072,0.017,0.08,-0.052,-0.027,0.04,-0.009,-0.04,-0.055,-0.054,-0.09
-0.102,-0.085,0.017,0.093,-0.059,-0.034,0.032,-0.01,-0.04,-0.067,-0.056,-0.095
-0.084,-0.078,0.005,0.081,-0.044,-0.036,0.041,-0.01,-0.04,-0.064,-0.054,-0.095
-0.081,-0.073,0.007,0.077,-0.044,-0.033,0.065,-0.01,-0.04,-0.065,-0.073,-0.095
-0.093,-0.069,0.024,0.08,-0.058,-0.022,0.06,-0.01,-0.04,-0.065,-0.082,-0.095
-0.085,-0.059,0.026,0.072,-0.055,-0.017,0.052,-0.01,-0.04,-0.065,-0.079,-0.095
-0.101,-0.076,0.025,0.088,-0.063,-0.025,0.046,-0.01,-0.04,-0.062,-0.081,-0.096
-0.118,-0.093,0.025,0.105,-0.071,-0.034,0.039,-0.01,-0.04,-0.057,-0.08,-0.094
-0.124,-0.087,0.037,0.105,-0.08,-0.024,0.034,-0.01,-0.04,-0.054,-0.08,-0.09
-0.125,-0.085,0.04,0.105,-0.082,-0.022,0.03,-0.01,-0.04,-0.051,-0.075,-0.09
-0.116,-0.082,0.034,0.099,-0.075,-0.024,0.03,-0.016,-0.04,-0.046,-0.071,-0.088
-0.11,-0.078,0.032,0.094,-0.071,-0.023,0.028,-0.029,-0.04,-0.046,-0.069,-0.085
-0.113,-0.086,0.027,0.099,-0.07,-0.029,0.024,-0.041,-0.04,-0.06,-0.064,-0.085
-0.12,-0.096,0.025,0.107,-0.072,-0.035,0.025,-0.045,-0.04,-0.066,-0.061,-0.085
-0.11,-0.09,0.02,0.1,-0.065,-0.035,0.037,-0.045,-0.041,-0.065,-0.06,-0.085
-0.1,-0.085,0.015,0.092,-0.057,-0.035,0.041,-0.045,-0.039,-0.065,-0.06,-0.085
-0.092,-0.082,0.01,0.087,-0.051,-0.036,0.039,-0.045,-0.048,-0.065,-0.06,-0.085
-0.083,-0.075,0.007,0.079,-0.044,-0.034,0.037,-0.045,-0.056,-0.065,-0.06,-0.084
-0.077,-0.077,0.0,0.077,-0.038,-0.039,0.034,-0.041,-0.055,-0.061,-0.06,-0.086
-0.087,-0.08,0.007,0.084,-0.047,-0.036,0.035,-0.04,-0.055,-0.06,-0.059,-0.09
-0.11,-0.083,0.027,0.096,-0.068,-0.028,0.03,-0.04,-0.055,-0.06,-0.068,-0.09
-0.111,-0.086,0.025,0.098,-0.067,-0.03,0.03,-0.04,-0.055,-0.055,-0.077,-0.09
-0.114,-0.089,0.025,0.101,-0.069,-0.032,0.029,-0.04,-0.055,-0.055,-0.072,-0.09
-0.116,-0.09,0.026,0.102,-0.071,-0.032,0.024,-0.041,-0.055,-0.055,-0.07,-0.09
-0.109,-0.085,0.024,0.097,-0.066,-0.031,0.025,-0.047,-0.055,-0.055,-0.066,-0.089
-0.112,-0.085,0.027,0.098,-0.069,-0.029,0.025,-0.054,-0.056,-0.054,-0.064,-0.091
-0.091,-0.085,0.006,0.088,-0.048,-0.039,0.025,-0.051,-0.054,-0.061,-0.07,-0.088
-0.084,-0.085,-0.001,0.084,-0.041,-0.042,0.024,-0.045,-0.06,-0.069,-0.069,-0.095
-0.109,-0.085,0.024,0.097,-0.066,-0.031,0.025,-0.041,-0.071,-0.065,-0.065,-0.105
-0.108,-0.082,0.026,0.095,-0.067,-0.028,0.025,-0.034,-0.065,-0.06,-0.062,-0.101
-0.097,-0.073,0.024,0.084,-0.06,-0.024,0.025,-0.028,-0.061,-0.056,-0.057,-0.096
-0.089,-0.062,0.027,0.075,-0.058,-0.017,0.036,-0.023,-0.056,-0.051,-0.054,-0.092
-0.074,-0.053,0.021,0.063,-0.047,-0.016,0.032,-0.018,-0.036,-0.046,-0.05,-0.087
-0.077,-0.041,0.036,0.059,-0.056,-0.003,0.019,-0.015,-0.024,-0.042,-0.045,-0.079
-0.079,-0.034,0.046,0.056,-0.062,0.006,0.008,-0.009,-0.025,-0.039,-0.041,-0.071
-0.05,-0.02,0.03,0.035,-0.04,0.005,-0.003,-0.021,-0.018,-0.041,-0.04,-0.062
-0.035,-0.013,0.022,0.024,-0.028,0.004,-0.024,-0.043,-0.032,-0.039,-0.04,-0.057
-0.032,-0.032,0.0,0.032,-0.016,-0.016,-0.041,-0.063,-0.064,-0.041,-0.041,-0.059
-0.007,-0.035,-0.028,0.021,0.011,-0.031,-0.033,-0.078,-0.072,-0.049,-0.046,-0.061
-0.029,-0.035,-0.007,0.032,-0.011,-0.021,-0.022,-0.066,-0.075,-0.061,-0.059,-0.065
-0.085,-0.051,0.034,0.067,-0.059,-0.008,-0.01,-0.07,-0.083,-0.063,-0.066,-0.071
-0.105,-0.09,0.016,0.097,-0.06,-0.037,0.005,-0.056,-0.082,-0.066,-0.077,-0.094
-0.102,-0.099,0.003,0.1,-0.052,-0.047,0.018,-0.062,-0.101,-0.083,-0.09,-0.092
-0.11,-0.109,0.001,0.109,-0.055,-0.054,0.025,-0.047,-0.084,-0.083,-0.104,-0.102
-0.14,-0.11,0.03,0.125,-0.085,-0.039,0.039,-0.046,-0.088,-0.079,-0.099,-0.116
-0.131,-0.099,0.032,0.115,-0.081,-0.033,0.037,-0.039,-0.072,-0.072,-0.104,-0.113
-0.147,-0.126,0.021,0.137,-0.084,-0.052,0.081,0.063,-0.013,-0.053,-0.11,-0.13
-0.195,-0.072,0.123,0.133,-0.159,0.026,0.263,0.433,0.267,0.114,-0.016,-0.12
0.038,-0.021,-0.059,-0.009,0.049,-0.04,0.317,0.914,0.776,0.578,0.36,0.134
0.663,0.284,-0.379,-0.473,0.521,-0.048,-0.239,0.079,0.69,1.011,1.018,0.835
0.806,0.441,-0.365,-0.623,0.586,0.038,-0.769,-1.364,-0.126,0.579,0.851,0.987
0.202,0.03,-0.173,-0.116,0.187,-0.071,-0.648,-1.771,-1.075,-0.464,-0.104,0.247
-0.121,-0.186,-0.065,0.153,-0.028,-0.125,-0.522,-1.411,-1.193,-0.77,-0.459,-0.173
-0.128,-0.156,-0.028,0.142,-0.05,-0.092,-0.343,-0.698,-0.578,-0.431,-0.313,-0.162
-0.159,-0.129,0.03,0.144,-0.094,-0.049,-0.07,-0.198,-0.223,-0.194,-0.167,-0.133
-0.13,-0.105,0.025,0.117,-0.077,-0.04,-0.01,-0.045,-0.093,-0.103,-0.115,-0.117
-0.117,-0.102,0.015,0.109,-0.066,-0.043,0.023,-0.001,-0.061,-0.084,-0.113,-0.117
-0.096,-0.082,0.014,0.089,-0.055,-0.034,0.033,0.025,-0.039,-0.068,-0.093,-0.105
-0.102,-0.104,-0.002,0.103,-0.05,-0.053,0.029,0.05,-0.016,-0.061,-0.091,-0.102
-0.116,-0.115,0.002,0.116,-0.059,-0.056,0.032,0.056,-0.014,-0.052,-0.076,-0.094
-0.09,-0.093,-0.002,0.091,-0.044,-0.047,0.028,0.062,0.004,-0.043,-0.068,-0.09
-0.064,-0.086,-0.022,0.075,-0.021,-0.054,0.031,0.076,0.007,-0.033,-0.059,-0.083
-0.054,-0.081,-0.027,0.068,-0.013,-0.054,0.03,0.101,0.022,-0.014,-0.053,-0.08
-0.051,-0.074,-0.023,0.063,-0.014,-0.049,0.026,0.098,0.029,-0.008,-0.047,-0.071
-0.048,-0.071,-0.023,0.06,-0.012,-0.047,0.02,0.105,0.041,-0.002,-0.039,-0.069
-0.044,-0.063,-0.019,0.053,-0.012,-0.04,0.014,0.128,0.049,0.003,-0.031,-0.058
-0.035,-0.056,-0.02,0.046,-0.007,-0.038,0.01,0.151,0.062,0.012,-0.023,-0.029
-0.011,-0.046,-0.035,0.028,0.012,-0.04,0.003,0.166,0.078,0.033,-0.011,-0.014
0.007,-0.034,-0.041,0.014,0.024,-0.037,-0.002,0.182,0.091,0.045,0.003,0.0
0.016,-0.018,-0.033,0.002,0.025,-0.025,-0.014,0.203,0.118,0.057,0.017,-0.002
0.031,-0.002,-0.033,-0.015,0.032,-0.017,-0.035,0.22,0.133,0.067,0.026,0.023
0.025,-0.001,-0.026,-0.012,0.025,-0.013,-0.04,0.243,0.142,0.065,0.033,0.014
0.046,0.02,-0.026,-0.032,0.036,-0.003,-0.064,0.267,0.164,0.093,0.057,0.064
0.082,0.047,-0.035,-0.064,0.058,0.006,-0.043,0.3,0.192,0.117,0.075,0.061
0.089,0.054,-0.035,-0.071,0.062,0.009,-0.129,0.323,0.206,0.117,0.08,0.107
0.097,0.062,-0.035,-0.079,0.066,0.013,-0.166,0.327,0.204,0.109,0.088,0.168
