0.06,0.116,0.055,-0.089,0.002,0.085,0.035,-0.175,-0.13,-0.08,-0.175,-0.095
0.056,0.111,0.055,-0.084,0.0,0.083,0.035,-0.172,-0.131,-0.077,-0.172,-0.094
0.045,0.102,0.057,-0.074,-0.006,0.079,0.036,-0.165,-0.136,-0.069,-0.166,-0.09
0.038,0.1,0.062,-0.069,-0.012,0.081,0.034,-0.162,-0.126,-0.062,-0.161,-0.087
0.025,0.087,0.062,-0.056,-0.019,0.074,0.036,-0.152,-0.119,-0.056,-0.154,-0.082
0.064,0.133,0.069,-0.099,-0.003,0.101,0.046,-0.153,-0.102,-0.05,-0.151,-0.08
0.118,0.211,0.093,-0.165,0.012,0.152,0.075,-0.136,-0.071,-0.034,-0.127,-0.062
0.118,0.256,0.138,-0.188,-0.01,0.197,0.074,-0.126,-0.053,-0.013,-0.101,-0.043
0.127,0.299,0.172,-0.213,-0.023,0.235,0.016,-0.176,-0.051,-0.001,-0.099,-0.046
0.146,0.283,0.136,-0.215,0.005,0.209,-0.009,-0.195,-0.062,-0.012,-0.102,-0.049
0.152,0.241,0.089,-0.197,0.031,0.165,-0.025,-0.21,-0.076,-0.022,-0.097,-0.052
0.131,0.185,0.054,-0.158,0.038,0.12,-0.009,-0.206,-0.102,-0.044,-0.112,-0.055
0.099,0.144,0.046,-0.122,0.026,0.095,0.001,-0.218,-0.114,-0.065,-0.137,-0.063
0.064,0.109,0.045,-0.087,0.009,0.077,0.023,-0.218,-0.151,-0.108,-0.18,-0.098
0.048,0.074,0.026,-0.061,0.011,0.049,0.021,-0.219,-0.159,-0.113,-0.186,-0.103
0.039,0.075,0.036,-0.057,0.001,0.055,0.024,-0.227,-0.176,-0.124,-0.187,-0.106
0.044,0.051,0.006,-0.048,0.019,0.028,0.033,-0.206,-0.151,-0.134,-0.202,-0.116
0.045,0.072,0.027,-0.058,0.009,0.049,0.015,-0.241,-0.161,-0.108,-0.183,-0.101
0.041,0.034,-0.007,-0.038,0.024,0.013,0.055,-0.192,-0.147,-0.139,-0.212,-0.123
0.046,0.048,0.002,-0.048,0.022,0.025,0.01,-0.206,-0.13,-0.082,-0.175,-0.098
0.06,-0.106,-0.165,0.023,0.113,-0.135,0.464,0.559,0.321,-0.018,-0.281,-0.239
0.283,0.404,0.121,-0.344,0.08,0.263,0.083,0.437,1.353,0.887,0.274,0.095
0.288,1.325,1.037,-0.807,-0.375,1.181,-1.059,-1.561,0.044,1.115,0.99,0.758
0.118,0.519,0.401,-0.318,-0.142,0.46,-1.049,-1.918,-2.104,-0.557,0.222,0.471
0.165,-0.3,-0.465,0.067,0.315,-0.382,-0.792,-1.077,-1.668,-1.029,-0.414,0.016
0.096,-0.154,-0.249,0.029,0.173,-0.201,-0.281,-0.491,-0.676,-0.437,-0.318,-0.115
0.041,-0.079,-0.12,0.019,0.081,-0.099,0.076,-0.148,-0.243,-0.224,-0.258,-0.157
0.049,0.02,-0.029,-0.034,0.039,-0.004,0.031,-0.179,-0.115,-0.114,-0.186,-0.114
0.064,0.019,-0.045,-0.041,0.054,-0.013,0.122,-0.105,-0.092,-0.12,-0.199,-0.126
0.08,0.041,-0.039,-0.06,0.059,0.001,0.086,-0.118,-0.029,-0.086,-0.177,-0.105
0.067,0.041,-0.026,-0.054,0.047,0.007,0.108,-0.099,-0.042,-0.09,-0.178,-0.109
0.077,0.041,-0.036,-0.059,0.056,0.002,0.098,-0.087,-0.01,-0.074,-0.17,-0.103
0.067,0.05,-0.017,-0.057,0.041,0.016,0.098,-0.085,-0.01,-0.063,-0.16,-0.098
0.073,0.044,-0.029,-0.058,0.051,0.007,0.105,-0.064,0.029,-0.058,-0.157,-0.098
0.065,0.054,-0.011,-0.059,0.038,0.021,0.094,-0.065,0.049,-0.042,-0.143,-0.091
0.069,0.049,-0.02,-0.059,0.044,0.014,0.11,-0.039,0.06,-0.038,-0.14,-0.09
0.092,0.061,-0.031,-0.076,0.061,0.014,0.111,-0.03,0.092,-0.018,-0.129,-0.083
0.095,0.065,-0.03,-0.08,0.062,0.017,0.124,-0.015,0.111,-0.008,-0.125,-0.083
0.084,0.068,-0.016,-0.076,0.05,0.026,0.135,0.003,0.147,0.012,-0.118,-0.076
0.084,0.075,-0.009,-0.079,0.046,0.033,0.142,0.034,0.19,0.034,-0.113,-0.076
0.086,0.094,0.008,-0.09,0.039,0.05,0.168,0.068,0.235,0.057,-0.104,-0.063
0.089,0.111,0.022,-0.1,0.034,0.066,0.193,0.109,0.291,0.099,-0.075,-0.043
0.123,0.139,0.016,-0.131,0.053,0.077,0.205,0.144,0.353,0.141,-0.045,-0.032
0.135,0.169,0.035,-0.152,0.05,0.102,0.212,0.185,0.422,0.192,-0.015,-0.015
0.141,0.2,0.059,-0.171,0.041,0.129,0.197,0.203,0.489,0.252,0.026,0.012
0.16,0.236,0.076,-0.198,0.042,0.156,0.183,0.2,0.519,0.294,0.062,0.043
0.175,0.28,0.105,-0.228,0.035,0.192,0.159,0.192,0.51,0.327,0.096,0.075
0.184,0.32,0.136,-0.252,0.023,0.227,0.121,0.146,0.494,0.326,0.118,0.093
0.178,0.32,0.143,-0.249,0.017,0.231,0.08,0.086,0.459,0.315,0.122,0.087
0.181,0.31,0.129,-0.246,0.026,0.22,0.056,0.027,0.385,0.291,0.115,0.072
0.174,0.298,0.124,-0.236,0.025,0.211,0.052,-0.022,0.29,0.23,0.083,0.063
0.144,0.259,0.115,-0.201,0.014,0.187,0.044,-0.065,0.195,0.16,0.031,0.038
0.105,0.213,0.109,-0.159,-0.002,0.161,0.036,-0.104,0.106,0.087,-0.018,0.004
0.085,0.179,0.094,-0.132,-0.004,0.136,0.029,-0.135,0.026,0.028,-0.062,-0.017
0.078,0.139,0.06,-0.109,0.009,0.099,0.024,-0.164,-0.041,-0.015,-0.101,-0.039
0.067,0.111,0.044,-0.089,0.011,0.077,0.026,-0.179,-0.091,-0.052,-0.11,-0.051
0.065,0.107,0.042,-0.087,0.011,0.074,0.024,-0.175,-0.113,-0.08,-0.126,-0.054
0.066,0.104,0.038,-0.085,0.013,0.071,0.027,-0.167,-0.109,-0.088,-0.138,-0.059
0.066,0.1,0.034,-0.084,0.016,0.067,0.051,-0.158,-0.099,-0.083,-0.133,-0.055
0.066,0.097,0.031,-0.081,0.017,0.063,0.063,-0.146,-0.092,-0.077,-0.139,-0.055
0.066,0.093,0.027,-0.08,0.019,0.06,0.063,-0.131,-0.071,-0.073,-0.14,-0.055
0.064,0.089,0.025,-0.077,0.02,0.057,0.06,-0.121,-0.053,-0.066,-0.139,-0.055
0.058,0.083,0.025,-0.071,0.016,0.054,0.059,-0.12,-0.055,-0.061,-0.135,-0.055
0.058,0.08,0.021,-0.069,0.018,0.05,0.06,-0.115,-0.055,-0.063,-0.135,-0.058
0.055,0.075,0.02,-0.065,0.017,0.047,0.059,-0.114,-0.059,-0.066,-0.134,-0.061
0.05,0.07,0.02,-0.06,0.015,0.045,0.06,-0.108,-0.061,-0.069,-0.13,-0.064
0.051,0.066,0.015,-0.059,0.018,0.041,0.056,-0.115,-0.06,-0.072,-0.13,-0.067
0.046,0.061,0.015,-0.054,0.015,0.038,0.05,-0.129,-0.067,-0.08,-0.132,-0.07
0.043,0.056,0.014,-0.05,0.014,0.035,0.045,-0.134,-0.082,-0.09,-0.136,-0.069
0.043,0.052,0.01,-0.048,0.016,0.031,0.039,-0.151,-0.1,-0.096,-0.135,-0.065
0.037,0.047,0.01,-0.042,0.013,0.029,0.034,-0.156,-0.112,-0.1,-0.135,-0.065
0.036,0.043,0.007,-0.04,0.014,0.025,0.028,-0.157,-0.116,-0.103,-0.135,-0.065
0.035,0.04,0.004,-0.038,0.016,0.022,0.025,-0.162,-0.118,-0.107,-0.135,-0.065
0.034,0.04,0.005,-0.038,0.015,0.022,0.025,-0.163,-0.121,-0.11,-0.14,-0.065
0.039,0.04,0.001,-0.04,0.019,0.021,0.025,-0.168,-0.124,-0.11,-0.14,-0.061
0.04,0.04,0.0,-0.04,0.02,0.02,0.025,-0.17,-0.125,-0.11,-0.14,-0.06
0.04,0.041,0.0,-0.04,0.02,0.02,0.025,-0.174,-0.125,-0.11,-0.14,-0.06
0.044,0.039,-0.005,-0.041,0.025,0.017,0.028,-0.175,-0.125,-0.11,-0.14,-0.06
0.046,0.041,-0.006,-0.043,0.026,0.017,0.031,-0.169,-0.13,-0.111,-0.14,-0.06
0.05,0.039,-0.011,-0.044,0.031,0.014,0.034,-0.162,-0.138,-0.109,-0.14,-0.059
0.048,0.04,-0.008,-0.044,0.028,0.016,0.036,-0.155,-0.131,-0.101,-0.141,-0.053
0.037,0.041,0.004,-0.039,0.017,0.022,0.034,-0.149,-0.132,-0.091,-0.129,-0.047
0.045,0.055,0.01,-0.05,0.017,0.032,0.042,-0.141,-0.12,-0.085,-0.115,-0.042
0.069,0.117,0.048,-0.093,0.011,0.082,0.066,-0.143,-0.079,-0.066,-0.098,-0.028
0.085,0.171,0.086,-0.129,-0.001,0.128,0.093,-0.148,-0.069,-0.042,-0.078,-0.007
0.104,0.218,0.114,-0.161,-0.005,0.166,0.054,-0.157,-0.068,-0.037,-0.073,0.01
0.129,0.229,0.1,-0.179,0.015,0.164,-0.009,-0.162,-0.073,-0.043,-0.076,0.024
0.138,0.19,0.052,-0.164,0.043,0.121,-0.031,-0.171,-0.065,-0.037,-0.074,0.023
0.116,0.145,0.029,-0.13,0.043,0.086,-0.024,-0.172,-0.081,-0.051,-0.074,0.009
0.085,0.099,0.014,-0.092,0.035,0.056,-0.014,-0.165,-0.105,-0.064,-0.08,-0.007
0.037,0.078,0.041,-0.058,-0.002,0.059,0.009,-0.184,-0.122,-0.085,-0.093,-0.017
0.022,0.03,0.008,-0.026,0.007,0.019,0.029,-0.167,-0.147,-0.136,-0.128,-0.043
0.028,0.036,0.008,-0.032,0.009,0.022,0.006,-0.2,-0.147,-0.128,-0.12,-0.043
0.009,0.013,0.004,-0.011,0.002,0.008,0.039,-0.168,-0.159,-0.154,-0.14,-0.058
0.019,0.02,0.001,-0.02,0.009,0.01,-0.004,-0.212,-0.141,-0.124,-0.127,-0.048
-0.011,0.006,0.017,0.002,-0.014,0.011,0.049,-0.176,-0.173,-0.156,-0.147,-0.061
0.023,-0.002,-0.025,-0.011,0.024,-0.014,-0.019,-0.212,-0.136,-0.122,-0.133,-0.059
0.023,-0.045,-0.068,0.011,0.045,-0.056,0.233,0.166,-0.006,-0.09,-0.178,-0.117
0.16,-0.023,-0.183,-0.068,0.171,-0.103,0.443,0.905,1.008,0.369,-0.06,-0.117
0.363,1.024,0.662,-0.694,-0.15,0.843,-0.718,-0.641,1.188,1.359,0.888,0.599
0.172,1.063,0.891,-0.618,-0.36,0.977,-1.244,-2.142,-1.18,0.381,0.822,0.81
0.147,-0.157,-0.305,0.005,0.226,-0.231,-0.966,-1.515,-2.088,-1.016,-0.2,0.216
0.15,-0.287,-0.437,0.069,0.294,-0.362,-0.61,-0.784,-1.015,-0.657,-0.332,-0.023
0.02,-0.137,-0.157,0.058,0.088,-0.146,0.003,-0.224,-0.374,-0.269,-0.23,-0.107
0.036,-0.062,-0.098,0.014,0.067,-0.08,0.062,-0.11,-0.114,-0.131,-0.163,-0.086
0.016,-0.009,-0.025,-0.003,0.02,-0.017,0.095,-0.094,-0.085,-0.087,-0.13,-0.067
0.024,-0.032,-0.055,0.004,0.04,-0.043,0.122,-0.039,-0.027,-0.082,-0.138,-0.075
0.023,0.005,-0.019,-0.014,0.021,-0.007,0.104,-0.063,-0.013,-0.056,-0.115,-0.055
0.025,-0.014,-0.038,-0.005,0.032,-0.026,0.131,-0.024,-0.002,-0.064,-0.127,-0.065
0.03,0.012,-0.018,-0.02,0.024,-0.003,0.111,-0.038,0.022,-0.037,-0.107,-0.049
0.028,0.006,-0.023,-0.017,0.025,-0.008,0.133,-0.006,0.031,-0.041,-0.111,-0.053
0.041,0.016,-0.025,-0.028,0.032,-0.004,0.121,-0.003,0.064,-0.021,-0.101,-0.044
0.044,0.019,-0.025,-0.031,0.034,-0.003,0.135,0.005,0.071,-0.012,-0.096,-0.04
0.052,0.02,-0.032,-0.036,0.042,-0.006,0.139,0.017,0.094,0.004,-0.089,-0.036
0.053,0.028,-0.026,-0.04,0.039,0.001,0.142,0.035,0.117,0.016,-0.082,-0.031
0.053,0.027,-0.026,-0.04,0.04,0.0,0.15,0.067,0.152,0.024,-0.077,-0.027
0.054,0.034,-0.021,-0.044,0.037,0.006,0.159,0.091,0.183,0.048,-0.065,-0.022
0.058,0.038,-0.02,-0.048,0.039,0.008,0.183,0.129,0.225,0.071,-0.052,-0.013
0.065,0.056,-0.009,-0.06,0.037,0.023,0.208,0.167,0.275,0.099,-0.032,-0.002
0.083,0.087,0.004,-0.085,0.039,0.046,0.22,0.208,0.329,0.132,-0.014,0.007
0.081,0.106,0.025,-0.094,0.028,0.065,0.237,0.262,0.401,0.169,0.01,0.022
0.095,0.144,0.048,-0.12,0.023,0.096,0.243,0.289,0.468,0.226,0.049,0.039
0.117,0.186,0.069,-0.152,0.024,0.128,0.229,0.289,0.527,0.277,0.094,0.067
0.119,0.225,0.105,-0.172,0.007,0.165,0.214,0.285,0.543,0.317,0.125,0.103
0.136,0.269,0.133,-0.203,0.002,0.201,0.18,0.258,0.528,0.343,0.159,0.133
0.137,0.297,0.161,-0.217,-0.012,0.229,0.141,0.209,0.521,0.346,0.182,0.154
0.141,0.312,0.171,-0.227,-0.015,0.241,0.1,0.147,0.482,0.341,0.175,0.153
0.142,0.297,0.156,-0.22,-0.007,0.226,0.061,0.089,0.405,0.302,0.171,0.147
0.104,0.253,0.149,-0.179,-0.023,0.201,0.049,0.041,0.314,0.244,0.137,0.132
0.066,0.2,0.133,-0.133,-0.034,0.166,0.048,-0.001,0.223,0.175,0.081,0.097
0.043,0.156,0.113,-0.1,-0.035,0.134,0.044,-0.036,0.14,0.109,0.037,0.06
0.022,0.115,0.092,-0.069,-0.035,0.103,0.042,-0.069,0.059,0.06,-0.003,0.027
0.014,0.087,0.074,-0.051,-0.03,0.08,0.039,-0.098,-0.007,0.011,-0.037,0.008
0.012,0.078,0.066,-0.045,-0.027,0.072,0.044,-0.108,-0.06,-0.022,-0.054,-0.003
0.006,0.065,0.059,-0.036,-0.027,0.062,0.051,-0.101,-0.081,-0.032,-0.055,-0.007
0.004,0.056,0.052,-0.03,-0.025,0.054,0.056,-0.094,-0.069,-0.027,-0.055,-0.013
0.009,0.055,0.046,-0.032,-0.019,0.05,0.061,-0.079,-0.06,-0.024,-0.055,-0.019
0.015,0.055,0.04,-0.035,-0.013,0.047,0.064,-0.057,-0.05,-0.021,-0.055,-0.024
0.02,0.055,0.036,-0.038,-0.008,0.045,0.065,-0.048,-0.042,-0.016,-0.055,-0.029
0.02,0.055,0.035,-0.038,-0.008,0.045,0.077,-0.044,-0.038,-0.016,-0.056,-0.03
0.02,0.055,0.035,-0.038,-0.008,0.045,0.079,-0.039,-0.032,-0.021,-0.06,-0.03
0.016,0.05,0.035,-0.034,-0.01,0.042,0.071,-0.035,-0.027,-0.025,-0.06,-0.03
0.007,0.042,0.036,-0.025,-0.015,0.038,0.069,-0.03,-0.02,-0.027,-0.059,-0.03
0.004,0.036,0.032,-0.02,-0.015,0.034,0.063,-0.033,-0.03,-0.032,-0.066,-0.029
-0.002,0.028,0.03,-0.013,-0.016,0.028,0.059,-0.042,-0.042,-0.035,-0.078,-0.025
-0.01,0.021,0.03,-0.006,-0.02,0.025,0.055,-0.054,-0.057,-0.039,-0.08,-0.025
-0.012,0.014,0.026,-0.001,-0.019,0.02,0.05,-0.069,-0.076,-0.044,-0.08,-0.025
-0.015,0.009,0.025,0.002,-0.02,0.016,0.046,-0.08,-0.087,-0.046,-0.08,-0.025
-0.014,0.011,0.025,0.001,-0.019,0.017,0.041,-0.086,-0.101,-0.051,-0.08,-0.025
-0.013,0.007,0.02,0.003,-0.017,0.013,0.037,-0.089,-0.108,-0.054,-0.081,-0.029
-0.012,0.005,0.016,0.003,-0.015,0.01,0.032,-0.095,-0.114,-0.063,-0.077,-0.031
-0.008,0.005,0.014,0.001,-0.011,0.009,0.03,-0.104,-0.12,-0.067,-0.075,-0.03
-0.008,0.001,0.009,0.003,-0.009,0.005,0.03,-0.109,-0.122,-0.064,-0.075,-0.03
-0.006,0.0,0.006,0.003,-0.006,0.002,0.026,-0.112,-0.126,-0.065,-0.075,-0.029
-0.002,0.0,0.002,0.001,-0.002,0.001,0.024,-0.117,-0.129,-0.065,-0.075,-0.031
0.0,0.0,0.0,0.0,0.0,0.0,0.026,-0.12,-0.133,-0.065,-0.075,-0.035
0.0,0.0,0.0,0.0,0.0,0.0,0.03,-0.12,-0.135,-0.067,-0.07,-0.035
0.0,0.0,0.0,0.0,0.0,0.0,0.03,-0.12,-0.135,-0.07,-0.07,-0.035
0.0,0.0,0.0,0.0,0.0,0.0,0.031,-0.12,-0.135,-0.07,-0.07,-0.035
0.0,0.0,0.0,0.0,0.0,0.0,0.036,-0.12,-0.135,-0.07,-0.07,-0.035
0.0,0.0,0.0,0.0,0.0,0.0,0.034,-0.116,-0.135,-0.07,-0.07,-0.032
0.0,0.0,0.0,0.0,0.0,0.0,0.038,-0.114,-0.13,-0.07,-0.067,-0.029
0.0,0.0,-0.001,0.0,0.001,0.0,0.04,-0.115,-0.13,-0.066,-0.064,-0.027
-0.004,-0.003,0.001,0.004,-0.002,-0.001,0.04,-0.115,-0.13,-0.065,-0.065,-0.023
-0.004,-0.005,-0.001,0.005,-0.001,-0.003,0.04,-0.115,-0.13,-0.065,-0.065,-0.021
-0.009,-0.005,0.003,0.007,-0.006,-0.001,0.039,-0.114,-0.131,-0.06,-0.065,-0.018
-0.014,-0.009,0.005,0.011,-0.009,-0.002,0.041,-0.107,-0.128,-0.061,-0.065,-0.015
-0.017,-0.013,0.004,0.014,-0.011,-0.004,0.039,-0.1,-0.119,-0.059,-0.061,-0.015
-0.011,-0.004,0.006,0.007,-0.008,0.001,0.042,-0.094,-0.111,-0.053,-0.055,-0.01
0.004,0.007,0.003,-0.006,0.0,0.005,0.037,-0.087,-0.108,-0.052,-0.053,-0.012
0.018,0.055,0.037,-0.037,-0.01,0.046,0.052,-0.073,-0.078,-0.037,-0.043,0.003
0.036,0.105,0.069,-0.071,-0.017,0.087,0.09,-0.038,-0.05,-0.009,-0.019,0.031
0.061,0.155,0.094,-0.109,-0.017,0.125,0.067,-0.05,-0.049,0.004,-0.001,0.048
0.082,0.202,0.119,-0.142,-0.019,0.16,0.017,-0.094,-0.056,0.007,0.006,0.06
0.079,0.165,0.086,-0.123,-0.003,0.125,-0.019,-0.097,-0.056,0.014,0.015,0.05
0.073,0.126,0.053,-0.1,0.01,0.089,-0.02,-0.106,-0.06,0.006,0.017,0.044
0.049,0.073,0.025,-0.061,0.012,0.049,-0.003,-0.091,-0.077,-0.021,-0.012,0.031
0.002,0.027,0.025,-0.015,-0.011,0.026,-0.014,-0.114,-0.086,-0.029,-0.028,0.01
-0.038,-0.019,0.018,0.028,-0.028,0.0,0.014,-0.11,-0.124,-0.068,-0.055,-0.017
-0.044,-0.038,0.006,0.041,-0.025,-0.016,-0.004,-0.128,-0.117,-0.06,-0.06,-0.019
-0.052,-0.038,0.014,0.045,-0.033,-0.012,0.028,-0.116,-0.135,-0.078,-0.07,-0.025
-0.038,-0.056,-0.018,0.048,-0.01,-0.037,0.013,-0.124,-0.115,-0.077,-0.073,-0.028
-0.045,-0.033,0.012,0.039,-0.028,-0.011,0.031,-0.134,-0.132,-0.068,-0.066,-0.019
-0.027,-0.07,-0.043,0.049,0.008,-0.056,0.023,-0.104,-0.125,-0.09,-0.088,-0.034
-0.032,-0.063,-0.031,0.047,0.0,-0.047,0.076,-0.029,-0.07,-0.045,-0.07,-0.037
0.023,-0.201,-0.224,0.089,0.123,-0.212,0.507,0.9,0.551,0.112,-0.139,-0.16
0.309,0.527,0.218,-0.418,0.045,0.372,-0.293,0.189,1.515,1.172,0.617,0.351
0.217,1.217,0.999,-0.717,-0.391,1.108,-1.281,-1.94,-0.129,1.076,1.163,0.942
0.079,0.128,0.049,-0.103,0.015,0.089,-1.137,-1.882,-2.095,-0.655,0.195,0.468
0.147,-0.426,-0.573,0.139,0.36,-0.499,-0.828,-1.005,-1.38,-0.841,-0.292,0.052
-0.001,-0.221,-0.221,0.111,0.11,-0.221,-0.168,-0.344,-0.487,-0.296,-0.16,-0.045
-0.033,-0.184,-0.151,0.109,0.06,-0.167,0.096,-0.026,-0.154,-0.137,-0.123,-0.078
-0.014,-0.077,-0.063,0.046,0.024,-0.069,0.072,-0.04,-0.064,-0.047,-0.061,-0.033
-0.029,-0.103,-0.074,0.067,0.023,-0.089,0.133,0.049,-0.044,-0.064,-0.079,-0.051
-0.027,-0.073,-0.046,0.05,0.01,-0.06,0.1,0.021,0.007,-0.025,-0.055,-0.028
-0.032,-0.081,-0.049,0.057,0.009,-0.065,0.134,0.059,0.0,-0.039,-0.061,-0.034
-0.017,-0.072,-0.054,0.045,0.019,-0.063,0.111,0.057,0.041,-0.021,-0.05,-0.025
-0.019,-0.063,-0.044,0.041,0.013,-0.053,0.126,0.069,0.036,-0.018,-0.045,-0.02
-0.009,-0.065,-0.056,0.037,0.024,-0.061,0.134,0.083,0.065,-0.013,-0.044,-0.024
-0.012,-0.056,-0.044,0.034,0.016,-0.05,0.14,0.086,0.083,0.0,-0.033,-0.024
-0.016,-0.064,-0.047,0.04,0.015,-0.055,0.147,0.105,0.101,0.009,-0.034,-0.027
-0.021,-0.057,-0.037,0.039,0.008,-0.047,0.146,0.12,0.124,0.027,-0.025,-0.024
-0.027,-0.062,-0.035,0.045,0.004,-0.048,0.159,0.154,0.151,0.033,-0.024,-0.026
-0.027,-0.057,-0.03,0.042,0.002,-0.044,0.167,0.174,0.19,0.049,-0.018,-0.025
-0.014,-0.038,-0.024,0.026,0.005,-0.031,0.18,0.207,0.232,0.066,-0.008,-0.018
0.01,-0.017,-0.027,0.004,0.018,-0.021,0.206,0.247,0.279,0.087,0.004,-0.008
0.022,0.001,-0.022,-0.011,0.022,-0.01,0.224,0.293,0.332,0.121,0.018,0.006
0.033,0.031,-0.002,-0.032,0.017,0.014,0.237,0.344,0.395,0.153,0.035,0.027
0.03,0.058,0.028,-0.044,0.0,0.043,0.249,0.393,0.463,0.198,0.07,0.047
0.043,0.1,0.057,-0.072,-0.007,0.078,0.241,0.415,0.53,0.253,0.108,0.075
0.066,0.141,0.075,-0.104,-0.005,0.108,0.229,0.4,0.573,0.29,0.135,0.104
0.066,0.176,0.11,-0.121,-0.022,0.142,0.197,0.384,0.584,0.322,0.17,0.133
0.086,0.22,0.134,-0.153,-0.025,0.177,0.154,0.34,0.571,0.328,0.202,0.165
0.078,0.227,0.15,-0.153,-0.036,0.188,0.116,0.269,0.544,0.314,0.208,0.177
0.074,0.226,0.153,-0.15,-0.04,0.189,0.077,0.203,0.492,0.312,0.197,0.165
0.076,0.208,0.132,-0.142,-0.028,0.169,0.056,0.147,0.408,0.275,0.182,0.148
0.041,0.158,0.117,-0.1,-0.039,0.138,0.049,0.097,0.316,0.204,0.138,0.126
0.014,0.113,0.099,-0.064,-0.043,0.106,0.043,0.043,0.228,0.137,0.088,0.093
-0.003,0.069,0.072,-0.033,-0.038,0.07,0.036,0.001,0.145,0.074,0.051,0.055
-0.019,0.031,0.05,-0.006,-0.035,0.04,0.029,-0.026,0.077,0.026,-0.002,0.029
-0.029,0.011,0.04,0.008,-0.034,0.025,0.025,-0.039,0.024,-0.015,-0.035,0.023
-0.029,0.001,0.03,0.014,-0.03,0.016,0.024,-0.04,-0.011,-0.044,-0.045,0.016
-0.034,-0.011,0.024,0.022,-0.029,0.006,0.042,-0.04,-0.018,-0.047,-0.056,0.008
-0.04,-0.019,0.021,0.029,-0.03,0.001,0.052,-0.037,-0.01,-0.044,-0.057,0.001
-0.045,-0.028,0.017,0.036,-0.031,-0.005,0.049,-0.017,-0.006,-0.041,-0.054,-0.006
-0.049,-0.035,0.014,0.041,-0.031,-0.011,0.058,0.001,0.008,-0.038,-0.055,-0.01
-0.045,-0.035,0.01,0.04,-0.027,-0.012,0.062,0.016,0.022,-0.035,-0.055,-0.01
-0.041,-0.035,0.006,0.038,-0.023,-0.014,0.059,0.024,0.018,-0.035,-0.055,-0.01
-0.034,-0.035,-0.001,0.035,-0.016,-0.018,0.057,0.028,0.015,-0.035,-0.056,-0.01
-0.027,-0.035,-0.008,0.032,-0.009,-0.021,0.054,0.043,0.012,-0.035,-0.06,-0.01
-0.021,-0.035,-0.014,0.028,-0.003,-0.024,0.051,0.036,0.007,-0.036,-0.06,-0.014
-0.017,-0.038,-0.022,0.028,0.002,-0.03,0.049,0.024,0.005,-0.034,-0.059,-0.015
-0.02,-0.044,-0.024,0.032,0.002,-0.034,0.045,0.012,-0.003,-0.046,-0.068,-0.015
-0.028,-0.047,-0.02,0.037,-0.004,-0.033,0.037,-0.002,-0.012,-0.06,-0.072,-0.02
-0.032,-0.052,-0.02,0.042,-0.006,-0.036,0.031,-0.012,-0.027,-0.063,-0.069,-0.02
-0.037,-0.055,-0.018,0.046,-0.009,-0.036,0.024,-0.025,-0.043,-0.068,-0.07,-0.021
-0.043,-0.058,-0.014,0.051,-0.015,-0.036,0.017,-0.035,-0.052,-0.072,-0.07,-0.025
-0.044,-0.06,-0.016,0.053,-0.014,-0.038,0.017,-0.041,-0.065,-0.075,-0.07,-0.025
-0.046,-0.056,-0.011,0.051,-0.017,-0.033,0.021,-0.044,-0.075,-0.078,-0.071,-0.025
-0.047,-0.054,-0.007,0.051,-0.019,-0.031,0.02,-0.049,-0.08,-0.082,-0.075,-0.025
-0.055,-0.056,-0.001,0.056,-0.026,-0.028,0.023,-0.046,-0.08,-0.085,-0.075,-0.025
-0.051,-0.054,-0.003,0.053,-0.024,-0.028,0.026,-0.046,-0.08,-0.088,-0.075,-0.025
-0.033,-0.057,-0.024,0.045,-0.004,-0.04,0.024,-0.059,-0.084,-0.094,-0.079,-0.025
-0.026,-0.052,-0.026,0.039,0.0,-0.038,0.021,-0.06,-0.091,-0.101,-0.08,-0.025
-0.032,-0.053,-0.02,0.042,-0.006,-0.036,0.018,-0.06,-0.097,-0.105,-0.08,-0.025
-0.051,-0.069,-0.018,0.061,-0.017,-0.043,0.016,-0.065,-0.105,-0.105,-0.08,-0.026
-0.057,-0.071,-0.013,0.064,-0.022,-0.042,0.012,-0.065,-0.115,-0.105,-0.08,-0.023
-0.059,-0.069,-0.01,0.064,-0.025,-0.039,0.01,-0.067,-0.121,-0.105,-0.081,-0.02
-0.057,-0.071,-0.013,0.065,-0.022,-0.042,0.007,-0.07,-0.119,-0.105,-0.085,-0.02
-0.042,-0.069,-0.027,0.056,-0.007,-0.048,0.005,-0.073,-0.123,-0.105,-0.087,-0.02
-0.04,-0.071,-0.031,0.055,-0.004,-0.051,0.005,-0.075,-0.125,-0.105,-0.09,-0.02
-0.04,-0.07,-0.03,0.055,-0.005,-0.05,0.001,-0.079,-0.125,-0.105,-0.094,-0.02
-0.044,-0.07,-0.026,0.057,-0.009,-0.048,0.0,-0.08,-0.125,-0.105,-0.095,-0.024
-0.045,-0.071,-0.025,0.059,-0.01,-0.047,0.0,-0.077,-0.125,-0.105,-0.092,-0.025
-0.045,-0.069,-0.024,0.057,-0.01,-0.046,0.004,-0.071,-0.126,-0.106,-0.087,-0.025
-0.052,-0.072,-0.02,0.062,-0.016,-0.046,0.008,-0.066,-0.125,-0.104,-0.085,-0.026
-0.052,-0.061,-0.009,0.057,-0.021,-0.034,0.011,-0.062,-0.125,-0.098,-0.08,-0.025
-0.052,-0.058,-0.006,0.055,-0.023,-0.032,0.015,-0.056,-0.122,-0.091,-0.077,-0.024
-0.043,-0.035,0.008,0.039,-0.026,-0.013,0.02,-0.054,-0.103,-0.088,-0.072,-0.008
-0.02,0.024,0.044,-0.002,-0.032,0.033,0.053,-0.019,-0.076,-0.071,-0.045,0.012
0.003,0.066,0.063,-0.034,-0.031,0.064,0.053,-0.006,-0.044,-0.047,-0.012,0.032
0.012,0.125,0.113,-0.069,-0.051,0.119,-0.002,-0.05,-0.031,-0.042,0.011,0.054
0.023,0.125,0.102,-0.074,-0.04,0.113,-0.034,-0.061,-0.05,-0.052,0.003,0.047
0.038,0.082,0.044,-0.06,-0.003,0.063,-0.056,-0.075,-0.05,-0.048,-0.008,0.04
0.012,0.032,0.02,-0.022,-0.004,0.026,-0.035,-0.067,-0.077,-0.058,-0.02,0.03
-0.022,-0.019,0.002,0.02,-0.012,-0.008,-0.016,-0.071,-0.087,-0.056,-0.033,0.021
-0.054,-0.046,0.008,0.05,-0.031,-0.019,0.004,-0.073,-0.112,-0.073,-0.052,0.004
-0.069,-0.087,-0.017,0.078,-0.026,-0.052,0.001,-0.062,-0.137,-0.111,-0.079,-0.026
-0.077,-0.084,-0.007,0.081,-0.035,-0.045,-0.011,-0.081,-0.138,-0.104,-0.066,-0.021
-0.085,-0.12,-0.034,0.103,-0.025,-0.077,0.007,-0.04,-0.149,-0.13,-0.087,-0.041
-0.078,-0.1,-0.023,0.089,-0.027,-0.061,-0.032,-0.087,-0.123,-0.096,-0.061,-0.026
-0.086,-0.134,-0.048,0.11,-0.019,-0.09,0.022,-0.014,-0.155,-0.137,-0.091,-0.053
-0.064,-0.114,-0.049,0.09,-0.007,-0.081,-0.048,-0.097,-0.104,-0.093,-0.069,-0.032
-0.075,-0.222,-0.147,0.149,0.036,-0.184,0.327,0.542,0.131,-0.079,-0.155,-0.131
0.154,-0.003,-0.156,-0.075,0.155,-0.079,0.192,0.921,1.218,0.605,0.157,0.019
0.264,1.049,0.785,-0.657,-0.261,0.916,-1.01,-1.129,0.961,1.411,1.118,0.808
0.035,0.64,0.605,-0.338,-0.285,0.623,-1.255,-2.152,-1.514,0.013,0.673,0.744
0.082,-0.394,-0.476,0.156,0.279,-0.435,-1.04,-1.315,-1.894,-1.043,-0.248,0.145
0.036,-0.322,-0.358,0.143,0.197,-0.34,-0.529,-0.57,-0.747,-0.503,-0.215,-0.019
-0.088,-0.243,-0.155,0.165,0.034,-0.198,0.022,-0.04,-0.272,-0.238,-0.166,-0.077
-0.06,-0.16,-0.099,0.11,0.02,-0.129,-0.001,0.006,-0.082,-0.12,-0.1,-0.033
-0.067,-0.133,-0.066,0.1,0.0,-0.1,0.071,0.062,-0.081,-0.1,-0.084,-0.052
-0.05,-0.137,-0.087,0.094,0.019,-0.112,0.068,0.086,-0.011,-0.071,-0.076,-0.044
-0.053,-0.116,-0.063,0.085,0.005,-0.09,0.075,0.09,-0.009,-0.062,-0.055,-0.033
-0.048,-0.128,-0.08,0.088,0.016,-0.104,0.08,0.116,0.012,-0.069,-0.064,-0.037
-0.043,-0.106,-0.063,0.074,0.01,-0.084,0.073,0.102,0.028,-0.05,-0.048,-0.021
-0.041,-0.115,-0.073,0.078,0.016,-0.094,0.087,0.13,0.034,-0.06,-0.055,-0.026
-0.037,-0.1,-0.063,0.069,0.013,-0.081,0.075,0.137,0.061,-0.036,-0.043,-0.014
-0.037,-0.1,-0.063,0.069,0.013,-0.081,0.091,0.161,0.069,-0.029,-0.045,-0.016
-0.034,-0.094,-0.061,0.064,0.014,-0.077,0.087,0.164,0.105,-0.012,-0.038,-0.01
-0.034,-0.089,-0.055,0.062,0.011,-0.072,0.096,0.18,0.119,0.002,-0.032,-0.006
-0.03,-0.087,-0.056,0.059,0.013,-0.072,0.099,0.211,0.156,0.013,-0.027,-0.004
-0.028,-0.079,-0.05,0.054,0.011,-0.065,0.11,0.244,0.195,0.027,-0.02,0.005
-0.023,-0.071,-0.048,0.047,0.013,-0.059,0.126,0.277,0.229,0.038,-0.015,0.011
-0.015,-0.058,-0.042,0.037,0.014,-0.05,0.138,0.322,0.284,0.06,0.002,0.021
-0.007,-0.028,-0.021,0.018,0.007,-0.024,0.158,0.376,0.344,0.097,0.026,0.026
0.009,0.016,0.006,-0.012,0.001,0.011,0.159,0.426,0.408,0.137,0.052,0.033
0.02,0.053,0.033,-0.037,-0.007,0.043,0.136,0.467,0.478,0.186,0.082,0.058
0.042,0.096,0.054,-0.069,-0.007,0.075,0.108,0.464,0.533,0.235,0.124,0.088
0.055,0.145,0.091,-0.1,-0.018,0.118,0.072,0.451,0.559,0.277,0.165,0.125
0.061,0.176,0.115,-0.119,-0.027,0.145,0.028,0.43,0.561,0.296,0.195,0.156
0.067,0.188,0.121,-0.128,-0.027,0.154,-0.007,0.371,0.537,0.29,0.21,0.17
0.052,0.192,0.14,-0.122,-0.044,0.166,-0.056,0.304,0.492,0.285,0.205,0.169
0.056,0.186,0.13,-0.121,-0.037,0.158,-0.103,0.238,0.428,0.259,0.196,0.164
0.057,0.151,0.094,-0.104,-0.019,0.122,-0.107,0.178,0.334,0.198,0.162,0.138
0.033,0.092,0.059,-0.063,-0.013,0.076,-0.102,0.128,0.246,0.128,0.106,0.094
0.005,0.044,0.039,-0.025,-0.017,0.041,-0.1,0.079,0.176,0.068,0.062,0.061
-0.016,0.009,0.025,0.003,-0.02,0.016,-0.095,0.045,0.094,0.009,0.021,0.032
-0.032,-0.018,0.014,0.025,-0.023,-0.002,-0.092,0.039,0.019,-0.038,-0.006,0.013
-0.047,-0.034,0.013,0.04,-0.029,-0.01,-0.088,0.041,-0.026,-0.056,-0.014,0.003
-0.055,-0.048,0.006,0.051,-0.03,-0.021,-0.085,0.039,-0.036,-0.069,-0.019,-0.005
-0.063,-0.064,0.0,0.063,-0.031,-0.032,-0.081,0.041,-0.028,-0.072,-0.024,-0.014
-0.059,-0.066,-0.008,0.063,-0.025,-0.037,-0.078,0.038,-0.023,-0.069,-0.031,-0.02
-0.06,-0.075,-0.015,0.067,-0.022,-0.045,-0.073,0.055,-0.017,-0.07,-0.034,-0.019
-0.062,-0.084,-0.023,0.073,-0.019,-0.053,-0.07,0.072,-0.013,-0.065,-0.031,-0.022
-0.056,-0.085,-0.029,0.07,-0.013,-0.057,-0.066,0.076,-0.006,-0.065,-0.029,-0.025
-0.051,-0.085,-0.034,0.068,-0.008,-0.059,-0.065,0.084,0.001,-0.066,-0.028,-0.026
-0.039,-0.085,-0.046,0.062,0.004,-0.065,-0.065,0.077,0.007,-0.07,-0.023,-0.022
-0.033,-0.085,-0.052,0.059,0.01,-0.068,-0.06,0.068,0.014,-0.075,-0.031,-0.02
-0.037,-0.086,-0.049,0.062,0.006,-0.067,-0.06,0.061,0.003,-0.079,-0.049,-0.033
-0.043,-0.09,-0.047,0.067,0.002,-0.068,-0.061,0.054,-0.018,-0.086,-0.051,-0.036
-0.046,-0.09,-0.044,0.068,-0.001,-0.066,-0.067,0.045,-0.034,-0.091,-0.049,-0.034
-0.045,-0.09,-0.046,0.068,0.0,-0.067,-0.074,0.035,-0.046,-0.096,-0.047,-0.035
-0.037,-0.09,-0.053,0.064,0.008,-0.071,-0.075,0.025,-0.062,-0.101,-0.044,-0.035
-0.035,-0.09,-0.055,0.063,0.01,-0.072,-0.077,0.016,-0.069,-0.104,-0.047,-0.035
-0.038,-0.093,-0.055,0.066,0.009,-0.074,-0.08,0.015,-0.066,-0.109,-0.058,-0.035
-0.037,-0.096,-0.06,0.066,0.012,-0.077,-0.08,0.015,-0.063,-0.11,-0.061,-0.035
-0.039,-0.099,-0.061,0.069,0.011,-0.08,-0.08,0.01,-0.061,-0.111,-0.06,-0.035
-0.043,-0.101,-0.059,0.072,0.008,-0.08,-0.08,0.01,-0.057,-0.115,-0.065,-0.036
-0.051,-0.105,-0.055,0.078,0.003,-0.08,-0.08,0.009,-0.054,-0.115,-0.065,-0.034
-0.048,-0.104,-0.055,0.077,0.004,-0.079,-0.08,0.004,-0.059,-0.123,-0.064,-0.039
-0.047,-0.1,-0.053,0.074,0.003,-0.076,-0.08,0.001,-0.061,-0.126,-0.06,-0.05
-0.051,-0.1,-0.049,0.075,-0.001,-0.075,-0.08,-0.002,-0.06,-0.125,-0.057,-0.05
-0.05,-0.1,-0.05,0.075,0.0,-0.075,-0.08,-0.007,-0.06,-0.123,-0.055,-0.05
-0.047,-0.1,-0.053,0.074,0.003,-0.076,-0.08,-0.009,-0.06,-0.119,-0.051,-0.05
-0.043,-0.1,-0.057,0.072,0.007,-0.078,-0.08,-0.017,-0.06,-0.12,-0.05,-0.05
-0.044,-0.104,-0.059,0.074,0.008,-0.081,-0.081,-0.028,-0.057,-0.116,-0.046,-0.05
-0.041,-0.105,-0.064,0.073,0.012,-0.084,-0.08,-0.025,-0.054,-0.115,-0.045,-0.045
-0.042,-0.106,-0.064,0.074,0.011,-0.085,-0.077,-0.026,-0.051,-0.115,-0.045,-0.045
-0.049,-0.108,-0.06,0.079,0.006,-0.084,-0.074,-0.023,-0.049,-0.11,-0.04,-0.045
-0.052,-0.113,-0.06,0.083,0.004,-0.086,-0.071,-0.018,-0.046,-0.111,-0.041,-0.045
-0.051,-0.106,-0.055,0.079,0.002,-0.08,-0.068,-0.021,-0.043,-0.109,-0.039,-0.045
-0.053,-0.109,-0.056,0.082,0.002,-0.082,-0.066,-0.011,-0.031,-0.1,-0.032,-0.042
-0.04,-0.082,-0.041,0.062,0.001,-0.061,-0.05,0.006,-0.016,-0.094,-0.027,-0.028
-0.032,-0.031,0.001,0.032,-0.017,-0.015,-0.026,0.033,0.0,-0.077,-0.014,-0.013
-0.02,0.012,0.032,0.004,-0.026,0.022,0.002,0.042,0.03,-0.061,0.019,0.007
0.028,0.094,0.067,-0.061,-0.02,0.08,-0.051,0.013,0.04,-0.058,0.041,0.04
0.032,0.11,0.078,-0.071,-0.023,0.094,-0.123,0.006,0.025,-0.063,0.028,0.042
0.028,0.07,0.042,-0.05,-0.007,0.056,-0.123,-0.012,0.019,-0.057,0.024,0.029
0.021,0.022,0.001,-0.021,0.009,0.012,-0.106,-0.018,0.0,-0.063,0.011,0.018
0.004,-0.027,-0.031,0.012,0.017,-0.028,-0.097,-0.029,-0.006,-0.066,0.003,0.004
-0.027,-0.068,-0.042,0.048,0.008,-0.055,-0.065,-0.037,-0.044,-0.097,-0.024,-0.024
-0.047,-0.108,-0.061,0.078,0.007,-0.084,-0.063,-0.029,-0.052,-0.127,-0.055,-0.046
-0.048,-0.095,-0.047,0.072,-0.001,-0.071,-0.073,-0.056,-0.045,-0.117,-0.044,-0.041
-0.055,-0.125,-0.069,0.09,0.007,-0.097,-0.05,-0.024,-0.049,-0.139,-0.067,-0.06
-0.048,-0.1,-0.052,0.074,0.002,-0.076,-0.089,-0.074,-0.027,-0.105,-0.04,-0.038
-0.063,-0.135,-0.071,0.1,0.004,-0.103,-0.03,-0.017,-0.052,-0.15,-0.073,-0.065
-0.046,-0.113,-0.067,0.08,0.011,-0.09,-0.093,-0.074,-0.009,-0.094,-0.039,-0.042
-0.054,-0.25,-0.196,0.152,0.071,-0.223,0.273,0.565,0.22,-0.094,-0.141,-0.167
0.156,0.022,-0.134,-0.089,0.145,-0.056,0.161,0.87,1.298,0.626,0.21,0.009
0.237,1.067,0.83,-0.652,-0.296,0.948,-0.979,-1.115,0.904,1.353,1.14,0.781
0.007,0.591,0.584,-0.299,-0.289,0.587,-1.171,-2.006,-1.527,-0.125,0.609,0.663
0.048,-0.393,-0.441,0.173,0.245,-0.417,-0.976,-1.177,-1.763,-1.07,-0.254,0.098
0.009,-0.332,-0.341,0.162,0.175,-0.336,-0.524,-0.483,-0.64,-0.494,-0.201,-0.051
-0.06,-0.25,-0.191,0.155,0.066,-0.22,-0.013,-0.003,-0.187,-0.242,-0.145,-0.116
-0.025,-0.151,-0.125,0.088,0.05,-0.138,-0.036,0.011,0.004,-0.128,-0.069,-0.074
-0.043,-0.138,-0.096,0.091,0.027,-0.117,0.032,0.076,0.012,-0.113,-0.073,-0.081
-0.024,-0.134,-0.109,0.079,0.043,-0.121,0.012,0.096,0.078,-0.084,-0.062,-0.071
-0.036,-0.119,-0.083,0.077,0.024,-0.101,0.026,0.1,0.081,-0.071,-0.045,-0.064
-0.03,-0.127,-0.097,0.079,0.034,-0.112,0.036,0.127,0.106,-0.067,-0.05,-0.066
-0.032,-0.106,-0.075,0.069,0.022,-0.091,0.029,0.111,0.117,-0.05,-0.035,-0.054
-0.03,-0.115,-0.085,0.072,0.028,-0.1,0.041,0.139,0.126,-0.052,-0.043,-0.057
-0.023,-0.1,-0.077,0.061,0.028,-0.088,0.036,0.137,0.15,-0.035,-0.03,-0.047
-0.022,-0.103,-0.081,0.063,0.029,-0.092,0.058,0.156,0.161,-0.035,-0.032,-0.047
-0.016,-0.097,-0.08,0.056,0.032,-0.088,0.051,0.165,0.195,-0.017,-0.024,-0.042
-0.014,-0.093,-0.079,0.054,0.033,-0.086,0.062,0.181,0.21,-0.009,-0.017,-0.038
-0.009,-0.09,-0.081,0.05,0.036,-0.086,0.063,0.205,0.241,0.008,-0.011,-0.035
-0.013,-0.086,-0.073,0.05,0.031,-0.079,0.071,0.234,0.278,0.026,-0.003,-0.03
-0.01,-0.078,-0.068,0.044,0.029,-0.073,0.092,0.268,0.323,0.041,0.007,-0.02
0.002,-0.058,-0.06,0.028,0.031,-0.059,0.107,0.308,0.376,0.075,0.027,-0.01
0.024,-0.03,-0.055,0.003,0.04,-0.042,0.132,0.358,0.436,0.108,0.053,0.001
0.052,0.007,-0.045,-0.03,0.049,-0.018,0.15,0.407,0.501,0.148,0.078,0.011
0.063,0.045,-0.018,-0.053,0.04,0.013,0.152,0.444,0.566,0.2,0.108,0.039
0.072,0.074,0.002,-0.073,0.035,0.038,0.147,0.457,0.628,0.25,0.148,0.075
0.088,0.118,0.03,-0.103,0.029,0.074,0.117,0.433,0.653,0.281,0.18,0.102
0.097,0.169,0.071,-0.133,0.013,0.12,0.072,0.394,0.645,0.299,0.214,0.131
0.098,0.188,0.09,-0.143,0.004,0.139,0.029,0.354,0.618,0.299,0.227,0.148
0.098,0.191,0.093,-0.145,0.003,0.142,-0.005,0.287,0.568,0.292,0.222,0.143
0.107,0.187,0.08,-0.147,0.013,0.133,-0.033,0.219,0.498,0.27,0.218,0.127
0.085,0.147,0.062,-0.116,0.011,0.104,-0.046,0.17,0.411,0.213,0.187,0.108
0.045,0.095,0.05,-0.07,-0.003,0.073,-0.045,0.124,0.322,0.143,0.138,0.07
0.015,0.055,0.04,-0.035,-0.013,0.047,-0.044,0.079,0.24,0.078,0.087,0.035
-0.022,0.009,0.03,0.006,-0.026,0.019,-0.04,0.041,0.16,0.02,0.044,0.013
-0.034,-0.022,0.012,0.028,-0.023,-0.004,-0.04,0.033,0.096,-0.02,0.02,-0.007
-0.028,-0.035,-0.006,0.032,-0.011,-0.02,-0.038,0.038,0.056,-0.053,0.013,-0.016
-0.033,-0.051,-0.018,0.043,-0.007,-0.034,-0.029,0.041,0.049,-0.082,0.006,-0.022
-0.026,-0.056,-0.029,0.041,0.002,-0.042,-0.021,0.044,0.058,-0.083,-0.002,-0.029
-0.009,-0.05,-0.041,0.029,0.016,-0.045,-0.013,0.051,0.063,-0.078,-0.01,-0.036
-0.006,-0.051,-0.045,0.029,0.02,-0.047,-0.006,0.071,0.081,-0.075,-0.013,-0.043
-0.003,-0.048,-0.045,0.026,0.021,-0.046,-0.005,0.089,0.102,-0.071,-0.01,-0.045
-0.001,-0.045,-0.045,0.023,0.023,-0.045,-0.005,0.096,0.111,-0.067,-0.01,-0.045
0.001,-0.044,-0.045,0.022,0.023,-0.044,-0.005,0.091,0.104,-0.065,-0.01,-0.045
-0.004,-0.049,-0.045,0.027,0.021,-0.047,-0.005,0.084,0.096,-0.07,-0.011,-0.045
-0.021,-0.063,-0.041,0.042,0.01,-0.051,-0.004,0.078,0.088,-0.07,-0.009,-0.045
-0.025,-0.065,-0.04,0.045,0.008,-0.052,-0.008,0.07,0.08,-0.07,-0.018,-0.045
-0.029,-0.068,-0.039,0.049,0.005,-0.053,-0.017,0.065,0.07,-0.072,-0.033,-0.045
-0.035,-0.071,-0.036,0.053,0.001,-0.053,-0.02,0.058,0.056,-0.08,-0.03,-0.045
-0.041,-0.074,-0.033,0.058,-0.003,-0.054,-0.023,0.05,0.04,-0.085,-0.03,-0.045
-0.035,-0.076,-0.04,0.056,0.003,-0.058,-0.025,0.042,0.023,-0.092,-0.028,-0.045
-0.023,-0.075,-0.051,0.049,0.015,-0.062,-0.02,0.034,0.013,-0.102,-0.024,-0.045
-0.027,-0.076,-0.048,0.052,0.011,-0.062,-0.02,0.028,0.009,-0.107,-0.026,-0.048
-0.028,-0.074,-0.045,0.052,0.009,-0.059,-0.021,0.022,0.004,-0.11,-0.025,-0.05
-0.041,-0.084,-0.042,0.062,0.001,-0.063,-0.018,0.018,-0.002,-0.114,-0.025,-0.05
-0.051,-0.091,-0.04,0.071,-0.006,-0.066,-0.031,0.013,-0.008,-0.117,-0.024,-0.053
-0.046,-0.084,-0.039,0.065,-0.003,-0.061,-0.041,0.009,-0.012,-0.121,-0.026,-0.056
-0.035,-0.083,-0.049,0.059,0.007,-0.066,-0.035,0.004,-0.017,-0.125,-0.023,-0.054
-0.022,-0.078,-0.056,0.05,0.017,-0.066,-0.033,0.001,-0.02,-0.123,-0.031,-0.051
-0.027,-0.075,-0.048,0.051,0.011,-0.061,-0.029,-0.002,-0.023,-0.119,-0.04,-0.048
-0.042,-0.087,-0.045,0.065,0.002,-0.066,-0.025,-0.005,-0.028,-0.117,-0.034,-0.046
-0.051,-0.09,-0.039,0.071,-0.006,-0.065,-0.022,-0.007,-0.03,-0.114,-0.028,-0.042
-0.054,-0.09,-0.036,0.073,-0.009,-0.063,-0.019,-0.011,-0.026,-0.111,-0.023,-0.04
-0.058,-0.089,-0.031,0.074,-0.014,-0.06,-0.02,-0.008,-0.025,-0.109,-0.017,-0.038
-0.062,-0.092,-0.03,0.077,-0.016,-0.061,-0.015,0.0,-0.024,-0.107,-0.014,-0.033
-0.064,-0.088,-0.024,0.077,-0.02,-0.056,-0.014,0.006,-0.018,-0.103,-0.009,-0.028
-0.061,-0.083,-0.022,0.072,-0.019,-0.053,-0.015,0.013,-0.021,-0.106,-0.01,-0.024
-0.039,-0.056,-0.016,0.048,-0.011,-0.036,0.001,0.018,-0.013,-0.098,-0.011,-0.019
-0.022,0.0,0.022,0.011,-0.022,0.011,0.008,0.034,0.024,-0.07,0.011,-0.004
-0.023,0.031,0.055,-0.004,-0.039,0.043,0.041,0.054,0.055,-0.041,0.032,0.02
-0.003,0.101,0.104,-0.049,-0.054,0.102,0.011,0.045,0.062,-0.021,0.066,0.047
0.028,0.14,0.112,-0.085,-0.042,0.126,-0.059,0.022,0.052,-0.03,0.074,0.048
0.033,0.099,0.067,-0.066,-0.017,0.083,-0.06,-0.007,0.05,-0.026,0.065,0.039
0.014,0.044,0.03,-0.029,-0.008,0.037,-0.047,-0.008,0.037,-0.043,0.054,0.031
0.005,0.011,0.006,-0.008,-0.001,0.008,-0.047,-0.012,0.032,-0.057,0.028,0.018
-0.041,-0.026,0.015,0.033,-0.028,-0.006,-0.04,-0.023,0.002,-0.065,0.012,-0.004
-0.079,-0.086,-0.007,0.083,-0.036,-0.047,-0.028,-0.013,-0.025,-0.1,-0.007,-0.03
-0.075,-0.069,0.006,0.072,-0.04,-0.031,-0.036,-0.039,-0.039,-0.09,0.001,-0.031
-0.086,-0.105,-0.02,0.096,-0.032,-0.063,-0.003,0.0,-0.047,-0.115,-0.021,-0.049
-0.077,-0.096,-0.018,0.087,-0.029,-0.057,-0.034,-0.044,-0.026,-0.079,0.0,-0.034
-0.08,-0.114,-0.034,0.097,-0.022,-0.074,0.015,0.007,-0.053,-0.115,-0.033,-0.059
-0.066,-0.1,-0.034,0.083,-0.015,-0.067,-0.055,-0.05,-0.016,-0.075,-0.004,-0.036
-0.09,-0.206,-0.116,0.148,0.014,-0.161,0.256,0.439,0.159,-0.068,-0.084,-0.128
0.078,-0.066,-0.144,-0.006,0.111,-0.105,0.343,0.957,1.193,0.506,0.15,-0.041
0.198,0.997,0.8,-0.598,-0.301,0.898,-0.761,-0.773,0.993,1.342,1.079,0.691
-0.02,0.775,0.795,-0.378,-0.408,0.785,-1.11,-1.918,-1.406,0.075,0.755,0.73
-0.005,-0.301,-0.296,0.153,0.146,-0.299,-0.897,-1.171,-1.877,-1.067,-0.171,0.167
-0.001,-0.334,-0.333,0.167,0.166,-0.333,-0.542,-0.477,-0.758,-0.549,-0.187,-0.029
-0.095,-0.238,-0.142,0.167,0.024,-0.19,-0.005,-0.003,-0.218,-0.227,-0.094,-0.091
-0.079,-0.149,-0.07,0.114,-0.004,-0.109,0.01,0.051,0.0,-0.105,-0.027,-0.058
-0.091,-0.116,-0.025,0.104,-0.032,-0.07,0.055,0.094,0.02,-0.081,-0.016,-0.058
-0.077,-0.124,-0.046,0.101,-0.015,-0.085,0.059,0.119,0.082,-0.055,-0.013,-0.054
-0.08,-0.1,-0.02,0.09,-0.03,-0.06,0.074,0.115,0.087,-0.031,0.003,-0.046
-0.075,-0.113,-0.037,0.094,-0.019,-0.074,0.089,0.148,0.11,-0.033,-0.002,-0.05
-0.073,-0.092,-0.019,0.083,-0.027,-0.055,0.07,0.132,0.132,-0.008,0.016,-0.038
-0.07,-0.098,-0.027,0.084,-0.021,-0.063,0.089,0.156,0.139,-0.011,0.012,-0.042
-0.065,-0.083,-0.018,0.074,-0.023,-0.05,0.073,0.145,0.157,0.009,0.031,-0.031
-0.065,-0.081,-0.015,0.074,-0.025,-0.048,0.086,0.163,0.172,0.014,0.038,-0.029
-0.058,-0.072,-0.014,0.065,-0.022,-0.043,0.085,0.172,0.2,0.029,0.04,-0.022
-0.06,-0.066,-0.006,0.063,-0.026,-0.036,0.09,0.184,0.218,0.044,0.041,-0.016
-0.053,-0.06,-0.007,0.057,-0.022,-0.033,0.099,0.218,0.257,0.063,0.049,-0.011
-0.046,-0.045,0.0,0.046,-0.023,-0.022,0.112,0.242,0.293,0.083,0.06,-0.005
-0.036,-0.035,0.001,0.036,-0.018,-0.017,0.121,0.263,0.333,0.106,0.065,0.005
-0.033,-0.025,0.008,0.028,-0.02,-0.008,0.145,0.3,0.381,0.141,0.076,0.015
-0.029,-0.009,0.02,0.019,-0.024,0.005,0.16,0.345,0.441,0.18,0.105,0.025
-0.018,0.023,0.041,-0.003,-0.03,0.032,0.168,0.382,0.506,0.219,0.135,0.042
-0.025,0.052,0.077,-0.013,-0.051,0.064,0.17,0.414,0.574,0.274,0.167,0.06
-0.001,0.097,0.098,-0.048,-0.05,0.097,0.153,0.428,0.636,0.329,0.208,0.093
0.02,0.146,0.126,-0.083,-0.053,0.136,0.139,0.421,0.645,0.362,0.235,0.122
0.02,0.173,0.154,-0.097,-0.067,0.163,0.106,0.394,0.631,0.381,0.264,0.144
0.027,0.202,0.176,-0.115,-0.075,0.189,0.061,0.334,0.61,0.377,0.277,0.155
0.009,0.199,0.19,-0.104,-0.091,0.194,0.021,0.269,0.565,0.37,0.275,0.143
0.013,0.185,0.173,-0.099,-0.08,0.179,0.008,0.22,0.493,0.347,0.269,0.136
0.009,0.162,0.153,-0.086,-0.072,0.157,0.007,0.172,0.397,0.28,0.229,0.123
-0.026,0.114,0.141,-0.044,-0.084,0.127,0.002,0.129,0.312,0.212,0.186,0.091
-0.048,0.076,0.124,-0.014,-0.086,0.1,-0.001,0.091,0.223,0.15,0.143,0.06
-0.06,0.042,0.102,0.009,-0.081,0.072,-0.006,0.056,0.147,0.088,0.092,0.03
-0.074,0.013,0.087,0.03,-0.081,0.05,-0.001,0.043,0.091,0.037,0.064,0.006
-0.084,-0.003,0.081,0.043,-0.082,0.039,0.006,0.046,0.054,0.013,0.055,-0.005
-0.087,-0.013,0.074,0.05,-0.08,0.03,0.012,0.044,0.055,0.016,0.042,-0.01
-0.092,-0.026,0.066,0.058,-0.079,0.02,0.019,0.046,0.055,0.013,0.032,-0.015
-0.086,-0.027,0.059,0.056,-0.072,0.016,0.026,0.06,0.055,0.01,0.03,-0.019
-0.077,-0.024,0.052,0.05,-0.064,0.014,0.033,0.074,0.072,0.01,0.03,-0.024
-0.075,-0.025,0.049,0.05,-0.062,0.012,0.039,0.088,0.088,0.007,0.03,-0.028
-0.071,-0.02,0.05,0.045,-0.06,0.015,0.037,0.092,0.092,0.003,0.03,-0.03
-0.066,-0.02,0.046,0.043,-0.056,0.013,0.032,0.085,0.096,-0.003,0.031,-0.034
-0.065,-0.02,0.045,0.042,-0.055,0.012,0.029,0.082,0.1,-0.006,0.034,-0.036
-0.065,-0.02,0.045,0.042,-0.055,0.012,0.025,0.077,0.089,-0.012,0.03,-0.04
-0.061,-0.02,0.04,0.041,-0.05,0.01,0.021,0.072,0.071,-0.015,0.03,-0.04
-0.056,-0.019,0.037,0.037,-0.046,0.008,0.019,0.068,0.056,-0.01,0.029,-0.035
-0.063,-0.03,0.033,0.046,-0.048,0.002,0.014,0.061,0.04,-0.01,0.024,-0.035
-0.071,-0.04,0.03,0.055,-0.05,-0.005,0.009,0.053,0.024,-0.009,0.025,-0.035
-0.068,-0.044,0.024,0.056,-0.045,-0.01,0.004,0.045,0.012,-0.014,0.023,-0.035
-0.079,-0.045,0.033,0.062,-0.056,-0.006,0.0,0.037,0.004,-0.028,0.018,-0.035
-0.091,-0.045,0.047,0.068,-0.069,0.001,-0.005,0.03,-0.005,-0.03,0.015,-0.037
-0.086,-0.048,0.039,0.067,-0.062,-0.004,-0.005,0.022,-0.013,-0.033,0.012,-0.041
-0.086,-0.05,0.036,0.068,-0.061,-0.007,-0.005,0.016,-0.021,-0.036,0.007,-0.04
-0.081,-0.05,0.031,0.065,-0.056,-0.009,-0.005,0.008,-0.028,-0.033,0.005,-0.04
-0.075,-0.05,0.025,0.062,-0.05,-0.012,-0.005,0.0,-0.034,-0.041,0.009,-0.04
-0.082,-0.05,0.032,0.066,-0.057,-0.009,-0.017,-0.004,-0.043,-0.046,0.012,-0.04
-0.091,-0.049,0.042,0.07,-0.066,-0.004,-0.018,0.001,-0.048,-0.045,0.015,-0.036
-0.09,-0.052,0.039,0.071,-0.065,-0.006,-0.008,0.009,-0.047,-0.045,0.017,-0.032
-0.088,-0.049,0.039,0.068,-0.064,-0.005,-0.003,0.012,-0.042,-0.039,0.02,-0.029
-0.094,-0.052,0.042,0.073,-0.068,-0.005,0.005,0.021,-0.041,-0.041,0.02,-0.024
-0.076,-0.04,0.036,0.058,-0.056,-0.002,0.022,0.022,-0.032,-0.034,0.019,-0.022
-0.059,0.009,0.067,0.025,-0.063,0.037,0.042,0.028,0.005,-0.005,0.034,-0.015
-0.041,0.064,0.104,-0.012,-0.073,0.084,0.071,0.054,0.033,0.024,0.058,-0.001
-0.014,0.133,0.147,-0.059,-0.08,0.14,0.051,0.039,0.035,0.043,0.081,0.03
-0.006,0.154,0.16,-0.074,-0.083,0.157,-0.014,0.013,0.023,0.032,0.084,0.05
0.008,0.12,0.112,-0.064,-0.052,0.116,-0.051,-0.009,0.02,0.029,0.073,0.04
0.0,0.077,0.078,-0.039,-0.039,0.077,-0.033,-0.015,0.006,0.021,0.067,0.028
-0.018,0.031,0.049,-0.007,-0.033,0.04,-0.023,-0.011,0.002,0.006,0.051,0.012
-0.054,0.001,0.054,0.026,-0.054,0.027,-0.025,-0.028,-0.025,-0.011,0.029,-0.007
-0.088,-0.05,0.038,0.068,-0.063,-0.006,-0.006,-0.011,-0.052,-0.058,0.003,-0.041
-0.1,-0.058,0.043,0.079,-0.071,-0.007,-0.025,-0.043,-0.058,-0.054,0.013,-0.045
-0.109,-0.079,0.029,0.094,-0.069,-0.025,0.012,-0.012,-0.06,-0.08,-0.009,-0.057
-0.089,-0.062,0.027,0.075,-0.058,-0.018,-0.025,-0.05,-0.037,-0.055,0.006,-0.043
-0.106,-0.075,0.031,0.09,-0.068,-0.022,0.026,-0.011,-0.062,-0.084,-0.016,-0.057
-0.08,-0.068,0.012,0.073,-0.046,-0.027,-0.03,-0.035,-0.025,-0.05,-0.014,-0.044
-0.09,-0.153,-0.062,0.122,-0.014,-0.107,0.208,0.325,0.092,-0.039,-0.076,-0.124
0.043,-0.11,-0.153,0.034,0.098,-0.131,0.423,0.98,1.076,0.442,0.097,-0.1
0.198,0.928,0.73,-0.563,-0.267,0.829,-0.647,-0.513,1.077,1.356,1.009,0.596
0.005,0.946,0.94,-0.476,-0.468,0.943,-1.128,-1.884,-1.279,0.283,0.864,0.758
-0.005,-0.195,-0.19,0.1,0.093,-0.193,-0.885,-1.228,-1.982,-1.01,-0.087,0.217
0.019,-0.35,-0.368,0.166,0.194,-0.359,-0.578,-0.532,-0.892,-0.582,-0.193,-0.029
-0.088,-0.213,-0.125,0.151,0.019,-0.169,-0.022,-0.051,-0.278,-0.208,-0.103,-0.105
-0.083,-0.132,-0.049,0.108,-0.017,-0.09,0.022,0.049,-0.025,-0.082,-0.03,-0.065
-0.085,-0.089,-0.004,0.087,-0.04,-0.046,0.066,0.075,0.004,-0.042,-0.006,-0.061
-0.065,-0.099,-0.034,0.082,-0.015,-0.066,0.092,0.111,0.053,-0.025,-0.006,-0.062
-0.065,-0.069,-0.004,0.067,-0.031,-0.036,0.074,0.083,0.06,0.002,0.019,-0.048
-0.064,-0.084,-0.02,0.074,-0.022,-0.052,0.097,0.124,0.083,-0.004,0.009,-0.054
-0.06,-0.064,-0.004,0.062,-0.028,-0.034,0.074,0.114,0.102,0.023,0.028,-0.04
-0.064,-0.071,-0.006,0.068,-0.029,-0.038,0.093,0.131,0.108,0.019,0.024,-0.044
-0.057,-0.059,-0.002,0.058,-0.028,-0.031,0.08,0.128,0.128,0.041,0.035,-0.034
-0.069,-0.058,0.011,0.063,-0.04,-0.023,0.095,0.15,0.141,0.049,0.034,-0.035
-0.071,-0.051,0.02,0.061,-0.045,-0.016,0.096,0.163,0.169,0.061,0.046,-0.029
-0.064,-0.043,0.021,0.054,-0.043,-0.011,0.104,0.176,0.187,0.075,0.051,-0.025
-0.057,-0.039,0.018,0.048,-0.038,-0.01,0.11,0.193,0.222,0.091,0.054,-0.023
-0.051,-0.029,0.021,0.04,-0.036,-0.004,0.12,0.216,0.257,0.118,0.072,-0.015
-0.045,-0.026,0.019,0.036,-0.032,-0.003,0.135,0.251,0.301,0.136,0.071,-0.01
-0.032,-0.015,0.017,0.023,-0.024,0.001,0.145,0.283,0.36,0.163,0.088,-0.002
-0.014,0.001,0.015,0.006,-0.015,0.008,0.168,0.32,0.417,0.206,0.12,0.004
0.004,0.035,0.032,-0.02,-0.014,0.033,0.182,0.36,0.477,0.247,0.135,0.022
0.01,0.073,0.063,-0.042,-0.027,0.068,0.179,0.397,0.55,0.304,0.172,0.053
0.028,0.11,0.082,-0.069,-0.027,0.096,0.167,0.407,0.603,0.35,0.211,0.071
0.045,0.154,0.109,-0.1,-0.032,0.131,0.153,0.406,0.614,0.385,0.24,0.099
0.049,0.192,0.143,-0.121,-0.048,0.168,0.122,0.387,0.606,0.413,0.281,0.134
0.049,0.211,0.161,-0.13,-0.056,0.186,0.075,0.333,0.593,0.421,0.3,0.145
0.05,0.211,0.161,-0.131,-0.055,0.186,0.036,0.269,0.543,0.41,0.302,0.132
0.056,0.207,0.151,-0.132,-0.048,0.179,0.021,0.207,0.463,0.359,0.284,0.121
0.031,0.177,0.147,-0.104,-0.058,0.162,0.018,0.154,0.367,0.29,0.239,0.108
-0.004,0.129,0.133,-0.063,-0.068,0.131,0.012,0.112,0.27,0.222,0.19,0.084
-0.034,0.081,0.116,-0.024,-0.075,0.098,0.007,0.083,0.191,0.155,0.145,0.049
-0.051,0.051,0.102,-0.001,-0.077,0.077,0.001,0.044,0.111,0.097,0.105,0.011
-0.059,0.029,0.088,0.015,-0.074,0.058,0.004,0.027,0.055,0.056,0.07,-0.004
-0.078,-0.002,0.076,0.04,-0.077,0.036,0.011,0.031,0.022,0.024,0.054,-0.008
-0.074,-0.011,0.063,0.042,-0.069,0.026,0.017,0.031,0.004,0.009,0.052,-0.016
-0.062,-0.009,0.052,0.035,-0.057,0.021,0.024,0.036,0.01,0.011,0.048,-0.022
-0.06,-0.011,0.05,0.035,-0.055,0.02,0.031,0.034,0.02,0.009,0.045,-0.029
-0.06,-0.009,0.05,0.035,-0.055,0.02,0.04,0.055,0.032,0.013,0.041,-0.027
-0.057,-0.01,0.046,0.033,-0.051,0.018,0.048,0.073,0.048,0.022,0.037,-0.024
-0.058,-0.013,0.045,0.035,-0.051,0.016,0.054,0.078,0.059,0.03,0.035,-0.025
-0.061,-0.016,0.045,0.038,-0.052,0.014,0.052,0.086,0.059,0.038,0.035,-0.025
-0.055,-0.014,0.04,0.035,-0.047,0.012,0.047,0.079,0.051,0.035,0.035,-0.025
-0.052,-0.016,0.036,0.033,-0.044,0.01,0.045,0.072,0.043,0.029,0.035,-0.026
-0.048,-0.015,0.033,0.031,-0.04,0.009,0.04,0.066,0.034,0.026,0.035,-0.03
-0.045,-0.016,0.029,0.031,-0.037,0.006,0.037,0.059,0.028,0.021,0.03,-0.03
-0.058,-0.033,0.025,0.045,-0.042,-0.003,0.033,0.053,0.017,0.016,0.03,-0.03
-0.062,-0.037,0.025,0.049,-0.043,-0.006,0.026,0.043,0.001,0.012,0.029,-0.03
-0.06,-0.034,0.025,0.047,-0.042,-0.005,0.019,0.031,-0.015,0.006,0.024,-0.03
-0.06,-0.035,0.025,0.047,-0.042,-0.005,0.012,0.02,-0.027,0.001,0.025,-0.034
-0.056,-0.031,0.025,0.043,-0.04,-0.002,0.004,0.01,-0.04,-0.004,0.023,-0.035
-0.054,-0.03,0.025,0.041,-0.04,-0.002,-0.003,0.005,-0.049,-0.01,0.017,-0.035
-0.057,-0.031,0.025,0.043,-0.041,-0.003,-0.002,0.0,-0.05,-0.015,0.013,-0.04
-0.069,-0.04,0.03,0.055,-0.049,-0.005,0.001,-0.005,-0.05,-0.02,0.008,-0.04
-0.072,-0.042,0.03,0.057,-0.051,-0.006,0.0,-0.012,-0.051,-0.02,0.004,-0.04
-0.069,-0.039,0.03,0.054,-0.05,-0.004,0.005,-0.014,-0.061,-0.022,-0.001,-0.04
-0.07,-0.04,0.03,0.055,-0.05,-0.005,0.005,-0.01,-0.062,-0.025,0.007,-0.04
-0.066,-0.036,0.03,0.051,-0.047,-0.003,0.005,-0.01,-0.06,-0.026,0.011,-0.041
-0.064,-0.034,0.03,0.049,-0.046,-0.002,0.006,-0.009,-0.057,-0.022,0.021,-0.038
-0.068,-0.034,0.034,0.051,-0.051,0.0,0.003,-0.012,-0.055,-0.014,0.025,-0.043
-0.053,0.009,0.062,0.022,-0.058,0.035,0.021,0.005,-0.052,-0.006,0.03,-0.024
-0.04,0.053,0.092,-0.006,-0.066,0.072,0.054,0.033,-0.022,0.016,0.063,0.011
-0.026,0.097,0.123,-0.036,-0.074,0.11,0.066,0.039,0.014,0.049,0.087,0.033
-0.001,0.155,0.156,-0.077,-0.079,0.156,0.009,0.013,0.021,0.066,0.109,0.053
-0.003,0.143,0.146,-0.07,-0.075,0.145,-0.048,-0.025,0.009,0.057,0.103,0.049
-0.004,0.105,0.109,-0.05,-0.057,0.106,-0.05,-0.048,-0.012,0.056,0.089,0.042
-0.02,0.053,0.073,-0.016,-0.047,0.063,-0.028,-0.032,-0.033,0.023,0.074,0.029
-0.042,0.023,0.065,0.009,-0.054,0.044,-0.034,-0.047,-0.038,0.004,0.062,0.016
-0.073,-0.016,0.058,0.044,-0.065,0.021,-0.011,-0.035,-0.073,-0.028,0.028,-0.017
-0.093,-0.05,0.043,0.071,-0.068,-0.004,-0.019,-0.041,-0.081,-0.045,0.015,-0.03
-0.107,-0.051,0.056,0.079,-0.081,0.002,-0.003,-0.048,-0.104,-0.055,0.018,-0.03
-0.105,-0.076,0.029,0.091,-0.067,-0.023,0.005,-0.033,-0.086,-0.054,0.008,-0.043
-0.108,-0.054,0.054,0.081,-0.081,0.0,-0.008,-0.066,-0.101,-0.04,0.02,-0.028
-0.112,-0.092,0.02,0.101,-0.066,-0.036,0.021,-0.012,-0.095,-0.069,-0.005,-0.045
-0.091,-0.067,0.024,0.079,-0.057,-0.021,-0.004,-0.017,-0.067,-0.009,0.016,-0.035
-0.072,-0.226,-0.154,0.149,0.042,-0.19,0.447,0.783,0.446,0.065,-0.095,-0.176
0.163,0.351,0.188,-0.257,-0.012,0.269,-0.033,0.525,1.447,0.994,0.515,0.204
0.148,1.233,1.085,-0.691,-0.469,1.159,-1.123,-1.516,0.079,1.149,1.192,0.859
-0.026,0.339,0.365,-0.157,-0.196,0.352,-1.067,-1.762,-1.999,-0.526,0.375,0.519
0.048,-0.411,-0.459,0.182,0.254,-0.434,-0.838,-0.923,-1.528,-0.925,-0.227,0.068
-0.04,-0.251,-0.211,0.146,0.086,-0.231,-0.286,-0.317,-0.565,-0.35,-0.127,-0.05
-0.085,-0.19,-0.105,0.138,0.01,-0.147,0.062,0.03,-0.158,-0.155,-0.063,-0.089
-0.067,-0.086,-0.02,0.077,-0.023,-0.052,0.017,0.01,-0.042,-0.05,0.002,-0.043
-0.079,-0.098,-0.019,0.089,-0.03,-0.058,0.101,0.098,-0.024,-0.057,-0.021,-0.06
-0.058,-0.068,-0.01,0.063,-0.024,-0.038,0.061,0.073,0.038,-0.02,0.001,-0.043
-0.064,-0.064,0.0,0.064,-0.032,-0.031,0.101,0.101,0.031,-0.025,-0.004,-0.048
-0.056,-0.06,-0.004,0.058,-0.026,-0.032,0.091,0.103,0.056,-0.008,0.003,-0.042
-0.062,-0.048,0.014,0.055,-0.038,-0.017,0.097,0.098,0.057,0.001,0.009,-0.039
-0.06,-0.053,0.007,0.057,-0.033,-0.023,0.104,0.114,0.079,0.006,0.011,-0.04
-0.06,-0.039,0.021,0.049,-0.04,-0.009,0.099,0.102,0.091,0.019,0.021,-0.031
-0.06,-0.043,0.017,0.052,-0.039,-0.013,0.11,0.127,0.113,0.024,0.022,-0.032
-0.055,-0.031,0.025,0.043,-0.04,-0.003,0.104,0.138,0.139,0.043,0.032,-0.025
-0.054,-0.026,0.028,0.04,-0.04,0.001,0.119,0.162,0.168,0.052,0.034,-0.023
-0.046,-0.016,0.03,0.031,-0.038,0.007,0.118,0.18,0.201,0.071,0.041,-0.019
-0.045,-0.01,0.036,0.027,-0.04,0.013,0.121,0.203,0.231,0.091,0.048,-0.013
-0.04,-0.001,0.039,0.02,-0.039,0.019,0.149,0.237,0.281,0.118,0.074,-0.004
-0.027,0.017,0.044,0.005,-0.036,0.03,0.171,0.278,0.335,0.151,0.093,0.005
-0.008,0.038,0.046,-0.015,-0.028,0.042,0.184,0.325,0.399,0.187,0.109,0.016
0.015,0.07,0.055,-0.043,-0.02,0.062,0.196,0.37,0.468,0.236,0.144,0.039
0.024,0.105,0.082,-0.065,-0.029,0.093,0.185,0.396,0.539,0.291,0.183,0.075
0.036,0.15,0.114,-0.093,-0.039,0.132,0.173,0.392,0.578,0.335,0.214,0.102
0.052,0.197,0.145,-0.125,-0.047,0.171,0.15,0.369,0.569,0.359,0.247,0.123
0.07,0.233,0.164,-0.152,-0.047,0.198,0.111,0.331,0.56,0.361,0.274,0.152
0.067,0.242,0.176,-0.155,-0.055,0.209,0.069,0.271,0.533,0.361,0.273,0.168
0.055,0.229,0.174,-0.142,-0.06,0.201,0.038,0.207,0.472,0.343,0.269,0.157
0.05,0.212,0.162,-0.131,-0.057,0.187,0.027,0.154,0.382,0.292,0.254,0.138
0.02,0.177,0.157,-0.099,-0.069,0.167,0.016,0.106,0.277,0.225,0.2,0.111
-0.019,0.129,0.147,-0.055,-0.083,0.138,0.004,0.064,0.185,0.151,0.146,0.069
-0.045,0.083,0.128,-0.019,-0.087,0.105,0.0,0.028,0.104,0.085,0.11,0.037
-0.054,0.055,0.11,-0.001,-0.082,0.082,-0.001,0.004,0.042,0.028,0.08,0.017
-0.061,0.042,0.102,0.009,-0.082,0.072,-0.004,-0.004,-0.006,-0.007,0.049,-0.001
-0.063,0.034,0.096,0.014,-0.08,0.065,-0.006,-0.016,-0.048,-0.028,0.034,-0.018
-0.06,0.028,0.088,0.016,-0.074,0.058,0.0,-0.022,-0.058,-0.043,0.034,-0.022
-0.06,0.021,0.081,0.02,-0.071,0.051,0.008,-0.002,-0.048,-0.038,0.03,-0.02
-0.06,0.014,0.074,0.023,-0.067,0.044,0.014,0.014,-0.042,-0.03,0.027,-0.02
-0.058,0.01,0.068,0.024,-0.063,0.038,0.021,0.027,-0.022,-0.025,0.025,-0.015
-0.052,0.01,0.062,0.021,-0.057,0.036,0.025,0.045,0.002,-0.017,0.023,-0.014
-0.047,0.01,0.057,0.018,-0.052,0.033,0.025,0.044,0.007,-0.011,0.018,-0.016
-0.042,0.01,0.051,0.016,-0.046,0.03,0.025,0.041,0.012,-0.013,0.015,-0.02
-0.035,0.01,0.046,0.012,-0.041,0.028,0.025,0.038,0.015,-0.019,0.012,-0.025
-0.043,0.006,0.049,0.018,-0.046,0.027,0.025,0.035,0.004,-0.023,0.007,-0.029
-0.044,0.005,0.049,0.02,-0.047,0.027,0.021,0.034,-0.01,-0.028,0.005,-0.03
-0.04,0.005,0.045,0.017,-0.043,0.024,0.014,0.025,-0.027,-0.033,0.011,-0.03
-0.043,0.0,0.043,0.021,-0.043,0.021,0.008,0.015,-0.041,-0.036,0.012,-0.035
-0.039,0.0,0.039,0.019,-0.039,0.019,0.001,0.005,-0.055,-0.043,0.008,-0.035
-0.039,-0.001,0.038,0.02,-0.038,0.018,-0.006,-0.004,-0.068,-0.049,0.006,-0.036
-0.039,-0.006,0.033,0.022,-0.035,0.013,-0.012,-0.01,-0.077,-0.055,0.002,-0.04
-0.047,-0.009,0.038,0.028,-0.043,0.014,-0.017,-0.015,-0.082,-0.065,0.0,-0.039
-0.063,-0.012,0.05,0.038,-0.056,0.019,-0.023,-0.021,-0.091,-0.07,-0.002,-0.043
-0.061,-0.016,0.045,0.039,-0.053,0.014,-0.029,-0.027,-0.106,-0.073,-0.008,-0.045
-0.061,-0.02,0.04,0.04,-0.05,0.01,-0.027,-0.031,-0.11,-0.077,-0.011,-0.045
-0.056,-0.02,0.037,0.038,-0.046,0.008,-0.025,-0.038,-0.11,-0.079,-0.016,-0.041
-0.052,-0.02,0.031,0.036,-0.041,0.005,-0.025,-0.044,-0.11,-0.084,-0.02,-0.04
-0.047,-0.019,0.027,0.033,-0.037,0.004,-0.021,-0.046,-0.111,-0.085,-0.015,-0.04
-0.045,-0.021,0.025,0.032,-0.035,0.001,-0.019,-0.049,-0.108,-0.085,-0.015,-0.035
-0.041,-0.019,0.022,0.03,-0.032,0.001,-0.022,-0.052,-0.116,-0.085,-0.014,-0.035
-0.04,-0.021,0.019,0.031,-0.029,-0.001,-0.025,-0.055,-0.125,-0.086,-0.009,-0.034
-0.044,-0.029,0.015,0.036,-0.029,-0.006,-0.033,-0.053,-0.121,-0.084,-0.012,-0.028
-0.04,-0.026,0.015,0.033,-0.027,-0.005,-0.031,-0.047,-0.114,-0.078,-0.006,-0.021
-0.045,-0.019,0.026,0.032,-0.036,0.004,-0.023,-0.041,-0.113,-0.082,0.004,-0.014
-0.021,0.028,0.048,-0.003,-0.035,0.038,-0.018,-0.028,-0.099,-0.061,0.019,-0.007
-0.003,0.083,0.087,-0.04,-0.045,0.085,0.023,0.017,-0.061,-0.021,0.04,0.002
0.006,0.133,0.127,-0.07,-0.061,0.13,0.028,0.017,-0.046,-0.008,0.064,0.023
0.024,0.171,0.147,-0.098,-0.061,0.158,-0.029,-0.031,-0.052,-0.011,0.081,0.036
0.031,0.143,0.111,-0.087,-0.04,0.127,-0.073,-0.04,-0.053,-0.01,0.072,0.023
0.038,0.108,0.071,-0.073,-0.016,0.089,-0.076,-0.054,-0.066,-0.018,0.065,0.017
0.013,0.058,0.045,-0.036,-0.017,0.052,-0.05,-0.047,-0.083,-0.047,0.039,0.001
-0.022,0.022,0.044,0.0,-0.033,0.032,-0.054,-0.062,-0.097,-0.05,0.019,-0.014
-0.061,-0.028,0.032,0.044,-0.047,0.002,-0.035,-0.06,-0.134,-0.091,-0.016,-0.045
-0.067,-0.048,0.019,0.057,-0.043,-0.014,-0.055,-0.083,-0.134,-0.097,-0.023,-0.049
-0.064,-0.04,0.024,0.052,-0.043,-0.008,-0.031,-0.071,-0.159,-0.107,-0.037,-0.05
-0.048,-0.052,-0.004,0.05,-0.021,-0.028,-0.047,-0.072,-0.137,-0.103,-0.054,-0.056
-0.046,-0.025,0.021,0.036,-0.034,-0.002,-0.037,-0.085,-0.162,-0.093,-0.042,-0.049
-0.032,-0.058,-0.026,0.045,-0.003,-0.042,-0.031,-0.06,-0.14,-0.115,-0.063,-0.065
-0.047,-0.048,0.0,0.048,-0.023,-0.024,0.011,0.003,-0.092,-0.072,-0.046,-0.065
-0.007,-0.196,-0.189,0.102,0.091,-0.192,0.448,0.905,0.512,0.081,-0.117,-0.195
0.257,0.511,0.255,-0.384,0.001,0.383,-0.275,0.29,1.453,1.119,0.612,0.295
0.182,1.226,1.044,-0.704,-0.431,1.135,-1.288,-1.79,-0.173,1.029,1.161,0.881
0.053,0.169,0.115,-0.111,-0.031,0.142,-1.179,-1.79,-2.109,-0.691,0.218,0.436
0.116,-0.408,-0.524,0.146,0.32,-0.465,-0.885,-0.937,-1.439,-0.888,-0.273,0.028
-0.021,-0.207,-0.186,0.114,0.082,-0.196,-0.248,-0.305,-0.542,-0.333,-0.149,-0.08
-0.048,-0.157,-0.109,0.103,0.031,-0.133,0.025,0.007,-0.187,-0.166,-0.109,-0.107
-0.028,-0.056,-0.028,0.042,0.0,-0.042,0.002,-0.015,-0.099,-0.074,-0.057,-0.063
-0.044,-0.091,-0.047,0.068,0.001,-0.069,0.079,0.074,-0.073,-0.083,-0.084,-0.081
-0.034,-0.058,-0.025,0.046,-0.004,-0.041,0.036,0.053,-0.02,-0.043,-0.06,-0.061
-0.039,-0.064,-0.025,0.052,-0.007,-0.044,0.069,0.083,-0.03,-0.054,-0.068,-0.07
-0.028,-0.055,-0.027,0.042,0.0,-0.041,0.057,0.072,0.001,-0.035,-0.059,-0.061
-0.033,-0.045,-0.013,0.039,-0.01,-0.029,0.068,0.086,0.001,-0.03,-0.059,-0.06
-0.027,-0.049,-0.021,0.039,-0.003,-0.035,0.067,0.105,0.03,-0.022,-0.062,-0.059
-0.028,-0.036,-0.009,0.032,-0.01,-0.022,0.069,0.104,0.038,-0.007,-0.058,-0.049
-0.017,-0.042,-0.025,0.03,0.004,-0.033,0.073,0.131,0.059,0.0,-0.062,-0.046
0.003,-0.03,-0.033,0.014,0.019,-0.032,0.066,0.139,0.086,0.016,-0.058,-0.036
-0.003,-0.033,-0.029,0.018,0.013,-0.031,0.087,0.164,0.113,0.026,-0.06,-0.031
0.002,-0.022,-0.024,0.01,0.013,-0.022,0.105,0.189,0.152,0.041,-0.05,-0.025
0.009,-0.008,-0.017,0.0,0.013,-0.013,0.124,0.223,0.189,0.063,-0.044,-0.019
0.018,0.005,-0.013,-0.011,0.015,-0.004,0.134,0.261,0.239,0.087,-0.038,-0.013
0.026,0.022,-0.004,-0.024,0.015,0.008,0.154,0.309,0.291,0.119,-0.027,-0.006
0.022,0.044,0.022,-0.033,0.0,0.032,0.174,0.364,0.354,0.161,-0.009,0.011
0.052,0.087,0.035,-0.07,0.008,0.061,0.168,0.406,0.422,0.198,0.024,0.036
0.067,0.12,0.053,-0.094,0.006,0.087,0.158,0.428,0.489,0.249,0.058,0.063
0.074,0.158,0.084,-0.116,-0.005,0.12,0.152,0.427,0.535,0.299,0.097,0.097
0.1,0.201,0.101,-0.151,-0.001,0.151,0.141,0.411,0.543,0.331,0.132,0.131
0.101,0.233,0.132,-0.167,-0.016,0.182,0.105,0.37,0.531,0.336,0.158,0.149
0.091,0.245,0.154,-0.168,-0.032,0.199,0.054,0.3,0.498,0.333,0.175,0.16
0.086,0.232,0.146,-0.159,-0.03,0.188,0.012,0.227,0.433,0.319,0.163,0.161
0.084,0.217,0.134,-0.151,-0.025,0.175,-0.007,0.162,0.341,0.262,0.126,0.139
0.06,0.179,0.119,-0.12,-0.03,0.149,-0.013,0.112,0.243,0.193,0.08,0.101
0.04,0.129,0.089,-0.085,-0.025,0.109,-0.023,0.066,0.146,0.12,0.031,0.059
0.033,0.087,0.053,-0.061,-0.01,0.07,-0.032,0.02,0.059,0.058,-0.011,0.027
0.013,0.05,0.037,-0.032,-0.012,0.043,-0.032,-0.008,-0.012,0.011,-0.043,0.009
0.006,0.032,0.026,-0.019,-0.01,0.028,-0.028,-0.025,-0.067,-0.025,-0.066,-0.001
0.01,0.026,0.016,-0.018,-0.003,0.021,-0.026,-0.026,-0.096,-0.048,-0.078,-0.007
0.009,0.022,0.013,-0.016,-0.002,0.017,-0.023,-0.017,-0.102,-0.066,-0.085,-0.015
0.008,0.017,0.009,-0.013,-0.001,0.013,-0.021,-0.009,-0.093,-0.066,-0.09,-0.023
0.007,0.013,0.006,-0.01,0.0,0.009,-0.019,-0.001,-0.082,-0.061,-0.093,-0.028
0.007,0.009,0.001,-0.008,0.003,0.005,-0.015,0.006,-0.072,-0.059,-0.098,-0.031
0.004,0.003,-0.001,-0.003,0.002,0.001,-0.015,0.019,-0.065,-0.054,-0.1,-0.029
0.005,-0.003,-0.007,-0.001,0.006,-0.004,-0.013,0.035,-0.066,-0.05,-0.1,-0.035
0.006,-0.008,-0.014,0.001,0.011,-0.01,-0.009,0.036,-0.063,-0.052,-0.1,-0.045
0.007,-0.014,-0.021,0.003,0.015,-0.017,-0.01,0.027,-0.06,-0.056,-0.1,-0.047
0.008,-0.019,-0.027,0.006,0.017,-0.022,-0.013,0.021,-0.059,-0.059,-0.101,-0.051
0.014,-0.024,-0.038,0.005,0.026,-0.031,-0.019,0.013,-0.064,-0.063,-0.104,-0.054
0.02,-0.025,-0.045,0.003,0.033,-0.035,-0.023,0.006,-0.078,-0.066,-0.107,-0.058
0.02,-0.025,-0.045,0.003,0.033,-0.035,-0.028,-0.001,-0.097,-0.069,-0.11,-0.061
0.024,-0.025,-0.05,0.0,0.038,-0.037,-0.032,-0.015,-0.113,-0.073,-0.113,-0.06
0.025,-0.025,-0.05,0.0,0.038,-0.037,-0.037,-0.033,-0.124,-0.083,-0.115,-0.06
0.028,-0.026,-0.054,0.0,0.041,-0.04,-0.04,-0.044,-0.137,-0.085,-0.118,-0.06
0.023,-0.031,-0.055,0.005,0.039,-0.043,-0.04,-0.046,-0.148,-0.087,-0.12,-0.061
0.022,-0.036,-0.058,0.007,0.041,-0.047,-0.04,-0.053,-0.154,-0.098,-0.12,-0.065
0.02,-0.039,-0.059,0.01,0.039,-0.049,-0.04,-0.055,-0.157,-0.101,-0.12,-0.065
0.021,-0.044,-0.065,0.011,0.044,-0.054,-0.04,-0.055,-0.159,-0.1,-0.12,-0.065
0.036,-0.045,-0.081,0.005,0.059,-0.062,-0.044,-0.055,-0.163,-0.1,-0.12,-0.065
0.033,-0.047,-0.08,0.007,0.057,-0.063,-0.045,-0.055,-0.165,-0.1,-0.12,-0.065
0.029,-0.05,-0.08,0.01,0.054,-0.065,-0.045,-0.055,-0.167,-0.1,-0.12,-0.062
0.03,-0.051,-0.081,0.011,0.055,-0.066,-0.045,-0.056,-0.17,-0.1,-0.12,-0.06
0.024,-0.055,-0.079,0.015,0.052,-0.067,-0.046,-0.06,-0.173,-0.1,-0.12,-0.06
0.022,-0.059,-0.081,0.018,0.051,-0.069,-0.043,-0.06,-0.176,-0.104,-0.12,-0.056
0.019,-0.06,-0.079,0.02,0.049,-0.07,-0.04,-0.065,-0.179,-0.105,-0.122,-0.055
0.02,-0.06,-0.08,0.02,0.05,-0.07,-0.04,-0.065,-0.181,-0.105,-0.125,-0.055
0.021,-0.059,-0.08,0.019,0.05,-0.069,-0.038,-0.062,-0.18,-0.105,-0.125,-0.05
0.018,-0.062,-0.08,0.022,0.049,-0.071,-0.034,-0.054,-0.181,-0.105,-0.125,-0.047
0.023,-0.058,-0.081,0.017,0.052,-0.069,-0.035,-0.047,-0.179,-0.105,-0.125,-0.044
0.015,-0.057,-0.071,0.021,0.043,-0.064,-0.029,-0.041,-0.181,-0.097,-0.124,-0.039
0.028,-0.037,-0.065,0.004,0.047,-0.05,-0.01,-0.032,-0.173,-0.098,-0.11,-0.037
0.063,0.017,-0.046,-0.039,0.054,-0.014,-0.004,-0.031,-0.133,-0.078,-0.083,-0.028
0.075,0.061,-0.014,-0.068,0.044,0.024,0.031,0.006,-0.115,-0.047,-0.061,-0.009
0.083,0.117,0.033,-0.1,0.025,0.075,0.006,-0.002,-0.111,-0.042,-0.029,0.022
0.088,0.141,0.053,-0.115,0.017,0.097,-0.084,-0.053,-0.112,-0.048,-0.015,0.041
0.103,0.11,0.007,-0.107,0.048,0.059,-0.11,-0.067,-0.102,-0.048,-0.022,0.033
0.095,0.066,-0.029,-0.08,0.061,0.018,-0.086,-0.069,-0.111,-0.05,-0.033,0.023
0.064,0.014,-0.049,-0.039,0.056,-0.018,-0.066,-0.068,-0.142,-0.056,-0.052,0.002
0.025,-0.013,-0.038,-0.006,0.032,-0.025,-0.055,-0.083,-0.156,-0.068,-0.066,-0.017
-0.004,-0.065,-0.061,0.035,0.029,-0.063,-0.041,-0.07,-0.183,-0.113,-0.107,-0.047
-0.01,-0.069,-0.059,0.04,0.024,-0.064,-0.064,-0.108,-0.19,-0.101,-0.098,-0.041
-0.013,-0.082,-0.069,0.047,0.029,-0.075,-0.025,-0.07,-0.203,-0.122,-0.107,-0.05
0.005,-0.072,-0.077,0.034,0.042,-0.075,-0.07,-0.111,-0.173,-0.097,-0.093,-0.037
-0.02,-0.072,-0.052,0.046,0.016,-0.062,-0.014,-0.069,-0.205,-0.115,-0.104,-0.043
-0.008,-0.085,-0.077,0.047,0.035,-0.081,-0.067,-0.103,-0.156,-0.099,-0.099,-0.037
-0.03,-0.136,-0.105,0.083,0.038,-0.12,0.154,0.239,-0.056,-0.092,-0.141,-0.089
0.11,-0.151,-0.261,0.02,0.186,-0.206,0.385,1.049,0.854,0.307,-0.057,-0.115
0.328,0.839,0.511,-0.584,-0.092,0.675,-0.745,-0.469,1.297,1.365,0.894,0.598
0.138,0.981,0.843,-0.56,-0.353,0.912,-1.329,-2.148,-0.968,0.526,0.934,0.867
0.1,-0.214,-0.314,0.057,0.207,-0.264,-1.102,-1.576,-2.159,-0.987,-0.119,0.265
0.122,-0.383,-0.505,0.131,0.314,-0.444,-0.734,-0.768,-1.085,-0.687,-0.296,0.008
-0.018,-0.22,-0.202,0.119,0.092,-0.211,-0.066,-0.151,-0.417,-0.272,-0.183,-0.073
-0.006,-0.163,-0.158,0.085,0.077,-0.16,0.002,-0.001,-0.162,-0.152,-0.134,-0.067
-0.009,-0.097,-0.088,0.054,0.039,-0.092,0.03,0.018,-0.127,-0.098,-0.104,-0.046
-0.005,-0.125,-0.119,0.065,0.057,-0.122,0.071,0.083,-0.088,-0.1,-0.121,-0.055
-0.006,-0.092,-0.085,0.049,0.04,-0.088,0.049,0.058,-0.062,-0.069,-0.093,-0.031
-0.011,-0.112,-0.101,0.061,0.045,-0.106,0.078,0.098,-0.058,-0.08,-0.104,-0.041
-0.006,-0.091,-0.085,0.049,0.04,-0.088,0.059,0.081,-0.029,-0.053,-0.083,-0.031
-0.013,-0.097,-0.085,0.055,0.037,-0.091,0.08,0.106,-0.03,-0.057,-0.083,-0.035
-0.008,-0.09,-0.082,0.049,0.037,-0.086,0.071,0.108,0.002,-0.041,-0.071,-0.028
-0.008,-0.085,-0.077,0.047,0.035,-0.081,0.077,0.122,0.014,-0.029,-0.064,-0.031
-0.002,-0.085,-0.083,0.044,0.041,-0.084,0.074,0.139,0.034,-0.014,-0.058,-0.027
0.0,-0.077,-0.077,0.039,0.039,-0.077,0.095,0.154,0.051,-0.005,-0.05,-0.019
0.005,-0.077,-0.082,0.036,0.044,-0.079,0.109,0.188,0.084,0.006,-0.045,-0.016
0.006,-0.07,-0.076,0.033,0.041,-0.073,0.112,0.22,0.124,0.028,-0.037,-0.008
0.009,-0.059,-0.068,0.025,0.039,-0.064,0.134,0.253,0.162,0.047,-0.031,-0.004
0.02,-0.037,-0.057,0.009,0.039,-0.047,0.149,0.296,0.216,0.074,-0.019,0.001
0.038,-0.01,-0.049,-0.014,0.044,-0.029,0.165,0.35,0.272,0.103,0.005,0.015
0.049,0.017,-0.032,-0.033,0.041,-0.008,0.187,0.399,0.336,0.137,0.03,0.028
0.052,0.04,-0.011,-0.046,0.031,0.014,0.19,0.446,0.404,0.186,0.057,0.047
0.068,0.085,0.016,-0.077,0.026,0.05,0.181,0.454,0.469,0.233,0.097,0.08
0.088,0.14,0.052,-0.114,0.018,0.096,0.166,0.438,0.505,0.276,0.138,0.111
0.105,0.182,0.077,-0.143,0.014,0.129,0.125,0.424,0.496,0.308,0.177,0.146
0.108,0.214,0.106,-0.161,0.001,0.16,0.085,0.373,0.482,0.307,0.204,0.172
0.113,0.226,0.114,-0.17,-0.001,0.17,0.049,0.302,0.455,0.299,0.206,0.176
0.12,0.22,0.1,-0.17,0.01,0.159,0.011,0.233,0.383,0.275,0.193,0.169
0.091,0.187,0.096,-0.139,-0.003,0.141,-0.011,0.163,0.295,0.219,0.162,0.144
0.062,0.137,0.074,-0.1,-0.006,0.106,-0.022,0.106,0.2,0.153,0.119,0.106
0.052,0.088,0.036,-0.07,0.008,0.062,-0.025,0.059,0.11,0.083,0.071,0.064
0.025,0.038,0.013,-0.032,0.006,0.025,-0.02,0.023,0.031,0.023,0.025,0.033
0.011,0.01,-0.001,-0.011,0.006,0.005,-0.02,-0.007,-0.049,-0.02,-0.012,0.02
0.02,-0.003,-0.022,-0.008,0.021,-0.012,-0.019,-0.017,-0.093,-0.054,-0.035,0.011
0.031,-0.008,-0.039,-0.011,0.035,-0.024,-0.015,-0.01,-0.109,-0.074,-0.045,0.004
0.03,-0.01,-0.04,-0.01,0.035,-0.025,-0.015,-0.004,-0.118,-0.077,-0.05,-0.003
0.025,-0.015,-0.04,-0.005,0.033,-0.027,-0.013,0.001,-0.108,-0.071,-0.05,-0.011
0.022,-0.018,-0.04,-0.002,0.031,-0.029,-0.01,0.006,-0.097,-0.064,-0.05,-0.018
0.018,-0.022,-0.04,0.002,0.029,-0.031,-0.007,0.022,-0.09,-0.058,-0.05,-0.024
0.014,-0.025,-0.039,0.005,0.027,-0.032,-0.004,0.041,-0.086,-0.05,-0.05,-0.026
0.008,-0.025,-0.034,0.009,0.021,-0.029,0.0,0.047,-0.083,-0.046,-0.054,-0.029
0.016,-0.025,-0.041,0.005,0.029,-0.033,0.0,0.044,-0.08,-0.049,-0.059,-0.032
0.024,-0.025,-0.049,0.0,0.037,-0.037,-0.004,0.039,-0.074,-0.054,-0.062,-0.035
0.022,-0.029,-0.051,0.003,0.037,-0.039,-0.008,0.035,-0.081,-0.069,-0.067,-0.036
0.013,-0.036,-0.049,0.012,0.031,-0.042,-0.014,0.031,-0.097,-0.081,-0.07,-0.042
0.01,-0.04,-0.05,0.015,0.03,-0.045,-0.021,0.024,-0.103,-0.084,-0.07,-0.049
0.023,-0.04,-0.063,0.009,0.043,-0.051,-0.027,0.012,-0.119,-0.089,-0.069,-0.054
0.026,-0.04,-0.066,0.008,0.046,-0.053,-0.035,0.0,-0.141,-0.092,-0.075,-0.055
0.024,-0.04,-0.064,0.008,0.044,-0.051,-0.039,-0.01,-0.153,-0.099,-0.078,-0.055
0.017,-0.044,-0.061,0.013,0.039,-0.052,-0.036,-0.02,-0.163,-0.105,-0.075,-0.055
0.013,-0.047,-0.06,0.017,0.036,-0.053,-0.035,-0.03,-0.172,-0.108,-0.075,-0.055
0.007,-0.052,-0.059,0.023,0.033,-0.055,-0.035,-0.04,-0.176,-0.113,-0.075,-0.054
0.0,-0.055,-0.055,0.028,0.028,-0.055,-0.035,-0.049,-0.179,-0.115,-0.075,-0.05
-0.003,-0.055,-0.052,0.029,0.025,-0.054,-0.035,-0.05,-0.183,-0.115,-0.075,-0.05
-0.005,-0.055,-0.05,0.03,0.023,-0.052,-0.037,-0.05,-0.186,-0.119,-0.079,-0.05
-0.008,-0.054,-0.046,0.032,0.02,-0.05,-0.04,-0.055,-0.189,-0.12,-0.08,-0.05
-0.02,-0.064,-0.044,0.043,0.012,-0.054,-0.04,-0.055,-0.192,-0.12,-0.08,-0.05
-0.014,-0.071,-0.057,0.043,0.021,-0.064,-0.044,-0.055,-0.196,-0.125,-0.084,-0.054
-0.009,-0.069,-0.06,0.039,0.025,-0.065,-0.045,-0.055,-0.199,-0.125,-0.085,-0.055
-0.017,-0.07,-0.054,0.044,0.019,-0.061,-0.045,-0.055,-0.2,-0.126,-0.083,-0.055
-0.017,-0.07,-0.053,0.044,0.018,-0.061,-0.045,-0.055,-0.2,-0.13,-0.08,-0.06
-0.023,-0.069,-0.046,0.047,0.012,-0.058,-0.045,-0.054,-0.2,-0.13,-0.08,-0.06
-0.02,-0.066,-0.046,0.044,0.013,-0.056,-0.045,-0.056,-0.2,-0.128,-0.078,-0.059
-0.006,-0.06,-0.054,0.034,0.024,-0.057,-0.045,-0.051,-0.2,-0.123,-0.074,-0.053
-0.003,-0.061,-0.058,0.032,0.028,-0.059,-0.045,-0.045,-0.201,-0.118,-0.076,-0.046
-0.004,-0.052,-0.048,0.028,0.022,-0.05,-0.042,-0.043,-0.193,-0.113,-0.071,-0.039
-0.005,-0.054,-0.049,0.03,0.022,-0.051,-0.028,-0.036,-0.197,-0.108,-0.068,-0.032
-0.001,-0.035,-0.034,0.018,0.017,-0.034,-0.018,-0.034,-0.185,-0.105,-0.062,-0.027
0.016,0.02,0.004,-0.018,0.006,0.012,0.003,0.001,-0.142,-0.085,-0.038,-0.017
0.038,0.067,0.029,-0.053,0.004,0.048,0.023,0.013,-0.122,-0.063,-0.012,0.002
0.049,0.124,0.075,-0.087,-0.013,0.099,-0.04,-0.031,-0.125,-0.064,0.006,0.033
0.066,0.136,0.071,-0.101,-0.003,0.103,-0.099,-0.041,-0.129,-0.072,-0.003,0.038
0.067,0.094,0.027,-0.081,0.02,0.06,-0.098,-0.056,-0.127,-0.069,-0.011,0.028
0.045,0.029,-0.016,-0.037,0.03,0.006,-0.074,-0.045,-0.159,-0.079,-0.027,0.012
0.047,-0.008,-0.055,-0.019,0.051,-0.031,-0.075,-0.059,-0.168,-0.08,-0.039,-0.006
0.008,-0.042,-0.05,0.017,0.029,-0.045,-0.056,-0.054,-0.196,-0.114,-0.058,-0.031
-0.019,-0.082,-0.063,0.051,0.022,-0.073,-0.061,-0.048,-0.213,-0.131,-0.076,-0.051
-0.03,-0.074,-0.044,0.053,0.007,-0.059,-0.054,-0.057,-0.223,-0.13,-0.071,-0.046
-0.037,-0.105,-0.068,0.072,0.015,-0.086,-0.041,-0.026,-0.224,-0.159,-0.098,-0.063
-0.038,-0.079,-0.041,0.059,0.002,-0.06,-0.061,-0.069,-0.208,-0.125,-0.077,-0.045
-0.057,-0.116,-0.059,0.086,0.001,-0.088,-0.013,0.003,-0.231,-0.16,-0.107,-0.067
-0.036,-0.093,-0.057,0.065,0.01,-0.074,-0.067,-0.076,-0.18,-0.097,-0.074,-0.051
-0.022,-0.228,-0.206,0.125,0.092,-0.217,0.363,0.69,0.139,-0.072,-0.175,-0.176
0.23,0.142,-0.088,-0.185,0.159,0.027,0.049,0.773,1.261,0.751,0.278,0.083
0.268,1.137,0.869,-0.702,-0.301,1.003,-1.131,-1.42,0.602,1.328,1.165,0.848
0.044,0.47,0.426,-0.257,-0.191,0.448,-1.265,-2.088,-1.825,-0.261,0.507,0.627
0.109,-0.437,-0.546,0.164,0.328,-0.491,-1.018,-1.19,-1.828,-1.034,-0.294,0.074
0.034,-0.286,-0.321,0.126,0.177,-0.303,-0.426,-0.466,-0.729,-0.448,-0.201,-0.047
-0.055,-0.236,-0.181,0.146,0.063,-0.208,0.024,-0.002,-0.317,-0.227,-0.155,-0.113
-0.038,-0.144,-0.105,0.091,0.034,-0.124,-0.007,0.009,-0.153,-0.115,-0.089,-0.064
-0.058,-0.143,-0.085,0.1,0.014,-0.114,0.07,0.089,-0.155,-0.123,-0.099,-0.072
-0.037,-0.136,-0.099,0.087,0.031,-0.117,0.044,0.091,-0.088,-0.093,-0.082,-0.064
-0.042,-0.122,-0.08,0.082,0.019,-0.101,0.066,0.107,-0.096,-0.09,-0.07,-0.063
-0.03,-0.13,-0.1,0.08,0.035,-0.115,0.059,0.119,-0.072,-0.085,-0.072,-0.064
-0.028,-0.11,-0.082,0.069,0.027,-0.096,0.063,0.124,-0.062,-0.062,-0.058,-0.056
-0.024,-0.12,-0.096,0.072,0.037,-0.107,0.075,0.151,-0.045,-0.058,-0.063,-0.063
-0.019,-0.105,-0.086,0.062,0.034,-0.096,0.065,0.137,-0.018,-0.038,-0.05,-0.05
-0.018,-0.11,-0.092,0.064,0.037,-0.1,0.074,0.164,-0.007,-0.036,-0.052,-0.05
-0.011,-0.101,-0.09,0.056,0.039,-0.095,0.068,0.175,0.02,-0.021,-0.042,-0.041
-0.01,-0.1,-0.09,0.055,0.04,-0.095,0.09,0.202,0.036,-0.012,-0.034,-0.037
-0.003,-0.094,-0.091,0.048,0.044,-0.092,0.106,0.23,0.072,0.006,-0.026,-0.031
0.0,-0.084,-0.084,0.043,0.042,-0.084,0.125,0.265,0.098,0.029,-0.016,-0.025
0.011,-0.075,-0.086,0.032,0.049,-0.08,0.152,0.31,0.131,0.052,-0.005,-0.016
0.037,-0.044,-0.081,0.004,0.06,-0.063,0.164,0.351,0.19,0.077,0.007,-0.008
0.039,-0.023,-0.063,-0.008,0.051,-0.043,0.181,0.404,0.25,0.114,0.029,0.002
0.036,-0.001,-0.037,-0.017,0.037,-0.019,0.201,0.459,0.323,0.156,0.06,0.021
0.053,0.044,-0.009,-0.049,0.031,0.017,0.195,0.497,0.395,0.207,0.098,0.048
0.056,0.081,0.025,-0.068,0.016,0.052,0.185,0.505,0.45,0.259,0.138,0.083
0.077,0.123,0.046,-0.1,0.016,0.084,0.165,0.491,0.466,0.295,0.182,0.116
0.099,0.168,0.068,-0.134,0.015,0.118,0.119,0.448,0.45,0.316,0.212,0.141
0.087,0.18,0.094,-0.134,-0.004,0.137,0.066,0.378,0.439,0.315,0.207,0.157
0.09,0.182,0.092,-0.136,-0.001,0.137,0.025,0.304,0.394,0.296,0.193,0.151
0.093,0.172,0.079,-0.133,0.007,0.125,0.013,0.24,0.322,0.263,0.185,0.139
0.068,0.132,0.064,-0.1,0.002,0.098,0.007,0.183,0.229,0.212,0.164,0.121
0.033,0.076,0.043,-0.055,-0.005,0.06,-0.003,0.125,0.127,0.134,0.114,0.076
0.009,0.024,0.015,-0.017,-0.003,0.02,-0.008,0.081,0.044,0.066,0.063,0.039
0.01,-0.012,-0.022,0.001,0.017,-0.017,-0.006,0.048,-0.031,0.019,0.029,0.013
-0.001,-0.04,-0.039,0.021,0.019,-0.039,-0.001,0.038,-0.09,-0.027,0.006,-0.001
-0.027,-0.066,-0.039,0.046,0.007,-0.052,0.001,0.04,-0.135,-0.06,-0.006,-0.011
-0.023,-0.079,-0.056,0.051,0.017,-0.067,0.006,0.042,-0.15,-0.067,-0.011,-0.023
-0.022,-0.083,-0.061,0.053,0.02,-0.072,0.009,0.045,-0.139,-0.059,-0.016,-0.025
-0.028,-0.088,-0.06,0.058,0.016,-0.073,0.013,0.046,-0.13,-0.056,-0.022,-0.025
-0.031,-0.09,-0.06,0.06,0.014,-0.075,0.017,0.06,-0.12,-0.051,-0.027,-0.025
-0.028,-0.09,-0.062,0.059,0.017,-0.076,0.022,0.074,-0.111,-0.046,-0.033,-0.025
-0.016,-0.09,-0.075,0.053,0.03,-0.082,0.024,0.075,-0.11,-0.047,-0.035,-0.025
-0.014,-0.089,-0.075,0.052,0.031,-0.082,0.021,0.075,-0.11,-0.055,-0.035,-0.027
-0.018,-0.092,-0.075,0.056,0.029,-0.083,0.018,0.075,-0.111,-0.06,-0.035,-0.035
-0.026,-0.101,-0.075,0.064,0.025,-0.088,0.015,0.075,-0.109,-0.065,-0.035,-0.04
-0.024,-0.099,-0.075,0.062,0.026,-0.086,0.012,0.076,-0.112,-0.068,-0.035,-0.04
-0.033,-0.107,-0.074,0.07,0.021,-0.09,0.01,0.069,-0.124,-0.073,-0.03,-0.04
-0.051,-0.121,-0.069,0.086,0.009,-0.095,0.008,0.055,-0.135,-0.083,-0.03,-0.04
-0.049,-0.12,-0.071,0.085,0.011,-0.095,0.005,0.045,-0.147,-0.09,-0.031,-0.04
-0.05,-0.12,-0.069,0.085,0.01,-0.094,0.002,0.036,-0.15,-0.093,-0.028,-0.04
-0.052,-0.123,-0.071,0.087,0.01,-0.097,-0.001,0.028,-0.16,-0.098,-0.041,-0.043
-0.056,-0.125,-0.069,0.091,0.007,-0.096,-0.004,0.018,-0.176,-0.108,-0.052,-0.045
-0.051,-0.125,-0.074,0.088,0.012,-0.099,-0.005,0.011,-0.18,-0.115,-0.049,-0.045
-0.034,-0.125,-0.09,0.08,0.029,-0.107,-0.005,0.006,-0.184,-0.115,-0.048,-0.045
-0.036,-0.126,-0.09,0.081,0.027,-0.107,-0.005,0.001,-0.186,-0.115,-0.044,-0.045
-0.038,-0.129,-0.091,0.084,0.027,-0.11,-0.005,-0.003,-0.184,-0.115,-0.045,-0.045
-0.035,-0.13,-0.095,0.083,0.03,-0.112,-0.005,-0.007,-0.188,-0.116,-0.05,-0.045
-0.035,-0.13,-0.095,0.083,0.03,-0.112,-0.005,-0.012,-0.2,-0.112,-0.051,-0.045
-0.037,-0.129,-0.093,0.083,0.028,-0.111,-0.005,-0.015,-0.204,-0.11,-0.05,-0.045
-0.041,-0.131,-0.089,0.086,0.024,-0.11,-0.005,-0.015,-0.209,-0.11,-0.05,-0.045
-0.038,-0.129,-0.09,0.083,0.026,-0.109,-0.006,-0.017,-0.211,-0.107,-0.05,-0.046
-0.047,-0.134,-0.086,0.091,0.02,-0.11,-0.004,-0.021,-0.21,-0.104,-0.051,-0.043
-0.057,-0.142,-0.085,0.1,0.015,-0.113,-0.005,-0.018,-0.21,-0.108,-0.046,-0.038
-0.056,-0.14,-0.084,0.099,0.014,-0.112,-0.005,-0.017,-0.208,-0.115,-0.036,-0.033
-0.052,-0.126,-0.075,0.089,0.012,-0.1,0.007,-0.011,-0.212,-0.104,-0.032,-0.029
-0.025,-0.076,-0.051,0.05,0.013,-0.063,0.024,0.017,-0.176,-0.089,-0.022,-0.025
-0.02,-0.038,-0.018,0.029,-0.001,-0.028,0.052,0.049,-0.14,-0.074,-0.014,-0.014
-0.007,0.02,0.027,-0.006,-0.017,0.024,0.034,0.038,-0.138,-0.067,0.015,0.01
0.02,0.072,0.052,-0.046,-0.016,0.062,-0.018,0.012,-0.142,-0.071,0.053,0.041
0.028,0.042,0.014,-0.035,0.007,0.028,-0.05,0.005,-0.137,-0.071,0.045,0.039
0.031,0.008,-0.024,-0.019,0.028,-0.008,-0.053,-0.006,-0.147,-0.067,0.034,0.027
0.011,-0.052,-0.063,0.021,0.037,-0.057,-0.029,0.002,-0.168,-0.076,0.01,0.006
-0.028,-0.095,-0.068,0.062,0.02,-0.081,-0.034,-0.02,-0.167,-0.077,-0.016,-0.021
-0.066,-0.141,-0.076,0.104,0.005,-0.108,-0.006,-0.004,-0.211,-0.119,-0.053,-0.04
-0.073,-0.154,-0.081,0.114,0.004,-0.118,-0.021,-0.03,-0.216,-0.118,-0.044,-0.037
-0.086,-0.164,-0.077,0.125,-0.004,-0.12,0.011,-0.012,-0.236,-0.14,-0.054,-0.059
-0.081,-0.178,-0.096,0.13,0.008,-0.137,-0.004,-0.024,-0.214,-0.132,-0.06,-0.059
-0.102,-0.172,-0.069,0.137,-0.017,-0.12,0.016,-0.022,-0.233,-0.132,-0.055,-0.061
-0.091,-0.194,-0.103,0.143,0.006,-0.148,0.008,-0.016,-0.225,-0.147,-0.07,-0.076
-0.079,-0.192,-0.113,0.136,0.017,-0.152,0.08,0.089,-0.156,-0.085,-0.059,-0.077
-0.012,-0.328,-0.316,0.17,0.152,-0.322,0.5,1.008,0.495,0.088,-0.117,-0.195
0.237,0.478,0.241,-0.358,-0.002,0.36,-0.293,0.153,1.379,1.163,0.692,0.375
0.114,1.033,0.918,-0.574,-0.403,0.975,-1.152,-1.851,-0.356,0.911,1.118,0.889
-0.007,-0.055,-0.049,0.031,0.021,-0.052,-0.991,-1.664,-2.197,-0.823,0.106,0.37
0.057,-0.495,-0.552,0.219,0.305,-0.523,-0.764,-0.819,-1.385,-0.859,-0.284,0.002
-0.067,-0.329,-0.262,0.198,0.097,-0.295,-0.134,-0.195,-0.543,-0.333,-0.16,-0.095
-0.073,-0.277,-0.204,0.175,0.065,-0.24,0.087,0.063,-0.244,-0.196,-0.115,-0.108
-0.073,-0.183,-0.11,0.129,0.019,-0.146,0.061,0.057,-0.159,-0.111,-0.05,-0.072
-0.079,-0.211,-0.132,0.145,0.027,-0.171,0.127,0.136,-0.143,-0.12,-0.065,-0.088
-0.073,-0.184,-0.111,0.129,0.02,-0.148,0.089,0.105,-0.087,-0.076,-0.04,-0.064
-0.083,-0.199,-0.116,0.141,0.017,-0.157,0.129,0.147,-0.09,-0.087,-0.057,-0.073
-0.074,-0.187,-0.114,0.13,0.02,-0.15,0.111,0.141,-0.054,-0.062,-0.047,-0.058
-0.084,-0.19,-0.106,0.137,0.011,-0.148,0.132,0.153,-0.06,-0.062,-0.051,-0.058
-0.073,-0.189,-0.116,0.131,0.022,-0.152,0.128,0.159,-0.034,-0.051,-0.05,-0.051
-0.067,-0.178,-0.111,0.123,0.022,-0.144,0.129,0.161,-0.019,-0.039,-0.039,-0.049
-0.061,-0.179,-0.118,0.121,0.029,-0.149,0.132,0.176,0.002,-0.029,-0.034,-0.051
-0.057,-0.17,-0.113,0.114,0.028,-0.141,0.13,0.19,0.031,-0.012,-0.021,-0.044
-0.053,-0.169,-0.116,0.112,0.032,-0.142,0.148,0.219,0.057,-0.004,-0.015,-0.046
-0.047,-0.162,-0.115,0.105,0.034,-0.139,0.159,0.244,0.091,0.018,-0.001,-0.043
-0.038,-0.151,-0.112,0.095,0.037,-0.131,0.173,0.277,0.133,0.038,0.01,-0.033
-0.034,-0.137,-0.103,0.085,0.035,-0.119,0.181,0.316,0.189,0.066,0.027,-0.02
-0.027,-0.119,-0.092,0.073,0.033,-0.105,0.206,0.368,0.246,0.107,0.054,-0.01
-0.011,-0.092,-0.081,0.052,0.035,-0.086,0.221,0.416,0.314,0.154,0.081,0.001
0.003,-0.063,-0.066,0.03,0.035,-0.064,0.208,0.461,0.38,0.199,0.106,0.034
0.015,-0.033,-0.048,0.009,0.032,-0.04,0.196,0.482,0.449,0.251,0.135,0.064
0.009,-0.001,-0.01,-0.004,0.01,-0.005,0.187,0.477,0.5,0.299,0.175,0.081
0.018,0.044,0.026,-0.031,-0.005,0.035,0.164,0.451,0.493,0.327,0.213,0.115
0.05,0.087,0.037,-0.069,0.006,0.062,0.129,0.407,0.479,0.342,0.241,0.141
0.037,0.092,0.055,-0.065,-0.01,0.074,0.088,0.354,0.45,0.332,0.243,0.14
0.025,0.079,0.055,-0.052,-0.015,0.066,0.061,0.287,0.379,0.304,0.234,0.141
0.022,0.062,0.041,-0.042,-0.01,0.051,0.059,0.232,0.281,0.25,0.214,0.126
-0.011,0.019,0.03,-0.004,-0.02,0.024,0.056,0.183,0.182,0.181,0.164,0.087
-0.033,-0.038,-0.005,0.036,-0.014,-0.022,0.053,0.133,0.09,0.111,0.108,0.051
-0.061,-0.086,-0.025,0.074,-0.018,-0.055,0.05,0.091,-0.006,0.042,0.062,0.018
-0.074,-0.116,-0.042,0.096,-0.016,-0.079,0.051,0.063,-0.075,-0.013,0.032,-0.007
-0.093,-0.144,-0.051,0.118,-0.021,-0.097,0.056,0.059,-0.123,-0.053,0.016,-0.02
-0.097,-0.153,-0.057,0.125,-0.02,-0.105,0.059,0.065,-0.152,-0.066,0.004,-0.026
-0.068,-0.149,-0.081,0.109,0.007,-0.115,0.064,0.068,-0.151,-0.078,-0.008,-0.033
-0.065,-0.151,-0.086,0.108,0.011,-0.118,0.067,0.072,-0.138,-0.078,-0.013,-0.041
-0.063,-0.147,-0.084,0.105,0.011,-0.115,0.07,0.086,-0.127,-0.068,-0.009,-0.048
-0.063,-0.145,-0.082,0.104,0.01,-0.113,0.082,0.103,-0.118,-0.064,-0.01,-0.047
-0.065,-0.144,-0.079,0.104,0.007,-0.111,0.086,0.112,-0.107,-0.055,-0.01,-0.044
-0.071,-0.152,-0.081,0.112,0.005,-0.116,0.081,0.119,-0.105,-0.056,-0.01,-0.045
-0.065,-0.162,-0.096,0.114,0.015,-0.129,0.079,0.115,-0.105,-0.054,-0.011,-0.045
-0.059,-0.16,-0.101,0.11,0.021,-0.13,0.076,0.107,-0.106,-0.051,-0.014,-0.045
-0.066,-0.16,-0.093,0.113,0.014,-0.126,0.074,0.101,-0.104,-0.05,-0.017,-0.047
-0.068,-0.161,-0.093,0.114,0.013,-0.127,0.07,0.094,-0.111,-0.051,-0.02,-0.05
-0.073,-0.159,-0.086,0.116,0.007,-0.122,0.064,0.088,-0.132,-0.055,-0.023,-0.053
-0.076,-0.162,-0.086,0.12,0.005,-0.124,0.061,0.082,-0.147,-0.055,-0.025,-0.055
-0.084,-0.173,-0.089,0.128,0.003,-0.131,0.056,0.076,-0.16,-0.055,-0.028,-0.059
-0.084,-0.176,-0.092,0.13,0.005,-0.134,0.052,0.069,-0.174,-0.054,-0.03,-0.06
-0.077,-0.174,-0.097,0.126,0.01,-0.135,0.047,0.063,-0.182,-0.06,-0.033,-0.061
-0.076,-0.175,-0.099,0.125,0.012,-0.137,0.045,0.055,-0.179,-0.068,-0.036,-0.064
-0.063,-0.175,-0.112,0.119,0.025,-0.144,0.045,0.051,-0.18,-0.065,-0.039,-0.066
-0.061,-0.173,-0.112,0.117,0.026,-0.142,0.042,0.053,-0.198,-0.063,-0.04,-0.063
-0.082,-0.188,-0.106,0.135,0.012,-0.146,0.039,0.058,-0.208,-0.06,-0.034,-0.06
-0.095,-0.196,-0.102,0.146,0.004,-0.149,0.041,0.059,-0.203,-0.057,-0.028,-0.06
-0.097,-0.191,-0.094,0.144,-0.001,-0.142,0.051,0.064,-0.204,-0.054,-0.02,-0.055
-0.082,-0.173,-0.091,0.128,0.005,-0.132,0.056,0.064,-0.204,-0.049,-0.016,-0.057
-0.066,-0.128,-0.062,0.098,-0.002,-0.095,0.082,0.078,-0.173,-0.033,-0.003,-0.043
-0.063,-0.083,-0.019,0.074,-0.022,-0.051,0.122,0.107,-0.135,-0.008,0.017,-0.013
-0.052,-0.033,0.019,0.042,-0.035,-0.007,0.115,0.099,-0.132,0.019,0.036,0.006
-0.044,0.003,0.047,0.02,-0.046,0.025,0.055,0.061,-0.137,0.034,0.052,0.024
-0.016,-0.007,0.01,0.011,-0.013,0.001,0.012,0.037,-0.128,0.024,0.04,0.025
-0.002,-0.037,-0.035,0.02,0.017,-0.036,0.005,0.015,-0.155,0.022,0.039,0.02
-0.033,-0.108,-0.075,0.07,0.022,-0.092,0.026,0.028,-0.169,-0.002,0.019,-0.013
-0.07,-0.137,-0.067,0.103,-0.001,-0.102,0.038,0.006,-0.202,-0.028,-0.012,-0.038
-0.112,-0.182,-0.07,0.147,-0.021,-0.126,0.057,0.015,-0.227,-0.049,-0.045,-0.064
-0.118,-0.217,-0.099,0.168,-0.009,-0.158,0.047,0.006,-0.243,-0.056,-0.051,-0.077
-0.112,-0.207,-0.095,0.16,-0.008,-0.151,0.05,0.003,-0.267,-0.052,-0.045,-0.071
-0.113,-0.238,-0.124,0.176,0.005,-0.181,0.056,0.036,-0.233,-0.071,-0.066,-0.084
-0.118,-0.196,-0.078,0.158,-0.02,-0.136,0.04,-0.006,-0.262,-0.065,-0.053,-0.07
-0.111,-0.248,-0.138,0.18,0.014,-0.193,0.072,0.064,-0.206,-0.073,-0.083,-0.093
-0.12,-0.225,-0.105,0.172,-0.007,-0.165,0.086,0.07,-0.222,-0.035,-0.057,-0.084
-0.054,-0.402,-0.348,0.228,0.147,-0.374,0.511,0.935,0.514,0.153,-0.129,-0.214
0.129,0.346,0.217,-0.238,-0.044,0.282,-0.071,0.31,1.178,1.104,0.598,0.274
0.075,1.028,0.953,-0.552,-0.439,0.99,-1.074,-1.586,-0.425,0.993,1.088,0.816
