-0.03,0.04,0.07,-0.005,-0.05,0.055,-0.07,-0.2,-0.29,-0.165,-0.155,-0.055
-0.03,0.036,0.067,-0.003,-0.049,0.051,-0.07,-0.2,-0.29,-0.165,-0.155,-0.055
-0.03,0.029,0.059,0.0,-0.045,0.044,-0.074,-0.2,-0.29,-0.162,-0.155,-0.051
-0.03,0.023,0.053,0.003,-0.041,0.038,-0.074,-0.196,-0.286,-0.159,-0.155,-0.049
-0.03,0.016,0.046,0.007,-0.038,0.031,-0.071,-0.195,-0.285,-0.156,-0.155,-0.045
-0.028,0.01,0.038,0.009,-0.034,0.024,-0.068,-0.195,-0.285,-0.154,-0.155,-0.045
-0.031,0.02,0.051,0.005,-0.041,0.035,-0.065,-0.19,-0.28,-0.15,-0.15,-0.051
-0.024,0.03,0.054,-0.003,-0.039,0.042,-0.062,-0.19,-0.277,-0.15,-0.15,-0.049
-0.017,0.03,0.047,-0.007,-0.032,0.039,-0.06,-0.19,-0.273,-0.149,-0.149,-0.045
-0.014,0.029,0.043,-0.008,-0.028,0.036,-0.058,-0.19,-0.27,-0.144,-0.144,-0.042
-0.009,0.031,0.04,-0.011,-0.024,0.036,-0.048,-0.19,-0.265,-0.147,-0.147,-0.037
-0.005,0.028,0.033,-0.012,-0.019,0.03,-0.044,-0.185,-0.263,-0.141,-0.141,-0.035
-0.005,0.035,0.039,-0.015,-0.022,0.036,-0.034,-0.157,-0.241,-0.124,-0.127,-0.029
0.005,0.063,0.058,-0.034,-0.026,0.06,-0.032,-0.137,-0.223,-0.109,-0.113,-0.023
0.029,0.085,0.056,-0.057,-0.013,0.07,-0.025,-0.121,-0.194,-0.1,-0.105,-0.016
0.031,0.077,0.046,-0.054,-0.008,0.061,-0.028,-0.108,-0.17,-0.1,-0.105,-0.01
0.041,0.049,0.008,-0.046,0.017,0.028,-0.098,-0.167,-0.223,-0.101,-0.105,-0.002
0.052,0.036,-0.016,-0.044,0.034,0.01,-0.123,-0.188,-0.237,-0.098,-0.105,-0.002
0.033,0.031,-0.002,-0.032,0.017,0.014,-0.104,-0.192,-0.257,-0.118,-0.104,-0.012
0.008,0.025,0.017,-0.017,-0.004,0.021,-0.104,-0.211,-0.266,-0.132,-0.114,-0.018
-0.028,0.015,0.043,0.006,-0.036,0.029,-0.094,-0.211,-0.266,-0.149,-0.137,-0.041
-0.035,0.015,0.05,0.009,-0.043,0.032,-0.093,-0.205,-0.273,-0.152,-0.145,-0.06
-0.037,0.0,0.037,0.018,-0.037,0.018,-0.087,-0.205,-0.277,-0.169,-0.16,-0.065
-0.054,0.002,0.056,0.025,-0.055,0.029,-0.083,-0.202,-0.272,-0.17,-0.157,-0.067
-0.05,-0.002,0.048,0.026,-0.049,0.023,-0.079,-0.196,-0.262,-0.177,-0.17,-0.073
-0.077,0.002,0.079,0.037,-0.078,0.04,-0.069,-0.213,-0.281,-0.178,-0.18,-0.077
-0.057,-0.031,0.027,0.044,-0.041,-0.002,-0.062,-0.194,-0.24,-0.155,-0.176,-0.081
-0.065,0.029,0.094,0.018,-0.08,0.061,-0.034,-0.225,-0.279,-0.186,-0.193,-0.087
-0.112,0.127,0.239,-0.008,-0.176,0.183,0.003,-0.205,-0.107,-0.086,-0.145,-0.073
0.028,0.042,0.014,-0.036,0.007,0.028,0.03,0.048,0.402,0.532,0.269,0.118
0.511,0.208,-0.303,-0.359,0.406,-0.047,-0.078,0.627,1.915,2.202,1.472,0.73
0.806,0.144,-0.662,-0.475,0.734,-0.259,-0.423,-0.071,1.65,1.928,1.632,0.981
0.389,-0.173,-0.562,-0.108,0.476,-0.367,-0.718,-1.912,-1.457,-0.567,0.26,0.481
-0.036,-0.221,-0.185,0.128,0.075,-0.203,-0.675,-2.061,-2.146,-1.146,-0.376,0.094
-0.149,-0.144,0.005,0.147,-0.077,-0.07,-0.461,-1.22,-1.12,-0.716,-0.378,-0.054
-0.113,0.027,0.14,0.043,-0.126,0.083,-0.22,-0.538,-0.543,-0.386,-0.267,-0.089
-0.049,0.039,0.088,0.004,-0.069,0.063,-0.043,-0.146,-0.158,-0.144,-0.156,-0.065
-0.063,0.03,0.092,0.017,-0.078,0.061,-0.023,-0.138,-0.189,-0.199,-0.181,-0.071
-0.052,0.04,0.092,0.006,-0.072,0.065,-0.015,-0.056,-0.091,-0.112,-0.141,-0.055
-0.04,0.04,0.08,0.0,-0.06,0.06,-0.005,-0.032,-0.079,-0.116,-0.146,-0.055
-0.018,0.067,0.086,-0.025,-0.052,0.077,-0.003,-0.001,-0.041,-0.072,-0.124,-0.046
-0.021,0.055,0.076,-0.017,-0.049,0.065,0.008,0.025,0.006,-0.063,-0.118,-0.043
-0.018,0.065,0.083,-0.024,-0.051,0.074,0.011,0.043,0.026,-0.054,-0.109,-0.038
-0.006,0.065,0.071,-0.029,-0.039,0.067,0.017,0.059,0.061,-0.032,-0.096,-0.033
-0.006,0.064,0.071,-0.029,-0.039,0.067,0.017,0.083,0.084,-0.025,-0.088,-0.029
0.004,0.069,0.065,-0.037,-0.03,0.067,0.022,0.123,0.136,0.013,-0.07,-0.024
0.011,0.07,0.059,-0.04,-0.024,0.064,0.024,0.15,0.176,0.025,-0.06,-0.018
0.004,0.07,0.066,-0.037,-0.031,0.068,0.026,0.187,0.235,0.059,-0.044,-0.007
0.005,0.086,0.081,-0.045,-0.039,0.083,0.03,0.236,0.294,0.087,-0.03,0.002
0.02,0.098,0.078,-0.059,-0.03,0.088,0.03,0.303,0.36,0.12,-0.007,0.013
0.036,0.112,0.075,-0.075,-0.02,0.093,0.032,0.37,0.438,0.164,0.011,0.022
0.054,0.127,0.073,-0.091,-0.009,0.1,0.035,0.455,0.531,0.207,0.032,0.03
0.061,0.131,0.07,-0.096,-0.005,0.101,0.036,0.536,0.623,0.255,0.06,0.038
0.089,0.157,0.068,-0.123,0.01,0.112,0.032,0.62,0.715,0.306,0.091,0.058
0.122,0.183,0.061,-0.153,0.03,0.122,0.02,0.684,0.791,0.352,0.118,0.071
0.131,0.185,0.054,-0.159,0.038,0.12,0.009,0.717,0.837,0.375,0.133,0.08
0.137,0.185,0.047,-0.161,0.044,0.116,-0.003,0.736,0.846,0.38,0.15,0.095
0.144,0.185,0.041,-0.165,0.051,0.113,-0.014,0.714,0.832,0.374,0.158,0.107
0.149,0.185,0.036,-0.167,0.056,0.11,-0.033,0.649,0.797,0.372,0.15,0.119
0.126,0.185,0.059,-0.156,0.033,0.122,-0.051,0.542,0.693,0.352,0.14,0.116
0.1,0.168,0.068,-0.134,0.016,0.118,-0.052,0.41,0.545,0.298,0.131,0.106
0.087,0.147,0.06,-0.117,0.013,0.104,-0.049,0.268,0.386,0.229,0.107,0.09
0.075,0.127,0.052,-0.102,0.011,0.09,-0.046,0.138,0.231,0.15,0.059,0.059
0.066,0.107,0.042,-0.087,0.012,0.074,-0.043,0.043,0.099,0.073,0.01,0.021
0.016,0.088,0.072,-0.052,-0.028,0.08,-0.041,-0.037,-0.005,0.004,-0.034,-0.001
-0.022,0.055,0.077,-0.016,-0.05,0.066,-0.038,-0.077,-0.07,-0.04,-0.061,-0.012
-0.022,0.04,0.062,-0.009,-0.042,0.05,-0.033,-0.094,-0.108,-0.07,-0.077,-0.029
-0.028,0.038,0.067,-0.006,-0.048,0.052,-0.027,-0.107,-0.13,-0.089,-0.087,-0.032
-0.027,0.036,0.063,-0.005,-0.045,0.049,-0.023,-0.1,-0.127,-0.09,-0.085,-0.029
-0.028,0.032,0.06,-0.002,-0.044,0.046,-0.016,-0.095,-0.12,-0.09,-0.085,-0.031
-0.029,0.031,0.06,-0.001,-0.045,0.046,-0.011,-0.09,-0.118,-0.09,-0.085,-0.03
-0.031,0.027,0.058,0.002,-0.045,0.042,-0.028,-0.083,-0.112,-0.09,-0.085,-0.03
-0.033,0.019,0.052,0.007,-0.043,0.035,-0.037,-0.082,-0.111,-0.091,-0.085,-0.03
-0.012,0.036,0.048,-0.012,-0.031,0.042,-0.034,-0.086,-0.116,-0.094,-0.09,-0.03
-0.007,0.038,0.045,-0.016,-0.026,0.042,-0.036,-0.091,-0.115,-0.095,-0.096,-0.035
-0.041,0.03,0.071,0.005,-0.056,0.05,-0.035,-0.094,-0.115,-0.099,-0.095,-0.035
-0.065,0.027,0.092,0.019,-0.078,0.059,-0.035,-0.099,-0.119,-0.1,-0.095,-0.035
-0.067,0.019,0.086,0.024,-0.077,0.052,-0.035,-0.102,-0.121,-0.102,-0.095,-0.032
-0.064,0.016,0.079,0.024,-0.072,0.047,-0.035,-0.106,-0.136,-0.11,-0.095,-0.029
-0.038,0.015,0.053,0.011,-0.046,0.034,-0.035,-0.115,-0.149,-0.115,-0.096,-0.031
-0.024,0.014,0.039,0.005,-0.032,0.026,-0.035,-0.12,-0.166,-0.122,-0.102,-0.035
-0.023,0.018,0.041,0.002,-0.033,0.029,-0.035,-0.133,-0.181,-0.132,-0.109,-0.035
-0.006,0.031,0.038,-0.013,-0.022,0.034,-0.037,-0.144,-0.179,-0.138,-0.11,-0.036
-0.005,0.031,0.036,-0.014,-0.02,0.033,-0.04,-0.146,-0.191,-0.141,-0.11,-0.041
-0.007,0.026,0.033,-0.01,-0.02,0.029,-0.043,-0.151,-0.204,-0.145,-0.11,-0.039
-0.02,0.024,0.044,-0.002,-0.032,0.034,-0.046,-0.154,-0.208,-0.15,-0.111,-0.043
-0.037,0.019,0.056,0.008,-0.047,0.037,-0.049,-0.155,-0.214,-0.154,-0.125,-0.045
-0.041,0.016,0.056,0.012,-0.049,0.036,-0.05,-0.156,-0.215,-0.159,-0.131,-0.045
-0.048,0.013,0.061,0.018,-0.055,0.037,-0.05,-0.16,-0.215,-0.158,-0.129,-0.05
-0.057,0.005,0.062,0.025,-0.06,0.034,-0.05,-0.159,-0.219,-0.155,-0.133,-0.05
-0.076,-0.01,0.067,0.042,-0.071,0.028,-0.049,-0.162,-0.22,-0.155,-0.135,-0.049
-0.068,-0.008,0.06,0.038,-0.064,0.025,-0.053,-0.169,-0.221,-0.155,-0.135,-0.053
-0.057,-0.002,0.056,0.029,-0.056,0.027,-0.055,-0.165,-0.226,-0.155,-0.132,-0.055
-0.075,0.0,0.076,0.037,-0.076,0.038,-0.055,-0.165,-0.229,-0.156,-0.129,-0.055
-0.07,0.007,0.077,0.031,-0.074,0.042,-0.055,-0.165,-0.227,-0.159,-0.126,-0.059
-0.059,0.009,0.068,0.025,-0.064,0.038,-0.055,-0.165,-0.224,-0.16,-0.123,-0.06
-0.059,0.007,0.066,0.026,-0.063,0.036,-0.055,-0.165,-0.221,-0.16,-0.12,-0.06
-0.058,-0.002,0.057,0.03,-0.058,0.027,-0.05,-0.163,-0.218,-0.159,-0.121,-0.065
-0.045,0.012,0.056,0.016,-0.051,0.034,-0.05,-0.156,-0.214,-0.161,-0.126,-0.065
-0.036,0.037,0.072,-0.001,-0.055,0.054,-0.05,-0.15,-0.216,-0.156,-0.129,-0.066
-0.04,0.034,0.075,0.003,-0.058,0.054,-0.049,-0.169,-0.228,-0.162,-0.127,-0.07
-0.032,0.035,0.068,-0.001,-0.05,0.051,-0.051,-0.182,-0.231,-0.177,-0.124,-0.07
-0.032,0.035,0.067,-0.002,-0.05,0.051,-0.047,-0.179,-0.229,-0.173,-0.121,-0.068
-0.025,0.035,0.06,-0.005,-0.043,0.047,-0.045,-0.181,-0.231,-0.17,-0.119,-0.064
-0.027,0.034,0.06,-0.003,-0.044,0.047,-0.045,-0.179,-0.229,-0.167,-0.114,-0.062
-0.048,0.028,0.077,0.01,-0.062,0.053,-0.042,-0.181,-0.231,-0.165,-0.118,-0.059
-0.05,0.031,0.081,0.01,-0.066,0.056,-0.039,-0.176,-0.226,-0.163,-0.126,-0.056
-0.057,0.022,0.079,0.018,-0.068,0.05,-0.041,-0.172,-0.22,-0.159,-0.123,-0.054
-0.052,0.029,0.081,0.011,-0.067,0.055,-0.047,-0.167,-0.215,-0.157,-0.12,-0.05
-0.055,0.023,0.078,0.016,-0.067,0.05,-0.05,-0.163,-0.208,-0.152,-0.117,-0.044
-0.05,0.026,0.075,0.011,-0.063,0.05,-0.051,-0.135,-0.204,-0.15,-0.114,-0.038
-0.001,0.074,0.075,-0.037,-0.038,0.074,-0.024,-0.107,-0.177,-0.132,-0.098,-0.032
0.006,0.081,0.075,-0.044,-0.035,0.078,0.008,-0.107,-0.16,-0.118,-0.085,-0.027
0.018,0.087,0.069,-0.053,-0.026,0.078,0.022,-0.056,-0.138,-0.119,-0.085,-0.025
0.018,0.063,0.045,-0.041,-0.014,0.054,-0.028,-0.081,-0.142,-0.121,-0.085,-0.022
0.013,0.044,0.031,-0.028,-0.01,0.037,-0.088,-0.149,-0.185,-0.118,-0.085,-0.019
0.038,0.046,0.008,-0.042,0.015,0.026,-0.079,-0.144,-0.206,-0.121,-0.085,-0.016
0.014,0.016,0.002,-0.015,0.006,0.009,-0.072,-0.167,-0.216,-0.13,-0.087,-0.014
-0.027,-0.002,0.025,0.014,-0.026,0.011,-0.067,-0.17,-0.206,-0.14,-0.099,-0.032
-0.068,-0.007,0.061,0.037,-0.064,0.027,-0.058,-0.172,-0.23,-0.156,-0.127,-0.052
-0.043,0.009,0.052,0.016,-0.048,0.03,-0.055,-0.167,-0.226,-0.156,-0.139,-0.058
-0.022,0.032,0.054,-0.005,-0.038,0.042,-0.066,-0.176,-0.241,-0.168,-0.143,-0.066
-0.028,0.034,0.062,-0.004,-0.045,0.048,-0.068,-0.164,-0.209,-0.148,-0.135,-0.065
-0.021,0.017,0.037,0.002,-0.029,0.027,-0.059,-0.17,-0.235,-0.174,-0.145,-0.076
-0.059,0.041,0.1,0.009,-0.08,0.071,-0.057,-0.163,-0.206,-0.147,-0.136,-0.078
-0.064,-0.004,0.061,0.034,-0.063,0.028,-0.048,-0.153,-0.197,-0.165,-0.135,-0.076
-0.108,0.09,0.197,0.009,-0.153,0.143,-0.021,-0.185,-0.168,-0.151,-0.137,-0.078
-0.094,0.113,0.207,-0.009,-0.151,0.16,0.037,-0.112,0.085,0.049,-0.034,-0.036
0.216,0.126,-0.09,-0.171,0.152,0.018,0.018,0.333,0.992,1.195,0.756,0.336
0.74,0.305,-0.436,-0.522,0.588,-0.065,-0.199,0.655,2.364,2.574,1.835,0.948
0.728,0.02,-0.708,-0.374,0.718,-0.343,-0.632,-0.927,0.449,0.906,1.163,0.842
0.198,-0.216,-0.414,0.009,0.306,-0.314,-0.819,-2.332,-2.168,-1.104,-0.117,0.279
-0.064,-0.185,-0.121,0.125,0.029,-0.153,-0.61,-1.705,-1.618,-0.918,-0.344,0.025
-0.138,-0.064,0.074,0.101,-0.106,0.005,-0.362,-0.876,-0.79,-0.578,-0.317,-0.082
-0.104,0.058,0.163,0.023,-0.134,0.11,-0.103,-0.269,-0.278,-0.227,-0.181,-0.082
-0.053,0.045,0.098,0.004,-0.076,0.072,-0.009,-0.087,-0.108,-0.151,-0.129,-0.067
-0.052,0.074,0.126,-0.011,-0.09,0.1,-0.015,-0.062,-0.122,-0.153,-0.133,-0.063
-0.037,0.061,0.098,-0.012,-0.068,0.079,0.01,0.011,-0.031,-0.101,-0.108,-0.048
-0.048,0.066,0.113,-0.009,-0.081,0.089,0.003,0.01,-0.044,-0.11,-0.119,-0.053
-0.044,0.066,0.109,-0.011,-0.077,0.087,0.02,0.067,0.032,-0.055,-0.098,-0.048
-0.038,0.07,0.108,-0.016,-0.073,0.089,0.028,0.069,0.032,-0.071,-0.102,-0.051
-0.036,0.077,0.113,-0.02,-0.075,0.095,0.032,0.1,0.076,-0.042,-0.086,-0.05
-0.02,0.085,0.105,-0.032,-0.063,0.095,0.03,0.113,0.097,-0.029,-0.081,-0.049
-0.016,0.103,0.119,-0.043,-0.068,0.111,0.028,0.135,0.133,-0.002,-0.071,-0.043
-0.026,0.094,0.119,-0.034,-0.073,0.107,0.025,0.168,0.18,0.009,-0.063,-0.037
0.005,0.125,0.12,-0.065,-0.058,0.122,0.025,0.2,0.218,0.019,-0.06,-0.032
0.043,0.138,0.095,-0.09,-0.027,0.116,0.029,0.254,0.278,0.055,-0.047,-0.025
0.036,0.133,0.097,-0.085,-0.031,0.115,0.028,0.316,0.347,0.091,-0.022,-0.015
0.024,0.16,0.136,-0.092,-0.056,0.148,0.04,0.382,0.422,0.128,0.004,-0.005
0.022,0.158,0.136,-0.091,-0.057,0.146,0.047,0.453,0.496,0.158,0.021,0.005
0.03,0.164,0.134,-0.097,-0.052,0.148,0.044,0.548,0.598,0.217,0.048,0.018
0.052,0.189,0.137,-0.121,-0.043,0.163,0.042,0.636,0.692,0.267,0.07,0.029
0.057,0.187,0.13,-0.122,-0.037,0.158,0.04,0.718,0.776,0.309,0.097,0.047
0.085,0.206,0.121,-0.146,-0.018,0.163,0.04,0.784,0.85,0.354,0.127,0.066
0.127,0.235,0.108,-0.181,0.009,0.171,0.029,0.807,0.883,0.378,0.139,0.074
0.146,0.243,0.097,-0.195,0.024,0.17,0.014,0.808,0.898,0.392,0.163,0.089
0.149,0.239,0.09,-0.194,0.029,0.164,0.002,0.771,0.878,0.379,0.175,0.091
0.14,0.23,0.089,-0.185,0.025,0.159,-0.018,0.679,0.801,0.363,0.164,0.082
0.132,0.22,0.088,-0.176,0.022,0.153,-0.036,0.547,0.679,0.334,0.157,0.074
0.112,0.195,0.082,-0.154,0.015,0.138,-0.036,0.398,0.531,0.274,0.135,0.066
0.073,0.168,0.096,-0.121,-0.012,0.132,-0.034,0.251,0.371,0.197,0.094,0.058
0.039,0.158,0.119,-0.099,-0.04,0.138,-0.035,0.122,0.216,0.114,0.045,0.029
0.025,0.135,0.11,-0.08,-0.043,0.123,-0.035,0.032,0.104,0.044,0.0,0.002
0.005,0.107,0.102,-0.057,-0.048,0.104,-0.035,-0.025,0.019,-0.016,-0.037,-0.017
-0.003,0.09,0.093,-0.043,-0.048,0.091,-0.033,-0.068,-0.048,-0.056,-0.07,-0.04
-0.009,0.075,0.084,-0.033,-0.047,0.079,-0.027,-0.086,-0.088,-0.077,-0.087,-0.046
-0.013,0.073,0.086,-0.031,-0.05,0.08,-0.022,-0.09,-0.106,-0.094,-0.093,-0.044
-0.006,0.077,0.083,-0.036,-0.045,0.08,-0.019,-0.086,-0.1,-0.096,-0.099,-0.046
-0.018,0.079,0.097,-0.031,-0.058,0.088,-0.013,-0.079,-0.095,-0.094,-0.098,-0.045
-0.025,0.082,0.107,-0.029,-0.066,0.095,-0.01,-0.075,-0.09,-0.091,-0.095,-0.045
-0.016,0.086,0.102,-0.035,-0.059,0.093,-0.014,-0.068,-0.083,-0.09,-0.095,-0.048
-0.018,0.082,0.1,-0.032,-0.059,0.091,-0.019,-0.066,-0.081,-0.089,-0.093,-0.051
-0.016,0.08,0.096,-0.033,-0.056,0.088,-0.018,-0.074,-0.086,-0.085,-0.089,-0.048
-0.017,0.078,0.095,-0.031,-0.056,0.086,-0.015,-0.075,-0.085,-0.085,-0.09,-0.045
-0.016,0.076,0.092,-0.03,-0.055,0.083,-0.015,-0.075,-0.088,-0.085,-0.094,-0.045
-0.015,0.074,0.089,-0.03,-0.052,0.081,-0.015,-0.076,-0.091,-0.085,-0.095,-0.043
-0.018,0.069,0.086,-0.026,-0.052,0.077,-0.015,-0.074,-0.089,-0.084,-0.097,-0.04
-0.023,0.06,0.083,-0.019,-0.053,0.071,-0.015,-0.092,-0.108,-0.092,-0.1,-0.04
-0.029,0.051,0.08,-0.011,-0.055,0.065,-0.021,-0.104,-0.124,-0.106,-0.101,-0.044
-0.032,0.047,0.078,-0.007,-0.055,0.062,-0.031,-0.109,-0.133,-0.114,-0.105,-0.051
-0.042,0.031,0.073,0.006,-0.058,0.051,-0.033,-0.123,-0.138,-0.121,-0.107,-0.057
-0.017,0.049,0.066,-0.016,-0.042,0.058,-0.03,-0.126,-0.154,-0.126,-0.11,-0.06
-0.013,0.05,0.062,-0.019,-0.038,0.056,-0.03,-0.124,-0.172,-0.131,-0.114,-0.06
-0.021,0.033,0.054,-0.006,-0.038,0.043,-0.03,-0.127,-0.169,-0.134,-0.115,-0.06
-0.038,0.033,0.071,0.002,-0.055,0.052,-0.03,-0.146,-0.17,-0.139,-0.119,-0.06
-0.072,0.026,0.098,0.022,-0.085,0.062,-0.03,-0.151,-0.173,-0.14,-0.12,-0.06
-0.044,0.048,0.092,-0.002,-0.068,0.07,-0.03,-0.149,-0.175,-0.14,-0.12,-0.056
-0.04,0.041,0.082,-0.001,-0.061,0.061,-0.03,-0.151,-0.175,-0.144,-0.124,-0.054
-0.047,0.028,0.075,0.009,-0.061,0.051,-0.03,-0.15,-0.176,-0.146,-0.125,-0.055
-0.041,0.025,0.066,0.008,-0.054,0.046,-0.03,-0.149,-0.18,-0.144,-0.124,-0.055
-0.042,0.02,0.062,0.011,-0.052,0.041,-0.029,-0.145,-0.179,-0.138,-0.119,-0.055
-0.034,0.019,0.053,0.008,-0.044,0.035,-0.033,-0.145,-0.182,-0.132,-0.115,-0.055
-0.037,0.012,0.049,0.012,-0.043,0.03,-0.035,-0.143,-0.185,-0.127,-0.113,-0.055
-0.028,0.011,0.039,0.008,-0.034,0.025,-0.035,-0.139,-0.185,-0.122,-0.108,-0.055
-0.04,-0.005,0.035,0.022,-0.037,0.015,-0.039,-0.141,-0.182,-0.115,-0.105,-0.055
-0.061,-0.004,0.058,0.032,-0.059,0.027,-0.041,-0.142,-0.179,-0.126,-0.109,-0.055
-0.05,0.011,0.061,0.019,-0.056,0.036,-0.039,-0.151,-0.176,-0.136,-0.11,-0.055
-0.037,0.018,0.054,0.009,-0.046,0.036,-0.036,-0.161,-0.173,-0.134,-0.11,-0.059
-0.031,0.024,0.055,0.003,-0.043,0.039,-0.031,-0.156,-0.17,-0.135,-0.115,-0.06
-0.029,0.02,0.049,0.004,-0.039,0.034,-0.029,-0.153,-0.171,-0.135,-0.115,-0.06
-0.034,0.017,0.052,0.008,-0.043,0.035,-0.024,-0.149,-0.18,-0.135,-0.116,-0.06
-0.04,0.015,0.055,0.012,-0.048,0.035,-0.021,-0.146,-0.186,-0.131,-0.12,-0.06
-0.044,0.011,0.055,0.016,-0.049,0.032,-0.02,-0.142,-0.184,-0.13,-0.12,-0.059
-0.047,0.01,0.057,0.018,-0.052,0.034,-0.02,-0.14,-0.185,-0.13,-0.12,-0.055
-0.054,0.006,0.06,0.024,-0.058,0.033,-0.02,-0.14,-0.184,-0.125,-0.12,-0.055
-0.058,0.002,0.06,0.028,-0.059,0.031,-0.02,-0.14,-0.185,-0.125,-0.12,-0.055
-0.06,-0.004,0.057,0.031,-0.058,0.026,-0.02,-0.14,-0.181,-0.124,-0.116,-0.055
-0.057,-0.003,0.053,0.03,-0.055,0.025,-0.019,-0.139,-0.176,-0.117,-0.109,-0.055
-0.041,0.009,0.05,0.016,-0.046,0.029,-0.015,-0.134,-0.174,-0.111,-0.103,-0.051
-0.023,0.024,0.047,-0.001,-0.035,0.035,-0.003,-0.121,-0.167,-0.105,-0.096,-0.045
-0.002,0.041,0.043,-0.02,-0.023,0.042,-0.003,-0.115,-0.166,-0.098,-0.09,-0.04
0.005,0.042,0.036,-0.024,-0.016,0.039,0.019,-0.098,-0.135,-0.091,-0.083,-0.034
0.005,0.031,0.026,-0.018,-0.011,0.028,0.044,-0.086,-0.111,-0.079,-0.068,-0.025
0.008,0.027,0.019,-0.018,-0.006,0.023,0.04,-0.041,-0.078,-0.057,-0.061,-0.019
0.008,0.015,0.007,-0.012,0.001,0.011,0.009,-0.026,-0.056,-0.047,-0.067,-0.02
0.028,0.014,-0.015,-0.021,0.021,-0.001,-0.061,-0.116,-0.12,-0.07,-0.068,-0.02
0.061,0.019,-0.042,-0.04,0.052,-0.011,-0.073,-0.139,-0.137,-0.086,-0.072,-0.02
0.036,-0.008,-0.044,-0.013,0.04,-0.026,-0.052,-0.134,-0.144,-0.087,-0.075,-0.021
-0.025,-0.037,-0.011,0.032,-0.007,-0.024,-0.048,-0.134,-0.151,-0.084,-0.075,-0.019
-0.056,-0.05,0.007,0.053,-0.031,-0.021,-0.038,-0.14,-0.165,-0.112,-0.091,-0.04
-0.058,-0.038,0.02,0.047,-0.038,-0.009,-0.033,-0.152,-0.167,-0.116,-0.087,-0.056
-0.043,-0.045,-0.002,0.044,-0.021,-0.023,-0.025,-0.145,-0.174,-0.124,-0.101,-0.059
-0.043,-0.031,0.012,0.037,-0.027,-0.009,-0.019,-0.148,-0.178,-0.118,-0.122,-0.064
-0.031,-0.038,-0.007,0.035,-0.011,-0.023,-0.013,-0.132,-0.155,-0.111,-0.117,-0.062
-0.066,-0.042,0.024,0.054,-0.045,-0.009,-0.007,-0.146,-0.18,-0.125,-0.125,-0.061
-0.047,-0.036,0.011,0.041,-0.029,-0.012,0.003,-0.122,-0.128,-0.098,-0.113,-0.058
-0.059,-0.036,0.023,0.047,-0.041,-0.006,0.004,-0.159,-0.176,-0.14,-0.128,-0.062
-0.127,0.081,0.208,0.022,-0.168,0.144,0.044,-0.142,0.006,-0.04,-0.106,-0.059
0.034,0.07,0.036,-0.052,-0.001,0.053,0.078,0.045,0.395,0.432,0.227,0.079
0.494,0.188,-0.305,-0.341,0.399,-0.058,-0.008,0.677,1.827,2.063,1.375,0.65
0.867,0.174,-0.693,-0.52,0.78,-0.259,-0.364,0.2,2.056,2.238,1.799,1.021
0.508,-0.184,-0.692,-0.162,0.6,-0.438,-0.759,-1.841,-0.994,-0.237,0.503,0.585
0.04,-0.266,-0.306,0.113,0.173,-0.285,-0.717,-2.193,-2.105,-1.107,-0.286,0.148
-0.095,-0.179,-0.084,0.137,-0.005,-0.131,-0.47,-1.265,-1.091,-0.69,-0.304,-0.017
-0.153,-0.062,0.091,0.107,-0.122,0.015,-0.201,-0.544,-0.494,-0.38,-0.24,-0.081
-0.105,-0.036,0.069,0.07,-0.086,0.016,0.002,-0.087,-0.078,-0.093,-0.11,-0.058
-0.1,-0.05,0.05,0.075,-0.075,0.0,0.022,-0.065,-0.097,-0.132,-0.125,-0.064
-0.083,-0.032,0.051,0.057,-0.067,0.009,0.041,0.023,-0.02,-0.062,-0.093,-0.052
-0.074,-0.042,0.033,0.058,-0.053,-0.005,0.049,0.047,0.005,-0.078,-0.09,-0.049
-0.073,-0.03,0.043,0.051,-0.058,0.006,0.052,0.075,0.034,-0.052,-0.08,-0.044
-0.056,-0.031,0.025,0.043,-0.04,-0.003,0.059,0.106,0.078,-0.027,-0.071,-0.037
-0.047,-0.016,0.031,0.032,-0.039,0.007,0.059,0.12,0.091,-0.013,-0.072,-0.034
-0.028,-0.008,0.02,0.017,-0.024,0.006,0.065,0.149,0.138,0.013,-0.057,-0.026
-0.033,-0.002,0.031,0.017,-0.032,0.014,0.065,0.156,0.156,0.013,-0.046,-0.022
-0.05,0.006,0.057,0.022,-0.054,0.031,0.07,0.201,0.208,0.046,-0.024,-0.016
-0.049,0.007,0.056,0.021,-0.052,0.031,0.073,0.237,0.249,0.063,-0.023,-0.01
-0.017,0.03,0.047,-0.007,-0.032,0.039,0.075,0.275,0.306,0.093,-0.007,-0.001
-0.005,0.037,0.042,-0.016,-0.024,0.039,0.076,0.333,0.365,0.123,0.013,0.008
0.015,0.047,0.032,-0.032,-0.008,0.039,0.08,0.391,0.424,0.156,0.026,0.016
0.037,0.064,0.027,-0.051,0.005,0.045,0.08,0.467,0.501,0.196,0.051,0.029
0.035,0.058,0.024,-0.047,0.005,0.041,0.075,0.554,0.584,0.231,0.069,0.039
0.078,0.1,0.022,-0.089,0.028,0.061,0.075,0.644,0.679,0.281,0.097,0.045
0.102,0.12,0.018,-0.111,0.042,0.069,0.076,0.74,0.776,0.337,0.129,0.061
0.103,0.119,0.016,-0.112,0.044,0.067,0.075,0.812,0.855,0.379,0.15,0.073
0.113,0.126,0.013,-0.12,0.049,0.07,0.076,0.867,0.927,0.422,0.176,0.091
0.128,0.132,0.003,-0.13,0.062,0.067,0.071,0.876,0.937,0.436,0.197,0.102
0.152,0.143,-0.009,-0.147,0.08,0.067,0.054,0.861,0.932,0.438,0.212,0.11
0.156,0.136,-0.02,-0.146,0.088,0.057,0.038,0.807,0.913,0.435,0.213,0.117
0.155,0.133,-0.022,-0.144,0.088,0.055,0.021,0.685,0.811,0.41,0.202,0.106
0.141,0.127,-0.014,-0.134,0.077,0.056,0.01,0.537,0.668,0.359,0.187,0.105
0.117,0.109,-0.007,-0.113,0.062,0.051,0.01,0.382,0.512,0.285,0.151,0.092
0.075,0.074,-0.002,-0.074,0.038,0.036,0.01,0.243,0.355,0.214,0.109,0.069
0.014,0.022,0.008,-0.018,0.002,0.015,0.01,0.134,0.213,0.14,0.072,0.054
-0.019,-0.014,0.005,0.017,-0.011,-0.005,0.01,0.062,0.106,0.073,0.027,0.017
-0.006,0.002,0.008,0.002,-0.007,0.005,0.01,0.018,0.025,0.018,-0.008,0.001
-0.007,0.008,0.015,-0.001,-0.011,0.011,0.019,-0.017,-0.019,-0.019,-0.022,-0.003
-0.023,-0.014,0.008,0.018,-0.015,-0.003,0.033,-0.031,-0.045,-0.037,-0.035,-0.012
-0.021,-0.017,0.004,0.018,-0.013,-0.006,0.038,-0.028,-0.069,-0.053,-0.05,-0.017
-0.038,-0.038,0.0,0.038,-0.019,-0.019,0.033,-0.022,-0.062,-0.065,-0.055,-0.025
-0.043,-0.047,-0.004,0.046,-0.019,-0.025,0.027,-0.019,-0.052,-0.067,-0.055,-0.025
-0.029,-0.043,-0.014,0.037,-0.007,-0.029,0.024,-0.014,-0.045,-0.063,-0.055,-0.026
-0.034,-0.046,-0.012,0.04,-0.011,-0.029,0.018,-0.01,-0.039,-0.061,-0.055,-0.024
-0.017,-0.044,-0.027,0.031,0.005,-0.035,0.015,-0.022,-0.041,-0.058,-0.055,-0.03
-0.004,-0.045,-0.041,0.025,0.019,-0.043,0.026,-0.031,-0.037,-0.055,-0.051,-0.042
-0.019,-0.048,-0.028,0.034,0.005,-0.038,0.032,-0.03,-0.035,-0.055,-0.05,-0.038
-0.026,-0.052,-0.026,0.039,0.0,-0.039,0.027,-0.03,-0.035,-0.055,-0.05,-0.035
-0.029,-0.054,-0.025,0.042,-0.001,-0.04,0.026,-0.03,-0.039,-0.055,-0.045,-0.033
-0.035,-0.059,-0.024,0.048,-0.006,-0.041,0.022,-0.03,-0.053,-0.056,-0.045,-0.029
-0.032,-0.058,-0.027,0.046,-0.002,-0.042,0.02,-0.044,-0.063,-0.054,-0.046,-0.033
-0.032,-0.055,-0.023,0.044,-0.004,-0.039,0.018,-0.068,-0.081,-0.066,-0.055,-0.035
-0.019,-0.048,-0.029,0.034,0.005,-0.038,0.014,-0.071,-0.113,-0.081,-0.064,-0.035
-0.007,-0.047,-0.04,0.027,0.017,-0.043,0.015,-0.07,-0.124,-0.083,-0.066,-0.039
-0.003,-0.037,-0.034,0.02,0.016,-0.035,0.015,-0.075,-0.125,-0.088,-0.069,-0.04
-0.004,-0.038,-0.034,0.021,0.015,-0.036,0.015,-0.074,-0.131,-0.092,-0.072,-0.04
-0.044,-0.077,-0.032,0.061,-0.006,-0.054,0.015,-0.077,-0.128,-0.097,-0.075,-0.04
-0.052,-0.079,-0.027,0.066,-0.012,-0.053,0.01,-0.08,-0.135,-0.1,-0.075,-0.04
-0.044,-0.068,-0.024,0.057,-0.01,-0.046,0.01,-0.084,-0.145,-0.095,-0.075,-0.04
-0.049,-0.071,-0.022,0.06,-0.013,-0.046,0.01,-0.084,-0.146,-0.095,-0.075,-0.04
-0.044,-0.058,-0.014,0.052,-0.015,-0.036,0.011,-0.088,-0.15,-0.093,-0.075,-0.04
-0.047,-0.068,-0.021,0.058,-0.013,-0.044,0.009,-0.097,-0.148,-0.09,-0.075,-0.038
-0.062,-0.09,-0.028,0.076,-0.017,-0.059,0.014,-0.092,-0.144,-0.089,-0.075,-0.034
-0.07,-0.09,-0.02,0.08,-0.025,-0.055,0.026,-0.089,-0.145,-0.093,-0.079,-0.032
-0.045,-0.091,-0.046,0.068,0.001,-0.068,0.025,-0.086,-0.145,-0.102,-0.08,-0.029
-0.038,-0.095,-0.058,0.067,0.011,-0.077,0.021,-0.081,-0.145,-0.106,-0.08,-0.026
-0.045,-0.095,-0.05,0.07,0.003,-0.072,0.019,-0.08,-0.145,-0.109,-0.084,-0.024
-0.043,-0.093,-0.049,0.068,0.003,-0.071,0.015,-0.079,-0.152,-0.113,-0.085,-0.02
-0.043,-0.089,-0.046,0.067,0.002,-0.067,0.015,-0.094,-0.16,-0.115,-0.084,-0.02
-0.048,-0.09,-0.043,0.069,-0.003,-0.066,0.022,-0.102,-0.16,-0.105,-0.08,-0.019
-0.04,-0.09,-0.05,0.065,0.005,-0.069,0.026,-0.099,-0.16,-0.096,-0.08,-0.015
-0.027,-0.09,-0.063,0.059,0.018,-0.076,0.024,-0.101,-0.16,-0.102,-0.08,-0.015
-0.033,-0.09,-0.057,0.062,0.012,-0.073,0.029,-0.1,-0.16,-0.104,-0.08,-0.018
-0.06,-0.096,-0.035,0.078,-0.012,-0.065,0.031,-0.1,-0.159,-0.1,-0.08,-0.027
-0.068,-0.103,-0.035,0.086,-0.016,-0.069,0.03,-0.095,-0.155,-0.1,-0.076,-0.026
-0.037,-0.103,-0.066,0.07,0.015,-0.084,0.03,-0.09,-0.15,-0.099,-0.075,-0.02
-0.02,-0.092,-0.072,0.056,0.027,-0.082,0.03,-0.086,-0.145,-0.095,-0.075,-0.015
-0.015,-0.083,-0.068,0.049,0.027,-0.075,0.03,-0.081,-0.141,-0.095,-0.075,-0.012
-0.011,-0.08,-0.07,0.046,0.03,-0.075,0.032,-0.077,-0.136,-0.093,-0.074,-0.005
-0.004,-0.069,-0.064,0.037,0.03,-0.066,0.036,-0.076,-0.138,-0.088,-0.077,-0.009
-0.033,-0.093,-0.06,0.063,0.013,-0.076,0.034,-0.084,-0.146,-0.085,-0.087,-0.026
-0.051,-0.111,-0.06,0.081,0.005,-0.085,0.04,-0.076,-0.145,-0.083,-0.085,-0.024
-0.039,-0.088,-0.05,0.064,0.006,-0.069,0.039,-0.078,-0.146,-0.077,-0.081,-0.012
-0.02,-0.075,-0.054,0.047,0.017,-0.064,0.042,-0.065,-0.139,-0.076,-0.073,-0.004
0.005,-0.033,-0.038,0.014,0.021,-0.035,0.065,-0.034,-0.098,-0.062,-0.052,0.008
0.014,-0.019,-0.034,0.003,0.024,-0.026,0.083,-0.017,-0.062,-0.044,-0.024,0.017
0.036,-0.055,-0.091,0.01,0.064,-0.073,0.076,0.028,-0.023,-0.038,-0.013,0.025
0.042,-0.07,-0.113,0.014,0.078,-0.091,0.034,-0.015,-0.055,-0.042,-0.026,0.034
0.053,-0.077,-0.13,0.012,0.091,-0.103,-0.014,-0.081,-0.114,-0.038,-0.034,0.035
0.052,-0.089,-0.141,0.019,0.097,-0.114,-0.028,-0.071,-0.111,-0.042,-0.042,0.037
0.017,-0.105,-0.122,0.044,0.07,-0.113,-0.015,-0.084,-0.124,-0.06,-0.038,0.029
-0.034,-0.126,-0.091,0.08,0.029,-0.108,-0.005,-0.09,-0.138,-0.072,-0.046,0.008
-0.051,-0.123,-0.072,0.088,0.011,-0.098,0.001,-0.092,-0.136,-0.083,-0.07,0.001
-0.025,-0.126,-0.101,0.076,0.038,-0.113,0.01,-0.087,-0.129,-0.087,-0.074,-0.006
-0.052,-0.126,-0.074,0.089,0.012,-0.1,0.015,-0.095,-0.154,-0.097,-0.079,-0.013
-0.047,-0.121,-0.074,0.084,0.014,-0.098,0.023,-0.084,-0.129,-0.086,-0.067,-0.018
-0.062,-0.134,-0.072,0.098,0.005,-0.103,0.029,-0.091,-0.153,-0.109,-0.077,-0.027
-0.067,-0.145,-0.078,0.106,0.006,-0.112,0.037,-0.082,-0.112,-0.074,-0.062,-0.027
-0.038,-0.153,-0.116,0.096,0.039,-0.134,0.037,-0.082,-0.135,-0.106,-0.078,-0.036
-0.147,-0.074,0.073,0.11,-0.11,0.0,0.061,-0.107,-0.075,-0.071,-0.095,-0.031
-0.109,-0.131,-0.022,0.12,-0.043,-0.076,0.133,0.005,0.234,0.21,0.074,0.033
0.292,-0.015,-0.307,-0.138,0.3,-0.161,0.1,0.526,1.333,1.546,1.022,0.498
0.757,0.109,-0.648,-0.433,0.702,-0.269,-0.162,0.598,2.361,2.595,1.921,1.049
0.603,-0.242,-0.845,-0.18,0.724,-0.544,-0.491,-1.015,-0.01,0.554,0.959,0.778
0.116,-0.385,-0.5,0.135,0.308,-0.442,-0.585,-2.04,-2.184,-1.129,-0.173,0.259
-0.096,-0.309,-0.214,0.203,0.059,-0.261,-0.44,-1.429,-1.413,-0.818,-0.323,0.03
-0.153,-0.191,-0.037,0.172,-0.058,-0.114,-0.22,-0.696,-0.643,-0.486,-0.275,-0.059
-0.075,-0.123,-0.048,0.099,-0.013,-0.085,-0.011,-0.147,-0.14,-0.131,-0.097,-0.005
-0.059,-0.147,-0.088,0.103,0.015,-0.117,0.061,-0.027,-0.027,-0.104,-0.089,-0.004
-0.067,-0.119,-0.052,0.093,-0.007,-0.085,0.078,0.014,-0.001,-0.073,-0.083,-0.009
-0.054,-0.125,-0.071,0.09,0.009,-0.098,0.1,0.073,0.08,-0.035,-0.065,-0.007
-0.07,-0.109,-0.04,0.09,-0.015,-0.075,0.1,0.083,0.079,-0.028,-0.066,-0.013
-0.021,-0.107,-0.085,0.064,0.032,-0.096,0.108,0.126,0.148,0.018,-0.038,-0.001
0.013,-0.1,-0.113,0.043,0.063,-0.106,0.109,0.126,0.152,0.005,-0.038,-0.001
0.017,-0.091,-0.109,0.037,0.063,-0.1,0.115,0.154,0.196,0.037,-0.015,0.009
0.019,-0.089,-0.107,0.035,0.063,-0.098,0.115,0.174,0.22,0.046,-0.01,0.012
0.018,-0.08,-0.098,0.031,0.058,-0.088,0.116,0.213,0.271,0.08,0.006,0.022
0.016,-0.077,-0.094,0.031,0.055,-0.085,0.121,0.239,0.308,0.096,0.016,0.029
0.015,-0.07,-0.085,0.028,0.05,-0.077,0.119,0.275,0.361,0.124,0.028,0.037
0.015,-0.065,-0.08,0.025,0.048,-0.072,0.123,0.32,0.422,0.156,0.048,0.049
0.018,-0.055,-0.073,0.019,0.046,-0.064,0.125,0.354,0.475,0.174,0.058,0.048
0.053,-0.047,-0.101,-0.003,0.077,-0.074,0.125,0.423,0.565,0.227,0.091,0.068
0.067,-0.038,-0.104,-0.014,0.086,-0.071,0.129,0.489,0.65,0.277,0.124,0.091
0.046,-0.029,-0.075,-0.008,0.061,-0.051,0.13,0.554,0.74,0.312,0.132,0.092
0.084,-0.012,-0.096,-0.036,0.09,-0.054,0.13,0.626,0.839,0.364,0.159,0.101
0.137,0.021,-0.115,-0.079,0.126,-0.047,0.123,0.685,0.925,0.419,0.194,0.119
0.141,0.026,-0.115,-0.083,0.128,-0.044,0.112,0.73,0.999,0.463,0.217,0.134
0.136,0.019,-0.117,-0.078,0.127,-0.049,0.103,0.745,1.03,0.493,0.236,0.146
0.149,0.026,-0.123,-0.087,0.135,-0.048,0.091,0.742,1.03,0.505,0.255,0.16
0.134,0.02,-0.114,-0.077,0.124,-0.047,0.075,0.701,1.002,0.494,0.265,0.159
0.132,0.011,-0.121,-0.071,0.126,-0.054,0.058,0.632,0.93,0.466,0.259,0.15
0.133,0.002,-0.131,-0.067,0.132,-0.064,0.065,0.53,0.798,0.421,0.251,0.142
0.107,-0.006,-0.112,-0.05,0.11,-0.059,0.072,0.399,0.624,0.353,0.22,0.135
0.088,-0.03,-0.118,-0.029,0.103,-0.074,0.069,0.287,0.456,0.265,0.166,0.122
0.028,-0.086,-0.114,0.029,0.071,-0.1,0.071,0.187,0.306,0.186,0.114,0.087
-0.002,-0.11,-0.108,0.056,0.053,-0.108,0.069,0.124,0.188,0.12,0.069,0.061
0.002,-0.099,-0.101,0.049,0.052,-0.1,0.071,0.077,0.096,0.06,0.035,0.044
-0.013,-0.125,-0.112,0.069,0.049,-0.118,0.074,0.057,0.041,0.021,0.012,0.035
0.002,-0.152,-0.154,0.076,0.078,-0.153,0.078,0.05,0.02,0.001,-0.001,0.032
0.006,-0.15,-0.156,0.072,0.081,-0.152,0.088,0.043,0.019,-0.005,-0.007,0.026
-0.004,-0.149,-0.144,0.077,0.07,-0.146,0.087,0.046,0.021,-0.016,-0.014,0.02
-0.004,-0.145,-0.141,0.075,0.069,-0.143,0.084,0.044,0.019,-0.018,-0.02,0.016
-0.009,-0.144,-0.136,0.077,0.064,-0.14,0.085,0.045,0.021,-0.014,-0.028,0.02
-0.014,-0.148,-0.134,0.081,0.06,-0.141,0.084,0.044,0.019,-0.016,-0.028,0.02
-0.021,-0.15,-0.129,0.085,0.054,-0.139,0.086,0.047,0.016,-0.011,-0.024,0.021
-0.024,-0.15,-0.126,0.088,0.051,-0.138,0.083,0.045,0.014,-0.01,-0.026,0.025
-0.027,-0.15,-0.122,0.089,0.048,-0.136,0.081,0.038,0.014,-0.011,-0.021,0.025
-0.031,-0.15,-0.119,0.091,0.044,-0.135,0.077,0.034,0.009,-0.016,-0.02,0.023
-0.029,-0.15,-0.121,0.089,0.046,-0.135,0.075,0.027,0.011,-0.022,-0.019,0.017
-0.035,-0.15,-0.116,0.093,0.041,-0.133,0.071,0.022,0.004,-0.027,-0.016,0.012
-0.035,-0.15,-0.115,0.093,0.04,-0.132,0.069,0.017,-0.022,-0.033,-0.014,0.009
-0.035,-0.15,-0.115,0.093,0.04,-0.132,0.086,0.013,-0.038,-0.043,-0.019,0.003
-0.036,-0.15,-0.114,0.094,0.039,-0.132,0.09,0.01,-0.052,-0.05,-0.037,0.0
-0.024,-0.149,-0.125,0.087,0.05,-0.136,0.081,0.007,-0.062,-0.05,-0.045,0.004
-0.019,-0.158,-0.139,0.089,0.06,-0.148,0.08,0.002,-0.071,-0.053,-0.045,0.005
-0.007,-0.166,-0.159,0.087,0.077,-0.163,0.073,0.0,-0.09,-0.055,-0.044,0.005
-0.007,-0.164,-0.158,0.086,0.076,-0.161,0.069,-0.002,-0.089,-0.066,-0.049,0.005
-0.022,-0.165,-0.143,0.094,0.061,-0.154,0.08,-0.015,-0.082,-0.076,-0.06,0.005
-0.028,-0.165,-0.137,0.097,0.055,-0.151,0.087,-0.015,-0.105,-0.079,-0.06,0.003
-0.041,-0.164,-0.123,0.103,0.041,-0.143,0.084,-0.011,-0.106,-0.084,-0.06,0.0
-0.039,-0.169,-0.13,0.104,0.046,-0.15,0.082,-0.009,-0.127,-0.083,-0.06,0.0
-0.009,-0.169,-0.16,0.09,0.075,-0.164,0.079,-0.005,-0.176,-0.079,-0.06,0.0
-0.005,-0.171,-0.166,0.088,0.081,-0.168,0.08,-0.004,-0.18,-0.077,-0.06,0.0
-0.02,-0.184,-0.164,0.102,0.073,-0.174,0.09,0.003,-0.18,-0.074,-0.06,0.0
-0.019,-0.183,-0.164,0.102,0.073,-0.174,0.096,0.002,-0.179,-0.071,-0.06,0.0
-0.019,-0.178,-0.159,0.099,0.07,-0.169,0.094,-0.001,-0.192,-0.07,-0.06,0.0
-0.021,-0.176,-0.155,0.099,0.068,-0.166,0.095,0.0,-0.208,-0.064,-0.06,0.0
-0.017,-0.17,-0.153,0.094,0.068,-0.162,0.095,-0.005,-0.203,-0.071,-0.059,0.0
-0.023,-0.171,-0.148,0.097,0.062,-0.159,0.095,-0.004,-0.206,-0.092,-0.056,0.0
-0.04,-0.185,-0.145,0.114,0.053,-0.165,0.093,-0.007,-0.204,-0.095,-0.055,-0.002
-0.042,-0.198,-0.156,0.12,0.058,-0.177,0.088,-0.01,-0.206,-0.095,-0.055,-0.005
-0.031,-0.193,-0.162,0.112,0.065,-0.177,0.085,-0.01,-0.204,-0.095,-0.054,-0.005
-0.024,-0.182,-0.159,0.103,0.068,-0.17,0.081,-0.01,-0.207,-0.095,-0.056,-0.005
-0.024,-0.18,-0.155,0.102,0.066,-0.167,0.077,-0.01,-0.219,-0.095,-0.052,-0.005
-0.03,-0.18,-0.15,0.105,0.06,-0.165,0.074,-0.011,-0.221,-0.09,-0.05,-0.004
-0.036,-0.18,-0.145,0.108,0.054,-0.162,0.075,-0.005,-0.219,-0.09,-0.05,-0.001
-0.046,-0.189,-0.143,0.117,0.049,-0.166,0.075,-0.001,-0.216,-0.09,-0.05,0.002
-0.054,-0.188,-0.134,0.121,0.04,-0.161,0.075,0.009,-0.215,-0.085,-0.059,0.004
-0.034,-0.172,-0.137,0.103,0.052,-0.154,0.074,0.011,-0.215,-0.087,-0.057,0.007
-0.028,-0.169,-0.141,0.098,0.057,-0.155,0.082,0.025,-0.198,-0.079,-0.047,0.01
-0.022,-0.141,-0.118,0.082,0.048,-0.129,0.109,0.021,-0.188,-0.056,-0.038,0.013
0.0,-0.118,-0.119,0.059,0.06,-0.118,0.108,0.019,-0.158,-0.033,-0.028,0.018
0.023,-0.137,-0.16,0.058,0.091,-0.148,0.096,0.061,-0.111,0.01,-0.012,0.043
0.046,-0.147,-0.193,0.05,0.12,-0.17,0.075,0.022,-0.16,0.002,-0.005,0.06
0.035,-0.17,-0.205,0.068,0.121,-0.187,0.037,-0.009,-0.195,-0.034,-0.022,0.05
0.019,-0.18,-0.199,0.081,0.109,-0.189,0.039,-0.008,-0.204,-0.049,-0.029,0.045
0.0,-0.168,-0.168,0.084,0.085,-0.168,0.049,-0.02,-0.219,-0.063,-0.029,0.035
-0.032,-0.189,-0.157,0.111,0.063,-0.173,0.054,-0.024,-0.218,-0.078,-0.042,0.007
-0.057,-0.204,-0.147,0.131,0.045,-0.176,0.055,-0.035,-0.228,-0.078,-0.047,-0.005
-0.061,-0.216,-0.155,0.139,0.047,-0.186,0.057,-0.028,-0.232,-0.088,-0.059,-0.01
-0.068,-0.205,-0.136,0.137,0.034,-0.17,0.068,-0.033,-0.232,-0.097,-0.062,-0.014
-0.071,-0.22,-0.149,0.146,0.039,-0.184,0.078,-0.016,-0.206,-0.088,-0.056,-0.018
-0.082,-0.213,-0.131,0.147,0.025,-0.171,0.079,-0.032,-0.232,-0.107,-0.062,-0.02
-0.055,-0.21,-0.154,0.133,0.05,-0.182,0.086,-0.003,-0.181,-0.077,-0.045,-0.011
-0.07,-0.207,-0.137,0.138,0.034,-0.172,0.089,-0.03,-0.221,-0.115,-0.075,-0.036
-0.128,-0.125,0.003,0.126,-0.065,-0.06,0.116,-0.049,-0.141,-0.077,-0.074,-0.054
-0.006,-0.192,-0.186,0.099,0.09,-0.188,0.18,0.158,0.252,0.374,0.215,0.101
0.377,-0.023,-0.4,-0.176,0.388,-0.211,0.093,0.643,1.581,1.891,1.277,0.66
0.671,-0.071,-0.742,-0.3,0.706,-0.406,-0.167,0.335,1.736,2.126,1.721,1.011
0.356,-0.45,-0.805,0.047,0.581,-0.627,-0.45,-1.196,-1.172,-0.21,0.519,0.598
-0.026,-0.432,-0.406,0.229,0.19,-0.418,-0.501,-1.642,-2.265,-1.137,-0.276,0.165
-0.119,-0.335,-0.216,0.227,0.049,-0.275,-0.322,-1.005,-1.221,-0.699,-0.316,-0.026
-0.15,-0.222,-0.072,0.186,-0.039,-0.147,-0.119,-0.423,-0.609,-0.375,-0.211,-0.07
-0.077,-0.202,-0.125,0.14,0.024,-0.163,0.058,-0.022,-0.167,-0.077,-0.06,-0.005
-0.041,-0.206,-0.166,0.124,0.063,-0.186,0.104,0.024,-0.149,-0.097,-0.079,-0.003
-0.036,-0.159,-0.122,0.098,0.043,-0.14,0.119,0.095,-0.064,-0.019,-0.05,0.002
-0.034,-0.172,-0.138,0.103,0.053,-0.155,0.14,0.112,-0.025,-0.025,-0.054,-0.001
-0.037,-0.16,-0.123,0.098,0.044,-0.141,0.132,0.123,-0.01,-0.017,-0.049,0.0
-0.033,-0.164,-0.131,0.099,0.049,-0.147,0.137,0.148,0.034,0.011,-0.028,0.001
-0.036,-0.158,-0.122,0.098,0.043,-0.139,0.134,0.157,0.051,0.036,-0.005,0.003
-0.034,-0.16,-0.126,0.098,0.046,-0.143,0.136,0.185,0.098,0.067,0.002,0.014
-0.029,-0.149,-0.12,0.089,0.046,-0.134,0.138,0.19,0.107,0.055,0.0,0.02
-0.009,-0.126,-0.116,0.068,0.054,-0.121,0.14,0.217,0.156,0.083,0.025,0.03
0.001,-0.113,-0.114,0.056,0.058,-0.113,0.14,0.246,0.202,0.115,0.04,0.036
0.012,-0.097,-0.109,0.042,0.061,-0.102,0.14,0.271,0.259,0.142,0.057,0.041
0.015,-0.091,-0.106,0.038,0.061,-0.098,0.14,0.297,0.305,0.158,0.063,0.039
0.011,-0.089,-0.1,0.039,0.056,-0.094,0.14,0.345,0.371,0.194,0.079,0.047
0.021,-0.091,-0.112,0.035,0.066,-0.101,0.14,0.399,0.459,0.238,0.103,0.067
0.032,-0.084,-0.116,0.026,0.074,-0.1,0.14,0.461,0.544,0.289,0.131,0.081
0.059,-0.055,-0.114,-0.001,0.086,-0.084,0.14,0.52,0.647,0.344,0.159,0.088
0.084,-0.032,-0.115,-0.026,0.1,-0.073,0.14,0.582,0.742,0.399,0.19,0.111
0.101,-0.014,-0.115,-0.043,0.108,-0.064,0.141,0.632,0.823,0.454,0.221,0.137
0.111,-0.002,-0.113,-0.054,0.113,-0.057,0.133,0.641,0.876,0.482,0.232,0.134
0.115,0.004,-0.11,-0.06,0.112,-0.053,0.112,0.632,0.886,0.494,0.252,0.139
0.121,0.015,-0.106,-0.068,0.113,-0.045,0.095,0.635,0.877,0.493,0.269,0.156
0.114,0.009,-0.105,-0.061,0.109,-0.047,0.081,0.6,0.832,0.487,0.264,0.154
0.106,0.009,-0.098,-0.058,0.102,-0.044,0.078,0.518,0.729,0.461,0.263,0.145
0.099,-0.003,-0.102,-0.048,0.101,-0.052,0.081,0.42,0.579,0.39,0.25,0.14
0.102,-0.027,-0.128,-0.037,0.115,-0.077,0.08,0.306,0.412,0.309,0.207,0.128
0.082,-0.05,-0.131,-0.016,0.107,-0.09,0.08,0.216,0.261,0.224,0.153,0.101
0.023,-0.105,-0.128,0.041,0.076,-0.117,0.08,0.144,0.124,0.148,0.105,0.067
-0.007,-0.139,-0.131,0.073,0.062,-0.135,0.08,0.091,0.03,0.09,0.066,0.039
-0.014,-0.142,-0.128,0.078,0.057,-0.135,0.08,0.057,-0.035,0.041,0.038,0.027
-0.018,-0.152,-0.134,0.085,0.058,-0.143,0.08,0.035,-0.084,0.011,0.02,0.017
-0.022,-0.163,-0.14,0.093,0.059,-0.151,0.08,0.035,-0.104,-0.005,0.01,0.01
-0.026,-0.166,-0.14,0.096,0.057,-0.152,0.08,0.034,-0.111,-0.014,-0.003,0.008
-0.024,-0.164,-0.14,0.094,0.058,-0.151,0.08,0.031,-0.106,-0.023,-0.008,0.004
-0.026,-0.166,-0.14,0.096,0.058,-0.152,0.084,0.029,-0.103,-0.029,-0.004,0.001
-0.024,-0.164,-0.14,0.094,0.058,-0.152,0.084,0.031,-0.098,-0.025,-0.005,-0.003
-0.028,-0.166,-0.138,0.098,0.055,-0.152,0.079,0.035,-0.095,-0.026,0.001,-0.005
-0.04,-0.17,-0.131,0.105,0.046,-0.15,0.076,0.035,-0.091,-0.023,-0.001,-0.005
-0.043,-0.169,-0.126,0.106,0.042,-0.147,0.072,0.031,-0.088,-0.019,-0.022,-0.005
-0.053,-0.173,-0.119,0.113,0.033,-0.146,0.069,0.024,-0.08,-0.021,-0.027,-0.005
-0.059,-0.175,-0.116,0.118,0.029,-0.145,0.064,0.017,-0.088,-0.014,-0.021,-0.005
-0.061,-0.175,-0.114,0.119,0.027,-0.144,0.069,0.011,-0.118,-0.027,-0.02,-0.005
-0.066,-0.175,-0.109,0.12,0.022,-0.141,0.074,0.004,-0.128,-0.04,-0.015,-0.005
-0.066,-0.175,-0.11,0.121,0.022,-0.142,0.069,-0.001,-0.134,-0.04,-0.015,-0.005
-0.073,-0.174,-0.101,0.124,0.014,-0.137,0.07,-0.007,-0.146,-0.062,-0.021,-0.005
-0.046,-0.168,-0.123,0.107,0.039,-0.145,0.068,-0.013,-0.161,-0.072,-0.027,-0.005
-0.009,-0.165,-0.157,0.088,0.075,-0.161,0.064,-0.018,-0.177,-0.072,-0.033,-0.008
-0.003,-0.158,-0.154,0.081,0.076,-0.156,0.066,-0.024,-0.186,-0.077,-0.035,-0.01
-0.015,-0.17,-0.155,0.093,0.07,-0.162,0.061,-0.029,-0.193,-0.079,-0.035,-0.013
-0.03,-0.186,-0.155,0.109,0.063,-0.17,0.06,-0.03,-0.195,-0.081,-0.035,-0.015
-0.024,-0.176,-0.152,0.1,0.065,-0.164,0.06,-0.03,-0.2,-0.08,-0.035,-0.015
-0.025,-0.173,-0.148,0.099,0.062,-0.16,0.056,-0.029,-0.208,-0.08,-0.035,-0.015
-0.024,-0.167,-0.142,0.096,0.059,-0.154,0.054,-0.033,-0.212,-0.08,-0.035,-0.015
-0.021,-0.159,-0.138,0.09,0.059,-0.148,0.057,-0.041,-0.215,-0.08,-0.035,-0.015
-0.038,-0.171,-0.134,0.105,0.048,-0.152,0.061,-0.04,-0.215,-0.08,-0.034,-0.015
-0.052,-0.181,-0.129,0.116,0.039,-0.155,0.059,-0.04,-0.215,-0.082,-0.041,-0.017
-0.055,-0.181,-0.126,0.118,0.035,-0.153,0.056,-0.04,-0.215,-0.086,-0.046,-0.02
-0.051,-0.176,-0.125,0.114,0.037,-0.15,0.053,-0.039,-0.215,-0.085,-0.045,-0.023
-0.053,-0.176,-0.123,0.115,0.036,-0.15,0.05,-0.04,-0.22,-0.085,-0.044,-0.026
-0.051,-0.172,-0.121,0.112,0.035,-0.146,0.051,-0.04,-0.219,-0.085,-0.04,-0.03
-0.062,-0.178,-0.116,0.12,0.027,-0.147,0.055,-0.04,-0.221,-0.085,-0.04,-0.03
-0.049,-0.191,-0.142,0.12,0.047,-0.166,0.06,-0.04,-0.225,-0.081,-0.04,-0.026
-0.017,-0.178,-0.161,0.098,0.072,-0.169,0.056,-0.039,-0.225,-0.08,-0.04,-0.023
-0.031,-0.181,-0.15,0.107,0.06,-0.165,0.055,-0.052,-0.223,-0.085,-0.04,-0.02
-0.046,-0.19,-0.143,0.118,0.049,-0.166,0.054,-0.061,-0.219,-0.085,-0.04,-0.017
-0.047,-0.186,-0.139,0.117,0.046,-0.163,0.051,-0.055,-0.221,-0.085,-0.04,-0.015
-0.052,-0.181,-0.129,0.117,0.039,-0.155,0.049,-0.052,-0.215,-0.081,-0.039,-0.013
-0.049,-0.178,-0.128,0.114,0.04,-0.153,0.053,-0.049,-0.216,-0.08,-0.036,-0.01
-0.032,-0.173,-0.141,0.103,0.055,-0.156,0.077,-0.044,-0.215,-0.081,-0.032,-0.007
-0.028,-0.169,-0.141,0.099,0.057,-0.154,0.082,-0.042,-0.223,-0.073,-0.029,-0.004
-0.018,-0.151,-0.133,0.085,0.058,-0.142,0.084,-0.027,-0.219,-0.066,-0.024,-0.001
0.008,-0.101,-0.109,0.047,0.059,-0.105,0.087,-0.021,-0.178,-0.058,-0.021,0.001
0.016,-0.088,-0.104,0.036,0.06,-0.096,0.087,-0.006,-0.165,-0.058,-0.017,0.005
0.027,-0.088,-0.115,0.031,0.071,-0.102,0.076,0.028,-0.153,-0.059,-0.014,0.01
0.022,-0.104,-0.127,0.041,0.075,-0.115,0.022,-0.026,-0.171,-0.063,-0.016,0.015
0.014,-0.146,-0.161,0.066,0.088,-0.153,0.001,-0.07,-0.194,-0.063,-0.011,0.019
0.013,-0.163,-0.176,0.075,0.095,-0.169,0.008,-0.065,-0.202,-0.068,-0.01,0.024
-0.005,-0.165,-0.16,0.085,0.078,-0.162,-0.006,-0.075,-0.223,-0.068,-0.01,0.022
-0.01,-0.165,-0.156,0.088,0.074,-0.16,0.006,-0.073,-0.23,-0.08,-0.025,0.004
-0.03,-0.169,-0.139,0.099,0.055,-0.153,0.025,-0.078,-0.234,-0.099,-0.051,-0.01
-0.03,-0.188,-0.158,0.109,0.064,-0.173,0.03,-0.065,-0.221,-0.106,-0.054,-0.028
-0.053,-0.179,-0.127,0.116,0.037,-0.153,0.039,-0.07,-0.252,-0.117,-0.059,-0.041
-0.055,-0.186,-0.131,0.121,0.038,-0.158,0.042,-0.051,-0.228,-0.098,-0.049,-0.039
-0.054,-0.187,-0.133,0.121,0.04,-0.16,0.049,-0.062,-0.25,-0.126,-0.059,-0.048
-0.069,-0.169,-0.1,0.12,0.016,-0.134,0.071,-0.039,-0.196,-0.092,-0.042,-0.045
-0.038,-0.165,-0.126,0.102,0.044,-0.145,0.083,-0.057,-0.228,-0.127,-0.055,-0.052
-0.14,-0.077,0.063,0.109,-0.102,-0.007,0.087,-0.108,-0.177,-0.091,-0.085,-0.057
-0.109,-0.145,-0.036,0.127,-0.036,-0.09,0.128,0.042,0.139,0.208,0.109,0.032
0.276,-0.002,-0.278,-0.137,0.277,-0.14,0.106,0.501,1.322,1.578,1.071,0.515
0.705,0.092,-0.613,-0.398,0.658,-0.26,-0.178,0.46,2.201,2.532,1.912,1.041
0.555,-0.32,-0.875,-0.117,0.715,-0.597,-0.543,-1.044,-0.41,0.434,0.972,0.78
0.095,-0.475,-0.57,0.19,0.333,-0.522,-0.61,-1.851,-2.33,-1.107,-0.101,0.279
-0.092,-0.38,-0.288,0.236,0.098,-0.334,-0.427,-1.245,-1.4,-0.764,-0.256,0.041
-0.146,-0.208,-0.062,0.177,-0.042,-0.135,-0.193,-0.586,-0.685,-0.455,-0.216,-0.065
-0.075,-0.136,-0.061,0.106,-0.007,-0.098,0.012,-0.085,-0.193,-0.121,-0.06,-0.044
-0.062,-0.164,-0.102,0.114,0.02,-0.133,0.083,-0.009,-0.118,-0.117,-0.062,-0.043
-0.075,-0.138,-0.063,0.106,-0.006,-0.1,0.084,0.039,-0.075,-0.072,-0.049,-0.033
-0.042,-0.15,-0.108,0.096,0.034,-0.129,0.085,0.086,-0.004,-0.046,-0.033,-0.024
-0.04,-0.136,-0.096,0.088,0.028,-0.116,0.095,0.093,-0.005,-0.043,-0.033,-0.022
-0.036,-0.138,-0.102,0.087,0.033,-0.12,0.113,0.138,0.061,-0.001,-0.011,-0.014
-0.039,-0.129,-0.09,0.085,0.025,-0.11,0.109,0.132,0.056,-0.002,-0.013,-0.016
-0.037,-0.123,-0.087,0.081,0.025,-0.105,0.107,0.172,0.119,0.043,0.006,-0.008
-0.038,-0.12,-0.082,0.079,0.022,-0.101,0.103,0.181,0.14,0.037,0.007,-0.007
-0.036,-0.111,-0.075,0.074,0.02,-0.093,0.099,0.201,0.181,0.057,0.021,-0.001
-0.035,-0.109,-0.074,0.073,0.02,-0.091,0.12,0.231,0.221,0.074,0.029,0.006
-0.031,-0.098,-0.067,0.064,0.019,-0.083,0.137,0.264,0.272,0.105,0.045,0.014
-0.033,-0.1,-0.067,0.067,0.017,-0.084,0.134,0.306,0.337,0.135,0.059,0.022
-0.013,-0.073,-0.059,0.043,0.023,-0.066,0.135,0.342,0.391,0.163,0.072,0.029
0.024,-0.041,-0.065,0.009,0.045,-0.053,0.135,0.404,0.475,0.203,0.103,0.047
0.052,-0.034,-0.087,-0.009,0.07,-0.06,0.135,0.473,0.565,0.256,0.127,0.062
0.079,-0.009,-0.088,-0.034,0.083,-0.048,0.132,0.55,0.665,0.312,0.15,0.079
0.092,0.009,-0.084,-0.05,0.088,-0.037,0.124,0.629,0.776,0.366,0.183,0.107
0.099,0.014,-0.086,-0.056,0.092,-0.036,0.118,0.685,0.864,0.42,0.207,0.116
0.124,0.04,-0.084,-0.081,0.104,-0.022,0.111,0.72,0.926,0.452,0.23,0.122
0.148,0.063,-0.086,-0.105,0.117,-0.011,0.104,0.722,0.958,0.48,0.252,0.134
0.142,0.058,-0.084,-0.099,0.113,-0.013,0.096,0.717,0.949,0.486,0.268,0.148
0.127,0.047,-0.08,-0.087,0.103,-0.017,0.082,0.678,0.915,0.474,0.277,0.154
0.115,0.039,-0.077,-0.077,0.096,-0.019,0.066,0.589,0.82,0.446,0.267,0.142
0.102,0.029,-0.073,-0.065,0.087,-0.022,0.05,0.471,0.654,0.384,0.252,0.131
0.074,0.003,-0.071,-0.038,0.072,-0.034,0.044,0.348,0.479,0.308,0.212,0.119
0.045,-0.018,-0.063,-0.013,0.054,-0.04,0.045,0.236,0.313,0.234,0.16,0.089
0.018,-0.061,-0.079,0.022,0.048,-0.07,0.044,0.134,0.165,0.154,0.121,0.058
-0.011,-0.1,-0.089,0.056,0.039,-0.094,0.046,0.065,0.043,0.08,0.079,0.037
-0.038,-0.109,-0.071,0.073,0.017,-0.09,0.043,0.026,-0.03,0.03,0.052,0.022
-0.028,-0.131,-0.102,0.08,0.038,-0.116,0.053,0.012,-0.068,-0.004,0.033,0.012
-0.041,-0.16,-0.119,0.101,0.039,-0.139,0.067,0.009,-0.104,-0.027,0.022,-0.001
-0.071,-0.176,-0.105,0.124,0.017,-0.141,0.064,0.004,-0.115,-0.037,0.016,-0.002
-0.034,-0.141,-0.107,0.087,0.037,-0.123,0.065,0.0,-0.108,-0.036,0.009,0.001
-0.037,-0.128,-0.091,0.083,0.027,-0.109,0.065,-0.005,-0.104,-0.035,0.003,0.0
-0.053,-0.156,-0.103,0.105,0.026,-0.129,0.065,-0.002,-0.098,-0.034,-0.004,0.0
-0.048,-0.161,-0.113,0.105,0.033,-0.137,0.062,0.001,-0.092,-0.03,-0.002,0.0
-0.055,-0.15,-0.095,0.102,0.02,-0.122,0.059,0.004,-0.092,-0.03,0.001,0.0
-0.043,-0.144,-0.102,0.094,0.03,-0.123,0.06,0.006,-0.096,-0.032,0.0,0.0
-0.039,-0.145,-0.107,0.093,0.034,-0.126,0.06,0.01,-0.095,-0.036,0.0,0.0
-0.042,-0.145,-0.102,0.094,0.031,-0.123,0.06,0.009,-0.096,-0.038,0.0,0.0
-0.044,-0.145,-0.101,0.095,0.029,-0.122,0.06,0.002,-0.095,-0.041,-0.001,0.0
-0.046,-0.145,-0.099,0.096,0.027,-0.122,0.06,-0.004,-0.096,-0.044,-0.005,0.0
-0.047,-0.143,-0.096,0.096,0.025,-0.12,0.06,-0.011,-0.11,-0.045,-0.008,-0.003
-0.046,-0.14,-0.094,0.094,0.024,-0.117,0.06,-0.017,-0.123,-0.052,-0.01,-0.006
-0.042,-0.137,-0.096,0.09,0.027,-0.116,0.06,-0.025,-0.132,-0.062,-0.014,-0.009
-0.04,-0.135,-0.094,0.088,0.028,-0.115,0.06,-0.027,-0.143,-0.067,-0.015,-0.012
-0.036,-0.131,-0.095,0.084,0.03,-0.113,0.057,-0.044,-0.166,-0.074,-0.019,-0.015
-0.037,-0.13,-0.093,0.084,0.028,-0.111,0.054,-0.062,-0.182,-0.08,-0.029,-0.015
-0.044,-0.134,-0.089,0.089,0.023,-0.111,0.051,-0.059,-0.178,-0.08,-0.035,-0.015
-0.048,-0.139,-0.091,0.093,0.022,-0.114,0.048,-0.063,-0.183,-0.08,-0.035,-0.015
-0.057,-0.143,-0.086,0.1,0.015,-0.114,0.045,-0.065,-0.185,-0.08,-0.035,-0.015
-0.059,-0.144,-0.085,0.102,0.013,-0.114,0.043,-0.064,-0.185,-0.08,-0.035,-0.015
-0.056,-0.14,-0.085,0.098,0.014,-0.112,0.04,-0.069,-0.188,-0.082,-0.035,-0.015
-0.057,-0.137,-0.08,0.097,0.012,-0.108,0.04,-0.07,-0.191,-0.093,-0.035,-0.018
-0.057,-0.136,-0.079,0.096,0.012,-0.107,0.04,-0.07,-0.194,-0.1,-0.039,-0.023
-0.056,-0.13,-0.074,0.093,0.009,-0.102,0.04,-0.07,-0.196,-0.099,-0.04,-0.024
-0.057,-0.132,-0.074,0.095,0.009,-0.103,0.04,-0.071,-0.2,-0.102,-0.04,-0.02
-0.061,-0.127,-0.066,0.094,0.003,-0.097,0.036,-0.075,-0.198,-0.105,-0.04,-0.018
-0.051,-0.135,-0.084,0.093,0.017,-0.109,0.035,-0.075,-0.195,-0.105,-0.04,-0.014
-0.031,-0.137,-0.107,0.084,0.038,-0.122,0.035,-0.078,-0.193,-0.103,-0.039,-0.012
-0.035,-0.113,-0.078,0.074,0.022,-0.095,0.035,-0.08,-0.19,-0.099,-0.035,-0.008
-0.053,-0.125,-0.072,0.089,0.01,-0.098,0.035,-0.08,-0.187,-0.1,-0.032,-0.018
-0.053,-0.129,-0.076,0.092,0.012,-0.103,0.035,-0.076,-0.184,-0.1,-0.03,-0.033
-0.053,-0.122,-0.069,0.087,0.009,-0.095,0.035,-0.075,-0.189,-0.1,-0.027,-0.03
-0.053,-0.122,-0.069,0.088,0.008,-0.096,0.035,-0.075,-0.193,-0.099,-0.024,-0.03
-0.053,-0.117,-0.064,0.086,0.006,-0.091,0.035,-0.07,-0.198,-0.096,-0.029,-0.03
-0.051,-0.115,-0.064,0.084,0.007,-0.089,0.035,-0.07,-0.199,-0.093,-0.032,-0.03
-0.056,-0.116,-0.06,0.086,0.002,-0.087,0.035,-0.068,-0.193,-0.09,-0.037,-0.03
-0.061,-0.12,-0.059,0.091,-0.001,-0.09,0.034,-0.065,-0.187,-0.088,-0.043,-0.026
-0.063,-0.119,-0.056,0.092,-0.004,-0.087,0.036,-0.065,-0.182,-0.083,-0.039,-0.024
-0.069,-0.123,-0.054,0.096,-0.007,-0.088,0.034,-0.063,-0.168,-0.091,-0.033,-0.026
-0.05,-0.125,-0.075,0.088,0.013,-0.1,0.036,-0.059,-0.138,-0.095,-0.03,-0.025
-0.051,-0.127,-0.076,0.089,0.013,-0.101,0.038,-0.061,-0.126,-0.085,-0.026,-0.026
-0.039,-0.103,-0.064,0.071,0.013,-0.083,0.033,-0.053,-0.106,-0.075,-0.021,-0.023
-0.002,-0.062,-0.06,0.032,0.029,-0.06,0.074,-0.029,-0.066,-0.051,-0.01,-0.003
-0.011,-0.059,-0.047,0.035,0.018,-0.052,0.105,-0.009,-0.05,-0.045,0.015,0.017
-0.008,-0.061,-0.053,0.035,0.023,-0.057,0.081,0.019,-0.021,-0.044,0.039,0.027
0.007,-0.07,-0.077,0.031,0.042,-0.073,0.046,-0.035,-0.051,-0.046,0.037,0.021
0.027,-0.088,-0.115,0.031,0.071,-0.101,0.01,-0.081,-0.104,-0.044,0.028,0.014
0.037,-0.093,-0.13,0.028,0.084,-0.111,-0.009,-0.06,-0.108,-0.046,0.024,0.007
0.014,-0.08,-0.094,0.033,0.054,-0.087,-0.012,-0.098,-0.125,-0.073,0.011,-0.001
-0.001,-0.077,-0.076,0.039,0.037,-0.076,-0.004,-0.104,-0.128,-0.076,-0.004,-0.007
-0.045,-0.106,-0.061,0.076,0.009,-0.084,0.006,-0.099,-0.136,-0.091,-0.015,-0.015
-0.052,-0.141,-0.089,0.097,0.019,-0.115,0.014,-0.09,-0.12,-0.096,-0.015,-0.019
-0.043,-0.127,-0.084,0.085,0.021,-0.105,0.022,-0.09,-0.143,-0.108,-0.031,-0.026
-0.056,-0.121,-0.065,0.088,0.005,-0.092,0.03,-0.077,-0.115,-0.089,-0.027,-0.029
-0.056,-0.134,-0.079,0.095,0.012,-0.106,0.037,-0.083,-0.14,-0.112,-0.044,-0.038
-0.059,-0.092,-0.033,0.076,-0.013,-0.062,0.045,-0.081,-0.111,-0.09,-0.037,-0.038
-0.047,-0.15,-0.104,0.099,0.029,-0.127,0.048,-0.072,-0.109,-0.101,-0.039,-0.041
-0.09,-0.031,0.059,0.06,-0.074,0.014,0.063,-0.104,-0.097,-0.103,-0.065,-0.042
-0.092,0.003,0.094,0.044,-0.093,0.048,0.116,-0.029,0.151,0.093,0.042,-0.011
0.168,-0.006,-0.174,-0.081,0.171,-0.09,0.114,0.38,1.049,1.196,0.805,0.351
0.673,0.193,-0.48,-0.433,0.577,-0.143,-0.115,0.66,2.468,2.656,1.916,0.975
0.71,-0.122,-0.832,-0.293,0.771,-0.477,-0.571,-0.749,0.597,1.128,1.352,0.91
0.204,-0.404,-0.608,0.1,0.406,-0.505,-0.74,-2.052,-2.106,-0.978,0.058,0.368
-0.066,-0.338,-0.272,0.202,0.103,-0.305,-0.53,-1.543,-1.575,-0.857,-0.223,0.081
-0.1,-0.176,-0.075,0.138,-0.012,-0.125,-0.276,-0.761,-0.702,-0.507,-0.204,-0.043
-0.093,-0.069,0.024,0.081,-0.058,-0.022,-0.024,-0.178,-0.198,-0.16,-0.095,-0.045
-0.096,-0.113,-0.017,0.104,-0.039,-0.065,0.056,-0.015,-0.031,-0.083,-0.053,-0.039
-0.075,-0.077,-0.002,0.077,-0.037,-0.039,0.068,0.024,-0.027,-0.097,-0.053,-0.041
-0.047,-0.076,-0.029,0.061,-0.009,-0.052,0.101,0.099,0.073,-0.038,-0.027,-0.03
-0.05,-0.066,-0.016,0.058,-0.017,-0.041,0.093,0.09,0.052,-0.054,-0.033,-0.033
-0.043,-0.058,-0.014,0.051,-0.014,-0.036,0.104,0.134,0.115,0.0,-0.009,-0.024
-0.046,-0.055,-0.009,0.05,-0.018,-0.032,0.103,0.132,0.111,-0.018,-0.01,-0.021
-0.042,-0.043,-0.001,0.043,-0.02,-0.022,0.108,0.158,0.156,0.007,0.005,-0.014
-0.042,-0.04,0.002,0.041,-0.021,-0.019,0.111,0.176,0.186,0.027,0.011,-0.01
-0.031,-0.028,0.004,0.029,-0.017,-0.012,0.115,0.21,0.223,0.043,0.025,-0.004
-0.006,-0.024,-0.018,0.015,0.006,-0.021,0.123,0.242,0.266,0.068,0.043,0.002
0.004,-0.011,-0.014,0.004,0.009,-0.012,0.127,0.275,0.315,0.094,0.045,0.008
0.006,-0.005,-0.011,-0.001,0.008,-0.007,0.131,0.315,0.369,0.112,0.058,0.018
0.015,0.01,-0.005,-0.012,0.01,0.002,0.129,0.361,0.424,0.139,0.075,0.024
0.014,0.012,-0.002,-0.013,0.008,0.005,0.13,0.427,0.501,0.177,0.085,0.035
0.031,0.035,0.004,-0.033,0.014,0.019,0.13,0.501,0.585,0.222,0.111,0.036
0.047,0.058,0.011,-0.053,0.018,0.034,0.13,0.59,0.688,0.272,0.138,0.046
0.059,0.064,0.005,-0.062,0.027,0.034,0.124,0.674,0.786,0.325,0.16,0.065
0.082,0.112,0.03,-0.097,0.026,0.071,0.115,0.746,0.88,0.378,0.186,0.077
0.091,0.128,0.037,-0.11,0.026,0.082,0.11,0.803,0.961,0.419,0.22,0.097
0.105,0.125,0.019,-0.115,0.043,0.072,0.1,0.834,1.005,0.449,0.242,0.109
0.098,0.111,0.013,-0.105,0.042,0.062,0.095,0.828,1.015,0.459,0.254,0.126
0.119,0.115,-0.004,-0.117,0.061,0.055,0.086,0.789,0.991,0.456,0.269,0.131
0.139,0.132,-0.007,-0.135,0.073,0.062,0.068,0.709,0.921,0.441,0.261,0.123
0.109,0.111,0.002,-0.11,0.053,0.056,0.059,0.578,0.781,0.396,0.247,0.118
0.091,0.102,0.01,-0.097,0.04,0.056,0.055,0.432,0.606,0.328,0.23,0.113
0.065,0.084,0.019,-0.075,0.023,0.051,0.05,0.296,0.438,0.252,0.192,0.103
0.058,0.074,0.015,-0.066,0.021,0.044,0.047,0.17,0.275,0.164,0.136,0.071
0.035,0.045,0.01,-0.04,0.012,0.027,0.041,0.095,0.152,0.098,0.09,0.041
-0.009,-0.002,0.007,0.005,-0.008,0.002,0.04,0.048,0.072,0.047,0.059,0.017
-0.025,-0.024,0.001,0.024,-0.013,-0.011,0.04,0.003,0.012,0.001,0.037,0.001
-0.049,-0.041,0.008,0.045,-0.028,-0.016,0.04,-0.007,-0.029,-0.027,0.021,-0.012
-0.037,-0.04,-0.003,0.039,-0.017,-0.021,0.039,-0.015,-0.051,-0.041,0.005,-0.021
-0.022,-0.04,-0.017,0.031,-0.003,-0.028,0.041,-0.024,-0.049,-0.045,-0.001,-0.02
-0.039,-0.04,-0.001,0.04,-0.019,-0.021,0.042,-0.021,-0.044,-0.053,0.0,-0.02
-0.03,-0.04,-0.01,0.035,-0.01,-0.025,0.04,-0.019,-0.043,-0.053,0.0,-0.019
-0.014,-0.038,-0.024,0.026,0.005,-0.031,0.04,-0.015,-0.037,-0.049,0.0,-0.023
-0.028,-0.034,-0.007,0.031,-0.01,-0.02,0.036,-0.013,-0.036,-0.05,0.0,-0.026
-0.047,-0.035,0.012,0.041,-0.029,-0.011,0.034,-0.01,-0.04,-0.05,-0.003,-0.024
-0.031,-0.032,-0.001,0.031,-0.015,-0.016,0.035,-0.013,-0.04,-0.05,-0.009,-0.025
-0.018,-0.029,-0.011,0.024,-0.003,-0.02,0.041,-0.019,-0.041,-0.05,-0.014,-0.025
-0.036,-0.031,0.005,0.033,-0.021,-0.013,0.043,-0.026,-0.039,-0.055,-0.018,-0.026
-0.044,-0.023,0.021,0.033,-0.033,-0.001,0.037,-0.033,-0.046,-0.058,-0.022,-0.022
-0.047,-0.026,0.021,0.036,-0.034,-0.002,0.032,-0.04,-0.055,-0.063,-0.027,-0.02
-0.056,-0.053,0.003,0.054,-0.029,-0.025,0.029,-0.045,-0.068,-0.069,-0.03,-0.02
-0.059,-0.06,-0.001,0.06,-0.028,-0.031,0.023,-0.052,-0.09,-0.076,-0.033,-0.02
-0.068,-0.051,0.017,0.059,-0.043,-0.016,0.02,-0.063,-0.108,-0.083,-0.035,-0.02
-0.069,-0.05,0.019,0.059,-0.044,-0.015,0.024,-0.065,-0.119,-0.085,-0.039,-0.02
-0.052,-0.043,0.009,0.047,-0.03,-0.017,0.025,-0.065,-0.122,-0.096,-0.04,-0.027
-0.043,-0.04,0.003,0.041,-0.023,-0.018,0.025,-0.069,-0.141,-0.106,-0.04,-0.031
-0.053,-0.061,-0.009,0.057,-0.022,-0.035,0.025,-0.074,-0.147,-0.105,-0.04,-0.029
-0.076,-0.072,0.004,0.074,-0.04,-0.034,0.025,-0.075,-0.144,-0.105,-0.04,-0.034
-0.083,-0.069,0.014,0.075,-0.048,-0.027,0.023,-0.075,-0.146,-0.105,-0.04,-0.035
-0.072,-0.071,0.001,0.071,-0.037,-0.034,0.02,-0.074,-0.145,-0.105,-0.04,-0.035
-0.066,-0.07,-0.004,0.068,-0.031,-0.036,0.02,-0.076,-0.144,-0.104,-0.041,-0.039
-0.056,-0.07,-0.014,0.063,-0.021,-0.042,0.02,-0.085,-0.14,-0.109,-0.047,-0.042
-0.056,-0.065,-0.01,0.061,-0.022,-0.037,0.02,-0.086,-0.14,-0.116,-0.05,-0.046
-0.06,-0.062,-0.001,0.061,-0.029,-0.031,0.02,-0.084,-0.14,-0.115,-0.05,-0.05
-0.066,-0.058,0.008,0.062,-0.037,-0.025,0.025,-0.082,-0.14,-0.115,-0.052,-0.048
-0.068,-0.054,0.013,0.061,-0.04,-0.021,0.025,-0.079,-0.14,-0.115,-0.055,-0.044
-0.034,-0.051,-0.016,0.043,-0.009,-0.033,0.026,-0.081,-0.14,-0.115,-0.055,-0.045
-0.032,-0.049,-0.017,0.041,-0.008,-0.033,0.031,-0.085,-0.14,-0.115,-0.052,-0.045
-0.043,-0.051,-0.008,0.048,-0.018,-0.029,0.029,-0.086,-0.139,-0.115,-0.05,-0.045
-0.047,-0.048,0.0,0.047,-0.023,-0.024,0.033,-0.084,-0.142,-0.115,-0.05,-0.045
-0.068,-0.06,0.008,0.063,-0.038,-0.025,0.035,-0.082,-0.146,-0.115,-0.05,-0.04
-0.051,-0.063,-0.012,0.057,-0.019,-0.037,0.035,-0.079,-0.144,-0.115,-0.05,-0.04
-0.066,-0.055,0.011,0.06,-0.038,-0.021,0.039,-0.082,-0.141,-0.115,-0.05,-0.039
-0.079,-0.05,0.028,0.064,-0.053,-0.011,0.041,-0.09,-0.138,-0.115,-0.05,-0.034
-0.051,-0.045,0.006,0.048,-0.028,-0.019,0.039,-0.091,-0.135,-0.115,-0.05,-0.036
-0.079,-0.052,0.027,0.065,-0.053,-0.012,0.036,-0.086,-0.136,-0.115,-0.05,-0.032
-0.097,-0.052,0.045,0.074,-0.071,-0.003,0.033,-0.084,-0.14,-0.115,-0.05,-0.03
-0.081,-0.049,0.031,0.065,-0.056,-0.009,0.031,-0.081,-0.14,-0.115,-0.05,-0.03
-0.07,-0.04,0.03,0.055,-0.05,-0.005,0.027,-0.079,-0.14,-0.112,-0.047,-0.03
-0.058,-0.047,0.012,0.052,-0.035,-0.017,0.025,-0.089,-0.14,-0.107,-0.042,-0.03
-0.057,-0.062,-0.005,0.06,-0.026,-0.033,0.023,-0.098,-0.139,-0.104,-0.039,-0.03
-0.048,-0.043,0.005,0.046,-0.027,-0.019,0.02,-0.088,-0.137,-0.101,-0.036,-0.041
-0.038,-0.023,0.016,0.03,-0.027,-0.003,0.017,-0.076,-0.126,-0.097,-0.032,-0.039
-0.08,-0.034,0.047,0.057,-0.063,0.006,0.014,-0.07,-0.124,-0.095,-0.029,-0.029
-0.082,-0.023,0.059,0.052,-0.07,0.018,0.039,-0.054,-0.111,-0.078,-0.017,-0.021
-0.034,0.014,0.048,0.01,-0.041,0.031,0.078,-0.05,-0.089,-0.061,-0.006,-0.012
-0.014,0.032,0.047,-0.009,-0.031,0.039,0.088,-0.012,-0.054,-0.046,0.012,-0.008
0.021,0.046,0.025,-0.033,-0.002,0.035,0.066,0.013,-0.018,-0.031,0.031,-0.002
0.028,0.007,-0.021,-0.017,0.024,-0.006,0.019,-0.079,-0.09,-0.059,0.025,0.001
0.054,0.004,-0.049,-0.029,0.051,-0.022,-0.017,-0.121,-0.13,-0.077,0.017,0.007
0.05,0.0,-0.05,-0.025,0.05,-0.025,-0.019,-0.112,-0.129,-0.076,0.008,0.01
-0.012,-0.05,-0.038,0.032,0.013,-0.044,-0.01,-0.117,-0.13,-0.072,-0.005,-0.006
-0.04,-0.062,-0.022,0.051,-0.009,-0.042,-0.005,-0.113,-0.13,-0.089,-0.028,-0.029
-0.1,-0.06,0.04,0.08,-0.07,-0.009,0.003,-0.118,-0.152,-0.108,-0.042,-0.046
-0.104,-0.068,0.036,0.086,-0.07,-0.016,0.009,-0.106,-0.141,-0.111,-0.045,-0.053
-0.102,-0.067,0.036,0.084,-0.069,-0.015,0.01,-0.114,-0.155,-0.12,-0.053,-0.057
-0.092,-0.07,0.022,0.081,-0.057,-0.024,0.01,-0.091,-0.12,-0.099,-0.04,-0.059
-0.078,-0.069,0.009,0.074,-0.043,-0.03,0.01,-0.11,-0.158,-0.126,-0.053,-0.062
-0.094,-0.068,0.027,0.081,-0.06,-0.02,0.01,-0.079,-0.103,-0.09,-0.036,-0.057
-0.079,-0.078,0.001,0.078,-0.04,-0.038,0.012,-0.102,-0.136,-0.131,-0.056,-0.061
-0.14,0.059,0.199,0.04,-0.169,0.129,0.058,-0.131,-0.041,-0.081,-0.069,-0.059
-0.07,0.044,0.114,0.013,-0.093,0.079,0.102,-0.005,0.266,0.223,0.133,0.015
0.311,0.121,-0.19,-0.216,0.25,-0.035,0.06,0.549,1.462,1.645,1.119,0.49
0.809,0.241,-0.568,-0.525,0.688,-0.163,-0.244,0.543,2.462,2.6,1.972,1.031
0.654,-0.097,-0.751,-0.278,0.702,-0.423,-0.714,-1.348,-0.17,0.423,0.971,0.76
0.11,-0.315,-0.425,0.103,0.268,-0.37,-0.757,-2.256,-2.178,-1.115,-0.119,0.237
-0.082,-0.257,-0.175,0.17,0.047,-0.216,-0.505,-1.429,-1.284,-0.755,-0.243,0.026
-0.156,-0.092,0.064,0.124,-0.11,-0.014,-0.243,-0.659,-0.576,-0.452,-0.205,-0.072
-0.103,-0.02,0.083,0.061,-0.092,0.031,-0.001,-0.122,-0.105,-0.122,-0.056,-0.071
-0.071,-0.029,0.042,0.05,-0.056,0.007,0.04,-0.047,-0.051,-0.128,-0.055,-0.066
-0.083,-0.002,0.081,0.042,-0.081,0.039,0.063,0.025,-0.012,-0.092,-0.049,-0.06
-0.064,-0.011,0.053,0.037,-0.058,0.021,0.085,0.072,0.055,-0.06,-0.039,-0.051
-0.065,0.007,0.072,0.028,-0.069,0.04,0.08,0.076,0.051,-0.062,-0.044,-0.048
-0.058,0.008,0.066,0.025,-0.062,0.036,0.093,0.12,0.113,-0.027,-0.029,-0.04
-0.08,0.001,0.081,0.039,-0.08,0.041,0.089,0.123,0.118,-0.028,-0.033,-0.037
-0.063,0.005,0.068,0.028,-0.066,0.036,0.098,0.15,0.161,0.01,-0.013,-0.031
-0.032,0.03,0.061,0.001,-0.047,0.045,0.098,0.167,0.182,0.007,-0.011,-0.028
-0.006,0.051,0.056,-0.023,-0.032,0.053,0.103,0.209,0.232,0.026,0.005,-0.022
-0.003,0.04,0.043,-0.018,-0.023,0.041,0.106,0.235,0.262,0.041,0.011,-0.018
-0.025,0.04,0.066,-0.008,-0.046,0.053,0.104,0.274,0.311,0.068,0.023,-0.013
-0.022,0.06,0.082,-0.019,-0.052,0.071,0.107,0.323,0.371,0.097,0.04,-0.007
-0.006,0.073,0.08,-0.034,-0.043,0.076,0.102,0.379,0.427,0.126,0.054,-0.001
0.014,0.092,0.078,-0.053,-0.032,0.085,0.108,0.45,0.504,0.167,0.07,0.003
0.02,0.094,0.075,-0.058,-0.028,0.085,0.12,0.533,0.583,0.203,0.084,0.012
0.055,0.129,0.074,-0.093,-0.01,0.102,0.114,0.623,0.679,0.25,0.111,0.022
0.072,0.154,0.082,-0.113,-0.005,0.117,0.109,0.717,0.781,0.304,0.137,0.038
0.055,0.138,0.083,-0.097,-0.014,0.11,0.103,0.791,0.864,0.348,0.165,0.053
0.113,0.172,0.059,-0.143,0.026,0.115,0.098,0.85,0.938,0.39,0.189,0.07
0.123,0.18,0.057,-0.152,0.033,0.118,0.089,0.876,0.984,0.419,0.206,0.089
0.111,0.191,0.08,-0.151,0.015,0.135,0.067,0.856,0.982,0.418,0.221,0.092
0.124,0.204,0.08,-0.164,0.021,0.142,0.052,0.814,0.954,0.411,0.231,0.105
0.111,0.191,0.08,-0.151,0.016,0.135,0.043,0.723,0.886,0.398,0.228,0.107
0.098,0.178,0.08,-0.138,0.009,0.129,0.031,0.584,0.75,0.36,0.211,0.096
0.053,0.133,0.08,-0.093,-0.014,0.106,0.028,0.419,0.575,0.3,0.192,0.089
0.029,0.106,0.078,-0.068,-0.025,0.092,0.03,0.268,0.405,0.218,0.157,0.063
0.021,0.096,0.075,-0.059,-0.027,0.085,0.03,0.152,0.255,0.135,0.108,0.032
-0.003,0.069,0.072,-0.033,-0.038,0.07,0.034,0.066,0.135,0.067,0.057,0.003
-0.027,0.042,0.069,-0.007,-0.048,0.055,0.035,0.01,0.058,0.016,0.017,-0.016
-0.026,0.041,0.067,-0.008,-0.046,0.053,0.035,-0.022,0.0,-0.018,-0.005,-0.028
-0.017,0.045,0.062,-0.014,-0.04,0.053,0.04,-0.04,-0.041,-0.046,-0.015,-0.041
-0.03,0.033,0.064,-0.002,-0.047,0.048,0.04,-0.052,-0.059,-0.06,-0.025,-0.041
-0.018,0.032,0.051,-0.007,-0.035,0.041,0.04,-0.049,-0.064,-0.066,-0.033,-0.04
-0.036,0.036,0.072,-0.001,-0.054,0.054,0.04,-0.04,-0.055,-0.071,-0.03,-0.04
-0.041,0.038,0.08,0.001,-0.06,0.059,0.04,-0.035,-0.049,-0.07,-0.03,-0.04
-0.017,0.043,0.06,-0.013,-0.039,0.052,0.038,-0.027,-0.043,-0.068,-0.03,-0.04
-0.04,0.045,0.085,-0.003,-0.063,0.065,0.034,-0.029,-0.036,-0.065,-0.03,-0.041
-0.046,0.039,0.086,0.003,-0.066,0.062,0.032,-0.03,-0.039,-0.065,-0.03,-0.045
-0.051,0.034,0.085,0.009,-0.069,0.059,0.029,-0.03,-0.04,-0.068,-0.033,-0.045
-0.063,0.028,0.091,0.017,-0.077,0.06,0.025,-0.03,-0.04,-0.075,-0.038,-0.045
-0.065,0.024,0.089,0.021,-0.077,0.056,0.025,-0.031,-0.041,-0.076,-0.041,-0.045
-0.074,0.014,0.088,0.03,-0.081,0.051,0.029,-0.045,-0.056,-0.085,-0.05,-0.05
-0.049,0.03,0.079,0.009,-0.064,0.054,0.031,-0.052,-0.083,-0.099,-0.056,-0.056
-0.021,0.052,0.072,-0.016,-0.047,0.062,0.027,-0.056,-0.092,-0.102,-0.055,-0.055
-0.023,0.043,0.065,-0.01,-0.044,0.054,0.025,-0.062,-0.096,-0.105,-0.055,-0.055
-0.018,0.039,0.057,-0.011,-0.037,0.048,0.025,-0.073,-0.105,-0.108,-0.055,-0.055
-0.019,0.033,0.052,-0.008,-0.035,0.042,0.022,-0.084,-0.115,-0.118,-0.054,-0.055
-0.039,0.026,0.066,0.007,-0.053,0.045,0.019,-0.086,-0.132,-0.125,-0.062,-0.059
-0.044,0.028,0.072,0.008,-0.058,0.05,0.021,-0.091,-0.142,-0.125,-0.071,-0.066
-0.036,0.033,0.069,0.002,-0.053,0.051,0.024,-0.092,-0.143,-0.125,-0.069,-0.072
-0.035,0.032,0.067,0.001,-0.051,0.049,0.025,-0.1,-0.15,-0.127,-0.073,-0.075
-0.037,0.027,0.064,0.004,-0.051,0.045,0.025,-0.111,-0.149,-0.13,-0.075,-0.075
-0.039,0.026,0.065,0.006,-0.053,0.046,0.025,-0.11,-0.15,-0.13,-0.075,-0.075
-0.054,0.021,0.076,0.016,-0.065,0.048,0.025,-0.11,-0.164,-0.129,-0.079,-0.075
-0.06,0.021,0.081,0.02,-0.07,0.051,0.023,-0.111,-0.166,-0.131,-0.08,-0.076
-0.063,0.02,0.083,0.021,-0.073,0.052,0.019,-0.108,-0.164,-0.133,-0.08,-0.071
-0.054,0.031,0.086,0.011,-0.071,0.058,0.02,-0.115,-0.167,-0.142,-0.08,-0.071
-0.03,0.048,0.079,-0.009,-0.055,0.063,0.016,-0.126,-0.181,-0.158,-0.091,-0.084
-0.054,0.037,0.091,0.008,-0.073,0.064,0.015,-0.123,-0.186,-0.16,-0.096,-0.086
-0.074,0.027,0.101,0.023,-0.088,0.064,0.014,-0.12,-0.184,-0.16,-0.094,-0.085
-0.071,0.021,0.092,0.024,-0.082,0.056,0.011,-0.118,-0.185,-0.16,-0.095,-0.082
-0.062,0.028,0.09,0.017,-0.077,0.059,0.009,-0.115,-0.185,-0.16,-0.095,-0.079
-0.039,0.046,0.085,-0.004,-0.062,0.065,0.014,-0.113,-0.185,-0.159,-0.095,-0.08
-0.046,0.033,0.079,0.007,-0.063,0.056,0.026,-0.109,-0.181,-0.156,-0.09,-0.08
-0.071,0.023,0.094,0.024,-0.082,0.058,0.027,-0.11,-0.178,-0.153,-0.09,-0.08
-0.08,0.021,0.101,0.03,-0.091,0.061,0.023,-0.11,-0.176,-0.15,-0.09,-0.08
-0.079,0.02,0.1,0.029,-0.089,0.06,0.021,-0.11,-0.172,-0.147,-0.09,-0.08
-0.081,0.019,0.1,0.031,-0.091,0.059,0.017,-0.11,-0.17,-0.145,-0.09,-0.08
-0.084,0.016,0.1,0.034,-0.092,0.058,0.015,-0.105,-0.167,-0.143,-0.087,-0.077
-0.086,0.014,0.1,0.036,-0.094,0.056,0.017,-0.105,-0.163,-0.139,-0.084,-0.074
-0.077,0.018,0.095,0.029,-0.086,0.056,0.027,-0.105,-0.157,-0.14,-0.079,-0.075
-0.057,0.035,0.093,0.011,-0.075,0.064,0.033,-0.104,-0.154,-0.14,-0.077,-0.075
-0.061,0.026,0.087,0.017,-0.074,0.056,0.029,-0.106,-0.148,-0.14,-0.071,-0.075
-0.05,0.037,0.088,0.006,-0.069,0.062,0.016,-0.1,-0.147,-0.142,-0.072,-0.075
-0.014,0.062,0.076,-0.024,-0.045,0.069,0.019,-0.085,-0.154,-0.126,-0.079,-0.069
-0.013,0.08,0.093,-0.034,-0.053,0.086,0.062,-0.069,-0.13,-0.119,-0.071,-0.064
-0.025,0.096,0.121,-0.036,-0.073,0.108,0.069,-0.069,-0.115,-0.115,-0.059,-0.057
-0.012,0.082,0.094,-0.035,-0.053,0.088,0.071,-0.067,-0.093,-0.093,-0.055,-0.057
-0.003,0.067,0.07,-0.032,-0.037,0.068,0.04,-0.074,-0.089,-0.094,-0.055,-0.061
0.018,0.062,0.044,-0.04,-0.013,0.053,-0.029,-0.092,-0.14,-0.085,-0.055,-0.059
0.045,0.056,0.011,-0.051,0.017,0.033,-0.029,-0.093,-0.157,-0.087,-0.055,-0.064
0.042,0.056,0.014,-0.049,0.014,0.034,-0.024,-0.106,-0.156,-0.112,-0.054,-0.065
-0.008,0.05,0.058,-0.021,-0.033,0.053,-0.021,-0.103,-0.151,-0.119,-0.064,-0.065
-0.051,0.046,0.098,0.002,-0.075,0.072,-0.011,-0.123,-0.175,-0.148,-0.092,-0.081
-0.057,0.03,0.087,0.013,-0.073,0.059,-0.007,-0.128,-0.168,-0.15,-0.095,-0.086
-0.068,0.02,0.088,0.024,-0.078,0.053,0.002,-0.125,-0.179,-0.162,-0.104,-0.092
-0.064,0.033,0.097,0.015,-0.081,0.065,0.006,-0.118,-0.16,-0.146,-0.096,-0.093
-0.065,0.013,0.077,0.026,-0.071,0.045,0.014,-0.114,-0.168,-0.163,-0.103,-0.097
-0.061,0.041,0.102,0.01,-0.082,0.071,0.015,-0.115,-0.163,-0.151,-0.099,-0.097
-0.037,0.007,0.044,0.015,-0.041,0.025,0.022,-0.102,-0.14,-0.156,-0.095,-0.1
-0.1,0.082,0.182,0.009,-0.141,0.131,0.032,-0.144,-0.156,-0.173,-0.118,-0.107
-0.131,0.095,0.226,0.018,-0.178,0.16,0.091,-0.088,0.06,-0.01,-0.054,-0.096
0.106,0.06,-0.047,-0.083,0.076,0.007,0.099,0.294,0.821,0.926,0.598,0.223
0.608,0.255,-0.353,-0.431,0.48,-0.049,-0.072,0.704,2.287,2.505,1.775,0.874
0.691,0.008,-0.683,-0.349,0.687,-0.337,-0.425,-0.464,0.953,1.352,1.398,0.878
0.204,-0.259,-0.463,0.028,0.333,-0.36,-0.66,-1.949,-1.962,-0.96,0.039,0.332
-0.092,-0.222,-0.131,0.157,0.02,-0.176,-0.53,-1.675,-1.81,-1.026,-0.343,0.016
-0.171,-0.116,0.055,0.143,-0.113,-0.03,-0.306,-0.913,-0.85,-0.629,-0.321,-0.119
-0.131,0.046,0.177,0.042,-0.154,0.111,-0.082,-0.291,-0.312,-0.271,-0.161,-0.111
-0.049,0.051,0.1,-0.001,-0.075,0.075,0.049,-0.053,-0.049,-0.125,-0.1,-0.101
-0.044,0.055,0.099,-0.006,-0.072,0.076,0.061,-0.034,-0.073,-0.149,-0.121,-0.101
-0.051,0.049,0.1,0.0,-0.076,0.074,0.079,0.043,0.034,-0.085,-0.086,-0.087
-0.075,0.046,0.121,0.015,-0.098,0.083,0.075,0.044,0.025,-0.106,-0.1,-0.088
-0.072,0.045,0.117,0.013,-0.095,0.081,0.082,0.091,0.089,-0.049,-0.073,-0.075
-0.052,0.057,0.109,-0.002,-0.08,0.082,0.09,0.095,0.104,-0.051,-0.074,-0.073
-0.013,0.096,0.109,-0.041,-0.062,0.102,0.091,0.124,0.139,-0.021,-0.053,-0.063
-0.009,0.095,0.104,-0.043,-0.057,0.099,0.09,0.137,0.17,-0.012,-0.041,-0.058
-0.016,0.101,0.117,-0.043,-0.066,0.109,0.089,0.161,0.199,0.005,-0.031,-0.052
-0.015,0.103,0.118,-0.044,-0.067,0.11,0.09,0.187,0.245,0.025,-0.018,-0.046
-0.014,0.106,0.121,-0.046,-0.068,0.113,0.09,0.203,0.287,0.04,-0.012,-0.039
-0.007,0.113,0.119,-0.053,-0.063,0.116,0.086,0.244,0.341,0.069,0.003,-0.032
-0.002,0.118,0.12,-0.058,-0.061,0.119,0.098,0.285,0.396,0.102,0.025,-0.026
0.006,0.126,0.12,-0.066,-0.057,0.122,0.105,0.344,0.482,0.152,0.053,-0.018
0.011,0.132,0.12,-0.071,-0.055,0.125,0.096,0.402,0.56,0.185,0.07,-0.008
0.042,0.162,0.12,-0.102,-0.039,0.14,0.094,0.464,0.649,0.235,0.087,0.003
0.047,0.168,0.121,-0.108,-0.037,0.144,0.089,0.536,0.76,0.298,0.12,0.022
0.067,0.186,0.119,-0.127,-0.026,0.152,0.085,0.598,0.848,0.336,0.144,0.043
0.093,0.215,0.122,-0.154,-0.015,0.169,0.078,0.641,0.909,0.379,0.163,0.048
0.083,0.216,0.133,-0.149,-0.026,0.174,0.068,0.664,0.968,0.417,0.195,0.063
0.108,0.236,0.128,-0.172,-0.011,0.181,0.061,0.661,0.979,0.415,0.213,0.076
0.12,0.24,0.12,-0.18,-0.001,0.18,0.05,0.641,0.957,0.4,0.212,0.085
0.119,0.232,0.113,-0.176,0.003,0.172,0.041,0.573,0.895,0.392,0.209,0.091
0.118,0.224,0.106,-0.171,0.006,0.164,0.028,0.467,0.757,0.36,0.205,0.076
0.11,0.21,0.1,-0.16,0.005,0.155,0.018,0.357,0.6,0.29,0.185,0.066
0.075,0.194,0.119,-0.135,-0.022,0.156,0.019,0.234,0.433,0.215,0.145,0.054
0.015,0.154,0.138,-0.085,-0.062,0.146,0.02,0.139,0.275,0.135,0.093,0.021
-0.015,0.113,0.128,-0.05,-0.071,0.12,0.023,0.061,0.136,0.057,0.043,-0.012
-0.027,0.093,0.12,-0.034,-0.074,0.106,0.025,-0.004,0.037,-0.002,-0.001,-0.039
-0.026,0.084,0.11,-0.029,-0.068,0.096,0.027,-0.028,-0.01,-0.045,-0.033,-0.058
-0.029,0.078,0.106,-0.025,-0.068,0.092,0.031,-0.043,-0.05,-0.078,-0.049,-0.07
-0.041,0.07,0.111,-0.015,-0.076,0.091,0.034,-0.048,-0.056,-0.092,-0.063,-0.076
-0.048,0.064,0.113,-0.009,-0.081,0.088,0.038,-0.044,-0.054,-0.09,-0.065,-0.075
-0.059,0.057,0.116,0.001,-0.088,0.086,0.043,-0.042,-0.056,-0.09,-0.065,-0.075
-0.06,0.059,0.119,0.0,-0.09,0.089,0.045,-0.039,-0.054,-0.087,-0.069,-0.075
-0.037,0.083,0.12,-0.023,-0.079,0.101,0.045,-0.036,-0.057,-0.085,-0.07,-0.075
-0.024,0.091,0.115,-0.034,-0.07,0.103,0.045,-0.035,-0.047,-0.083,-0.069,-0.071
-0.029,0.085,0.114,-0.029,-0.072,0.099,0.045,-0.04,-0.062,-0.099,-0.066,-0.08
-0.027,0.083,0.11,-0.028,-0.069,0.096,0.044,-0.043,-0.083,-0.118,-0.065,-0.087
-0.033,0.079,0.112,-0.023,-0.072,0.095,0.041,-0.046,-0.079,-0.114,-0.065,-0.084
-0.056,0.074,0.13,-0.01,-0.093,0.102,0.036,-0.049,-0.08,-0.116,-0.065,-0.086
-0.061,0.076,0.136,-0.008,-0.099,0.106,0.034,-0.051,-0.086,-0.115,-0.065,-0.084
-0.055,0.079,0.134,-0.012,-0.095,0.106,0.029,-0.049,-0.093,-0.114,-0.067,-0.085
-0.054,0.078,0.132,-0.012,-0.093,0.104,0.026,-0.061,-0.117,-0.121,-0.074,-0.085
-0.06,0.07,0.129,-0.005,-0.095,0.099,0.022,-0.076,-0.139,-0.125,-0.088,-0.085
-0.064,0.066,0.13,-0.001,-0.098,0.097,0.02,-0.077,-0.154,-0.134,-0.095,-0.085
-0.042,0.083,0.125,-0.021,-0.084,0.104,0.02,-0.085,-0.166,-0.144,-0.095,-0.085
-0.034,0.09,0.124,-0.029,-0.079,0.107,0.02,-0.095,-0.165,-0.149,-0.096,-0.086
-0.041,0.079,0.12,-0.019,-0.08,0.099,0.02,-0.095,-0.163,-0.156,-0.093,-0.081
-0.043,0.075,0.118,-0.016,-0.08,0.096,0.02,-0.095,-0.179,-0.159,-0.102,-0.091
-0.047,0.068,0.115,-0.011,-0.081,0.091,0.015,-0.095,-0.192,-0.16,-0.112,-0.102
-0.056,0.059,0.116,-0.002,-0.086,0.088,0.015,-0.094,-0.189,-0.164,-0.11,-0.099
-0.064,0.072,0.136,-0.005,-0.1,0.104,0.015,-0.098,-0.19,-0.165,-0.108,-0.098
-0.043,0.077,0.12,-0.017,-0.082,0.099,0.015,-0.098,-0.19,-0.167,-0.104,-0.094
-0.034,0.065,0.098,-0.016,-0.066,0.081,0.015,-0.094,-0.189,-0.17,-0.105,-0.095
-0.042,0.059,0.1,-0.008,-0.071,0.079,0.012,-0.095,-0.197,-0.17,-0.109,-0.099
-0.054,0.046,0.1,0.004,-0.078,0.073,0.01,-0.095,-0.207,-0.17,-0.11,-0.1
-0.046,0.053,0.099,-0.003,-0.073,0.076,0.01,-0.095,-0.203,-0.17,-0.11,-0.1
-0.034,0.067,0.101,-0.017,-0.068,0.084,0.006,-0.095,-0.207,-0.17,-0.11,-0.1
-0.051,0.062,0.113,-0.006,-0.083,0.088,0.004,-0.1,-0.202,-0.174,-0.11,-0.1
-0.055,0.061,0.116,-0.003,-0.085,0.088,0.005,-0.108,-0.218,-0.179,-0.111,-0.101
-0.057,0.057,0.115,0.0,-0.086,0.086,0.0,-0.108,-0.284,-0.18,-0.115,-0.105
-0.06,0.055,0.115,0.002,-0.088,0.085,0.001,-0.104,-0.299,-0.18,-0.114,-0.104
-0.061,0.055,0.116,0.002,-0.089,0.085,0.0,-0.105,-0.293,-0.18,-0.118,-0.108
-0.058,0.055,0.113,0.001,-0.086,0.084,0.0,-0.101,-0.296,-0.18,-0.12,-0.11
-0.045,0.073,0.118,-0.014,-0.082,0.095,0.0,-0.099,-0.288,-0.18,-0.12,-0.11
-0.042,0.077,0.118,-0.018,-0.08,0.098,0.004,-0.101,-0.292,-0.18,-0.116,-0.106
-0.042,0.085,0.127,-0.022,-0.084,0.106,0.035,-0.093,-0.286,-0.175,-0.11,-0.1
-0.046,0.107,0.153,-0.031,-0.1,0.13,0.025,-0.089,-0.272,-0.168,-0.103,-0.094
-0.043,0.104,0.147,-0.031,-0.095,0.125,0.025,-0.08,-0.257,-0.161,-0.096,-0.089
-0.004,0.133,0.137,-0.064,-0.071,0.135,0.058,-0.078,-0.249,-0.142,-0.088,-0.083
0.025,0.158,0.133,-0.092,-0.054,0.145,0.052,-0.05,-0.252,-0.134,-0.065,-0.06
0.012,0.134,0.121,-0.073,-0.055,0.127,0.01,-0.031,-0.258,-0.135,-0.052,-0.044
0.0,0.124,0.124,-0.063,-0.062,0.124,-0.052,-0.089,-0.268,-0.136,-0.063,-0.046
-0.015,0.111,0.126,-0.049,-0.071,0.119,-0.053,-0.102,-0.266,-0.132,-0.064,-0.044
-0.029,0.102,0.132,-0.037,-0.081,0.117,-0.034,-0.11,-0.286,-0.142,-0.071,-0.046
-0.044,0.094,0.137,-0.025,-0.091,0.115,-0.031,-0.127,-0.287,-0.16,-0.081,-0.063
-0.073,0.079,0.152,-0.004,-0.113,0.115,-0.022,-0.122,-0.299,-0.178,-0.1,-0.087
-0.077,0.081,0.158,-0.002,-0.118,0.119,-0.019,-0.12,-0.31,-0.179,-0.115,-0.095
-0.079,0.061,0.14,0.009,-0.11,0.101,-0.012,-0.114,-0.316,-0.188,-0.124,-0.103
-0.087,0.071,0.158,0.007,-0.123,0.114,-0.007,-0.115,-0.306,-0.176,-0.128,-0.097
-0.084,0.042,0.126,0.021,-0.105,0.083,0.011,-0.103,-0.295,-0.175,-0.129,-0.103
-0.086,0.071,0.157,0.007,-0.121,0.114,0.011,-0.114,-0.311,-0.178,-0.124,-0.111
-0.052,0.073,0.125,-0.01,-0.089,0.098,-0.006,-0.092,-0.265,-0.155,-0.117,-0.115
-0.079,0.098,0.177,-0.01,-0.128,0.137,0.015,-0.112,-0.318,-0.203,-0.152,-0.119
-0.09,0.179,0.27,-0.045,-0.18,0.224,0.061,-0.11,-0.191,-0.135,-0.148,-0.109
0.056,0.125,0.069,-0.09,-0.007,0.097,0.099,0.15,0.345,0.487,0.283,0.077
0.434,0.287,-0.147,-0.36,0.29,0.07,-0.016,0.62,1.774,2.057,1.41,0.685
0.626,0.093,-0.534,-0.359,0.58,-0.22,-0.281,0.026,1.22,1.7,1.495,0.895
0.266,-0.235,-0.501,-0.015,0.384,-0.368,-0.517,-1.418,-1.789,-0.672,0.227,0.413
-0.05,-0.154,-0.104,0.102,0.027,-0.129,-0.539,-1.555,-2.184,-1.162,-0.373,0.032
-0.155,-0.049,0.105,0.101,-0.13,0.028,-0.359,-0.92,-1.139,-0.728,-0.382,-0.137
-0.104,0.113,0.218,-0.005,-0.161,0.165,-0.154,-0.4,-0.6,-0.403,-0.241,-0.127
-0.024,0.13,0.155,-0.053,-0.09,0.143,-0.016,-0.091,-0.222,-0.153,-0.132,-0.096
-0.046,0.122,0.168,-0.039,-0.107,0.145,0.014,-0.069,-0.236,-0.183,-0.149,-0.109
-0.025,0.14,0.165,-0.058,-0.095,0.152,0.036,-0.009,-0.133,-0.112,-0.112,-0.094
-0.041,0.128,0.169,-0.044,-0.105,0.148,0.048,0.009,-0.121,-0.126,-0.12,-0.1
-0.067,0.141,0.208,-0.038,-0.138,0.174,0.046,0.029,-0.079,-0.086,-0.099,-0.091
-0.07,0.13,0.2,-0.031,-0.135,0.165,0.051,0.045,-0.052,-0.078,-0.095,-0.091
-0.063,0.138,0.201,-0.038,-0.132,0.169,0.053,0.06,-0.041,-0.07,-0.088,-0.088
-0.057,0.133,0.19,-0.038,-0.124,0.161,0.067,0.075,0.002,-0.049,-0.08,-0.082
-0.05,0.138,0.188,-0.044,-0.119,0.163,0.059,0.094,0.035,-0.025,-0.075,-0.076
-0.017,0.165,0.182,-0.074,-0.099,0.173,0.055,0.115,0.077,0.007,-0.06,-0.069
0.008,0.182,0.175,-0.095,-0.083,0.178,0.052,0.139,0.116,0.018,-0.045,-0.063
-0.004,0.181,0.184,-0.089,-0.094,0.182,0.044,0.179,0.183,0.051,-0.021,-0.056
0.014,0.187,0.173,-0.101,-0.08,0.179,0.05,0.206,0.24,0.081,-0.007,-0.051
0.022,0.189,0.167,-0.106,-0.073,0.178,0.057,0.251,0.31,0.127,0.007,-0.039
0.016,0.208,0.191,-0.112,-0.088,0.199,0.055,0.287,0.379,0.154,0.027,-0.031
0.038,0.236,0.198,-0.138,-0.08,0.216,0.055,0.349,0.472,0.2,0.055,-0.019
0.032,0.248,0.216,-0.14,-0.093,0.232,0.055,0.415,0.583,0.268,0.095,0.002
0.047,0.269,0.222,-0.158,-0.088,0.245,0.055,0.45,0.671,0.309,0.122,0.022
0.062,0.28,0.218,-0.171,-0.078,0.249,0.055,0.494,0.743,0.354,0.14,0.034
0.085,0.306,0.221,-0.196,-0.068,0.263,0.038,0.515,0.793,0.389,0.172,0.045
0.098,0.317,0.219,-0.208,-0.06,0.268,0.017,0.515,0.805,0.399,0.181,0.066
0.083,0.303,0.22,-0.193,-0.069,0.261,-0.001,0.489,0.787,0.395,0.175,0.079
0.091,0.301,0.209,-0.196,-0.059,0.255,-0.014,0.431,0.721,0.376,0.167,0.084
0.086,0.292,0.205,-0.189,-0.06,0.248,-0.035,0.365,0.606,0.338,0.162,0.078
0.09,0.286,0.196,-0.189,-0.053,0.241,-0.049,0.271,0.455,0.275,0.151,0.059
0.069,0.276,0.206,-0.173,-0.069,0.241,-0.04,0.161,0.274,0.185,0.099,0.026
0.018,0.249,0.231,-0.134,-0.107,0.239,-0.034,0.076,0.119,0.1,0.047,-0.004
-0.005,0.226,0.231,-0.111,-0.118,0.228,-0.028,0.014,-0.003,0.025,0.001,-0.021
-0.021,0.188,0.209,-0.084,-0.115,0.198,-0.024,-0.032,-0.089,-0.032,-0.038,-0.052
-0.022,0.179,0.201,-0.079,-0.112,0.19,-0.026,-0.068,-0.158,-0.084,-0.072,-0.081
-0.028,0.214,0.242,-0.093,-0.135,0.227,-0.025,-0.098,-0.213,-0.125,-0.101,-0.105
-0.038,0.202,0.24,-0.083,-0.139,0.221,-0.025,-0.101,-0.218,-0.128,-0.099,-0.112
-0.038,0.185,0.223,-0.073,-0.131,0.204,-0.025,-0.099,-0.215,-0.135,-0.1,-0.109
-0.031,0.186,0.216,-0.078,-0.124,0.201,-0.025,-0.097,-0.21,-0.136,-0.1,-0.111
-0.022,0.184,0.206,-0.081,-0.115,0.195,-0.025,-0.094,-0.206,-0.133,-0.1,-0.109
-0.022,0.185,0.207,-0.082,-0.115,0.196,-0.025,-0.096,-0.201,-0.132,-0.1,-0.11
-0.011,0.185,0.196,-0.087,-0.104,0.19,-0.026,-0.094,-0.197,-0.129,-0.1,-0.11
-0.033,0.184,0.218,-0.076,-0.126,0.201,-0.024,-0.096,-0.192,-0.132,-0.1,-0.11
-0.048,0.191,0.239,-0.072,-0.143,0.214,-0.028,-0.093,-0.187,-0.136,-0.1,-0.11
-0.044,0.212,0.256,-0.084,-0.15,0.234,-0.043,-0.101,-0.211,-0.148,-0.115,-0.113
-0.055,0.196,0.251,-0.071,-0.153,0.223,-0.046,-0.12,-0.225,-0.156,-0.121,-0.116
-0.046,0.194,0.24,-0.075,-0.143,0.217,-0.044,-0.12,-0.223,-0.158,-0.119,-0.114
-0.043,0.214,0.257,-0.086,-0.15,0.235,-0.045,-0.12,-0.234,-0.162,-0.12,-0.115
-0.04,0.205,0.245,-0.083,-0.143,0.225,-0.045,-0.121,-0.245,-0.165,-0.12,-0.115
-0.037,0.206,0.243,-0.085,-0.141,0.224,-0.045,-0.119,-0.255,-0.169,-0.119,-0.115
-0.036,0.201,0.236,-0.083,-0.136,0.218,-0.05,-0.123,-0.271,-0.176,-0.129,-0.119
-0.03,0.2,0.23,-0.085,-0.13,0.215,-0.048,-0.129,-0.285,-0.185,-0.142,-0.12
-0.041,0.208,0.249,-0.084,-0.145,0.228,-0.044,-0.136,-0.301,-0.194,-0.138,-0.12
-0.046,0.204,0.25,-0.079,-0.148,0.226,-0.045,-0.139,-0.311,-0.197,-0.136,-0.12
-0.047,0.192,0.239,-0.072,-0.143,0.215,-0.041,-0.14,-0.31,-0.2,-0.132,-0.121
-0.047,0.184,0.231,-0.069,-0.139,0.207,-0.04,-0.144,-0.314,-0.204,-0.131,-0.125
-0.03,0.195,0.225,-0.083,-0.128,0.21,-0.04,-0.145,-0.316,-0.203,-0.127,-0.125
-0.026,0.193,0.219,-0.083,-0.123,0.206,-0.045,-0.147,-0.313,-0.2,-0.126,-0.125
-0.027,0.191,0.218,-0.082,-0.123,0.204,-0.045,-0.15,-0.32,-0.199,-0.142,-0.125
-0.022,0.185,0.207,-0.081,-0.115,0.195,-0.047,-0.154,-0.331,-0.206,-0.146,-0.124
-0.038,0.19,0.228,-0.076,-0.133,0.209,-0.057,-0.154,-0.329,-0.215,-0.149,-0.129
-0.038,0.224,0.262,-0.093,-0.15,0.243,-0.056,-0.151,-0.33,-0.215,-0.151,-0.13
-0.022,0.232,0.254,-0.105,-0.138,0.243,-0.055,-0.149,-0.33,-0.215,-0.149,-0.13
-0.021,0.229,0.249,-0.104,-0.135,0.239,-0.054,-0.151,-0.329,-0.215,-0.15,-0.134
-0.016,0.227,0.243,-0.106,-0.13,0.235,-0.049,-0.15,-0.333,-0.215,-0.15,-0.135
-0.018,0.224,0.242,-0.103,-0.131,0.233,-0.05,-0.149,-0.334,-0.215,-0.15,-0.134
-0.045,0.225,0.27,-0.09,-0.158,0.247,-0.052,-0.154,-0.336,-0.216,-0.151,-0.128
-0.055,0.231,0.287,-0.088,-0.171,0.259,-0.055,-0.153,-0.334,-0.214,-0.144,-0.121
-0.055,0.229,0.284,-0.088,-0.17,0.257,-0.055,-0.159,-0.339,-0.218,-0.132,-0.114
-0.03,0.255,0.285,-0.113,-0.158,0.27,-0.054,-0.127,-0.303,-0.191,-0.12,-0.109
0.007,0.292,0.285,-0.15,-0.139,0.288,-0.057,-0.109,-0.261,-0.154,-0.104,-0.097
0.014,0.289,0.275,-0.152,-0.131,0.282,-0.051,-0.098,-0.248,-0.137,-0.097,-0.082
0.039,0.289,0.25,-0.164,-0.105,0.269,-0.073,-0.091,-0.244,-0.125,-0.102,-0.085
0.027,0.253,0.226,-0.14,-0.099,0.239,-0.103,-0.154,-0.293,-0.154,-0.104,-0.085
0.032,0.234,0.202,-0.133,-0.085,0.217,-0.095,-0.165,-0.317,-0.174,-0.107,-0.085
0.063,0.247,0.184,-0.155,-0.061,0.215,-0.094,-0.153,-0.307,-0.174,-0.112,-0.086
0.01,0.229,0.22,-0.12,-0.105,0.224,-0.09,-0.148,-0.312,-0.182,-0.107,-0.082
-0.053,0.22,0.273,-0.084,-0.163,0.246,-0.085,-0.158,-0.327,-0.202,-0.131,-0.11
-0.051,0.211,0.262,-0.08,-0.157,0.237,-0.084,-0.194,-0.347,-0.235,-0.16,-0.138
-0.043,0.203,0.246,-0.08,-0.145,0.225,-0.076,-0.184,-0.336,-0.228,-0.153,-0.134
-0.055,0.202,0.257,-0.074,-0.156,0.229,-0.079,-0.183,-0.338,-0.228,-0.157,-0.135
-0.035,0.191,0.226,-0.078,-0.131,0.208,-0.067,-0.177,-0.333,-0.224,-0.155,-0.136
-0.094,0.192,0.286,-0.049,-0.19,0.239,-0.073,-0.172,-0.329,-0.22,-0.156,-0.133
-0.074,0.182,0.257,-0.054,-0.166,0.219,-0.058,-0.173,-0.332,-0.224,-0.152,-0.14
-0.054,0.233,0.287,-0.09,-0.171,0.26,-0.056,-0.172,-0.305,-0.213,-0.148,-0.141
-0.098,0.323,0.421,-0.112,-0.26,0.372,-0.004,-0.211,-0.298,-0.235,-0.199,-0.164
0.025,0.312,0.287,-0.169,-0.131,0.299,0.022,0.057,0.318,0.424,0.231,0.043
