-0.069,-0.102,-0.033,0.086,-0.017,-0.067,-0.052,-0.096,-0.136,-0.089,-0.082,-0.104
-0.069,-0.109,-0.04,0.089,-0.014,-0.074,-0.053,-0.099,-0.135,-0.086,-0.082,-0.109
-0.102,-0.102,0.0,0.103,-0.051,-0.051,0.014,-0.038,-0.101,-0.092,-0.105,-0.136
-0.116,-0.121,-0.005,0.119,-0.056,-0.063,0.11,0.141,0.026,-0.014,-0.062,-0.137
0.199,0.01,-0.188,-0.104,0.193,-0.089,-0.049,0.235,0.27,0.317,0.285,0.162
1.034,0.607,-0.427,-0.82,0.73,0.09,-0.728,-0.209,0.472,1.002,1.198,1.108
1.249,0.755,-0.494,-1.002,0.871,0.13,-1.04,-0.754,0.204,1.005,1.33,1.413
0.348,0.332,-0.016,-0.34,0.182,0.158,-0.426,-0.741,-0.482,-0.08,0.143,0.395
-0.171,0.005,0.175,0.083,-0.173,0.09,0.008,-0.567,-0.686,-0.515,-0.376,-0.211
-0.133,-0.169,-0.036,0.151,-0.048,-0.102,0.058,-0.352,-0.394,-0.279,-0.229,-0.183
-0.078,-0.141,-0.062,0.11,-0.008,-0.102,0.035,-0.113,-0.167,-0.135,-0.136,-0.14
-0.012,-0.077,-0.065,0.045,0.027,-0.071,-0.019,0.02,-0.041,-0.009,-0.03,-0.075
-0.008,-0.064,-0.056,0.036,0.024,-0.06,0.011,0.075,-0.002,-0.003,-0.031,-0.07
0.031,-0.052,-0.083,0.011,0.057,-0.067,0.004,0.082,0.03,0.024,0.002,-0.047
0.042,-0.052,-0.094,0.005,0.068,-0.073,-0.008,0.112,0.047,0.047,0.017,-0.037
0.038,-0.042,-0.08,0.003,0.059,-0.061,-0.027,0.13,0.066,0.064,0.035,-0.024
0.047,-0.04,-0.087,-0.004,0.067,-0.063,-0.042,0.159,0.099,0.077,0.044,-0.011
0.04,-0.033,-0.072,-0.003,0.056,-0.052,-0.038,0.186,0.113,0.09,0.055,0.006
0.06,-0.019,-0.079,-0.02,0.07,-0.049,-0.042,0.218,0.144,0.129,0.096,0.028
0.099,-0.002,-0.101,-0.049,0.1,-0.051,-0.038,0.27,0.187,0.153,0.114,0.04
0.119,0.007,-0.113,-0.063,0.116,-0.052,-0.042,0.314,0.22,0.189,0.138,0.061
0.152,0.024,-0.128,-0.088,0.14,-0.052,-0.036,0.371,0.271,0.228,0.175,0.091
0.193,0.048,-0.144,-0.12,0.168,-0.048,-0.036,0.442,0.341,0.278,0.217,0.125
0.222,0.06,-0.162,-0.141,0.191,-0.051,-0.031,0.515,0.397,0.332,0.263,0.165
0.266,0.094,-0.171,-0.18,0.219,-0.039,-0.029,0.597,0.473,0.402,0.323,0.215
0.315,0.116,-0.2,-0.215,0.257,-0.041,-0.051,0.662,0.534,0.462,0.38,0.268
0.371,0.152,-0.219,-0.261,0.295,-0.034,-0.062,0.721,0.6,0.522,0.433,0.319
0.423,0.192,-0.232,-0.308,0.327,-0.019,-0.079,0.755,0.65,0.583,0.488,0.367
0.439,0.216,-0.224,-0.327,0.331,-0.004,-0.085,0.754,0.657,0.603,0.523,0.413
0.422,0.247,-0.175,-0.334,0.298,0.035,-0.077,0.704,0.638,0.594,0.532,0.411
0.387,0.231,-0.156,-0.309,0.271,0.037,-0.074,0.595,0.563,0.545,0.489,0.382
0.317,0.184,-0.133,-0.25,0.225,0.025,-0.07,0.455,0.436,0.44,0.389,0.312
0.22,0.128,-0.092,-0.174,0.156,0.018,-0.058,0.3,0.283,0.3,0.269,0.203
0.124,0.068,-0.056,-0.095,0.09,0.006,-0.042,0.188,0.166,0.191,0.157,0.114
0.081,0.027,-0.054,-0.053,0.067,-0.014,-0.036,0.105,0.081,0.107,0.077,0.037
0.025,-0.004,-0.03,-0.01,0.027,-0.017,-0.028,0.037,0.008,0.038,0.019,-0.011
-0.026,-0.036,-0.01,0.031,-0.008,-0.023,-0.02,-0.007,-0.038,0.003,-0.017,-0.04
-0.01,-0.05,-0.041,0.03,0.016,-0.045,-0.013,-0.026,-0.053,-0.023,-0.03,-0.055
-0.024,-0.06,-0.035,0.042,0.006,-0.047,-0.008,-0.036,-0.065,-0.041,-0.04,-0.06
-0.028,-0.062,-0.034,0.045,0.003,-0.047,-0.005,-0.047,-0.077,-0.046,-0.05,-0.067
-0.026,-0.05,-0.023,0.038,-0.001,-0.036,-0.002,-0.045,-0.075,-0.045,-0.05,-0.064
-0.049,-0.069,-0.02,0.059,-0.014,-0.044,0.003,-0.043,-0.073,-0.045,-0.05,-0.065
-0.053,-0.082,-0.029,0.068,-0.012,-0.055,0.005,-0.04,-0.07,-0.045,-0.05,-0.065
-0.056,-0.074,-0.019,0.065,-0.018,-0.046,-0.005,-0.04,-0.07,-0.045,-0.05,-0.065
-0.052,-0.073,-0.021,0.063,-0.015,-0.047,-0.007,-0.037,-0.067,-0.042,-0.049,-0.065
-0.054,-0.068,-0.014,0.062,-0.02,-0.041,-0.004,-0.032,-0.061,-0.036,-0.046,-0.065
-0.048,-0.065,-0.017,0.057,-0.015,-0.041,-0.006,-0.03,-0.057,-0.032,-0.043,-0.065
-0.029,-0.062,-0.032,0.046,0.002,-0.047,-0.004,-0.026,-0.053,-0.027,-0.04,-0.065
-0.027,-0.057,-0.03,0.042,0.002,-0.044,-0.007,-0.021,-0.047,-0.023,-0.039,-0.065
-0.054,-0.054,-0.001,0.054,-0.026,-0.027,0.002,-0.022,-0.047,-0.019,-0.032,-0.066
-0.072,-0.051,0.021,0.061,-0.046,-0.015,0.017,-0.047,-0.065,-0.04,-0.049,-0.07
-0.06,-0.046,0.014,0.052,-0.036,-0.015,0.015,-0.056,-0.066,-0.057,-0.067,-0.07
-0.05,-0.047,0.003,0.048,-0.026,-0.021,0.011,-0.055,-0.064,-0.054,-0.064,-0.073
-0.047,-0.049,-0.002,0.048,-0.023,-0.025,0.01,-0.06,-0.086,-0.056,-0.065,-0.075
-0.07,-0.058,0.012,0.064,-0.041,-0.022,0.005,-0.059,-0.097,-0.054,-0.065,-0.077
-0.075,-0.065,0.01,0.07,-0.042,-0.028,0.005,-0.077,-0.097,-0.072,-0.065,-0.081
-0.051,-0.065,-0.014,0.058,-0.018,-0.04,0.01,-0.087,-0.102,-0.082,-0.069,-0.084
-0.044,-0.069,-0.026,0.057,-0.009,-0.047,0.01,-0.084,-0.104,-0.079,-0.07,-0.088
-0.045,-0.07,-0.025,0.058,-0.01,-0.047,0.014,-0.086,-0.106,-0.084,-0.07,-0.09
-0.057,-0.078,-0.021,0.067,-0.017,-0.05,0.015,-0.084,-0.109,-0.085,-0.075,-0.09
-0.062,-0.081,-0.019,0.072,-0.022,-0.05,0.017,-0.086,-0.11,-0.085,-0.075,-0.09
-0.063,-0.08,-0.016,0.072,-0.023,-0.048,0.021,-0.089,-0.11,-0.08,-0.076,-0.09
-0.066,-0.078,-0.012,0.072,-0.027,-0.045,0.02,-0.09,-0.11,-0.08,-0.08,-0.09
-0.058,-0.074,-0.017,0.066,-0.02,-0.045,0.02,-0.09,-0.11,-0.078,-0.08,-0.09
-0.053,-0.075,-0.022,0.065,-0.015,-0.048,0.02,-0.09,-0.11,-0.075,-0.08,-0.092
-0.073,-0.072,0.001,0.072,-0.037,-0.035,0.02,-0.089,-0.11,-0.074,-0.08,-0.099
-0.073,-0.069,0.004,0.071,-0.039,-0.032,0.016,-0.093,-0.11,-0.082,-0.08,-0.105
-0.048,-0.066,-0.019,0.057,-0.014,-0.042,0.011,-0.095,-0.11,-0.095,-0.08,-0.105
-0.048,-0.063,-0.015,0.056,-0.016,-0.039,0.009,-0.096,-0.11,-0.095,-0.08,-0.105
-0.072,-0.06,0.012,0.066,-0.042,-0.024,0.005,-0.1,-0.11,-0.095,-0.079,-0.105
-0.091,-0.061,0.031,0.076,-0.061,-0.015,0.0,-0.1,-0.115,-0.095,-0.075,-0.105
-0.097,-0.07,0.027,0.083,-0.062,-0.021,0.002,-0.104,-0.123,-0.095,-0.075,-0.105
-0.105,-0.087,0.018,0.096,-0.061,-0.034,0.01,-0.108,-0.123,-0.093,-0.073,-0.102
-0.105,-0.091,0.014,0.098,-0.059,-0.038,0.015,-0.11,-0.12,-0.089,-0.069,-0.1
-0.091,-0.086,0.004,0.088,-0.047,-0.041,0.022,-0.113,-0.12,-0.09,-0.07,-0.1
-0.086,-0.084,0.002,0.085,-0.044,-0.041,0.031,-0.116,-0.12,-0.09,-0.075,-0.1
-0.107,-0.081,0.026,0.094,-0.067,-0.027,0.033,-0.119,-0.12,-0.09,-0.075,-0.1
-0.111,-0.079,0.032,0.095,-0.072,-0.024,0.027,-0.121,-0.12,-0.09,-0.075,-0.1
-0.1,-0.075,0.025,0.088,-0.062,-0.025,0.023,-0.124,-0.125,-0.095,-0.075,-0.104
-0.101,-0.075,0.026,0.087,-0.063,-0.025,0.019,-0.125,-0.125,-0.095,-0.075,-0.105
-0.092,-0.074,0.019,0.083,-0.055,-0.027,0.013,-0.126,-0.126,-0.096,-0.075,-0.105
-0.092,-0.07,0.022,0.081,-0.057,-0.024,0.01,-0.131,-0.13,-0.1,-0.07,-0.105
-0.07,-0.07,0.0,0.07,-0.035,-0.035,-0.003,-0.129,-0.13,-0.1,-0.07,-0.105
-0.07,-0.073,-0.002,0.071,-0.034,-0.037,-0.014,-0.13,-0.128,-0.098,-0.069,-0.103
-0.105,-0.075,0.03,0.09,-0.067,-0.022,-0.009,-0.13,-0.124,-0.095,-0.065,-0.099
-0.104,-0.075,0.029,0.089,-0.066,-0.023,-0.007,-0.13,-0.126,-0.092,-0.064,-0.1
-0.096,-0.075,0.021,0.085,-0.058,-0.027,-0.004,-0.131,-0.121,-0.089,-0.071,-0.096
-0.098,-0.075,0.023,0.087,-0.06,-0.026,0.0,-0.129,-0.12,-0.086,-0.074,-0.095
-0.091,-0.075,0.015,0.083,-0.053,-0.03,0.0,-0.132,-0.12,-0.086,-0.066,-0.096
-0.063,-0.066,-0.003,0.064,-0.03,-0.034,0.007,-0.108,-0.103,-0.073,-0.059,-0.088
-0.062,-0.05,0.013,0.056,-0.037,-0.018,0.01,-0.097,-0.084,-0.053,-0.053,-0.077
-0.07,-0.022,0.048,0.046,-0.059,0.013,0.02,-0.112,-0.074,-0.045,-0.045,-0.067
-0.06,-0.006,0.054,0.033,-0.057,0.024,0.012,-0.11,-0.072,-0.04,-0.041,-0.058
-0.029,0.011,0.04,0.009,-0.035,0.025,-0.023,-0.115,-0.055,-0.045,-0.039,-0.054
-0.018,0.02,0.038,-0.001,-0.028,0.028,-0.033,-0.115,-0.053,-0.045,-0.04,-0.049
-0.028,0.01,0.038,0.009,-0.033,0.024,-0.027,-0.114,-0.079,-0.045,-0.04,-0.048
0.025,-0.001,-0.026,-0.012,0.026,-0.014,-0.033,-0.116,-0.087,-0.045,-0.04,-0.041
0.041,-0.026,-0.067,-0.008,0.054,-0.046,-0.042,-0.115,-0.088,-0.044,-0.04,-0.04
-0.007,-0.044,-0.037,0.025,0.015,-0.04,-0.026,-0.13,-0.102,-0.059,-0.05,-0.059
-0.075,-0.081,-0.006,0.078,-0.034,-0.043,-0.006,-0.14,-0.127,-0.093,-0.092,-0.093
-0.083,-0.105,-0.022,0.094,-0.03,-0.063,-0.005,-0.157,-0.132,-0.115,-0.096,-0.103
-0.055,-0.108,-0.053,0.082,-0.001,-0.08,0.002,-0.145,-0.124,-0.123,-0.095,-0.105
-0.087,-0.1,-0.013,0.093,-0.036,-0.056,0.009,-0.116,-0.125,-0.111,-0.097,-0.107
-0.087,-0.112,-0.025,0.099,-0.03,-0.068,0.015,-0.114,-0.117,-0.096,-0.09,-0.1
-0.137,-0.096,0.041,0.117,-0.089,-0.027,0.075,-0.055,-0.095,-0.11,-0.108,-0.137
-0.144,-0.116,0.029,0.13,-0.086,-0.043,0.16,0.114,0.027,-0.009,-0.051,-0.141
0.206,0.041,-0.165,-0.123,0.185,-0.062,-0.013,0.199,0.278,0.323,0.293,0.177
1.029,0.615,-0.414,-0.822,0.722,0.1,-0.717,-0.276,0.456,0.982,1.184,1.107
1.22,0.748,-0.472,-0.984,0.846,0.138,-0.992,-0.804,0.168,0.937,1.255,1.365
0.309,0.327,0.018,-0.318,0.145,0.172,-0.36,-0.771,-0.503,-0.135,0.084,0.344
-0.197,-0.004,0.193,0.1,-0.195,0.094,0.042,-0.61,-0.693,-0.534,-0.392,-0.212
-0.163,-0.163,0.0,0.163,-0.082,-0.081,0.09,-0.372,-0.383,-0.283,-0.228,-0.153
-0.089,-0.124,-0.035,0.107,-0.026,-0.08,0.077,-0.116,-0.149,-0.131,-0.138,-0.134
-0.006,-0.064,-0.058,0.036,0.027,-0.061,0.033,-0.004,-0.03,-0.032,-0.047,-0.08
-0.027,-0.056,-0.029,0.042,0.001,-0.042,0.052,0.051,-0.001,-0.016,-0.036,-0.073
-0.001,-0.046,-0.044,0.024,0.021,-0.045,0.036,0.074,0.027,0.015,-0.014,-0.061
-0.003,-0.049,-0.046,0.026,0.022,-0.047,0.034,0.102,0.05,0.032,-0.001,-0.053
-0.004,-0.041,-0.038,0.022,0.017,-0.039,0.026,0.126,0.068,0.051,0.017,-0.044
0.001,-0.041,-0.042,0.021,0.021,-0.041,0.018,0.146,0.097,0.066,0.036,-0.021
-0.01,-0.038,-0.028,0.025,0.009,-0.033,0.015,0.177,0.114,0.082,0.051,-0.004
0.035,-0.026,-0.061,-0.005,0.048,-0.043,0.008,0.215,0.138,0.11,0.075,0.014
0.064,-0.011,-0.076,-0.026,0.07,-0.043,0.007,0.26,0.18,0.141,0.098,0.031
0.082,0.001,-0.082,-0.041,0.082,-0.041,0.002,0.308,0.222,0.175,0.124,0.054
0.111,0.01,-0.1,-0.06,0.105,-0.045,-0.001,0.366,0.266,0.215,0.158,0.084
0.148,0.037,-0.112,-0.092,0.13,-0.037,-0.005,0.439,0.333,0.27,0.202,0.121
0.206,0.068,-0.138,-0.137,0.172,-0.035,-0.009,0.51,0.392,0.323,0.247,0.159
0.244,0.093,-0.15,-0.168,0.197,-0.028,-0.02,0.589,0.461,0.387,0.304,0.207
0.292,0.121,-0.172,-0.206,0.232,-0.025,-0.026,0.665,0.53,0.449,0.362,0.256
0.336,0.151,-0.185,-0.243,0.26,-0.017,-0.039,0.725,0.593,0.508,0.415,0.306
0.366,0.191,-0.176,-0.278,0.271,0.007,-0.052,0.753,0.639,0.559,0.47,0.361
0.399,0.225,-0.174,-0.312,0.286,0.025,-0.059,0.746,0.646,0.585,0.5,0.394
0.397,0.227,-0.17,-0.312,0.283,0.028,-0.071,0.701,0.631,0.577,0.492,0.401
0.358,0.219,-0.139,-0.288,0.249,0.039,-0.066,0.594,0.56,0.528,0.467,0.376
0.287,0.198,-0.089,-0.242,0.188,0.054,-0.061,0.45,0.431,0.426,0.379,0.3
0.192,0.136,-0.056,-0.164,0.124,0.04,-0.038,0.298,0.293,0.294,0.256,0.201
0.098,0.071,-0.027,-0.084,0.063,0.022,-0.008,0.172,0.164,0.183,0.153,0.108
0.026,0.018,-0.008,-0.021,0.017,0.005,-0.004,0.086,0.068,0.092,0.065,0.038
-0.023,-0.027,-0.004,0.025,-0.009,-0.015,-0.002,0.027,0.008,0.026,0.013,-0.009
-0.049,-0.049,0.0,0.049,-0.024,-0.025,0.002,-0.011,-0.034,-0.014,-0.017,-0.046
-0.058,-0.056,0.002,0.057,-0.03,-0.027,0.003,-0.031,-0.053,-0.036,-0.039,-0.063
-0.068,-0.061,0.007,0.064,-0.037,-0.027,0.008,-0.045,-0.062,-0.04,-0.045,-0.072
-0.08,-0.065,0.015,0.072,-0.047,-0.025,0.023,-0.047,-0.069,-0.04,-0.045,-0.076
-0.078,-0.065,0.014,0.071,-0.045,-0.025,0.026,-0.044,-0.066,-0.04,-0.045,-0.074
-0.072,-0.065,0.007,0.068,-0.039,-0.029,0.024,-0.046,-0.065,-0.036,-0.045,-0.075
-0.069,-0.065,0.004,0.067,-0.036,-0.03,0.021,-0.044,-0.065,-0.035,-0.049,-0.075
-0.064,-0.065,-0.002,0.065,-0.03,-0.033,0.02,-0.046,-0.065,-0.035,-0.05,-0.075
-0.056,-0.061,-0.005,0.059,-0.025,-0.033,0.019,-0.042,-0.066,-0.03,-0.05,-0.075
-0.062,-0.06,0.002,0.061,-0.032,-0.028,0.015,-0.04,-0.062,-0.03,-0.054,-0.075
-0.069,-0.06,0.009,0.064,-0.039,-0.026,0.015,-0.04,-0.06,-0.031,-0.056,-0.075
-0.077,-0.06,0.017,0.068,-0.047,-0.021,0.013,-0.037,-0.06,-0.037,-0.053,-0.075
-0.076,-0.06,0.016,0.068,-0.046,-0.022,0.01,-0.035,-0.06,-0.045,-0.05,-0.075
-0.065,-0.061,0.004,0.063,-0.034,-0.028,0.009,-0.036,-0.06,-0.041,-0.05,-0.075
-0.076,-0.065,0.011,0.071,-0.043,-0.027,0.021,-0.042,-0.06,-0.04,-0.05,-0.075
-0.084,-0.065,0.019,0.074,-0.051,-0.023,0.026,-0.051,-0.07,-0.04,-0.05,-0.075
-0.08,-0.065,0.015,0.072,-0.047,-0.025,0.02,-0.05,-0.077,-0.041,-0.05,-0.076
-0.082,-0.067,0.015,0.074,-0.049,-0.026,0.018,-0.051,-0.079,-0.052,-0.061,-0.09
-0.079,-0.065,0.014,0.072,-0.046,-0.025,0.013,-0.061,-0.082,-0.056,-0.067,-0.096
-0.074,-0.065,0.009,0.069,-0.041,-0.027,0.01,-0.055,-0.085,-0.054,-0.063,-0.094
-0.077,-0.065,0.012,0.071,-0.044,-0.026,0.007,-0.067,-0.087,-0.059,-0.069,-0.096
-0.066,-0.065,0.001,0.066,-0.033,-0.032,0.002,-0.091,-0.098,-0.07,-0.077,-0.094
-0.059,-0.065,-0.006,0.062,-0.026,-0.035,-0.001,-0.089,-0.103,-0.079,-0.081,-0.096
-0.072,-0.069,0.003,0.07,-0.037,-0.033,-0.004,-0.09,-0.094,-0.08,-0.078,-0.099
-0.078,-0.074,0.004,0.075,-0.041,-0.035,-0.009,-0.09,-0.109,-0.08,-0.085,-0.1
-0.081,-0.07,0.011,0.075,-0.046,-0.029,-0.009,-0.09,-0.126,-0.084,-0.096,-0.1
-0.083,-0.07,0.013,0.076,-0.048,-0.028,-0.005,-0.092,-0.125,-0.085,-0.091,-0.1
-0.091,-0.07,0.021,0.08,-0.056,-0.024,-0.005,-0.099,-0.125,-0.084,-0.088,-0.1
-0.081,-0.07,0.011,0.075,-0.046,-0.029,-0.003,-0.105,-0.126,-0.08,-0.085,-0.097
-0.069,-0.07,-0.001,0.07,-0.034,-0.035,0.001,-0.1,-0.124,-0.08,-0.079,-0.095
-0.075,-0.066,0.009,0.07,-0.042,-0.028,0.0,-0.1,-0.128,-0.08,-0.086,-0.095
-0.085,-0.065,0.019,0.075,-0.052,-0.023,-0.004,-0.099,-0.141,-0.079,-0.091,-0.095
-0.102,-0.064,0.039,0.083,-0.07,-0.012,-0.014,-0.101,-0.139,-0.081,-0.086,-0.095
-0.094,-0.07,0.024,0.082,-0.059,-0.023,-0.018,-0.099,-0.134,-0.074,-0.083,-0.095
-0.105,-0.081,0.024,0.093,-0.065,-0.028,-0.015,-0.101,-0.134,-0.082,-0.08,-0.099
-0.119,-0.08,0.039,0.099,-0.079,-0.02,-0.015,-0.115,-0.127,-0.102,-0.074,-0.1
-0.11,-0.078,0.033,0.094,-0.071,-0.022,-0.012,-0.11,-0.141,-0.096,-0.08,-0.1
-0.111,-0.076,0.035,0.093,-0.072,-0.02,-0.01,-0.104,-0.156,-0.094,-0.086,-0.1
-0.1,-0.073,0.027,0.086,-0.063,-0.022,-0.01,-0.103,-0.151,-0.09,-0.085,-0.099
-0.114,-0.081,0.033,0.098,-0.073,-0.024,-0.007,-0.094,-0.148,-0.085,-0.085,-0.103
-0.109,-0.093,0.016,0.101,-0.062,-0.038,-0.001,-0.1,-0.145,-0.083,-0.085,-0.105
-0.078,-0.084,-0.006,0.081,-0.036,-0.045,0.004,-0.11,-0.139,-0.071,-0.085,-0.105
-0.102,-0.075,0.028,0.088,-0.065,-0.023,0.007,-0.102,-0.144,-0.082,-0.085,-0.105
-0.106,-0.068,0.039,0.086,-0.072,-0.014,0.013,-0.095,-0.156,-0.1,-0.085,-0.105
-0.094,-0.064,0.03,0.079,-0.061,-0.017,0.014,-0.09,-0.152,-0.092,-0.085,-0.105
-0.098,-0.066,0.033,0.082,-0.065,-0.016,0.01,-0.08,-0.148,-0.085,-0.085,-0.099
-0.084,-0.061,0.023,0.072,-0.054,-0.018,0.007,-0.09,-0.145,-0.081,-0.085,-0.093
-0.088,-0.06,0.028,0.073,-0.058,-0.015,0.005,-0.107,-0.139,-0.07,-0.083,-0.089
-0.075,-0.061,0.015,0.068,-0.045,-0.023,0.001,-0.1,-0.143,-0.08,-0.08,-0.083
-0.056,-0.052,0.004,0.054,-0.03,-0.024,0.001,-0.095,-0.143,-0.096,-0.078,-0.076
-0.093,-0.061,0.032,0.077,-0.062,-0.015,-0.005,-0.093,-0.136,-0.087,-0.075,-0.081
-0.111,-0.068,0.043,0.089,-0.077,-0.012,-0.012,-0.082,-0.13,-0.081,-0.072,-0.085
-0.074,-0.054,0.02,0.063,-0.046,-0.017,-0.001,-0.093,-0.122,-0.074,-0.07,-0.075
-0.054,-0.043,0.01,0.048,-0.032,-0.016,0.015,-0.078,-0.116,-0.067,-0.065,-0.07
-0.08,-0.022,0.058,0.051,-0.069,0.018,0.027,-0.056,-0.11,-0.063,-0.055,-0.062
-0.068,-0.005,0.063,0.036,-0.065,0.029,0.02,-0.073,-0.105,-0.058,-0.044,-0.056
-0.041,0.008,0.049,0.016,-0.045,0.028,0.002,-0.079,-0.105,-0.056,-0.038,-0.059
-0.027,0.033,0.06,-0.003,-0.044,0.046,-0.011,-0.076,-0.097,-0.054,-0.039,-0.06
-0.016,0.033,0.048,-0.009,-0.032,0.04,-0.03,-0.093,-0.108,-0.057,-0.042,-0.061
-0.019,0.016,0.034,0.001,-0.027,0.025,-0.045,-0.125,-0.129,-0.053,-0.038,-0.058
0.017,0.0,-0.016,-0.008,0.017,-0.008,-0.042,-0.128,-0.135,-0.056,-0.042,-0.062
-0.002,-0.034,-0.032,0.018,0.015,-0.033,-0.035,-0.129,-0.136,-0.062,-0.046,-0.058
-0.082,-0.067,0.015,0.074,-0.048,-0.026,-0.02,-0.137,-0.156,-0.087,-0.071,-0.078
-0.113,-0.081,0.031,0.097,-0.071,-0.025,-0.005,-0.13,-0.176,-0.114,-0.108,-0.113
-0.1,-0.116,-0.016,0.108,-0.042,-0.065,-0.004,-0.131,-0.17,-0.105,-0.099,-0.116
-0.103,-0.107,-0.004,0.105,-0.049,-0.055,0.01,-0.119,-0.162,-0.126,-0.1,-0.12
-0.116,-0.118,-0.002,0.117,-0.057,-0.06,0.012,-0.125,-0.155,-0.121,-0.086,-0.108
-0.137,-0.111,0.027,0.124,-0.082,-0.042,0.06,-0.083,-0.146,-0.123,-0.09,-0.13
-0.145,-0.082,0.063,0.113,-0.103,-0.01,0.139,0.065,-0.046,-0.059,-0.077,-0.141
0.013,-0.078,-0.091,0.032,0.052,-0.084,0.099,0.222,0.171,0.167,0.102,-0.002
0.744,0.412,-0.332,-0.577,0.537,0.04,-0.444,-0.053,0.401,0.74,0.86,0.762
1.316,0.793,-0.523,-1.054,0.92,0.134,-1.008,-0.673,0.316,1.095,1.417,1.453
0.613,0.458,-0.156,-0.535,0.384,0.151,-0.589,-0.821,-0.308,0.229,0.486,0.719
-0.143,0.087,0.23,0.028,-0.187,0.158,-0.009,-0.656,-0.721,-0.522,-0.365,-0.137
-0.188,-0.133,0.056,0.161,-0.122,-0.039,0.102,-0.461,-0.517,-0.375,-0.29,-0.201
-0.12,-0.162,-0.042,0.141,-0.038,-0.102,0.105,-0.191,-0.237,-0.193,-0.178,-0.159
-0.046,-0.079,-0.033,0.063,-0.006,-0.056,0.051,-0.029,-0.082,-0.059,-0.072,-0.095
-0.042,-0.073,-0.031,0.058,-0.006,-0.052,0.05,0.044,-0.019,-0.018,-0.043,-0.07
-0.045,-0.065,-0.021,0.055,-0.012,-0.043,0.051,0.064,0.005,-0.001,-0.03,-0.064
-0.024,-0.061,-0.038,0.043,0.007,-0.05,0.044,0.088,0.031,0.024,-0.003,-0.051
-0.011,-0.055,-0.044,0.033,0.017,-0.049,0.047,0.118,0.04,0.024,0.017,-0.041
-0.003,-0.05,-0.047,0.027,0.022,-0.048,0.043,0.134,0.066,0.06,0.041,-0.021
-0.003,-0.045,-0.042,0.024,0.02,-0.044,0.041,0.163,0.093,0.071,0.039,-0.018
0.026,-0.036,-0.062,0.005,0.044,-0.048,0.032,0.196,0.121,0.091,0.059,-0.002
0.053,-0.025,-0.078,-0.014,0.066,-0.051,0.03,0.234,0.151,0.12,0.083,0.022
0.048,-0.012,-0.06,-0.017,0.054,-0.036,0.022,0.281,0.187,0.151,0.114,0.047
0.087,0.009,-0.077,-0.047,0.082,-0.034,0.018,0.34,0.234,0.193,0.145,0.076
0.136,0.039,-0.098,-0.087,0.117,-0.029,0.012,0.405,0.285,0.235,0.182,0.106
0.17,0.062,-0.108,-0.116,0.138,-0.022,0.002,0.481,0.356,0.291,0.233,0.147
0.212,0.079,-0.133,-0.145,0.172,-0.027,-0.005,0.556,0.42,0.349,0.283,0.2
0.252,0.111,-0.142,-0.181,0.197,-0.015,-0.016,0.63,0.481,0.41,0.335,0.239
0.334,0.157,-0.177,-0.245,0.255,-0.01,-0.022,0.698,0.553,0.476,0.399,0.295
0.388,0.182,-0.206,-0.285,0.296,-0.011,-0.036,0.749,0.611,0.535,0.451,0.351
0.412,0.213,-0.199,-0.312,0.305,0.007,-0.05,0.751,0.642,0.571,0.491,0.387
0.441,0.25,-0.191,-0.345,0.316,0.029,-0.044,0.71,0.632,0.579,0.506,0.407
0.402,0.247,-0.155,-0.324,0.279,0.045,-0.037,0.642,0.586,0.553,0.484,0.398
0.322,0.207,-0.115,-0.264,0.218,0.046,-0.033,0.501,0.473,0.455,0.408,0.337
0.227,0.152,-0.075,-0.189,0.151,0.038,-0.026,0.343,0.323,0.323,0.289,0.234
0.122,0.093,-0.029,-0.107,0.075,0.032,-0.008,0.217,0.196,0.205,0.177,0.135
0.062,0.04,-0.022,-0.051,0.042,0.009,0.007,0.123,0.089,0.108,0.086,0.059
0.01,0.001,-0.01,-0.005,0.01,-0.004,0.011,0.045,0.018,0.036,0.022,0.009
-0.05,-0.032,0.018,0.04,-0.034,-0.006,0.017,-0.007,-0.025,-0.012,-0.02,-0.028
-0.086,-0.049,0.038,0.067,-0.062,-0.005,0.022,-0.027,-0.061,-0.036,-0.047,-0.055
-0.088,-0.051,0.037,0.069,-0.062,-0.007,0.028,-0.044,-0.075,-0.054,-0.06,-0.069
-0.093,-0.058,0.036,0.075,-0.064,-0.01,0.028,-0.045,-0.076,-0.061,-0.06,-0.071
-0.107,-0.06,0.047,0.083,-0.077,-0.007,0.024,-0.045,-0.074,-0.059,-0.06,-0.069
-0.097,-0.06,0.037,0.078,-0.067,-0.011,0.025,-0.05,-0.08,-0.06,-0.06,-0.071
-0.096,-0.06,0.036,0.078,-0.066,-0.012,0.025,-0.05,-0.092,-0.06,-0.06,-0.07
-0.089,-0.06,0.029,0.074,-0.059,-0.015,0.025,-0.048,-0.088,-0.06,-0.058,-0.07
-0.087,-0.06,0.027,0.073,-0.057,-0.017,0.025,-0.044,-0.085,-0.06,-0.054,-0.07
-0.078,-0.058,0.019,0.068,-0.048,-0.02,0.025,-0.04,-0.083,-0.06,-0.052,-0.071
-0.069,-0.055,0.014,0.062,-0.041,-0.02,0.025,-0.038,-0.08,-0.06,-0.049,-0.069
-0.092,-0.054,0.038,0.073,-0.064,-0.008,0.025,-0.032,-0.08,-0.06,-0.046,-0.066
-0.091,-0.052,0.04,0.071,-0.066,-0.006,0.025,-0.031,-0.08,-0.06,-0.045,-0.063
-0.078,-0.047,0.031,0.063,-0.055,-0.008,0.025,-0.03,-0.08,-0.062,-0.053,-0.061
-0.094,-0.065,0.029,0.08,-0.061,-0.018,0.025,-0.03,-0.08,-0.065,-0.062,-0.058
-0.102,-0.081,0.021,0.091,-0.061,-0.03,0.026,-0.051,-0.08,-0.068,-0.066,-0.055
-0.089,-0.073,0.016,0.081,-0.052,-0.028,0.024,-0.056,-0.08,-0.07,-0.069,-0.057
-0.1,-0.069,0.031,0.084,-0.066,-0.018,0.034,-0.055,-0.085,-0.074,-0.073,-0.063
-0.104,-0.063,0.041,0.083,-0.072,-0.011,0.041,-0.054,-0.088,-0.075,-0.076,-0.073
-0.088,-0.057,0.031,0.072,-0.059,-0.012,0.035,-0.06,-0.095,-0.078,-0.079,-0.08
-0.085,-0.057,0.028,0.071,-0.056,-0.014,0.033,-0.076,-0.105,-0.082,-0.082,-0.08
-0.084,-0.063,0.022,0.073,-0.053,-0.02,0.028,-0.075,-0.105,-0.087,-0.084,-0.08
-0.08,-0.065,0.014,0.072,-0.046,-0.025,0.025,-0.075,-0.104,-0.09,-0.088,-0.083
-0.097,-0.065,0.032,0.08,-0.064,-0.016,0.029,-0.075,-0.106,-0.09,-0.09,-0.085
-0.116,-0.069,0.047,0.092,-0.081,-0.01,0.03,-0.074,-0.113,-0.093,-0.092,-0.089
-0.115,-0.07,0.044,0.092,-0.079,-0.013,0.03,-0.077,-0.122,-0.096,-0.095,-0.09
-0.115,-0.069,0.045,0.092,-0.08,-0.012,0.035,-0.081,-0.125,-0.093,-0.095,-0.085
-0.11,-0.065,0.045,0.087,-0.077,-0.01,0.035,-0.084,-0.125,-0.1,-0.098,-0.085
-0.11,-0.065,0.045,0.087,-0.077,-0.01,0.036,-0.088,-0.125,-0.111,-0.101,-0.085
-0.106,-0.064,0.042,0.085,-0.073,-0.011,0.04,-0.09,-0.125,-0.108,-0.1,-0.085
-0.097,-0.06,0.037,0.078,-0.067,-0.011,0.04,-0.085,-0.128,-0.105,-0.1,-0.085
-0.094,-0.06,0.035,0.076,-0.064,-0.012,0.04,-0.085,-0.131,-0.103,-0.1,-0.087
-0.093,-0.063,0.03,0.078,-0.061,-0.016,0.04,-0.085,-0.129,-0.099,-0.1,-0.09
-0.091,-0.065,0.026,0.078,-0.058,-0.019,0.04,-0.085,-0.13,-0.103,-0.1,-0.093
-0.091,-0.065,0.026,0.078,-0.058,-0.02,0.04,-0.085,-0.129,-0.105,-0.1,-0.096
-0.095,-0.065,0.031,0.08,-0.062,-0.017,0.04,-0.087,-0.131,-0.105,-0.103,-0.1
-0.095,-0.065,0.03,0.08,-0.062,-0.017,0.04,-0.09,-0.135,-0.105,-0.105,-0.1
-0.094,-0.064,0.03,0.079,-0.061,-0.017,0.04,-0.09,-0.135,-0.105,-0.105,-0.096
-0.103,-0.061,0.042,0.082,-0.072,-0.009,0.04,-0.093,-0.135,-0.104,-0.105,-0.093
-0.104,-0.058,0.046,0.081,-0.075,-0.006,0.039,-0.096,-0.135,-0.1,-0.105,-0.09
-0.096,-0.055,0.041,0.076,-0.068,-0.007,0.035,-0.094,-0.135,-0.1,-0.104,-0.088
-0.092,-0.053,0.04,0.072,-0.066,-0.006,0.035,-0.091,-0.131,-0.1,-0.101,-0.084
-0.084,-0.049,0.035,0.066,-0.06,-0.006,0.035,-0.088,-0.13,-0.1,-0.098,-0.088
-0.089,-0.054,0.035,0.071,-0.062,-0.009,0.035,-0.085,-0.13,-0.1,-0.095,-0.091
-0.101,-0.061,0.04,0.081,-0.07,-0.01,0.035,-0.082,-0.125,-0.1,-0.092,-0.087
-0.099,-0.06,0.039,0.08,-0.069,-0.01,0.031,-0.08,-0.125,-0.1,-0.09,-0.085
-0.101,-0.057,0.044,0.078,-0.072,-0.006,0.026,-0.08,-0.124,-0.1,-0.09,-0.081
-0.099,-0.054,0.045,0.076,-0.072,-0.005,0.021,-0.081,-0.12,-0.1,-0.09,-0.08
-0.099,-0.055,0.044,0.077,-0.071,-0.006,0.018,-0.079,-0.12,-0.101,-0.09,-0.076
-0.109,-0.05,0.059,0.08,-0.084,0.004,0.012,-0.088,-0.118,-0.103,-0.091,-0.069
-0.111,-0.05,0.061,0.081,-0.086,0.005,0.011,-0.09,-0.113,-0.096,-0.09,-0.063
-0.103,-0.048,0.055,0.075,-0.079,0.003,0.02,-0.073,-0.117,-0.09,-0.091,-0.056
-0.077,-0.023,0.054,0.049,-0.065,0.015,0.029,-0.067,-0.101,-0.073,-0.068,-0.049
-0.048,0.001,0.05,0.024,-0.049,0.025,0.042,-0.062,-0.068,-0.057,-0.04,-0.043
-0.04,0.009,0.049,0.016,-0.045,0.028,0.034,-0.061,-0.059,-0.062,-0.04,-0.04
-0.02,0.022,0.042,-0.001,-0.031,0.032,0.008,-0.055,-0.054,-0.064,-0.04,-0.035
-0.006,0.026,0.032,-0.011,-0.019,0.029,-0.004,-0.058,-0.068,-0.068,-0.04,-0.033
-0.014,0.017,0.031,-0.002,-0.023,0.023,-0.008,-0.082,-0.093,-0.071,-0.041,-0.029
-0.01,0.001,0.011,0.004,-0.01,0.006,-0.018,-0.093,-0.088,-0.074,-0.039,-0.024
-0.009,-0.016,-0.007,0.013,0.0,-0.011,-0.021,-0.087,-0.086,-0.079,-0.042,-0.032
-0.031,-0.048,-0.017,0.04,-0.007,-0.032,-0.022,-0.091,-0.119,-0.083,-0.058,-0.05
-0.094,-0.072,0.022,0.083,-0.057,-0.025,-0.004,-0.105,-0.14,-0.11,-0.098,-0.087
-0.125,-0.071,0.055,0.098,-0.09,-0.008,0.004,-0.115,-0.14,-0.109,-0.099,-0.092
-0.134,-0.092,0.043,0.113,-0.088,-0.024,0.013,-0.107,-0.139,-0.11,-0.101,-0.097
-0.15,-0.085,0.065,0.117,-0.107,-0.01,0.036,-0.094,-0.134,-0.112,-0.1,-0.099
-0.132,-0.095,0.037,0.113,-0.084,-0.028,0.033,-0.105,-0.137,-0.106,-0.101,-0.098
-0.152,-0.061,0.092,0.106,-0.122,0.015,0.106,-0.015,-0.092,-0.117,-0.127,-0.138
-0.138,-0.094,0.044,0.116,-0.091,-0.025,0.19,0.176,0.054,-0.002,-0.053,-0.118
0.252,0.093,-0.158,-0.172,0.205,-0.032,-0.043,0.194,0.294,0.363,0.364,0.263
1.111,0.682,-0.429,-0.896,0.77,0.126,-0.75,-0.312,0.45,1.008,1.233,1.208
1.131,0.709,-0.422,-0.92,0.776,0.143,-0.903,-0.791,0.09,0.823,1.127,1.295
0.18,0.293,0.113,-0.236,0.033,0.202,-0.244,-0.726,-0.559,-0.244,-0.021,0.253
-0.216,-0.008,0.208,0.111,-0.212,0.1,0.094,-0.55,-0.666,-0.526,-0.39,-0.203
-0.177,-0.157,0.02,0.167,-0.099,-0.068,0.133,-0.321,-0.362,-0.286,-0.235,-0.159
-0.108,-0.102,0.006,0.105,-0.057,-0.048,0.096,-0.083,-0.147,-0.146,-0.136,-0.12
-0.062,-0.064,-0.002,0.063,-0.029,-0.033,0.057,0.045,-0.019,-0.038,-0.058,-0.063
-0.088,-0.049,0.039,0.068,-0.063,-0.005,0.079,0.08,0.0,-0.021,-0.045,-0.059
-0.059,-0.038,0.022,0.048,-0.04,-0.008,0.06,0.094,0.007,0.011,-0.015,-0.035
-0.055,-0.035,0.02,0.044,-0.037,-0.007,0.069,0.132,0.045,0.024,-0.012,-0.03
-0.029,-0.021,0.007,0.025,-0.018,-0.006,0.063,0.142,0.073,0.051,-0.001,-0.012
-0.021,-0.02,0.001,0.021,-0.011,-0.009,0.061,0.172,0.097,0.069,0.019,0.005
0.001,-0.011,-0.012,0.005,0.007,-0.011,0.057,0.198,0.11,0.075,0.044,0.016
0.029,-0.009,-0.039,-0.01,0.034,-0.024,0.053,0.23,0.138,0.102,0.066,0.035
0.039,-0.004,-0.044,-0.017,0.042,-0.024,0.05,0.281,0.173,0.132,0.097,0.053
0.072,0.013,-0.06,-0.042,0.066,-0.023,0.045,0.331,0.215,0.17,0.126,0.078
0.098,0.034,-0.064,-0.066,0.08,-0.015,0.043,0.395,0.263,0.213,0.157,0.104
0.147,0.055,-0.093,-0.101,0.12,-0.019,0.035,0.462,0.312,0.261,0.203,0.138
0.176,0.073,-0.102,-0.125,0.139,-0.014,0.031,0.532,0.377,0.311,0.248,0.178
0.238,0.105,-0.133,-0.171,0.185,-0.014,0.018,0.619,0.452,0.386,0.307,0.23
0.314,0.14,-0.174,-0.227,0.244,-0.017,0.001,0.69,0.528,0.457,0.366,0.286
0.344,0.17,-0.175,-0.257,0.259,-0.002,-0.015,0.74,0.582,0.505,0.424,0.334
0.405,0.214,-0.191,-0.309,0.297,0.011,-0.029,0.776,0.639,0.562,0.483,0.388
0.425,0.249,-0.176,-0.336,0.3,0.036,-0.052,0.772,0.672,0.592,0.517,0.429
0.418,0.261,-0.157,-0.339,0.287,0.052,-0.06,0.713,0.632,0.579,0.522,0.431
0.369,0.245,-0.124,-0.307,0.246,0.061,-0.044,0.607,0.556,0.523,0.469,0.4
0.265,0.204,-0.062,-0.234,0.163,0.071,-0.032,0.465,0.432,0.404,0.364,0.32
0.181,0.148,-0.032,-0.164,0.106,0.058,-0.013,0.318,0.285,0.271,0.24,0.209
0.063,0.084,0.021,-0.074,0.02,0.052,0.014,0.191,0.157,0.157,0.129,0.114
-0.011,0.036,0.047,-0.012,-0.029,0.041,0.037,0.104,0.06,0.076,0.06,0.045
-0.05,-0.006,0.045,0.028,-0.048,0.02,0.043,0.056,0.01,0.027,0.013,0.011
-0.103,-0.035,0.068,0.069,-0.085,0.016,0.04,0.024,-0.02,-0.004,-0.011,-0.02
-0.098,-0.034,0.064,0.066,-0.081,0.015,0.04,0.006,-0.043,-0.034,-0.035,-0.047
-0.1,-0.037,0.064,0.068,-0.081,0.013,0.04,0.0,-0.07,-0.055,-0.059,-0.055
-0.117,-0.057,0.06,0.087,-0.089,0.002,0.039,-0.004,-0.084,-0.055,-0.06,-0.061
-0.12,-0.061,0.059,0.09,-0.09,-0.001,0.042,-0.013,-0.083,-0.056,-0.06,-0.059
-0.121,-0.06,0.061,0.09,-0.091,0.001,0.055,-0.013,-0.081,-0.053,-0.06,-0.06
-0.124,-0.065,0.059,0.094,-0.091,-0.002,0.053,-0.031,-0.08,-0.063,-0.06,-0.06
-0.126,-0.065,0.061,0.096,-0.093,-0.002,0.049,-0.044,-0.078,-0.081,-0.059,-0.06
-0.119,-0.064,0.055,0.091,-0.086,-0.004,0.046,-0.023,-0.075,-0.072,-0.055,-0.057
-0.11,-0.058,0.052,0.084,-0.081,-0.003,0.041,-0.019,-0.075,-0.066,-0.053,-0.054
-0.099,-0.051,0.049,0.075,-0.074,-0.001,0.039,-0.018,-0.072,-0.06,-0.05,-0.056
-0.089,-0.044,0.044,0.066,-0.066,0.0,0.035,-0.013,-0.069,-0.051,-0.047,-0.054
-0.079,-0.038,0.041,0.058,-0.06,0.001,0.033,-0.012,-0.066,-0.054,-0.044,-0.056
-0.067,-0.03,0.037,0.049,-0.052,0.003,0.03,-0.009,-0.064,-0.062,-0.05,-0.053
-0.071,-0.038,0.034,0.054,-0.052,-0.002,0.026,-0.023,-0.06,-0.066,-0.056,-0.05
-0.066,-0.04,0.026,0.053,-0.046,-0.007,0.025,-0.036,-0.062,-0.069,-0.055,-0.05
-0.067,-0.042,0.025,0.054,-0.046,-0.008,0.021,-0.034,-0.072,-0.074,-0.055,-0.048
-0.071,-0.055,0.017,0.063,-0.044,-0.019,0.02,-0.036,-0.071,-0.076,-0.055,-0.045
-0.074,-0.056,0.019,0.064,-0.046,-0.018,0.02,-0.034,-0.069,-0.08,-0.054,-0.045
-0.109,-0.054,0.055,0.081,-0.081,0.0,0.02,-0.039,-0.08,-0.083,-0.061,-0.055
-0.113,-0.051,0.062,0.082,-0.088,0.006,0.02,-0.062,-0.092,-0.086,-0.065,-0.061
-0.108,-0.049,0.058,0.078,-0.083,0.005,0.021,-0.066,-0.097,-0.095,-0.076,-0.065
-0.112,-0.051,0.061,0.081,-0.086,0.005,0.025,-0.064,-0.101,-0.101,-0.087,-0.071
-0.109,-0.05,0.059,0.079,-0.084,0.005,0.025,-0.066,-0.105,-0.1,-0.084,-0.07
-0.11,-0.05,0.059,0.08,-0.085,0.004,0.025,-0.064,-0.109,-0.1,-0.085,-0.07
-0.103,-0.05,0.053,0.076,-0.078,0.001,0.025,-0.066,-0.11,-0.1,-0.085,-0.07
-0.099,-0.05,0.049,0.074,-0.074,-0.001,0.025,-0.064,-0.109,-0.1,-0.085,-0.069
-0.095,-0.05,0.045,0.072,-0.07,-0.002,0.025,-0.067,-0.113,-0.103,-0.088,-0.074
-0.09,-0.05,0.04,0.07,-0.065,-0.005,0.025,-0.079,-0.115,-0.105,-0.091,-0.081
-0.085,-0.05,0.035,0.067,-0.06,-0.007,0.025,-0.081,-0.115,-0.105,-0.089,-0.077
-0.093,-0.05,0.044,0.071,-0.068,-0.003,0.025,-0.079,-0.119,-0.105,-0.085,-0.073
-0.109,-0.05,0.058,0.079,-0.083,0.003,0.025,-0.076,-0.12,-0.105,-0.085,-0.07
-0.102,-0.05,0.052,0.075,-0.077,0.001,0.024,-0.075,-0.12,-0.106,-0.083,-0.064
-0.105,-0.049,0.055,0.077,-0.08,0.003,0.019,-0.074,-0.12,-0.11,-0.079,-0.068
-0.112,-0.044,0.068,0.078,-0.089,0.011,0.014,-0.07,-0.12,-0.106,-0.08,-0.072
-0.1,-0.042,0.058,0.071,-0.079,0.007,0.009,-0.07,-0.12,-0.105,-0.083,-0.07
-0.089,-0.038,0.051,0.063,-0.07,0.006,0.006,-0.07,-0.12,-0.105,-0.088,-0.07
-0.081,-0.035,0.046,0.058,-0.063,0.005,-0.001,-0.07,-0.12,-0.1,-0.09,-0.07
-0.092,-0.05,0.042,0.071,-0.066,-0.004,0.013,-0.07,-0.117,-0.1,-0.09,-0.07
-0.09,-0.057,0.033,0.073,-0.061,-0.012,0.028,-0.074,-0.115,-0.1,-0.09,-0.07
-0.087,-0.054,0.034,0.07,-0.06,-0.01,0.022,-0.075,-0.115,-0.1,-0.09,-0.065
-0.114,-0.056,0.058,0.085,-0.085,0.001,0.02,-0.077,-0.115,-0.1,-0.09,-0.065
-0.115,-0.054,0.061,0.085,-0.088,0.003,0.016,-0.081,-0.115,-0.1,-0.09,-0.065
-0.11,-0.056,0.054,0.082,-0.082,-0.001,0.011,-0.078,-0.115,-0.1,-0.094,-0.065
-0.114,-0.059,0.055,0.086,-0.084,-0.002,0.011,-0.075,-0.119,-0.101,-0.095,-0.065
-0.109,-0.06,0.049,0.085,-0.079,-0.005,0.015,-0.073,-0.121,-0.098,-0.095,-0.065
-0.108,-0.06,0.048,0.084,-0.078,-0.006,0.016,-0.069,-0.117,-0.105,-0.099,-0.066
-0.119,-0.06,0.06,0.089,-0.09,0.0,0.014,-0.067,-0.111,-0.114,-0.1,-0.065
-0.129,-0.061,0.068,0.094,-0.098,0.003,0.017,-0.063,-0.106,-0.105,-0.099,-0.065
-0.12,-0.058,0.063,0.089,-0.091,0.002,0.013,-0.074,-0.102,-0.097,-0.091,-0.066
-0.11,-0.048,0.062,0.079,-0.086,0.007,0.019,-0.078,-0.094,-0.09,-0.084,-0.065
-0.096,-0.037,0.058,0.067,-0.077,0.01,0.025,-0.066,-0.091,-0.081,-0.077,-0.065
-0.079,-0.019,0.06,0.049,-0.069,0.02,0.038,-0.062,-0.082,-0.073,-0.071,-0.06
-0.075,0.005,0.08,0.034,-0.078,0.043,0.037,-0.052,-0.073,-0.064,-0.067,-0.05
-0.054,0.028,0.082,0.013,-0.068,0.055,0.008,-0.053,-0.059,-0.056,-0.063,-0.04
-0.03,0.043,0.073,-0.007,-0.052,0.058,0.001,-0.053,-0.036,-0.05,-0.059,-0.034
-0.033,0.036,0.069,-0.001,-0.051,0.052,-0.016,-0.066,-0.06,-0.047,-0.053,-0.035
-0.039,0.025,0.064,0.007,-0.052,0.044,-0.035,-0.09,-0.084,-0.045,-0.053,-0.035
-0.017,0.013,0.03,0.002,-0.024,0.021,-0.036,-0.091,-0.073,-0.038,-0.04,-0.035
0.003,-0.001,-0.004,-0.001,0.003,-0.002,-0.024,-0.092,-0.081,-0.049,-0.038,-0.035
-0.025,-0.029,-0.004,0.028,-0.01,-0.017,-0.016,-0.097,-0.108,-0.078,-0.065,-0.047
-0.096,-0.071,0.025,0.083,-0.061,-0.023,-0.005,-0.091,-0.13,-0.114,-0.108,-0.085
-0.112,-0.089,0.023,0.1,-0.067,-0.033,0.0,-0.091,-0.129,-0.119,-0.112,-0.083
-0.097,-0.093,0.004,0.095,-0.05,-0.044,0.006,-0.086,-0.128,-0.121,-0.117,-0.087
-0.106,-0.085,0.021,0.095,-0.063,-0.032,0.021,-0.081,-0.121,-0.125,-0.116,-0.091
-0.109,-0.098,0.012,0.103,-0.061,-0.043,0.024,-0.086,-0.124,-0.123,-0.109,-0.086
-0.144,-0.079,0.065,0.111,-0.104,-0.007,0.096,0.001,-0.08,-0.11,-0.138,-0.131
-0.097,-0.113,-0.016,0.105,-0.04,-0.064,0.186,0.231,0.12,0.039,-0.045,-0.104
0.289,0.107,-0.182,-0.198,0.235,-0.037,-0.052,0.249,0.364,0.432,0.418,0.332
1.056,0.695,-0.361,-0.875,0.708,0.167,-0.742,-0.278,0.507,1.117,1.357,1.341
0.996,0.721,-0.276,-0.858,0.636,0.222,-0.83,-0.665,0.165,0.895,1.194,1.365
0.097,0.269,0.172,-0.183,-0.038,0.22,-0.158,-0.549,-0.49,-0.223,-0.057,0.215
-0.207,-0.025,0.183,0.116,-0.195,0.079,0.147,-0.39,-0.594,-0.49,-0.391,-0.2
-0.182,-0.155,0.027,0.168,-0.104,-0.064,0.161,-0.241,-0.338,-0.283,-0.25,-0.131
-0.107,-0.106,0.002,0.107,-0.054,-0.052,0.128,-0.082,-0.15,-0.154,-0.161,-0.105
-0.024,-0.056,-0.032,0.04,0.004,-0.044,0.075,0.037,-0.011,-0.025,-0.052,-0.034
-0.051,-0.061,-0.01,0.056,-0.02,-0.036,0.095,0.085,0.027,-0.003,-0.038,-0.042
-0.033,-0.054,-0.02,0.044,-0.006,-0.037,0.091,0.096,0.044,0.03,-0.01,-0.021
-0.042,-0.053,-0.011,0.048,-0.015,-0.032,0.089,0.112,0.061,0.027,-0.016,-0.016
-0.027,-0.036,-0.008,0.031,-0.01,-0.022,0.083,0.125,0.084,0.047,0.003,-0.002
0.0,-0.024,-0.024,0.012,0.012,-0.024,0.079,0.149,0.099,0.059,0.022,0.014
0.028,-0.013,-0.041,-0.008,0.035,-0.027,0.075,0.177,0.13,0.088,0.049,0.031
0.03,-0.008,-0.038,-0.011,0.035,-0.023,0.069,0.21,0.167,0.123,0.07,0.054
0.03,0.003,-0.026,-0.016,0.028,-0.011,0.063,0.259,0.2,0.146,0.099,0.082
0.062,0.012,-0.051,-0.037,0.056,-0.019,0.055,0.309,0.249,0.19,0.129,0.105
0.115,0.024,-0.09,-0.069,0.102,-0.033,0.05,0.356,0.292,0.231,0.159,0.13
0.166,0.061,-0.104,-0.113,0.135,-0.021,0.041,0.425,0.351,0.284,0.213,0.168
0.183,0.08,-0.102,-0.131,0.142,-0.011,0.026,0.493,0.42,0.34,0.261,0.21
0.237,0.108,-0.129,-0.172,0.183,-0.01,0.014,0.565,0.499,0.416,0.327,0.263
0.282,0.132,-0.15,-0.207,0.216,-0.009,-0.002,0.625,0.564,0.478,0.381,0.31
0.318,0.161,-0.157,-0.239,0.237,0.002,-0.014,0.678,0.629,0.541,0.44,0.367
0.38,0.208,-0.173,-0.294,0.276,0.018,-0.031,0.722,0.68,0.607,0.508,0.422
0.404,0.24,-0.163,-0.322,0.283,0.038,-0.052,0.711,0.678,0.62,0.528,0.459
0.393,0.25,-0.143,-0.321,0.268,0.053,-0.049,0.647,0.657,0.605,0.525,0.461
0.318,0.224,-0.094,-0.271,0.206,0.065,-0.04,0.542,0.567,0.541,0.474,0.427
0.234,0.185,-0.049,-0.209,0.141,0.068,-0.028,0.405,0.425,0.419,0.371,0.347
0.153,0.127,-0.026,-0.139,0.089,0.05,0.01,0.273,0.291,0.289,0.236,0.221
0.054,0.065,0.011,-0.06,0.022,0.038,0.043,0.171,0.163,0.171,0.123,0.13
0.001,0.026,0.025,-0.014,-0.012,0.025,0.05,0.092,0.064,0.078,0.051,0.061
-0.038,-0.009,0.029,0.024,-0.034,0.01,0.057,0.043,0.004,0.014,-0.007,0.005
-0.053,-0.025,0.028,0.039,-0.04,0.001,0.063,0.01,-0.032,-0.021,-0.04,-0.025
-0.059,-0.034,0.025,0.046,-0.042,-0.004,0.059,-0.007,-0.056,-0.048,-0.066,-0.041
-0.066,-0.045,0.021,0.056,-0.043,-0.012,0.056,-0.016,-0.061,-0.057,-0.071,-0.041
-0.071,-0.049,0.022,0.06,-0.047,-0.014,0.053,-0.034,-0.066,-0.054,-0.069,-0.045
-0.095,-0.051,0.044,0.073,-0.07,-0.003,0.05,-0.041,-0.071,-0.059,-0.074,-0.045
-0.093,-0.051,0.042,0.072,-0.068,-0.004,0.051,-0.04,-0.069,-0.06,-0.075,-0.045
-0.082,-0.047,0.035,0.064,-0.059,-0.006,0.06,-0.038,-0.07,-0.059,-0.075,-0.045
-0.079,-0.045,0.034,0.062,-0.056,-0.005,0.062,-0.035,-0.07,-0.056,-0.07,-0.045
-0.067,-0.041,0.026,0.054,-0.046,-0.007,0.06,-0.035,-0.07,-0.055,-0.07,-0.045
-0.067,-0.04,0.028,0.053,-0.048,-0.005,0.06,-0.035,-0.07,-0.055,-0.07,-0.045
-0.077,-0.044,0.033,0.06,-0.055,-0.005,0.055,-0.035,-0.07,-0.055,-0.07,-0.05
-0.085,-0.045,0.04,0.065,-0.062,-0.003,0.055,-0.035,-0.07,-0.055,-0.07,-0.051
-0.09,-0.045,0.045,0.067,-0.067,0.0,0.055,-0.035,-0.07,-0.058,-0.072,-0.05
-0.091,-0.045,0.046,0.067,-0.068,0.0,0.055,-0.035,-0.07,-0.06,-0.076,-0.051
-0.088,-0.046,0.043,0.067,-0.065,-0.001,0.055,-0.036,-0.073,-0.06,-0.078,-0.049
-0.084,-0.043,0.041,0.064,-0.062,-0.001,0.055,-0.04,-0.076,-0.06,-0.081,-0.053
-0.079,-0.04,0.039,0.06,-0.059,-0.001,0.055,-0.04,-0.078,-0.06,-0.084,-0.058
-0.08,-0.04,0.04,0.06,-0.06,0.001,0.055,-0.039,-0.081,-0.071,-0.085,-0.061
-0.093,-0.04,0.053,0.066,-0.073,0.006,0.051,-0.05,-0.073,-0.081,-0.085,-0.066
-0.091,-0.04,0.051,0.065,-0.071,0.006,0.05,-0.064,-0.084,-0.083,-0.084,-0.057
-0.084,-0.04,0.044,0.061,-0.064,0.002,0.05,-0.067,-0.097,-0.088,-0.091,-0.066
-0.085,-0.045,0.04,0.065,-0.063,-0.002,0.045,-0.076,-0.094,-0.094,-0.101,-0.082
-0.074,-0.042,0.032,0.057,-0.052,-0.004,0.046,-0.082,-0.11,-0.1,-0.103,-0.079
-0.068,-0.034,0.033,0.051,-0.05,0.0,0.043,-0.08,-0.117,-0.107,-0.107,-0.08
-0.071,-0.026,0.045,0.048,-0.058,0.009,0.04,-0.08,-0.114,-0.106,-0.11,-0.08
-0.086,-0.041,0.045,0.063,-0.065,0.002,0.037,-0.078,-0.116,-0.105,-0.114,-0.08
-0.111,-0.066,0.044,0.088,-0.077,-0.011,0.035,-0.074,-0.114,-0.104,-0.115,-0.083
-0.11,-0.064,0.046,0.087,-0.078,-0.009,0.032,-0.075,-0.116,-0.1,-0.115,-0.088
-0.1,-0.061,0.039,0.08,-0.069,-0.011,0.029,-0.093,-0.12,-0.1,-0.119,-0.089
-0.11,-0.059,0.052,0.084,-0.081,-0.003,0.05,-0.102,-0.128,-0.1,-0.121,-0.085
-0.121,-0.055,0.067,0.088,-0.093,0.005,0.056,-0.099,-0.128,-0.114,-0.118,-0.085
-0.107,-0.054,0.053,0.08,-0.079,-0.001,0.048,-0.101,-0.124,-0.121,-0.115,-0.083
-0.103,-0.049,0.053,0.076,-0.078,0.002,0.048,-0.1,-0.126,-0.114,-0.11,-0.079
-0.089,-0.046,0.043,0.067,-0.066,-0.001,0.041,-0.1,-0.124,-0.113,-0.108,-0.08
-0.082,-0.043,0.04,0.062,-0.061,-0.001,0.041,-0.096,-0.126,-0.106,-0.103,-0.084
-0.105,-0.038,0.067,0.072,-0.086,0.014,0.033,-0.094,-0.124,-0.105,-0.1,-0.085
-0.084,-0.035,0.048,0.059,-0.066,0.006,0.037,-0.096,-0.121,-0.11,-0.108,-0.078
-0.081,-0.038,0.044,0.059,-0.062,0.003,0.062,-0.094,-0.118,-0.11,-0.111,-0.075
-0.109,-0.05,0.059,0.079,-0.084,0.005,0.065,-0.096,-0.115,-0.113,-0.11,-0.07
-0.111,-0.061,0.05,0.086,-0.08,-0.005,0.059,-0.091,-0.113,-0.116,-0.108,-0.064
-0.102,-0.055,0.048,0.079,-0.075,-0.003,0.057,-0.092,-0.108,-0.112,-0.104,-0.076
-0.113,-0.05,0.063,0.081,-0.088,0.007,0.052,-0.109,-0.116,-0.11,-0.105,-0.086
-0.11,-0.047,0.063,0.079,-0.086,0.007,0.05,-0.11,-0.121,-0.11,-0.108,-0.087
-0.083,-0.039,0.044,0.061,-0.063,0.002,0.065,-0.105,-0.12,-0.107,-0.116,-0.09
-0.109,-0.051,0.058,0.08,-0.084,0.004,0.072,-0.104,-0.119,-0.104,-0.119,-0.086
-0.124,-0.062,0.062,0.093,-0.093,0.0,0.065,-0.1,-0.114,-0.105,-0.113,-0.084
-0.131,-0.056,0.075,0.093,-0.103,0.009,0.065,-0.099,-0.116,-0.111,-0.109,-0.081
-0.117,-0.055,0.061,0.086,-0.089,0.003,0.06,-0.094,-0.112,-0.112,-0.105,-0.078
-0.073,-0.051,0.021,0.062,-0.047,-0.015,0.061,-0.092,-0.104,-0.108,-0.101,-0.076
-0.099,-0.05,0.049,0.074,-0.074,-0.001,0.053,-0.088,-0.095,-0.106,-0.096,-0.074
-0.104,-0.039,0.064,0.071,-0.084,0.012,0.052,-0.085,-0.088,-0.099,-0.091,-0.068
-0.09,-0.007,0.084,0.048,-0.087,0.038,0.078,-0.084,-0.08,-0.077,-0.085,-0.065
-0.102,0.009,0.111,0.046,-0.107,0.06,0.075,-0.086,-0.077,-0.061,-0.078,-0.06
-0.075,0.024,0.099,0.025,-0.087,0.061,0.059,-0.084,-0.095,-0.056,-0.077,-0.057
-0.051,0.045,0.096,0.002,-0.073,0.07,0.049,-0.086,-0.092,-0.04,-0.079,-0.054
-0.061,0.041,0.102,0.01,-0.082,0.071,0.037,-0.103,-0.091,-0.058,-0.084,-0.055
-0.032,0.027,0.059,0.002,-0.046,0.043,0.035,-0.106,-0.112,-0.082,-0.084,-0.054
-0.012,0.025,0.036,-0.007,-0.025,0.03,0.036,-0.104,-0.123,-0.079,-0.089,-0.027
-0.042,0.018,0.059,0.012,-0.051,0.038,0.033,-0.106,-0.116,-0.072,-0.091,-0.035
-0.081,-0.04,0.041,0.06,-0.06,0.0,0.052,-0.104,-0.122,-0.093,-0.097,-0.077
-0.105,-0.06,0.046,0.082,-0.075,-0.007,0.071,-0.117,-0.163,-0.141,-0.136,-0.096
-0.091,-0.06,0.031,0.075,-0.061,-0.014,0.064,-0.116,-0.158,-0.138,-0.136,-0.088
-0.094,-0.064,0.03,0.079,-0.062,-0.016,0.078,-0.105,-0.148,-0.141,-0.147,-0.095
-0.096,-0.064,0.032,0.08,-0.064,-0.016,0.069,-0.104,-0.137,-0.133,-0.132,-0.077
-0.163,-0.093,0.07,0.128,-0.116,-0.012,0.093,-0.081,-0.11,-0.135,-0.148,-0.116
-0.181,-0.092,0.089,0.137,-0.135,-0.001,0.179,0.045,-0.036,-0.099,-0.154,-0.171
-0.015,-0.084,-0.069,0.05,0.027,-0.076,0.2,0.272,0.207,0.153,0.065,-0.03
0.562,0.39,-0.172,-0.475,0.367,0.109,-0.265,0.074,0.499,0.799,0.886,0.787
1.072,0.843,-0.229,-0.957,0.65,0.307,-0.849,-0.47,0.498,1.311,1.638,1.651
0.489,0.485,-0.005,-0.487,0.246,0.24,-0.49,-0.597,-0.121,0.462,0.691,0.888
-0.155,0.087,0.241,0.034,-0.198,0.163,0.07,-0.44,-0.64,-0.517,-0.402,-0.148
-0.197,-0.088,0.109,0.142,-0.153,0.01,0.203,-0.295,-0.496,-0.422,-0.347,-0.202
-0.197,-0.164,0.033,0.181,-0.115,-0.065,0.218,-0.164,-0.262,-0.238,-0.236,-0.175
-0.106,-0.077,0.03,0.092,-0.068,-0.023,0.118,-0.055,-0.094,-0.107,-0.117,-0.111
-0.07,-0.042,0.028,0.056,-0.048,-0.007,0.091,0.029,0.005,-0.025,-0.049,-0.063
-0.063,-0.037,0.026,0.05,-0.045,-0.005,0.082,0.049,0.024,-0.024,-0.042,-0.054
-0.041,-0.023,0.018,0.032,-0.029,-0.002,0.071,0.062,0.043,0.009,-0.013,-0.035
-0.038,-0.018,0.02,0.028,-0.029,0.001,0.071,0.074,0.049,0.018,-0.017,-0.033
-0.018,-0.007,0.011,0.012,-0.014,0.001,0.057,0.094,0.077,0.05,0.012,-0.003
-0.014,-0.002,0.012,0.008,-0.013,0.005,0.058,0.126,0.102,0.067,0.034,0.009
0.006,0.01,0.004,-0.008,0.001,0.007,0.048,0.154,0.132,0.094,0.055,0.029
0.019,0.015,-0.004,-0.017,0.011,0.005,0.051,0.188,0.165,0.125,0.079,0.053
0.037,0.021,-0.016,-0.029,0.026,0.002,0.048,0.228,0.206,0.158,0.116,0.078
0.059,0.037,-0.023,-0.048,0.041,0.007,0.045,0.279,0.259,0.207,0.148,0.107
0.105,0.063,-0.042,-0.083,0.073,0.011,0.046,0.334,0.313,0.255,0.187,0.139
0.164,0.091,-0.073,-0.127,0.118,0.009,0.041,0.389,0.374,0.308,0.239,0.177
0.179,0.102,-0.077,-0.14,0.128,0.012,0.025,0.466,0.453,0.38,0.292,0.222
0.224,0.14,-0.083,-0.182,0.153,0.028,0.009,0.531,0.527,0.453,0.365,0.291
0.28,0.177,-0.103,-0.228,0.191,0.037,-0.006,0.59,0.599,0.523,0.428,0.349
0.321,0.196,-0.125,-0.259,0.223,0.035,-0.02,0.637,0.665,0.588,0.488,0.4
0.351,0.241,-0.11,-0.296,0.23,0.065,-0.03,0.642,0.696,0.641,0.547,0.458
0.329,0.261,-0.068,-0.295,0.198,0.096,-0.041,0.609,0.683,0.647,0.549,0.465
0.315,0.252,-0.063,-0.283,0.188,0.094,-0.033,0.539,0.615,0.595,0.518,0.446
0.258,0.244,-0.014,-0.251,0.136,0.115,-0.019,0.428,0.504,0.498,0.442,0.393
0.163,0.192,0.029,-0.178,0.067,0.11,-0.008,0.291,0.347,0.349,0.305,0.277
0.089,0.127,0.038,-0.108,0.025,0.082,0.012,0.182,0.201,0.209,0.175,0.166
0.015,0.084,0.069,-0.049,-0.028,0.076,0.037,0.089,0.093,0.109,0.082,0.085
-0.036,0.035,0.072,0.001,-0.054,0.053,0.046,0.028,0.006,0.031,0.016,0.026
-0.057,0.011,0.068,0.023,-0.063,0.039,0.044,-0.008,-0.034,-0.02,-0.032,-0.016
-0.06,0.007,0.067,0.026,-0.064,0.037,0.049,-0.042,-0.068,-0.044,-0.065,-0.048
-0.071,-0.008,0.063,0.039,-0.067,0.027,0.05,-0.052,-0.083,-0.06,-0.071,-0.059
-0.087,-0.021,0.067,0.053,-0.077,0.023,0.051,-0.063,-0.079,-0.07,-0.069,-0.06
-0.103,-0.021,0.082,0.061,-0.093,0.03,0.061,-0.067,-0.085,-0.074,-0.074,-0.06
-0.104,-0.019,0.084,0.061,-0.094,0.032,0.063,-0.064,-0.085,-0.09,-0.075,-0.06
-0.095,-0.017,0.078,0.056,-0.086,0.03,0.059,-0.061,-0.085,-0.087,-0.075,-0.06
-0.09,-0.014,0.076,0.052,-0.083,0.031,0.057,-0.06,-0.083,-0.08,-0.075,-0.06
-0.086,-0.016,0.071,0.051,-0.078,0.027,0.054,-0.059,-0.079,-0.079,-0.075,-0.06
-0.1,-0.031,0.069,0.066,-0.085,0.019,0.051,-0.055,-0.081,-0.071,-0.075,-0.06
-0.095,-0.036,0.059,0.065,-0.077,0.011,0.049,-0.053,-0.08,-0.071,-0.075,-0.06
-0.081,-0.028,0.053,0.054,-0.067,0.012,0.046,-0.049,-0.08,-0.075,-0.075,-0.06
-0.065,-0.024,0.04,0.044,-0.052,0.008,0.045,-0.048,-0.08,-0.075,-0.075,-0.06
-0.08,-0.018,0.062,0.049,-0.071,0.022,0.045,-0.043,-0.08,-0.075,-0.075,-0.064
-0.094,-0.012,0.082,0.052,-0.088,0.035,0.045,-0.057,-0.08,-0.075,-0.075,-0.065
-0.07,-0.012,0.058,0.041,-0.064,0.022,0.045,-0.072,-0.081,-0.075,-0.074,-0.066
-0.084,-0.017,0.066,0.05,-0.075,0.025,0.045,-0.07,-0.09,-0.081,-0.069,-0.069
-0.092,-0.022,0.069,0.057,-0.08,0.023,0.045,-0.07,-0.098,-0.077,-0.07,-0.07
-0.082,-0.024,0.058,0.053,-0.07,0.017,0.045,-0.071,-0.095,-0.086,-0.078,-0.069
-0.082,-0.021,0.061,0.051,-0.071,0.019,0.045,-0.069,-0.089,-0.101,-0.081,-0.064
-0.067,-0.018,0.049,0.042,-0.058,0.015,0.045,-0.074,-0.103,-0.101,-0.098,-0.075
-0.073,-0.015,0.057,0.044,-0.064,0.021,0.045,-0.081,-0.122,-0.104,-0.107,-0.082
-0.097,-0.013,0.084,0.055,-0.09,0.035,0.045,-0.07,-0.127,-0.109,-0.103,-0.087
-0.09,-0.008,0.083,0.049,-0.087,0.037,0.045,-0.08,-0.13,-0.12,-0.106,-0.1
-0.096,-0.021,0.075,0.059,-0.086,0.027,0.045,-0.092,-0.13,-0.12,-0.104,-0.1
-0.111,-0.037,0.074,0.073,-0.092,0.018,0.045,-0.088,-0.13,-0.119,-0.105,-0.099
-0.1,-0.034,0.066,0.067,-0.083,0.016,0.045,-0.105,-0.13,-0.123,-0.109,-0.095
-0.103,-0.037,0.066,0.07,-0.084,0.014,0.043,-0.111,-0.13,-0.125,-0.111,-0.095
-0.12,-0.041,0.079,0.081,-0.099,0.019,0.038,-0.109,-0.129,-0.125,-0.11,-0.094
-0.116,-0.039,0.077,0.077,-0.097,0.019,0.035,-0.111,-0.133,-0.125,-0.108,-0.09
-0.111,-0.041,0.07,0.076,-0.091,0.015,0.032,-0.11,-0.146,-0.125,-0.105,-0.088
-0.108,-0.039,0.069,0.073,-0.088,0.014,0.027,-0.11,-0.145,-0.125,-0.104,-0.084
-0.1,-0.039,0.061,0.069,-0.08,0.01,0.024,-0.105,-0.141,-0.125,-0.112,-0.093
-0.113,-0.05,0.062,0.081,-0.087,0.006,0.021,-0.105,-0.139,-0.125,-0.121,-0.096
-0.098,-0.033,0.065,0.065,-0.082,0.016,0.016,-0.104,-0.135,-0.125,-0.122,-0.095
-0.087,-0.022,0.065,0.054,-0.076,0.022,0.013,-0.099,-0.135,-0.125,-0.125,-0.093
-0.09,-0.027,0.064,0.058,-0.076,0.018,0.01,-0.1,-0.135,-0.124,-0.128,-0.089
-0.085,-0.025,0.06,0.055,-0.072,0.017,0.005,-0.099,-0.135,-0.128,-0.13,-0.09
-0.091,-0.031,0.06,0.061,-0.076,0.015,0.008,-0.101,-0.135,-0.13,-0.13,-0.099
-0.087,-0.029,0.058,0.058,-0.072,0.014,0.01,-0.099,-0.135,-0.13,-0.13,-0.106
-0.087,-0.033,0.055,0.059,-0.07,0.011,0.011,-0.102,-0.136,-0.13,-0.13,-0.104
-0.087,-0.036,0.052,0.061,-0.069,0.008,0.015,-0.115,-0.132,-0.13,-0.128,-0.105
-0.084,-0.034,0.049,0.059,-0.066,0.007,0.015,-0.115,-0.13,-0.129,-0.125,-0.105
-0.081,-0.035,0.045,0.058,-0.063,0.005,0.015,-0.111,-0.13,-0.125,-0.125,-0.105
-0.08,-0.035,0.045,0.057,-0.062,0.005,0.015,-0.108,-0.13,-0.125,-0.125,-0.105
-0.084,-0.035,0.049,0.059,-0.066,0.007,0.015,-0.105,-0.129,-0.125,-0.125,-0.105
-0.083,-0.03,0.053,0.056,-0.068,0.011,0.015,-0.104,-0.131,-0.125,-0.125,-0.105
-0.086,-0.027,0.059,0.056,-0.072,0.016,0.014,-0.1,-0.14,-0.125,-0.122,-0.105
-0.088,-0.024,0.065,0.056,-0.076,0.021,0.018,-0.1,-0.137,-0.123,-0.119,-0.105
-0.087,-0.019,0.067,0.053,-0.077,0.024,0.02,-0.1,-0.131,-0.116,-0.117,-0.104
-0.087,-0.016,0.071,0.052,-0.078,0.027,0.02,-0.1,-0.127,-0.11,-0.113,-0.097
-0.087,-0.012,0.076,0.049,-0.081,0.032,0.02,-0.1,-0.119,-0.102,-0.111,-0.089
-0.078,-0.008,0.071,0.043,-0.074,0.031,0.019,-0.103,-0.115,-0.096,-0.108,-0.083
-0.065,0.016,0.081,0.025,-0.073,0.048,0.021,-0.106,-0.11,-0.09,-0.096,-0.075
-0.052,0.038,0.089,0.007,-0.071,0.063,0.0,-0.105,-0.104,-0.085,-0.08,-0.064
-0.035,0.047,0.082,-0.006,-0.059,0.065,-0.026,-0.11,-0.103,-0.087,-0.075,-0.058
-0.019,0.056,0.075,-0.019,-0.048,0.065,-0.035,-0.109,-0.093,-0.094,-0.074,-0.059
-0.028,0.045,0.073,-0.009,-0.051,0.059,-0.038,-0.114,-0.11,-0.1,-0.076,-0.06
-0.017,0.039,0.055,-0.011,-0.036,0.047,-0.037,-0.13,-0.137,-0.094,-0.075,-0.062
0.01,0.027,0.016,-0.019,-0.003,0.021,-0.033,-0.13,-0.139,-0.083,-0.074,-0.066
-0.019,0.001,0.02,0.009,-0.02,0.01,-0.03,-0.131,-0.143,-0.089,-0.079,-0.064
-0.062,-0.029,0.033,0.046,-0.047,0.001,-0.028,-0.136,-0.149,-0.119,-0.103,-0.08
-0.098,-0.043,0.055,0.07,-0.076,0.006,-0.016,-0.134,-0.166,-0.149,-0.137,-0.111
-0.111,-0.063,0.047,0.087,-0.079,-0.008,-0.01,-0.134,-0.163,-0.14,-0.129,-0.105
-0.119,-0.059,0.06,0.088,-0.09,0.001,0.006,-0.123,-0.16,-0.151,-0.143,-0.116
-0.116,-0.058,0.057,0.087,-0.086,0.0,0.005,-0.117,-0.157,-0.135,-0.126,-0.103
-0.126,-0.066,0.06,0.096,-0.093,-0.003,0.029,-0.104,-0.152,-0.144,-0.15,-0.127
-0.149,-0.048,0.101,0.099,-0.125,0.026,0.115,0.016,-0.083,-0.132,-0.164,-0.17
-0.034,-0.069,-0.036,0.052,0.001,-0.053,0.13,0.218,0.16,0.098,0.03,-0.046
0.551,0.375,-0.176,-0.463,0.364,0.1,-0.343,0.041,0.476,0.767,0.843,0.721
1.168,0.863,-0.305,-1.015,0.737,0.278,-0.96,-0.531,0.494,1.372,1.677,1.649
0.672,0.561,-0.111,-0.617,0.391,0.225,-0.663,-0.753,-0.147,0.511,0.785,1.006
-0.103,0.116,0.219,-0.007,-0.161,0.167,-0.062,-0.592,-0.705,-0.548,-0.383,-0.088
-0.191,-0.088,0.103,0.14,-0.147,0.007,0.09,-0.402,-0.55,-0.459,-0.368,-0.194
-0.151,-0.137,0.014,0.144,-0.082,-0.062,0.086,-0.192,-0.254,-0.239,-0.217,-0.141
-0.106,-0.065,0.041,0.085,-0.073,-0.012,0.043,-0.036,-0.077,-0.093,-0.119,-0.091
-0.067,-0.03,0.037,0.049,-0.052,0.003,0.048,0.033,-0.01,-0.037,-0.069,-0.066
-0.068,-0.032,0.036,0.05,-0.052,0.002,0.048,0.047,0.008,-0.038,-0.054,-0.069
-0.054,-0.027,0.027,0.04,-0.04,0.0,0.041,0.065,0.038,-0.006,-0.032,-0.044
-0.041,-0.013,0.027,0.027,-0.034,0.007,0.043,0.093,0.056,-0.006,-0.027,-0.041
-0.025,-0.007,0.019,0.016,-0.022,0.006,0.035,0.104,0.081,0.034,0.0,-0.015
-0.011,0.006,0.018,0.002,-0.015,0.012,0.037,0.143,0.104,0.058,0.017,-0.005
-0.002,0.008,0.01,-0.003,-0.006,0.009,0.032,0.173,0.14,0.084,0.043,0.018
0.012,0.02,0.008,-0.016,0.001,0.014,0.03,0.201,0.174,0.11,0.064,0.038
0.034,0.036,0.002,-0.035,0.016,0.019,0.027,0.254,0.219,0.146,0.095,0.058
0.045,0.043,-0.002,-0.044,0.023,0.02,0.024,0.305,0.266,0.188,0.128,0.085
0.088,0.066,-0.022,-0.077,0.055,0.022,0.021,0.368,0.325,0.236,0.167,0.114
0.134,0.079,-0.056,-0.106,0.095,0.011,0.019,0.444,0.393,0.295,0.215,0.154
0.178,0.121,-0.056,-0.149,0.117,0.032,0.015,0.522,0.469,0.365,0.278,0.207
0.243,0.161,-0.082,-0.202,0.163,0.039,0.008,0.603,0.555,0.442,0.349,0.265
0.281,0.181,-0.1,-0.231,0.19,0.041,0.0,0.677,0.63,0.512,0.414,0.323
0.308,0.218,-0.09,-0.263,0.199,0.064,-0.003,0.723,0.698,0.587,0.478,0.381
0.364,0.257,-0.107,-0.31,0.235,0.075,-0.029,0.739,0.737,0.626,0.534,0.435
0.374,0.273,-0.101,-0.323,0.237,0.085,-0.053,0.693,0.712,0.625,0.54,0.452
0.327,0.264,-0.063,-0.296,0.195,0.1,-0.045,0.608,0.648,0.593,0.508,0.432
0.284,0.256,-0.028,-0.27,0.156,0.114,-0.043,0.488,0.531,0.494,0.443,0.38
0.209,0.201,-0.008,-0.205,0.108,0.097,-0.037,0.324,0.36,0.344,0.309,0.275
0.101,0.131,0.029,-0.116,0.036,0.08,-0.01,0.194,0.211,0.204,0.174,0.158
0.023,0.071,0.048,-0.048,-0.013,0.06,0.023,0.098,0.086,0.097,0.079,0.068
-0.028,0.03,0.058,-0.001,-0.043,0.044,0.04,0.024,0.021,0.014,0.008,0.008
-0.076,0.008,0.084,0.034,-0.08,0.046,0.038,-0.017,-0.022,-0.042,-0.042,-0.036
-0.099,-0.022,0.077,0.061,-0.088,0.027,0.032,-0.048,-0.066,-0.074,-0.07,-0.065
-0.106,-0.032,0.074,0.068,-0.09,0.02,0.028,-0.056,-0.081,-0.083,-0.074,-0.071
-0.103,-0.029,0.074,0.066,-0.088,0.022,0.021,-0.053,-0.099,-0.084,-0.083,-0.069
-0.094,-0.028,0.065,0.061,-0.079,0.018,0.015,-0.066,-0.096,-0.093,-0.091,-0.078
-0.103,-0.024,0.079,0.063,-0.091,0.027,0.029,-0.076,-0.094,-0.095,-0.089,-0.083
-0.118,-0.026,0.092,0.071,-0.105,0.033,0.037,-0.068,-0.096,-0.095,-0.09,-0.079
-0.106,-0.022,0.085,0.064,-0.095,0.031,0.034,-0.065,-0.089,-0.095,-0.09,-0.081
-0.094,-0.019,0.076,0.057,-0.085,0.028,0.033,-0.06,-0.091,-0.095,-0.09,-0.076
-0.11,-0.038,0.072,0.074,-0.091,0.016,0.029,-0.054,-0.088,-0.095,-0.09,-0.075
-0.107,-0.05,0.057,0.078,-0.082,0.003,0.031,-0.064,-0.085,-0.093,-0.09,-0.074
-0.109,-0.04,0.069,0.074,-0.088,0.014,0.026,-0.072,-0.085,-0.089,-0.09,-0.071
-0.12,-0.034,0.086,0.077,-0.102,0.026,0.02,-0.067,-0.085,-0.09,-0.09,-0.069
-0.098,-0.028,0.069,0.063,-0.083,0.02,0.015,-0.065,-0.085,-0.09,-0.091,-0.065
-0.097,-0.019,0.078,0.058,-0.087,0.029,0.009,-0.062,-0.085,-0.089,-0.089,-0.064
-0.1,-0.026,0.074,0.063,-0.087,0.023,0.003,-0.058,-0.086,-0.112,-0.088,-0.057
-0.083,-0.037,0.046,0.06,-0.064,0.004,0.001,-0.069,-0.084,-0.122,-0.083,-0.074
-0.092,-0.032,0.06,0.062,-0.075,0.014,0.014,-0.081,-0.087,-0.119,-0.09,-0.092
-0.104,-0.03,0.074,0.066,-0.089,0.022,0.015,-0.08,-0.094,-0.124,-0.094,-0.089
-0.095,-0.027,0.068,0.061,-0.081,0.021,0.0,-0.078,-0.097,-0.125,-0.1,-0.09
-0.084,-0.023,0.06,0.053,-0.072,0.018,-0.008,-0.09,-0.104,-0.125,-0.116,-0.09
-0.092,-0.033,0.059,0.062,-0.075,0.013,-0.001,-0.102,-0.107,-0.119,-0.113,-0.09
-0.088,-0.041,0.047,0.064,-0.067,0.003,0.008,-0.099,-0.114,-0.131,-0.125,-0.094
-0.093,-0.04,0.053,0.066,-0.073,0.006,0.017,-0.1,-0.131,-0.142,-0.137,-0.101
-0.123,-0.04,0.083,0.081,-0.103,0.021,0.033,-0.1,-0.136,-0.139,-0.134,-0.107
-0.116,-0.04,0.075,0.078,-0.096,0.017,0.034,-0.099,-0.134,-0.141,-0.135,-0.11
-0.118,-0.039,0.079,0.079,-0.099,0.019,0.027,-0.105,-0.132,-0.139,-0.135,-0.11
-0.112,-0.042,0.071,0.077,-0.091,0.014,0.024,-0.11,-0.129,-0.14,-0.135,-0.11
-0.096,-0.045,0.051,0.07,-0.073,0.003,0.018,-0.11,-0.131,-0.14,-0.131,-0.11
-0.101,-0.048,0.053,0.074,-0.077,0.003,0.015,-0.11,-0.134,-0.141,-0.129,-0.11
-0.093,-0.05,0.043,0.071,-0.068,-0.003,0.01,-0.11,-0.138,-0.149,-0.126,-0.11
-0.112,-0.053,0.059,0.082,-0.085,0.003,0.005,-0.11,-0.14,-0.15,-0.123,-0.11
-0.127,-0.056,0.072,0.092,-0.099,0.008,0.001,-0.11,-0.14,-0.15,-0.12,-0.11
-0.116,-0.051,0.065,0.083,-0.09,0.006,-0.004,-0.11,-0.14,-0.154,-0.121,-0.11
-0.113,-0.05,0.063,0.081,-0.088,0.006,-0.009,-0.11,-0.14,-0.156,-0.134,-0.109
-0.109,-0.05,0.059,0.079,-0.084,0.005,-0.008,-0.11,-0.14,-0.153,-0.135,-0.111
-0.098,-0.045,0.053,0.071,-0.075,0.004,-0.003,-0.11,-0.14,-0.15,-0.137,-0.115
-0.108,-0.045,0.063,0.076,-0.085,0.009,0.0,-0.11,-0.14,-0.15,-0.141,-0.115
-0.121,-0.045,0.076,0.083,-0.098,0.016,0.004,-0.107,-0.14,-0.15,-0.14,-0.115
-0.115,-0.045,0.07,0.08,-0.092,0.012,0.008,-0.104,-0.14,-0.15,-0.14,-0.115
-0.112,-0.045,0.067,0.078,-0.089,0.011,0.011,-0.101,-0.14,-0.15,-0.14,-0.115
-0.109,-0.045,0.064,0.077,-0.086,0.01,0.015,-0.098,-0.138,-0.153,-0.14,-0.111
-0.103,-0.045,0.057,0.074,-0.079,0.006,0.015,-0.095,-0.134,-0.155,-0.14,-0.109
-0.115,-0.045,0.071,0.08,-0.092,0.013,0.016,-0.095,-0.135,-0.155,-0.14,-0.11
-0.13,-0.049,0.081,0.089,-0.105,0.016,0.02,-0.106,-0.135,-0.155,-0.136,-0.109
-0.125,-0.05,0.075,0.087,-0.1,0.012,0.021,-0.111,-0.135,-0.155,-0.134,-0.111
-0.123,-0.05,0.073,0.086,-0.098,0.011,0.017,-0.11,-0.134,-0.154,-0.135,-0.108
-0.123,-0.055,0.068,0.088,-0.095,0.007,0.015,-0.108,-0.13,-0.15,-0.135,-0.105
-0.121,-0.055,0.065,0.087,-0.092,0.005,0.015,-0.105,-0.13,-0.15,-0.135,-0.102
-0.121,-0.053,0.068,0.087,-0.094,0.007,0.015,-0.105,-0.129,-0.148,-0.133,-0.099
-0.124,-0.05,0.073,0.087,-0.098,0.011,0.015,-0.102,-0.125,-0.144,-0.13,-0.097
-0.121,-0.047,0.074,0.084,-0.097,0.013,0.015,-0.099,-0.125,-0.146,-0.13,-0.093
-0.115,-0.045,0.07,0.08,-0.092,0.012,0.034,-0.096,-0.128,-0.141,-0.13,-0.103
-0.112,-0.041,0.07,0.076,-0.091,0.014,0.042,-0.093,-0.123,-0.135,-0.13,-0.107
-0.111,-0.041,0.07,0.076,-0.09,0.015,0.039,-0.09,-0.112,-0.128,-0.131,-0.096
-0.099,-0.029,0.07,0.064,-0.085,0.021,0.041,-0.088,-0.102,-0.12,-0.119,-0.088
-0.067,0.002,0.069,0.033,-0.068,0.036,0.039,-0.085,-0.097,-0.114,-0.096,-0.079
-0.067,0.016,0.083,0.025,-0.075,0.049,0.042,-0.084,-0.1,-0.105,-0.089,-0.073
-0.074,0.022,0.096,0.026,-0.085,0.058,0.015,-0.081,-0.101,-0.099,-0.086,-0.069
-0.044,0.045,0.089,0.0,-0.067,0.066,-0.017,-0.078,-0.105,-0.092,-0.082,-0.064
-0.045,0.041,0.086,0.002,-0.066,0.063,-0.028,-0.094,-0.106,-0.101,-0.079,-0.06
-0.038,0.029,0.067,0.004,-0.053,0.048,-0.034,-0.105,-0.104,-0.115,-0.074,-0.055
0.009,0.017,0.009,-0.013,0.0,0.013,-0.037,-0.1,-0.107,-0.115,-0.083,-0.055
-0.001,-0.004,-0.003,0.003,0.001,-0.003,-0.028,-0.089,-0.102,-0.114,-0.085,-0.068
-0.047,-0.03,0.016,0.039,-0.032,-0.007,-0.005,-0.107,-0.121,-0.126,-0.103,-0.088
-0.099,-0.054,0.044,0.076,-0.071,-0.005,0.014,-0.12,-0.155,-0.174,-0.15,-0.116
-0.125,-0.063,0.062,0.094,-0.093,0.0,0.015,-0.111,-0.152,-0.173,-0.137,-0.114
-0.132,-0.076,0.056,0.104,-0.094,-0.01,0.023,-0.109,-0.143,-0.169,-0.142,-0.119
-0.134,-0.067,0.068,0.101,-0.101,0.001,0.03,-0.098,-0.139,-0.17,-0.135,-0.124
-0.129,-0.082,0.047,0.106,-0.088,-0.018,0.027,-0.103,-0.129,-0.156,-0.132,-0.12
-0.163,-0.055,0.109,0.109,-0.136,0.027,0.093,-0.044,-0.098,-0.171,-0.179,-0.165
-0.141,-0.091,0.05,0.116,-0.096,-0.02,0.171,0.145,0.049,-0.047,-0.101,-0.151
0.261,0.13,-0.131,-0.196,0.196,0.0,-0.087,0.159,0.335,0.388,0.387,0.287
1.07,0.73,-0.34,-0.9,0.704,0.195,-0.796,-0.368,0.519,1.142,1.382,1.314
1.04,0.713,-0.326,-0.876,0.683,0.193,-0.913,-0.824,0.106,0.88,1.215,1.361
0.142,0.255,0.113,-0.198,0.014,0.184,-0.269,-0.738,-0.609,-0.32,-0.097,0.216
-0.217,-0.039,0.178,0.128,-0.197,0.07,0.062,-0.558,-0.683,-0.58,-0.455,-0.238
-0.197,-0.158,0.04,0.177,-0.118,-0.059,0.099,-0.313,-0.332,-0.314,-0.255,-0.171
-0.158,-0.091,0.067,0.124,-0.112,-0.012,0.077,-0.068,-0.107,-0.163,-0.162,-0.13
-0.102,-0.056,0.047,0.078,-0.074,-0.004,0.048,0.024,-0.011,-0.065,-0.094,-0.077
-0.111,-0.051,0.06,0.08,-0.085,0.005,0.062,0.063,0.007,-0.058,-0.083,-0.088
-0.091,-0.039,0.052,0.064,-0.071,0.006,0.051,0.076,0.038,-0.031,-0.06,-0.067
-0.078,-0.033,0.045,0.056,-0.061,0.005,0.055,0.098,0.06,-0.032,-0.057,-0.061
-0.059,-0.022,0.037,0.04,-0.048,0.007,0.048,0.125,0.077,-0.002,-0.027,-0.043
-0.036,-0.015,0.02,0.025,-0.028,0.002,0.05,0.151,0.102,0.017,-0.001,-0.029
-0.029,-0.006,0.024,0.017,-0.026,0.009,0.047,0.179,0.127,0.036,0.015,-0.017
-0.023,0.002,0.025,0.01,-0.024,0.013,0.04,0.22,0.161,0.073,0.034,0.003
-0.001,0.012,0.014,-0.006,-0.008,0.013,0.038,0.266,0.202,0.103,0.071,0.035
0.033,0.021,-0.012,-0.027,0.022,0.004,0.032,0.309,0.247,0.142,0.099,0.067
0.082,0.043,-0.039,-0.062,0.06,0.002,0.028,0.373,0.305,0.184,0.133,0.092
0.119,0.072,-0.047,-0.095,0.083,0.012,0.023,0.45,0.367,0.236,0.179,0.124
0.146,0.094,-0.053,-0.12,0.099,0.02,0.015,0.529,0.439,0.296,0.229,0.166
0.185,0.114,-0.07,-0.15,0.127,0.022,0.006,0.606,0.514,0.361,0.286,0.215
0.233,0.153,-0.08,-0.193,0.156,0.037,-0.002,0.681,0.587,0.434,0.351,0.271
0.282,0.195,-0.087,-0.238,0.184,0.054,-0.012,0.749,0.662,0.505,0.415,0.332
0.323,0.228,-0.096,-0.275,0.209,0.066,-0.022,0.782,0.706,0.557,0.472,0.379
0.361,0.264,-0.097,-0.312,0.229,0.084,-0.037,0.761,0.717,0.585,0.516,0.429
0.357,0.278,-0.08,-0.317,0.218,0.099,-0.048,0.699,0.68,0.569,0.505,0.438
0.304,0.26,-0.044,-0.282,0.174,0.108,-0.04,0.582,0.581,0.499,0.45,0.393
0.225,0.219,-0.006,-0.222,0.115,0.106,-0.03,0.421,0.437,0.379,0.348,0.315
0.133,0.15,0.017,-0.142,0.058,0.084,-0.014,0.274,0.289,0.24,0.218,0.198
0.049,0.085,0.037,-0.068,0.006,0.061,0.008,0.152,0.159,0.119,0.107,0.095
-0.015,0.042,0.057,-0.014,-0.036,0.049,0.019,0.076,0.061,0.022,0.024,0.033
-0.054,0.009,0.063,0.022,-0.059,0.036,0.027,0.025,0.008,-0.035,-0.038,-0.017
-0.078,-0.012,0.066,0.045,-0.071,0.026,0.027,-0.016,-0.028,-0.066,-0.066,-0.05
-0.098,-0.033,0.065,0.065,-0.081,0.016,0.025,-0.035,-0.062,-0.091,-0.083,-0.063
-0.104,-0.041,0.062,0.072,-0.083,0.01,0.025,-0.049,-0.071,-0.095,-0.097,-0.071
-0.099,-0.039,0.06,0.069,-0.079,0.01,0.02,-0.054,-0.069,-0.101,-0.094,-0.077
-0.1,-0.04,0.06,0.07,-0.08,0.01,0.02,-0.055,-0.073,-0.106,-0.095,-0.084
-0.096,-0.04,0.057,0.068,-0.076,0.008,0.021,-0.055,-0.075,-0.104,-0.095,-0.085
-0.094,-0.04,0.054,0.066,-0.074,0.007,0.025,-0.055,-0.075,-0.105,-0.099,-0.086
-0.099,-0.044,0.055,0.071,-0.077,0.005,0.025,-0.056,-0.071,-0.105,-0.1,-0.089
-0.095,-0.045,0.05,0.07,-0.072,0.002,0.025,-0.052,-0.07,-0.105,-0.1,-0.091
-0.096,-0.045,0.05,0.071,-0.073,0.002,0.025,-0.05,-0.07,-0.109,-0.105,-0.088
-0.098,-0.05,0.049,0.074,-0.073,0.0,0.025,-0.05,-0.066,-0.11,-0.105,-0.085
-0.095,-0.05,0.044,0.072,-0.07,-0.002,0.029,-0.047,-0.065,-0.11,-0.105,-0.083
-0.091,-0.05,0.041,0.07,-0.066,-0.005,0.03,-0.045,-0.067,-0.115,-0.105,-0.08
-0.088,-0.05,0.038,0.069,-0.063,-0.006,0.03,-0.046,-0.07,-0.115,-0.105,-0.077
-0.084,-0.05,0.034,0.066,-0.059,-0.008,0.03,-0.06,-0.07,-0.116,-0.105,-0.074
-0.079,-0.05,0.029,0.065,-0.054,-0.011,0.031,-0.067,-0.072,-0.12,-0.105,-0.079
-0.09,-0.05,0.04,0.07,-0.065,-0.005,0.035,-0.068,-0.076,-0.12,-0.105,-0.086
-0.096,-0.05,0.046,0.073,-0.071,-0.001,0.035,-0.073,-0.074,-0.12,-0.108,-0.091
-0.094,-0.05,0.044,0.072,-0.069,-0.002,0.039,-0.075,-0.08,-0.124,-0.114,-0.095
-0.099,-0.05,0.049,0.074,-0.074,-0.001,0.041,-0.08,-0.09,-0.131,-0.117,-0.095
-0.1,-0.05,0.051,0.075,-0.076,0.0,0.036,-0.084,-0.095,-0.136,-0.122,-0.097
-0.099,-0.05,0.049,0.075,-0.074,-0.001,0.035,-0.09,-0.095,-0.14,-0.125,-0.1
-0.095,-0.049,0.046,0.072,-0.071,-0.001,0.034,-0.087,-0.095,-0.14,-0.125,-0.1
-0.096,-0.052,0.044,0.073,-0.07,-0.003,0.031,-0.086,-0.095,-0.14,-0.125,-0.1
-0.099,-0.055,0.045,0.077,-0.072,-0.005,0.029,-0.09,-0.095,-0.14,-0.124,-0.1
-0.096,-0.057,0.039,0.077,-0.067,-0.009,0.031,-0.091,-0.094,-0.139,-0.125,-0.1
-0.102,-0.06,0.041,0.081,-0.071,-0.01,0.046,-0.089,-0.097,-0.142,-0.13,-0.1
-0.093,-0.056,0.036,0.074,-0.064,-0.01,0.058,-0.092,-0.101,-0.149,-0.13,-0.099
-0.073,-0.055,0.018,0.063,-0.045,-0.018,0.055,-0.111,-0.1,-0.151,-0.13,-0.101
-0.098,-0.055,0.043,0.077,-0.07,-0.006,0.055,-0.116,-0.099,-0.148,-0.13,-0.105
-0.113,-0.055,0.058,0.083,-0.085,0.002,0.054,-0.114,-0.096,-0.157,-0.129,-0.105
-0.105,-0.055,0.05,0.08,-0.077,-0.002,0.049,-0.12,-0.094,-0.171,-0.133,-0.105
-0.105,-0.056,0.049,0.08,-0.077,-0.003,0.051,-0.12,-0.097,-0.166,-0.135,-0.105
-0.106,-0.062,0.044,0.084,-0.075,-0.009,0.047,-0.119,-0.101,-0.163,-0.135,-0.105
-0.111,-0.069,0.042,0.09,-0.077,-0.013,0.045,-0.115,-0.1,-0.16,-0.135,-0.105
-0.103,-0.07,0.033,0.086,-0.068,-0.019,0.045,-0.113,-0.095,-0.155,-0.135,-0.106
-0.111,-0.07,0.041,0.09,-0.076,-0.014,0.041,-0.11,-0.095,-0.153,-0.135,-0.11
-0.114,-0.07,0.044,0.092,-0.079,-0.013,0.04,-0.106,-0.088,-0.149,-0.13,-0.11
-0.111,-0.07,0.041,0.09,-0.076,-0.014,0.041,-0.105,-0.096,-0.15,-0.13,-0.11
-0.112,-0.07,0.042,0.091,-0.077,-0.014,0.048,-0.101,-0.11,-0.146,-0.129,-0.11
-0.112,-0.069,0.043,0.09,-0.077,-0.012,0.051,-0.1,-0.11,-0.145,-0.124,-0.11
-0.103,-0.065,0.038,0.084,-0.07,-0.013,0.048,-0.1,-0.11,-0.145,-0.126,-0.107
-0.104,-0.062,0.042,0.083,-0.073,-0.01,0.06,-0.1,-0.11,-0.145,-0.122,-0.104
-0.107,-0.06,0.047,0.083,-0.077,-0.006,0.061,-0.1,-0.11,-0.145,-0.119,-0.101
-0.078,-0.056,0.022,0.067,-0.05,-0.017,0.05,-0.101,-0.108,-0.145,-0.12,-0.099
-0.073,-0.055,0.018,0.064,-0.045,-0.018,0.043,-0.105,-0.104,-0.145,-0.12,-0.094
-0.057,-0.051,0.006,0.053,-0.031,-0.022,0.032,-0.105,-0.102,-0.144,-0.12,-0.1
-0.055,-0.051,0.004,0.053,-0.03,-0.024,0.026,-0.105,-0.099,-0.147,-0.119,-0.111
-0.102,-0.063,0.039,0.082,-0.07,-0.011,0.022,-0.105,-0.095,-0.15,-0.124,-0.106
-0.113,-0.068,0.045,0.09,-0.079,-0.012,0.019,-0.102,-0.096,-0.15,-0.13,-0.104
-0.103,-0.069,0.034,0.086,-0.069,-0.017,0.015,-0.099,-0.105,-0.15,-0.13,-0.099
-0.095,-0.065,0.03,0.079,-0.062,-0.017,0.012,-0.097,-0.102,-0.15,-0.13,-0.095
-0.084,-0.062,0.022,0.073,-0.053,-0.02,0.008,-0.093,-0.093,-0.149,-0.13,-0.095
-0.073,-0.058,0.015,0.065,-0.044,-0.021,0.006,-0.091,-0.089,-0.146,-0.131,-0.095
-0.092,-0.056,0.037,0.074,-0.064,-0.009,0.003,-0.088,-0.079,-0.141,-0.126,-0.097
-0.112,-0.048,0.063,0.08,-0.087,0.007,0.017,-0.077,-0.076,-0.138,-0.118,-0.091
-0.098,-0.026,0.072,0.062,-0.085,0.023,0.045,-0.072,-0.067,-0.127,-0.106,-0.08
-0.089,-0.012,0.076,0.05,-0.082,0.032,0.034,-0.077,-0.06,-0.113,-0.09,-0.07
-0.059,0.007,0.065,0.026,-0.062,0.036,0.02,-0.079,-0.052,-0.093,-0.082,-0.066
-0.027,0.026,0.053,0.0,-0.04,0.039,0.015,-0.081,-0.032,-0.071,-0.078,-0.059
-0.033,0.021,0.054,0.005,-0.043,0.037,0.007,-0.099,-0.065,-0.1,-0.085,-0.056
-0.022,0.013,0.035,0.004,-0.029,0.024,0.001,-0.116,-0.097,-0.126,-0.099,-0.047
0.03,0.003,-0.027,-0.016,0.028,-0.012,-0.007,-0.116,-0.096,-0.125,-0.102,-0.048
0.013,-0.023,-0.036,0.005,0.025,-0.029,-0.008,-0.112,-0.098,-0.121,-0.095,-0.067
-0.083,-0.065,0.018,0.074,-0.051,-0.023,-0.003,-0.123,-0.109,-0.139,-0.124,-0.097
-0.119,-0.085,0.033,0.102,-0.076,-0.026,0.01,-0.136,-0.146,-0.189,-0.157,-0.139
-0.112,-0.1,0.012,0.106,-0.062,-0.044,0.01,-0.134,-0.15,-0.185,-0.144,-0.137
-0.13,-0.094,0.036,0.112,-0.082,-0.029,0.029,-0.116,-0.127,-0.184,-0.156,-0.144
-0.086,-0.093,-0.008,0.089,-0.038,-0.05,0.022,-0.121,-0.127,-0.172,-0.143,-0.136
-0.116,-0.1,0.016,0.108,-0.066,-0.042,0.055,-0.095,-0.109,-0.169,-0.159,-0.143
-0.179,-0.085,0.093,0.132,-0.135,0.004,0.153,0.025,-0.032,-0.146,-0.152,-0.173
-0.037,-0.095,-0.058,0.066,0.011,-0.076,0.139,0.205,0.172,0.059,0.015,-0.056
0.605,0.346,-0.259,-0.475,0.432,0.044,-0.34,0.007,0.437,0.636,0.734,0.653
1.264,0.798,-0.466,-1.031,0.865,0.166,-0.961,-0.619,0.409,1.12,1.462,1.487
0.709,0.499,-0.21,-0.604,0.459,0.145,-0.656,-0.815,-0.184,0.346,0.645,0.894
-0.112,0.094,0.206,0.008,-0.159,0.15,-0.041,-0.661,-0.697,-0.574,-0.39,-0.099
-0.198,-0.113,0.085,0.156,-0.141,-0.014,0.116,-0.477,-0.527,-0.47,-0.364,-0.214
-0.122,-0.158,-0.036,0.141,-0.043,-0.097,0.141,-0.203,-0.211,-0.243,-0.22,-0.164
-0.055,-0.072,-0.016,0.064,-0.019,-0.044,0.087,-0.021,-0.04,-0.133,-0.126,-0.101
-0.053,-0.058,-0.005,0.055,-0.023,-0.031,0.077,0.05,0.029,-0.085,-0.089,-0.07
-0.058,-0.053,0.005,0.055,-0.031,-0.024,0.083,0.064,0.038,-0.063,-0.072,-0.069
-0.04,-0.045,-0.005,0.043,-0.017,-0.025,0.076,0.096,0.065,-0.027,-0.042,-0.052
-0.019,-0.043,-0.024,0.031,0.003,-0.033,0.083,0.116,0.079,-0.027,-0.039,-0.056
-0.01,-0.034,-0.024,0.022,0.008,-0.029,0.078,0.133,0.113,-0.005,-0.014,-0.028
-0.004,-0.027,-0.023,0.016,0.01,-0.025,0.077,0.162,0.125,0.014,0.001,-0.01
0.024,-0.017,-0.041,-0.004,0.033,-0.029,0.066,0.194,0.156,0.046,0.029,0.007
0.028,-0.009,-0.037,-0.009,0.032,-0.023,0.061,0.242,0.195,0.074,0.045,0.016
0.044,0.003,-0.041,-0.023,0.043,-0.019,0.054,0.284,0.226,0.105,0.072,0.04
0.079,0.018,-0.06,-0.048,0.069,-0.021,0.043,0.338,0.274,0.138,0.103,0.068
0.11,0.034,-0.076,-0.072,0.092,-0.02,0.049,0.4,0.325,0.18,0.137,0.092
0.129,0.043,-0.086,-0.086,0.107,-0.021,0.063,0.475,0.391,0.239,0.184,0.128
0.181,0.084,-0.097,-0.132,0.139,-0.006,0.053,0.561,0.466,0.306,0.24,0.176
0.246,0.123,-0.122,-0.184,0.184,0.001,0.041,0.638,0.54,0.374,0.303,0.227
0.279,0.14,-0.138,-0.209,0.208,0.001,0.031,0.704,0.602,0.429,0.355,0.277
0.339,0.192,-0.147,-0.265,0.242,0.023,0.018,0.757,0.672,0.496,0.424,0.337
0.383,0.222,-0.161,-0.303,0.272,0.031,0.008,0.771,0.7,0.539,0.471,0.388
0.387,0.239,-0.147,-0.313,0.267,0.046,-0.002,0.733,0.687,0.55,0.486,0.412
0.369,0.251,-0.118,-0.31,0.243,0.066,-0.013,0.661,0.655,0.528,0.474,0.404
0.293,0.223,-0.07,-0.258,0.181,0.077,-0.016,0.531,0.547,0.433,0.397,0.353
0.23,0.186,-0.045,-0.208,0.137,0.07,0.002,0.367,0.393,0.312,0.295,0.263
0.16,0.124,-0.036,-0.142,0.097,0.044,0.024,0.234,0.255,0.177,0.173,0.157
0.065,0.059,-0.006,-0.062,0.035,0.026,0.034,0.129,0.145,0.068,0.067,0.064
0.01,0.012,0.001,-0.011,0.004,0.006,0.044,0.061,0.072,0.005,0.011,0.008
-0.04,-0.02,0.021,0.03,-0.03,0.0,0.051,0.009,0.022,-0.046,-0.041,-0.031
-0.07,-0.033,0.037,0.051,-0.053,0.002,0.05,-0.024,-0.015,-0.08,-0.077,-0.056
-0.082,-0.048,0.034,0.065,-0.058,-0.007,0.05,-0.037,-0.033,-0.106,-0.086,-0.068
-0.092,-0.056,0.036,0.073,-0.063,-0.01,0.05,-0.04,-0.037,-0.111,-0.085,-0.074
-0.09,-0.055,0.034,0.072,-0.061,-0.01,0.05,-0.039,-0.039,-0.109,-0.085,-0.075
-0.09,-0.054,0.036,0.072,-0.062,-0.009,0.047,-0.058,-0.044,-0.111,-0.086,-0.076
-0.083,-0.051,0.033,0.067,-0.058,-0.009,0.044,-0.061,-0.044,-0.109,-0.084,-0.079
-0.077,-0.049,0.028,0.063,-0.052,-0.011,0.041,-0.059,-0.04,-0.111,-0.09,-0.081
-0.074,-0.052,0.022,0.063,-0.048,-0.014,0.039,-0.061,-0.036,-0.107,-0.101,-0.078
-0.076,-0.057,0.019,0.067,-0.047,-0.019,0.033,-0.06,-0.033,-0.105,-0.095,-0.075
-0.069,-0.055,0.013,0.062,-0.041,-0.021,0.041,-0.059,-0.028,-0.105,-0.09,-0.072
-0.065,-0.055,0.01,0.06,-0.037,-0.022,0.058,-0.055,-0.025,-0.105,-0.087,-0.07
-0.081,-0.055,0.026,0.068,-0.053,-0.015,0.055,-0.056,-0.029,-0.105,-0.081,-0.067
-0.087,-0.055,0.033,0.071,-0.06,-0.01,0.051,-0.053,-0.031,-0.105,-0.081,-0.065
-0.083,-0.056,0.027,0.069,-0.054,-0.014,0.049,-0.05,-0.03,-0.11,-0.079,-0.069
-0.078,-0.051,0.027,0.064,-0.052,-0.012,0.045,-0.05,-0.031,-0.109,-0.087,-0.071
-0.072,-0.05,0.021,0.061,-0.047,-0.014,0.045,-0.054,-0.039,-0.111,-0.095,-0.069
-0.07,-0.049,0.021,0.059,-0.045,-0.014,0.05,-0.061,-0.047,-0.108,-0.096,-0.071
-0.071,-0.054,0.017,0.063,-0.044,-0.018,0.055,-0.066,-0.05,-0.115,-0.093,-0.069
-0.08,-0.065,0.014,0.072,-0.046,-0.026,0.055,-0.07,-0.053,-0.122,-0.1,-0.074
-0.099,-0.065,0.034,0.082,-0.066,-0.015,0.055,-0.07,-0.055,-0.117,-0.114,-0.085
-0.106,-0.064,0.042,0.085,-0.073,-0.011,0.055,-0.073,-0.059,-0.125,-0.116,-0.085
-0.101,-0.066,0.035,0.083,-0.067,-0.016,0.055,-0.076,-0.059,-0.124,-0.114,-0.085
-0.093,-0.063,0.03,0.078,-0.061,-0.016,0.055,-0.074,-0.065,-0.136,-0.118,-0.085
-0.098,-0.07,0.028,0.084,-0.062,-0.021,0.055,-0.088,-0.076,-0.152,-0.127,-0.084
-0.1,-0.081,0.019,0.09,-0.059,-0.031,0.055,-0.096,-0.075,-0.149,-0.131,-0.088
-0.102,-0.08,0.023,0.091,-0.063,-0.029,0.055,-0.095,-0.075,-0.149,-0.133,-0.092
-0.119,-0.08,0.039,0.099,-0.079,-0.02,0.055,-0.095,-0.075,-0.145,-0.136,-0.097
-0.116,-0.08,0.036,0.098,-0.076,-0.022,0.055,-0.095,-0.076,-0.143,-0.139,-0.1
-0.11,-0.08,0.029,0.095,-0.069,-0.025,0.051,-0.095,-0.071,-0.15,-0.14,-0.095
-0.104,-0.077,0.027,0.091,-0.065,-0.025,0.046,-0.092,-0.08,-0.16,-0.136,-0.095
-0.093,-0.071,0.022,0.082,-0.058,-0.025,0.044,-0.089,-0.093,-0.16,-0.133,-0.094
-0.072,-0.066,0.006,0.069,-0.039,-0.03,0.039,-0.086,-0.086,-0.158,-0.13,-0.09
-0.066,-0.062,0.005,0.064,-0.035,-0.028,0.036,-0.084,-0.085,-0.155,-0.127,-0.09
-0.066,-0.054,0.013,0.06,-0.039,-0.02,0.032,-0.078,-0.081,-0.155,-0.125,-0.093
-0.08,-0.052,0.028,0.066,-0.054,-0.012,0.026,-0.087,-0.079,-0.153,-0.122,-0.095
-0.106,-0.068,0.038,0.086,-0.072,-0.014,0.021,-0.107,-0.08,-0.149,-0.12,-0.095
-0.104,-0.071,0.033,0.087,-0.069,-0.018,0.016,-0.103,-0.08,-0.151,-0.12,-0.098
-0.105,-0.069,0.036,0.087,-0.071,-0.016,0.01,-0.1,-0.08,-0.149,-0.12,-0.101
-0.105,-0.071,0.034,0.087,-0.07,-0.018,0.005,-0.098,-0.08,-0.151,-0.12,-0.099
-0.105,-0.069,0.036,0.087,-0.07,-0.017,0.012,-0.093,-0.08,-0.148,-0.12,-0.095
-0.102,-0.071,0.031,0.086,-0.066,-0.02,0.019,-0.101,-0.08,-0.153,-0.12,-0.095
-0.096,-0.071,0.025,0.083,-0.06,-0.023,0.027,-0.107,-0.08,-0.166,-0.12,-0.094
-0.088,-0.068,0.02,0.078,-0.054,-0.024,0.04,-0.103,-0.08,-0.161,-0.12,-0.09
-0.08,-0.065,0.015,0.073,-0.047,-0.025,0.035,-0.1,-0.081,-0.158,-0.12,-0.09
-0.07,-0.063,0.007,0.066,-0.038,-0.027,0.03,-0.097,-0.078,-0.155,-0.119,-0.092
-0.068,-0.059,0.009,0.063,-0.039,-0.025,0.027,-0.095,-0.089,-0.149,-0.123,-0.095
-0.104,-0.063,0.04,0.083,-0.072,-0.011,0.02,-0.093,-0.095,-0.153,-0.125,-0.095
-0.114,-0.068,0.047,0.091,-0.08,-0.01,0.022,-0.089,-0.088,-0.155,-0.125,-0.095
-0.103,-0.064,0.039,0.084,-0.071,-0.012,0.025,-0.1,-0.085,-0.155,-0.125,-0.095
-0.101,-0.062,0.039,0.081,-0.07,-0.011,0.025,-0.112,-0.08,-0.155,-0.125,-0.094
-0.091,-0.059,0.032,0.074,-0.062,-0.013,0.025,-0.107,-0.076,-0.155,-0.125,-0.09
-0.088,-0.056,0.031,0.072,-0.059,-0.012,0.025,-0.104,-0.071,-0.155,-0.12,-0.084
-0.083,-0.054,0.029,0.069,-0.055,-0.012,0.025,-0.101,-0.07,-0.148,-0.113,-0.08
-0.08,-0.046,0.033,0.063,-0.056,-0.006,0.03,-0.096,-0.069,-0.138,-0.105,-0.072
-0.079,-0.033,0.046,0.056,-0.063,0.006,0.027,-0.082,-0.058,-0.131,-0.1,-0.068
-0.06,-0.019,0.041,0.039,-0.051,0.011,0.011,-0.067,-0.044,-0.121,-0.09,-0.06
-0.031,0.005,0.036,0.013,-0.033,0.02,-0.001,-0.071,-0.037,-0.12,-0.076,-0.045
0.004,0.036,0.032,-0.021,-0.014,0.033,-0.016,-0.066,-0.03,-0.119,-0.06,-0.043
0.013,0.037,0.023,-0.025,-0.005,0.03,-0.031,-0.084,-0.036,-0.117,-0.069,-0.046
0.0,0.022,0.022,-0.011,-0.012,0.022,-0.037,-0.116,-0.056,-0.114,-0.09,-0.048
-0.006,0.003,0.008,0.001,-0.007,0.005,-0.032,-0.117,-0.055,-0.116,-0.09,-0.051
-0.024,-0.023,0.001,0.024,-0.012,-0.011,-0.022,-0.108,-0.057,-0.131,-0.093,-0.048
-0.058,-0.069,-0.011,0.064,-0.023,-0.04,-0.02,-0.115,-0.088,-0.155,-0.113,-0.073
-0.089,-0.09,-0.001,0.09,-0.044,-0.045,-0.007,-0.126,-0.102,-0.188,-0.147,-0.117
-0.085,-0.089,-0.004,0.087,-0.04,-0.046,-0.009,-0.131,-0.1,-0.188,-0.141,-0.116
-0.094,-0.093,0.001,0.094,-0.048,-0.046,0.004,-0.119,-0.1,-0.193,-0.151,-0.124
-0.094,-0.083,0.01,0.088,-0.052,-0.036,-0.004,-0.12,-0.1,-0.187,-0.147,-0.122
-0.116,-0.105,0.011,0.11,-0.063,-0.047,0.012,-0.114,-0.097,-0.191,-0.152,-0.125
-0.167,-0.08,0.087,0.123,-0.127,0.004,0.106,-0.01,-0.031,-0.163,-0.154,-0.154
-0.09,-0.1,-0.011,0.095,-0.039,-0.055,0.136,0.183,0.148,-0.001,-0.044,-0.1
0.435,0.211,-0.224,-0.322,0.329,-0.006,-0.22,0.112,0.403,0.461,0.523,0.455
1.198,0.741,-0.457,-0.969,0.827,0.141,-0.92,-0.485,0.479,1.073,1.383,1.397
0.903,0.604,-0.299,-0.753,0.601,0.152,-0.82,-0.818,0.005,0.578,0.902,1.122
0.016,0.19,0.175,-0.103,-0.08,0.182,-0.148,-0.677,-0.587,-0.451,-0.25,0.048
-0.214,-0.072,0.142,0.143,-0.178,0.034,0.067,-0.522,-0.558,-0.535,-0.399,-0.218
-0.174,-0.176,-0.003,0.175,-0.085,-0.089,0.098,-0.278,-0.259,-0.3,-0.252,-0.154
-0.108,-0.093,0.015,0.101,-0.061,-0.039,0.048,-0.071,-0.066,-0.165,-0.148,-0.109
-0.083,-0.06,0.022,0.071,-0.052,-0.019,0.023,0.026,0.047,-0.082,-0.077,-0.071
-0.079,-0.061,0.018,0.07,-0.048,-0.021,0.043,0.055,0.058,-0.074,-0.076,-0.077
-0.045,-0.055,-0.009,0.05,-0.017,-0.032,0.027,0.073,0.072,-0.055,-0.048,-0.053
-0.04,-0.052,-0.012,0.046,-0.014,-0.031,0.034,0.109,0.093,-0.035,-0.047,-0.049
-0.01,-0.039,-0.029,0.024,0.01,-0.034,0.024,0.121,0.114,-0.018,-0.02,-0.026
0.001,-0.031,-0.032,0.015,0.017,-0.032,0.026,0.148,0.137,-0.008,-0.003,-0.008
0.005,-0.018,-0.023,0.007,0.014,-0.021,0.021,0.185,0.172,0.033,0.016,0.006
0.025,-0.012,-0.037,-0.007,0.031,-0.024,0.019,0.211,0.197,0.049,0.04,0.022
0.069,0.0,-0.069,-0.034,0.069,-0.035,0.021,0.259,0.235,0.087,0.065,0.046
0.08,0.005,-0.075,-0.042,0.077,-0.035,0.014,0.316,0.288,0.128,0.092,0.073
0.09,0.026,-0.064,-0.058,0.077,-0.019,0.016,0.374,0.333,0.158,0.127,0.106
0.15,0.062,-0.088,-0.105,0.119,-0.013,0.013,0.45,0.4,0.217,0.18,0.144
0.188,0.08,-0.108,-0.134,0.148,-0.014,0.006,0.523,0.465,0.278,0.239,0.192
0.236,0.107,-0.13,-0.171,0.183,-0.011,-0.005,0.6,0.537,0.342,0.294,0.24
0.288,0.131,-0.157,-0.21,0.222,-0.013,-0.015,0.667,0.609,0.404,0.348,0.289
0.34,0.179,-0.161,-0.26,0.251,0.009,-0.025,0.726,0.675,0.473,0.412,0.348
0.4,0.221,-0.179,-0.31,0.289,0.021,-0.056,0.753,0.72,0.527,0.469,0.403
0.403,0.232,-0.171,-0.317,0.287,0.03,-0.07,0.729,0.726,0.536,0.485,0.433
0.37,0.243,-0.127,-0.306,0.248,0.058,-0.057,0.665,0.686,0.52,0.468,0.429
0.331,0.245,-0.085,-0.288,0.207,0.08,-0.052,0.555,0.597,0.461,0.434,0.398
0.251,0.203,-0.048,-0.227,0.149,0.077,-0.038,0.411,0.462,0.341,0.329,0.31
0.153,0.125,-0.028,-0.139,0.09,0.048,-0.014,0.264,0.316,0.212,0.202,0.199
0.083,0.074,-0.009,-0.078,0.046,0.032,0.002,0.149,0.19,0.092,0.098,0.109
0.007,0.03,0.023,-0.018,-0.009,0.026,0.003,0.065,0.105,0.012,0.017,0.038
-0.064,-0.016,0.048,0.039,-0.056,0.016,0.01,0.02,0.05,-0.046,-0.032,-0.006
-0.089,-0.048,0.04,0.068,-0.064,-0.004,0.012,-0.022,0.004,-0.091,-0.07,-0.024
-0.094,-0.057,0.037,0.076,-0.065,-0.01,0.02,-0.057,-0.006,-0.097,-0.084,-0.035
-0.109,-0.05,0.059,0.08,-0.084,0.004,0.039,-0.061,-0.014,-0.115,-0.1,-0.057
-0.102,-0.049,0.053,0.075,-0.078,0.002,0.037,-0.065,-0.022,-0.126,-0.107,-0.067
-0.084,-0.044,0.04,0.064,-0.062,-0.002,0.03,-0.064,-0.03,-0.134,-0.104,-0.062
-0.089,-0.04,0.049,0.065,-0.069,0.004,0.029,-0.06,-0.046,-0.143,-0.106,-0.06
-0.089,-0.043,0.046,0.066,-0.067,0.002,0.021,-0.058,-0.044,-0.135,-0.104,-0.056
-0.101,-0.058,0.043,0.079,-0.071,-0.007,0.022,-0.054,-0.041,-0.135,-0.105,-0.055
-0.112,-0.073,0.039,0.092,-0.075,-0.017,0.025,-0.052,-0.038,-0.131,-0.105,-0.059
-0.102,-0.066,0.036,0.084,-0.069,-0.015,0.026,-0.049,-0.036,-0.129,-0.105,-0.06
-0.085,-0.054,0.031,0.07,-0.058,-0.011,0.029,-0.055,-0.034,-0.126,-0.105,-0.06
-0.073,-0.047,0.026,0.06,-0.049,-0.01,0.031,-0.077,-0.03,-0.124,-0.105,-0.06
-0.088,-0.044,0.044,0.066,-0.066,0.0,0.029,-0.081,-0.03,-0.126,-0.105,-0.06
-0.094,-0.046,0.048,0.07,-0.07,0.001,0.031,-0.079,-0.028,-0.124,-0.107,-0.06
-0.082,-0.044,0.038,0.063,-0.059,-0.003,0.029,-0.081,-0.025,-0.126,-0.111,-0.06
-0.084,-0.047,0.036,0.065,-0.06,-0.005,0.031,-0.079,-0.025,-0.122,-0.109,-0.06
-0.086,-0.059,0.026,0.072,-0.056,-0.016,0.047,-0.08,-0.034,-0.121,-0.111,-0.06
-0.086,-0.06,0.025,0.073,-0.056,-0.017,0.052,-0.065,-0.044,-0.141,-0.11,-0.059
-0.103,-0.055,0.048,0.078,-0.075,-0.004,0.048,-0.074,-0.055,-0.135,-0.111,-0.064
-0.109,-0.055,0.054,0.081,-0.081,0.0,0.047,-0.104,-0.064,-0.144,-0.125,-0.07
-0.086,-0.049,0.037,0.067,-0.062,-0.005,0.044,-0.105,-0.066,-0.172,-0.131,-0.07
-0.093,-0.052,0.041,0.072,-0.067,-0.005,0.045,-0.107,-0.069,-0.169,-0.133,-0.069
-0.092,-0.068,0.024,0.08,-0.057,-0.022,0.057,-0.111,-0.071,-0.17,-0.136,-0.074
-0.095,-0.066,0.029,0.08,-0.062,-0.019,0.058,-0.11,-0.077,-0.17,-0.139,-0.08
-0.105,-0.059,0.046,0.082,-0.075,-0.006,0.05,-0.121,-0.079,-0.17,-0.14,-0.08
-0.07,-0.055,0.015,0.063,-0.042,-0.02,0.049,-0.121,-0.083,-0.17,-0.14,-0.08
-0.091,-0.047,0.044,0.069,-0.067,-0.002,0.042,-0.12,-0.084,-0.17,-0.14,-0.08
-0.107,-0.048,0.059,0.077,-0.082,0.005,0.041,-0.12,-0.088,-0.17,-0.14,-0.08
-0.09,-0.05,0.04,0.07,-0.065,-0.004,0.05,-0.115,-0.1,-0.17,-0.14,-0.082
-0.098,-0.051,0.048,0.074,-0.073,-0.001,0.055,-0.115,-0.092,-0.17,-0.14,-0.087
-0.082,-0.048,0.034,0.065,-0.057,-0.007,0.057,-0.115,-0.086,-0.171,-0.14,-0.09
-0.081,-0.046,0.035,0.063,-0.058,-0.005,0.06,-0.131,-0.079,-0.18,-0.14,-0.085
-0.098,-0.044,0.054,0.07,-0.075,0.005,0.063,-0.146,-0.072,-0.181,-0.14,-0.085
-0.107,-0.05,0.057,0.078,-0.081,0.003,0.066,-0.139,-0.071,-0.176,-0.141,-0.085
-0.106,-0.06,0.046,0.083,-0.076,-0.006,0.061,-0.136,-0.08,-0.175,-0.141,-0.085
-0.101,-0.061,0.04,0.08,-0.07,-0.01,0.06,-0.131,-0.095,-0.17,-0.14,-0.085
-0.094,-0.058,0.037,0.076,-0.065,-0.01,0.06,-0.126,-0.093,-0.17,-0.137,-0.085
-0.066,-0.047,0.018,0.056,-0.042,-0.014,0.06,-0.122,-0.089,-0.166,-0.133,-0.085
-0.102,-0.062,0.04,0.082,-0.071,-0.011,0.06,-0.12,-0.086,-0.164,-0.139,-0.085
-0.143,-0.077,0.066,0.11,-0.104,-0.006,0.061,-0.12,-0.081,-0.166,-0.132,-0.085
-0.113,-0.069,0.044,0.091,-0.079,-0.012,0.065,-0.117,-0.078,-0.157,-0.14,-0.085
-0.109,-0.066,0.043,0.087,-0.075,-0.011,0.07,-0.114,-0.075,-0.164,-0.134,-0.086
-0.096,-0.061,0.035,0.079,-0.066,-0.012,0.067,-0.117,-0.075,-0.159,-0.142,-0.089
-0.087,-0.056,0.031,0.071,-0.059,-0.012,0.064,-0.129,-0.072,-0.18,-0.138,-0.086
-0.082,-0.057,0.025,0.069,-0.053,-0.016,0.066,-0.129,-0.07,-0.17,-0.126,-0.083
-0.085,-0.065,0.021,0.075,-0.053,-0.022,0.064,-0.123,-0.07,-0.169,-0.147,-0.081
-0.114,-0.069,0.045,0.091,-0.08,-0.011,0.066,-0.122,-0.067,-0.172,-0.103,-0.077
-0.108,-0.066,0.042,0.086,-0.075,-0.012,0.062,-0.114,-0.058,-0.145,-0.159,-0.075
-0.112,-0.063,0.049,0.087,-0.08,-0.007,0.061,-0.117,-0.058,-0.196,-0.081,-0.073
-0.1,-0.061,0.04,0.08,-0.07,-0.01,0.058,-0.125,-0.046,0.039,-0.163,-0.065
-0.109,-0.053,0.055,0.081,-0.082,0.001,0.062,-0.114,-0.047,0.102,-0.056,-0.059
-0.083,-0.016,0.067,0.049,-0.075,0.026,0.061,-0.099,-0.034,-0.045,-0.149,-0.052
-0.073,0.006,0.079,0.033,-0.076,0.043,0.05,-0.087,-0.008,0.033,-0.015,-0.046
