0.0,-0.03,-0.029,0.015,0.014,-0.03,-0.055,-0.025,-0.165,-0.139,-0.104,0.024
0.0,-0.024,-0.024,0.013,0.012,-0.024,-0.055,-0.02,-0.153,-0.128,-0.099,0.025
0.006,-0.01,-0.016,0.002,0.012,-0.013,-0.051,-0.008,-0.126,-0.112,-0.091,0.041
0.01,0.001,-0.009,-0.006,0.01,-0.004,-0.05,0.015,-0.093,-0.099,-0.081,0.045
0.028,0.014,-0.014,-0.021,0.021,0.0,-0.045,0.044,-0.056,-0.07,-0.064,0.057
0.058,0.031,-0.027,-0.044,0.042,0.002,-0.045,0.084,-0.015,-0.035,-0.042,0.067
0.074,0.051,-0.024,-0.062,0.049,0.013,-0.038,0.141,0.046,0.005,-0.016,0.082
0.098,0.078,-0.02,-0.088,0.058,0.029,-0.03,0.202,0.113,0.051,0.017,0.112
0.127,0.109,-0.017,-0.118,0.072,0.046,-0.02,0.278,0.198,0.113,0.053,0.137
0.168,0.157,-0.012,-0.162,0.09,0.072,0.012,0.382,0.308,0.193,0.101,0.174
0.227,0.216,-0.01,-0.222,0.118,0.103,0.028,0.5,0.426,0.278,0.16,0.209
0.278,0.276,-0.002,-0.277,0.14,0.137,0.062,0.611,0.542,0.362,0.22,0.252
0.337,0.34,0.004,-0.339,0.166,0.172,0.091,0.725,0.66,0.458,0.287,0.307
0.373,0.393,0.02,-0.383,0.176,0.206,0.094,0.794,0.746,0.537,0.353,0.351
0.365,0.427,0.063,-0.396,0.15,0.245,0.103,0.786,0.747,0.565,0.383,0.376
0.332,0.428,0.096,-0.38,0.118,0.261,0.093,0.688,0.675,0.533,0.361,0.371
0.267,0.376,0.109,-0.322,0.079,0.242,0.083,0.492,0.497,0.404,0.301,0.331
0.177,0.277,0.1,-0.228,0.039,0.188,0.057,0.288,0.276,0.235,0.186,0.249
0.099,0.168,0.068,-0.134,0.015,0.118,0.011,0.124,0.107,0.102,0.075,0.165
0.042,0.086,0.045,-0.064,-0.002,0.065,-0.03,-0.001,-0.025,-0.005,0.007,0.114
-0.005,0.032,0.037,-0.014,-0.021,0.034,-0.059,-0.084,-0.108,-0.081,-0.043,0.075
-0.024,0.007,0.031,0.009,-0.028,0.018,-0.078,-0.126,-0.155,-0.116,-0.075,0.05
-0.023,0.001,0.024,0.011,-0.024,0.012,-0.104,-0.152,-0.183,-0.137,-0.092,0.045
-0.021,-0.003,0.018,0.012,-0.019,0.007,-0.119,-0.178,-0.185,-0.145,-0.1,0.037
-0.021,-0.008,0.012,0.014,-0.016,0.002,-0.122,-0.187,-0.185,-0.145,-0.108,0.031
-0.019,-0.011,0.007,0.015,-0.013,-0.002,-0.125,-0.192,-0.193,-0.143,-0.113,0.024
-0.021,-0.019,0.001,0.02,-0.01,-0.009,-0.127,-0.195,-0.201,-0.14,-0.115,0.02
-0.026,-0.03,-0.004,0.029,-0.011,-0.017,-0.125,-0.19,-0.199,-0.157,-0.115,0.02
-0.03,-0.03,-0.001,0.03,-0.014,-0.015,-0.12,-0.19,-0.202,-0.161,-0.115,0.02
-0.04,-0.029,0.011,0.034,-0.025,-0.009,-0.115,-0.189,-0.206,-0.156,-0.115,0.025
-0.044,-0.026,0.018,0.035,-0.03,-0.004,-0.112,-0.185,-0.205,-0.155,-0.115,0.025
-0.039,-0.024,0.015,0.031,-0.026,-0.005,-0.105,-0.185,-0.209,-0.15,-0.115,0.025
-0.038,-0.027,0.011,0.032,-0.024,-0.008,-0.107,-0.183,-0.214,-0.151,-0.115,0.023
-0.037,-0.029,0.008,0.033,-0.022,-0.011,-0.112,-0.179,-0.218,-0.154,-0.115,0.019
-0.036,-0.033,0.003,0.034,-0.02,-0.014,-0.115,-0.181,-0.222,-0.159,-0.115,0.02
-0.035,-0.035,0.0,0.035,-0.017,-0.017,-0.13,-0.18,-0.23,-0.16,-0.115,0.016
-0.036,-0.039,-0.003,0.038,-0.016,-0.021,-0.136,-0.181,-0.24,-0.161,-0.117,0.015
-0.032,-0.04,-0.008,0.037,-0.012,-0.024,-0.134,-0.203,-0.249,-0.173,-0.121,0.015
-0.029,-0.04,-0.011,0.035,-0.009,-0.026,-0.135,-0.212,-0.25,-0.178,-0.123,0.01
-0.031,-0.045,-0.014,0.038,-0.008,-0.029,-0.135,-0.208,-0.252,-0.181,-0.126,0.01
-0.025,-0.045,-0.019,0.035,-0.002,-0.032,-0.135,-0.211,-0.255,-0.185,-0.129,0.009
-0.028,-0.046,-0.019,0.037,-0.004,-0.032,-0.13,-0.209,-0.255,-0.184,-0.13,0.005
-0.036,-0.05,-0.014,0.043,-0.011,-0.032,-0.125,-0.211,-0.255,-0.188,-0.13,0.005
-0.045,-0.053,-0.008,0.049,-0.018,-0.03,-0.121,-0.214,-0.255,-0.19,-0.13,0.005
-0.05,-0.055,-0.005,0.053,-0.022,-0.03,-0.116,-0.215,-0.255,-0.19,-0.13,0.005
-0.059,-0.059,0.001,0.059,-0.03,-0.029,-0.112,-0.215,-0.255,-0.186,-0.127,0.005
-0.064,-0.06,0.004,0.062,-0.034,-0.028,-0.107,-0.215,-0.255,-0.185,-0.125,0.009
-0.059,-0.057,0.002,0.057,-0.03,-0.027,-0.105,-0.215,-0.258,-0.185,-0.125,0.01
-0.051,-0.054,-0.003,0.053,-0.024,-0.028,-0.105,-0.215,-0.26,-0.185,-0.125,0.01
-0.045,-0.051,-0.006,0.049,-0.02,-0.028,-0.105,-0.215,-0.259,-0.185,-0.125,0.01
-0.063,-0.048,0.015,0.056,-0.039,-0.016,-0.105,-0.215,-0.261,-0.186,-0.125,0.01
-0.052,-0.045,0.007,0.048,-0.029,-0.019,-0.104,-0.215,-0.265,-0.2,-0.13,0.009
-0.05,-0.046,0.004,0.048,-0.027,-0.021,-0.1,-0.215,-0.264,-0.206,-0.13,0.005
-0.057,-0.05,0.007,0.054,-0.032,-0.021,-0.1,-0.215,-0.267,-0.204,-0.131,0.005
-0.057,-0.053,0.004,0.055,-0.03,-0.024,-0.1,-0.215,-0.27,-0.205,-0.135,0.003
-0.086,-0.057,0.028,0.071,-0.057,-0.014,-0.1,-0.215,-0.269,-0.204,-0.135,-0.001
-0.081,-0.059,0.022,0.07,-0.051,-0.018,-0.1,-0.215,-0.274,-0.205,-0.133,0.0
-0.072,-0.064,0.008,0.068,-0.04,-0.028,-0.102,-0.215,-0.272,-0.201,-0.129,0.003
-0.068,-0.064,0.004,0.065,-0.036,-0.03,-0.105,-0.215,-0.267,-0.2,-0.13,0.006
-0.056,-0.06,-0.004,0.059,-0.026,-0.032,-0.108,-0.213,-0.265,-0.2,-0.13,0.004
-0.049,-0.058,-0.008,0.054,-0.02,-0.033,-0.111,-0.207,-0.26,-0.195,-0.13,0.005
-0.042,-0.055,-0.013,0.049,-0.014,-0.034,-0.114,-0.202,-0.258,-0.196,-0.13,0.004
-0.033,-0.063,-0.03,0.049,-0.001,-0.046,-0.115,-0.199,-0.252,-0.193,-0.124,0.006
-0.026,-0.066,-0.04,0.046,0.008,-0.053,-0.11,-0.193,-0.247,-0.189,-0.119,0.012
-0.029,-0.046,-0.018,0.038,-0.005,-0.032,-0.096,-0.19,-0.238,-0.183,-0.112,0.018
-0.013,-0.023,-0.01,0.018,-0.002,-0.016,-0.054,-0.195,-0.233,-0.181,-0.108,0.024
-0.008,-0.016,-0.008,0.012,0.0,-0.012,-0.032,-0.194,-0.224,-0.17,-0.099,0.027
-0.008,0.013,0.021,-0.002,-0.015,0.017,-0.069,-0.197,-0.2,-0.14,-0.077,0.045
0.026,0.062,0.036,-0.044,-0.005,0.049,-0.093,-0.2,-0.204,-0.136,-0.074,0.061
0.025,0.063,0.038,-0.045,-0.006,0.05,-0.098,-0.2,-0.18,-0.119,-0.076,0.061
0.025,0.005,-0.019,-0.015,0.022,-0.007,-0.101,-0.207,-0.216,-0.147,-0.08,0.059
0.03,-0.035,-0.065,0.004,0.047,-0.05,-0.1,-0.228,-0.241,-0.174,-0.082,0.05
-0.014,-0.082,-0.068,0.049,0.027,-0.075,-0.088,-0.217,-0.262,-0.202,-0.12,0.025
-0.033,-0.095,-0.062,0.065,0.014,-0.078,-0.086,-0.213,-0.29,-0.227,-0.143,0.017
-0.04,-0.107,-0.067,0.074,0.014,-0.086,-0.076,-0.21,-0.279,-0.22,-0.146,0.003
-0.057,-0.124,-0.067,0.091,0.005,-0.095,-0.064,-0.194,-0.298,-0.234,-0.159,-0.01
-0.069,-0.124,-0.055,0.096,-0.007,-0.089,-0.033,-0.153,-0.245,-0.202,-0.143,-0.022
-0.076,-0.154,-0.078,0.115,0.001,-0.116,0.09,0.045,-0.281,-0.245,-0.181,-0.053
-0.048,-0.035,0.013,0.041,-0.031,-0.011,0.041,-0.022,-0.053,-0.119,-0.104,0.02
0.143,0.164,0.021,-0.154,0.06,0.092,-0.263,-0.315,0.193,0.215,0.203,0.256
0.545,0.702,0.157,-0.624,0.194,0.429,-0.61,-0.477,1.288,1.201,0.922,0.808
0.623,0.767,0.144,-0.695,0.239,0.455,-0.571,-0.599,1.738,1.522,1.136,0.984
0.195,-0.01,-0.205,-0.092,0.2,-0.107,-0.139,-0.486,-0.192,0.116,0.278,0.417
-0.051,-0.289,-0.238,0.171,0.094,-0.263,0.096,-0.236,-0.824,-0.464,-0.195,0.039
-0.038,-0.273,-0.234,0.156,0.098,-0.253,0.105,0.1,-0.446,-0.318,-0.195,-0.035
-0.031,-0.257,-0.226,0.144,0.098,-0.241,0.077,0.284,-0.398,-0.309,-0.197,-0.031
-0.029,-0.175,-0.146,0.102,0.059,-0.161,0.058,0.103,-0.201,-0.178,-0.135,-0.001
-0.047,-0.15,-0.103,0.099,0.028,-0.126,0.056,0.01,-0.227,-0.194,-0.116,0.006
-0.02,-0.119,-0.1,0.07,0.04,-0.109,0.047,0.023,-0.136,-0.137,-0.079,0.027
0.0,-0.126,-0.126,0.063,0.063,-0.126,0.046,0.011,-0.14,-0.133,-0.074,0.03
-0.01,-0.111,-0.101,0.061,0.046,-0.106,0.04,0.012,-0.107,-0.106,-0.063,0.044
-0.017,-0.109,-0.092,0.063,0.038,-0.1,0.034,0.013,-0.062,-0.071,-0.05,0.052
-0.001,-0.099,-0.098,0.05,0.049,-0.098,0.046,0.027,-0.045,-0.067,-0.048,0.055
0.033,-0.083,-0.116,0.026,0.075,-0.1,0.062,0.05,0.016,-0.022,-0.035,0.072
0.054,-0.061,-0.115,0.004,0.085,-0.088,0.059,0.085,0.061,0.013,-0.003,0.088
0.082,-0.033,-0.114,-0.024,0.098,-0.073,0.06,0.123,0.14,0.067,0.043,0.111
0.104,-0.012,-0.116,-0.045,0.11,-0.063,0.067,0.182,0.219,0.123,0.074,0.137
0.139,0.024,-0.115,-0.081,0.127,-0.045,0.078,0.256,0.339,0.205,0.119,0.162
0.184,0.073,-0.112,-0.128,0.148,-0.019,0.101,0.344,0.477,0.302,0.181,0.206
0.231,0.135,-0.096,-0.183,0.163,0.019,0.128,0.422,0.601,0.395,0.241,0.244
0.27,0.186,-0.084,-0.228,0.177,0.051,0.157,0.52,0.739,0.502,0.315,0.298
0.291,0.234,-0.057,-0.262,0.174,0.088,0.193,0.592,0.839,0.586,0.381,0.347
0.291,0.274,-0.017,-0.282,0.153,0.128,0.217,0.588,0.87,0.631,0.414,0.374
0.258,0.275,0.017,-0.267,0.12,0.146,0.213,0.564,0.795,0.6,0.41,0.377
0.205,0.241,0.036,-0.223,0.084,0.138,0.206,0.457,0.578,0.459,0.334,0.326
0.118,0.161,0.043,-0.139,0.037,0.102,0.192,0.312,0.333,0.281,0.211,0.245
0.047,0.062,0.015,-0.055,0.016,0.038,0.158,0.191,0.125,0.122,0.103,0.172
0.019,-0.007,-0.026,-0.006,0.023,-0.017,0.118,0.078,-0.033,0.003,0.022,0.114
-0.018,-0.062,-0.044,0.04,0.014,-0.053,0.089,0.004,-0.134,-0.079,-0.031,0.068
-0.038,-0.096,-0.058,0.067,0.01,-0.077,0.082,-0.04,-0.193,-0.12,-0.065,0.051
-0.045,-0.118,-0.073,0.082,0.014,-0.096,0.078,-0.068,-0.214,-0.139,-0.078,0.038
-0.054,-0.132,-0.078,0.093,0.012,-0.105,0.073,-0.076,-0.231,-0.146,-0.08,0.03
-0.051,-0.127,-0.076,0.09,0.013,-0.101,0.069,-0.075,-0.256,-0.14,-0.08,0.029
-0.068,-0.142,-0.074,0.105,0.003,-0.107,0.065,-0.074,-0.252,-0.138,-0.079,0.025
-0.078,-0.151,-0.073,0.114,-0.002,-0.112,0.07,-0.071,-0.249,-0.135,-0.082,0.023
-0.075,-0.143,-0.067,0.109,-0.004,-0.105,0.073,-0.069,-0.246,-0.132,-0.08,0.019
-0.063,-0.14,-0.077,0.102,0.007,-0.108,0.078,-0.072,-0.241,-0.13,-0.075,0.024
-0.039,-0.135,-0.097,0.087,0.029,-0.116,0.08,-0.075,-0.239,-0.132,-0.07,0.027
-0.037,-0.129,-0.093,0.083,0.028,-0.111,0.08,-0.075,-0.234,-0.137,-0.067,0.024
-0.046,-0.137,-0.091,0.091,0.023,-0.113,0.084,-0.075,-0.236,-0.132,-0.06,0.025
-0.067,-0.154,-0.087,0.111,0.01,-0.12,0.085,-0.079,-0.232,-0.141,-0.066,0.025
-0.069,-0.155,-0.086,0.113,0.009,-0.121,0.085,-0.08,-0.231,-0.157,-0.077,0.025
-0.074,-0.155,-0.081,0.115,0.004,-0.118,0.085,-0.08,-0.228,-0.155,-0.079,0.025
-0.09,-0.16,-0.071,0.125,-0.009,-0.115,0.085,-0.08,-0.24,-0.155,-0.084,0.025
-0.069,-0.159,-0.09,0.115,0.01,-0.124,0.085,-0.081,-0.262,-0.156,-0.085,0.025
-0.064,-0.162,-0.098,0.113,0.017,-0.129,0.085,-0.085,-0.269,-0.154,-0.085,0.025
-0.067,-0.165,-0.098,0.116,0.016,-0.131,0.085,-0.085,-0.27,-0.158,-0.085,0.025
-0.062,-0.165,-0.103,0.114,0.021,-0.133,0.087,-0.087,-0.272,-0.162,-0.087,0.025
-0.06,-0.165,-0.104,0.113,0.022,-0.135,0.09,-0.091,-0.274,-0.167,-0.098,0.022
-0.061,-0.165,-0.104,0.113,0.022,-0.135,0.093,-0.09,-0.283,-0.17,-0.1,0.019
-0.069,-0.168,-0.099,0.119,0.015,-0.133,0.096,-0.087,-0.295,-0.17,-0.1,0.02
-0.076,-0.172,-0.096,0.124,0.01,-0.134,0.099,-0.084,-0.294,-0.17,-0.1,0.016
-0.082,-0.175,-0.093,0.128,0.006,-0.133,0.1,-0.085,-0.296,-0.17,-0.1,0.015
-0.091,-0.179,-0.088,0.135,-0.001,-0.133,0.095,-0.085,-0.3,-0.17,-0.099,0.014
-0.095,-0.18,-0.085,0.138,-0.005,-0.132,0.095,-0.085,-0.3,-0.17,-0.095,0.011
-0.092,-0.18,-0.088,0.136,-0.002,-0.134,0.094,-0.084,-0.3,-0.172,-0.095,0.008
-0.094,-0.184,-0.09,0.139,-0.001,-0.137,0.09,-0.08,-0.3,-0.175,-0.095,0.005
-0.096,-0.185,-0.09,0.141,-0.002,-0.137,0.09,-0.08,-0.3,-0.175,-0.095,0.002
-0.093,-0.183,-0.09,0.138,-0.001,-0.136,0.092,-0.08,-0.3,-0.175,-0.095,0.0
-0.09,-0.18,-0.09,0.135,0.0,-0.135,0.095,-0.079,-0.3,-0.175,-0.099,0.0
-0.088,-0.177,-0.089,0.133,0.001,-0.133,0.089,-0.081,-0.299,-0.174,-0.1,0.0
-0.083,-0.175,-0.092,0.129,0.005,-0.133,0.083,-0.075,-0.296,-0.17,-0.1,0.0
-0.074,-0.171,-0.097,0.123,0.012,-0.134,0.079,-0.07,-0.29,-0.165,-0.105,0.0
-0.075,-0.171,-0.096,0.123,0.01,-0.133,0.072,-0.061,-0.286,-0.161,-0.106,0.0
-0.069,-0.163,-0.094,0.116,0.013,-0.128,0.068,-0.057,-0.28,-0.156,-0.104,0.0
-0.051,-0.148,-0.097,0.1,0.023,-0.122,0.067,-0.049,-0.277,-0.152,-0.095,0.007
-0.053,-0.134,-0.081,0.094,0.015,-0.107,0.089,-0.042,-0.27,-0.146,-0.084,0.017
-0.062,-0.11,-0.048,0.086,-0.007,-0.079,0.132,-0.026,-0.253,-0.139,-0.074,0.028
-0.046,-0.084,-0.038,0.065,-0.004,-0.061,0.139,0.006,-0.244,-0.129,-0.061,0.037
-0.039,-0.057,-0.017,0.048,-0.011,-0.037,0.106,-0.058,-0.244,-0.12,-0.049,0.044
-0.046,-0.008,0.038,0.027,-0.042,0.015,0.066,-0.116,-0.248,-0.116,-0.023,0.074
-0.032,0.002,0.033,0.015,-0.032,0.017,0.051,-0.095,-0.239,-0.113,-0.006,0.079
-0.031,-0.064,-0.033,0.048,0.001,-0.048,0.049,-0.091,-0.253,-0.118,-0.025,0.054
-0.064,-0.111,-0.047,0.088,-0.008,-0.079,0.04,-0.1,-0.24,-0.117,-0.041,0.046
-0.086,-0.16,-0.073,0.123,-0.006,-0.116,0.04,-0.095,-0.295,-0.161,-0.083,0.022
-0.084,-0.179,-0.095,0.132,0.005,-0.136,0.026,-0.1,-0.297,-0.165,-0.095,0.014
-0.092,-0.201,-0.109,0.146,0.009,-0.155,0.046,-0.087,-0.31,-0.174,-0.107,-0.002
-0.081,-0.188,-0.107,0.135,0.014,-0.148,0.046,-0.084,-0.306,-0.169,-0.107,-0.005
-0.09,-0.214,-0.124,0.152,0.017,-0.169,0.105,0.011,-0.265,-0.168,-0.11,-0.023
-0.103,-0.205,-0.102,0.155,0.0,-0.153,0.226,0.17,-0.269,-0.193,-0.146,-0.061
-0.013,-0.045,-0.031,0.029,0.009,-0.038,0.085,-0.031,-0.04,-0.038,-0.031,0.038
0.219,0.209,-0.011,-0.214,0.115,0.099,-0.274,-0.286,0.316,0.405,0.366,0.355
0.538,0.73,0.192,-0.634,0.173,0.461,-0.547,-0.427,1.584,1.443,1.072,0.878
0.478,0.522,0.045,-0.5,0.216,0.283,-0.397,-0.503,1.333,1.244,0.977,0.848
0.086,-0.19,-0.276,0.052,0.181,-0.233,-0.011,-0.294,-0.639,-0.138,0.132,0.28
-0.081,-0.319,-0.238,0.2,0.079,-0.278,0.171,0.004,-0.731,-0.381,-0.153,0.037
-0.084,-0.317,-0.232,0.201,0.074,-0.274,0.189,0.318,-0.418,-0.274,-0.151,-0.034
-0.049,-0.267,-0.219,0.158,0.085,-0.243,0.156,0.363,-0.338,-0.216,-0.125,-0.045
-0.025,-0.207,-0.182,0.116,0.079,-0.194,0.133,0.158,-0.174,-0.117,-0.074,0.003
-0.034,-0.182,-0.148,0.108,0.057,-0.165,0.124,0.097,-0.205,-0.125,-0.068,0.009
-0.021,-0.155,-0.134,0.088,0.057,-0.144,0.12,0.091,-0.123,-0.076,-0.051,0.016
-0.013,-0.152,-0.139,0.083,0.063,-0.145,0.118,0.09,-0.145,-0.083,-0.053,0.016
-0.004,-0.132,-0.128,0.068,0.063,-0.13,0.113,0.1,-0.087,-0.045,-0.037,0.022
0.004,-0.125,-0.13,0.061,0.067,-0.127,0.11,0.106,-0.063,-0.02,-0.014,0.025
0.023,-0.1,-0.123,0.039,0.073,-0.111,0.117,0.13,-0.019,0.011,0.001,0.03
0.021,-0.094,-0.116,0.037,0.069,-0.105,0.13,0.156,0.037,0.036,0.011,0.04
0.024,-0.075,-0.099,0.026,0.061,-0.087,0.132,0.197,0.089,0.07,0.039,0.06
0.053,-0.035,-0.088,-0.008,0.07,-0.061,0.135,0.244,0.179,0.128,0.071,0.078
0.085,0.006,-0.078,-0.045,0.081,-0.036,0.147,0.313,0.267,0.191,0.108,0.103
0.124,0.051,-0.073,-0.087,0.098,-0.011,0.157,0.391,0.389,0.27,0.157,0.133
0.166,0.101,-0.065,-0.133,0.115,0.018,0.182,0.484,0.528,0.368,0.223,0.177
0.22,0.165,-0.055,-0.192,0.137,0.055,0.216,0.582,0.666,0.466,0.291,0.223
0.252,0.222,-0.029,-0.237,0.14,0.096,0.26,0.659,0.785,0.553,0.346,0.255
0.275,0.288,0.013,-0.282,0.131,0.15,0.304,0.716,0.876,0.632,0.407,0.309
0.28,0.32,0.04,-0.3,0.119,0.18,0.321,0.711,0.87,0.638,0.432,0.329
0.234,0.291,0.058,-0.262,0.088,0.174,0.324,0.622,0.726,0.568,0.393,0.303
0.175,0.234,0.06,-0.205,0.058,0.147,0.308,0.472,0.499,0.421,0.305,0.249
0.099,0.15,0.052,-0.125,0.023,0.101,0.271,0.322,0.255,0.243,0.19,0.168
0.024,0.05,0.026,-0.037,-0.001,0.038,0.207,0.192,0.061,0.1,0.089,0.096
-0.01,-0.017,-0.008,0.014,-0.001,-0.012,0.147,0.092,-0.064,-0.001,0.019,0.043
-0.029,-0.056,-0.027,0.043,0.0,-0.041,0.115,0.034,-0.133,-0.057,-0.029,0.01
-0.042,-0.08,-0.038,0.061,-0.002,-0.059,0.099,-0.002,-0.166,-0.088,-0.053,-0.003
-0.036,-0.079,-0.044,0.058,0.004,-0.061,0.089,-0.02,-0.187,-0.105,-0.06,-0.012
-0.039,-0.093,-0.054,0.067,0.007,-0.073,0.077,-0.036,-0.195,-0.11,-0.064,-0.023
-0.046,-0.102,-0.056,0.075,0.005,-0.078,0.068,-0.045,-0.194,-0.112,-0.065,-0.03
-0.047,-0.102,-0.055,0.075,0.004,-0.078,0.061,-0.045,-0.197,-0.115,-0.065,-0.03
-0.055,-0.107,-0.052,0.081,-0.001,-0.079,0.054,-0.043,-0.2,-0.119,-0.063,-0.03
-0.059,-0.109,-0.049,0.084,-0.005,-0.079,0.046,-0.04,-0.201,-0.12,-0.06,-0.03
-0.06,-0.11,-0.05,0.086,-0.005,-0.08,0.039,-0.04,-0.197,-0.117,-0.06,-0.03
-0.059,-0.104,-0.045,0.082,-0.007,-0.074,0.033,-0.037,-0.195,-0.112,-0.06,-0.03
-0.054,-0.099,-0.045,0.077,-0.004,-0.072,0.029,-0.034,-0.195,-0.109,-0.06,-0.03
-0.049,-0.094,-0.045,0.072,-0.001,-0.069,0.027,-0.036,-0.192,-0.106,-0.06,-0.03
-0.043,-0.088,-0.045,0.066,0.001,-0.066,0.024,-0.039,-0.19,-0.101,-0.065,-0.03
-0.036,-0.082,-0.046,0.06,0.005,-0.064,0.021,-0.042,-0.191,-0.101,-0.065,-0.03
-0.04,-0.082,-0.043,0.061,0.002,-0.062,0.019,-0.045,-0.196,-0.105,-0.066,-0.03
-0.048,-0.086,-0.038,0.067,-0.005,-0.062,0.016,-0.045,-0.203,-0.108,-0.071,-0.037
-0.052,-0.085,-0.032,0.069,-0.009,-0.058,0.013,-0.045,-0.208,-0.112,-0.07,-0.048
-0.057,-0.085,-0.029,0.071,-0.014,-0.057,0.011,-0.044,-0.211,-0.115,-0.072,-0.05
-0.061,-0.085,-0.024,0.073,-0.018,-0.054,0.007,-0.06,-0.209,-0.119,-0.083,-0.05
-0.066,-0.085,-0.02,0.076,-0.023,-0.052,0.005,-0.076,-0.221,-0.12,-0.09,-0.054
-0.064,-0.09,-0.025,0.077,-0.019,-0.057,0.002,-0.074,-0.23,-0.122,-0.09,-0.055
-0.066,-0.09,-0.024,0.079,-0.021,-0.057,0.0,-0.075,-0.229,-0.126,-0.091,-0.055
-0.066,-0.093,-0.028,0.08,-0.019,-0.06,0.0,-0.075,-0.23,-0.123,-0.095,-0.055
-0.052,-0.095,-0.044,0.074,-0.003,-0.07,-0.004,-0.074,-0.23,-0.12,-0.095,-0.054
-0.049,-0.095,-0.046,0.072,-0.001,-0.07,-0.005,-0.078,-0.23,-0.12,-0.092,-0.056
-0.053,-0.095,-0.042,0.075,-0.005,-0.068,-0.005,-0.081,-0.23,-0.12,-0.09,-0.054
-0.055,-0.095,-0.04,0.075,-0.007,-0.067,-0.01,-0.086,-0.23,-0.12,-0.09,-0.062
-0.056,-0.095,-0.038,0.076,-0.008,-0.066,-0.014,-0.09,-0.23,-0.12,-0.087,-0.076
-0.06,-0.095,-0.035,0.078,-0.012,-0.065,-0.016,-0.09,-0.23,-0.116,-0.084,-0.074
-0.059,-0.094,-0.035,0.077,-0.012,-0.065,-0.021,-0.094,-0.23,-0.115,-0.086,-0.076
-0.058,-0.09,-0.033,0.074,-0.013,-0.061,-0.024,-0.095,-0.23,-0.115,-0.089,-0.08
-0.06,-0.09,-0.03,0.075,-0.016,-0.06,-0.028,-0.098,-0.234,-0.115,-0.092,-0.08
-0.059,-0.089,-0.03,0.074,-0.014,-0.059,-0.031,-0.1,-0.235,-0.114,-0.095,-0.082
-0.058,-0.085,-0.027,0.072,-0.015,-0.055,-0.029,-0.1,-0.235,-0.116,-0.097,-0.087
-0.061,-0.085,-0.024,0.074,-0.018,-0.055,-0.034,-0.103,-0.235,-0.123,-0.101,-0.09
-0.058,-0.083,-0.025,0.071,-0.016,-0.054,-0.035,-0.105,-0.236,-0.12,-0.098,-0.086
-0.054,-0.073,-0.02,0.064,-0.017,-0.046,-0.035,-0.105,-0.233,-0.114,-0.091,-0.082
-0.047,-0.067,-0.02,0.057,-0.013,-0.043,-0.024,-0.095,-0.222,-0.11,-0.086,-0.079
-0.038,-0.057,-0.019,0.048,-0.01,-0.037,-0.001,-0.085,-0.215,-0.105,-0.079,-0.074
-0.064,-0.052,0.012,0.057,-0.038,-0.019,0.014,-0.067,-0.206,-0.101,-0.076,-0.071
-0.057,-0.026,0.031,0.042,-0.044,0.002,0.039,-0.048,-0.194,-0.093,-0.067,-0.067
-0.018,0.013,0.031,0.002,-0.025,0.022,0.05,-0.018,-0.185,-0.079,-0.059,-0.059
-0.019,0.024,0.043,-0.002,-0.031,0.033,0.028,-0.052,-0.169,-0.062,-0.043,-0.051
-0.013,0.068,0.081,-0.028,-0.047,0.074,-0.011,-0.124,-0.173,-0.045,-0.017,-0.056
0.004,0.09,0.087,-0.048,-0.042,0.088,-0.014,-0.112,-0.145,-0.02,-0.008,-0.055
-0.005,0.034,0.038,-0.015,-0.022,0.036,-0.005,-0.103,-0.17,-0.043,-0.024,-0.063
-0.021,0.007,0.027,0.007,-0.024,0.017,-0.038,-0.129,-0.195,-0.063,-0.026,-0.062
-0.038,-0.052,-0.014,0.045,-0.012,-0.032,-0.039,-0.126,-0.21,-0.091,-0.061,-0.072
-0.044,-0.081,-0.037,0.063,-0.003,-0.059,-0.041,-0.129,-0.242,-0.124,-0.092,-0.091
-0.044,-0.098,-0.053,0.072,0.005,-0.075,-0.046,-0.123,-0.222,-0.119,-0.094,-0.093
-0.052,-0.111,-0.059,0.082,0.004,-0.085,-0.043,-0.109,-0.246,-0.136,-0.11,-0.1
-0.054,-0.099,-0.046,0.077,-0.004,-0.072,-0.015,-0.077,-0.184,-0.112,-0.091,-0.097
-0.077,-0.146,-0.069,0.112,-0.004,-0.107,0.095,0.129,-0.232,-0.166,-0.157,-0.158
-0.055,-0.007,0.047,0.031,-0.051,0.02,0.032,0.033,-0.053,-0.056,-0.085,-0.101
0.153,0.194,0.04,-0.174,0.056,0.117,-0.267,-0.274,0.182,0.259,0.216,0.142
0.55,0.708,0.159,-0.629,0.196,0.433,-0.604,-0.454,1.227,1.212,0.919,0.673
0.652,0.848,0.195,-0.75,0.228,0.521,-0.626,-0.669,1.852,1.682,1.249,0.936
0.267,0.068,-0.199,-0.167,0.233,-0.066,-0.255,-0.565,-0.043,0.341,0.419,0.384
-0.035,-0.292,-0.257,0.164,0.111,-0.274,0.007,-0.292,-0.84,-0.37,-0.126,-0.031
-0.073,-0.257,-0.184,0.165,0.056,-0.221,0.065,0.066,-0.375,-0.212,-0.13,-0.109
-0.023,-0.201,-0.178,0.112,0.078,-0.189,0.064,0.287,-0.311,-0.197,-0.128,-0.117
-0.01,-0.119,-0.109,0.065,0.05,-0.114,0.051,0.145,-0.114,-0.069,-0.066,-0.071
-0.019,-0.1,-0.081,0.06,0.031,-0.09,0.05,0.09,-0.135,-0.08,-0.063,-0.081
0.0,-0.062,-0.062,0.031,0.031,-0.062,0.038,0.103,-0.068,-0.037,-0.045,-0.063
0.005,-0.061,-0.067,0.028,0.036,-0.064,0.037,0.1,-0.056,-0.024,-0.046,-0.063
0.016,-0.042,-0.058,0.013,0.037,-0.05,0.038,0.112,-0.03,-0.016,-0.038,-0.053
0.019,-0.036,-0.055,0.009,0.037,-0.046,0.041,0.123,0.015,0.014,-0.022,-0.049
0.024,-0.025,-0.049,0.0,0.037,-0.036,0.038,0.154,0.045,0.031,-0.005,-0.052
0.029,-0.014,-0.044,-0.007,0.037,-0.029,0.046,0.18,0.106,0.071,0.012,-0.042
0.051,0.013,-0.038,-0.032,0.044,-0.012,0.05,0.224,0.142,0.103,0.035,-0.022
0.073,0.04,-0.032,-0.056,0.052,0.004,0.063,0.28,0.23,0.155,0.07,0.004
0.098,0.07,-0.029,-0.084,0.063,0.02,0.086,0.345,0.312,0.215,0.1,0.027
0.151,0.117,-0.034,-0.134,0.092,0.042,0.097,0.443,0.429,0.297,0.155,0.066
0.202,0.163,-0.039,-0.182,0.12,0.062,0.116,0.548,0.56,0.383,0.205,0.099
0.242,0.233,-0.009,-0.238,0.125,0.112,0.15,0.657,0.689,0.487,0.271,0.147
0.27,0.29,0.02,-0.28,0.125,0.155,0.191,0.77,0.824,0.586,0.349,0.196
0.323,0.359,0.036,-0.341,0.143,0.197,0.224,0.847,0.925,0.67,0.407,0.237
0.334,0.412,0.078,-0.373,0.128,0.244,0.246,0.87,0.947,0.718,0.455,0.281
0.306,0.416,0.11,-0.361,0.098,0.262,0.244,0.793,0.876,0.68,0.446,0.272
0.259,0.359,0.1,-0.309,0.079,0.229,0.232,0.617,0.686,0.559,0.371,0.226
0.165,0.254,0.089,-0.209,0.038,0.171,0.198,0.431,0.444,0.387,0.262,0.161
0.096,0.16,0.063,-0.128,0.016,0.111,0.141,0.267,0.247,0.232,0.157,0.078
0.052,0.085,0.033,-0.069,0.01,0.059,0.101,0.142,0.094,0.119,0.072,0.016
0.02,0.032,0.012,-0.026,0.004,0.022,0.059,0.064,0.005,0.047,0.016,-0.035
0.003,-0.014,-0.016,0.006,0.009,-0.015,0.025,0.007,-0.04,-0.004,-0.016,-0.065
-0.012,-0.039,-0.027,0.026,0.008,-0.033,0.016,-0.025,-0.065,-0.037,-0.037,-0.071
-0.021,-0.045,-0.024,0.033,0.002,-0.034,0.012,-0.035,-0.077,-0.041,-0.04,-0.075
-0.02,-0.046,-0.025,0.033,0.003,-0.035,0.006,-0.043,-0.081,-0.039,-0.044,-0.075
-0.025,-0.044,-0.02,0.035,-0.002,-0.032,0.0,-0.042,-0.079,-0.04,-0.046,-0.075
-0.025,-0.046,-0.021,0.035,-0.002,-0.033,-0.005,-0.039,-0.084,-0.04,-0.045,-0.075
-0.025,-0.044,-0.019,0.035,-0.003,-0.031,-0.01,-0.04,-0.085,-0.04,-0.043,-0.075
-0.032,-0.046,-0.014,0.039,-0.009,-0.03,-0.01,-0.04,-0.085,-0.041,-0.039,-0.075
-0.014,-0.044,-0.03,0.03,0.008,-0.037,-0.01,-0.04,-0.09,-0.038,-0.04,-0.075
-0.01,-0.047,-0.037,0.029,0.014,-0.042,-0.01,-0.041,-0.09,-0.043,-0.044,-0.075
-0.025,-0.06,-0.034,0.043,0.005,-0.047,-0.01,-0.045,-0.09,-0.056,-0.055,-0.077
-0.025,-0.058,-0.033,0.042,0.004,-0.045,-0.008,-0.045,-0.09,-0.055,-0.061,-0.076
-0.024,-0.054,-0.029,0.039,0.003,-0.041,-0.005,-0.045,-0.09,-0.055,-0.059,-0.075
-0.022,-0.052,-0.03,0.037,0.004,-0.041,-0.005,-0.045,-0.092,-0.056,-0.063,-0.075
-0.013,-0.045,-0.032,0.029,0.01,-0.039,-0.005,-0.048,-0.096,-0.054,-0.065,-0.075
-0.011,-0.047,-0.036,0.029,0.013,-0.041,-0.005,-0.053,-0.094,-0.058,-0.065,-0.074
-0.015,-0.05,-0.035,0.033,0.01,-0.042,-0.006,-0.056,-0.102,-0.06,-0.068,-0.077
-0.018,-0.053,-0.035,0.036,0.009,-0.043,-0.009,-0.063,-0.116,-0.061,-0.071,-0.088
-0.02,-0.055,-0.035,0.038,0.008,-0.045,-0.014,-0.069,-0.113,-0.059,-0.074,-0.091
-0.024,-0.058,-0.035,0.041,0.006,-0.046,-0.016,-0.076,-0.122,-0.066,-0.077,-0.089
-0.026,-0.061,-0.035,0.044,0.005,-0.047,-0.021,-0.08,-0.136,-0.076,-0.08,-0.091
-0.021,-0.056,-0.035,0.039,0.007,-0.045,-0.024,-0.08,-0.134,-0.078,-0.08,-0.089
-0.02,-0.055,-0.035,0.038,0.008,-0.045,-0.028,-0.08,-0.139,-0.082,-0.08,-0.092
-0.02,-0.054,-0.035,0.037,0.008,-0.045,-0.037,-0.08,-0.141,-0.085,-0.08,-0.095
-0.016,-0.051,-0.035,0.034,0.01,-0.042,-0.048,-0.079,-0.136,-0.085,-0.08,-0.095
-0.015,-0.049,-0.035,0.032,0.01,-0.042,-0.055,-0.082,-0.134,-0.085,-0.08,-0.095
-0.021,-0.052,-0.03,0.036,0.005,-0.041,-0.055,-0.086,-0.129,-0.085,-0.08,-0.095
-0.025,-0.055,-0.03,0.04,0.003,-0.042,-0.056,-0.085,-0.125,-0.085,-0.08,-0.095
-0.026,-0.055,-0.029,0.041,0.002,-0.042,-0.06,-0.085,-0.125,-0.084,-0.08,-0.091
-0.031,-0.055,-0.024,0.044,-0.003,-0.04,-0.06,-0.085,-0.125,-0.086,-0.08,-0.089
-0.025,-0.051,-0.026,0.039,0.0,-0.038,-0.057,-0.085,-0.125,-0.09,-0.078,-0.09
-0.026,-0.05,-0.024,0.039,-0.001,-0.036,-0.055,-0.085,-0.125,-0.09,-0.075,-0.09
-0.022,-0.049,-0.027,0.036,0.003,-0.038,-0.055,-0.085,-0.125,-0.09,-0.072,-0.091
-0.006,-0.046,-0.04,0.026,0.017,-0.042,-0.055,-0.085,-0.124,-0.09,-0.07,-0.088
-0.005,-0.044,-0.038,0.025,0.017,-0.041,-0.055,-0.085,-0.12,-0.09,-0.066,-0.085
-0.015,-0.049,-0.033,0.032,0.009,-0.041,-0.055,-0.085,-0.12,-0.086,-0.065,-0.085
-0.028,-0.059,-0.032,0.044,0.002,-0.046,-0.06,-0.097,-0.12,-0.085,-0.068,-0.085
-0.035,-0.06,-0.025,0.048,-0.005,-0.042,-0.06,-0.101,-0.12,-0.085,-0.071,-0.085
-0.034,-0.06,-0.026,0.047,-0.004,-0.042,-0.06,-0.1,-0.12,-0.08,-0.074,-0.085
-0.021,-0.06,-0.039,0.04,0.009,-0.05,-0.06,-0.097,-0.118,-0.08,-0.077,-0.089
-0.022,-0.061,-0.038,0.042,0.008,-0.049,-0.06,-0.094,-0.112,-0.079,-0.08,-0.091
-0.024,-0.057,-0.034,0.041,0.005,-0.045,-0.057,-0.096,-0.109,-0.075,-0.08,-0.09
-0.017,-0.048,-0.031,0.033,0.007,-0.04,-0.048,-0.088,-0.103,-0.076,-0.074,-0.09
-0.011,-0.036,-0.025,0.024,0.008,-0.03,-0.042,-0.085,-0.098,-0.074,-0.069,-0.09
-0.005,-0.03,-0.025,0.018,0.011,-0.027,-0.031,-0.071,-0.096,-0.077,-0.066,-0.089
0.017,0.001,-0.015,-0.009,0.016,-0.007,-0.029,-0.053,-0.082,-0.063,-0.054,-0.08
0.045,0.03,-0.014,-0.037,0.029,0.008,-0.025,-0.02,-0.074,-0.039,-0.033,-0.07
0.031,0.043,0.011,-0.037,0.01,0.027,-0.05,-0.037,-0.049,-0.027,-0.021,-0.059
0.033,0.088,0.054,-0.061,-0.011,0.071,-0.083,-0.09,-0.039,-0.028,-0.021,-0.052
0.053,0.105,0.052,-0.079,0.0,0.078,-0.077,-0.081,-0.01,-0.007,-0.018,-0.048
0.043,0.067,0.024,-0.055,0.009,0.045,-0.091,-0.082,-0.041,-0.006,-0.022,-0.051
0.023,0.039,0.016,-0.031,0.003,0.027,-0.112,-0.106,-0.083,-0.028,-0.017,-0.05
-0.004,-0.007,-0.003,0.005,-0.001,-0.005,-0.102,-0.11,-0.087,-0.063,-0.043,-0.077
-0.024,-0.047,-0.023,0.035,0.0,-0.035,-0.095,-0.125,-0.141,-0.102,-0.084,-0.103
-0.035,-0.064,-0.029,0.049,-0.003,-0.046,-0.092,-0.137,-0.124,-0.092,-0.08,-0.096
-0.049,-0.084,-0.036,0.067,-0.006,-0.06,-0.079,-0.119,-0.154,-0.123,-0.093,-0.105
-0.042,-0.063,-0.02,0.053,-0.011,-0.041,-0.074,-0.106,-0.09,-0.088,-0.085,-0.097
-0.042,-0.104,-0.062,0.073,0.01,-0.083,0.032,0.09,-0.133,-0.148,-0.132,-0.147
-0.025,-0.001,0.024,0.013,-0.024,0.012,0.031,0.079,0.007,-0.081,-0.078,-0.115
0.124,0.182,0.058,-0.153,0.032,0.12,-0.252,-0.234,0.228,0.204,0.155,0.085
0.521,0.64,0.119,-0.581,0.201,0.379,-0.581,-0.407,1.056,1.053,0.812,0.585
0.749,0.946,0.197,-0.847,0.276,0.571,-0.68,-0.663,1.973,1.788,1.333,0.968
0.399,0.232,-0.168,-0.315,0.284,0.032,-0.377,-0.724,0.378,0.618,0.6,0.493
0.029,-0.251,-0.28,0.112,0.155,-0.265,-0.105,-0.483,-0.768,-0.346,-0.092,-0.011
-0.045,-0.212,-0.167,0.129,0.061,-0.189,-0.042,-0.086,-0.339,-0.217,-0.118,-0.102
-0.008,-0.196,-0.188,0.102,0.09,-0.192,-0.016,0.205,-0.252,-0.188,-0.125,-0.123
0.029,-0.099,-0.129,0.035,0.079,-0.114,-0.029,0.154,-0.054,-0.057,-0.078,-0.093
0.023,-0.071,-0.093,0.024,0.058,-0.082,-0.023,0.123,-0.045,-0.058,-0.076,-0.094
0.02,-0.038,-0.059,0.009,0.04,-0.048,-0.023,0.124,-0.005,-0.042,-0.056,-0.083
0.007,-0.028,-0.035,0.011,0.021,-0.031,-0.019,0.112,0.035,-0.018,-0.042,-0.077
0.025,-0.016,-0.042,-0.004,0.034,-0.029,-0.02,0.109,0.032,-0.005,-0.037,-0.073
0.064,-0.002,-0.066,-0.031,0.065,-0.034,-0.014,0.124,0.089,0.042,-0.023,-0.061
0.073,0.009,-0.064,-0.04,0.069,-0.028,0.003,0.161,0.114,0.053,-0.011,-0.055
0.089,0.037,-0.052,-0.063,0.07,-0.007,0.014,0.183,0.168,0.084,0.021,-0.038
0.1,0.049,-0.05,-0.074,0.075,-0.001,0.025,0.231,0.21,0.118,0.041,-0.032
0.106,0.063,-0.042,-0.084,0.074,0.01,0.031,0.279,0.284,0.171,0.068,-0.018
0.14,0.1,-0.04,-0.12,0.09,0.03,0.049,0.346,0.36,0.226,0.104,0.014
0.179,0.145,-0.034,-0.162,0.107,0.055,0.062,0.44,0.461,0.294,0.149,0.047
0.216,0.185,-0.032,-0.201,0.124,0.077,0.081,0.548,0.584,0.383,0.209,0.093
0.278,0.26,-0.018,-0.269,0.148,0.12,0.11,0.659,0.711,0.48,0.274,0.137
0.313,0.321,0.008,-0.317,0.153,0.164,0.144,0.775,0.838,0.577,0.343,0.185
0.339,0.376,0.037,-0.358,0.151,0.206,0.18,0.879,0.949,0.674,0.416,0.244
0.398,0.446,0.048,-0.422,0.175,0.247,0.203,0.908,1.009,0.734,0.467,0.279
0.381,0.453,0.073,-0.417,0.154,0.263,0.199,0.85,0.972,0.719,0.474,0.285
0.318,0.417,0.099,-0.368,0.109,0.258,0.183,0.699,0.809,0.632,0.424,0.262
0.251,0.337,0.086,-0.294,0.082,0.211,0.16,0.489,0.578,0.473,0.322,0.195
0.146,0.225,0.079,-0.186,0.034,0.152,0.117,0.303,0.369,0.303,0.204,0.112
0.09,0.14,0.05,-0.116,0.02,0.095,0.064,0.158,0.197,0.171,0.102,0.034
0.061,0.075,0.014,-0.068,0.023,0.044,0.019,0.06,0.089,0.086,0.039,-0.019
0.027,0.035,0.008,-0.031,0.009,0.022,-0.001,0.0,0.042,0.037,0.004,-0.038
0.021,0.025,0.005,-0.023,0.008,0.015,-0.015,-0.04,0.008,0.005,-0.023,-0.064
0.02,0.022,0.002,-0.021,0.009,0.012,-0.028,-0.054,-0.008,-0.001,-0.03,-0.075
0.018,0.016,-0.003,-0.017,0.01,0.006,-0.04,-0.061,-0.018,-0.007,-0.032,-0.076
0.016,0.01,-0.006,-0.012,0.01,0.002,-0.053,-0.068,-0.031,-0.015,-0.035,-0.08
0.018,0.005,-0.013,-0.012,0.016,-0.004,-0.052,-0.069,-0.038,-0.02,-0.038,-0.082
0.028,0.0,-0.028,-0.014,0.028,-0.014,-0.05,-0.066,-0.042,-0.027,-0.04,-0.086
0.033,0.0,-0.032,-0.016,0.033,-0.016,-0.05,-0.065,-0.044,-0.03,-0.041,-0.082
0.028,-0.001,-0.03,-0.014,0.029,-0.015,-0.05,-0.065,-0.051,-0.03,-0.045,-0.08
0.021,-0.005,-0.027,-0.008,0.025,-0.016,-0.05,-0.065,-0.063,-0.033,-0.045,-0.077
0.019,-0.005,-0.024,-0.007,0.022,-0.014,-0.05,-0.065,-0.066,-0.036,-0.045,-0.074
0.013,-0.008,-0.021,-0.003,0.017,-0.014,-0.055,-0.068,-0.065,-0.035,-0.045,-0.071
0.009,-0.011,-0.019,0.001,0.014,-0.015,-0.055,-0.07,-0.066,-0.039,-0.045,-0.07
0.006,-0.01,-0.016,0.003,0.011,-0.012,-0.055,-0.071,-0.064,-0.041,-0.049,-0.074
-0.001,-0.01,-0.01,0.006,0.004,-0.01,-0.055,-0.076,-0.074,-0.044,-0.05,-0.077
-0.005,-0.01,-0.006,0.008,0.001,-0.008,-0.055,-0.074,-0.089,-0.047,-0.053,-0.08
-0.008,-0.01,-0.001,0.009,-0.003,-0.005,-0.057,-0.071,-0.093,-0.051,-0.056,-0.083
-0.01,-0.006,0.004,0.007,-0.007,-0.001,-0.064,-0.068,-0.098,-0.054,-0.056,-0.085
-0.008,-0.005,0.003,0.006,-0.005,-0.001,-0.065,-0.079,-0.101,-0.06,-0.065,-0.087
-0.005,-0.005,0.0,0.005,-0.002,-0.002,-0.065,-0.093,-0.108,-0.066,-0.071,-0.09
-0.001,-0.005,-0.003,0.003,0.001,-0.004,-0.065,-0.095,-0.113,-0.064,-0.069,-0.09
0.0,-0.006,-0.006,0.003,0.004,-0.006,-0.065,-0.099,-0.123,-0.073,-0.073,-0.09
0.007,-0.002,-0.009,-0.002,0.008,-0.006,-0.065,-0.104,-0.131,-0.081,-0.075,-0.09
0.01,0.0,-0.01,-0.005,0.01,-0.005,-0.062,-0.105,-0.13,-0.08,-0.075,-0.09
0.005,0.0,-0.005,-0.002,0.005,-0.002,-0.06,-0.105,-0.13,-0.08,-0.071,-0.095
0.006,0.0,-0.006,-0.002,0.006,-0.002,-0.06,-0.105,-0.13,-0.08,-0.07,-0.095
0.003,0.0,-0.003,-0.001,0.003,-0.001,-0.06,-0.105,-0.129,-0.08,-0.07,-0.095
0.0,0.0,0.0,0.0,0.0,0.0,-0.06,-0.105,-0.131,-0.08,-0.07,-0.095
-0.007,-0.006,0.001,0.006,-0.004,-0.002,-0.06,-0.105,-0.135,-0.08,-0.07,-0.095
-0.006,-0.012,-0.006,0.009,0.0,-0.009,-0.06,-0.105,-0.135,-0.08,-0.071,-0.095
0.012,-0.016,-0.028,0.002,0.02,-0.022,-0.06,-0.105,-0.137,-0.08,-0.075,-0.095
0.007,-0.022,-0.029,0.008,0.018,-0.026,-0.06,-0.105,-0.14,-0.08,-0.075,-0.095
-0.008,-0.028,-0.02,0.019,0.006,-0.024,-0.06,-0.105,-0.14,-0.081,-0.075,-0.095
-0.013,-0.028,-0.015,0.021,0.001,-0.021,-0.06,-0.105,-0.136,-0.085,-0.075,-0.095
-0.018,-0.024,-0.007,0.021,-0.005,-0.015,-0.06,-0.105,-0.135,-0.085,-0.075,-0.095
-0.017,-0.022,-0.005,0.02,-0.006,-0.013,-0.06,-0.105,-0.135,-0.085,-0.071,-0.09
-0.014,-0.019,-0.005,0.017,-0.004,-0.012,-0.06,-0.105,-0.13,-0.085,-0.069,-0.09
-0.015,-0.016,-0.001,0.015,-0.006,-0.008,-0.06,-0.105,-0.13,-0.085,-0.07,-0.089
-0.015,-0.014,0.0,0.014,-0.007,-0.007,-0.06,-0.103,-0.13,-0.082,-0.07,-0.085
-0.025,-0.025,0.0,0.025,-0.012,-0.012,-0.06,-0.1,-0.13,-0.077,-0.071,-0.085
-0.026,-0.033,-0.007,0.03,-0.01,-0.02,-0.055,-0.099,-0.13,-0.075,-0.069,-0.083
-0.009,-0.027,-0.018,0.018,0.005,-0.022,-0.055,-0.1,-0.13,-0.071,-0.066,-0.079
-0.002,-0.024,-0.023,0.013,0.011,-0.023,-0.053,-0.099,-0.131,-0.067,-0.063,-0.075
-0.005,-0.018,-0.013,0.012,0.004,-0.015,-0.05,-0.101,-0.129,-0.063,-0.06,-0.072
-0.009,-0.015,-0.006,0.012,-0.001,-0.011,-0.05,-0.092,-0.125,-0.056,-0.057,-0.067
0.001,0.007,0.006,-0.004,-0.003,0.007,-0.047,-0.074,-0.106,-0.048,-0.054,-0.064
0.019,0.051,0.031,-0.035,-0.007,0.041,-0.034,-0.064,-0.097,-0.04,-0.051,-0.059
0.023,0.061,0.039,-0.042,-0.008,0.05,-0.024,-0.047,-0.079,-0.033,-0.041,-0.046
0.032,0.083,0.051,-0.058,-0.01,0.067,-0.059,-0.07,-0.066,-0.021,-0.035,-0.043
0.07,0.121,0.051,-0.096,0.009,0.085,-0.063,-0.088,-0.057,-0.007,-0.035,-0.046
0.081,0.105,0.024,-0.094,0.028,0.064,-0.055,-0.078,-0.035,0.005,-0.034,-0.047
0.034,0.05,0.016,-0.042,0.009,0.033,-0.095,-0.105,-0.094,-0.017,-0.037,-0.052
0.007,0.021,0.015,-0.014,-0.004,0.018,-0.113,-0.132,-0.096,-0.038,-0.04,-0.055
-0.007,-0.009,-0.002,0.007,-0.002,-0.005,-0.096,-0.112,-0.131,-0.082,-0.078,-0.079
-0.007,-0.008,-0.001,0.008,-0.003,-0.004,-0.098,-0.12,-0.143,-0.086,-0.079,-0.088
0.004,-0.033,-0.038,0.015,0.021,-0.035,-0.086,-0.106,-0.145,-0.092,-0.089,-0.094
-0.003,-0.033,-0.03,0.018,0.013,-0.031,-0.069,-0.11,-0.135,-0.092,-0.087,-0.099
-0.013,-0.052,-0.039,0.033,0.013,-0.045,-0.02,-0.046,-0.11,-0.085,-0.094,-0.112
-0.041,-0.066,-0.024,0.054,-0.008,-0.045,0.088,0.155,-0.12,-0.108,-0.126,-0.124
0.029,0.087,0.058,-0.058,-0.015,0.072,-0.049,-0.047,0.109,0.051,0.011,-0.032
0.338,0.341,0.003,-0.339,0.167,0.172,-0.407,-0.302,0.426,0.484,0.383,0.271
0.744,0.901,0.158,-0.823,0.293,0.53,-0.681,-0.478,1.613,1.549,1.161,0.854
0.681,0.727,0.046,-0.704,0.317,0.386,-0.577,-0.779,1.435,1.425,1.118,0.852
0.21,-0.073,-0.282,-0.068,0.246,-0.177,-0.224,-0.702,-0.445,-0.026,0.157,0.212
-0.024,-0.225,-0.201,0.125,0.089,-0.213,-0.073,-0.351,-0.598,-0.323,-0.146,-0.073
-0.029,-0.192,-0.163,0.111,0.067,-0.178,-0.049,0.044,-0.279,-0.193,-0.132,-0.114
0.01,-0.121,-0.131,0.056,0.071,-0.125,-0.042,0.161,-0.183,-0.138,-0.124,-0.092
0.033,-0.045,-0.078,0.006,0.056,-0.061,-0.03,0.103,-0.036,-0.041,-0.069,-0.063
0.049,-0.028,-0.077,-0.01,0.063,-0.052,-0.013,0.123,-0.073,-0.065,-0.073,-0.071
0.058,0.003,-0.055,-0.031,0.057,-0.025,-0.012,0.11,-0.001,-0.018,-0.049,-0.056
0.056,-0.002,-0.058,-0.027,0.057,-0.03,-0.006,0.117,-0.015,-0.023,-0.048,-0.06
0.073,0.019,-0.053,-0.046,0.063,-0.017,-0.006,0.115,0.037,0.018,-0.026,-0.049
0.075,0.022,-0.054,-0.048,0.064,-0.016,-0.001,0.133,0.059,0.03,-0.009,-0.048
0.08,0.031,-0.049,-0.055,0.064,-0.009,0.0,0.163,0.098,0.054,0.012,-0.038
0.09,0.039,-0.05,-0.065,0.07,-0.005,0.003,0.197,0.151,0.097,0.033,-0.023
0.102,0.055,-0.046,-0.078,0.074,0.005,0.011,0.245,0.199,0.131,0.049,-0.001
0.134,0.089,-0.045,-0.111,0.089,0.022,0.015,0.303,0.279,0.184,0.082,0.027
0.176,0.131,-0.045,-0.153,0.11,0.043,0.023,0.383,0.364,0.237,0.12,0.049
0.214,0.168,-0.046,-0.191,0.13,0.061,0.053,0.477,0.484,0.322,0.17,0.084
0.268,0.225,-0.043,-0.246,0.155,0.091,0.075,0.591,0.613,0.417,0.237,0.127
0.317,0.287,-0.03,-0.302,0.173,0.129,0.096,0.705,0.736,0.515,0.305,0.175
0.344,0.342,-0.001,-0.343,0.172,0.17,0.136,0.817,0.857,0.614,0.372,0.225
0.386,0.412,0.026,-0.399,0.18,0.219,0.158,0.884,0.949,0.693,0.433,0.267
0.41,0.448,0.038,-0.429,0.186,0.242,0.174,0.88,0.973,0.724,0.467,0.296
0.38,0.451,0.07,-0.416,0.155,0.26,0.193,0.797,0.901,0.687,0.459,0.292
0.313,0.396,0.083,-0.355,0.115,0.239,0.177,0.602,0.702,0.559,0.381,0.245
0.219,0.298,0.079,-0.259,0.07,0.188,0.135,0.398,0.471,0.384,0.261,0.166
0.129,0.202,0.074,-0.166,0.027,0.138,0.09,0.224,0.278,0.227,0.159,0.092
0.067,0.119,0.052,-0.093,0.007,0.085,0.041,0.093,0.129,0.113,0.082,0.035
0.029,0.068,0.039,-0.049,-0.006,0.054,0.008,0.018,0.047,0.05,0.024,-0.011
0.004,0.035,0.031,-0.02,-0.014,0.033,-0.005,-0.04,0.003,0.003,-0.018,-0.042
0.003,0.025,0.022,-0.014,-0.01,0.023,-0.021,-0.072,-0.024,-0.021,-0.039,-0.059
0.007,0.02,0.013,-0.014,-0.004,0.016,-0.038,-0.09,-0.042,-0.036,-0.042,-0.066
0.007,0.012,0.005,-0.01,0.001,0.008,-0.042,-0.092,-0.058,-0.042,-0.045,-0.07
0.019,0.006,-0.012,-0.012,0.015,-0.003,-0.04,-0.088,-0.061,-0.04,-0.045,-0.07
0.014,-0.001,-0.015,-0.006,0.015,-0.008,-0.04,-0.087,-0.058,-0.039,-0.045,-0.072
0.005,-0.004,-0.009,0.0,0.007,-0.006,-0.04,-0.083,-0.056,-0.042,-0.045,-0.076
0.002,-0.005,-0.008,0.002,0.005,-0.006,-0.04,-0.081,-0.054,-0.062,-0.048,-0.075
-0.003,-0.005,-0.001,0.004,-0.001,-0.003,-0.041,-0.078,-0.057,-0.067,-0.051,-0.072
-0.005,-0.005,0.0,0.005,-0.002,-0.002,-0.046,-0.076,-0.06,-0.064,-0.05,-0.069
-0.016,-0.005,0.01,0.01,-0.013,0.002,-0.044,-0.074,-0.053,-0.066,-0.051,-0.07
-0.021,-0.003,0.018,0.011,-0.019,0.007,-0.056,-0.086,-0.065,-0.064,-0.05,-0.07
-0.014,0.0,0.014,0.006,-0.014,0.007,-0.066,-0.097,-0.086,-0.067,-0.052,-0.069
-0.012,0.003,0.016,0.004,-0.014,0.009,-0.064,-0.095,-0.09,-0.071,-0.055,-0.072
-0.009,0.006,0.014,0.001,-0.012,0.01,-0.065,-0.095,-0.093,-0.076,-0.055,-0.074
-0.006,0.009,0.016,-0.002,-0.011,0.012,-0.065,-0.099,-0.098,-0.08,-0.059,-0.079
-0.004,0.01,0.014,-0.003,-0.009,0.011,-0.065,-0.106,-0.107,-0.084,-0.066,-0.079
-0.006,0.005,0.011,0.0,-0.009,0.008,-0.061,-0.112,-0.118,-0.086,-0.072,-0.083
-0.007,0.001,0.008,0.003,-0.008,0.005,-0.06,-0.115,-0.126,-0.089,-0.075,-0.096
-0.007,-0.001,0.005,0.003,-0.006,0.002,-0.06,-0.115,-0.133,-0.091,-0.077,-0.095
-0.009,-0.006,0.003,0.007,-0.005,-0.001,-0.06,-0.115,-0.138,-0.1,-0.081,-0.095
-0.007,-0.009,-0.002,0.008,-0.002,-0.006,-0.06,-0.118,-0.141,-0.105,-0.083,-0.095
-0.026,-0.012,0.013,0.019,-0.019,0.0,-0.061,-0.121,-0.145,-0.105,-0.086,-0.095
-0.046,-0.019,0.027,0.032,-0.037,0.004,-0.065,-0.125,-0.145,-0.11,-0.084,-0.093
-0.039,-0.02,0.019,0.03,-0.029,-0.001,-0.065,-0.124,-0.146,-0.11,-0.087,-0.089
-0.038,-0.02,0.019,0.029,-0.028,0.0,-0.065,-0.128,-0.15,-0.116,-0.097,-0.09
-0.034,-0.02,0.013,0.027,-0.023,-0.003,-0.065,-0.13,-0.15,-0.121,-0.095,-0.086
-0.028,-0.02,0.009,0.024,-0.018,-0.005,-0.065,-0.13,-0.152,-0.119,-0.095,-0.085
-0.051,-0.021,0.031,0.036,-0.041,0.005,-0.065,-0.134,-0.156,-0.12,-0.093,-0.085
-0.059,-0.017,0.042,0.038,-0.05,0.012,-0.064,-0.135,-0.158,-0.12,-0.089,-0.092
-0.047,-0.015,0.032,0.031,-0.039,0.009,-0.066,-0.135,-0.161,-0.12,-0.09,-0.096
-0.044,-0.015,0.03,0.029,-0.037,0.007,-0.07,-0.134,-0.164,-0.124,-0.093,-0.095
-0.041,-0.015,0.026,0.028,-0.033,0.005,-0.069,-0.142,-0.166,-0.125,-0.095,-0.095
-0.032,-0.014,0.018,0.023,-0.024,0.001,-0.073,-0.151,-0.169,-0.127,-0.095,-0.095
-0.044,-0.016,0.028,0.03,-0.035,0.005,-0.075,-0.149,-0.172,-0.13,-0.1,-0.094
-0.048,-0.029,0.02,0.038,-0.034,-0.004,-0.075,-0.15,-0.174,-0.131,-0.1,-0.098
-0.017,-0.031,-0.014,0.024,-0.002,-0.022,-0.071,-0.15,-0.178,-0.135,-0.1,-0.1
-0.021,-0.029,-0.009,0.025,-0.006,-0.019,-0.07,-0.15,-0.18,-0.138,-0.1,-0.1
-0.035,-0.031,0.004,0.033,-0.019,-0.013,-0.07,-0.147,-0.178,-0.142,-0.1,-0.104
-0.039,-0.03,0.009,0.034,-0.024,-0.01,-0.065,-0.14,-0.173,-0.145,-0.1,-0.106
-0.056,-0.03,0.025,0.043,-0.04,-0.002,-0.066,-0.137,-0.171,-0.143,-0.1,-0.105
-0.061,-0.025,0.036,0.042,-0.048,0.005,-0.063,-0.131,-0.166,-0.136,-0.1,-0.098
-0.062,-0.025,0.036,0.043,-0.048,0.005,-0.062,-0.129,-0.162,-0.133,-0.095,-0.09
-0.052,-0.019,0.033,0.035,-0.042,0.007,-0.045,-0.121,-0.16,-0.128,-0.085,-0.082
-0.028,0.016,0.044,0.006,-0.036,0.03,-0.016,-0.102,-0.137,-0.117,-0.078,-0.074
0.001,0.041,0.041,-0.021,-0.02,0.041,-0.005,-0.08,-0.109,-0.108,-0.069,-0.068
0.0,0.061,0.061,-0.031,-0.031,0.061,-0.035,-0.098,-0.086,-0.085,-0.056,-0.06
0.004,0.096,0.093,-0.05,-0.045,0.094,-0.069,-0.125,-0.087,-0.068,-0.047,-0.045
0.035,0.113,0.079,-0.074,-0.022,0.096,-0.072,-0.108,-0.067,-0.041,-0.043,-0.019
-0.002,0.062,0.063,-0.03,-0.033,0.062,-0.079,-0.127,-0.113,-0.071,-0.048,-0.024
-0.033,0.018,0.051,0.007,-0.042,0.034,-0.092,-0.157,-0.142,-0.099,-0.044,-0.046
-0.046,-0.016,0.03,0.031,-0.038,0.007,-0.081,-0.147,-0.164,-0.122,-0.086,-0.091
-0.066,-0.04,0.025,0.053,-0.045,-0.008,-0.075,-0.177,-0.215,-0.156,-0.113,-0.116
-0.039,-0.063,-0.024,0.052,-0.008,-0.043,-0.072,-0.166,-0.198,-0.148,-0.11,-0.114
-0.036,-0.077,-0.04,0.057,0.003,-0.058,-0.05,-0.136,-0.219,-0.168,-0.127,-0.125
-0.048,-0.065,-0.017,0.057,-0.015,-0.041,-0.024,-0.116,-0.161,-0.135,-0.105,-0.113
-0.081,-0.096,-0.015,0.088,-0.033,-0.055,0.081,0.089,-0.2,-0.196,-0.164,-0.153
-0.059,0.026,0.085,0.016,-0.072,0.056,0.056,0.033,-0.009,-0.088,-0.094,-0.105
0.149,0.211,0.062,-0.18,0.043,0.136,-0.239,-0.27,0.227,0.241,0.196,0.12
0.53,0.711,0.181,-0.621,0.174,0.446,-0.592,-0.414,1.289,1.222,0.907,0.657
0.647,0.832,0.186,-0.74,0.231,0.509,-0.593,-0.558,1.901,1.659,1.208,0.896
0.251,0.107,-0.145,-0.179,0.197,-0.019,-0.198,-0.48,-0.005,0.263,0.354,0.334
-0.032,-0.197,-0.165,0.115,0.067,-0.181,0.056,-0.218,-0.798,-0.406,-0.167,-0.064
-0.051,-0.213,-0.162,0.132,0.056,-0.187,0.1,0.123,-0.363,-0.248,-0.17,-0.137
-0.034,-0.193,-0.159,0.114,0.062,-0.175,0.072,0.318,-0.315,-0.247,-0.162,-0.149
-0.017,-0.092,-0.075,0.055,0.029,-0.084,0.032,0.144,-0.119,-0.116,-0.104,-0.117
-0.041,-0.086,-0.045,0.064,0.002,-0.065,0.019,0.046,-0.139,-0.132,-0.108,-0.12
-0.027,-0.054,-0.027,0.041,0.0,-0.04,0.012,0.059,-0.074,-0.084,-0.082,-0.098
-0.018,-0.054,-0.036,0.036,0.009,-0.045,0.017,0.051,-0.057,-0.075,-0.081,-0.096
-0.016,-0.038,-0.022,0.028,0.003,-0.03,0.009,0.062,-0.028,-0.053,-0.062,-0.085
-0.006,-0.027,-0.021,0.016,0.008,-0.024,0.01,0.059,0.02,-0.018,-0.045,-0.078
-0.001,-0.014,-0.013,0.008,0.006,-0.013,0.011,0.076,0.042,-0.01,-0.033,-0.068
0.015,0.004,-0.011,-0.009,0.013,-0.003,0.018,0.099,0.094,0.018,-0.017,-0.056
0.04,0.014,-0.026,-0.027,0.032,-0.006,0.028,0.13,0.142,0.058,0.008,-0.038
0.077,0.052,-0.025,-0.064,0.051,0.013,0.033,0.175,0.22,0.117,0.045,-0.017
0.104,0.081,-0.023,-0.092,0.063,0.029,0.048,0.233,0.301,0.163,0.067,0.002
0.143,0.123,-0.02,-0.133,0.081,0.052,0.062,0.311,0.408,0.237,0.113,0.039
0.191,0.174,-0.016,-0.182,0.103,0.079,0.072,0.403,0.529,0.325,0.173,0.076
0.224,0.207,-0.016,-0.215,0.12,0.095,0.097,0.5,0.673,0.431,0.24,0.122
0.26,0.274,0.014,-0.267,0.123,0.143,0.132,0.599,0.801,0.529,0.309,0.171
0.302,0.335,0.032,-0.319,0.134,0.183,0.168,0.677,0.91,0.622,0.381,0.222
0.324,0.38,0.056,-0.353,0.134,0.218,0.193,0.702,0.966,0.671,0.424,0.255
0.291,0.399,0.108,-0.345,0.091,0.253,0.199,0.67,0.911,0.649,0.418,0.255
0.249,0.36,0.111,-0.304,0.068,0.235,0.199,0.549,0.728,0.55,0.368,0.229
0.188,0.287,0.099,-0.238,0.044,0.193,0.184,0.381,0.481,0.364,0.252,0.163
0.095,0.188,0.093,-0.142,0.0,0.14,0.146,0.237,0.259,0.2,0.143,0.085
0.027,0.108,0.082,-0.068,-0.028,0.095,0.098,0.112,0.091,0.077,0.062,0.016
-0.017,0.058,0.075,-0.021,-0.046,0.066,0.057,0.027,-0.005,-0.009,-0.003,-0.032
-0.039,0.025,0.064,0.006,-0.052,0.045,0.027,-0.028,-0.063,-0.055,-0.041,-0.061
-0.046,0.01,0.056,0.018,-0.052,0.033,0.014,-0.066,-0.092,-0.078,-0.065,-0.079
-0.042,0.001,0.043,0.02,-0.043,0.022,0.011,-0.081,-0.109,-0.093,-0.065,-0.08
-0.041,-0.002,0.039,0.021,-0.04,0.019,0.006,-0.094,-0.136,-0.112,-0.065,-0.08
-0.035,-0.007,0.028,0.021,-0.031,0.01,0.001,-0.096,-0.135,-0.11,-0.065,-0.08
-0.043,-0.011,0.031,0.027,-0.037,0.01,-0.003,-0.094,-0.136,-0.108,-0.064,-0.08
-0.079,-0.015,0.063,0.047,-0.071,0.024,-0.005,-0.096,-0.141,-0.105,-0.067,-0.08
-0.083,-0.021,0.063,0.052,-0.073,0.021,-0.005,-0.094,-0.139,-0.104,-0.07,-0.08
-0.081,-0.026,0.055,0.053,-0.068,0.014,-0.009,-0.096,-0.141,-0.106,-0.075,-0.08
-0.087,-0.033,0.054,0.059,-0.07,0.01,-0.011,-0.095,-0.14,-0.105,-0.075,-0.08
-0.08,-0.033,0.047,0.056,-0.063,0.006,-0.009,-0.095,-0.14,-0.105,-0.075,-0.08
-0.073,-0.028,0.045,0.05,-0.059,0.008,-0.018,-0.095,-0.14,-0.105,-0.075,-0.08
-0.071,-0.025,0.046,0.047,-0.058,0.01,-0.023,-0.095,-0.14,-0.105,-0.075,-0.084
-0.065,-0.022,0.043,0.043,-0.054,0.01,-0.02,-0.095,-0.14,-0.105,-0.075,-0.085
-0.068,-0.017,0.051,0.042,-0.059,0.017,-0.02,-0.095,-0.146,-0.111,-0.076,-0.085
-0.077,-0.015,0.062,0.046,-0.069,0.023,-0.016,-0.097,-0.152,-0.117,-0.081,-0.085
-0.076,-0.02,0.057,0.048,-0.066,0.018,-0.015,-0.101,-0.158,-0.124,-0.08,-0.085
-0.076,-0.021,0.055,0.048,-0.065,0.017,-0.015,-0.104,-0.16,-0.124,-0.083,-0.085
-0.071,-0.019,0.051,0.045,-0.061,0.016,-0.02,-0.108,-0.161,-0.127,-0.085,-0.085
-0.071,-0.021,0.05,0.046,-0.06,0.014,-0.025,-0.111,-0.165,-0.129,-0.085,-0.085
-0.065,-0.019,0.047,0.042,-0.056,0.014,-0.028,-0.114,-0.165,-0.132,-0.089,-0.085
-0.065,-0.025,0.041,0.045,-0.053,0.008,-0.035,-0.115,-0.172,-0.152,-0.09,-0.085
-0.073,-0.035,0.038,0.054,-0.055,0.001,-0.032,-0.114,-0.181,-0.156,-0.089,-0.085
-0.068,-0.035,0.033,0.051,-0.05,-0.001,-0.03,-0.118,-0.188,-0.156,-0.091,-0.089
-0.086,-0.035,0.051,0.06,-0.068,0.008,-0.03,-0.121,-0.19,-0.162,-0.098,-0.09
-0.1,-0.035,0.065,0.067,-0.082,0.015,-0.031,-0.119,-0.191,-0.158,-0.1,-0.09
-0.09,-0.035,0.055,0.063,-0.072,0.01,-0.029,-0.12,-0.195,-0.155,-0.1,-0.09
-0.081,-0.033,0.049,0.057,-0.065,0.008,-0.032,-0.12,-0.195,-0.155,-0.1,-0.09
-0.073,-0.029,0.044,0.051,-0.059,0.007,-0.049,-0.12,-0.199,-0.153,-0.1,-0.09
-0.063,-0.03,0.032,0.046,-0.048,0.001,-0.049,-0.122,-0.203,-0.149,-0.1,-0.09
-0.074,-0.026,0.048,0.05,-0.061,0.011,-0.043,-0.125,-0.205,-0.15,-0.101,-0.09
-0.092,-0.025,0.067,0.058,-0.079,0.021,-0.042,-0.125,-0.205,-0.149,-0.105,-0.09
-0.09,-0.025,0.064,0.057,-0.077,0.02,-0.035,-0.125,-0.205,-0.15,-0.105,-0.09
-0.094,-0.031,0.063,0.062,-0.078,0.016,-0.036,-0.126,-0.21,-0.149,-0.107,-0.09
-0.093,-0.033,0.06,0.063,-0.076,0.013,-0.04,-0.123,-0.21,-0.153,-0.111,-0.086
-0.089,-0.029,0.06,0.059,-0.075,0.016,-0.04,-0.13,-0.21,-0.165,-0.11,-0.085
-0.087,-0.031,0.056,0.059,-0.072,0.012,-0.04,-0.137,-0.21,-0.165,-0.107,-0.085
-0.082,-0.026,0.056,0.054,-0.068,0.014,-0.04,-0.135,-0.21,-0.166,-0.101,-0.08
-0.087,-0.025,0.062,0.056,-0.074,0.018,-0.04,-0.129,-0.211,-0.165,-0.097,-0.08
-0.085,-0.025,0.06,0.055,-0.072,0.017,-0.036,-0.129,-0.209,-0.165,-0.092,-0.079
-0.075,-0.016,0.059,0.045,-0.066,0.021,-0.026,-0.123,-0.211,-0.164,-0.088,-0.075
-0.078,0.002,0.08,0.038,-0.079,0.041,-0.02,-0.108,-0.191,-0.147,-0.083,-0.075
-0.066,0.04,0.105,0.013,-0.086,0.072,0.01,-0.076,-0.169,-0.135,-0.076,-0.07
-0.047,0.056,0.103,-0.005,-0.075,0.079,0.013,-0.057,-0.157,-0.126,-0.064,-0.071
-0.043,0.089,0.132,-0.023,-0.088,0.111,-0.046,-0.12,-0.147,-0.119,-0.055,-0.056
-0.014,0.157,0.171,-0.072,-0.092,0.163,-0.068,-0.157,-0.141,-0.114,-0.047,-0.019
0.009,0.138,0.129,-0.074,-0.06,0.133,-0.064,-0.147,-0.133,-0.108,-0.041,-0.024
-0.019,0.078,0.097,-0.03,-0.059,0.087,-0.067,-0.15,-0.165,-0.107,-0.041,-0.032
-0.061,0.038,0.098,0.011,-0.08,0.068,-0.072,-0.151,-0.165,-0.118,-0.055,-0.049
-0.094,-0.019,0.075,0.056,-0.084,0.028,-0.068,-0.157,-0.217,-0.181,-0.108,-0.096
-0.104,-0.026,0.078,0.065,-0.09,0.025,-0.069,-0.176,-0.213,-0.171,-0.113,-0.09
-0.103,-0.054,0.048,0.078,-0.075,-0.003,-0.052,-0.149,-0.23,-0.188,-0.127,-0.106
-0.099,-0.041,0.058,0.069,-0.078,0.009,-0.045,-0.151,-0.207,-0.175,-0.114,-0.102
-0.098,-0.064,0.034,0.081,-0.066,-0.015,0.027,-0.041,-0.181,-0.181,-0.127,-0.12
-0.087,-0.038,0.049,0.062,-0.068,0.006,0.124,0.116,-0.164,-0.208,-0.167,-0.136
-0.025,0.118,0.143,-0.046,-0.085,0.13,-0.046,-0.116,0.061,-0.024,-0.02,-0.022
0.242,0.406,0.164,-0.324,0.038,0.284,-0.408,-0.337,0.492,0.495,0.413,0.306
0.634,0.926,0.293,-0.78,0.17,0.609,-0.671,-0.48,1.807,1.549,1.143,0.861
0.52,0.612,0.093,-0.566,0.213,0.352,-0.479,-0.582,1.293,1.171,0.927,0.732
0.078,-0.076,-0.153,-0.001,0.116,-0.115,-0.087,-0.419,-0.625,-0.212,0.05,0.129
-0.084,-0.164,-0.081,0.124,-0.001,-0.122,0.063,-0.145,-0.587,-0.367,-0.167,-0.075
-0.082,-0.177,-0.095,0.129,0.007,-0.136,0.09,0.187,-0.325,-0.273,-0.182,-0.136
-0.05,-0.108,-0.058,0.079,0.004,-0.082,0.067,0.227,-0.224,-0.198,-0.143,-0.103
-0.043,-0.049,-0.006,0.046,-0.019,-0.027,0.047,0.085,-0.093,-0.128,-0.097,-0.079
-0.059,-0.028,0.03,0.043,-0.044,0.001,0.039,0.055,-0.12,-0.141,-0.097,-0.086
-0.055,0.004,0.058,0.025,-0.056,0.031,0.04,0.04,-0.044,-0.082,-0.073,-0.071
-0.047,0.004,0.052,0.021,-0.05,0.028,0.045,0.054,-0.054,-0.093,-0.077,-0.076
-0.035,0.023,0.058,0.005,-0.046,0.04,0.045,0.067,-0.001,-0.054,-0.059,-0.063
-0.03,0.023,0.053,0.003,-0.042,0.037,0.051,0.089,0.008,-0.032,-0.043,-0.057
-0.012,0.045,0.056,-0.017,-0.034,0.05,0.05,0.114,0.058,-0.007,-0.016,-0.041
0.015,0.071,0.056,-0.043,-0.021,0.063,0.058,0.142,0.11,0.015,-0.008,-0.031
0.024,0.085,0.061,-0.055,-0.019,0.073,0.064,0.186,0.166,0.055,0.007,-0.014
0.046,0.108,0.063,-0.077,-0.009,0.085,0.068,0.243,0.253,0.116,0.047,0.016
0.075,0.141,0.066,-0.108,0.004,0.103,0.082,0.322,0.343,0.184,0.089,0.04
0.119,0.189,0.07,-0.154,0.025,0.129,0.101,0.41,0.464,0.266,0.139,0.074
0.179,0.248,0.07,-0.214,0.054,0.159,0.131,0.517,0.604,0.364,0.208,0.121
0.22,0.312,0.093,-0.266,0.063,0.202,0.171,0.626,0.734,0.465,0.284,0.171
0.272,0.372,0.1,-0.322,0.086,0.235,0.198,0.723,0.848,0.554,0.347,0.211
0.302,0.43,0.128,-0.366,0.087,0.279,0.226,0.778,0.931,0.628,0.399,0.253
0.294,0.467,0.173,-0.381,0.06,0.32,0.248,0.761,0.943,0.643,0.426,0.287
0.257,0.454,0.197,-0.356,0.029,0.326,0.244,0.675,0.843,0.593,0.406,0.273
0.188,0.403,0.215,-0.296,-0.014,0.309,0.219,0.513,0.617,0.455,0.322,0.223
0.117,0.317,0.2,-0.217,-0.042,0.258,0.178,0.331,0.373,0.279,0.203,0.145
0.044,0.219,0.174,-0.132,-0.065,0.196,0.127,0.181,0.175,0.129,0.094,0.068
-0.003,0.146,0.149,-0.072,-0.076,0.147,0.077,0.066,0.037,0.02,0.014,0.011
-0.038,0.098,0.137,-0.03,-0.088,0.117,0.04,-0.007,-0.037,-0.041,-0.028,-0.029
-0.059,0.069,0.128,-0.005,-0.094,0.098,0.018,-0.05,-0.081,-0.077,-0.053,-0.043
-0.058,0.061,0.119,-0.001,-0.089,0.09,0.004,-0.08,-0.102,-0.092,-0.068,-0.051
-0.064,0.057,0.121,0.004,-0.093,0.088,-0.006,-0.101,-0.118,-0.104,-0.07,-0.059
-0.068,0.051,0.118,0.008,-0.093,0.084,-0.023,-0.105,-0.125,-0.12,-0.07,-0.06
-0.07,0.045,0.115,0.012,-0.093,0.08,-0.036,-0.105,-0.126,-0.12,-0.07,-0.06
-0.075,0.04,0.115,0.017,-0.095,0.077,-0.035,-0.105,-0.13,-0.115,-0.07,-0.06
-0.068,0.045,0.113,0.011,-0.091,0.079,-0.035,-0.105,-0.132,-0.114,-0.07,-0.06
-0.056,0.053,0.108,0.001,-0.082,0.08,-0.034,-0.105,-0.136,-0.109,-0.07,-0.06
-0.057,0.055,0.112,0.001,-0.085,0.083,-0.036,-0.105,-0.135,-0.111,-0.074,-0.064
-0.052,0.055,0.106,-0.002,-0.079,0.08,-0.032,-0.105,-0.135,-0.115,-0.075,-0.065
-0.063,0.055,0.118,0.004,-0.091,0.086,-0.028,-0.105,-0.135,-0.115,-0.075,-0.065
-0.088,0.055,0.142,0.016,-0.115,0.098,-0.035,-0.106,-0.135,-0.116,-0.075,-0.07
-0.083,0.055,0.138,0.014,-0.111,0.096,-0.036,-0.105,-0.135,-0.114,-0.076,-0.07
-0.081,0.054,0.135,0.013,-0.108,0.095,-0.034,-0.106,-0.135,-0.116,-0.081,-0.071
-0.082,0.05,0.133,0.016,-0.108,0.091,-0.031,-0.106,-0.141,-0.117,-0.085,-0.075
-0.08,0.05,0.129,0.015,-0.105,0.09,-0.029,-0.114,-0.148,-0.127,-0.088,-0.075
-0.078,0.05,0.128,0.014,-0.103,0.089,-0.031,-0.13,-0.152,-0.145,-0.091,-0.078
-0.075,0.05,0.124,0.012,-0.099,0.086,-0.04,-0.13,-0.155,-0.145,-0.094,-0.08
-0.072,0.051,0.122,0.01,-0.097,0.086,-0.049,-0.13,-0.161,-0.146,-0.097,-0.08
-0.071,0.047,0.118,0.012,-0.095,0.083,-0.05,-0.13,-0.167,-0.151,-0.1,-0.077
-0.072,0.045,0.116,0.013,-0.095,0.08,-0.05,-0.13,-0.173,-0.15,-0.1,-0.072
-0.068,0.045,0.114,0.011,-0.091,0.079,-0.05,-0.13,-0.175,-0.15,-0.102,-0.069
-0.085,0.042,0.126,0.021,-0.106,0.083,-0.05,-0.13,-0.178,-0.15,-0.106,-0.066
-0.102,0.039,0.141,0.031,-0.121,0.09,-0.051,-0.13,-0.181,-0.15,-0.105,-0.061
-0.096,0.041,0.137,0.027,-0.116,0.089,-0.058,-0.131,-0.184,-0.15,-0.105,-0.061
-0.089,0.044,0.133,0.022,-0.111,0.088,-0.064,-0.143,-0.186,-0.15,-0.105,-0.068
-0.084,0.047,0.131,0.019,-0.108,0.088,-0.066,-0.146,-0.189,-0.15,-0.105,-0.074
-0.074,0.05,0.123,0.012,-0.098,0.086,-0.069,-0.144,-0.192,-0.155,-0.105,-0.079
-0.077,0.052,0.13,0.012,-0.104,0.091,-0.071,-0.145,-0.194,-0.155,-0.104,-0.08
-0.084,0.056,0.14,0.014,-0.113,0.097,-0.075,-0.145,-0.197,-0.156,-0.106,-0.08
-0.088,0.052,0.141,0.018,-0.115,0.096,-0.074,-0.145,-0.201,-0.16,-0.11,-0.085
-0.089,0.05,0.138,0.019,-0.113,0.094,-0.069,-0.145,-0.197,-0.16,-0.11,-0.085
-0.085,0.05,0.135,0.017,-0.11,0.092,-0.071,-0.145,-0.194,-0.158,-0.11,-0.085
-0.089,0.046,0.135,0.021,-0.113,0.091,-0.067,-0.145,-0.195,-0.154,-0.11,-0.085
-0.087,0.045,0.132,0.021,-0.11,0.088,-0.065,-0.145,-0.191,-0.156,-0.11,-0.085
-0.085,0.045,0.13,0.02,-0.108,0.087,-0.065,-0.145,-0.19,-0.16,-0.107,-0.085
-0.077,0.045,0.121,0.015,-0.099,0.083,-0.062,-0.143,-0.19,-0.161,-0.104,-0.085
-0.091,0.045,0.136,0.023,-0.114,0.09,-0.057,-0.139,-0.185,-0.16,-0.106,-0.085
-0.107,0.045,0.151,0.031,-0.13,0.098,-0.055,-0.141,-0.186,-0.161,-0.105,-0.082
-0.098,0.045,0.143,0.026,-0.121,0.094,-0.05,-0.135,-0.184,-0.16,-0.106,-0.077
-0.097,0.045,0.142,0.026,-0.12,0.093,-0.047,-0.136,-0.178,-0.16,-0.104,-0.074
-0.085,0.047,0.132,0.019,-0.109,0.089,-0.043,-0.134,-0.182,-0.154,-0.096,-0.071
-0.074,0.075,0.149,0.0,-0.112,0.112,-0.028,-0.115,-0.174,-0.136,-0.088,-0.066
-0.061,0.109,0.17,-0.024,-0.115,0.139,-0.01,-0.08,-0.162,-0.128,-0.083,-0.065
-0.057,0.12,0.177,-0.032,-0.118,0.148,-0.007,-0.072,-0.145,-0.112,-0.075,-0.054
-0.039,0.153,0.192,-0.057,-0.116,0.172,-0.041,-0.123,-0.145,-0.108,-0.069,-0.05
-0.014,0.205,0.219,-0.096,-0.117,0.212,-0.062,-0.135,-0.131,-0.09,-0.065,-0.05
-0.013,0.177,0.191,-0.082,-0.102,0.184,-0.064,-0.123,-0.122,-0.076,-0.062,-0.049
-0.029,0.116,0.145,-0.044,-0.087,0.13,-0.081,-0.152,-0.153,-0.113,-0.06,-0.052
-0.078,0.068,0.146,0.004,-0.112,0.107,-0.082,-0.165,-0.149,-0.12,-0.07,-0.047
-0.075,0.032,0.107,0.022,-0.091,0.069,-0.079,-0.156,-0.208,-0.164,-0.114,-0.08
-0.08,0.034,0.115,0.023,-0.098,0.074,-0.089,-0.173,-0.199,-0.172,-0.128,-0.102
-0.113,0.0,0.113,0.056,-0.113,0.056,-0.066,-0.145,-0.224,-0.191,-0.148,-0.115
-0.096,0.02,0.116,0.038,-0.106,0.068,-0.065,-0.146,-0.175,-0.176,-0.133,-0.106
-0.115,-0.034,0.081,0.075,-0.098,0.023,0.025,0.004,-0.185,-0.188,-0.16,-0.128
-0.102,0.016,0.118,0.042,-0.11,0.067,0.088,0.1,-0.118,-0.164,-0.151,-0.121
0.006,0.194,0.188,-0.1,-0.091,0.19,-0.152,-0.192,0.104,0.043,0.033,0.024
0.342,0.549,0.207,-0.446,0.068,0.378,-0.503,-0.388,0.689,0.709,0.574,0.445
0.679,1.025,0.346,-0.852,0.166,0.686,-0.709,-0.605,1.888,1.681,1.26,0.951
0.445,0.512,0.067,-0.479,0.189,0.289,-0.459,-0.716,0.84,0.918,0.793,0.652
0.021,-0.155,-0.176,0.067,0.099,-0.165,-0.115,-0.553,-0.78,-0.338,-0.055,0.065
-0.118,-0.189,-0.071,0.153,-0.023,-0.13,-0.032,-0.216,-0.497,-0.33,-0.176,-0.092
-0.082,-0.153,-0.071,0.118,-0.005,-0.112,0.017,0.151,-0.325,-0.267,-0.181,-0.125
-0.04,-0.053,-0.013,0.047,-0.013,-0.033,0.014,0.134,-0.175,-0.176,-0.143,-0.097
-0.053,-0.016,0.037,0.034,-0.044,0.01,0.014,0.084,-0.102,-0.127,-0.107,-0.093
-0.065,0.007,0.072,0.029,-0.068,0.039,0.017,0.104,-0.101,-0.122,-0.099,-0.089
-0.061,0.023,0.084,0.019,-0.073,0.053,0.013,0.093,-0.038,-0.077,-0.085,-0.08
-0.048,0.026,0.074,0.011,-0.061,0.049,0.018,0.109,-0.05,-0.077,-0.087,-0.079
-0.041,0.037,0.078,0.001,-0.06,0.058,0.018,0.099,0.012,-0.041,-0.069,-0.069
-0.02,0.049,0.069,-0.015,-0.044,0.059,0.029,0.121,0.025,-0.034,-0.055,-0.065
-0.009,0.062,0.071,-0.027,-0.04,0.066,0.033,0.147,0.08,-0.001,-0.035,-0.046
-0.007,0.066,0.073,-0.03,-0.04,0.069,0.041,0.19,0.124,0.029,-0.019,-0.036
0.018,0.093,0.075,-0.056,-0.029,0.084,0.048,0.239,0.183,0.074,0.013,-0.018
0.05,0.125,0.075,-0.088,-0.013,0.1,0.053,0.301,0.265,0.126,0.049,0.011
0.086,0.16,0.075,-0.124,0.005,0.117,0.079,0.393,0.364,0.201,0.093,0.045
0.126,0.201,0.075,-0.164,0.025,0.138,0.108,0.496,0.478,0.288,0.149,0.082
0.184,0.263,0.079,-0.224,0.053,0.171,0.126,0.615,0.608,0.376,0.209,0.126
0.24,0.332,0.092,-0.286,0.074,0.211,0.153,0.734,0.732,0.475,0.274,0.176
0.281,0.395,0.114,-0.338,0.083,0.254,0.197,0.844,0.848,0.575,0.343,0.227
0.307,0.458,0.151,-0.383,0.078,0.304,0.232,0.902,0.918,0.641,0.401,0.275
0.306,0.481,0.175,-0.394,0.065,0.328,0.235,0.875,0.898,0.65,0.423,0.291
0.276,0.461,0.186,-0.369,0.045,0.323,0.235,0.744,0.785,0.589,0.394,0.272
0.196,0.389,0.193,-0.293,0.001,0.291,0.207,0.532,0.567,0.435,0.301,0.216
0.113,0.279,0.165,-0.196,-0.026,0.222,0.156,0.332,0.339,0.261,0.173,0.131
0.035,0.183,0.148,-0.109,-0.057,0.165,0.116,0.166,0.16,0.12,0.068,0.054
-0.017,0.107,0.123,-0.045,-0.07,0.115,0.068,0.048,0.036,0.021,-0.003,-0.007
-0.033,0.063,0.096,-0.015,-0.065,0.079,0.028,-0.01,-0.035,-0.044,-0.048,-0.041
-0.059,0.04,0.099,0.009,-0.079,0.069,0.011,-0.05,-0.076,-0.079,-0.073,-0.057
-0.063,0.03,0.093,0.016,-0.078,0.061,-0.001,-0.082,-0.098,-0.095,-0.087,-0.067
-0.065,0.025,0.09,0.02,-0.077,0.057,-0.016,-0.096,-0.112,-0.112,-0.098,-0.065
-0.069,0.017,0.086,0.025,-0.078,0.051,-0.025,-0.101,-0.116,-0.115,-0.1,-0.065
-0.071,0.011,0.082,0.03,-0.077,0.046,-0.025,-0.105,-0.114,-0.115,-0.1,-0.065
-0.075,0.005,0.08,0.035,-0.078,0.042,-0.025,-0.101,-0.116,-0.115,-0.103,-0.065
-0.07,0.009,0.08,0.03,-0.075,0.045,-0.025,-0.1,-0.115,-0.115,-0.106,-0.065
-0.069,0.01,0.08,0.029,-0.074,0.045,-0.026,-0.1,-0.116,-0.115,-0.104,-0.068
-0.072,0.01,0.081,0.031,-0.076,0.045,-0.031,-0.096,-0.119,-0.116,-0.1,-0.071
-0.066,0.01,0.077,0.028,-0.071,0.043,-0.03,-0.095,-0.12,-0.12,-0.1,-0.07
-0.074,0.01,0.084,0.032,-0.079,0.047,-0.03,-0.097,-0.121,-0.122,-0.099,-0.07
-0.088,0.008,0.096,0.04,-0.093,0.052,-0.031,-0.1,-0.126,-0.126,-0.095,-0.07
-0.086,0.004,0.09,0.041,-0.089,0.047,-0.03,-0.1,-0.124,-0.129,-0.095,-0.07
-0.086,0.002,0.087,0.042,-0.087,0.044,-0.031,-0.104,-0.128,-0.13,-0.097,-0.07
-0.085,-0.001,0.084,0.043,-0.084,0.041,-0.034,-0.109,-0.137,-0.134,-0.103,-0.069
-0.083,-0.004,0.079,0.044,-0.081,0.037,-0.035,-0.112,-0.136,-0.135,-0.109,-0.077
-0.09,-0.006,0.084,0.047,-0.086,0.039,-0.039,-0.117,-0.136,-0.137,-0.115,-0.086
-0.107,-0.01,0.097,0.058,-0.102,0.044,-0.04,-0.12,-0.133,-0.14,-0.115,-0.084
-0.112,-0.015,0.097,0.064,-0.104,0.041,-0.042,-0.123,-0.131,-0.141,-0.115,-0.088
-0.106,-0.018,0.088,0.062,-0.097,0.035,-0.046,-0.127,-0.128,-0.145,-0.115,-0.09
-0.106,-0.023,0.083,0.064,-0.094,0.029,-0.045,-0.13,-0.139,-0.147,-0.115,-0.089
-0.101,-0.025,0.076,0.062,-0.088,0.025,-0.045,-0.133,-0.16,-0.15,-0.115,-0.094
-0.096,-0.026,0.069,0.061,-0.082,0.021,-0.045,-0.136,-0.16,-0.153,-0.115,-0.095
-0.096,-0.03,0.066,0.063,-0.081,0.017,-0.045,-0.139,-0.16,-0.155,-0.114,-0.095
-0.093,-0.03,0.063,0.061,-0.078,0.016,-0.045,-0.142,-0.16,-0.155,-0.117,-0.1
-0.097,-0.037,0.06,0.067,-0.078,0.011,-0.045,-0.145,-0.16,-0.155,-0.13,-0.1
-0.096,-0.038,0.058,0.066,-0.077,0.01,-0.045,-0.145,-0.158,-0.155,-0.13,-0.101
-0.087,-0.035,0.052,0.06,-0.069,0.009,-0.045,-0.145,-0.154,-0.155,-0.125,-0.105
-0.103,-0.031,0.071,0.067,-0.087,0.02,-0.045,-0.145,-0.155,-0.155,-0.124,-0.105
-0.113,-0.03,0.083,0.071,-0.098,0.026,-0.045,-0.145,-0.155,-0.153,-0.12,-0.105
-0.112,-0.043,0.07,0.078,-0.091,0.013,-0.045,-0.149,-0.155,-0.15,-0.12,-0.105
-0.109,-0.046,0.063,0.078,-0.086,0.008,-0.045,-0.15,-0.155,-0.15,-0.12,-0.105
-0.097,-0.044,0.053,0.071,-0.075,0.004,-0.045,-0.15,-0.155,-0.15,-0.12,-0.108
-0.088,-0.043,0.044,0.065,-0.066,0.0,-0.045,-0.15,-0.155,-0.15,-0.12,-0.111
-0.096,-0.039,0.057,0.067,-0.077,0.009,-0.045,-0.15,-0.155,-0.15,-0.12,-0.114
-0.108,-0.041,0.067,0.074,-0.088,0.013,-0.04,-0.149,-0.155,-0.15,-0.12,-0.115
-0.109,-0.048,0.061,0.078,-0.085,0.006,-0.04,-0.145,-0.155,-0.15,-0.116,-0.115
-0.113,-0.052,0.061,0.082,-0.087,0.004,-0.039,-0.143,-0.153,-0.151,-0.115,-0.116
-0.104,-0.049,0.055,0.076,-0.08,0.003,-0.034,-0.139,-0.146,-0.15,-0.115,-0.115
-0.102,-0.046,0.057,0.073,-0.079,0.005,-0.037,-0.136,-0.138,-0.15,-0.11,-0.115
-0.094,-0.046,0.048,0.07,-0.071,0.001,-0.03,-0.136,-0.133,-0.149,-0.11,-0.115
-0.093,-0.031,0.061,0.062,-0.076,0.015,-0.015,-0.12,-0.124,-0.136,-0.109,-0.11
-0.09,0.008,0.098,0.04,-0.094,0.053,0.018,-0.082,-0.117,-0.124,-0.093,-0.101
-0.069,0.023,0.092,0.022,-0.081,0.057,0.019,-0.063,-0.102,-0.111,-0.079,-0.093
-0.071,0.04,0.111,0.015,-0.091,0.075,-0.033,-0.115,-0.092,-0.102,-0.07,-0.084
-0.038,0.106,0.144,-0.034,-0.092,0.125,-0.043,-0.153,-0.086,-0.107,-0.065,-0.078
-0.018,0.101,0.119,-0.042,-0.068,0.11,-0.044,-0.15,-0.071,-0.102,-0.065,-0.072
-0.05,0.039,0.089,0.005,-0.069,0.063,-0.062,-0.148,-0.104,-0.109,-0.065,-0.065
-0.073,0.006,0.079,0.033,-0.076,0.042,-0.065,-0.152,-0.111,-0.107,-0.076,-0.079
-0.096,-0.053,0.043,0.074,-0.069,-0.005,-0.055,-0.154,-0.16,-0.152,-0.117,-0.111
-0.11,-0.071,0.039,0.09,-0.074,-0.015,-0.057,-0.176,-0.165,-0.159,-0.125,-0.115
-0.116,-0.094,0.022,0.105,-0.069,-0.036,-0.045,-0.167,-0.18,-0.174,-0.144,-0.128
-0.115,-0.089,0.026,0.102,-0.07,-0.031,-0.05,-0.163,-0.174,-0.17,-0.146,-0.127
-0.116,-0.104,0.011,0.11,-0.063,-0.046,0.003,-0.08,-0.148,-0.166,-0.153,-0.151
-0.109,-0.097,0.012,0.103,-0.06,-0.043,0.119,0.113,-0.148,-0.209,-0.178,-0.178
-0.052,0.046,0.098,0.003,-0.075,0.071,-0.026,-0.094,0.076,-0.019,-0.043,-0.068
0.224,0.306,0.082,-0.265,0.07,0.194,-0.378,-0.339,0.424,0.449,0.358,0.254
0.649,0.872,0.223,-0.761,0.213,0.548,-0.644,-0.511,1.601,1.504,1.121,0.83
0.573,0.676,0.102,-0.625,0.235,0.389,-0.521,-0.8,1.336,1.318,1.036,0.803
0.095,-0.122,-0.217,0.014,0.156,-0.169,-0.172,-0.722,-0.509,-0.123,0.093,0.155
-0.133,-0.28,-0.146,0.207,0.007,-0.213,-0.033,-0.376,-0.617,-0.379,-0.197,-0.117
-0.121,-0.248,-0.127,0.185,0.003,-0.187,-0.003,0.012,-0.318,-0.266,-0.186,-0.153
-0.065,-0.184,-0.119,0.125,0.027,-0.152,-0.001,0.13,-0.228,-0.2,-0.175,-0.135
-0.063,-0.116,-0.053,0.09,-0.005,-0.085,0.002,0.077,-0.082,-0.106,-0.112,-0.108
-0.067,-0.097,-0.029,0.082,-0.019,-0.063,0.018,0.099,-0.108,-0.138,-0.109,-0.113
-0.044,-0.068,-0.024,0.056,-0.009,-0.046,0.023,0.09,-0.034,-0.083,-0.085,-0.097
-0.029,-0.074,-0.045,0.052,0.008,-0.059,0.032,0.101,-0.039,-0.089,-0.082,-0.097
-0.018,-0.055,-0.037,0.037,0.01,-0.046,0.035,0.101,0.017,-0.047,-0.064,-0.086
-0.014,-0.055,-0.041,0.035,0.014,-0.048,0.041,0.115,0.034,-0.029,-0.056,-0.082
-0.002,-0.042,-0.04,0.022,0.019,-0.041,0.041,0.146,0.073,-0.002,-0.038,-0.066
0.016,-0.024,-0.04,0.004,0.028,-0.031,0.038,0.177,0.118,0.024,-0.022,-0.053
0.026,-0.011,-0.037,-0.007,0.032,-0.024,0.053,0.231,0.167,0.058,-0.002,-0.038
0.047,0.018,-0.029,-0.033,0.038,-0.005,0.069,0.288,0.248,0.116,0.035,-0.015
0.074,0.048,-0.026,-0.061,0.05,0.011,0.077,0.37,0.33,0.169,0.071,0.012
0.113,0.093,-0.019,-0.103,0.066,0.037,0.095,0.472,0.435,0.251,0.122,0.044
0.165,0.153,-0.013,-0.159,0.089,0.07,0.121,0.587,0.555,0.341,0.185,0.084
0.223,0.214,-0.01,-0.219,0.116,0.102,0.152,0.715,0.681,0.437,0.25,0.14
0.267,0.287,0.02,-0.277,0.123,0.153,0.181,0.826,0.789,0.529,0.316,0.191
0.305,0.341,0.037,-0.323,0.134,0.189,0.206,0.904,0.879,0.609,0.385,0.238
0.336,0.383,0.048,-0.36,0.144,0.215,0.228,0.901,0.896,0.63,0.414,0.263
0.292,0.379,0.087,-0.336,0.102,0.233,0.244,0.803,0.821,0.6,0.4,0.26
0.222,0.307,0.086,-0.265,0.068,0.196,0.23,0.617,0.637,0.485,0.33,0.218
0.135,0.206,0.071,-0.171,0.032,0.138,0.19,0.397,0.412,0.307,0.207,0.138
0.043,0.105,0.062,-0.074,-0.01,0.083,0.15,0.22,0.228,0.158,0.098,0.052
-0.016,0.032,0.049,-0.009,-0.032,0.04,0.099,0.083,0.091,0.043,0.015,-0.016
-0.068,-0.024,0.043,0.046,-0.055,0.009,0.058,0.006,0.012,-0.016,-0.039,-0.048
-0.097,-0.062,0.035,0.079,-0.066,-0.013,0.037,-0.033,-0.036,-0.061,-0.067,-0.07
-0.11,-0.08,0.03,0.095,-0.069,-0.025,0.029,-0.072,-0.063,-0.09,-0.082,-0.08
-0.109,-0.087,0.022,0.098,-0.065,-0.032,0.031,-0.09,-0.075,-0.095,-0.088,-0.087
-0.106,-0.09,0.016,0.098,-0.061,-0.036,0.027,-0.096,-0.083,-0.096,-0.091,-0.093
-0.102,-0.09,0.012,0.096,-0.057,-0.039,0.025,-0.095,-0.089,-0.094,-0.09,-0.089
-0.099,-0.09,0.009,0.094,-0.054,-0.04,0.025,-0.095,-0.096,-0.096,-0.09,-0.09
-0.104,-0.094,0.011,0.099,-0.057,-0.041,0.022,-0.095,-0.099,-0.094,-0.09,-0.086
-0.099,-0.095,0.004,0.097,-0.051,-0.045,0.019,-0.095,-0.1,-0.096,-0.09,-0.084
-0.101,-0.095,0.006,0.098,-0.053,-0.045,0.016,-0.095,-0.1,-0.101,-0.087,-0.086
-0.097,-0.095,0.002,0.096,-0.049,-0.046,0.013,-0.095,-0.1,-0.105,-0.084,-0.089
-0.085,-0.108,-0.023,0.097,-0.031,-0.065,0.01,-0.095,-0.1,-0.109,-0.088,-0.09
-0.092,-0.116,-0.024,0.104,-0.033,-0.07,0.008,-0.095,-0.103,-0.112,-0.1,-0.09
-0.095,-0.11,-0.015,0.103,-0.04,-0.062,0.005,-0.095,-0.106,-0.115,-0.1,-0.09
-0.098,-0.108,-0.01,0.103,-0.044,-0.059,0.005,-0.098,-0.108,-0.119,-0.101,-0.089
-0.102,-0.103,-0.002,0.103,-0.05,-0.052,0.005,-0.101,-0.111,-0.122,-0.106,-0.093
-0.103,-0.1,0.003,0.101,-0.053,-0.048,0.005,-0.1,-0.114,-0.126,-0.104,-0.095
-0.106,-0.104,0.002,0.104,-0.054,-0.05,0.005,-0.1,-0.119,-0.131,-0.108,-0.096
-0.106,-0.107,-0.001,0.107,-0.052,-0.054,0.001,-0.1,-0.123,-0.134,-0.11,-0.1
-0.108,-0.112,-0.004,0.11,-0.052,-0.057,0.0,-0.1,-0.129,-0.139,-0.11,-0.1
-0.108,-0.115,-0.007,0.112,-0.05,-0.061,0.0,-0.106,-0.138,-0.14,-0.11,-0.099
-0.11,-0.119,-0.01,0.114,-0.05,-0.064,0.0,-0.112,-0.145,-0.14,-0.11,-0.101
-0.112,-0.124,-0.012,0.118,-0.05,-0.068,0.0,-0.119,-0.15,-0.145,-0.11,-0.098
-0.11,-0.125,-0.015,0.118,-0.047,-0.07,-0.001,-0.125,-0.153,-0.145,-0.11,-0.105
-0.11,-0.127,-0.017,0.119,-0.046,-0.072,-0.008,-0.13,-0.158,-0.146,-0.109,-0.116
-0.11,-0.13,-0.02,0.12,-0.045,-0.075,-0.014,-0.13,-0.16,-0.15,-0.109,-0.111
-0.106,-0.13,-0.023,0.118,-0.042,-0.076,-0.012,-0.131,-0.16,-0.15,-0.118,-0.108
-0.104,-0.13,-0.026,0.118,-0.039,-0.077,-0.007,-0.135,-0.163,-0.15,-0.121,-0.105
-0.109,-0.13,-0.021,0.119,-0.044,-0.075,-0.004,-0.134,-0.165,-0.15,-0.119,-0.1
-0.111,-0.13,-0.019,0.12,-0.046,-0.075,-0.001,-0.137,-0.165,-0.15,-0.116,-0.1
-0.109,-0.13,-0.021,0.12,-0.044,-0.075,0.004,-0.14,-0.165,-0.147,-0.114,-0.1
-0.116,-0.13,-0.014,0.123,-0.051,-0.072,0.004,-0.14,-0.165,-0.142,-0.117,-0.1
-0.112,-0.13,-0.017,0.122,-0.048,-0.073,-0.001,-0.14,-0.165,-0.139,-0.12,-0.1
-0.124,-0.13,-0.007,0.127,-0.058,-0.068,-0.004,-0.14,-0.165,-0.136,-0.117,-0.1
-0.134,-0.129,0.005,0.132,-0.07,-0.062,-0.009,-0.14,-0.164,-0.131,-0.114,-0.1
-0.112,-0.131,-0.019,0.122,-0.046,-0.075,-0.01,-0.14,-0.168,-0.131,-0.115,-0.095
-0.1,-0.132,-0.032,0.116,-0.034,-0.082,-0.011,-0.14,-0.17,-0.14,-0.115,-0.095
-0.1,-0.128,-0.027,0.115,-0.036,-0.078,-0.014,-0.141,-0.17,-0.142,-0.115,-0.094
-0.103,-0.126,-0.023,0.115,-0.04,-0.074,-0.016,-0.137,-0.174,-0.139,-0.114,-0.09
-0.102,-0.12,-0.019,0.111,-0.042,-0.069,-0.013,-0.132,-0.176,-0.137,-0.108,-0.091
-0.11,-0.124,-0.014,0.117,-0.048,-0.068,-0.006,-0.125,-0.174,-0.133,-0.103,-0.088
-0.125,-0.135,-0.01,0.13,-0.057,-0.072,0.006,-0.121,-0.168,-0.13,-0.097,-0.083
-0.105,-0.125,-0.02,0.115,-0.042,-0.073,0.014,-0.114,-0.154,-0.129,-0.091,-0.077
-0.069,-0.088,-0.019,0.079,-0.024,-0.053,0.03,-0.099,-0.131,-0.116,-0.086,-0.073
-0.056,-0.063,-0.006,0.06,-0.025,-0.034,0.053,-0.073,-0.12,-0.106,-0.081,-0.069
-0.059,-0.055,0.004,0.057,-0.032,-0.025,0.024,-0.079,-0.11,-0.093,-0.068,-0.064
-0.069,-0.03,0.039,0.049,-0.054,0.004,-0.008,-0.127,-0.11,-0.089,-0.064,-0.071
-0.042,0.018,0.06,0.011,-0.051,0.039,-0.002,-0.145,-0.103,-0.088,-0.064,-0.068
-0.041,-0.019,0.023,0.03,-0.032,0.002,-0.011,-0.142,-0.106,-0.09,-0.072,-0.075
-0.09,-0.081,0.009,0.085,-0.049,-0.036,-0.03,-0.148,-0.108,-0.098,-0.074,-0.074
-0.111,-0.108,0.003,0.109,-0.057,-0.052,-0.027,-0.152,-0.125,-0.109,-0.084,-0.078
-0.137,-0.16,-0.023,0.149,-0.056,-0.091,-0.017,-0.156,-0.177,-0.15,-0.117,-0.101
-0.123,-0.176,-0.053,0.15,-0.035,-0.114,-0.019,-0.166,-0.153,-0.151,-0.114,-0.095
-0.117,-0.199,-0.082,0.158,-0.017,-0.14,-0.003,-0.141,-0.188,-0.182,-0.134,-0.117
-0.127,-0.181,-0.054,0.154,-0.036,-0.117,-0.01,-0.145,-0.135,-0.155,-0.117,-0.107
-0.128,-0.22,-0.092,0.174,-0.018,-0.156,0.089,0.03,-0.181,-0.2,-0.16,-0.149
-0.12,-0.138,-0.018,0.129,-0.051,-0.078,0.14,0.108,-0.057,-0.137,-0.132,-0.129
0.009,0.024,0.015,-0.017,-0.002,0.019,-0.114,-0.197,0.16,0.114,0.081,0.05
0.403,0.457,0.055,-0.43,0.174,0.256,-0.487,-0.365,0.851,0.878,0.689,0.518
0.703,0.885,0.182,-0.794,0.26,0.533,-0.639,-0.619,1.861,1.736,1.322,1.009
0.367,0.246,-0.122,-0.306,0.244,0.062,-0.334,-0.795,0.532,0.715,0.684,0.586
-0.07,-0.334,-0.264,0.202,0.097,-0.299,-0.023,-0.56,-0.771,-0.377,-0.12,-0.003
-0.152,-0.344,-0.192,0.248,0.02,-0.268,0.052,-0.169,-0.427,-0.282,-0.174,-0.114
-0.121,-0.331,-0.209,0.226,0.044,-0.27,0.072,0.121,-0.31,-0.264,-0.184,-0.147
-0.094,-0.235,-0.141,0.165,0.024,-0.188,0.06,0.106,-0.134,-0.163,-0.14,-0.099
-0.093,-0.215,-0.122,0.154,0.015,-0.168,0.067,0.084,-0.105,-0.131,-0.113,-0.093
-0.085,-0.181,-0.096,0.134,0.006,-0.138,0.064,0.095,-0.078,-0.095,-0.085,-0.089
-0.08,-0.172,-0.091,0.126,0.006,-0.131,0.065,0.085,-0.027,-0.064,-0.066,-0.08
-0.076,-0.163,-0.087,0.12,0.006,-0.125,0.071,0.095,-0.019,-0.07,-0.064,-0.079
-0.066,-0.145,-0.08,0.106,0.007,-0.112,0.068,0.091,0.036,-0.035,-0.046,-0.068
-0.064,-0.139,-0.076,0.102,0.006,-0.107,0.073,0.129,0.044,-0.023,-0.042,-0.068
-0.043,-0.115,-0.072,0.079,0.014,-0.093,0.09,0.161,0.095,0.015,-0.021,-0.053
0.0,-0.099,-0.1,0.05,0.05,-0.099,0.101,0.195,0.132,0.041,-0.003,-0.04
0.022,-0.078,-0.099,0.028,0.061,-0.088,0.1,0.243,0.204,0.091,0.032,-0.018
0.041,-0.054,-0.095,0.007,0.069,-0.075,0.109,0.304,0.274,0.142,0.066,0.004
0.078,-0.016,-0.094,-0.031,0.086,-0.055,0.117,0.391,0.371,0.209,0.105,0.034
0.115,0.026,-0.089,-0.07,0.102,-0.032,0.138,0.496,0.494,0.305,0.172,0.082
0.175,0.085,-0.09,-0.13,0.132,-0.002,0.169,0.61,0.614,0.397,0.236,0.132
0.227,0.153,-0.074,-0.19,0.151,0.039,0.194,0.718,0.737,0.483,0.296,0.178
0.27,0.207,-0.063,-0.238,0.166,0.072,0.223,0.818,0.845,0.587,0.366,0.228
0.307,0.27,-0.037,-0.288,0.172,0.116,0.253,0.87,0.921,0.658,0.423,0.275
0.274,0.288,0.013,-0.281,0.13,0.15,0.271,0.834,0.908,0.654,0.437,0.294
0.219,0.262,0.043,-0.241,0.088,0.153,0.263,0.697,0.771,0.581,0.402,0.272
0.154,0.195,0.041,-0.175,0.056,0.118,0.248,0.5,0.553,0.425,0.306,0.205
0.057,0.086,0.029,-0.072,0.013,0.057,0.202,0.311,0.329,0.243,0.18,0.111
-0.025,-0.006,0.018,0.015,-0.022,0.006,0.152,0.157,0.151,0.106,0.083,0.038
-0.074,-0.078,-0.004,0.076,-0.035,-0.04,0.126,0.048,0.031,0.008,0.021,-0.014
-0.095,-0.117,-0.023,0.106,-0.036,-0.07,0.09,-0.013,-0.032,-0.052,-0.029,-0.047
-0.098,-0.145,-0.046,0.122,-0.026,-0.095,0.072,-0.061,-0.069,-0.079,-0.058,-0.065
-0.095,-0.161,-0.067,0.128,-0.014,-0.113,0.066,-0.091,-0.093,-0.101,-0.071,-0.079
-0.097,-0.161,-0.064,0.13,-0.016,-0.113,0.059,-0.092,-0.102,-0.111,-0.081,-0.08
-0.101,-0.166,-0.065,0.134,-0.017,-0.115,0.053,-0.099,-0.106,-0.114,-0.08,-0.08
-0.1,-0.165,-0.065,0.133,-0.017,-0.115,0.046,-0.096,-0.109,-0.12,-0.08,-0.08
-0.099,-0.164,-0.065,0.132,-0.017,-0.115,0.041,-0.095,-0.117,-0.117,-0.08,-0.08
-0.11,-0.173,-0.063,0.142,-0.024,-0.118,0.036,-0.094,-0.12,-0.115,-0.08,-0.08
-0.12,-0.177,-0.057,0.149,-0.031,-0.117,0.029,-0.09,-0.12,-0.115,-0.08,-0.081
-0.123,-0.175,-0.052,0.149,-0.035,-0.113,0.027,-0.089,-0.12,-0.115,-0.08,-0.079
-0.126,-0.175,-0.049,0.151,-0.038,-0.112,0.035,-0.096,-0.12,-0.115,-0.08,-0.085
-0.129,-0.171,-0.043,0.15,-0.043,-0.107,0.036,-0.106,-0.12,-0.115,-0.08,-0.096
-0.128,-0.17,-0.042,0.149,-0.043,-0.106,0.034,-0.105,-0.119,-0.12,-0.08,-0.095
-0.109,-0.168,-0.059,0.139,-0.025,-0.114,0.031,-0.106,-0.114,-0.124,-0.082,-0.094
-0.116,-0.176,-0.06,0.146,-0.028,-0.118,0.029,-0.105,-0.118,-0.124,-0.085,-0.09
-0.133,-0.187,-0.055,0.16,-0.038,-0.121,0.032,-0.106,-0.141,-0.118,-0.085,-0.09
-0.127,-0.182,-0.054,0.155,-0.036,-0.118,0.035,-0.104,-0.147,-0.116,-0.09,-0.093
-0.131,-0.18,-0.049,0.155,-0.041,-0.115,0.035,-0.11,-0.143,-0.13,-0.09,-0.096
-0.126,-0.177,-0.05,0.152,-0.038,-0.113,0.035,-0.126,-0.149,-0.14,-0.095,-0.099
-0.123,-0.173,-0.05,0.148,-0.036,-0.111,0.039,-0.125,-0.159,-0.144,-0.101,-0.102
-0.133,-0.183,-0.05,0.158,-0.042,-0.116,0.04,-0.125,-0.163,-0.145,-0.099,-0.106
-0.139,-0.19,-0.051,0.165,-0.044,-0.12,0.04,-0.125,-0.166,-0.147,-0.1,-0.109
-0.144,-0.192,-0.049,0.168,-0.047,-0.12,0.04,-0.124,-0.171,-0.151,-0.1,-0.11
-0.143,-0.195,-0.052,0.169,-0.045,-0.123,0.04,-0.128,-0.174,-0.154,-0.1,-0.11
-0.156,-0.198,-0.043,0.177,-0.056,-0.12,0.039,-0.13,-0.175,-0.155,-0.099,-0.11
-0.149,-0.2,-0.051,0.175,-0.049,-0.126,0.035,-0.13,-0.174,-0.155,-0.095,-0.11
-0.12,-0.196,-0.076,0.159,-0.022,-0.136,0.035,-0.13,-0.175,-0.155,-0.095,-0.11
-0.117,-0.193,-0.075,0.155,-0.021,-0.134,0.035,-0.13,-0.174,-0.155,-0.093,-0.11
-0.116,-0.189,-0.073,0.153,-0.021,-0.13,0.035,-0.129,-0.177,-0.156,-0.089,-0.11
-0.116,-0.186,-0.071,0.151,-0.022,-0.128,0.035,-0.125,-0.182,-0.161,-0.09,-0.11
-0.111,-0.18,-0.069,0.145,-0.021,-0.124,0.031,-0.125,-0.185,-0.165,-0.093,-0.11
-0.112,-0.183,-0.071,0.148,-0.021,-0.127,0.03,-0.125,-0.197,-0.161,-0.096,-0.11
-0.125,-0.195,-0.069,0.16,-0.028,-0.132,0.03,-0.125,-0.201,-0.16,-0.099,-0.11
-0.125,-0.195,-0.07,0.16,-0.027,-0.132,0.03,-0.125,-0.2,-0.159,-0.102,-0.11
-0.125,-0.195,-0.07,0.16,-0.027,-0.132,0.029,-0.127,-0.197,-0.156,-0.105,-0.11
-0.126,-0.195,-0.069,0.161,-0.028,-0.132,0.032,-0.129,-0.195,-0.154,-0.104,-0.11
-0.129,-0.195,-0.067,0.162,-0.03,-0.131,0.035,-0.122,-0.195,-0.159,-0.1,-0.111
-0.132,-0.194,-0.062,0.164,-0.035,-0.128,0.036,-0.12,-0.19,-0.165,-0.101,-0.108
-0.126,-0.188,-0.062,0.157,-0.031,-0.125,0.034,-0.116,-0.184,-0.157,-0.1,-0.101
-0.127,-0.181,-0.055,0.154,-0.036,-0.117,0.04,-0.113,-0.177,-0.151,-0.1,-0.097
-0.119,-0.178,-0.059,0.149,-0.03,-0.118,0.049,-0.109,-0.173,-0.144,-0.101,-0.091
-0.117,-0.161,-0.044,0.14,-0.036,-0.103,0.067,-0.099,-0.165,-0.137,-0.093,-0.085
-0.119,-0.134,-0.016,0.127,-0.051,-0.075,0.094,-0.082,-0.164,-0.133,-0.082,-0.081
-0.103,-0.104,0.0,0.103,-0.051,-0.052,0.071,-0.087,-0.15,-0.125,-0.067,-0.07
-0.124,-0.094,0.03,0.109,-0.077,-0.032,0.046,-0.127,-0.152,-0.123,-0.047,-0.058
-0.124,-0.078,0.047,0.101,-0.085,-0.015,0.04,-0.144,-0.136,-0.114,-0.022,-0.052
-0.067,-0.078,-0.011,0.073,-0.028,-0.044,0.032,-0.138,-0.139,-0.111,-0.03,-0.049
-0.067,-0.114,-0.048,0.091,-0.009,-0.081,0.029,-0.141,-0.168,-0.106,-0.05,-0.045
-0.145,-0.17,-0.025,0.158,-0.06,-0.097,0.024,-0.141,-0.178,-0.135,-0.07,-0.08
-0.149,-0.212,-0.062,0.181,-0.043,-0.137,0.024,-0.155,-0.223,-0.183,-0.106,-0.116
-0.115,-0.205,-0.091,0.16,-0.012,-0.148,0.013,-0.162,-0.199,-0.174,-0.103,-0.112
-0.132,-0.224,-0.092,0.178,-0.02,-0.157,0.021,-0.141,-0.233,-0.206,-0.11,-0.128
-0.147,-0.216,-0.068,0.182,-0.039,-0.142,0.027,-0.136,-0.184,-0.174,-0.102,-0.116
-0.166,-0.262,-0.097,0.214,-0.034,-0.179,0.138,0.045,-0.205,-0.217,-0.14,-0.144
-0.149,-0.176,-0.028,0.163,-0.061,-0.102,0.177,0.109,-0.065,-0.152,-0.111,-0.122
-0.048,-0.019,0.029,0.033,-0.038,0.005,-0.07,-0.186,0.155,0.09,0.084,0.037
0.315,0.413,0.099,-0.364,0.108,0.256,-0.446,-0.373,0.901,0.882,0.708,0.51
0.591,0.801,0.21,-0.696,0.19,0.505,-0.583,-0.529,1.966,1.718,1.293,0.95
0.27,0.175,-0.095,-0.223,0.182,0.04,-0.216,-0.536,0.544,0.645,0.628,0.522
-0.1,-0.336,-0.236,0.219,0.068,-0.286,0.118,-0.303,-0.821,-0.42,-0.113,-0.005
-0.168,-0.346,-0.178,0.257,0.005,-0.262,0.184,0.02,-0.446,-0.315,-0.166,-0.115
-0.144,-0.352,-0.208,0.248,0.032,-0.279,0.175,0.307,-0.345,-0.289,-0.183,-0.144
-0.102,-0.264,-0.162,0.183,0.03,-0.213,0.122,0.209,-0.172,-0.173,-0.119,-0.101
-0.102,-0.239,-0.137,0.171,0.018,-0.188,0.097,0.075,-0.138,-0.151,-0.103,-0.102
-0.094,-0.205,-0.111,0.15,0.009,-0.158,0.091,0.092,-0.117,-0.131,-0.087,-0.092
-0.08,-0.197,-0.117,0.139,0.019,-0.157,0.106,0.08,-0.068,-0.097,-0.068,-0.085
-0.071,-0.186,-0.115,0.129,0.022,-0.15,0.114,0.084,-0.05,-0.085,-0.064,-0.077
-0.062,-0.173,-0.11,0.118,0.024,-0.141,0.114,0.077,0.007,-0.054,-0.045,-0.061
-0.062,-0.168,-0.105,0.115,0.022,-0.136,0.116,0.085,0.004,-0.049,-0.031,-0.053
-0.054,-0.15,-0.096,0.103,0.021,-0.123,0.114,0.107,0.063,-0.007,-0.002,-0.035
-0.041,-0.133,-0.092,0.087,0.026,-0.112,0.117,0.142,0.107,0.017,0.017,-0.024
-0.021,-0.104,-0.083,0.063,0.031,-0.093,0.136,0.181,0.176,0.063,0.036,-0.013
0.003,-0.077,-0.079,0.037,0.041,-0.078,0.143,0.233,0.255,0.119,0.064,0.004
0.031,-0.042,-0.073,0.006,0.053,-0.058,0.146,0.311,0.362,0.194,0.12,0.045
0.063,-0.007,-0.07,-0.028,0.066,-0.038,0.159,0.396,0.486,0.279,0.173,0.081
0.116,0.052,-0.065,-0.084,0.09,-0.006,0.18,0.5,0.626,0.385,0.246,0.126
0.181,0.12,-0.061,-0.151,0.121,0.029,0.215,0.599,0.763,0.497,0.327,0.184
0.224,0.175,-0.049,-0.199,0.136,0.063,0.238,0.687,0.871,0.592,0.39,0.23
0.251,0.23,-0.021,-0.24,0.136,0.104,0.271,0.732,0.95,0.652,0.437,0.271
0.23,0.251,0.021,-0.241,0.104,0.136,0.292,0.701,0.925,0.643,0.442,0.274
0.167,0.221,0.054,-0.194,0.056,0.138,0.284,0.611,0.766,0.56,0.405,0.246
0.108,0.16,0.051,-0.134,0.028,0.105,0.276,0.462,0.529,0.397,0.303,0.193
0.028,0.067,0.039,-0.047,-0.006,0.052,0.255,0.299,0.294,0.221,0.184,0.105
-0.053,-0.021,0.032,0.037,-0.042,0.005,0.217,0.171,0.114,0.082,0.085,0.035
-0.101,-0.089,0.012,0.095,-0.056,-0.038,0.166,0.079,-0.006,-0.013,0.014,-0.008
-0.12,-0.136,-0.016,0.128,-0.052,-0.076,0.126,0.006,-0.082,-0.075,-0.022,-0.048
-0.126,-0.157,-0.031,0.141,-0.047,-0.094,0.108,-0.043,-0.119,-0.108,-0.05,-0.068
-0.131,-0.166,-0.035,0.149,-0.048,-0.101,0.095,-0.068,-0.141,-0.117,-0.059,-0.072
-0.129,-0.164,-0.035,0.147,-0.047,-0.1,0.089,-0.078,-0.156,-0.127,-0.066,-0.075
-0.13,-0.162,-0.031,0.146,-0.049,-0.097,0.082,-0.08,-0.158,-0.13,-0.071,-0.075
-0.13,-0.159,-0.029,0.144,-0.05,-0.094,0.074,-0.081,-0.161,-0.13,-0.069,-0.075
-0.13,-0.156,-0.026,0.143,-0.052,-0.091,0.068,-0.079,-0.16,-0.13,-0.07,-0.075
-0.13,-0.154,-0.024,0.142,-0.053,-0.089,0.067,-0.076,-0.16,-0.13,-0.07,-0.075
-0.13,-0.149,-0.019,0.14,-0.055,-0.084,0.079,-0.074,-0.16,-0.13,-0.07,-0.071
-0.13,-0.151,-0.022,0.141,-0.054,-0.087,0.078,-0.077,-0.16,-0.131,-0.07,-0.07
-0.128,-0.155,-0.027,0.142,-0.05,-0.091,0.076,-0.08,-0.156,-0.134,-0.07,-0.07
-0.129,-0.155,-0.026,0.143,-0.051,-0.09,0.068,-0.08,-0.155,-0.137,-0.07,-0.07
-0.133,-0.155,-0.022,0.144,-0.055,-0.088,0.064,-0.08,-0.155,-0.139,-0.07,-0.07
-0.135,-0.155,-0.02,0.145,-0.057,-0.087,0.064,-0.08,-0.151,-0.141,-0.07,-0.071
-0.139,-0.155,-0.017,0.147,-0.061,-0.086,0.049,-0.084,-0.149,-0.139,-0.071,-0.069
-0.137,-0.151,-0.014,0.145,-0.061,-0.082,0.077,-0.086,-0.154,-0.142,-0.074,-0.07
-0.131,-0.15,-0.019,0.14,-0.056,-0.084,0.069,-0.091,-0.164,-0.162,-0.077,-0.079
-0.129,-0.15,-0.02,0.14,-0.055,-0.085,0.094,-0.092,-0.167,-0.166,-0.08,-0.08
-0.125,-0.145,-0.02,0.135,-0.052,-0.082,0.066,-0.097,-0.17,-0.164,-0.083,-0.083
-0.124,-0.145,-0.02,0.135,-0.052,-0.082,0.094,-0.1,-0.172,-0.17,-0.085,-0.086
-0.126,-0.146,-0.02,0.136,-0.053,-0.082,0.074,-0.103,-0.188,-0.169,-0.085,-0.084
-0.134,-0.155,-0.02,0.144,-0.057,-0.087,0.068,-0.11,-0.197,-0.171,-0.085,-0.086
-0.143,-0.162,-0.019,0.152,-0.061,-0.09,0.31,-0.107,-0.194,-0.175,-0.085,-0.084
-0.143,-0.165,-0.021,0.154,-0.061,-0.092,0.104,-0.115,-0.196,-0.174,-0.085,-0.086
-0.155,-0.17,-0.015,0.163,-0.07,-0.092,-0.063,-0.103,-0.194,-0.178,-0.085,-0.084
-0.149,-0.165,-0.016,0.158,-0.066,-0.091,0.056,-0.119,-0.195,-0.18,-0.084,-0.088
-0.149,-0.16,-0.011,0.155,-0.069,-0.086,0.256,-0.095,-0.198,-0.18,-0.081,-0.102
-0.142,-0.154,-0.011,0.148,-0.065,-0.082,0.444,-0.171,-0.206,-0.183,-0.08,-0.089
-0.147,-0.152,-0.005,0.149,-0.071,-0.078,-0.171,-0.409,-0.209,-0.186,-0.08,-0.048
