0.031,-0.023,-0.054,-0.004,0.043,-0.038,0.085,0.092,0.217,0.217,0.241,0.202
-0.017,-0.073,-0.055,0.046,0.019,-0.064,0.091,0.052,0.154,0.163,0.192,0.166
-0.069,-0.142,-0.074,0.106,0.003,-0.108,0.097,0.002,0.056,0.074,0.119,0.11
-0.077,-0.158,-0.081,0.118,0.002,-0.119,0.104,-0.022,0.018,0.033,0.08,0.088
-0.084,-0.178,-0.094,0.132,0.005,-0.136,0.109,-0.046,-0.026,-0.001,0.051,0.084
-0.084,-0.195,-0.111,0.14,0.014,-0.153,0.105,-0.053,-0.046,-0.024,0.034,0.078
-0.093,-0.202,-0.109,0.148,0.008,-0.155,0.105,-0.05,-0.046,-0.036,0.029,0.073
-0.082,-0.199,-0.118,0.141,0.018,-0.158,0.105,-0.048,-0.044,-0.034,0.03,0.067
-0.083,-0.201,-0.118,0.142,0.017,-0.16,0.105,-0.045,-0.04,-0.029,0.03,0.065
-0.095,-0.219,-0.124,0.157,0.014,-0.171,0.105,-0.041,-0.039,-0.028,0.03,0.065
-0.095,-0.22,-0.125,0.158,0.015,-0.172,0.103,-0.04,-0.032,-0.022,0.03,0.065
-0.114,-0.22,-0.106,0.167,-0.004,-0.163,0.096,-0.044,-0.049,-0.02,0.03,0.065
-0.067,-0.22,-0.153,0.144,0.043,-0.187,0.089,-0.058,-0.069,-0.037,0.03,0.065
-0.09,-0.217,-0.128,0.153,0.019,-0.172,0.104,-0.081,-0.086,-0.06,0.03,0.064
-0.135,-0.222,-0.088,0.179,-0.023,-0.155,0.108,-0.087,-0.095,-0.06,0.03,0.06
-0.077,-0.217,-0.14,0.147,0.032,-0.179,0.097,-0.083,-0.097,-0.06,0.03,0.055
-0.072,-0.212,-0.139,0.142,0.034,-0.175,0.094,-0.088,-0.102,-0.061,0.027,0.05
-0.092,-0.228,-0.136,0.161,0.022,-0.182,0.085,-0.102,-0.11,-0.059,0.021,0.047
-0.112,-0.248,-0.136,0.181,0.012,-0.192,0.081,-0.117,-0.125,-0.062,0.016,0.04
-0.124,-0.251,-0.127,0.188,0.002,-0.189,0.084,-0.13,-0.131,-0.069,0.01,0.045
-0.113,-0.248,-0.135,0.181,0.011,-0.192,0.085,-0.138,-0.129,-0.074,0.005,0.051
-0.107,-0.246,-0.14,0.177,0.017,-0.193,0.085,-0.142,-0.136,-0.075,0.0,0.049
-0.085,-0.244,-0.159,0.164,0.038,-0.201,0.085,-0.146,-0.141,-0.075,0.0,0.05
-0.1,-0.247,-0.147,0.174,0.024,-0.196,0.085,-0.144,-0.14,-0.075,-0.001,0.05
-0.134,-0.25,-0.115,0.192,-0.009,-0.182,0.083,-0.146,-0.139,-0.076,-0.006,0.05
-0.115,-0.25,-0.135,0.182,0.01,-0.192,0.078,-0.16,-0.15,-0.078,-0.003,0.046
-0.094,-0.25,-0.156,0.172,0.031,-0.202,0.072,-0.166,-0.156,-0.089,-0.015,0.04
-0.103,-0.25,-0.147,0.177,0.022,-0.198,0.069,-0.164,-0.156,-0.097,-0.027,0.035
-0.109,-0.25,-0.141,0.179,0.016,-0.195,0.063,-0.165,-0.16,-0.094,-0.024,0.029
-0.119,-0.254,-0.135,0.187,0.008,-0.194,0.06,-0.164,-0.16,-0.096,-0.025,0.023
-0.13,-0.255,-0.125,0.193,-0.002,-0.19,0.065,-0.161,-0.164,-0.094,-0.019,0.021
-0.117,-0.255,-0.138,0.187,0.011,-0.197,0.065,-0.158,-0.168,-0.095,-0.021,0.03
-0.118,-0.259,-0.141,0.189,0.011,-0.2,0.065,-0.154,-0.17,-0.091,-0.017,0.032
-0.13,-0.26,-0.13,0.196,0.0,-0.195,0.065,-0.151,-0.175,-0.085,-0.012,0.03
-0.121,-0.258,-0.138,0.19,0.009,-0.198,0.065,-0.148,-0.173,-0.101,-0.032,0.03
-0.116,-0.253,-0.137,0.184,0.011,-0.195,0.063,-0.14,-0.169,-0.107,-0.036,0.025
-0.101,-0.247,-0.146,0.174,0.022,-0.196,0.059,-0.136,-0.167,-0.1,-0.034,0.024
-0.087,-0.243,-0.156,0.165,0.035,-0.199,0.061,-0.115,-0.164,-0.1,-0.036,0.027
-0.084,-0.235,-0.151,0.16,0.034,-0.193,0.056,-0.088,-0.161,-0.095,-0.035,0.03
-0.083,-0.231,-0.148,0.157,0.033,-0.19,0.055,-0.084,-0.159,-0.096,-0.035,0.03
-0.089,-0.233,-0.144,0.161,0.028,-0.188,0.054,-0.085,-0.156,-0.099,-0.03,0.03
-0.095,-0.235,-0.141,0.165,0.023,-0.187,0.05,-0.099,-0.154,-0.101,-0.03,0.03
-0.111,-0.249,-0.138,0.18,0.013,-0.193,0.05,-0.122,-0.155,-0.105,-0.03,0.034
-0.11,-0.243,-0.133,0.177,0.012,-0.188,0.049,-0.137,-0.154,-0.103,-0.029,0.035
-0.098,-0.227,-0.13,0.162,0.016,-0.178,0.052,-0.142,-0.155,-0.096,-0.031,0.035
-0.105,-0.232,-0.127,0.169,0.012,-0.18,0.047,-0.144,-0.152,-0.092,-0.028,0.039
-0.092,-0.214,-0.122,0.154,0.015,-0.168,0.064,-0.134,-0.137,-0.088,-0.02,0.039
-0.055,-0.175,-0.12,0.115,0.033,-0.147,0.074,-0.126,-0.126,-0.08,-0.013,0.04
-0.034,-0.169,-0.135,0.102,0.051,-0.152,0.085,-0.112,-0.099,-0.076,-0.006,0.052
-0.028,-0.167,-0.139,0.098,0.056,-0.153,0.124,-0.086,-0.074,-0.058,0.006,0.07
-0.061,-0.163,-0.101,0.112,0.02,-0.132,0.133,-0.055,-0.068,-0.043,0.028,0.079
-0.068,-0.168,-0.099,0.118,0.016,-0.133,0.115,-0.044,-0.063,-0.046,0.024,0.07
-0.035,-0.174,-0.139,0.105,0.052,-0.156,0.076,-0.099,-0.091,-0.052,0.006,0.061
-0.066,-0.218,-0.151,0.143,0.043,-0.184,0.063,-0.123,-0.125,-0.083,-0.007,0.048
-0.094,-0.239,-0.145,0.167,0.025,-0.192,0.058,-0.148,-0.146,-0.105,-0.019,0.03
-0.081,-0.238,-0.157,0.16,0.038,-0.197,0.056,-0.138,-0.144,-0.098,-0.025,0.018
-0.074,-0.227,-0.153,0.151,0.039,-0.189,0.049,-0.16,-0.163,-0.106,-0.042,0.012
-0.086,-0.246,-0.16,0.166,0.037,-0.203,0.046,-0.137,-0.155,-0.104,-0.039,0.019
-0.101,-0.273,-0.171,0.187,0.035,-0.222,0.042,-0.146,-0.174,-0.127,-0.053,0.01
-0.086,-0.239,-0.153,0.163,0.033,-0.196,0.026,-0.149,-0.158,-0.101,-0.043,0.02
-0.062,-0.253,-0.19,0.158,0.064,-0.221,0.04,-0.109,-0.167,-0.107,-0.059,0.01
-0.078,-0.23,-0.153,0.154,0.038,-0.191,0.07,-0.136,-0.178,-0.116,-0.057,0.005
-0.144,-0.367,-0.224,0.256,0.04,-0.295,0.375,0.216,-0.284,-0.276,-0.204,-0.122
-0.175,-0.369,-0.194,0.273,0.01,-0.282,0.697,0.398,-0.664,-0.631,-0.478,-0.294
0.186,0.196,0.01,-0.191,0.088,0.102,0.329,0.887,-0.065,-0.02,0.087,0.153
0.697,1.492,0.795,-1.095,-0.049,1.143,-0.848,0.14,1.574,1.736,1.629,1.255
0.846,2.519,1.673,-1.683,-0.414,2.096,-1.738,-1.963,3.94,3.916,3.212,2.198
0.527,1.275,0.748,-0.901,-0.111,1.012,-1.343,-1.853,3.956,3.466,2.558,1.59
0.003,-0.185,-0.187,0.091,0.095,-0.186,-0.534,-0.862,0.793,0.623,0.459,0.29
-0.088,-0.204,-0.116,0.146,0.014,-0.16,-0.112,-0.3,-0.121,-0.058,0.037,0.08
-0.016,-0.184,-0.168,0.101,0.076,-0.176,0.048,0.028,0.16,0.11,0.094,0.109
-0.062,-0.202,-0.14,0.132,0.04,-0.171,0.097,0.022,-0.138,-0.119,-0.069,0.019
-0.069,-0.22,-0.15,0.145,0.041,-0.185,0.123,0.095,-0.07,-0.075,-0.035,0.019
-0.072,-0.216,-0.143,0.145,0.036,-0.179,0.128,0.086,-0.167,-0.145,-0.087,-0.011
-0.028,-0.187,-0.16,0.108,0.066,-0.173,0.133,0.119,-0.11,-0.092,-0.041,0.017
-0.011,-0.195,-0.184,0.104,0.087,-0.189,0.137,0.137,-0.127,-0.111,-0.052,0.015
-0.021,-0.179,-0.158,0.1,0.069,-0.168,0.139,0.157,-0.116,-0.094,-0.033,0.031
-0.028,-0.187,-0.16,0.108,0.067,-0.173,0.141,0.177,-0.092,-0.086,-0.027,0.03
-0.014,-0.158,-0.144,0.087,0.065,-0.151,0.139,0.198,-0.082,-0.07,-0.023,0.029
0.018,-0.134,-0.152,0.058,0.085,-0.142,0.141,0.233,-0.033,-0.037,-0.008,0.031
0.038,-0.108,-0.146,0.035,0.093,-0.127,0.137,0.26,-0.019,-0.026,-0.008,0.035
0.045,-0.096,-0.141,0.026,0.094,-0.118,0.15,0.321,0.036,0.008,0.024,0.052
0.057,-0.083,-0.141,0.013,0.099,-0.112,0.167,0.371,0.067,0.026,0.038,0.05
0.094,-0.045,-0.139,-0.024,0.117,-0.092,0.164,0.431,0.119,0.082,0.076,0.075
0.118,-0.023,-0.14,-0.048,0.129,-0.081,0.167,0.507,0.182,0.139,0.115,0.102
0.118,-0.023,-0.141,-0.048,0.13,-0.081,0.171,0.585,0.24,0.184,0.142,0.106
0.157,0.018,-0.139,-0.087,0.148,-0.06,0.17,0.677,0.316,0.246,0.194,0.143
0.228,0.085,-0.144,-0.156,0.186,-0.029,0.165,0.776,0.412,0.337,0.26,0.184
0.239,0.119,-0.119,-0.179,0.179,0.0,0.151,0.856,0.509,0.431,0.333,0.224
0.273,0.186,-0.088,-0.229,0.18,0.049,0.142,0.919,0.614,0.532,0.41,0.278
0.341,0.266,-0.075,-0.303,0.208,0.095,0.128,0.95,0.711,0.635,0.494,0.328
0.348,0.301,-0.047,-0.324,0.198,0.127,0.106,0.925,0.776,0.713,0.553,0.367
0.362,0.328,-0.034,-0.345,0.198,0.147,0.074,0.87,0.811,0.753,0.586,0.391
0.346,0.324,-0.022,-0.335,0.184,0.15,0.036,0.754,0.798,0.748,0.597,0.4
0.309,0.294,-0.015,-0.301,0.162,0.139,0.023,0.58,0.736,0.693,0.553,0.375
0.245,0.235,-0.011,-0.24,0.128,0.112,0.022,0.401,0.593,0.55,0.448,0.308
0.164,0.145,-0.018,-0.154,0.091,0.063,0.017,0.249,0.4,0.369,0.305,0.233
0.118,0.074,-0.044,-0.096,0.081,0.015,0.015,0.131,0.236,0.214,0.183,0.154
0.041,0.006,-0.035,-0.024,0.038,-0.015,0.008,0.041,0.092,0.075,0.077,0.08
0.014,-0.04,-0.054,0.013,0.034,-0.047,0.023,-0.007,-0.001,-0.003,0.011,0.052
0.007,-0.086,-0.093,0.039,0.05,-0.089,0.045,-0.034,-0.06,-0.043,-0.013,0.026
-0.033,-0.118,-0.085,0.076,0.026,-0.101,0.045,-0.057,-0.094,-0.085,-0.055,-0.013
-0.039,-0.123,-0.084,0.082,0.023,-0.103,0.045,-0.058,-0.099,-0.097,-0.067,-0.024
-0.045,-0.125,-0.08,0.085,0.017,-0.102,0.045,-0.051,-0.101,-0.101,-0.072,-0.032
-0.042,-0.117,-0.075,0.08,0.016,-0.095,0.045,-0.046,-0.099,-0.112,-0.094,-0.039
-0.045,-0.119,-0.074,0.082,0.015,-0.096,0.044,-0.04,-0.102,-0.116,-0.095,-0.04
-0.052,-0.105,-0.054,0.079,0.001,-0.079,0.039,-0.034,-0.097,-0.114,-0.095,-0.045
-0.027,-0.107,-0.081,0.067,0.027,-0.093,0.036,-0.052,-0.112,-0.116,-0.096,-0.044
-0.026,-0.123,-0.097,0.075,0.035,-0.109,0.033,-0.071,-0.132,-0.12,-0.1,-0.04
-0.039,-0.117,-0.077,0.078,0.019,-0.097,0.028,-0.071,-0.129,-0.123,-0.1,-0.038
-0.047,-0.115,-0.068,0.081,0.011,-0.091,0.025,-0.068,-0.123,-0.127,-0.1,-0.035
-0.058,-0.112,-0.054,0.085,-0.002,-0.082,0.022,-0.076,-0.134,-0.13,-0.1,-0.032
-0.039,-0.11,-0.071,0.075,0.016,-0.09,0.017,-0.091,-0.153,-0.135,-0.1,-0.029
-0.029,-0.11,-0.081,0.07,0.026,-0.095,0.014,-0.106,-0.167,-0.144,-0.104,-0.038
-0.04,-0.11,-0.07,0.076,0.015,-0.09,0.01,-0.124,-0.179,-0.145,-0.105,-0.05
-0.041,-0.109,-0.068,0.075,0.013,-0.088,0.007,-0.129,-0.192,-0.15,-0.106,-0.05
-0.048,-0.115,-0.067,0.082,0.009,-0.091,0.003,-0.136,-0.21,-0.158,-0.112,-0.051
-0.05,-0.122,-0.072,0.086,0.011,-0.097,-0.002,-0.149,-0.214,-0.165,-0.121,-0.055
-0.04,-0.108,-0.068,0.074,0.014,-0.087,-0.008,-0.155,-0.217,-0.174,-0.119,-0.055
-0.036,-0.102,-0.065,0.07,0.015,-0.083,-0.014,-0.166,-0.228,-0.18,-0.126,-0.055
-0.042,-0.107,-0.065,0.075,0.012,-0.086,-0.012,-0.184,-0.23,-0.189,-0.141,-0.055
-0.047,-0.109,-0.062,0.078,0.007,-0.085,-0.009,-0.186,-0.23,-0.19,-0.14,-0.055
-0.045,-0.106,-0.061,0.075,0.008,-0.083,-0.006,-0.184,-0.23,-0.189,-0.14,-0.055
-0.044,-0.101,-0.057,0.073,0.007,-0.079,-0.003,-0.186,-0.23,-0.19,-0.141,-0.055
-0.027,-0.098,-0.071,0.063,0.022,-0.085,0.0,-0.184,-0.229,-0.189,-0.139,-0.054
-0.028,-0.095,-0.067,0.062,0.02,-0.081,-0.001,-0.188,-0.233,-0.191,-0.141,-0.062
-0.044,-0.089,-0.045,0.067,0.0,-0.066,-0.008,-0.189,-0.235,-0.195,-0.152,-0.075
-0.052,-0.095,-0.043,0.074,-0.004,-0.069,-0.012,-0.192,-0.236,-0.195,-0.156,-0.075
-0.067,-0.106,-0.039,0.086,-0.013,-0.072,-0.017,-0.195,-0.24,-0.198,-0.154,-0.075
-0.067,-0.102,-0.035,0.085,-0.016,-0.068,-0.024,-0.196,-0.24,-0.203,-0.156,-0.075
-0.065,-0.098,-0.032,0.082,-0.016,-0.065,-0.028,-0.199,-0.244,-0.206,-0.154,-0.074
-0.068,-0.095,-0.027,0.081,-0.02,-0.061,-0.031,-0.202,-0.245,-0.212,-0.157,-0.077
-0.055,-0.09,-0.034,0.073,-0.011,-0.062,-0.029,-0.205,-0.246,-0.212,-0.17,-0.079
-0.045,-0.088,-0.043,0.067,-0.001,-0.065,-0.031,-0.207,-0.25,-0.206,-0.166,-0.083
-0.052,-0.084,-0.032,0.068,-0.009,-0.058,-0.029,-0.211,-0.25,-0.205,-0.161,-0.085
-0.057,-0.083,-0.026,0.07,-0.015,-0.054,-0.03,-0.206,-0.248,-0.2,-0.158,-0.082
-0.062,-0.08,-0.018,0.072,-0.022,-0.049,-0.029,-0.191,-0.243,-0.198,-0.153,-0.079
-0.05,-0.059,-0.01,0.055,-0.02,-0.034,-0.011,-0.177,-0.236,-0.195,-0.15,-0.077
-0.01,-0.025,-0.015,0.018,0.003,-0.019,-0.014,-0.164,-0.231,-0.186,-0.14,-0.073
0.012,0.013,0.0,-0.012,0.006,0.006,0.019,-0.14,-0.212,-0.175,-0.13,-0.07
0.005,0.031,0.026,-0.019,-0.011,0.029,0.046,-0.132,-0.195,-0.164,-0.119,-0.07
0.01,0.05,0.041,-0.03,-0.015,0.045,0.029,-0.124,-0.186,-0.163,-0.118,-0.076
0.015,0.038,0.023,-0.027,-0.004,0.03,0.014,-0.139,-0.188,-0.166,-0.121,-0.075
-0.032,-0.03,0.002,0.031,-0.017,-0.014,-0.002,-0.178,-0.227,-0.194,-0.143,-0.074
-0.091,-0.078,0.013,0.084,-0.052,-0.032,-0.016,-0.216,-0.269,-0.232,-0.181,-0.091
-0.097,-0.089,0.008,0.093,-0.052,-0.04,-0.022,-0.209,-0.268,-0.23,-0.181,-0.095
-0.09,-0.089,0.001,0.089,-0.045,-0.044,-0.028,-0.214,-0.285,-0.244,-0.191,-0.097
-0.082,-0.073,0.008,0.077,-0.045,-0.033,-0.039,-0.226,-0.28,-0.24,-0.187,-0.092
-0.075,-0.085,-0.01,0.08,-0.032,-0.047,-0.036,-0.203,-0.282,-0.244,-0.188,-0.108
-0.078,-0.061,0.017,0.069,-0.047,-0.022,-0.054,-0.249,-0.298,-0.254,-0.185,-0.119
-0.079,-0.079,0.0,0.079,-0.04,-0.039,-0.039,-0.18,-0.274,-0.241,-0.183,-0.124
-0.115,-0.084,0.03,0.099,-0.072,-0.027,-0.038,-0.253,-0.314,-0.275,-0.216,-0.125
-0.103,-0.141,-0.038,0.122,-0.032,-0.09,0.164,0.028,-0.304,-0.301,-0.259,-0.174
-0.152,-0.258,-0.107,0.206,-0.022,-0.182,0.559,0.302,-0.703,-0.706,-0.589,-0.401
0.03,0.102,0.073,-0.066,-0.021,0.087,0.486,0.655,-0.554,-0.528,-0.386,-0.212
0.551,1.174,0.623,-0.862,-0.036,0.898,-0.47,0.628,0.859,0.938,0.9,0.708
0.793,2.566,1.773,-1.68,-0.49,2.169,-1.658,-1.399,3.193,3.177,2.641,1.802
0.616,2.103,1.487,-1.359,-0.436,1.795,-1.654,-2.136,4.57,3.995,2.954,1.797
0.09,0.296,0.207,-0.193,-0.059,0.251,-0.812,-1.141,1.915,1.396,0.916,0.51
-0.153,-0.125,0.028,0.139,-0.09,-0.048,-0.287,-0.519,-0.286,-0.273,-0.211,-0.095
-0.022,0.007,0.029,0.007,-0.025,0.018,-0.072,-0.081,0.02,0.008,-0.025,-0.016
-0.045,-0.032,0.013,0.038,-0.029,-0.01,-0.006,-0.037,-0.176,-0.215,-0.176,-0.1
-0.058,-0.03,0.028,0.043,-0.043,0.0,0.025,0.018,-0.207,-0.219,-0.185,-0.101
-0.054,-0.058,-0.004,0.056,-0.025,-0.03,0.054,0.047,-0.231,-0.251,-0.206,-0.12
-0.05,-0.036,0.014,0.043,-0.032,-0.011,0.059,0.067,-0.254,-0.254,-0.199,-0.113
-0.038,-0.052,-0.014,0.045,-0.012,-0.032,0.061,0.107,-0.214,-0.222,-0.18,-0.105
-0.041,-0.035,0.005,0.038,-0.023,-0.015,0.059,0.101,-0.243,-0.24,-0.186,-0.107
-0.026,-0.024,0.002,0.024,-0.014,-0.011,0.064,0.138,-0.182,-0.199,-0.162,-0.095
-0.025,-0.011,0.014,0.018,-0.019,0.002,0.066,0.148,-0.184,-0.209,-0.169,-0.098
-0.033,0.0,0.033,0.016,-0.033,0.016,0.069,0.182,-0.136,-0.177,-0.148,-0.086
-0.013,0.022,0.035,-0.005,-0.024,0.028,0.072,0.217,-0.114,-0.155,-0.135,-0.078
0.033,0.064,0.031,-0.048,0.001,0.047,0.077,0.259,-0.078,-0.115,-0.108,-0.068
0.045,0.073,0.028,-0.059,0.009,0.05,0.084,0.311,-0.038,-0.091,-0.08,-0.055
0.041,0.064,0.023,-0.053,0.009,0.043,0.088,0.368,0.008,-0.048,-0.057,-0.04
0.077,0.098,0.021,-0.087,0.028,0.059,0.096,0.436,0.07,-0.003,-0.022,-0.015
0.109,0.121,0.013,-0.115,0.048,0.067,0.109,0.513,0.125,0.036,0.011,0.007
0.136,0.138,0.002,-0.137,0.067,0.07,0.122,0.602,0.197,0.105,0.049,0.023
0.184,0.192,0.009,-0.188,0.087,0.1,0.12,0.709,0.296,0.191,0.122,0.065
0.218,0.238,0.02,-0.229,0.099,0.129,0.107,0.804,0.402,0.296,0.202,0.113
0.258,0.289,0.031,-0.274,0.114,0.16,0.096,0.865,0.508,0.398,0.284,0.166
0.302,0.338,0.037,-0.32,0.132,0.187,0.085,0.892,0.6,0.492,0.358,0.211
0.341,0.396,0.054,-0.369,0.143,0.225,0.068,0.886,0.676,0.579,0.432,0.261
0.348,0.42,0.072,-0.384,0.138,0.246,0.044,0.847,0.718,0.634,0.477,0.304
0.337,0.425,0.088,-0.381,0.124,0.256,0.022,0.747,0.711,0.644,0.483,0.298
0.298,0.403,0.105,-0.351,0.096,0.254,0.007,0.583,0.657,0.593,0.454,0.282
0.217,0.334,0.118,-0.276,0.049,0.226,-0.003,0.408,0.513,0.449,0.345,0.233
0.154,0.256,0.103,-0.206,0.025,0.18,-0.015,0.261,0.334,0.275,0.213,0.142
0.087,0.16,0.074,-0.124,0.006,0.117,-0.024,0.125,0.157,0.116,0.085,0.063
0.019,0.088,0.069,-0.054,-0.025,0.079,-0.025,0.035,0.016,-0.018,-0.014,0.004
-0.014,0.045,0.06,-0.016,-0.037,0.052,-0.025,-0.011,-0.074,-0.098,-0.081,-0.041
-0.042,0.008,0.05,0.017,-0.046,0.029,-0.025,-0.062,-0.15,-0.159,-0.132,-0.077
-0.06,-0.014,0.046,0.037,-0.053,0.015,-0.025,-0.072,-0.181,-0.186,-0.15,-0.09
-0.052,-0.011,0.041,0.031,-0.046,0.015,-0.023,-0.064,-0.189,-0.19,-0.155,-0.089
-0.067,-0.028,0.039,0.048,-0.053,0.005,-0.02,-0.064,-0.194,-0.202,-0.158,-0.105
-0.083,-0.049,0.034,0.065,-0.058,-0.008,-0.018,-0.057,-0.197,-0.206,-0.163,-0.111
-0.07,-0.039,0.031,0.054,-0.051,-0.004,-0.015,-0.056,-0.201,-0.204,-0.165,-0.109
-0.066,-0.039,0.027,0.052,-0.046,-0.006,-0.012,-0.058,-0.199,-0.202,-0.165,-0.11
-0.058,-0.033,0.025,0.045,-0.041,-0.004,-0.009,-0.062,-0.201,-0.199,-0.165,-0.11
-0.054,-0.029,0.025,0.041,-0.04,-0.002,-0.014,-0.064,-0.199,-0.2,-0.165,-0.11
-0.056,-0.031,0.025,0.043,-0.04,-0.003,-0.019,-0.066,-0.201,-0.207,-0.165,-0.105
-0.054,-0.029,0.025,0.041,-0.04,-0.001,-0.023,-0.084,-0.21,-0.21,-0.165,-0.105
-0.057,-0.032,0.025,0.044,-0.041,-0.003,-0.027,-0.098,-0.218,-0.215,-0.169,-0.104
-0.059,-0.028,0.031,0.044,-0.045,0.001,-0.032,-0.114,-0.216,-0.213,-0.17,-0.1
-0.068,-0.036,0.033,0.052,-0.051,-0.002,-0.035,-0.139,-0.234,-0.219,-0.171,-0.1
-0.075,-0.045,0.029,0.06,-0.052,-0.008,-0.035,-0.155,-0.261,-0.237,-0.176,-0.102
-0.067,-0.036,0.03,0.052,-0.048,-0.003,-0.035,-0.164,-0.263,-0.235,-0.18,-0.107
-0.063,-0.033,0.03,0.048,-0.046,-0.001,-0.035,-0.161,-0.267,-0.235,-0.183,-0.111
-0.051,-0.021,0.03,0.036,-0.04,0.004,-0.035,-0.168,-0.273,-0.236,-0.187,-0.115
-0.063,-0.033,0.03,0.048,-0.046,-0.002,-0.031,-0.187,-0.277,-0.234,-0.19,-0.115
-0.087,-0.061,0.026,0.073,-0.056,-0.017,-0.03,-0.189,-0.279,-0.241,-0.194,-0.118
-0.082,-0.061,0.021,0.072,-0.052,-0.02,-0.03,-0.195,-0.288,-0.246,-0.194,-0.121
-0.084,-0.065,0.019,0.074,-0.051,-0.022,-0.03,-0.204,-0.296,-0.244,-0.19,-0.117
-0.081,-0.068,0.013,0.074,-0.047,-0.027,-0.03,-0.205,-0.29,-0.245,-0.19,-0.115
-0.082,-0.07,0.012,0.076,-0.047,-0.029,-0.031,-0.205,-0.288,-0.245,-0.19,-0.115
-0.076,-0.07,0.006,0.073,-0.041,-0.032,-0.035,-0.205,-0.283,-0.245,-0.19,-0.115
-0.077,-0.073,0.003,0.075,-0.04,-0.034,-0.035,-0.205,-0.279,-0.25,-0.19,-0.115
-0.069,-0.076,-0.006,0.073,-0.031,-0.041,-0.035,-0.205,-0.284,-0.251,-0.186,-0.115
-0.067,-0.075,-0.008,0.071,-0.029,-0.041,-0.035,-0.207,-0.288,-0.249,-0.184,-0.11
-0.078,-0.08,-0.002,0.079,-0.038,-0.04,-0.035,-0.205,-0.284,-0.25,-0.185,-0.11
-0.05,-0.08,-0.03,0.065,-0.01,-0.055,-0.035,-0.205,-0.28,-0.25,-0.185,-0.11
-0.07,-0.08,-0.01,0.075,-0.03,-0.045,-0.035,-0.205,-0.278,-0.25,-0.185,-0.109
-0.091,-0.08,0.011,0.085,-0.051,-0.034,-0.035,-0.205,-0.273,-0.254,-0.184,-0.111
-0.076,-0.08,-0.004,0.078,-0.036,-0.042,-0.035,-0.205,-0.27,-0.255,-0.18,-0.107
-0.076,-0.078,-0.002,0.077,-0.037,-0.04,-0.035,-0.201,-0.273,-0.255,-0.18,-0.105
-0.064,-0.074,-0.01,0.069,-0.026,-0.042,-0.035,-0.199,-0.275,-0.259,-0.18,-0.105
-0.063,-0.075,-0.012,0.069,-0.025,-0.044,-0.036,-0.2,-0.273,-0.26,-0.18,-0.102
-0.056,-0.075,-0.019,0.066,-0.018,-0.047,-0.034,-0.195,-0.266,-0.259,-0.181,-0.099
-0.039,-0.076,-0.037,0.058,-0.001,-0.056,-0.035,-0.196,-0.259,-0.251,-0.176,-0.103
-0.042,-0.075,-0.034,0.059,-0.004,-0.054,-0.029,-0.192,-0.251,-0.241,-0.168,-0.114
-0.035,-0.059,-0.024,0.047,-0.005,-0.041,-0.02,-0.179,-0.243,-0.229,-0.162,-0.107
-0.013,-0.028,-0.015,0.021,0.001,-0.021,-0.008,-0.151,-0.235,-0.211,-0.154,-0.097
0.006,-0.002,-0.008,-0.001,0.007,-0.005,0.031,-0.126,-0.225,-0.204,-0.142,-0.089
0.031,0.032,0.001,-0.032,0.015,0.016,0.046,-0.126,-0.215,-0.203,-0.136,-0.084
0.023,0.029,0.006,-0.026,0.008,0.017,0.021,-0.121,-0.203,-0.209,-0.143,-0.084
-0.012,-0.03,-0.018,0.021,0.003,-0.024,0.01,-0.148,-0.214,-0.209,-0.136,-0.077
-0.038,-0.08,-0.042,0.059,0.002,-0.06,0.005,-0.196,-0.252,-0.216,-0.149,-0.088
-0.064,-0.104,-0.04,0.085,-0.012,-0.072,-0.008,-0.225,-0.27,-0.236,-0.173,-0.109
-0.07,-0.119,-0.049,0.095,-0.01,-0.084,-0.005,-0.206,-0.263,-0.234,-0.167,-0.109
-0.08,-0.12,-0.04,0.1,-0.019,-0.08,-0.021,-0.247,-0.28,-0.249,-0.173,-0.111
-0.063,-0.126,-0.063,0.095,0.0,-0.094,-0.015,-0.214,-0.263,-0.236,-0.159,-0.108
-0.058,-0.127,-0.069,0.093,0.006,-0.098,-0.032,-0.241,-0.286,-0.247,-0.171,-0.112
-0.058,-0.119,-0.061,0.089,0.002,-0.09,-0.026,-0.221,-0.269,-0.223,-0.162,-0.115
-0.021,-0.13,-0.109,0.075,0.044,-0.119,-0.003,-0.214,-0.287,-0.233,-0.165,-0.121
-0.053,-0.115,-0.062,0.084,0.005,-0.088,0.02,-0.218,-0.278,-0.241,-0.172,-0.122
-0.114,-0.258,-0.143,0.186,0.015,-0.201,0.353,0.148,-0.405,-0.424,-0.347,-0.272
-0.118,-0.223,-0.105,0.171,-0.007,-0.164,0.647,0.333,-0.769,-0.751,-0.581,-0.408
0.264,0.382,0.118,-0.324,0.073,0.25,0.222,0.857,-0.046,-0.022,0.08,0.101
0.761,1.768,1.008,-1.265,-0.123,1.388,-1.072,-0.23,1.681,1.805,1.668,1.23
0.853,2.624,1.771,-1.739,-0.459,2.197,-1.937,-2.294,3.981,3.859,3.142,2.093
0.527,1.191,0.664,-0.86,-0.068,0.927,-1.411,-1.86,3.717,3.146,2.314,1.39
0.034,-0.141,-0.175,0.054,0.104,-0.158,-0.568,-0.851,0.563,0.361,0.247,0.135
-0.038,-0.095,-0.057,0.067,0.01,-0.076,-0.143,-0.288,-0.173,-0.136,-0.099,-0.054
0.009,-0.095,-0.103,0.043,0.057,-0.098,-0.01,-0.019,0.071,-0.006,-0.016,-0.034
-0.041,-0.132,-0.091,0.087,0.025,-0.111,0.044,-0.03,-0.221,-0.235,-0.161,-0.111
-0.043,-0.154,-0.111,0.098,0.034,-0.132,0.072,0.052,-0.145,-0.177,-0.139,-0.105
-0.038,-0.155,-0.117,0.097,0.04,-0.135,0.069,0.04,-0.236,-0.262,-0.184,-0.122
0.013,-0.141,-0.154,0.064,0.084,-0.147,0.1,0.087,-0.177,-0.202,-0.147,-0.101
0.004,-0.146,-0.149,0.071,0.077,-0.147,0.113,0.096,-0.2,-0.216,-0.152,-0.108
0.015,-0.117,-0.133,0.051,0.074,-0.125,0.108,0.116,-0.172,-0.19,-0.131,-0.096
0.02,-0.114,-0.134,0.047,0.077,-0.124,0.111,0.139,-0.142,-0.171,-0.121,-0.096
0.02,-0.1,-0.119,0.04,0.07,-0.109,0.109,0.167,-0.127,-0.158,-0.112,-0.086
0.025,-0.097,-0.122,0.036,0.074,-0.109,0.11,0.208,-0.086,-0.123,-0.09,-0.073
0.022,-0.09,-0.112,0.034,0.068,-0.101,0.121,0.244,-0.067,-0.111,-0.076,-0.062
0.051,-0.06,-0.111,0.005,0.082,-0.085,0.13,0.296,-0.018,-0.074,-0.057,-0.046
0.075,-0.029,-0.104,-0.023,0.09,-0.066,0.132,0.349,0.012,-0.047,-0.034,-0.034
0.097,-0.016,-0.113,-0.04,0.106,-0.064,0.142,0.419,0.066,-0.005,-0.001,-0.013
0.104,-0.01,-0.114,-0.047,0.11,-0.062,0.161,0.503,0.13,0.054,0.035,0.01
0.126,0.019,-0.107,-0.072,0.116,-0.044,0.173,0.591,0.198,0.106,0.074,0.033
0.172,0.068,-0.104,-0.119,0.137,-0.018,0.184,0.687,0.269,0.166,0.123,0.055
0.216,0.121,-0.096,-0.168,0.156,0.012,0.188,0.793,0.364,0.257,0.198,0.093
0.252,0.16,-0.092,-0.206,0.172,0.034,0.181,0.866,0.456,0.343,0.27,0.138
0.304,0.22,-0.084,-0.262,0.193,0.068,0.175,0.918,0.553,0.449,0.352,0.191
0.37,0.299,-0.071,-0.334,0.22,0.114,0.159,0.938,0.644,0.543,0.431,0.248
0.399,0.338,-0.061,-0.369,0.23,0.138,0.125,0.907,0.701,0.62,0.498,0.295
0.391,0.332,-0.059,-0.362,0.225,0.136,0.086,0.827,0.719,0.651,0.528,0.316
0.393,0.333,-0.06,-0.363,0.227,0.136,0.045,0.679,0.702,0.635,0.521,0.312
0.36,0.3,-0.059,-0.33,0.209,0.12,0.024,0.497,0.619,0.567,0.465,0.284
0.264,0.204,-0.061,-0.234,0.163,0.071,0.025,0.318,0.459,0.406,0.342,0.212
0.171,0.112,-0.059,-0.142,0.114,0.026,0.028,0.171,0.284,0.241,0.209,0.129
0.104,0.038,-0.066,-0.071,0.085,-0.014,0.031,0.068,0.13,0.103,0.096,0.058
0.059,-0.028,-0.087,-0.015,0.073,-0.057,0.034,-0.01,0.013,-0.004,0.018,0.009
0.025,-0.082,-0.107,0.029,0.066,-0.094,0.036,-0.062,-0.071,-0.085,-0.044,-0.03
0.015,-0.109,-0.124,0.048,0.069,-0.116,0.039,-0.082,-0.115,-0.129,-0.08,-0.063
-0.007,-0.133,-0.125,0.07,0.059,-0.129,0.04,-0.082,-0.137,-0.15,-0.097,-0.074
-0.009,-0.134,-0.125,0.072,0.058,-0.129,0.04,-0.079,-0.149,-0.163,-0.107,-0.081
-0.012,-0.137,-0.125,0.075,0.057,-0.131,0.04,-0.08,-0.149,-0.159,-0.107,-0.087
-0.033,-0.157,-0.124,0.095,0.046,-0.14,0.04,-0.08,-0.155,-0.158,-0.111,-0.09
-0.029,-0.147,-0.118,0.088,0.045,-0.133,0.038,-0.079,-0.154,-0.154,-0.114,-0.09
-0.031,-0.145,-0.114,0.088,0.042,-0.13,0.032,-0.082,-0.156,-0.155,-0.115,-0.09
-0.026,-0.137,-0.111,0.081,0.043,-0.123,0.028,-0.085,-0.16,-0.159,-0.11,-0.09
-0.031,-0.134,-0.103,0.083,0.036,-0.118,0.023,-0.086,-0.159,-0.164,-0.11,-0.09
0.002,-0.125,-0.127,0.062,0.065,-0.126,0.019,-0.089,-0.163,-0.167,-0.11,-0.087
0.022,-0.117,-0.139,0.048,0.08,-0.128,0.014,-0.091,-0.169,-0.172,-0.11,-0.085
-0.019,-0.142,-0.123,0.081,0.052,-0.132,0.011,-0.092,-0.181,-0.175,-0.11,-0.085
-0.024,-0.141,-0.117,0.083,0.047,-0.129,0.006,-0.106,-0.193,-0.18,-0.112,-0.085
-0.017,-0.131,-0.114,0.074,0.049,-0.122,0.003,-0.126,-0.203,-0.19,-0.118,-0.085
-0.012,-0.128,-0.115,0.07,0.052,-0.121,0.0,-0.133,-0.212,-0.198,-0.121,-0.085
-0.003,-0.117,-0.115,0.061,0.056,-0.116,-0.005,-0.143,-0.223,-0.204,-0.126,-0.085
-0.001,-0.117,-0.115,0.06,0.057,-0.116,-0.003,-0.15,-0.239,-0.201,-0.129,-0.085
-0.008,-0.122,-0.114,0.065,0.053,-0.117,0.0,-0.154,-0.241,-0.2,-0.132,-0.085
-0.02,-0.129,-0.109,0.075,0.045,-0.119,0.0,-0.157,-0.239,-0.2,-0.135,-0.085
-0.023,-0.133,-0.111,0.078,0.044,-0.122,0.003,-0.162,-0.241,-0.195,-0.137,-0.085
-0.029,-0.136,-0.107,0.082,0.04,-0.121,0.006,-0.186,-0.239,-0.194,-0.141,-0.088
-0.035,-0.139,-0.105,0.087,0.035,-0.122,0.004,-0.191,-0.242,-0.196,-0.137,-0.091
-0.036,-0.141,-0.105,0.089,0.035,-0.123,0.001,-0.189,-0.245,-0.203,-0.134,-0.094
-0.041,-0.145,-0.105,0.094,0.033,-0.125,-0.002,-0.196,-0.245,-0.205,-0.132,-0.097
-0.039,-0.144,-0.105,0.092,0.034,-0.124,-0.005,-0.194,-0.245,-0.204,-0.129,-0.099
-0.034,-0.139,-0.105,0.087,0.036,-0.121,-0.008,-0.197,-0.245,-0.205,-0.125,-0.102
-0.028,-0.134,-0.105,0.082,0.039,-0.119,-0.011,-0.2,-0.249,-0.205,-0.125,-0.105
-0.025,-0.129,-0.104,0.077,0.04,-0.116,-0.007,-0.2,-0.25,-0.205,-0.129,-0.105
-0.021,-0.126,-0.105,0.074,0.043,-0.116,-0.002,-0.2,-0.252,-0.208,-0.134,-0.105
-0.024,-0.119,-0.095,0.071,0.036,-0.106,-0.014,-0.199,-0.255,-0.211,-0.135,-0.105
-0.037,-0.136,-0.099,0.087,0.031,-0.117,-0.031,-0.211,-0.256,-0.208,-0.135,-0.105
-0.01,-0.127,-0.117,0.068,0.054,-0.122,-0.03,-0.224,-0.26,-0.205,-0.135,-0.105
-0.013,-0.115,-0.103,0.064,0.045,-0.109,-0.022,-0.228,-0.26,-0.205,-0.135,-0.105
-0.061,-0.154,-0.092,0.108,0.016,-0.123,-0.016,-0.227,-0.264,-0.205,-0.143,-0.105
-0.075,-0.159,-0.084,0.117,0.005,-0.121,-0.009,-0.224,-0.265,-0.205,-0.146,-0.105
-0.073,-0.149,-0.077,0.111,0.002,-0.113,-0.002,-0.225,-0.265,-0.205,-0.144,-0.105
-0.042,-0.147,-0.105,0.095,0.032,-0.125,-0.002,-0.225,-0.269,-0.208,-0.145,-0.105
-0.017,-0.14,-0.123,0.078,0.053,-0.131,-0.006,-0.225,-0.27,-0.21,-0.145,-0.105
-0.017,-0.133,-0.116,0.076,0.05,-0.125,-0.011,-0.224,-0.268,-0.21,-0.145,-0.105
-0.025,-0.14,-0.115,0.083,0.045,-0.127,-0.013,-0.215,-0.265,-0.21,-0.145,-0.105
-0.047,-0.157,-0.109,0.102,0.032,-0.132,-0.018,-0.205,-0.264,-0.209,-0.145,-0.107
-0.042,-0.155,-0.113,0.099,0.036,-0.134,-0.02,-0.195,-0.265,-0.21,-0.145,-0.104
-0.028,-0.151,-0.123,0.09,0.047,-0.136,0.0,-0.185,-0.264,-0.206,-0.145,-0.098
-0.034,-0.152,-0.118,0.093,0.042,-0.135,-0.006,-0.186,-0.267,-0.201,-0.146,-0.095
-0.033,-0.143,-0.11,0.089,0.039,-0.127,-0.011,-0.18,-0.259,-0.196,-0.14,-0.091
-0.014,-0.112,-0.098,0.063,0.042,-0.104,-0.014,-0.181,-0.244,-0.189,-0.126,-0.086
0.022,-0.081,-0.103,0.03,0.063,-0.092,0.005,-0.176,-0.23,-0.184,-0.117,-0.08
0.04,-0.064,-0.104,0.013,0.072,-0.084,0.057,-0.158,-0.206,-0.168,-0.121,-0.07
0.03,-0.047,-0.077,0.008,0.054,-0.061,0.064,-0.126,-0.199,-0.155,-0.119,-0.061
0.037,-0.043,-0.079,0.003,0.058,-0.061,0.039,-0.111,-0.199,-0.155,-0.121,-0.066
0.035,-0.074,-0.109,0.019,0.073,-0.091,0.0,-0.164,-0.205,-0.159,-0.119,-0.068
0.005,-0.121,-0.126,0.058,0.066,-0.123,-0.016,-0.212,-0.23,-0.186,-0.119,-0.078
-0.027,-0.142,-0.115,0.085,0.044,-0.128,-0.016,-0.236,-0.245,-0.21,-0.139,-0.1
-0.044,-0.167,-0.124,0.105,0.04,-0.145,-0.013,-0.217,-0.267,-0.217,-0.152,-0.11
-0.035,-0.154,-0.119,0.095,0.042,-0.136,-0.018,-0.246,-0.291,-0.225,-0.151,-0.11
-0.041,-0.157,-0.116,0.099,0.037,-0.136,-0.011,-0.214,-0.268,-0.212,-0.146,-0.112
-0.07,-0.194,-0.123,0.132,0.027,-0.158,-0.021,-0.246,-0.293,-0.229,-0.156,-0.119
-0.051,-0.191,-0.14,0.121,0.045,-0.165,-0.023,-0.208,-0.267,-0.212,-0.142,-0.112
-0.048,-0.204,-0.156,0.126,0.054,-0.179,-0.028,-0.216,-0.29,-0.24,-0.166,-0.128
-0.08,-0.181,-0.101,0.13,0.011,-0.141,0.016,-0.211,-0.282,-0.236,-0.165,-0.127
-0.126,-0.315,-0.189,0.221,0.032,-0.252,0.366,0.113,-0.437,-0.437,-0.358,-0.284
-0.133,-0.261,-0.129,0.197,-0.002,-0.195,0.634,0.313,-0.736,-0.713,-0.562,-0.401
0.32,0.41,0.09,-0.366,0.115,0.25,0.165,0.815,0.013,0.06,0.155,0.16
0.838,1.819,0.981,-1.329,-0.071,1.399,-1.124,-0.495,1.694,1.9,1.777,1.33
0.911,2.527,1.615,-1.72,-0.352,2.071,-1.939,-2.421,3.836,3.846,3.187,2.155
0.552,1.004,0.452,-0.778,0.05,0.728,-1.382,-1.79,3.291,2.914,2.191,1.342
0.045,-0.197,-0.243,0.076,0.144,-0.22,-0.536,-0.797,0.359,0.276,0.195,0.103
0.005,-0.111,-0.116,0.054,0.06,-0.113,-0.121,-0.224,-0.149,-0.105,-0.064,-0.05
0.039,-0.144,-0.183,0.053,0.111,-0.163,0.0,0.01,0.02,-0.03,-0.028,-0.043
-0.007,-0.147,-0.14,0.077,0.067,-0.143,0.039,-0.006,-0.236,-0.226,-0.155,-0.112
0.024,-0.148,-0.172,0.062,0.098,-0.16,0.073,0.07,-0.167,-0.178,-0.137,-0.106
-0.006,-0.165,-0.159,0.086,0.077,-0.162,0.077,0.05,-0.248,-0.244,-0.179,-0.118
-0.013,-0.178,-0.165,0.096,0.076,-0.172,0.097,0.075,-0.181,-0.185,-0.139,-0.1
-0.018,-0.178,-0.161,0.098,0.072,-0.169,0.101,0.067,-0.208,-0.207,-0.153,-0.108
-0.003,-0.149,-0.146,0.076,0.072,-0.147,0.101,0.095,-0.182,-0.18,-0.131,-0.096
0.001,-0.145,-0.146,0.072,0.074,-0.146,0.106,0.118,-0.165,-0.168,-0.13,-0.097
0.003,-0.128,-0.13,0.063,0.067,-0.128,0.104,0.148,-0.148,-0.15,-0.118,-0.092
0.01,-0.121,-0.13,0.056,0.07,-0.125,0.106,0.187,-0.113,-0.125,-0.104,-0.082
0.012,-0.111,-0.123,0.05,0.068,-0.116,0.104,0.235,-0.097,-0.122,-0.091,-0.073
0.034,-0.092,-0.126,0.03,0.08,-0.109,0.11,0.285,-0.05,-0.091,-0.058,-0.062
0.061,-0.063,-0.125,0.001,0.093,-0.094,0.12,0.338,-0.02,-0.059,-0.04,-0.048
0.091,-0.033,-0.125,-0.029,0.108,-0.079,0.131,0.411,0.034,-0.013,-0.009,-0.028
0.111,-0.014,-0.125,-0.048,0.118,-0.069,0.137,0.486,0.084,0.027,0.02,-0.007
0.121,0.003,-0.118,-0.062,0.119,-0.057,0.147,0.578,0.14,0.079,0.06,0.018
0.171,0.063,-0.108,-0.117,0.14,-0.022,0.161,0.681,0.221,0.154,0.111,0.043
0.204,0.106,-0.098,-0.155,0.151,0.004,0.167,0.786,0.302,0.231,0.174,0.08
0.233,0.146,-0.087,-0.189,0.16,0.029,0.166,0.883,0.394,0.32,0.248,0.122
0.303,0.224,-0.079,-0.264,0.191,0.072,0.155,0.953,0.495,0.427,0.331,0.181
0.336,0.266,-0.07,-0.301,0.203,0.098,0.136,0.971,0.577,0.518,0.416,0.234
0.38,0.314,-0.066,-0.346,0.223,0.124,0.102,0.948,0.639,0.594,0.476,0.285
0.404,0.343,-0.061,-0.373,0.232,0.141,0.065,0.869,0.654,0.629,0.513,0.313
0.381,0.334,-0.047,-0.357,0.213,0.143,0.025,0.72,0.633,0.613,0.506,0.298
0.342,0.309,-0.033,-0.326,0.187,0.138,-0.004,0.547,0.566,0.558,0.46,0.29
0.249,0.22,-0.03,-0.235,0.139,0.095,-0.003,0.363,0.422,0.419,0.356,0.226
0.132,0.102,-0.03,-0.117,0.081,0.036,0.005,0.196,0.263,0.254,0.218,0.137
0.063,0.032,-0.032,-0.047,0.047,0.0,0.01,0.074,0.116,0.12,0.113,0.068
0.02,-0.035,-0.055,0.008,0.037,-0.045,0.018,-0.017,-0.012,0.003,0.023,0.006
-0.035,-0.118,-0.083,0.077,0.024,-0.1,0.023,-0.066,-0.089,-0.074,-0.043,-0.032
-0.059,-0.138,-0.079,0.098,0.01,-0.108,0.029,-0.089,-0.134,-0.116,-0.074,-0.061
-0.065,-0.145,-0.08,0.105,0.008,-0.112,0.033,-0.106,-0.155,-0.134,-0.093,-0.071
-0.064,-0.164,-0.1,0.114,0.018,-0.132,0.038,-0.105,-0.165,-0.145,-0.096,-0.069
-0.073,-0.173,-0.1,0.123,0.014,-0.136,0.039,-0.104,-0.175,-0.156,-0.094,-0.071
-0.083,-0.176,-0.093,0.13,0.005,-0.134,0.035,-0.106,-0.169,-0.15,-0.096,-0.069
-0.086,-0.17,-0.084,0.128,-0.001,-0.126,0.035,-0.086,-0.164,-0.145,-0.095,-0.07
-0.063,-0.169,-0.106,0.117,0.021,-0.137,0.035,-0.068,-0.158,-0.142,-0.096,-0.073
-0.047,-0.165,-0.118,0.106,0.036,-0.141,0.035,-0.071,-0.152,-0.135,-0.1,-0.076
-0.06,-0.165,-0.105,0.113,0.023,-0.135,0.035,-0.075,-0.152,-0.137,-0.1,-0.079
-0.051,-0.165,-0.114,0.108,0.032,-0.139,0.032,-0.077,-0.163,-0.144,-0.101,-0.082
-0.055,-0.165,-0.11,0.11,0.028,-0.137,0.026,-0.081,-0.179,-0.15,-0.105,-0.085
-0.063,-0.165,-0.102,0.115,0.02,-0.133,0.022,-0.087,-0.191,-0.153,-0.105,-0.085
-0.065,-0.165,-0.1,0.115,0.018,-0.132,0.017,-0.099,-0.197,-0.158,-0.107,-0.087
-0.076,-0.165,-0.089,0.121,0.007,-0.127,0.013,-0.122,-0.207,-0.164,-0.111,-0.09
-0.067,-0.162,-0.095,0.114,0.014,-0.128,0.008,-0.136,-0.22,-0.17,-0.113,-0.09
-0.05,-0.159,-0.109,0.105,0.029,-0.134,0.005,-0.139,-0.221,-0.175,-0.116,-0.086
-0.058,-0.161,-0.103,0.11,0.022,-0.132,0.005,-0.15,-0.232,-0.175,-0.119,-0.085
-0.063,-0.158,-0.095,0.111,0.016,-0.127,0.003,-0.165,-0.25,-0.175,-0.121,-0.084
-0.072,-0.162,-0.089,0.117,0.009,-0.125,0.0,-0.183,-0.25,-0.175,-0.124,-0.081
-0.074,-0.156,-0.082,0.115,0.004,-0.119,0.0,-0.199,-0.25,-0.175,-0.125,-0.079
-0.074,-0.153,-0.079,0.114,0.003,-0.116,0.003,-0.213,-0.25,-0.177,-0.125,-0.082
-0.101,-0.181,-0.08,0.141,-0.01,-0.13,0.006,-0.225,-0.25,-0.181,-0.125,-0.094
-0.113,-0.186,-0.073,0.15,-0.019,-0.13,0.005,-0.239,-0.248,-0.179,-0.125,-0.096
-0.106,-0.184,-0.078,0.145,-0.013,-0.131,0.005,-0.246,-0.244,-0.181,-0.125,-0.094
-0.088,-0.186,-0.098,0.137,0.006,-0.142,0.005,-0.245,-0.242,-0.184,-0.125,-0.091
-0.083,-0.183,-0.101,0.133,0.01,-0.142,0.005,-0.243,-0.239,-0.185,-0.125,-0.089
-0.088,-0.187,-0.099,0.137,0.006,-0.142,0.004,-0.239,-0.235,-0.188,-0.125,-0.092
-0.081,-0.176,-0.095,0.129,0.008,-0.135,0.0,-0.24,-0.235,-0.191,-0.125,-0.095
-0.094,-0.189,-0.095,0.142,0.001,-0.142,0.0,-0.241,-0.241,-0.187,-0.124,-0.095
-0.104,-0.199,-0.094,0.152,-0.005,-0.146,0.0,-0.24,-0.24,-0.185,-0.12,-0.095
-0.091,-0.187,-0.096,0.14,0.003,-0.142,0.0,-0.24,-0.24,-0.185,-0.12,-0.095
-0.091,-0.184,-0.093,0.138,0.001,-0.138,0.0,-0.236,-0.236,-0.181,-0.12,-0.095
-0.082,-0.174,-0.092,0.128,0.006,-0.133,0.003,-0.235,-0.234,-0.18,-0.12,-0.091
-0.058,-0.173,-0.115,0.116,0.029,-0.144,0.006,-0.234,-0.235,-0.18,-0.12,-0.09
-0.049,-0.163,-0.114,0.107,0.033,-0.138,0.005,-0.231,-0.235,-0.18,-0.12,-0.09
-0.057,-0.166,-0.109,0.111,0.027,-0.138,0.005,-0.228,-0.235,-0.18,-0.12,-0.085
-0.045,-0.153,-0.108,0.099,0.032,-0.13,0.004,-0.225,-0.235,-0.18,-0.12,-0.085
-0.059,-0.163,-0.104,0.112,0.023,-0.134,0.006,-0.222,-0.235,-0.18,-0.12,-0.084
-0.101,-0.204,-0.103,0.152,0.001,-0.153,0.01,-0.219,-0.234,-0.179,-0.12,-0.08
-0.077,-0.173,-0.096,0.126,0.01,-0.134,0.01,-0.222,-0.238,-0.183,-0.12,-0.08
-0.087,-0.178,-0.091,0.133,0.002,-0.134,0.01,-0.229,-0.24,-0.185,-0.12,-0.08
-0.092,-0.178,-0.086,0.135,-0.003,-0.132,0.009,-0.235,-0.24,-0.185,-0.12,-0.08
-0.075,-0.154,-0.079,0.115,0.002,-0.116,0.01,-0.245,-0.243,-0.188,-0.12,-0.08
-0.101,-0.178,-0.078,0.14,-0.011,-0.128,0.007,-0.253,-0.246,-0.191,-0.12,-0.077
-0.078,-0.172,-0.094,0.125,0.008,-0.132,0.005,-0.245,-0.246,-0.191,-0.121,-0.072
-0.037,-0.133,-0.096,0.086,0.03,-0.115,0.006,-0.24,-0.235,-0.181,-0.119,-0.067
-0.017,-0.111,-0.094,0.065,0.039,-0.103,0.007,-0.236,-0.209,-0.157,-0.111,-0.062
0.007,-0.087,-0.094,0.041,0.05,-0.09,0.049,-0.204,-0.175,-0.132,-0.094,-0.058
0.002,-0.069,-0.071,0.033,0.037,-0.07,0.086,-0.163,-0.157,-0.122,-0.074,-0.053
-0.005,-0.068,-0.063,0.037,0.029,-0.065,0.077,-0.129,-0.138,-0.131,-0.076,-0.05
-0.006,-0.088,-0.082,0.047,0.038,-0.085,0.038,-0.179,-0.156,-0.132,-0.073,-0.045
-0.029,-0.136,-0.107,0.083,0.039,-0.121,0.006,-0.225,-0.193,-0.139,-0.082,-0.051
-0.066,-0.163,-0.097,0.114,0.016,-0.13,-0.003,-0.242,-0.223,-0.174,-0.117,-0.08
-0.08,-0.168,-0.089,0.124,0.004,-0.128,-0.002,-0.228,-0.234,-0.173,-0.118,-0.088
-0.083,-0.172,-0.09,0.128,0.003,-0.131,-0.006,-0.232,-0.241,-0.182,-0.128,-0.092
-0.098,-0.166,-0.068,0.133,-0.015,-0.117,-0.011,-0.232,-0.226,-0.179,-0.125,-0.088
-0.091,-0.182,-0.091,0.137,0.001,-0.137,-0.006,-0.211,-0.225,-0.185,-0.134,-0.092
-0.096,-0.168,-0.071,0.132,-0.012,-0.119,-0.013,-0.249,-0.223,-0.189,-0.137,-0.089
-0.079,-0.181,-0.102,0.13,0.012,-0.141,0.007,-0.193,-0.208,-0.184,-0.142,-0.089
-0.09,-0.173,-0.083,0.132,-0.003,-0.128,-0.016,-0.287,-0.263,-0.21,-0.153,-0.101
-0.125,-0.24,-0.115,0.183,-0.005,-0.177,0.188,-0.018,-0.262,-0.241,-0.202,-0.165
-0.201,-0.348,-0.147,0.275,-0.027,-0.247,0.583,0.205,-0.625,-0.626,-0.51,-0.378
0.022,0.018,-0.004,-0.02,0.013,0.007,0.481,0.62,-0.413,-0.396,-0.268,-0.159
0.609,1.134,0.525,-0.872,0.042,0.829,-0.508,0.445,0.885,1.02,1.004,0.794
0.873,2.469,1.596,-1.671,-0.361,2.032,-1.694,-1.726,3.031,3.2,2.773,1.946
0.697,1.843,1.146,-1.27,-0.225,1.494,-1.676,-2.274,4.137,3.863,2.975,1.884
0.156,0.106,-0.051,-0.131,0.103,0.028,-0.819,-1.17,1.558,1.298,0.941,0.532
-0.098,-0.186,-0.088,0.142,-0.005,-0.137,-0.254,-0.502,-0.203,-0.157,-0.036,-0.022
-0.025,-0.085,-0.06,0.055,0.018,-0.072,-0.03,-0.059,0.123,0.086,0.073,0.039
-0.098,-0.169,-0.072,0.134,-0.013,-0.12,0.04,-0.027,-0.131,-0.144,-0.1,-0.068
-0.086,-0.165,-0.08,0.126,-0.003,-0.122,0.079,0.042,-0.124,-0.129,-0.094,-0.066
-0.086,-0.184,-0.098,0.136,0.006,-0.141,0.1,0.061,-0.176,-0.176,-0.141,-0.097
-0.087,-0.157,-0.07,0.122,-0.008,-0.113,0.103,0.077,-0.185,-0.165,-0.128,-0.09
-0.078,-0.166,-0.087,0.122,0.005,-0.126,0.109,0.112,-0.144,-0.145,-0.12,-0.085
-0.084,-0.149,-0.065,0.116,-0.009,-0.107,0.111,0.105,-0.164,-0.158,-0.123,-0.084
-0.075,-0.148,-0.073,0.112,0.0,-0.111,0.115,0.13,-0.115,-0.127,-0.107,-0.074
-0.077,-0.138,-0.061,0.107,-0.007,-0.099,0.116,0.139,-0.132,-0.133,-0.117,-0.076
-0.057,-0.116,-0.059,0.087,0.001,-0.087,0.119,0.177,-0.081,-0.095,-0.086,-0.066
-0.044,-0.099,-0.055,0.072,0.006,-0.077,0.121,0.209,-0.059,-0.088,-0.066,-0.057
-0.028,-0.077,-0.049,0.053,0.01,-0.063,0.123,0.253,-0.027,-0.059,-0.051,-0.041
-0.006,-0.053,-0.047,0.029,0.021,-0.05,0.127,0.302,0.012,-0.03,-0.031,-0.028
0.016,-0.023,-0.039,0.004,0.028,-0.031,0.139,0.365,0.059,0.009,0.0,-0.017
0.016,-0.021,-0.036,0.003,0.026,-0.028,0.145,0.434,0.113,0.05,0.028,-0.003
0.027,-0.001,-0.028,-0.013,0.028,-0.015,0.15,0.512,0.164,0.097,0.056,0.019
0.079,0.052,-0.027,-0.066,0.053,0.012,0.159,0.622,0.241,0.16,0.101,0.04
0.109,0.093,-0.016,-0.101,0.062,0.038,0.155,0.739,0.329,0.237,0.168,0.079
0.16,0.137,-0.023,-0.148,0.092,0.057,0.152,0.83,0.425,0.325,0.239,0.122
0.236,0.193,-0.043,-0.214,0.139,0.075,0.148,0.914,0.535,0.434,0.326,0.179
0.27,0.253,-0.017,-0.261,0.143,0.118,0.146,0.951,0.633,0.539,0.41,0.234
0.312,0.313,0.001,-0.312,0.155,0.157,0.133,0.925,0.708,0.618,0.473,0.279
0.323,0.346,0.024,-0.335,0.149,0.184,0.102,0.886,0.752,0.679,0.526,0.315
0.312,0.36,0.048,-0.337,0.132,0.204,0.068,0.776,0.757,0.679,0.545,0.31
0.29,0.347,0.057,-0.318,0.116,0.201,0.046,0.602,0.709,0.639,0.513,0.299
0.206,0.276,0.069,-0.241,0.068,0.172,0.042,0.426,0.587,0.532,0.411,0.261
0.127,0.184,0.057,-0.156,0.035,0.12,0.04,0.256,0.406,0.359,0.279,0.179
0.055,0.103,0.048,-0.079,0.003,0.075,0.035,0.126,0.229,0.197,0.154,0.1
-0.016,0.017,0.034,-0.001,-0.025,0.025,0.032,0.036,0.089,0.056,0.047,0.032
-0.056,-0.056,0.0,0.056,-0.028,-0.027,0.029,-0.019,-0.019,-0.043,-0.028,-0.016
-0.06,-0.077,-0.017,0.069,-0.021,-0.047,0.039,-0.044,-0.081,-0.095,-0.078,-0.051
-0.073,-0.095,-0.022,0.084,-0.026,-0.058,0.055,-0.056,-0.119,-0.127,-0.11,-0.074
-0.094,-0.121,-0.027,0.108,-0.033,-0.074,0.053,-0.064,-0.136,-0.141,-0.121,-0.075
-0.078,-0.118,-0.04,0.098,-0.019,-0.078,0.049,-0.066,-0.135,-0.144,-0.12,-0.075
-0.074,-0.114,-0.04,0.094,-0.017,-0.076,0.046,-0.064,-0.135,-0.149,-0.12,-0.075
-0.075,-0.111,-0.036,0.093,-0.02,-0.073,0.041,-0.066,-0.136,-0.156,-0.12,-0.075
-0.074,-0.107,-0.034,0.091,-0.02,-0.07,0.039,-0.064,-0.136,-0.161,-0.129,-0.083
-0.069,-0.099,-0.03,0.084,-0.019,-0.064,0.035,-0.066,-0.143,-0.166,-0.137,-0.086
-0.088,-0.117,-0.029,0.103,-0.03,-0.072,0.033,-0.063,-0.135,-0.164,-0.134,-0.084
-0.1,-0.125,-0.025,0.113,-0.037,-0.075,0.03,-0.066,-0.143,-0.168,-0.136,-0.085
-0.08,-0.103,-0.023,0.092,-0.029,-0.062,0.026,-0.081,-0.167,-0.171,-0.135,-0.085
-0.102,-0.121,-0.019,0.111,-0.041,-0.07,0.025,-0.09,-0.164,-0.17,-0.135,-0.085
-0.115,-0.132,-0.017,0.124,-0.049,-0.074,0.021,-0.101,-0.17,-0.171,-0.139,-0.082
-0.119,-0.132,-0.014,0.126,-0.052,-0.073,0.02,-0.106,-0.18,-0.17,-0.139,-0.079
-0.123,-0.136,-0.013,0.13,-0.054,-0.075,0.02,-0.111,-0.2,-0.186,-0.144,-0.079
-0.135,-0.139,-0.005,0.137,-0.065,-0.072,0.02,-0.113,-0.211,-0.194,-0.143,-0.072
-0.128,-0.14,-0.012,0.134,-0.058,-0.075,0.02,-0.118,-0.215,-0.201,-0.154,-0.083
-0.1,-0.136,-0.036,0.118,-0.031,-0.086,0.02,-0.134,-0.231,-0.221,-0.167,-0.101
-0.1,-0.131,-0.031,0.116,-0.034,-0.081,0.02,-0.137,-0.23,-0.215,-0.16,-0.097
-0.102,-0.128,-0.026,0.116,-0.038,-0.077,0.02,-0.139,-0.23,-0.21,-0.142,-0.093
-0.103,-0.125,-0.023,0.114,-0.04,-0.074,0.02,-0.143,-0.23,-0.207,-0.151,-0.091
-0.1,-0.118,-0.017,0.109,-0.041,-0.067,0.02,-0.146,-0.229,-0.199,-0.181,-0.084
-0.118,-0.131,-0.014,0.125,-0.052,-0.072,0.02,-0.151,-0.233,-0.204,-0.18,-0.09
-0.111,-0.12,-0.01,0.115,-0.05,-0.065,0.016,-0.143,-0.239,-0.204,-0.179,-0.102
-0.115,-0.126,-0.011,0.121,-0.052,-0.068,0.015,-0.154,-0.245,-0.21,-0.18,-0.107
-0.139,-0.146,-0.007,0.143,-0.066,-0.076,0.015,-0.173,-0.245,-0.225,-0.18,-0.109
-0.121,-0.127,-0.006,0.124,-0.057,-0.066,0.011,-0.168,-0.245,-0.225,-0.178,-0.105
-0.129,-0.13,-0.002,0.13,-0.064,-0.065,0.009,-0.16,-0.245,-0.225,-0.174,-0.105
-0.104,-0.13,-0.027,0.117,-0.039,-0.078,0.012,-0.155,-0.245,-0.225,-0.175,-0.104
-0.09,-0.129,-0.039,0.11,-0.026,-0.084,0.015,-0.147,-0.245,-0.225,-0.175,-0.1
-0.114,-0.131,-0.017,0.123,-0.049,-0.074,0.015,-0.142,-0.242,-0.224,-0.175,-0.1
-0.103,-0.128,-0.024,0.116,-0.04,-0.076,0.015,-0.139,-0.239,-0.219,-0.175,-0.103
-0.106,-0.127,-0.022,0.117,-0.042,-0.074,0.015,-0.144,-0.24,-0.227,-0.185,-0.112
-0.109,-0.122,-0.013,0.115,-0.048,-0.067,0.014,-0.155,-0.239,-0.236,-0.186,-0.111
-0.11,-0.122,-0.012,0.116,-0.049,-0.067,0.018,-0.156,-0.24,-0.239,-0.179,-0.107
-0.115,-0.116,0.0,0.116,-0.057,-0.058,0.021,-0.152,-0.24,-0.237,-0.177,-0.106
-0.113,-0.118,-0.005,0.116,-0.053,-0.061,0.02,-0.148,-0.234,-0.23,-0.171,-0.102
-0.098,-0.108,-0.01,0.103,-0.043,-0.059,0.022,-0.14,-0.225,-0.224,-0.168,-0.101
-0.068,-0.072,-0.003,0.07,-0.032,-0.038,0.019,-0.143,-0.216,-0.216,-0.161,-0.097
-0.061,-0.064,-0.003,0.062,-0.028,-0.033,0.048,-0.105,-0.206,-0.209,-0.155,-0.095
-0.064,-0.046,0.019,0.055,-0.041,-0.013,0.083,-0.067,-0.194,-0.197,-0.145,-0.095
-0.048,-0.011,0.037,0.03,-0.042,0.012,0.064,-0.055,-0.188,-0.192,-0.141,-0.091
-0.046,-0.018,0.028,0.032,-0.037,0.005,0.032,-0.058,-0.19,-0.203,-0.136,-0.091
-0.07,-0.075,-0.004,0.073,-0.033,-0.039,0.027,-0.091,-0.203,-0.203,-0.14,-0.088
-0.099,-0.113,-0.014,0.106,-0.042,-0.064,0.022,-0.122,-0.24,-0.224,-0.183,-0.11
-0.119,-0.124,-0.004,0.121,-0.057,-0.063,0.014,-0.122,-0.246,-0.245,-0.195,-0.126
-0.103,-0.139,-0.036,0.122,-0.034,-0.087,0.013,-0.111,-0.249,-0.256,-0.197,-0.127
-0.107,-0.13,-0.024,0.119,-0.041,-0.077,0.001,-0.136,-0.255,-0.256,-0.201,-0.13
-0.129,-0.158,-0.029,0.144,-0.049,-0.094,0.016,-0.099,-0.239,-0.252,-0.2,-0.133
-0.117,-0.127,-0.009,0.122,-0.054,-0.068,0.004,-0.169,-0.272,-0.27,-0.21,-0.137
-0.124,-0.133,-0.009,0.129,-0.057,-0.071,0.023,-0.104,-0.247,-0.246,-0.197,-0.128
-0.146,-0.145,0.001,0.145,-0.073,-0.072,0.016,-0.146,-0.283,-0.277,-0.215,-0.13
-0.124,-0.143,-0.019,0.134,-0.053,-0.081,0.131,-0.007,-0.249,-0.268,-0.23,-0.158
-0.176,-0.303,-0.127,0.24,-0.025,-0.215,0.536,0.332,-0.571,-0.629,-0.526,-0.371
-0.082,-0.082,0.0,0.082,-0.041,-0.041,0.607,0.582,-0.672,-0.69,-0.523,-0.329
0.412,0.824,0.412,-0.618,0.0,0.618,-0.173,0.841,0.496,0.534,0.551,0.466
0.761,2.299,1.538,-1.53,-0.389,1.918,-1.411,-0.878,2.651,2.688,2.302,1.617
0.672,2.35,1.678,-1.512,-0.503,2.014,-1.693,-2.172,4.596,4.124,3.116,1.937
0.2,0.559,0.359,-0.38,-0.079,0.459,-0.915,-1.272,2.659,2.022,1.365,0.757
-0.122,-0.179,-0.057,0.151,-0.032,-0.118,-0.335,-0.546,-0.095,-0.202,-0.161,-0.108
-0.023,-0.041,-0.018,0.032,-0.002,-0.029,-0.069,-0.056,0.027,-0.03,-0.048,-0.039
-0.031,-0.085,-0.054,0.059,0.012,-0.07,0.047,0.087,-0.05,-0.152,-0.144,-0.092
-0.059,-0.072,-0.013,0.066,-0.023,-0.042,0.055,0.099,-0.187,-0.232,-0.189,-0.119
-0.05,-0.091,-0.041,0.071,-0.004,-0.066,0.095,0.164,-0.156,-0.224,-0.187,-0.118
-0.061,-0.074,-0.013,0.068,-0.024,-0.043,0.107,0.153,-0.232,-0.275,-0.202,-0.125
-0.049,-0.077,-0.028,0.063,-0.01,-0.052,0.104,0.179,-0.164,-0.214,-0.173,-0.114
-0.058,-0.072,-0.014,0.065,-0.021,-0.043,0.106,0.171,-0.205,-0.234,-0.193,-0.121
-0.05,-0.067,-0.016,0.059,-0.017,-0.041,0.104,0.194,-0.143,-0.198,-0.167,-0.111
-0.042,-0.058,-0.016,0.051,-0.013,-0.037,0.105,0.214,-0.136,-0.207,-0.178,-0.117
-0.026,-0.039,-0.013,0.033,-0.006,-0.026,0.119,0.25,-0.099,-0.165,-0.152,-0.103
-0.012,-0.029,-0.018,0.021,0.003,-0.023,0.127,0.276,-0.068,-0.143,-0.145,-0.095
0.002,-0.006,-0.008,0.003,0.005,-0.007,0.124,0.318,-0.042,-0.121,-0.118,-0.086
0.015,0.012,-0.003,-0.014,0.009,0.004,0.126,0.374,-0.005,-0.094,-0.085,-0.082
0.02,0.03,0.01,-0.025,0.005,0.02,0.124,0.431,0.026,-0.064,-0.07,-0.079
0.058,0.069,0.011,-0.064,0.023,0.04,0.125,0.502,0.091,-0.008,-0.039,-0.052
0.078,0.096,0.018,-0.087,0.03,0.057,0.119,0.582,0.154,0.035,-0.017,-0.024
0.07,0.109,0.039,-0.089,0.016,0.073,0.124,0.671,0.226,0.097,0.034,-0.001
0.115,0.156,0.041,-0.135,0.037,0.098,0.143,0.767,0.312,0.179,0.101,0.03
0.17,0.213,0.043,-0.192,0.063,0.128,0.139,0.86,0.407,0.264,0.166,0.071
0.23,0.276,0.046,-0.254,0.092,0.161,0.127,0.936,0.52,0.382,0.26,0.131
0.28,0.317,0.037,-0.298,0.121,0.177,0.114,0.972,0.617,0.484,0.344,0.179
0.315,0.37,0.055,-0.343,0.13,0.212,0.088,0.953,0.696,0.567,0.415,0.231
0.345,0.425,0.08,-0.385,0.132,0.252,0.051,0.905,0.746,0.635,0.477,0.275
0.324,0.414,0.09,-0.369,0.117,0.251,0.033,0.806,0.744,0.623,0.491,0.268
0.278,0.387,0.109,-0.333,0.085,0.247,0.031,0.642,0.685,0.575,0.448,0.254
0.209,0.334,0.125,-0.272,0.042,0.229,0.025,0.477,0.553,0.456,0.348,0.203
0.122,0.243,0.121,-0.182,0.0,0.182,0.022,0.329,0.376,0.279,0.218,0.12
0.048,0.139,0.09,-0.094,-0.021,0.114,0.015,0.198,0.198,0.119,0.089,0.046
0.001,0.074,0.074,-0.038,-0.037,0.074,0.018,0.103,0.048,-0.021,-0.015,-0.011
-0.032,0.037,0.069,-0.003,-0.051,0.053,0.028,0.039,-0.06,-0.115,-0.099,-0.068
-0.068,-0.008,0.06,0.038,-0.064,0.025,0.031,-0.001,-0.133,-0.178,-0.156,-0.115
-0.09,-0.032,0.058,0.061,-0.074,0.013,0.034,-0.004,-0.165,-0.205,-0.172,-0.123
-0.11,-0.056,0.054,0.082,-0.082,-0.001,0.037,0.005,-0.179,-0.212,-0.182,-0.133
-0.127,-0.076,0.051,0.102,-0.088,-0.012,0.04,0.01,-0.187,-0.222,-0.196,-0.146
-0.118,-0.071,0.047,0.094,-0.082,-0.012,0.039,0.018,-0.184,-0.219,-0.192,-0.14
-0.111,-0.068,0.043,0.089,-0.076,-0.012,0.034,0.024,-0.186,-0.22,-0.188,-0.135
-0.103,-0.062,0.041,0.083,-0.072,-0.011,0.031,0.021,-0.185,-0.22,-0.185,-0.132
-0.094,-0.057,0.037,0.075,-0.065,-0.01,0.028,0.014,-0.185,-0.22,-0.18,-0.125
-0.09,-0.054,0.035,0.071,-0.062,-0.009,0.023,0.007,-0.19,-0.224,-0.182,-0.131
-0.079,-0.048,0.031,0.063,-0.055,-0.008,0.02,0.0,-0.19,-0.228,-0.186,-0.141
-0.076,-0.047,0.029,0.061,-0.052,-0.008,0.017,-0.006,-0.19,-0.233,-0.191,-0.14
-0.07,-0.035,0.035,0.052,-0.052,0.0,0.012,-0.022,-0.192,-0.234,-0.195,-0.14
-0.079,-0.039,0.04,0.059,-0.059,0.0,0.009,-0.045,-0.203,-0.23,-0.195,-0.14
-0.091,-0.049,0.041,0.07,-0.066,-0.004,0.006,-0.064,-0.231,-0.23,-0.195,-0.14
-0.076,-0.045,0.031,0.06,-0.053,-0.006,0.001,-0.082,-0.242,-0.24,-0.195,-0.143
-0.078,-0.037,0.041,0.057,-0.059,0.002,-0.001,-0.093,-0.238,-0.25,-0.195,-0.145
-0.079,-0.035,0.044,0.057,-0.062,0.004,-0.006,-0.103,-0.251,-0.255,-0.198,-0.145
-0.066,-0.025,0.042,0.046,-0.054,0.008,-0.012,-0.11,-0.263,-0.249,-0.201,-0.145
-0.091,-0.027,0.065,0.058,-0.078,0.018,-0.015,-0.117,-0.268,-0.254,-0.199,-0.145
-0.136,-0.073,0.063,0.104,-0.1,-0.005,-0.02,-0.123,-0.274,-0.26,-0.204,-0.145
-0.135,-0.077,0.058,0.106,-0.096,-0.009,-0.025,-0.117,-0.275,-0.262,-0.205,-0.15
-0.111,-0.055,0.056,0.082,-0.083,0.001,-0.025,-0.114,-0.275,-0.279,-0.205,-0.15
-0.103,-0.052,0.051,0.077,-0.077,-0.001,-0.025,-0.111,-0.275,-0.28,-0.21,-0.151
-0.098,-0.049,0.049,0.073,-0.074,0.0,-0.025,-0.106,-0.275,-0.275,-0.21,-0.155
-0.095,-0.051,0.044,0.072,-0.069,-0.003,-0.025,-0.106,-0.276,-0.274,-0.21,-0.155
-0.096,-0.05,0.046,0.072,-0.071,-0.002,-0.025,-0.11,-0.282,-0.268,-0.21,-0.155
-0.094,-0.049,0.044,0.071,-0.069,-0.002,-0.024,-0.112,-0.289,-0.274,-0.21,-0.155
-0.097,-0.051,0.046,0.073,-0.071,-0.002,-0.02,-0.111,-0.286,-0.281,-0.21,-0.155
-0.092,-0.048,0.044,0.069,-0.068,-0.001,-0.021,-0.108,-0.284,-0.276,-0.21,-0.155
-0.094,-0.048,0.046,0.07,-0.07,-0.001,-0.017,-0.121,-0.285,-0.271,-0.21,-0.155
-0.121,-0.062,0.059,0.092,-0.09,-0.002,-0.015,-0.141,-0.285,-0.268,-0.21,-0.155
-0.119,-0.057,0.061,0.088,-0.09,0.002,-0.015,-0.145,-0.285,-0.261,-0.21,-0.155
-0.121,-0.062,0.059,0.092,-0.09,-0.002,-0.018,-0.152,-0.285,-0.264,-0.209,-0.155
-0.131,-0.075,0.056,0.103,-0.093,-0.009,-0.027,-0.155,-0.284,-0.277,-0.206,-0.155
-0.124,-0.07,0.054,0.097,-0.089,-0.008,-0.029,-0.16,-0.285,-0.273,-0.203,-0.155
-0.124,-0.067,0.057,0.095,-0.09,-0.005,-0.024,-0.164,-0.285,-0.27,-0.2,-0.155
-0.122,-0.06,0.062,0.091,-0.092,0.001,-0.018,-0.168,-0.285,-0.267,-0.198,-0.153
-0.136,-0.068,0.068,0.102,-0.102,0.0,-0.015,-0.168,-0.295,-0.266,-0.196,-0.146
-0.108,-0.034,0.074,0.071,-0.09,0.02,-0.008,-0.134,-0.289,-0.263,-0.194,-0.14
-0.068,0.007,0.075,0.03,-0.071,0.04,-0.008,-0.107,-0.279,-0.247,-0.182,-0.132
-0.047,0.03,0.076,0.008,-0.062,0.053,0.015,-0.088,-0.25,-0.233,-0.173,-0.127
-0.011,0.061,0.072,-0.026,-0.042,0.067,0.05,-0.067,-0.22,-0.22,-0.164,-0.129
-0.037,0.047,0.084,-0.005,-0.061,0.065,0.04,-0.045,-0.219,-0.207,-0.161,-0.13
-0.048,0.027,0.075,0.011,-0.062,0.05,0.016,-0.055,-0.221,-0.202,-0.171,-0.134
-0.043,-0.014,0.029,0.028,-0.036,0.007,0.009,-0.086,-0.242,-0.222,-0.172,-0.134
-0.095,-0.072,0.023,0.083,-0.059,-0.024,-0.007,-0.116,-0.285,-0.26,-0.19,-0.142
-0.117,-0.092,0.025,0.104,-0.071,-0.033,-0.011,-0.117,-0.292,-0.27,-0.209,-0.154
-0.114,-0.1,0.013,0.107,-0.063,-0.043,-0.015,-0.146,-0.296,-0.277,-0.217,-0.162
-0.111,-0.088,0.023,0.099,-0.067,-0.032,-0.024,-0.182,-0.297,-0.275,-0.214,-0.158
-0.11,-0.103,0.007,0.106,-0.058,-0.048,-0.019,-0.143,-0.288,-0.276,-0.215,-0.162
-0.131,-0.087,0.044,0.109,-0.087,-0.021,-0.04,-0.197,-0.306,-0.287,-0.217,-0.159
-0.12,-0.103,0.016,0.111,-0.068,-0.043,-0.012,-0.124,-0.283,-0.269,-0.21,-0.159
-0.125,-0.101,0.024,0.112,-0.074,-0.038,-0.031,-0.2,-0.338,-0.302,-0.227,-0.168
-0.133,-0.126,0.007,0.129,-0.07,-0.059,0.126,0.01,-0.314,-0.313,-0.251,-0.196
-0.194,-0.264,-0.07,0.23,-0.062,-0.167,0.531,0.29,-0.648,-0.665,-0.54,-0.412
-0.048,0.006,0.054,0.021,-0.051,0.03,0.565,0.634,-0.632,-0.62,-0.454,-0.309
0.49,0.98,0.49,-0.736,0.0,0.735,-0.304,0.758,0.588,0.654,0.689,0.543
0.82,2.448,1.628,-1.634,-0.404,2.038,-1.609,-1.282,2.702,2.815,2.451,1.724
0.714,2.228,1.515,-1.471,-0.401,1.872,-1.804,-2.277,4.37,4.003,3.07,1.944
0.209,0.419,0.21,-0.314,0.0,0.314,-0.968,-1.217,2.195,1.739,1.214,0.673
-0.118,-0.131,-0.012,0.124,-0.053,-0.071,-0.321,-0.493,-0.211,-0.217,-0.139,-0.118
-0.075,-0.036,0.039,0.055,-0.056,0.001,-0.07,-0.023,0.027,-0.006,-0.005,-0.052
-0.099,-0.084,0.015,0.091,-0.056,-0.035,-0.004,0.032,-0.146,-0.193,-0.146,-0.125
-0.068,-0.044,0.024,0.056,-0.046,-0.009,0.044,0.086,-0.233,-0.241,-0.181,-0.141
-0.072,-0.069,0.003,0.07,-0.037,-0.032,0.069,0.137,-0.221,-0.248,-0.179,-0.15
-0.081,-0.047,0.034,0.064,-0.057,-0.006,0.072,0.128,-0.27,-0.279,-0.186,-0.163
-0.065,-0.056,0.009,0.06,-0.037,-0.023,0.077,0.165,-0.218,-0.236,-0.161,-0.15
-0.069,-0.043,0.027,0.056,-0.048,-0.008,0.084,0.169,-0.254,-0.255,-0.174,-0.141
-0.044,-0.037,0.008,0.04,-0.026,-0.014,0.092,0.197,-0.187,-0.199,-0.149,-0.124
-0.053,-0.033,0.02,0.043,-0.036,-0.006,0.089,0.196,-0.204,-0.216,-0.158,-0.122
-0.073,-0.021,0.052,0.047,-0.062,0.015,0.091,0.228,-0.15,-0.176,-0.134,-0.108
-0.069,-0.014,0.055,0.041,-0.062,0.02,0.094,0.258,-0.123,-0.159,-0.125,-0.103
-0.051,-0.001,0.051,0.026,-0.051,0.025,0.096,0.292,-0.094,-0.134,-0.099,-0.092
-0.022,0.027,0.049,-0.003,-0.035,0.037,0.095,0.344,-0.052,-0.099,-0.073,-0.082
0.017,0.061,0.044,-0.04,-0.014,0.052,0.094,0.402,-0.021,-0.076,-0.048,-0.07
0.04,0.088,0.048,-0.065,-0.004,0.068,0.115,0.475,0.042,-0.029,-0.024,-0.056
0.058,0.12,0.063,-0.089,-0.003,0.091,0.127,0.557,0.098,0.022,0.009,-0.039
0.086,0.152,0.066,-0.12,0.01,0.109,0.139,0.642,0.166,0.083,0.058,-0.007
0.13,0.193,0.063,-0.162,0.034,0.127,0.145,0.742,0.244,0.157,0.111,0.024
0.178,0.245,0.067,-0.212,0.056,0.156,0.134,0.831,0.346,0.255,0.196,0.071
0.231,0.294,0.063,-0.263,0.084,0.178,0.131,0.899,0.45,0.358,0.277,0.123
0.294,0.361,0.067,-0.328,0.113,0.213,0.118,0.922,0.536,0.459,0.364,0.179
0.355,0.445,0.09,-0.4,0.132,0.267,0.094,0.911,0.625,0.556,0.442,0.235
0.36,0.457,0.096,-0.409,0.132,0.277,0.055,0.863,0.654,0.596,0.478,0.256
0.33,0.447,0.116,-0.389,0.107,0.281,0.019,0.751,0.636,0.6,0.5,0.271
0.311,0.434,0.123,-0.372,0.094,0.278,-0.007,0.602,0.591,0.567,0.465,0.261
0.25,0.358,0.109,-0.304,0.07,0.233,-0.022,0.426,0.463,0.438,0.363,0.198
0.165,0.269,0.104,-0.217,0.03,0.187,-0.02,0.273,0.285,0.26,0.228,0.108
0.069,0.164,0.095,-0.117,-0.013,0.129,-0.015,0.149,0.117,0.107,0.097,0.028
-0.006,0.078,0.085,-0.036,-0.046,0.081,-0.01,0.05,-0.022,-0.022,-0.002,-0.026
-0.031,0.039,0.069,-0.004,-0.05,0.054,-0.006,-0.005,-0.117,-0.116,-0.075,-0.081
-0.066,-0.008,0.058,0.037,-0.062,0.025,-0.001,-0.042,-0.178,-0.163,-0.118,-0.123
-0.07,-0.019,0.051,0.044,-0.06,0.016,0.003,-0.053,-0.201,-0.188,-0.136,-0.128
-0.079,-0.033,0.046,0.056,-0.062,0.006,0.005,-0.064,-0.208,-0.2,-0.155,-0.139
-0.094,-0.053,0.041,0.073,-0.068,-0.006,0.008,-0.084,-0.226,-0.216,-0.15,-0.142
-0.084,-0.05,0.034,0.067,-0.059,-0.008,0.011,-0.085,-0.231,-0.221,-0.151,-0.141
-0.097,-0.066,0.031,0.081,-0.064,-0.017,0.015,-0.085,-0.229,-0.216,-0.174,-0.16
-0.082,-0.047,0.035,0.064,-0.058,-0.006,0.015,-0.082,-0.23,-0.215,-0.172,-0.16
-0.074,-0.031,0.043,0.052,-0.058,0.006,0.011,-0.079,-0.229,-0.21,-0.166,-0.155
-0.079,-0.034,0.045,0.056,-0.062,0.005,0.008,-0.081,-0.231,-0.21,-0.163,-0.154
-0.07,-0.025,0.045,0.047,-0.057,0.01,0.005,-0.084,-0.235,-0.215,-0.156,-0.15
-0.071,-0.025,0.045,0.048,-0.058,0.01,0.002,-0.091,-0.24,-0.215,-0.156,-0.149
-0.063,-0.019,0.044,0.04,-0.054,0.012,0.0,-0.092,-0.243,-0.215,-0.16,-0.144
-0.067,-0.021,0.046,0.044,-0.057,0.012,-0.003,-0.1,-0.25,-0.217,-0.16,-0.141
-0.064,-0.021,0.044,0.042,-0.054,0.011,-0.005,-0.11,-0.262,-0.223,-0.162,-0.138
-0.033,0.009,0.042,0.012,-0.038,0.025,-0.015,-0.11,-0.267,-0.227,-0.166,-0.133
-0.035,0.003,0.038,0.016,-0.036,0.02,-0.025,-0.127,-0.27,-0.23,-0.165,-0.13
-0.075,-0.029,0.046,0.052,-0.06,0.008,-0.025,-0.141,-0.277,-0.23,-0.162,-0.138
-0.096,-0.029,0.068,0.062,-0.082,0.019,-0.025,-0.146,-0.287,-0.229,-0.159,-0.141
-0.095,-0.031,0.064,0.063,-0.079,0.016,-0.025,-0.151,-0.29,-0.231,-0.161,-0.139
-0.083,-0.028,0.055,0.056,-0.069,0.013,-0.025,-0.149,-0.29,-0.228,-0.158,-0.14
-0.083,-0.033,0.05,0.058,-0.066,0.008,-0.026,-0.15,-0.296,-0.237,-0.165,-0.14
-0.102,-0.058,0.044,0.08,-0.073,-0.007,-0.031,-0.151,-0.3,-0.251,-0.18,-0.14
-0.101,-0.055,0.046,0.077,-0.073,-0.004,-0.03,-0.15,-0.3,-0.25,-0.18,-0.146
-0.089,-0.047,0.042,0.068,-0.066,-0.002,-0.026,-0.148,-0.3,-0.248,-0.18,-0.151
-0.08,-0.041,0.039,0.06,-0.059,-0.001,-0.024,-0.144,-0.3,-0.245,-0.18,-0.15
-0.075,-0.034,0.041,0.055,-0.058,0.003,-0.021,-0.142,-0.3,-0.245,-0.18,-0.15
-0.066,-0.028,0.037,0.047,-0.051,0.004,-0.02,-0.139,-0.3,-0.242,-0.178,-0.15
-0.074,-0.025,0.049,0.049,-0.061,0.012,-0.02,-0.147,-0.306,-0.24,-0.174,-0.15
-0.081,-0.024,0.057,0.052,-0.069,0.016,-0.021,-0.161,-0.308,-0.236,-0.175,-0.15
-0.061,-0.016,0.045,0.038,-0.053,0.014,-0.018,-0.167,-0.304,-0.235,-0.175,-0.15
-0.098,-0.052,0.045,0.074,-0.071,-0.004,-0.031,-0.18,-0.305,-0.229,-0.175,-0.15
-0.112,-0.067,0.045,0.089,-0.078,-0.011,-0.043,-0.192,-0.305,-0.233,-0.175,-0.15
-0.088,-0.048,0.04,0.068,-0.064,-0.004,-0.036,-0.189,-0.305,-0.253,-0.18,-0.15
-0.089,-0.049,0.041,0.069,-0.065,-0.004,-0.035,-0.19,-0.305,-0.256,-0.18,-0.149
-0.089,-0.05,0.038,0.069,-0.063,-0.006,-0.031,-0.19,-0.313,-0.254,-0.181,-0.145
-0.085,-0.05,0.034,0.067,-0.06,-0.008,-0.029,-0.19,-0.315,-0.251,-0.185,-0.145
-0.074,-0.047,0.028,0.06,-0.051,-0.009,-0.034,-0.186,-0.315,-0.249,-0.185,-0.145
-0.087,-0.062,0.025,0.074,-0.056,-0.018,-0.035,-0.184,-0.315,-0.249,-0.183,-0.145
-0.07,-0.051,0.019,0.06,-0.045,-0.015,-0.035,-0.185,-0.315,-0.244,-0.177,-0.145
-0.063,-0.047,0.015,0.055,-0.039,-0.016,-0.035,-0.184,-0.315,-0.241,-0.172,-0.141
-0.086,-0.055,0.03,0.07,-0.058,-0.012,-0.035,-0.185,-0.306,-0.237,-0.169,-0.14
-0.068,-0.032,0.036,0.05,-0.052,0.002,-0.034,-0.183,-0.294,-0.233,-0.163,-0.14
-0.066,-0.038,0.029,0.052,-0.047,-0.004,-0.029,-0.18,-0.281,-0.23,-0.16,-0.14
-0.074,-0.047,0.027,0.06,-0.05,-0.01,-0.026,-0.18,-0.283,-0.226,-0.164,-0.14
-0.061,-0.038,0.023,0.05,-0.042,-0.007,-0.023,-0.18,-0.291,-0.225,-0.169,-0.141
-0.057,-0.041,0.016,0.049,-0.036,-0.012,-0.018,-0.18,-0.289,-0.225,-0.168,-0.145
-0.078,-0.049,0.029,0.063,-0.053,-0.01,-0.015,-0.18,-0.29,-0.224,-0.164,-0.145
-0.083,-0.043,0.04,0.062,-0.061,-0.001,-0.012,-0.177,-0.29,-0.225,-0.162,-0.145
-0.062,-0.036,0.026,0.049,-0.043,-0.005,-0.003,-0.174,-0.29,-0.224,-0.159,-0.145
-0.04,-0.03,0.009,0.035,-0.024,-0.01,0.002,-0.169,-0.287,-0.219,-0.157,-0.146
-0.046,-0.022,0.025,0.034,-0.035,0.001,0.011,-0.165,-0.276,-0.213,-0.155,-0.141
-0.06,-0.003,0.057,0.031,-0.059,0.027,0.014,-0.164,-0.266,-0.207,-0.145,-0.131
-0.024,0.03,0.054,-0.003,-0.04,0.042,0.026,-0.128,-0.254,-0.196,-0.129,-0.125
0.008,0.062,0.054,-0.036,-0.024,0.058,0.05,-0.11,-0.239,-0.183,-0.118,-0.107
0.025,0.088,0.063,-0.057,-0.019,0.075,0.052,-0.109,-0.227,-0.185,-0.113,-0.103
0.024,0.069,0.045,-0.047,-0.011,0.057,0.017,-0.122,-0.233,-0.193,-0.11,-0.107
-0.019,0.008,0.027,0.005,-0.023,0.017,-0.013,-0.141,-0.251,-0.19,-0.129,-0.102
-0.056,-0.03,0.026,0.043,-0.041,-0.002,-0.026,-0.172,-0.279,-0.208,-0.154,-0.127
-0.07,-0.049,0.022,0.059,-0.046,-0.013,-0.029,-0.171,-0.287,-0.22,-0.16,-0.139
-0.082,-0.075,0.008,0.078,-0.045,-0.033,-0.038,-0.178,-0.3,-0.23,-0.172,-0.146
-0.084,-0.071,0.013,0.077,-0.048,-0.028,-0.046,-0.196,-0.305,-0.229,-0.168,-0.149
-0.071,-0.082,-0.011,0.077,-0.03,-0.046,-0.036,-0.165,-0.317,-0.228,-0.171,-0.151
-0.077,-0.071,0.006,0.075,-0.042,-0.032,-0.046,-0.216,-0.329,-0.236,-0.17,-0.15
-0.088,-0.089,-0.001,0.088,-0.044,-0.045,-0.025,-0.147,-0.305,-0.22,-0.176,-0.148
-0.083,-0.07,0.013,0.077,-0.048,-0.028,-0.041,-0.213,-0.341,-0.246,-0.194,-0.156
-0.088,-0.115,-0.028,0.102,-0.03,-0.071,0.136,0.023,-0.308,-0.269,-0.222,-0.19
-0.155,-0.229,-0.073,0.192,-0.041,-0.151,0.536,0.266,-0.644,-0.621,-0.519,-0.397
0.007,0.054,0.047,-0.031,-0.02,0.05,0.534,0.647,-0.56,-0.521,-0.386,-0.271
0.567,1.056,0.49,-0.812,0.038,0.773,-0.381,0.637,0.643,0.775,0.791,0.617
0.918,2.51,1.592,-1.714,-0.337,2.051,-1.661,-1.524,2.691,2.918,2.57,1.828
0.789,2.122,1.334,-1.456,-0.273,1.728,-1.815,-2.349,4.114,3.923,3.082,1.979
0.282,0.34,0.058,-0.311,0.112,0.199,-0.972,-1.221,1.89,1.608,1.159,0.651
-0.057,-0.104,-0.048,0.081,-0.004,-0.076,-0.308,-0.486,-0.218,-0.179,-0.133,-0.102
0.02,0.014,-0.006,-0.016,0.013,0.004,-0.065,-0.029,0.036,0.031,-0.005,-0.037
-0.005,-0.057,-0.052,0.031,0.023,-0.054,-0.001,0.01,-0.155,-0.155,-0.12,-0.117
-0.041,-0.068,-0.027,0.055,-0.007,-0.047,0.044,0.068,-0.219,-0.197,-0.153,-0.132
-0.033,-0.084,-0.051,0.059,0.009,-0.067,0.058,0.094,-0.227,-0.2,-0.157,-0.146
-0.053,-0.072,-0.019,0.063,-0.017,-0.046,0.068,0.105,-0.259,-0.209,-0.155,-0.139
-0.052,-0.087,-0.035,0.069,-0.008,-0.06,0.075,0.145,-0.215,-0.175,-0.138,-0.128
-0.055,-0.07,-0.014,0.063,-0.02,-0.042,0.077,0.147,-0.247,-0.195,-0.144,-0.128
-0.046,-0.062,-0.016,0.054,-0.015,-0.039,0.084,0.191,-0.193,-0.162,-0.125,-0.114
-0.021,-0.046,-0.025,0.034,0.002,-0.035,0.091,0.208,-0.187,-0.171,-0.13,-0.115
0.007,-0.036,-0.043,0.015,0.025,-0.039,0.094,0.248,-0.14,-0.145,-0.114,-0.101
0.017,-0.02,-0.037,0.002,0.027,-0.028,0.101,0.28,-0.13,-0.134,-0.11,-0.093
0.044,0.013,-0.032,-0.028,0.038,-0.009,0.103,0.326,-0.094,-0.096,-0.085,-0.083
0.063,0.03,-0.034,-0.047,0.049,-0.002,0.105,0.378,-0.055,-0.064,-0.055,-0.059
0.078,0.066,-0.012,-0.072,0.045,0.027,0.121,0.442,-0.011,-0.027,-0.023,-0.036
0.09,0.075,-0.015,-0.083,0.052,0.03,0.119,0.507,0.046,0.02,0.003,-0.034
0.123,0.1,-0.023,-0.111,0.073,0.038,0.135,0.585,0.101,0.064,0.033,-0.018
0.141,0.132,-0.009,-0.136,0.075,0.061,0.145,0.68,0.17,0.119,0.076,0.011
0.154,0.155,0.0,-0.155,0.077,0.077,0.133,0.774,0.251,0.198,0.14,0.049
0.233,0.224,-0.009,-0.229,0.121,0.108,0.129,0.872,0.344,0.29,0.209,0.095
0.28,0.283,0.003,-0.282,0.138,0.143,0.118,0.94,0.442,0.385,0.283,0.145
0.31,0.346,0.036,-0.328,0.137,0.191,0.114,0.979,0.539,0.494,0.376,0.199
0.36,0.403,0.043,-0.381,0.158,0.223,0.096,0.977,0.616,0.579,0.447,0.248
0.39,0.437,0.048,-0.414,0.171,0.242,0.063,0.936,0.67,0.645,0.503,0.286
0.396,0.463,0.067,-0.43,0.164,0.265,0.034,0.841,0.666,0.684,0.519,0.313
0.355,0.43,0.075,-0.393,0.14,0.252,0.016,0.67,0.625,0.64,0.494,0.311
0.282,0.351,0.069,-0.317,0.106,0.21,0.014,0.476,0.531,0.52,0.426,0.253
0.2,0.265,0.065,-0.233,0.067,0.165,0.011,0.312,0.361,0.365,0.291,0.167
0.116,0.178,0.061,-0.147,0.027,0.119,0.008,0.175,0.191,0.207,0.16,0.083
0.051,0.104,0.053,-0.078,-0.001,0.078,0.006,0.074,0.046,0.069,0.053,0.017
0.001,0.035,0.034,-0.019,-0.017,0.034,0.003,0.019,-0.059,-0.031,-0.037,-0.036
-0.023,-0.013,0.01,0.018,-0.016,-0.001,0.0,-0.019,-0.125,-0.097,-0.089,-0.073
-0.01,-0.023,-0.013,0.017,0.002,-0.018,0.0,-0.043,-0.171,-0.138,-0.115,-0.091
-0.026,-0.057,-0.031,0.042,0.002,-0.044,0.0,-0.045,-0.183,-0.15,-0.117,-0.103
-0.054,-0.084,-0.029,0.069,-0.012,-0.056,0.0,-0.04,-0.186,-0.16,-0.131,-0.105
-0.053,-0.079,-0.026,0.066,-0.013,-0.052,0.0,-0.035,-0.183,-0.166,-0.147,-0.105
-0.057,-0.079,-0.022,0.069,-0.018,-0.05,0.005,-0.032,-0.18,-0.164,-0.144,-0.105
-0.055,-0.074,-0.019,0.065,-0.018,-0.046,0.007,-0.026,-0.178,-0.168,-0.148,-0.105
-0.061,-0.075,-0.014,0.069,-0.023,-0.045,0.004,-0.027,-0.173,-0.17,-0.15,-0.106
-0.068,-0.073,-0.005,0.071,-0.031,-0.039,0.005,-0.031,-0.182,-0.17,-0.15,-0.102
-0.057,-0.066,-0.009,0.062,-0.024,-0.037,0.005,-0.029,-0.189,-0.174,-0.146,-0.098
-0.046,-0.059,-0.014,0.053,-0.016,-0.036,0.005,-0.038,-0.202,-0.175,-0.145,-0.092
-0.03,-0.053,-0.022,0.042,-0.004,-0.037,0.004,-0.047,-0.217,-0.175,-0.144,-0.089
-0.022,-0.046,-0.023,0.034,0.001,-0.034,0.0,-0.053,-0.215,-0.18,-0.141,-0.084
-0.027,-0.04,-0.013,0.033,-0.007,-0.026,-0.002,-0.066,-0.214,-0.18,-0.139,-0.08
-0.047,-0.056,-0.008,0.052,-0.019,-0.032,-0.005,-0.084,-0.228,-0.182,-0.144,-0.091
-0.073,-0.075,-0.003,0.074,-0.035,-0.039,-0.009,-0.108,-0.249,-0.19,-0.159,-0.096
-0.077,-0.063,0.014,0.07,-0.045,-0.025,-0.009,-0.113,-0.253,-0.19,-0.161,-0.094
-0.074,-0.059,0.015,0.066,-0.045,-0.022,-0.018,-0.116,-0.256,-0.192,-0.159,-0.095
-0.074,-0.078,-0.004,0.076,-0.035,-0.041,-0.027,-0.125,-0.265,-0.203,-0.161,-0.095
-0.054,-0.081,-0.027,0.068,-0.014,-0.054,-0.025,-0.13,-0.27,-0.21,-0.159,-0.095
-0.048,-0.078,-0.03,0.063,-0.009,-0.054,-0.024,-0.135,-0.275,-0.21,-0.162,-0.097
-0.053,-0.077,-0.024,0.065,-0.014,-0.05,-0.021,-0.132,-0.278,-0.21,-0.174,-0.102
-0.05,-0.073,-0.023,0.062,-0.013,-0.048,-0.019,-0.129,-0.281,-0.21,-0.181,-0.107
-0.064,-0.08,-0.016,0.072,-0.023,-0.047,-0.021,-0.131,-0.284,-0.209,-0.179,-0.109
-0.074,-0.09,-0.016,0.083,-0.029,-0.053,-0.025,-0.129,-0.286,-0.212,-0.183,-0.105
-0.088,-0.09,-0.002,0.089,-0.043,-0.046,-0.024,-0.132,-0.29,-0.215,-0.185,-0.105
-0.101,-0.089,0.012,0.095,-0.056,-0.039,-0.034,-0.136,-0.289,-0.215,-0.185,-0.105
-0.099,-0.091,0.008,0.094,-0.053,-0.041,-0.041,-0.135,-0.284,-0.215,-0.181,-0.108
-0.092,-0.089,0.003,0.09,-0.048,-0.043,-0.032,-0.135,-0.281,-0.215,-0.18,-0.112
-0.093,-0.093,-0.001,0.093,-0.046,-0.047,-0.03,-0.135,-0.277,-0.214,-0.18,-0.108
-0.088,-0.095,-0.007,0.092,-0.04,-0.051,-0.024,-0.135,-0.273,-0.21,-0.175,-0.105
-0.064,-0.095,-0.031,0.08,-0.016,-0.063,-0.021,-0.136,-0.269,-0.21,-0.174,-0.102
-0.058,-0.095,-0.037,0.077,-0.01,-0.066,-0.015,-0.145,-0.275,-0.207,-0.176,-0.099
-0.065,-0.095,-0.03,0.08,-0.017,-0.063,-0.02,-0.154,-0.277,-0.203,-0.18,-0.102
-0.082,-0.112,-0.03,0.097,-0.025,-0.071,-0.037,-0.155,-0.274,-0.211,-0.18,-0.108
-0.089,-0.114,-0.025,0.102,-0.032,-0.069,-0.032,-0.154,-0.275,-0.217,-0.18,-0.11
-0.081,-0.106,-0.025,0.094,-0.028,-0.065,-0.029,-0.155,-0.274,-0.213,-0.18,-0.11
-0.084,-0.104,-0.02,0.094,-0.032,-0.062,-0.026,-0.154,-0.275,-0.21,-0.18,-0.11
-0.083,-0.099,-0.015,0.091,-0.034,-0.057,-0.021,-0.156,-0.273,-0.207,-0.18,-0.11
-0.085,-0.094,-0.01,0.09,-0.037,-0.052,-0.021,-0.154,-0.27,-0.204,-0.18,-0.11
-0.088,-0.096,-0.008,0.093,-0.04,-0.052,-0.029,-0.155,-0.267,-0.205,-0.179,-0.115
-0.101,-0.1,0.001,0.101,-0.051,-0.05,-0.038,-0.167,-0.265,-0.205,-0.175,-0.115
-0.096,-0.1,-0.004,0.098,-0.046,-0.052,-0.037,-0.167,-0.261,-0.205,-0.175,-0.116
-0.079,-0.1,-0.021,0.09,-0.029,-0.06,-0.031,-0.159,-0.259,-0.205,-0.175,-0.12
-0.079,-0.095,-0.016,0.087,-0.031,-0.055,-0.027,-0.152,-0.268,-0.205,-0.175,-0.12
-0.065,-0.096,-0.031,0.081,-0.017,-0.063,-0.023,-0.148,-0.269,-0.206,-0.176,-0.118
-0.063,-0.094,-0.031,0.079,-0.016,-0.062,-0.016,-0.136,-0.258,-0.199,-0.172,-0.108
-0.065,-0.084,-0.019,0.075,-0.023,-0.051,-0.017,-0.138,-0.257,-0.189,-0.165,-0.098
-0.048,-0.059,-0.011,0.054,-0.018,-0.035,0.005,-0.119,-0.233,-0.176,-0.158,-0.087
-0.027,-0.027,0.0,0.027,-0.013,-0.013,0.048,-0.091,-0.201,-0.161,-0.153,-0.081
-0.026,-0.01,0.016,0.018,-0.021,0.003,0.067,-0.087,-0.211,-0.149,-0.152,-0.079
-0.026,0.005,0.031,0.01,-0.028,0.017,0.042,-0.053,-0.216,-0.132,-0.16,-0.078
-0.023,-0.003,0.019,0.013,-0.021,0.008,-0.002,-0.106,-0.216,-0.142,-0.161,-0.072
-0.04,-0.044,-0.005,0.042,-0.017,-0.024,-0.006,-0.148,-0.239,-0.189,-0.17,-0.089
-0.067,-0.091,-0.024,0.079,-0.022,-0.057,-0.017,-0.163,-0.27,-0.22,-0.192,-0.121
-0.089,-0.126,-0.037,0.108,-0.026,-0.081,-0.02,-0.156,-0.259,-0.209,-0.186,-0.118
-0.089,-0.125,-0.036,0.108,-0.026,-0.081,-0.016,-0.161,-0.27,-0.222,-0.196,-0.123
-0.082,-0.114,-0.032,0.099,-0.025,-0.073,-0.011,-0.164,-0.261,-0.215,-0.191,-0.117
-0.085,-0.135,-0.05,0.11,-0.017,-0.092,0.002,-0.147,-0.265,-0.223,-0.199,-0.124
-0.089,-0.115,-0.026,0.102,-0.032,-0.071,-0.003,-0.185,-0.272,-0.218,-0.192,-0.116
-0.086,-0.147,-0.061,0.117,-0.013,-0.104,0.023,-0.114,-0.263,-0.205,-0.195,-0.127
-0.091,-0.116,-0.026,0.104,-0.032,-0.071,-0.003,-0.187,-0.297,-0.233,-0.205,-0.137
-0.112,-0.184,-0.073,0.148,-0.019,-0.128,0.206,0.11,-0.296,-0.293,-0.279,-0.2
-0.181,-0.293,-0.112,0.237,-0.034,-0.202,0.597,0.352,-0.725,-0.706,-0.61,-0.427
0.069,0.134,0.065,-0.101,0.002,0.099,0.445,0.75,-0.455,-0.407,-0.305,-0.162
0.585,1.261,0.677,-0.923,-0.047,0.969,-0.596,0.484,0.989,1.114,1.04,0.805
0.803,2.566,1.763,-1.685,-0.48,2.164,-1.693,-1.648,3.365,3.399,2.784,1.893
0.579,1.843,1.264,-1.211,-0.343,1.553,-1.56,-2.106,4.423,3.905,2.834,1.731
0.081,0.118,0.037,-0.099,0.022,0.077,-0.732,-1.039,1.496,1.124,0.706,0.364
-0.062,-0.122,-0.059,0.092,-0.001,-0.09,-0.228,-0.4,-0.261,-0.226,-0.212,-0.119
-0.029,-0.06,-0.031,0.045,0.002,-0.045,-0.036,0.004,0.111,0.057,-0.034,-0.026
-0.052,-0.103,-0.051,0.078,0.0,-0.077,0.031,0.033,-0.174,-0.193,-0.178,-0.116
-0.027,-0.083,-0.057,0.055,0.015,-0.07,0.072,0.115,-0.147,-0.169,-0.176,-0.114
-0.079,-0.118,-0.038,0.099,-0.02,-0.078,0.082,0.127,-0.199,-0.223,-0.221,-0.143
-0.051,-0.071,-0.02,0.061,-0.015,-0.045,0.078,0.144,-0.184,-0.198,-0.196,-0.128
-0.06,-0.098,-0.038,0.079,-0.011,-0.068,0.081,0.179,-0.159,-0.186,-0.185,-0.129
-0.07,-0.093,-0.024,0.082,-0.023,-0.058,0.093,0.19,-0.181,-0.195,-0.19,-0.126
-0.052,-0.086,-0.034,0.069,-0.009,-0.059,0.103,0.216,-0.137,-0.163,-0.179,-0.118
-0.04,-0.07,-0.03,0.055,-0.005,-0.049,0.098,0.239,-0.135,-0.159,-0.172,-0.119
-0.025,-0.045,-0.02,0.035,-0.002,-0.032,0.101,0.284,-0.08,-0.114,-0.131,-0.099
-0.039,-0.023,0.016,0.031,-0.027,-0.004,0.099,0.306,-0.072,-0.106,-0.125,-0.091
-0.018,-0.005,0.013,0.011,-0.016,0.004,0.101,0.352,-0.032,-0.071,-0.106,-0.074
-0.004,0.003,0.007,0.0,-0.005,0.004,0.114,0.408,0.006,-0.041,-0.087,-0.064
0.044,0.049,0.004,-0.047,0.02,0.026,0.125,0.47,0.056,-0.004,-0.054,-0.051
0.075,0.074,-0.001,-0.074,0.038,0.036,0.129,0.532,0.109,0.037,-0.026,-0.033
0.083,0.075,-0.007,-0.078,0.045,0.034,0.136,0.621,0.179,0.098,0.017,-0.004
0.14,0.116,-0.024,-0.128,0.082,0.046,0.145,0.722,0.275,0.18,0.08,0.037
0.175,0.157,-0.018,-0.166,0.096,0.07,0.139,0.807,0.356,0.253,0.129,0.063
0.198,0.189,-0.009,-0.193,0.103,0.09,0.129,0.895,0.461,0.346,0.204,0.104
0.265,0.265,0.0,-0.265,0.133,0.132,0.121,0.955,0.577,0.47,0.304,0.167
0.314,0.319,0.005,-0.317,0.154,0.162,0.111,0.972,0.675,0.573,0.384,0.219
0.334,0.364,0.03,-0.349,0.152,0.196,0.091,0.957,0.768,0.661,0.461,0.266
0.336,0.396,0.06,-0.366,0.138,0.228,0.059,0.913,0.804,0.709,0.501,0.297
0.318,0.386,0.067,-0.352,0.125,0.226,0.026,0.814,0.807,0.715,0.491,0.293
0.295,0.367,0.072,-0.332,0.112,0.219,0.014,0.652,0.746,0.669,0.475,0.272
0.218,0.305,0.087,-0.262,0.065,0.196,0.015,0.485,0.59,0.526,0.377,0.214
0.141,0.226,0.085,-0.184,0.027,0.155,0.015,0.336,0.403,0.338,0.221,0.126
0.072,0.123,0.051,-0.098,0.01,0.086,0.015,0.213,0.219,0.174,0.099,0.059
0.012,0.03,0.018,-0.021,-0.003,0.024,0.015,0.124,0.077,0.046,0.003,-0.006
-0.009,-0.004,0.005,0.006,-0.007,0.0,0.025,0.064,-0.028,-0.052,-0.074,-0.058
-0.04,-0.045,-0.005,0.043,-0.017,-0.025,0.032,0.025,-0.096,-0.114,-0.128,-0.089
-0.054,-0.079,-0.025,0.067,-0.014,-0.052,0.033,0.01,-0.133,-0.152,-0.162,-0.108
-0.057,-0.086,-0.029,0.071,-0.013,-0.057,0.038,0.01,-0.143,-0.162,-0.173,-0.112
-0.037,-0.076,-0.039,0.057,0.001,-0.057,0.04,0.01,-0.139,-0.162,-0.173,-0.117
-0.033,-0.078,-0.045,0.056,0.006,-0.061,0.035,0.01,-0.14,-0.166,-0.178,-0.12
-0.077,-0.115,-0.038,0.097,-0.019,-0.076,0.035,0.011,-0.16,-0.164,-0.179,-0.12
-0.085,-0.118,-0.033,0.102,-0.026,-0.075,0.034,0.019,-0.173,-0.165,-0.176,-0.122
-0.068,-0.1,-0.032,0.084,-0.018,-0.066,0.03,0.031,-0.168,-0.165,-0.172,-0.125
-0.052,-0.096,-0.044,0.074,-0.004,-0.07,0.03,0.029,-0.171,-0.165,-0.168,-0.125
-0.05,-0.091,-0.041,0.071,-0.004,-0.066,0.028,0.017,-0.169,-0.165,-0.165,-0.122
-0.054,-0.088,-0.034,0.072,-0.01,-0.061,0.025,0.005,-0.172,-0.167,-0.158,-0.117
-0.055,-0.085,-0.03,0.071,-0.012,-0.057,0.022,-0.006,-0.162,-0.173,-0.171,-0.114
-0.057,-0.079,-0.023,0.068,-0.017,-0.051,0.019,-0.02,-0.172,-0.177,-0.187,-0.111
-0.059,-0.081,-0.021,0.07,-0.019,-0.051,0.015,-0.034,-0.195,-0.18,-0.184,-0.106
-0.071,-0.105,-0.034,0.088,-0.018,-0.069,0.015,-0.046,-0.198,-0.187,-0.188,-0.106
-0.078,-0.113,-0.034,0.096,-0.022,-0.073,0.02,-0.069,-0.216,-0.198,-0.191,-0.11
-0.072,-0.108,-0.036,0.09,-0.018,-0.071,0.02,-0.084,-0.229,-0.2,-0.189,-0.11
-0.078,-0.112,-0.034,0.095,-0.022,-0.072,0.02,-0.096,-0.234,-0.203,-0.194,-0.11
-0.073,-0.109,-0.035,0.091,-0.019,-0.071,0.02,-0.115,-0.238,-0.206,-0.195,-0.113
-0.061,-0.111,-0.05,0.086,-0.006,-0.08,0.02,-0.115,-0.24,-0.209,-0.195,-0.116
-0.065,-0.11,-0.045,0.087,-0.01,-0.077,0.018,-0.116,-0.244,-0.21,-0.194,-0.119
-0.047,-0.109,-0.062,0.078,0.008,-0.086,0.015,-0.121,-0.247,-0.21,-0.196,-0.122
-0.079,-0.13,-0.051,0.105,-0.014,-0.091,0.012,-0.119,-0.25,-0.21,-0.2,-0.125
-0.103,-0.142,-0.039,0.122,-0.032,-0.091,0.009,-0.123,-0.25,-0.21,-0.2,-0.125
-0.08,-0.139,-0.059,0.11,-0.01,-0.099,0.006,-0.125,-0.254,-0.21,-0.2,-0.127
-0.081,-0.134,-0.053,0.107,-0.013,-0.093,0.005,-0.125,-0.255,-0.21,-0.2,-0.13
-0.086,-0.13,-0.044,0.108,-0.021,-0.087,0.01,-0.129,-0.255,-0.212,-0.2,-0.13
-0.075,-0.119,-0.045,0.097,-0.015,-0.082,0.01,-0.131,-0.255,-0.22,-0.196,-0.13
-0.068,-0.131,-0.063,0.1,-0.002,-0.097,0.011,-0.129,-0.255,-0.224,-0.194,-0.13
-0.097,-0.164,-0.067,0.131,-0.015,-0.116,0.015,-0.138,-0.255,-0.22,-0.195,-0.13
-0.103,-0.166,-0.063,0.135,-0.02,-0.114,0.015,-0.143,-0.255,-0.22,-0.194,-0.13
-0.102,-0.164,-0.062,0.133,-0.019,-0.113,0.013,-0.137,-0.255,-0.22,-0.195,-0.13
-0.107,-0.165,-0.058,0.136,-0.024,-0.111,0.009,-0.132,-0.253,-0.22,-0.194,-0.129
-0.095,-0.158,-0.062,0.127,-0.016,-0.11,0.01,-0.129,-0.249,-0.22,-0.189,-0.125
-0.09,-0.154,-0.065,0.122,-0.012,-0.109,0.006,-0.123,-0.25,-0.217,-0.19,-0.122
-0.084,-0.149,-0.065,0.117,-0.01,-0.107,0.005,-0.12,-0.249,-0.214,-0.187,-0.12
-0.079,-0.144,-0.065,0.112,-0.007,-0.105,0.006,-0.125,-0.25,-0.212,-0.185,-0.116
-0.08,-0.141,-0.061,0.111,-0.009,-0.101,0.009,-0.125,-0.249,-0.209,-0.185,-0.115
-0.081,-0.141,-0.06,0.111,-0.011,-0.1,0.012,-0.127,-0.244,-0.205,-0.181,-0.111
-0.09,-0.15,-0.06,0.12,-0.014,-0.105,0.014,-0.135,-0.237,-0.204,-0.176,-0.109
-0.093,-0.153,-0.06,0.123,-0.016,-0.106,0.019,-0.139,-0.231,-0.211,-0.172,-0.11
-0.105,-0.166,-0.061,0.135,-0.021,-0.113,0.018,-0.134,-0.226,-0.213,-0.168,-0.106
-0.09,-0.149,-0.059,0.12,-0.015,-0.104,0.031,-0.123,-0.217,-0.199,-0.163,-0.106
-0.039,-0.092,-0.053,0.066,0.008,-0.072,0.028,-0.122,-0.221,-0.191,-0.159,-0.104
-0.039,-0.085,-0.046,0.062,0.004,-0.065,0.052,-0.105,-0.202,-0.186,-0.145,-0.1
-0.027,-0.07,-0.043,0.049,0.008,-0.056,0.095,-0.088,-0.179,-0.168,-0.132,-0.1
-0.004,-0.036,-0.032,0.02,0.014,-0.033,0.075,-0.056,-0.179,-0.162,-0.118,-0.099
-0.015,-0.052,-0.038,0.034,0.012,-0.045,0.048,-0.061,-0.181,-0.167,-0.114,-0.101
-0.036,-0.106,-0.07,0.071,0.017,-0.087,0.041,-0.113,-0.201,-0.168,-0.136,-0.098
-0.068,-0.149,-0.08,0.109,0.006,-0.114,0.037,-0.136,-0.233,-0.192,-0.162,-0.107
-0.1,-0.177,-0.078,0.139,-0.011,-0.127,0.029,-0.154,-0.251,-0.207,-0.18,-0.118
-0.105,-0.197,-0.092,0.152,-0.007,-0.144,0.028,-0.145,-0.254,-0.21,-0.187,-0.121
-0.1,-0.177,-0.077,0.139,-0.01,-0.127,0.016,-0.176,-0.26,-0.213,-0.185,-0.119
-0.086,-0.188,-0.102,0.137,0.008,-0.145,0.02,-0.133,-0.245,-0.204,-0.183,-0.115
-0.077,-0.173,-0.096,0.125,0.01,-0.134,0.005,-0.18,-0.268,-0.219,-0.189,-0.116
-0.075,-0.176,-0.101,0.125,0.014,-0.138,0.011,-0.132,-0.24,-0.199,-0.179,-0.113
-0.074,-0.186,-0.112,0.13,0.019,-0.148,0.011,-0.16,-0.277,-0.232,-0.199,-0.13
-0.102,-0.191,-0.089,0.147,-0.006,-0.14,0.098,-0.072,-0.253,-0.218,-0.194,-0.136
-0.169,-0.355,-0.187,0.262,0.009,-0.271,0.481,0.261,-0.494,-0.494,-0.447,-0.321
-0.093,-0.191,-0.098,0.143,0.003,-0.145,0.676,0.503,-0.71,-0.671,-0.542,-0.355
0.368,0.57,0.202,-0.469,0.083,0.386,0.026,0.903,0.251,0.32,0.352,0.317
0.779,2.029,1.25,-1.404,-0.236,1.639,-1.31,-0.724,2.163,2.321,2.041,1.478
0.779,2.416,1.637,-1.598,-0.429,2.026,-1.848,-2.338,4.331,4.094,3.199,2.071
0.372,0.716,0.343,-0.544,0.014,0.529,-1.133,-1.503,3.092,2.559,1.791,1.048
-0.043,-0.232,-0.189,0.138,0.073,-0.21,-0.377,-0.644,0.118,0.05,0.008,-0.014
-0.039,-0.136,-0.097,0.087,0.029,-0.116,-0.044,-0.104,-0.016,-0.016,-0.026,-0.036
-0.032,-0.185,-0.153,0.109,0.061,-0.169,0.056,0.06,0.01,-0.046,-0.073,-0.057
-0.047,-0.152,-0.105,0.1,0.03,-0.129,0.1,0.075,-0.197,-0.179,-0.159,-0.096
-0.037,-0.172,-0.135,0.104,0.05,-0.153,0.128,0.148,-0.125,-0.139,-0.144,-0.099
-0.08,-0.191,-0.111,0.136,0.016,-0.151,0.129,0.127,-0.241,-0.21,-0.177,-0.114
-0.054,-0.175,-0.121,0.115,0.034,-0.148,0.133,0.178,-0.16,-0.146,-0.136,-0.094
-0.043,-0.153,-0.11,0.098,0.034,-0.131,0.151,0.181,-0.186,-0.178,-0.154,-0.102
-0.046,-0.152,-0.105,0.099,0.03,-0.128,0.157,0.224,-0.131,-0.138,-0.126,-0.088
-0.04,-0.145,-0.105,0.093,0.032,-0.125,0.154,0.244,-0.127,-0.133,-0.124,-0.09
-0.026,-0.12,-0.094,0.073,0.035,-0.107,0.16,0.273,-0.103,-0.106,-0.105,-0.082
-0.011,-0.109,-0.097,0.061,0.043,-0.103,0.16,0.31,-0.07,-0.087,-0.092,-0.071
-0.007,-0.1,-0.093,0.054,0.044,-0.096,0.159,0.346,-0.051,-0.067,-0.074,-0.057
0.007,-0.089,-0.096,0.041,0.052,-0.092,0.17,0.403,0.0,-0.025,-0.04,-0.044
0.03,-0.064,-0.094,0.017,0.062,-0.079,0.176,0.455,0.036,0.005,-0.016,-0.035
0.074,-0.03,-0.104,-0.021,0.089,-0.067,0.181,0.524,0.092,0.054,0.012,-0.007
0.109,0.005,-0.104,-0.056,0.106,-0.049,0.197,0.607,0.149,0.106,0.048,0.022
0.114,0.017,-0.097,-0.065,0.105,-0.04,0.207,0.695,0.222,0.159,0.09,0.043
0.161,0.067,-0.093,-0.114,0.127,-0.013,0.223,0.799,0.305,0.236,0.152,0.081
0.207,0.121,-0.086,-0.164,0.146,0.017,0.223,0.895,0.401,0.324,0.225,0.121
0.229,0.148,-0.081,-0.188,0.155,0.033,0.209,0.965,0.5,0.42,0.297,0.164
0.308,0.232,-0.075,-0.27,0.191,0.078,0.195,1.016,0.603,0.533,0.388,0.225
0.356,0.289,-0.067,-0.323,0.211,0.111,0.165,1.015,0.693,0.625,0.469,0.282
0.377,0.318,-0.059,-0.348,0.218,0.13,0.136,0.981,0.742,0.688,0.528,0.321
0.386,0.339,-0.048,-0.362,0.217,0.145,0.095,0.892,0.749,0.71,0.56,0.33
0.351,0.317,-0.034,-0.334,0.193,0.141,0.056,0.726,0.719,0.693,0.545,0.334
0.301,0.267,-0.034,-0.284,0.167,0.117,0.043,0.539,0.606,0.589,0.465,0.289
0.225,0.185,-0.04,-0.205,0.132,0.072,0.04,0.372,0.431,0.423,0.334,0.204
0.151,0.098,-0.053,-0.124,0.102,0.022,0.056,0.239,0.257,0.258,0.202,0.126
0.053,-0.032,-0.084,-0.01,0.069,-0.058,0.067,0.133,0.092,0.104,0.085,0.037
0.006,-0.098,-0.104,0.046,0.056,-0.101,0.064,0.067,-0.015,0.005,0.002,-0.011
-0.015,-0.117,-0.102,0.066,0.044,-0.109,0.066,0.025,-0.09,-0.063,-0.053,-0.041
-0.036,-0.15,-0.114,0.093,0.039,-0.132,0.065,0.012,-0.133,-0.097,-0.085,-0.066
-0.002,-0.132,-0.13,0.067,0.064,-0.131,0.07,0.017,-0.137,-0.102,-0.089,-0.07
-0.036,-0.166,-0.13,0.101,0.047,-0.148,0.071,0.013,-0.152,-0.119,-0.1,-0.079
-0.066,-0.196,-0.13,0.131,0.033,-0.163,0.07,0.016,-0.161,-0.132,-0.106,-0.081
-0.051,-0.179,-0.128,0.115,0.039,-0.153,0.069,0.014,-0.155,-0.127,-0.104,-0.08
-0.033,-0.174,-0.141,0.104,0.054,-0.157,0.066,0.012,-0.153,-0.125,-0.105,-0.08
-0.016,-0.165,-0.15,0.091,0.067,-0.158,0.064,0.008,-0.149,-0.122,-0.105,-0.08
-0.025,-0.164,-0.14,0.095,0.058,-0.152,0.068,0.006,-0.144,-0.119,-0.105,-0.08
-0.026,-0.161,-0.135,0.094,0.054,-0.147,0.076,0.003,-0.151,-0.124,-0.105,-0.08
-0.031,-0.158,-0.127,0.095,0.048,-0.143,0.069,0.0,-0.158,-0.125,-0.105,-0.08
-0.026,-0.155,-0.128,0.091,0.051,-0.141,0.062,-0.001,-0.174,-0.127,-0.105,-0.08
-0.028,-0.158,-0.131,0.093,0.052,-0.144,0.056,-0.016,-0.194,-0.13,-0.105,-0.08
-0.036,-0.165,-0.129,0.1,0.047,-0.147,0.049,-0.027,-0.198,-0.133,-0.106,-0.08
-0.028,-0.158,-0.13,0.093,0.052,-0.144,0.044,-0.047,-0.199,-0.136,-0.104,-0.081
-0.02,-0.15,-0.13,0.085,0.055,-0.14,0.04,-0.071,-0.204,-0.138,-0.1,-0.085
-0.018,-0.147,-0.129,0.082,0.056,-0.137,0.04,-0.08,-0.207,-0.141,-0.098,-0.085
-0.009,-0.133,-0.124,0.071,0.058,-0.128,0.038,-0.088,-0.205,-0.139,-0.093,-0.087
-0.032,-0.15,-0.118,0.091,0.044,-0.134,0.034,-0.099,-0.215,-0.145,-0.105,-0.091
-0.074,-0.188,-0.115,0.131,0.021,-0.151,0.035,-0.115,-0.227,-0.156,-0.117,-0.089
-0.058,-0.168,-0.11,0.113,0.026,-0.139,0.038,-0.119,-0.227,-0.155,-0.114,-0.096
-0.049,-0.155,-0.105,0.102,0.028,-0.13,0.04,-0.122,-0.232,-0.154,-0.115,-0.103
-0.047,-0.156,-0.108,0.102,0.031,-0.132,0.04,-0.127,-0.236,-0.156,-0.115,-0.098
-0.022,-0.132,-0.11,0.077,0.045,-0.121,0.04,-0.127,-0.228,-0.153,-0.114,-0.092
-0.052,-0.162,-0.11,0.108,0.029,-0.136,0.04,-0.144,-0.242,-0.166,-0.118,-0.088
-0.084,-0.193,-0.109,0.138,0.013,-0.151,0.039,-0.156,-0.257,-0.176,-0.12,-0.081
-0.062,-0.18,-0.118,0.121,0.029,-0.149,0.035,-0.148,-0.247,-0.167,-0.12,-0.075
-0.052,-0.178,-0.126,0.115,0.037,-0.152,0.035,-0.145,-0.245,-0.167,-0.12,-0.091
-0.051,-0.171,-0.12,0.111,0.034,-0.146,0.035,-0.14,-0.24,-0.158,-0.12,-0.102
-0.047,-0.165,-0.118,0.106,0.035,-0.141,0.034,-0.135,-0.235,-0.158,-0.12,-0.099
-0.056,-0.17,-0.114,0.114,0.029,-0.142,0.036,-0.135,-0.239,-0.157,-0.12,-0.101
-0.069,-0.177,-0.108,0.123,0.02,-0.142,0.029,-0.136,-0.239,-0.168,-0.12,-0.1
-0.054,-0.175,-0.121,0.115,0.034,-0.148,0.026,-0.136,-0.235,-0.163,-0.12,-0.1
-0.038,-0.17,-0.132,0.104,0.047,-0.151,0.036,-0.135,-0.235,-0.166,-0.12,-0.096
-0.04,-0.168,-0.129,0.104,0.045,-0.148,0.034,-0.135,-0.235,-0.177,-0.12,-0.094
-0.032,-0.163,-0.131,0.098,0.05,-0.147,0.029,-0.136,-0.235,-0.155,-0.12,-0.096
-0.03,-0.159,-0.129,0.095,0.049,-0.144,0.03,-0.133,-0.235,-0.231,-0.12,-0.094
-0.038,-0.169,-0.131,0.103,0.047,-0.15,0.022,-0.14,-0.238,-0.128,-0.12,-0.097
-0.059,-0.182,-0.123,0.121,0.032,-0.152,0.031,-0.151,-0.24,0.021,-0.12,-0.091
-0.057,-0.17,-0.113,0.114,0.028,-0.142,0.028,-0.148,-0.24,-0.008,-0.12,-0.091
-0.028,-0.17,-0.142,0.099,0.058,-0.156,0.031,-0.144,-0.24,0.002,-0.12,-0.089
-0.051,-0.193,-0.142,0.122,0.046,-0.167,0.04,-0.141,-0.24,0.0,-0.114,-0.091
-0.073,-0.192,-0.119,0.133,0.023,-0.155,-0.047,-0.139,-0.24,-0.001,-0.112,-0.088
