-0.125,-0.085,0.04,0.105,-0.082,-0.022,0.26,0.081,0.145,-0.13,-0.21,-0.035
-0.121,-0.083,0.038,0.102,-0.079,-0.022,0.258,0.084,0.152,-0.126,-0.206,-0.031
-0.108,-0.077,0.03,0.092,-0.069,-0.023,0.252,0.087,0.164,-0.12,-0.199,-0.027
-0.098,-0.073,0.024,0.085,-0.06,-0.025,0.247,0.089,0.181,-0.103,-0.192,-0.02
-0.087,-0.069,0.018,0.078,-0.053,-0.025,0.241,0.091,0.203,-0.072,-0.186,-0.015
-0.072,-0.064,0.008,0.068,-0.04,-0.028,0.236,0.105,0.239,-0.037,-0.173,-0.011
-0.091,-0.055,0.036,0.073,-0.063,-0.009,0.23,0.126,0.292,0.002,-0.152,0.002
-0.085,-0.028,0.057,0.056,-0.07,0.014,0.224,0.142,0.339,0.033,-0.138,0.013
-0.055,0.003,0.058,0.026,-0.057,0.03,0.217,0.156,0.396,0.073,-0.104,0.04
-0.016,0.04,0.056,-0.012,-0.037,0.048,0.196,0.187,0.467,0.141,-0.051,0.068
0.01,0.084,0.073,-0.047,-0.032,0.078,0.166,0.195,0.529,0.21,-0.008,0.121
0.027,0.118,0.092,-0.073,-0.033,0.105,0.139,0.182,0.567,0.26,0.045,0.169
0.057,0.161,0.103,-0.109,-0.023,0.132,0.12,0.177,0.573,0.281,0.085,0.191
0.063,0.183,0.12,-0.123,-0.029,0.151,0.115,0.167,0.559,0.273,0.11,0.22
0.075,0.181,0.106,-0.129,-0.016,0.143,0.114,0.162,0.524,0.263,0.114,0.213
0.039,0.144,0.105,-0.091,-0.033,0.124,0.118,0.148,0.453,0.223,0.081,0.202
0.006,0.087,0.08,-0.046,-0.037,0.083,0.145,0.132,0.368,0.141,0.04,0.174
0.011,0.034,0.023,-0.023,-0.006,0.028,0.179,0.114,0.264,0.066,-0.021,0.115
-0.033,-0.033,-0.001,0.033,-0.016,-0.017,0.202,0.088,0.171,-0.008,-0.075,0.061
-0.066,-0.079,-0.013,0.073,-0.026,-0.046,0.218,0.072,0.114,-0.065,-0.109,0.028
-0.07,-0.108,-0.039,0.089,-0.015,-0.073,0.225,0.065,0.07,-0.084,-0.13,0.019
-0.076,-0.117,-0.042,0.097,-0.017,-0.079,0.225,0.057,0.058,-0.101,-0.13,0.013
-0.082,-0.12,-0.038,0.101,-0.022,-0.079,0.225,0.049,0.052,-0.109,-0.129,0.013
-0.078,-0.12,-0.042,0.099,-0.018,-0.081,0.225,0.045,0.042,-0.102,-0.137,-0.006
-0.084,-0.121,-0.037,0.103,-0.024,-0.079,0.225,0.045,0.033,-0.11,-0.148,-0.028
-0.092,-0.139,-0.046,0.116,-0.023,-0.092,0.223,0.045,0.022,-0.126,-0.147,-0.021
-0.084,-0.14,-0.056,0.113,-0.014,-0.098,0.22,0.045,0.015,-0.125,-0.143,-0.016
-0.089,-0.14,-0.05,0.115,-0.02,-0.095,0.22,0.045,0.017,-0.121,-0.141,-0.013
-0.092,-0.14,-0.048,0.117,-0.022,-0.094,0.22,0.045,0.03,-0.119,-0.138,-0.007
-0.096,-0.14,-0.044,0.119,-0.026,-0.091,0.22,0.051,0.03,-0.115,-0.136,-0.004
-0.1,-0.139,-0.039,0.119,-0.03,-0.089,0.22,0.055,0.029,-0.115,-0.133,0.001
-0.086,-0.134,-0.049,0.11,-0.018,-0.091,0.224,0.055,0.03,-0.115,-0.13,0.001
-0.085,-0.135,-0.051,0.11,-0.016,-0.093,0.225,0.055,0.029,-0.115,-0.13,0.007
-0.083,-0.133,-0.05,0.108,-0.016,-0.091,0.225,0.055,0.031,-0.116,-0.128,0.007
-0.081,-0.129,-0.048,0.105,-0.016,-0.089,0.225,0.055,0.035,-0.115,-0.125,0.012
-0.088,-0.131,-0.043,0.11,-0.022,-0.087,0.225,0.055,0.038,-0.116,-0.126,0.002
-0.072,-0.119,-0.047,0.096,-0.012,-0.083,0.225,0.063,0.042,-0.112,-0.12,-0.016
-0.069,-0.096,-0.026,0.083,-0.021,-0.061,0.215,0.07,0.045,-0.103,-0.11,0.016
-0.082,-0.068,0.013,0.075,-0.047,-0.027,0.21,0.07,0.045,-0.092,-0.099,0.032
-0.073,-0.037,0.036,0.055,-0.055,0.0,0.185,0.067,0.045,-0.083,-0.093,0.042
-0.054,-0.019,0.034,0.036,-0.044,0.007,0.143,0.059,0.043,-0.085,-0.094,0.054
-0.022,-0.001,0.021,0.011,-0.021,0.01,0.138,0.052,0.051,-0.084,-0.098,0.04
-0.028,-0.022,0.005,0.025,-0.016,-0.008,0.149,0.046,0.046,-0.089,-0.099,0.034
-0.059,-0.089,-0.03,0.074,-0.014,-0.059,0.168,0.036,0.016,-0.108,-0.118,0.019
-0.094,-0.142,-0.048,0.118,-0.022,-0.095,0.2,0.032,-0.017,-0.161,-0.168,-0.014
-0.118,-0.164,-0.045,0.141,-0.036,-0.104,0.208,0.033,-0.033,-0.172,-0.178,-0.044
-0.097,-0.164,-0.067,0.13,-0.015,-0.115,0.21,0.036,-0.049,-0.178,-0.185,-0.051
-0.118,-0.171,-0.053,0.145,-0.033,-0.112,0.216,0.034,-0.032,-0.174,-0.183,-0.05
-0.131,-0.188,-0.058,0.16,-0.036,-0.123,0.208,0.043,-0.037,-0.172,-0.177,-0.048
-0.128,-0.179,-0.052,0.154,-0.038,-0.116,0.21,0.063,-0.024,-0.183,-0.183,-0.055
-0.13,-0.173,-0.042,0.151,-0.044,-0.107,0.2,0.04,-0.024,-0.157,-0.162,-0.04
-0.103,-0.196,-0.094,0.15,-0.004,-0.144,0.266,0.149,0.043,-0.172,-0.219,-0.088
-0.014,-0.083,-0.069,0.048,0.028,-0.076,0.301,0.443,0.576,0.138,-0.109,-0.036
0.28,0.357,0.077,-0.319,0.102,0.216,-0.162,0.192,0.666,0.56,0.4,0.448
0.394,0.641,0.247,-0.518,0.073,0.443,-0.7,-0.543,-0.004,0.907,0.897,0.876
0.117,0.018,-0.099,-0.067,0.108,-0.041,-0.501,-0.5,-0.634,0.435,0.407,0.464
-0.113,-0.505,-0.393,0.309,0.14,-0.449,-0.066,-0.135,-0.76,-0.524,-0.374,-0.135
-0.141,-0.295,-0.154,0.218,0.006,-0.224,0.104,-0.099,-0.286,-0.37,-0.284,-0.119
-0.13,-0.209,-0.079,0.17,-0.025,-0.144,0.216,0.051,-0.032,-0.159,-0.186,-0.057
-0.125,-0.195,-0.07,0.161,-0.027,-0.132,0.239,0.089,-0.006,-0.189,-0.217,-0.072
-0.068,-0.166,-0.098,0.118,0.015,-0.132,0.231,0.072,0.045,-0.12,-0.178,-0.05
-0.049,-0.17,-0.121,0.11,0.037,-0.146,0.238,0.092,0.027,-0.157,-0.194,-0.062
-0.069,-0.158,-0.089,0.114,0.01,-0.123,0.232,0.079,0.053,-0.117,-0.164,-0.048
-0.064,-0.17,-0.107,0.117,0.022,-0.138,0.237,0.093,0.053,-0.13,-0.169,-0.053
-0.061,-0.161,-0.1,0.112,0.02,-0.13,0.23,0.087,0.067,-0.112,-0.156,-0.047
-0.055,-0.167,-0.112,0.111,0.029,-0.139,0.225,0.092,0.075,-0.109,-0.155,-0.043
-0.059,-0.164,-0.105,0.112,0.024,-0.134,0.217,0.09,0.082,-0.104,-0.148,-0.038
-0.071,-0.162,-0.091,0.117,0.011,-0.127,0.211,0.09,0.095,-0.093,-0.141,-0.033
-0.07,-0.149,-0.079,0.109,0.005,-0.114,0.204,0.101,0.119,-0.092,-0.138,-0.028
-0.066,-0.133,-0.066,0.1,0.0,-0.099,0.198,0.107,0.147,-0.071,-0.127,-0.026
-0.06,-0.121,-0.061,0.091,0.001,-0.091,0.188,0.115,0.173,-0.044,-0.118,-0.01
-0.052,-0.103,-0.051,0.078,-0.001,-0.076,0.176,0.13,0.223,0.003,-0.099,-0.008
-0.035,-0.08,-0.045,0.058,0.005,-0.063,0.166,0.139,0.279,0.044,-0.072,0.003
0.001,-0.032,-0.034,0.015,0.018,-0.033,0.148,0.16,0.343,0.086,-0.027,0.041
0.037,0.025,-0.012,-0.031,0.024,0.006,0.127,0.182,0.409,0.153,0.015,0.074
0.079,0.085,0.006,-0.083,0.036,0.045,0.099,0.192,0.46,0.215,0.065,0.142
0.093,0.13,0.037,-0.112,0.028,0.084,0.082,0.192,0.479,0.256,0.116,0.179
0.095,0.158,0.063,-0.127,0.015,0.111,0.077,0.176,0.467,0.278,0.149,0.209
0.121,0.181,0.059,-0.151,0.03,0.12,0.076,0.164,0.442,0.265,0.156,0.235
0.105,0.155,0.05,-0.13,0.027,0.103,0.069,0.148,0.387,0.231,0.131,0.196
0.07,0.11,0.04,-0.09,0.015,0.074,0.074,0.125,0.301,0.159,0.09,0.153
0.037,0.06,0.023,-0.049,0.007,0.041,0.104,0.102,0.212,0.074,0.036,0.105
0.001,0.008,0.007,-0.005,-0.003,0.008,0.132,0.089,0.128,0.009,-0.01,0.06
-0.025,-0.035,-0.01,0.03,-0.007,-0.022,0.157,0.081,0.065,-0.039,-0.051,0.039
-0.055,-0.077,-0.023,0.066,-0.016,-0.05,0.162,0.065,0.026,-0.073,-0.094,0.015
-0.039,-0.081,-0.042,0.06,0.002,-0.061,0.158,0.049,0.003,-0.096,-0.101,0.003
-0.025,-0.081,-0.057,0.054,0.016,-0.068,0.161,0.044,-0.012,-0.103,-0.099,0.004
-0.048,-0.102,-0.054,0.075,0.004,-0.078,0.159,0.045,-0.021,-0.103,-0.101,-0.001
-0.05,-0.105,-0.055,0.078,0.003,-0.08,0.161,0.045,-0.02,-0.1,-0.099,-0.003
-0.05,-0.105,-0.055,0.078,0.003,-0.08,0.164,0.045,-0.02,-0.1,-0.1,-0.004
-0.05,-0.105,-0.055,0.078,0.003,-0.08,0.169,0.045,-0.02,-0.1,-0.1,-0.022
-0.053,-0.105,-0.052,0.079,0.0,-0.078,0.168,0.042,-0.02,-0.1,-0.1,-0.032
-0.058,-0.105,-0.047,0.082,-0.005,-0.076,0.163,0.04,-0.019,-0.099,-0.1,-0.022
-0.057,-0.101,-0.044,0.08,-0.007,-0.072,0.16,0.04,-0.015,-0.096,-0.1,-0.02
-0.057,-0.098,-0.041,0.077,-0.007,-0.069,0.156,0.036,-0.013,-0.093,-0.099,-0.015
-0.058,-0.094,-0.035,0.076,-0.011,-0.064,0.152,0.035,-0.01,-0.09,-0.103,-0.01
-0.055,-0.091,-0.036,0.074,-0.01,-0.063,0.149,0.035,-0.007,-0.088,-0.105,-0.015
-0.052,-0.086,-0.034,0.069,-0.009,-0.06,0.145,0.035,-0.004,-0.085,-0.105,-0.025
-0.048,-0.086,-0.037,0.067,-0.005,-0.061,0.145,0.035,-0.013,-0.088,-0.109,-0.033
-0.03,-0.092,-0.062,0.061,0.016,-0.077,0.145,0.035,-0.03,-0.094,-0.111,-0.029
-0.03,-0.092,-0.062,0.061,0.016,-0.077,0.145,0.035,-0.042,-0.103,-0.11,-0.025
-0.03,-0.103,-0.073,0.066,0.022,-0.087,0.145,0.035,-0.032,-0.11,-0.103,-0.02
-0.029,-0.083,-0.055,0.056,0.013,-0.069,0.147,0.033,-0.02,-0.11,-0.093,-0.015
-0.035,-0.036,-0.001,0.036,-0.017,-0.018,0.158,0.028,-0.01,-0.094,-0.086,-0.011
-0.017,0.008,0.025,0.004,-0.021,0.016,0.139,0.026,-0.001,-0.072,-0.076,0.002
-0.017,0.034,0.05,-0.009,-0.034,0.042,0.109,0.007,-0.019,-0.068,-0.072,0.008
0.008,0.032,0.023,-0.021,-0.008,0.027,0.112,-0.006,-0.029,-0.059,-0.066,0.025
0.035,0.018,-0.017,-0.026,0.025,0.001,0.108,0.012,-0.032,-0.057,-0.058,0.038
0.007,-0.031,-0.038,0.013,0.022,-0.035,0.113,0.021,-0.03,-0.067,-0.076,0.024
-0.025,-0.09,-0.065,0.058,0.02,-0.077,0.15,0.019,-0.057,-0.106,-0.116,-0.008
-0.071,-0.128,-0.057,0.099,-0.007,-0.092,0.162,0.021,-0.084,-0.134,-0.147,-0.057
-0.09,-0.151,-0.061,0.12,-0.014,-0.106,0.144,0.019,-0.092,-0.138,-0.153,-0.072
-0.092,-0.153,-0.061,0.122,-0.015,-0.106,0.148,0.021,-0.09,-0.141,-0.162,-0.065
-0.102,-0.158,-0.056,0.129,-0.022,-0.107,0.131,0.016,-0.087,-0.122,-0.164,-0.061
-0.102,-0.169,-0.067,0.136,-0.017,-0.118,0.136,0.016,-0.102,-0.144,-0.175,-0.061
-0.085,-0.147,-0.062,0.116,-0.011,-0.104,0.164,0.014,-0.082,-0.102,-0.149,-0.05
-0.09,-0.186,-0.096,0.139,0.003,-0.141,0.176,0.061,-0.103,-0.164,-0.181,-0.077
-0.072,-0.149,-0.077,0.111,0.002,-0.113,0.259,0.343,0.308,0.022,-0.152,-0.117
0.205,0.224,0.019,-0.215,0.093,0.121,-0.044,0.328,0.652,0.448,0.228,0.209
0.445,0.679,0.234,-0.562,0.105,0.456,-0.693,-0.385,0.166,0.841,0.816,0.806
0.248,0.336,0.088,-0.292,0.08,0.212,-0.756,-0.673,-0.545,0.755,0.714,0.68
-0.054,-0.385,-0.331,0.22,0.139,-0.358,-0.308,-0.33,-0.909,-0.271,-0.172,-0.017
-0.126,-0.339,-0.213,0.233,0.044,-0.276,-0.042,-0.169,-0.532,-0.48,-0.358,-0.181
-0.086,-0.165,-0.079,0.125,-0.003,-0.122,0.059,-0.048,-0.142,-0.137,-0.148,-0.088
-0.07,-0.169,-0.098,0.12,0.014,-0.133,0.103,0.032,-0.115,-0.178,-0.192,-0.1
-0.062,-0.133,-0.071,0.098,0.005,-0.102,0.088,0.025,-0.052,-0.104,-0.152,-0.078
-0.065,-0.153,-0.088,0.109,0.012,-0.12,0.091,0.04,-0.044,-0.134,-0.164,-0.084
-0.065,-0.138,-0.072,0.102,0.004,-0.105,0.084,0.032,-0.025,-0.118,-0.149,-0.075
-0.064,-0.142,-0.078,0.104,0.007,-0.109,0.081,0.041,-0.025,-0.115,-0.144,-0.071
-0.066,-0.14,-0.074,0.104,0.004,-0.106,0.078,0.04,-0.022,-0.12,-0.143,-0.076
-0.048,-0.135,-0.087,0.092,0.02,-0.11,0.07,0.039,-0.011,-0.105,-0.131,-0.08
-0.039,-0.128,-0.089,0.084,0.025,-0.108,0.065,0.042,0.007,-0.099,-0.134,-0.076
-0.039,-0.117,-0.079,0.078,0.02,-0.098,0.057,0.04,0.035,-0.078,-0.123,-0.07
-0.019,-0.096,-0.077,0.058,0.029,-0.086,0.051,0.052,0.053,-0.072,-0.124,-0.067
-0.011,-0.08,-0.069,0.045,0.029,-0.074,0.044,0.071,0.087,-0.045,-0.114,-0.062
-0.006,-0.074,-0.068,0.04,0.031,-0.07,0.039,0.078,0.11,-0.019,-0.1,-0.053
0.01,-0.051,-0.061,0.021,0.035,-0.055,0.03,0.095,0.163,0.017,-0.07,-0.032
0.028,-0.016,-0.044,-0.005,0.036,-0.03,0.021,0.114,0.221,0.052,-0.033,-0.005
0.057,0.029,-0.028,-0.043,0.042,0.0,0.009,0.135,0.277,0.108,0.004,0.018
0.076,0.06,-0.016,-0.068,0.046,0.022,-0.02,0.153,0.339,0.172,0.038,0.05
0.112,0.114,0.002,-0.113,0.054,0.058,-0.053,0.157,0.394,0.228,0.083,0.098
0.127,0.152,0.026,-0.14,0.05,0.089,-0.083,0.162,0.425,0.273,0.13,0.13
0.122,0.181,0.059,-0.152,0.031,0.12,-0.106,0.16,0.413,0.292,0.163,0.167
0.14,0.222,0.082,-0.182,0.029,0.152,-0.126,0.149,0.406,0.285,0.178,0.184
0.126,0.217,0.091,-0.172,0.017,0.154,-0.127,0.126,0.365,0.27,0.172,0.164
0.106,0.175,0.069,-0.141,0.018,0.122,-0.099,0.09,0.279,0.22,0.144,0.148
0.06,0.112,0.052,-0.087,0.004,0.082,-0.069,0.057,0.197,0.15,0.091,0.115
0.016,0.054,0.038,-0.035,-0.012,0.046,-0.047,0.043,0.106,0.089,0.04,0.064
0.014,0.011,-0.003,-0.012,0.009,0.004,-0.039,0.03,0.033,0.032,0.005,0.019
-0.012,-0.037,-0.026,0.025,0.007,-0.031,-0.04,0.02,-0.014,-0.003,-0.031,-0.017
-0.021,-0.067,-0.046,0.044,0.012,-0.056,-0.04,0.01,-0.055,-0.037,-0.068,-0.037
-0.018,-0.07,-0.052,0.044,0.017,-0.061,-0.04,0.001,-0.077,-0.046,-0.077,-0.04
-0.025,-0.074,-0.049,0.049,0.012,-0.061,-0.04,-0.004,-0.08,-0.044,-0.074,-0.04
-0.027,-0.075,-0.048,0.052,0.011,-0.061,-0.038,-0.009,-0.08,-0.051,-0.076,-0.043
-0.026,-0.07,-0.043,0.049,0.009,-0.056,-0.035,-0.012,-0.08,-0.05,-0.074,-0.047
-0.018,-0.065,-0.046,0.042,0.014,-0.056,-0.032,-0.018,-0.08,-0.046,-0.075,-0.043
-0.012,-0.06,-0.049,0.036,0.019,-0.055,-0.03,-0.019,-0.08,-0.042,-0.074,-0.042
-0.005,-0.056,-0.051,0.031,0.023,-0.053,-0.027,-0.012,-0.078,-0.039,-0.075,-0.038
-0.005,-0.051,-0.046,0.028,0.021,-0.049,-0.024,-0.006,-0.075,-0.034,-0.074,-0.041
-0.014,-0.047,-0.033,0.031,0.01,-0.04,-0.03,0.0,-0.072,-0.039,-0.076,-0.04
-0.018,-0.041,-0.023,0.03,0.003,-0.032,-0.034,0.008,-0.07,-0.039,-0.074,-0.032
-0.016,-0.036,-0.02,0.026,0.002,-0.028,-0.036,0.006,-0.066,-0.043,-0.076,-0.055
-0.021,-0.031,-0.011,0.026,-0.005,-0.021,-0.033,0.0,-0.065,-0.055,-0.089,-0.04
-0.007,-0.025,-0.018,0.016,0.006,-0.021,-0.042,-0.005,-0.069,-0.055,-0.091,-0.029
0.025,-0.021,-0.045,-0.002,0.035,-0.033,-0.052,-0.01,-0.07,-0.059,-0.09,-0.04
0.031,-0.014,-0.046,-0.008,0.039,-0.03,-0.046,-0.017,-0.071,-0.06,-0.086,-0.036
0.035,-0.009,-0.044,-0.013,0.04,-0.026,-0.046,-0.02,-0.071,-0.068,-0.085,-0.054
0.044,-0.004,-0.047,-0.02,0.046,-0.025,-0.04,-0.019,-0.064,-0.067,-0.084,-0.045
0.021,0.01,-0.012,-0.015,0.016,-0.001,-0.042,-0.022,-0.06,-0.05,-0.07,-0.034
0.023,0.05,0.027,-0.036,-0.002,0.038,-0.04,-0.015,-0.054,-0.042,-0.056,-0.026
0.054,0.095,0.041,-0.075,0.006,0.068,-0.073,-0.046,-0.048,-0.036,-0.046,-0.013
0.067,0.108,0.041,-0.088,0.013,0.074,-0.12,-0.064,-0.045,-0.034,-0.045,-0.009
0.087,0.11,0.024,-0.099,0.031,0.067,-0.11,-0.036,-0.028,-0.025,-0.039,0.006
0.081,0.076,-0.006,-0.078,0.043,0.035,-0.086,-0.034,-0.04,-0.032,-0.045,-0.014
0.037,0.001,-0.036,-0.019,0.037,-0.017,-0.064,-0.036,-0.09,-0.065,-0.077,-0.053
-0.007,-0.043,-0.036,0.026,0.015,-0.039,-0.053,-0.036,-0.111,-0.103,-0.111,-0.077
-0.03,-0.062,-0.032,0.046,0.002,-0.047,-0.054,-0.041,-0.105,-0.103,-0.117,-0.09
-0.029,-0.069,-0.04,0.049,0.006,-0.054,-0.05,-0.04,-0.116,-0.119,-0.125,-0.091
-0.028,-0.055,-0.028,0.042,0.0,-0.041,-0.045,-0.034,-0.096,-0.107,-0.12,-0.087
-0.019,-0.065,-0.046,0.043,0.013,-0.055,-0.048,-0.031,-0.113,-0.123,-0.13,-0.086
-0.02,-0.047,-0.027,0.034,0.004,-0.037,-0.034,-0.013,-0.09,-0.119,-0.116,-0.084
-0.032,-0.065,-0.034,0.049,0.001,-0.049,-0.022,-0.034,-0.103,-0.116,-0.101,-0.09
-0.047,-0.094,-0.047,0.07,0.0,-0.07,0.064,0.124,0.046,-0.097,-0.153,-0.141
0.099,0.079,-0.02,-0.089,0.059,0.029,0.022,0.397,0.559,0.256,0.028,-0.038
0.417,0.567,0.15,-0.492,0.133,0.358,-0.548,-0.032,0.484,0.661,0.562,0.492
0.444,0.732,0.288,-0.588,0.077,0.51,-0.997,-0.695,-0.163,0.986,0.953,0.854
0.128,-0.006,-0.134,-0.061,0.131,-0.07,-0.688,-0.561,-0.777,0.318,0.318,0.292
-0.081,-0.383,-0.302,0.232,0.111,-0.342,-0.268,-0.262,-0.805,-0.531,-0.356,-0.217
-0.06,-0.127,-0.067,0.093,0.004,-0.097,-0.116,-0.162,-0.291,-0.24,-0.197,-0.129
-0.01,-0.069,-0.059,0.04,0.025,-0.063,-0.034,-0.022,-0.117,-0.128,-0.143,-0.122
-0.002,-0.047,-0.045,0.025,0.022,-0.046,-0.029,-0.011,-0.081,-0.143,-0.137,-0.13
0.002,-0.04,-0.042,0.019,0.023,-0.041,-0.027,-0.01,-0.057,-0.1,-0.113,-0.116
0.004,-0.034,-0.038,0.016,0.021,-0.036,-0.017,0.0,-0.064,-0.138,-0.129,-0.125
0.005,-0.023,-0.028,0.009,0.017,-0.025,-0.015,-0.002,-0.037,-0.102,-0.104,-0.115
0.007,-0.023,-0.029,0.008,0.018,-0.026,-0.009,0.009,-0.039,-0.125,-0.114,-0.118
0.007,-0.009,-0.016,0.001,0.012,-0.013,-0.017,0.008,-0.015,-0.108,-0.098,-0.105
0.008,-0.008,-0.015,0.001,0.012,-0.012,-0.014,0.02,-0.013,-0.107,-0.099,-0.102
0.014,0.005,-0.009,-0.01,0.011,-0.002,-0.016,0.023,0.003,-0.081,-0.09,-0.094
0.017,0.009,-0.008,-0.013,0.012,0.001,-0.015,0.031,0.024,-0.069,-0.085,-0.087
0.025,0.02,-0.005,-0.022,0.015,0.007,-0.014,0.037,0.044,-0.059,-0.081,-0.082
0.026,0.025,-0.001,-0.026,0.014,0.012,-0.027,0.043,0.071,-0.036,-0.074,-0.075
0.033,0.033,0.0,-0.033,0.016,0.017,-0.04,0.06,0.107,-0.008,-0.065,-0.071
0.06,0.056,-0.004,-0.058,0.032,0.025,-0.042,0.075,0.165,0.044,-0.041,-0.064
0.059,0.083,0.024,-0.071,0.017,0.053,-0.035,0.097,0.223,0.078,-0.017,-0.038
0.071,0.128,0.057,-0.1,0.006,0.093,-0.057,0.125,0.287,0.131,0.026,0.008
0.109,0.186,0.077,-0.148,0.016,0.131,-0.087,0.14,0.356,0.197,0.093,0.05
0.143,0.235,0.092,-0.189,0.025,0.163,-0.108,0.142,0.393,0.246,0.132,0.084
0.168,0.274,0.106,-0.221,0.03,0.19,-0.149,0.125,0.392,0.269,0.157,0.113
0.176,0.303,0.127,-0.24,0.024,0.215,-0.164,0.108,0.384,0.27,0.182,0.128
0.181,0.304,0.123,-0.243,0.029,0.213,-0.158,0.094,0.359,0.271,0.178,0.148
0.17,0.288,0.118,-0.229,0.026,0.203,-0.148,0.073,0.286,0.227,0.157,0.143
0.13,0.245,0.115,-0.188,0.007,0.18,-0.128,0.052,0.201,0.155,0.118,0.096
0.076,0.181,0.105,-0.129,-0.015,0.143,-0.105,0.035,0.105,0.077,0.055,0.038
0.033,0.127,0.094,-0.08,-0.031,0.11,-0.078,0.022,0.015,0.001,0.003,-0.018
0.002,0.084,0.082,-0.043,-0.04,0.083,-0.062,0.01,-0.044,-0.059,-0.025,-0.041
-0.016,0.06,0.076,-0.022,-0.047,0.068,-0.054,0.005,-0.086,-0.103,-0.06,-0.064
-0.013,0.055,0.069,-0.021,-0.041,0.061,-0.045,0.0,-0.103,-0.112,-0.076,-0.079
-0.013,0.05,0.063,-0.019,-0.038,0.056,-0.037,-0.005,-0.115,-0.126,-0.078,-0.078
-0.011,0.044,0.055,-0.017,-0.033,0.05,-0.035,-0.012,-0.117,-0.137,-0.083,-0.083
-0.012,0.038,0.05,-0.013,-0.031,0.044,-0.032,-0.014,-0.11,-0.141,-0.086,-0.085
-0.026,0.035,0.06,-0.005,-0.043,0.047,-0.029,-0.01,-0.109,-0.147,-0.09,-0.084
-0.031,0.035,0.067,-0.003,-0.049,0.051,-0.026,-0.01,-0.104,-0.142,-0.085,-0.09
-0.03,0.034,0.064,-0.003,-0.047,0.049,-0.024,-0.01,-0.101,-0.153,-0.085,-0.105
-0.03,0.036,0.066,-0.004,-0.048,0.051,-0.021,-0.01,-0.1,-0.158,-0.084,-0.105
-0.031,0.033,0.064,-0.001,-0.048,0.049,-0.018,-0.01,-0.1,-0.144,-0.08,-0.105
-0.028,0.035,0.064,-0.004,-0.046,0.049,-0.015,-0.01,-0.1,-0.145,-0.08,-0.104
-0.029,0.051,0.08,-0.012,-0.055,0.066,-0.013,-0.01,-0.1,-0.145,-0.079,-0.1
-0.027,0.059,0.086,-0.017,-0.057,0.073,-0.008,-0.011,-0.1,-0.145,-0.087,-0.098
-0.02,0.057,0.078,-0.019,-0.049,0.067,-0.015,-0.01,-0.1,-0.146,-0.097,-0.095
-0.02,0.058,0.078,-0.019,-0.05,0.068,-0.035,-0.01,-0.11,-0.145,-0.099,-0.091
-0.026,0.045,0.071,-0.01,-0.048,0.057,-0.029,-0.01,-0.111,-0.141,-0.097,-0.09
-0.019,0.053,0.072,-0.017,-0.046,0.062,-0.022,-0.009,-0.109,-0.134,-0.089,-0.085
-0.002,0.1,0.102,-0.049,-0.052,0.1,-0.016,-0.012,-0.111,-0.131,-0.083,-0.075
0.001,0.132,0.13,-0.067,-0.065,0.131,-0.011,-0.006,-0.109,-0.125,-0.076,-0.065
0.02,0.163,0.143,-0.091,-0.062,0.153,-0.056,-0.031,-0.112,-0.122,-0.067,-0.055
0.036,0.183,0.147,-0.109,-0.056,0.164,-0.09,-0.044,-0.106,-0.121,-0.06,-0.046
0.056,0.173,0.117,-0.115,-0.031,0.145,-0.069,-0.02,-0.106,-0.127,-0.048,-0.035
0.055,0.135,0.081,-0.095,-0.013,0.107,-0.037,-0.019,-0.105,-0.132,-0.055,-0.055
-0.005,0.078,0.083,-0.036,-0.045,0.08,-0.014,-0.024,-0.127,-0.158,-0.096,-0.09
-0.057,0.027,0.084,0.015,-0.071,0.055,-0.003,-0.024,-0.165,-0.203,-0.136,-0.133
-0.071,0.003,0.074,0.034,-0.072,0.038,-0.004,-0.03,-0.164,-0.194,-0.148,-0.155
-0.066,-0.007,0.059,0.036,-0.062,0.026,0.001,-0.03,-0.174,-0.208,-0.16,-0.155
-0.066,-0.005,0.061,0.035,-0.064,0.028,0.004,-0.026,-0.158,-0.191,-0.15,-0.155
-0.056,-0.017,0.039,0.036,-0.047,0.011,0.003,-0.017,-0.171,-0.208,-0.159,-0.154
-0.061,-0.013,0.048,0.037,-0.054,0.017,0.016,-0.004,-0.15,-0.195,-0.153,-0.158
-0.059,-0.025,0.033,0.041,-0.046,0.004,0.015,-0.009,-0.164,-0.193,-0.154,-0.148
-0.057,-0.058,0.0,0.057,-0.028,-0.029,0.102,0.167,0.021,-0.169,-0.202,-0.203
0.08,0.147,0.067,-0.113,0.006,0.107,0.038,0.391,0.527,0.189,0.015,-0.08
0.372,0.622,0.25,-0.497,0.06,0.436,-0.502,-0.059,0.31,0.566,0.577,0.47
0.334,0.651,0.317,-0.493,0.008,0.484,-0.837,-0.636,-0.439,0.772,0.844,0.696
0.016,-0.064,-0.08,0.024,0.048,-0.072,-0.499,-0.398,-0.93,0.019,0.138,0.106
-0.12,-0.322,-0.202,0.221,0.042,-0.262,-0.169,-0.131,-0.828,-0.671,-0.411,-0.3
-0.086,-0.065,0.021,0.075,-0.053,-0.021,-0.075,-0.116,-0.326,-0.31,-0.226,-0.194
-0.065,-0.029,0.036,0.046,-0.05,0.003,0.011,-0.009,-0.167,-0.224,-0.18,-0.155
-0.063,-0.009,0.054,0.035,-0.058,0.023,0.024,0.009,-0.13,-0.229,-0.166,-0.149
-0.055,0.005,0.06,0.025,-0.058,0.032,0.025,0.016,-0.098,-0.199,-0.16,-0.157
-0.042,0.016,0.058,0.013,-0.05,0.037,0.026,0.016,-0.101,-0.22,-0.172,-0.169
-0.041,0.024,0.065,0.008,-0.053,0.044,0.023,0.013,-0.076,-0.186,-0.158,-0.156
-0.055,0.016,0.071,0.019,-0.063,0.043,0.027,0.017,-0.081,-0.204,-0.171,-0.168
-0.054,0.023,0.077,0.015,-0.066,0.05,0.023,0.013,-0.067,-0.178,-0.159,-0.171
-0.056,0.018,0.073,0.019,-0.064,0.045,0.022,0.024,-0.061,-0.181,-0.159,-0.167
-0.06,0.021,0.081,0.019,-0.07,0.051,0.018,0.028,-0.037,-0.167,-0.146,-0.154
-0.052,0.028,0.079,0.012,-0.066,0.053,0.016,0.037,-0.011,-0.153,-0.138,-0.146
-0.048,0.033,0.081,0.007,-0.065,0.057,0.012,0.042,0.013,-0.128,-0.117,-0.144
-0.037,0.049,0.086,-0.006,-0.062,0.067,0.01,0.047,0.036,-0.106,-0.108,-0.144
-0.015,0.07,0.084,-0.028,-0.05,0.077,0.007,0.05,0.073,-0.079,-0.091,-0.117
-0.009,0.075,0.084,-0.033,-0.047,0.079,0.002,0.061,0.132,-0.031,-0.052,-0.092
0.007,0.109,0.103,-0.059,-0.048,0.106,-0.021,0.078,0.186,0.013,-0.034,-0.072
0.038,0.155,0.117,-0.097,-0.04,0.136,-0.043,0.089,0.247,0.065,-0.001,-0.037
0.067,0.198,0.131,-0.133,-0.032,0.164,-0.069,0.091,0.314,0.119,0.058,0.01
0.095,0.243,0.148,-0.169,-0.027,0.195,-0.105,0.09,0.353,0.177,0.103,0.059
0.097,0.277,0.181,-0.187,-0.042,0.229,-0.122,0.09,0.355,0.219,0.138,0.074
0.114,0.314,0.2,-0.214,-0.043,0.257,-0.13,0.09,0.346,0.222,0.156,0.103
0.123,0.307,0.184,-0.215,-0.03,0.245,-0.128,0.089,0.328,0.208,0.158,0.121
0.093,0.267,0.174,-0.181,-0.041,0.22,-0.117,0.075,0.266,0.167,0.135,0.089
0.052,0.234,0.182,-0.143,-0.065,0.207,-0.087,0.057,0.172,0.078,0.07,0.03
0.019,0.181,0.162,-0.101,-0.071,0.171,-0.044,0.046,0.078,-0.01,0.011,-0.022
-0.013,0.116,0.13,-0.052,-0.072,0.123,-0.01,0.039,-0.001,-0.078,-0.037,-0.056
-0.058,0.07,0.128,-0.007,-0.093,0.099,0.004,0.034,-0.056,-0.141,-0.086,-0.098
-0.065,0.058,0.123,0.003,-0.094,0.09,0.011,0.029,-0.097,-0.172,-0.102,-0.113
-0.056,0.056,0.112,0.0,-0.085,0.084,0.029,0.025,-0.11,-0.174,-0.099,-0.11
-0.047,0.052,0.099,-0.003,-0.073,0.075,0.041,0.02,-0.118,-0.175,-0.1,-0.109
-0.045,0.049,0.094,-0.002,-0.069,0.071,0.04,0.016,-0.13,-0.175,-0.099,-0.104
-0.039,0.044,0.083,-0.002,-0.062,0.063,0.04,0.011,-0.123,-0.175,-0.1,-0.104
-0.031,0.059,0.09,-0.014,-0.061,0.074,0.04,0.01,-0.119,-0.175,-0.099,-0.097
-0.051,0.067,0.118,-0.008,-0.085,0.092,0.04,0.009,-0.113,-0.175,-0.102,-0.108
-0.049,0.064,0.112,-0.008,-0.081,0.088,0.041,0.006,-0.107,-0.175,-0.107,-0.121
-0.041,0.069,0.111,-0.014,-0.076,0.09,0.044,0.004,-0.103,-0.175,-0.104,-0.115
-0.038,0.07,0.107,-0.016,-0.072,0.088,0.045,0.007,-0.099,-0.174,-0.101,-0.111
-0.034,0.07,0.105,-0.019,-0.07,0.087,0.046,0.01,-0.101,-0.169,-0.098,-0.106
-0.04,0.064,0.103,-0.012,-0.072,0.083,0.051,0.012,-0.1,-0.166,-0.096,-0.102
-0.035,0.062,0.096,-0.014,-0.065,0.079,0.05,0.016,-0.1,-0.163,-0.094,-0.097
-0.041,0.054,0.095,-0.007,-0.068,0.074,0.048,0.018,-0.1,-0.159,-0.086,-0.089
-0.024,0.064,0.088,-0.02,-0.056,0.076,0.045,0.021,-0.094,-0.155,-0.075,-0.083
-0.014,0.103,0.117,-0.044,-0.066,0.11,0.044,0.014,-0.088,-0.152,-0.065,-0.075
-0.018,0.133,0.151,-0.058,-0.085,0.142,0.047,0.008,-0.08,-0.144,-0.055,-0.071
-0.008,0.162,0.17,-0.078,-0.089,0.166,0.014,-0.003,-0.074,-0.139,-0.044,-0.063
-0.006,0.166,0.172,-0.081,-0.089,0.169,-0.014,-0.027,-0.068,-0.134,-0.036,-0.061
0.027,0.165,0.137,-0.096,-0.055,0.151,-0.005,-0.023,-0.061,-0.125,-0.022,-0.059
0.013,0.142,0.128,-0.078,-0.058,0.135,0.024,-0.004,-0.069,-0.138,-0.038,-0.06
-0.047,0.076,0.123,-0.014,-0.085,0.099,0.051,0.002,-0.105,-0.163,-0.091,-0.089
-0.09,0.015,0.105,0.037,-0.098,0.06,0.064,0.007,-0.143,-0.205,-0.125,-0.118
-0.102,-0.009,0.092,0.055,-0.097,0.041,0.07,0.003,-0.143,-0.21,-0.115,-0.134
-0.104,-0.029,0.075,0.066,-0.089,0.023,0.077,0.012,-0.147,-0.22,-0.127,-0.143
-0.11,-0.029,0.081,0.069,-0.095,0.026,0.084,0.009,-0.134,-0.21,-0.133,-0.144
-0.093,-0.032,0.06,0.062,-0.076,0.014,0.082,0.009,-0.143,-0.217,-0.135,-0.145
-0.097,-0.029,0.068,0.063,-0.082,0.019,0.095,0.015,-0.126,-0.218,-0.139,-0.151
-0.077,-0.028,0.049,0.052,-0.063,0.01,0.079,-0.004,-0.153,-0.203,-0.125,-0.144
-0.09,-0.076,0.014,0.082,-0.051,-0.031,0.155,0.139,-0.024,-0.184,-0.163,-0.174
0.022,0.08,0.058,-0.051,-0.018,0.069,0.157,0.375,0.501,0.155,0.004,-0.098
0.293,0.552,0.259,-0.423,0.017,0.405,-0.34,0.059,0.399,0.507,0.506,0.39
0.292,0.721,0.429,-0.507,-0.069,0.575,-0.781,-0.591,-0.397,0.731,0.907,0.746
0.027,0.051,0.024,-0.039,0.002,0.037,-0.52,-0.463,-0.958,0.12,0.339,0.258
-0.148,-0.378,-0.23,0.264,0.041,-0.303,-0.126,-0.112,-0.88,-0.67,-0.369,-0.236
-0.13,-0.149,-0.019,0.14,-0.055,-0.084,-0.012,-0.112,-0.379,-0.373,-0.223,-0.188
-0.122,-0.078,0.044,0.1,-0.082,-0.017,0.08,-0.014,-0.167,-0.219,-0.138,-0.148
-0.129,-0.065,0.064,0.097,-0.096,0.0,0.106,0.009,-0.131,-0.227,-0.148,-0.142
-0.108,-0.053,0.055,0.08,-0.081,0.001,0.095,0.017,-0.092,-0.174,-0.113,-0.137
-0.107,-0.057,0.051,0.082,-0.079,-0.003,0.104,0.033,-0.094,-0.208,-0.131,-0.142
-0.093,-0.041,0.052,0.067,-0.072,0.005,0.094,0.019,-0.073,-0.168,-0.103,-0.138
-0.086,-0.046,0.04,0.066,-0.063,-0.004,0.093,0.03,-0.073,-0.186,-0.112,-0.136
-0.092,-0.035,0.057,0.063,-0.075,0.01,0.085,0.017,-0.059,-0.161,-0.096,-0.104
-0.097,-0.039,0.058,0.068,-0.077,0.009,0.083,0.022,-0.049,-0.161,-0.096,-0.12
-0.089,-0.031,0.057,0.059,-0.072,0.013,0.077,0.02,-0.025,-0.151,-0.088,-0.122
-0.083,-0.031,0.051,0.057,-0.067,0.01,0.074,0.028,0.011,-0.137,-0.082,-0.11
-0.078,-0.028,0.049,0.053,-0.063,0.01,0.068,0.035,0.03,-0.12,-0.079,-0.108
-0.058,-0.014,0.044,0.035,-0.051,0.015,0.061,0.04,0.05,-0.088,-0.067,-0.091
-0.042,0.007,0.048,0.017,-0.045,0.027,0.054,0.048,0.092,-0.061,-0.049,-0.074
-0.03,0.032,0.063,-0.001,-0.047,0.047,0.048,0.056,0.143,-0.018,-0.014,-0.057
-0.014,0.052,0.066,-0.02,-0.04,0.058,0.038,0.077,0.207,0.028,0.021,-0.032
0.01,0.095,0.084,-0.053,-0.037,0.089,0.027,0.088,0.274,0.09,0.06,0.01
0.049,0.151,0.102,-0.1,-0.027,0.126,0.013,0.081,0.351,0.165,0.115,0.056
0.067,0.194,0.127,-0.131,-0.03,0.16,-0.026,0.074,0.393,0.224,0.168,0.093
0.072,0.226,0.155,-0.15,-0.042,0.19,-0.062,0.068,0.39,0.249,0.194,0.128
0.091,0.25,0.159,-0.171,-0.034,0.205,-0.075,0.06,0.384,0.244,0.215,0.148
0.08,0.251,0.171,-0.166,-0.046,0.211,-0.071,0.055,0.347,0.232,0.217,0.157
0.053,0.216,0.163,-0.135,-0.055,0.189,-0.065,0.047,0.289,0.191,0.2,0.138
0.028,0.171,0.143,-0.1,-0.058,0.157,-0.042,0.038,0.206,0.116,0.162,0.093
-0.007,0.112,0.119,-0.053,-0.064,0.115,-0.003,0.03,0.107,0.04,0.09,0.05
-0.027,0.053,0.08,-0.014,-0.054,0.066,0.033,0.02,0.026,-0.034,0.04,0.011
-0.045,0.019,0.064,0.013,-0.054,0.041,0.057,0.012,-0.028,-0.093,0.012,-0.013
-0.063,-0.002,0.061,0.033,-0.062,0.029,0.056,0.008,-0.057,-0.113,-0.007,-0.023
-0.072,-0.016,0.056,0.044,-0.063,0.02,0.055,0.002,-0.09,-0.129,-0.017,-0.041
-0.087,-0.036,0.052,0.061,-0.069,0.008,0.055,-0.001,-0.108,-0.139,-0.028,-0.06
-0.088,-0.041,0.047,0.065,-0.068,0.003,0.054,-0.006,-0.111,-0.134,-0.037,-0.055
-0.081,-0.036,0.045,0.058,-0.062,0.004,0.056,-0.01,-0.115,-0.136,-0.034,-0.047
-0.079,-0.034,0.045,0.056,-0.062,0.006,0.052,-0.01,-0.11,-0.131,-0.025,-0.042
-0.071,-0.03,0.041,0.05,-0.056,0.005,0.05,-0.01,-0.106,-0.13,-0.02,-0.033
-0.065,-0.025,0.04,0.045,-0.052,0.007,0.05,-0.01,-0.104,-0.13,-0.012,-0.031
-0.066,-0.027,0.04,0.047,-0.053,0.006,0.05,-0.01,-0.099,-0.125,-0.01,-0.035
-0.07,-0.035,0.035,0.052,-0.052,0.0,0.05,-0.011,-0.096,-0.125,-0.01,-0.035
-0.069,-0.039,0.03,0.054,-0.049,-0.004,0.049,-0.007,-0.093,-0.126,-0.01,-0.035
-0.07,-0.045,0.024,0.057,-0.047,-0.01,0.046,-0.005,-0.086,-0.125,-0.011,-0.047
-0.064,-0.041,0.023,0.052,-0.043,-0.009,0.044,-0.004,-0.079,-0.126,-0.01,-0.052
-0.043,-0.03,0.013,0.036,-0.028,-0.008,0.046,-0.002,-0.073,-0.121,-0.001,-0.049
-0.017,0.008,0.024,0.004,-0.021,0.016,0.044,0.001,-0.065,-0.104,0.015,-0.051
0.002,0.051,0.049,-0.026,-0.024,0.05,0.046,-0.002,-0.06,-0.09,0.024,-0.028
-0.015,0.063,0.078,-0.024,-0.047,0.07,0.038,-0.003,-0.055,-0.077,0.049,0.003
-0.002,0.092,0.094,-0.046,-0.048,0.093,0.001,-0.011,-0.056,-0.076,0.072,0.015
0.004,0.099,0.095,-0.052,-0.046,0.097,-0.003,-0.045,-0.051,-0.074,0.068,0.028
0.002,0.08,0.078,-0.041,-0.038,0.078,0.013,-0.032,-0.048,-0.076,0.072,0.02
0.027,0.064,0.036,-0.046,-0.005,0.05,0.022,-0.001,-0.06,-0.073,0.059,0.004
-0.007,0.019,0.026,-0.006,-0.016,0.022,0.055,-0.007,-0.087,-0.094,0.021,-0.009
-0.036,-0.032,0.004,0.034,-0.019,-0.014,0.077,-0.007,-0.129,-0.148,-0.017,-0.047
-0.042,-0.049,-0.007,0.046,-0.017,-0.027,0.074,-0.012,-0.138,-0.139,-0.023,-0.048
-0.052,-0.053,-0.001,0.053,-0.026,-0.027,0.075,-0.013,-0.145,-0.152,-0.029,-0.061
-0.051,-0.044,0.006,0.047,-0.028,-0.019,0.076,-0.016,-0.132,-0.143,-0.022,-0.083
-0.054,-0.05,0.005,0.052,-0.029,-0.022,0.073,-0.009,-0.142,-0.156,-0.027,-0.077
-0.05,-0.04,0.01,0.045,-0.029,-0.015,0.079,-0.009,-0.126,-0.146,-0.026,-0.085
-0.017,-0.051,-0.034,0.034,0.009,-0.042,0.073,-0.017,-0.148,-0.139,-0.02,-0.069
-0.016,-0.083,-0.067,0.05,0.026,-0.075,0.169,0.158,0.041,-0.104,-0.055,-0.123
0.125,0.111,-0.014,-0.118,0.069,0.048,0.116,0.404,0.608,0.281,0.161,0.001
0.408,0.611,0.203,-0.51,0.102,0.407,-0.458,-0.009,0.459,0.682,0.727,0.566
0.379,0.708,0.329,-0.544,0.025,0.519,-0.847,-0.642,-0.344,0.9,1.069,0.859
0.096,-0.045,-0.14,-0.025,0.118,-0.093,-0.508,-0.418,-0.889,0.184,0.386,0.279
-0.068,-0.391,-0.323,0.23,0.128,-0.357,-0.12,-0.131,-0.787,-0.549,-0.255,-0.188
-0.048,-0.138,-0.09,0.093,0.021,-0.114,0.014,-0.122,-0.292,-0.222,-0.083,-0.095
-0.003,-0.087,-0.084,0.045,0.04,-0.085,0.099,0.001,-0.118,-0.127,-0.031,-0.086
-0.005,-0.063,-0.057,0.034,0.026,-0.06,0.107,0.015,-0.087,-0.13,-0.022,-0.086
-0.012,-0.064,-0.051,0.038,0.02,-0.057,0.101,0.021,-0.066,-0.091,-0.006,-0.074
-0.017,-0.068,-0.052,0.043,0.018,-0.06,0.101,0.018,-0.066,-0.122,-0.024,-0.078
-0.014,-0.061,-0.047,0.037,0.017,-0.053,0.095,0.011,-0.044,-0.088,-0.001,-0.066
-0.016,-0.069,-0.053,0.043,0.019,-0.061,0.096,0.014,-0.044,-0.108,-0.017,-0.084
-0.013,-0.06,-0.047,0.037,0.017,-0.053,0.091,0.007,-0.027,-0.087,-0.003,-0.074
-0.01,-0.061,-0.051,0.036,0.021,-0.056,0.088,0.019,-0.022,-0.093,-0.005,-0.072
-0.011,-0.053,-0.042,0.032,0.016,-0.047,0.084,0.019,-0.007,-0.082,0.002,-0.065
-0.011,-0.05,-0.04,0.031,0.015,-0.045,0.081,0.029,0.014,-0.073,0.007,-0.057
-0.012,-0.046,-0.034,0.03,0.011,-0.04,0.076,0.032,0.03,-0.051,0.008,-0.05
-0.006,-0.037,-0.031,0.022,0.013,-0.034,0.073,0.038,0.061,-0.015,0.03,-0.039
0.004,-0.02,-0.024,0.009,0.014,-0.022,0.063,0.055,0.115,0.013,0.05,-0.033
0.03,-0.003,-0.033,-0.013,0.032,-0.018,0.051,0.065,0.164,0.058,0.073,-0.021
0.046,0.019,-0.027,-0.033,0.036,-0.004,0.04,0.084,0.225,0.105,0.115,0.001
0.055,0.062,0.006,-0.058,0.024,0.034,0.027,0.109,0.298,0.166,0.147,0.053
0.1,0.112,0.012,-0.106,0.044,0.062,0.007,0.113,0.36,0.233,0.193,0.1
0.11,0.15,0.04,-0.13,0.034,0.095,-0.023,0.103,0.405,0.283,0.251,0.128
0.12,0.189,0.069,-0.155,0.025,0.129,-0.047,0.095,0.403,0.306,0.284,0.165
0.129,0.205,0.075,-0.167,0.027,0.14,-0.063,0.086,0.386,0.3,0.298,0.182
0.096,0.195,0.099,-0.146,-0.001,0.147,-0.068,0.076,0.369,0.291,0.286,0.187
0.094,0.181,0.086,-0.138,0.004,0.133,-0.057,0.064,0.295,0.25,0.268,0.164
0.097,0.136,0.039,-0.117,0.029,0.088,-0.037,0.041,0.2,0.169,0.233,0.11
0.052,0.078,0.027,-0.065,0.012,0.052,-0.004,0.018,0.105,0.086,0.172,0.063
0.007,0.02,0.013,-0.014,-0.004,0.017,0.024,0.004,0.022,0.015,0.118,0.03
-0.001,-0.019,-0.018,0.011,0.008,-0.019,0.047,-0.007,-0.028,-0.03,0.09,0.004
-0.017,-0.05,-0.032,0.034,0.008,-0.041,0.061,-0.023,-0.071,-0.063,0.08,-0.034
-0.017,-0.061,-0.044,0.04,0.014,-0.053,0.06,-0.038,-0.088,-0.076,0.076,-0.04
-0.006,-0.052,-0.047,0.03,0.021,-0.049,0.058,-0.04,-0.09,-0.071,0.073,-0.045
-0.007,-0.05,-0.043,0.029,0.018,-0.046,0.055,-0.04,-0.09,-0.07,0.07,-0.049
0.002,-0.045,-0.047,0.022,0.025,-0.046,0.055,-0.04,-0.085,-0.07,0.065,-0.039
0.002,-0.041,-0.043,0.02,0.022,-0.041,0.053,-0.04,-0.084,-0.07,0.065,-0.037
0.01,-0.036,-0.046,0.013,0.029,-0.041,0.049,-0.039,-0.08,-0.07,0.065,-0.029
0.03,-0.03,-0.059,0.0,0.045,-0.045,0.051,-0.036,-0.078,-0.071,0.065,-0.026
0.032,-0.025,-0.057,-0.003,0.045,-0.041,0.049,-0.033,-0.074,-0.075,0.065,-0.03
0.033,-0.02,-0.053,-0.006,0.043,-0.036,0.05,-0.03,-0.078,-0.075,0.065,-0.03
0.037,-0.013,-0.05,-0.012,0.044,-0.031,0.05,-0.028,-0.08,-0.078,0.074,-0.03
0.033,-0.012,-0.045,-0.01,0.039,-0.028,0.053,-0.024,-0.08,-0.081,0.074,-0.03
0.024,-0.023,-0.047,0.0,0.036,-0.035,0.057,-0.028,-0.08,-0.08,0.075,-0.031
0.035,-0.028,-0.063,-0.003,0.049,-0.045,0.052,-0.03,-0.079,-0.075,0.074,-0.027
0.054,-0.011,-0.065,-0.022,0.06,-0.037,0.051,-0.03,-0.082,-0.06,0.078,-0.011
0.058,0.023,-0.035,-0.04,0.046,-0.006,0.045,-0.031,-0.054,-0.053,0.117,0.001
0.058,0.061,0.003,-0.06,0.027,0.032,0.048,-0.029,-0.034,-0.054,0.145,0.024
0.069,0.09,0.02,-0.08,0.024,0.055,0.025,-0.049,-0.04,-0.055,0.16,0.042
0.094,0.095,0.001,-0.095,0.046,0.048,-0.021,-0.062,-0.036,-0.058,0.176,0.036
0.105,0.098,-0.008,-0.101,0.056,0.045,-0.017,-0.059,-0.026,-0.059,0.168,0.031
0.107,0.068,-0.038,-0.088,0.072,0.015,-0.001,-0.06,-0.047,-0.062,0.15,0.025
0.098,0.018,-0.08,-0.058,0.089,-0.031,0.019,-0.06,-0.088,-0.055,0.136,0.002
0.045,-0.039,-0.084,-0.003,0.065,-0.061,0.06,-0.06,-0.118,-0.094,0.097,-0.041
0.037,-0.072,-0.109,0.018,0.074,-0.09,0.072,-0.058,-0.133,-0.113,0.073,-0.045
0.056,-0.076,-0.132,0.011,0.095,-0.104,0.068,-0.054,-0.15,-0.118,0.068,-0.038
0.035,-0.083,-0.118,0.025,0.077,-0.101,0.074,-0.055,-0.144,-0.11,0.067,-0.033
0.03,-0.099,-0.129,0.035,0.08,-0.114,0.065,-0.057,-0.153,-0.107,0.064,-0.033
0.02,-0.094,-0.114,0.037,0.068,-0.104,0.078,-0.05,-0.137,-0.113,0.057,-0.072
0.031,-0.09,-0.121,0.03,0.076,-0.105,0.061,-0.067,-0.144,-0.089,0.066,-0.056
0.02,-0.124,-0.144,0.052,0.082,-0.133,0.121,0.057,-0.05,-0.1,0.028,-0.104
0.151,0.017,-0.134,-0.084,0.142,-0.058,0.138,0.36,0.487,0.216,0.15,-0.058
0.466,0.499,0.033,-0.483,0.217,0.266,-0.368,0.077,0.545,0.639,0.657,0.456
0.536,0.785,0.249,-0.66,0.143,0.517,-0.908,-0.649,-0.143,0.987,1.16,0.89
0.272,0.136,-0.136,-0.204,0.203,0.0,-0.708,-0.597,-0.799,0.491,0.654,0.457
0.031,-0.4,-0.431,0.185,0.231,-0.415,-0.24,-0.257,-0.894,-0.476,-0.152,-0.134
0.03,-0.188,-0.219,0.079,0.125,-0.203,-0.047,-0.194,-0.387,-0.3,-0.069,-0.13
0.067,-0.098,-0.165,0.016,0.116,-0.131,0.052,-0.063,-0.131,-0.082,0.061,-0.069
0.062,-0.08,-0.142,0.009,0.102,-0.111,0.077,-0.035,-0.099,-0.13,0.03,-0.073
0.068,-0.062,-0.131,-0.002,0.099,-0.096,0.065,-0.033,-0.062,-0.071,0.057,-0.058
0.055,-0.077,-0.132,0.011,0.094,-0.105,0.074,-0.026,-0.08,-0.114,0.031,-0.071
0.055,-0.06,-0.116,0.003,0.086,-0.087,0.067,-0.032,-0.063,-0.08,0.047,-0.061
0.051,-0.07,-0.12,0.01,0.086,-0.095,0.072,-0.02,-0.07,-0.096,0.035,-0.068
0.06,-0.062,-0.122,0.001,0.091,-0.091,0.066,-0.029,-0.063,-0.088,0.037,-0.061
0.069,-0.06,-0.129,-0.004,0.099,-0.094,0.064,-0.018,-0.06,-0.078,0.041,-0.059
0.077,-0.046,-0.123,-0.015,0.1,-0.085,0.061,-0.013,-0.037,-0.055,0.042,-0.054
0.086,-0.037,-0.123,-0.024,0.105,-0.08,0.057,-0.003,-0.013,-0.035,0.057,-0.052
0.095,-0.025,-0.12,-0.035,0.108,-0.072,0.056,0.004,0.01,-0.036,0.072,-0.046
0.106,-0.012,-0.119,-0.047,0.113,-0.065,0.053,0.011,0.049,-0.005,0.082,-0.046
0.112,0.009,-0.104,-0.06,0.108,-0.047,0.046,0.026,0.084,0.022,0.097,-0.036
0.128,0.039,-0.089,-0.083,0.108,-0.025,0.038,0.048,0.133,0.059,0.132,-0.03
0.159,0.068,-0.091,-0.114,0.125,-0.011,0.029,0.071,0.203,0.115,0.16,-0.006
0.198,0.111,-0.087,-0.154,0.142,0.012,0.024,0.093,0.27,0.168,0.194,0.053
0.21,0.149,-0.061,-0.179,0.135,0.044,0.005,0.11,0.33,0.223,0.248,0.067
0.234,0.204,-0.03,-0.219,0.132,0.086,-0.03,0.105,0.374,0.273,0.293,0.115
0.279,0.259,-0.02,-0.268,0.149,0.119,-0.059,0.097,0.378,0.302,0.333,0.17
0.272,0.269,-0.002,-0.271,0.137,0.133,-0.068,0.092,0.374,0.318,0.361,0.186
0.24,0.265,0.025,-0.253,0.108,0.145,-0.058,0.082,0.344,0.31,0.364,0.204
0.232,0.253,0.021,-0.243,0.105,0.137,-0.051,0.062,0.279,0.266,0.337,0.179
0.215,0.205,-0.01,-0.21,0.112,0.098,-0.033,0.03,0.198,0.199,0.294,0.129
0.172,0.139,-0.034,-0.155,0.103,0.052,-0.004,-0.001,0.101,0.121,0.237,0.084
0.133,0.088,-0.045,-0.111,0.089,0.021,0.021,-0.013,0.026,0.058,0.177,0.047
0.122,0.057,-0.065,-0.089,0.093,-0.003,0.042,-0.022,-0.031,0.016,0.145,0.004
0.127,0.04,-0.087,-0.083,0.107,-0.024,0.053,-0.037,-0.067,-0.022,0.129,-0.016
0.121,0.03,-0.091,-0.076,0.106,-0.031,0.058,-0.05,-0.08,-0.047,0.119,-0.009
0.108,0.021,-0.087,-0.064,0.097,-0.033,0.054,-0.056,-0.089,-0.051,0.107,-0.011
0.109,0.012,-0.097,-0.06,0.103,-0.042,0.052,-0.055,-0.09,-0.049,0.1,-0.008
0.11,0.004,-0.106,-0.056,0.107,-0.051,0.049,-0.055,-0.095,-0.05,0.1,-0.021
0.086,-0.012,-0.098,-0.037,0.092,-0.055,0.046,-0.052,-0.094,-0.05,0.098,-0.037
0.073,-0.022,-0.095,-0.025,0.084,-0.058,0.044,-0.047,-0.09,-0.049,0.095,-0.033
0.077,-0.014,-0.09,-0.031,0.083,-0.051,0.04,-0.044,-0.09,-0.045,0.094,-0.03
0.077,-0.008,-0.085,-0.034,0.081,-0.046,0.04,-0.041,-0.09,-0.043,0.098,-0.028
0.088,-0.001,-0.089,-0.044,0.089,-0.045,0.039,-0.035,-0.09,-0.04,0.1,-0.024
0.096,0.006,-0.09,-0.051,0.092,-0.042,0.035,-0.038,-0.09,-0.037,0.1,-0.025
0.107,0.014,-0.092,-0.06,0.099,-0.039,0.035,-0.05,-0.094,-0.034,0.103,-0.025
0.122,0.026,-0.096,-0.073,0.109,-0.035,0.033,-0.05,-0.101,-0.042,0.105,-0.023
0.119,0.026,-0.093,-0.072,0.106,-0.033,0.029,-0.05,-0.107,-0.059,0.105,-0.047
0.114,0.025,-0.089,-0.069,0.101,-0.032,0.03,-0.051,-0.11,-0.063,0.105,-0.061
0.102,0.019,-0.083,-0.061,0.093,-0.032,0.027,-0.049,-0.112,-0.056,0.105,-0.05
0.1,0.02,-0.08,-0.06,0.09,-0.03,0.024,-0.05,-0.116,-0.049,0.104,-0.046
0.087,0.013,-0.074,-0.05,0.08,-0.03,0.026,-0.042,-0.11,-0.043,0.106,-0.036
0.091,0.019,-0.072,-0.055,0.081,-0.026,0.023,-0.041,-0.105,-0.035,0.104,-0.026
0.116,0.057,-0.058,-0.086,0.087,-0.001,0.032,-0.033,-0.1,-0.029,0.109,-0.02
0.131,0.098,-0.034,-0.114,0.082,0.032,0.018,-0.047,-0.092,-0.019,0.123,0.007
0.18,0.144,-0.036,-0.162,0.108,0.054,-0.026,-0.09,-0.093,-0.016,0.132,0.015
0.184,0.152,-0.033,-0.167,0.108,0.059,-0.026,-0.079,-0.092,-0.004,0.146,0.013
0.182,0.135,-0.047,-0.158,0.115,0.044,-0.016,-0.058,-0.1,0.009,0.134,0.028
0.156,0.09,-0.066,-0.123,0.111,0.012,-0.007,-0.061,-0.097,-0.003,0.109,-0.007
0.099,0.024,-0.075,-0.061,0.086,-0.025,0.03,-0.06,-0.11,-0.046,0.084,-0.041
0.093,-0.006,-0.098,-0.043,0.095,-0.052,0.054,-0.059,-0.131,-0.079,0.067,-0.054
0.074,-0.028,-0.101,-0.023,0.088,-0.064,0.047,-0.062,-0.135,-0.076,0.065,-0.066
0.075,-0.028,-0.103,-0.023,0.089,-0.065,0.052,-0.056,-0.137,-0.088,0.052,-0.065
0.08,-0.04,-0.12,-0.02,0.1,-0.079,0.049,-0.058,-0.123,-0.068,0.055,-0.067
0.074,-0.058,-0.132,-0.007,0.103,-0.095,0.05,-0.056,-0.14,-0.095,0.036,-0.074
0.079,-0.036,-0.115,-0.021,0.098,-0.075,0.053,-0.064,-0.107,-0.063,0.044,-0.059
0.079,-0.059,-0.138,-0.009,0.109,-0.099,0.062,-0.054,-0.147,-0.092,0.009,-0.089
0.099,-0.042,-0.141,-0.028,0.12,-0.091,0.17,0.218,0.187,0.036,0.025,-0.14
0.336,0.264,-0.072,-0.3,0.204,0.096,-0.056,0.305,0.633,0.451,0.355,0.119
0.614,0.783,0.169,-0.699,0.222,0.476,-0.714,-0.368,0.232,0.841,0.941,0.72
0.46,0.579,0.119,-0.52,0.17,0.349,-0.896,-0.799,-0.498,0.899,1.01,0.768
0.131,-0.227,-0.358,0.048,0.244,-0.292,-0.469,-0.461,-0.953,-0.068,0.146,0.052
0.023,-0.297,-0.321,0.137,0.172,-0.309,-0.131,-0.24,-0.669,-0.482,-0.203,-0.218
0.058,-0.08,-0.137,0.011,0.098,-0.108,-0.002,-0.147,-0.212,-0.092,0.021,-0.099
0.077,-0.082,-0.159,0.003,0.118,-0.12,0.05,-0.043,-0.157,-0.129,0.002,-0.12
0.08,-0.043,-0.122,-0.018,0.101,-0.082,0.06,-0.04,-0.092,-0.092,0.028,-0.095
0.086,-0.05,-0.135,-0.018,0.111,-0.092,0.068,-0.023,-0.082,-0.094,0.018,-0.096
0.089,-0.033,-0.121,-0.028,0.105,-0.077,0.061,-0.029,-0.071,-0.093,0.018,-0.088
0.093,-0.028,-0.121,-0.032,0.108,-0.075,0.06,-0.022,-0.062,-0.072,0.024,-0.078
0.092,-0.023,-0.115,-0.034,0.104,-0.069,0.057,-0.02,-0.061,-0.081,0.015,-0.079
0.103,-0.018,-0.121,-0.042,0.112,-0.069,0.054,-0.02,-0.047,-0.056,0.027,-0.094
0.115,-0.015,-0.129,-0.05,0.123,-0.072,0.053,-0.011,-0.036,-0.062,0.025,-0.103
0.107,-0.01,-0.116,-0.048,0.111,-0.063,0.048,-0.009,-0.004,-0.044,0.033,-0.088
0.091,-0.023,-0.114,-0.034,0.103,-0.069,0.047,0.001,0.008,-0.03,0.032,-0.085
0.095,-0.009,-0.104,-0.043,0.1,-0.057,0.043,0.002,0.03,-0.009,0.056,-0.072
0.121,0.021,-0.1,-0.07,0.11,-0.039,0.041,0.014,0.058,0.002,0.075,-0.062
0.13,0.037,-0.094,-0.083,0.112,-0.028,0.039,0.031,0.105,0.041,0.09,-0.049
0.135,0.049,-0.086,-0.092,0.11,-0.018,0.031,0.052,0.161,0.084,0.112,-0.034
0.158,0.079,-0.079,-0.118,0.118,0.0,0.014,0.076,0.219,0.124,0.132,-0.005
0.177,0.116,-0.061,-0.146,0.119,0.027,-0.014,0.096,0.287,0.188,0.176,0.025
0.197,0.168,-0.029,-0.183,0.112,0.069,-0.036,0.111,0.352,0.25,0.234,0.061
0.226,0.219,-0.007,-0.222,0.116,0.105,-0.063,0.103,0.378,0.294,0.276,0.108
0.253,0.269,0.016,-0.262,0.118,0.143,-0.093,0.092,0.377,0.314,0.314,0.137
0.241,0.284,0.043,-0.263,0.099,0.163,-0.093,0.083,0.367,0.316,0.334,0.152
0.219,0.263,0.044,-0.241,0.087,0.153,-0.085,0.073,0.33,0.304,0.329,0.152
0.204,0.252,0.047,-0.229,0.078,0.149,-0.074,0.059,0.265,0.266,0.304,0.146
0.169,0.196,0.027,-0.183,0.071,0.111,-0.048,0.034,0.172,0.195,0.254,0.099
0.145,0.131,-0.014,-0.138,0.079,0.058,-0.022,0.005,0.085,0.118,0.201,0.036
0.114,0.082,-0.032,-0.098,0.073,0.025,-0.004,-0.028,0.014,0.059,0.156,-0.006
0.091,0.039,-0.052,-0.065,0.071,-0.007,0.004,-0.036,-0.03,0.014,0.12,-0.051
0.09,0.029,-0.061,-0.059,0.075,-0.016,0.009,-0.041,-0.063,-0.014,0.103,-0.062
0.086,0.021,-0.065,-0.053,0.075,-0.022,0.016,-0.056,-0.086,-0.025,0.098,-0.058
0.076,0.013,-0.063,-0.044,0.07,-0.025,0.019,-0.06,-0.087,-0.028,0.091,-0.055
0.078,0.006,-0.072,-0.042,0.075,-0.033,0.016,-0.059,-0.097,-0.033,0.084,-0.053
0.091,0.0,-0.091,-0.045,0.091,-0.046,0.015,-0.065,-0.099,-0.035,0.078,-0.048
0.085,0.0,-0.084,-0.042,0.085,-0.042,0.015,-0.076,-0.094,-0.035,0.072,-0.054
0.082,0.002,-0.08,-0.042,0.081,-0.039,0.015,-0.07,-0.091,-0.039,0.068,-0.056
0.086,0.009,-0.077,-0.047,0.081,-0.033,0.015,-0.065,-0.087,-0.04,0.065,-0.044
0.084,0.014,-0.071,-0.049,0.077,-0.028,0.013,-0.062,-0.084,-0.04,0.062,-0.065
0.091,0.021,-0.07,-0.056,0.08,-0.025,0.008,-0.055,-0.079,-0.045,0.057,-0.072
0.094,0.024,-0.07,-0.059,0.082,-0.022,0.005,-0.057,-0.085,-0.045,0.054,-0.069
0.089,0.02,-0.07,-0.054,0.079,-0.025,0.002,-0.063,-0.096,-0.045,0.051,-0.067
0.105,0.034,-0.07,-0.069,0.087,-0.018,-0.003,-0.066,-0.101,-0.045,0.049,-0.065
0.108,0.038,-0.069,-0.073,0.088,-0.015,-0.005,-0.069,-0.106,-0.045,0.05,-0.065
0.098,0.027,-0.071,-0.062,0.084,-0.022,0.0,-0.073,-0.108,-0.047,0.049,-0.055
0.093,0.024,-0.069,-0.059,0.081,-0.022,0.0,-0.075,-0.118,-0.054,0.051,-0.072
0.086,0.014,-0.072,-0.05,0.079,-0.029,0.001,-0.075,-0.129,-0.062,0.047,-0.073
0.101,0.012,-0.089,-0.056,0.095,-0.039,0.006,-0.075,-0.13,-0.076,0.039,-0.085
0.093,0.008,-0.085,-0.05,0.089,-0.038,0.004,-0.075,-0.135,-0.085,0.032,-0.105
0.085,0.008,-0.077,-0.046,0.081,-0.035,0.008,-0.074,-0.133,-0.078,0.025,-0.095
0.074,0.003,-0.071,-0.038,0.072,-0.034,0.01,-0.075,-0.129,-0.07,0.017,-0.098
0.075,0.012,-0.063,-0.043,0.069,-0.026,0.01,-0.076,-0.122,-0.061,0.01,-0.083
0.11,0.052,-0.059,-0.081,0.084,-0.003,0.011,-0.084,-0.121,-0.054,0.037,-0.058
0.095,0.071,-0.024,-0.083,0.059,0.023,0.013,-0.084,-0.114,-0.047,0.061,-0.047
0.11,0.108,-0.002,-0.109,0.056,0.053,-0.012,-0.095,-0.111,-0.045,0.062,-0.041
0.121,0.133,0.012,-0.127,0.055,0.072,-0.066,-0.114,-0.118,-0.045,0.069,-0.043
0.118,0.128,0.01,-0.123,0.054,0.069,-0.068,-0.099,-0.09,-0.037,0.08,-0.045
0.141,0.11,-0.031,-0.125,0.086,0.04,-0.028,-0.087,-0.082,-0.045,0.077,-0.05
0.102,0.052,-0.051,-0.077,0.076,0.0,-0.007,-0.092,-0.102,-0.059,0.047,-0.049
0.054,-0.008,-0.062,-0.023,0.058,-0.035,0.005,-0.087,-0.143,-0.108,0.017,-0.09
0.036,-0.045,-0.081,0.005,0.058,-0.063,0.008,-0.084,-0.158,-0.127,0.013,-0.128
0.054,-0.054,-0.109,0.0,0.082,-0.081,0.008,-0.086,-0.165,-0.133,0.0,-0.122
0.063,-0.046,-0.109,-0.009,0.086,-0.077,0.016,-0.082,-0.152,-0.124,-0.007,-0.123
0.062,-0.053,-0.115,-0.004,0.089,-0.084,0.011,-0.089,-0.161,-0.121,-0.015,-0.116
0.068,-0.049,-0.117,-0.01,0.093,-0.082,0.021,-0.078,-0.15,-0.128,-0.032,-0.119
0.067,-0.048,-0.115,-0.01,0.092,-0.082,0.005,-0.099,-0.157,-0.103,-0.03,-0.108
0.059,-0.079,-0.138,0.01,0.098,-0.108,0.059,0.013,-0.106,-0.127,-0.071,-0.144
0.139,0.032,-0.106,-0.085,0.122,-0.037,0.11,0.325,0.404,0.172,0.046,-0.114
0.445,0.475,0.031,-0.46,0.207,0.252,-0.347,0.06,0.5,0.556,0.507,0.337
0.572,0.797,0.225,-0.685,0.173,0.51,-0.917,-0.685,-0.096,0.911,1.016,0.83
0.288,0.199,-0.089,-0.243,0.189,0.055,-0.785,-0.752,-0.748,0.529,0.611,0.448
0.05,-0.368,-0.418,0.16,0.235,-0.393,-0.32,-0.394,-0.942,-0.451,-0.199,-0.19
0.007,-0.183,-0.191,0.088,0.099,-0.187,-0.096,-0.236,-0.442,-0.338,-0.162,-0.194
0.028,-0.081,-0.109,0.027,0.069,-0.095,-0.017,-0.106,-0.166,-0.103,-0.033,-0.136
0.06,-0.062,-0.122,0.001,0.091,-0.092,0.017,-0.061,-0.137,-0.147,-0.054,-0.147
0.058,-0.042,-0.1,-0.008,0.079,-0.071,0.034,-0.056,-0.087,-0.084,-0.02,-0.133
0.052,-0.057,-0.109,0.003,0.081,-0.083,0.043,-0.045,-0.101,-0.129,-0.046,-0.152
0.051,-0.04,-0.092,-0.005,0.072,-0.066,0.038,-0.054,-0.076,-0.098,-0.027,-0.134
0.046,-0.049,-0.096,0.002,0.071,-0.072,0.041,-0.042,-0.078,-0.125,-0.04,-0.14
0.041,-0.042,-0.083,0.001,0.063,-0.062,0.039,-0.047,-0.061,-0.114,-0.032,-0.13
0.045,-0.038,-0.083,-0.003,0.064,-0.06,0.04,-0.043,-0.051,-0.104,-0.026,-0.13
0.051,-0.022,-0.073,-0.014,0.063,-0.047,0.035,-0.033,-0.034,-0.095,-0.019,-0.119
0.06,-0.012,-0.072,-0.024,0.066,-0.042,0.029,-0.021,-0.011,-0.075,-0.009,-0.097
0.091,0.007,-0.084,-0.049,0.088,-0.038,0.026,-0.006,0.018,-0.066,-0.004,-0.092
0.097,0.017,-0.08,-0.057,0.088,-0.031,0.021,0.009,0.041,-0.037,0.008,-0.083
0.107,0.033,-0.074,-0.07,0.091,-0.021,0.017,0.026,0.076,-0.005,0.027,-0.078
0.131,0.06,-0.071,-0.095,0.1,-0.005,0.011,0.037,0.119,0.024,0.046,-0.072
0.134,0.073,-0.062,-0.103,0.098,0.005,-0.004,0.053,0.164,0.066,0.067,-0.039
0.177,0.118,-0.06,-0.147,0.118,0.029,-0.015,0.082,0.241,0.124,0.106,-0.016
0.176,0.158,-0.017,-0.167,0.096,0.07,-0.041,0.097,0.298,0.166,0.14,0.012
0.193,0.207,0.015,-0.2,0.089,0.111,-0.066,0.104,0.351,0.233,0.193,0.076
0.253,0.262,0.009,-0.258,0.122,0.136,-0.084,0.106,0.364,0.275,0.244,0.114
0.243,0.291,0.048,-0.267,0.097,0.169,-0.114,0.104,0.35,0.295,0.269,0.139
0.24,0.297,0.057,-0.269,0.091,0.177,-0.128,0.087,0.343,0.303,0.282,0.152
0.227,0.285,0.058,-0.257,0.084,0.171,-0.119,0.054,0.3,0.276,0.278,0.138
0.208,0.263,0.055,-0.236,0.076,0.159,-0.089,0.025,0.223,0.229,0.243,0.126
0.185,0.191,0.007,-0.188,0.089,0.099,-0.058,0.007,0.125,0.151,0.177,0.094
0.15,0.128,-0.022,-0.139,0.085,0.053,-0.038,-0.005,0.052,0.083,0.12,0.045
0.133,0.088,-0.046,-0.11,0.089,0.021,-0.024,-0.032,-0.018,0.033,0.076,-0.007
0.109,0.043,-0.066,-0.076,0.088,-0.012,-0.015,-0.056,-0.075,-0.019,0.056,-0.039
0.089,0.021,-0.068,-0.054,0.078,-0.023,-0.005,-0.061,-0.092,-0.042,0.046,-0.042
0.071,0.015,-0.057,-0.043,0.063,-0.02,-0.003,-0.065,-0.109,-0.047,0.035,-0.061
0.069,0.01,-0.059,-0.039,0.064,-0.024,-0.008,-0.073,-0.116,-0.054,0.031,-0.066
0.081,0.004,-0.077,-0.042,0.079,-0.036,-0.009,-0.073,-0.11,-0.055,0.024,-0.058
0.071,-0.002,-0.073,-0.034,0.072,-0.037,-0.005,-0.069,-0.11,-0.055,0.02,-0.058
0.057,-0.004,-0.061,-0.026,0.059,-0.032,-0.005,-0.067,-0.11,-0.055,0.012,-0.051
0.057,0.001,-0.056,-0.028,0.056,-0.027,-0.002,-0.064,-0.11,-0.055,0.014,-0.051
0.058,0.004,-0.054,-0.031,0.056,-0.025,0.0,-0.061,-0.11,-0.055,0.025,-0.054
0.067,0.007,-0.06,-0.037,0.064,-0.026,0.0,-0.059,-0.112,-0.057,0.02,-0.056
0.072,0.012,-0.061,-0.042,0.066,-0.024,0.003,-0.056,-0.116,-0.06,0.015,-0.054
0.069,0.015,-0.054,-0.041,0.061,-0.02,0.006,-0.055,-0.118,-0.06,0.009,-0.058
0.072,0.019,-0.053,-0.045,0.062,-0.017,0.009,-0.055,-0.121,-0.06,0.003,-0.06
0.06,0.025,-0.035,-0.042,0.047,-0.005,0.012,-0.055,-0.124,-0.06,-0.001,-0.062
0.076,0.031,-0.045,-0.053,0.061,-0.007,0.014,-0.055,-0.126,-0.06,-0.007,-0.065
0.096,0.034,-0.062,-0.065,0.079,-0.014,0.017,-0.057,-0.13,-0.067,-0.011,-0.066
0.079,0.029,-0.05,-0.054,0.064,-0.01,0.02,-0.061,-0.135,-0.076,-0.016,-0.071
0.084,0.026,-0.058,-0.054,0.071,-0.016,0.02,-0.059,-0.138,-0.073,-0.02,-0.07
0.074,0.023,-0.051,-0.048,0.062,-0.014,0.022,-0.064,-0.143,-0.085,-0.025,-0.07
0.061,0.018,-0.044,-0.039,0.053,-0.012,0.026,-0.065,-0.149,-0.097,-0.025,-0.069
0.054,0.016,-0.038,-0.034,0.045,-0.011,0.025,-0.065,-0.155,-0.094,-0.025,-0.072
0.045,0.011,-0.034,-0.027,0.039,-0.011,0.021,-0.069,-0.164,-0.094,-0.024,-0.066
0.042,0.01,-0.033,-0.026,0.038,-0.011,0.02,-0.071,-0.162,-0.106,-0.028,-0.079
0.033,0.005,-0.028,-0.019,0.03,-0.011,0.02,-0.076,-0.161,-0.118,-0.037,-0.1
0.061,0.003,-0.058,-0.032,0.059,-0.027,0.016,-0.072,-0.159,-0.113,-0.033,-0.087
0.07,0.0,-0.069,-0.035,0.069,-0.034,0.014,-0.07,-0.163,-0.118,-0.043,-0.085
0.049,0.0,-0.049,-0.024,0.049,-0.024,0.017,-0.069,-0.17,-0.129,-0.06,-0.084
0.063,0.038,-0.026,-0.05,0.045,0.006,0.023,-0.071,-0.156,-0.125,-0.05,-0.079
0.074,0.06,-0.015,-0.067,0.044,0.022,0.034,-0.068,-0.144,-0.117,-0.037,-0.081
0.077,0.085,0.008,-0.081,0.034,0.047,0.009,-0.073,-0.14,-0.109,-0.03,-0.062
0.074,0.118,0.044,-0.096,0.014,0.08,-0.036,-0.092,-0.132,-0.095,-0.03,-0.044
0.086,0.116,0.029,-0.101,0.028,0.072,-0.037,-0.08,-0.133,-0.092,-0.03,-0.035
0.1,0.105,0.006,-0.103,0.047,0.055,-0.023,-0.072,-0.143,-0.097,-0.029,-0.03
0.065,0.064,-0.001,-0.064,0.033,0.031,-0.016,-0.077,-0.144,-0.093,-0.037,-0.053
0.041,0.015,-0.026,-0.027,0.033,-0.006,0.011,-0.073,-0.169,-0.137,-0.074,-0.096
0.043,0.004,-0.039,-0.023,0.041,-0.017,0.029,-0.076,-0.182,-0.155,-0.094,-0.116
0.03,-0.022,-0.052,-0.003,0.041,-0.037,0.029,-0.075,-0.19,-0.163,-0.104,-0.122
0.002,-0.053,-0.055,0.026,0.029,-0.054,0.032,-0.072,-0.18,-0.158,-0.099,-0.134
-0.007,-0.064,-0.057,0.036,0.025,-0.06,0.027,-0.07,-0.189,-0.158,-0.094,-0.137
-0.017,-0.06,-0.043,0.039,0.013,-0.051,0.036,-0.057,-0.183,-0.168,-0.098,-0.146
-0.027,-0.065,-0.038,0.046,0.006,-0.051,0.028,-0.074,-0.178,-0.143,-0.078,-0.136
-0.016,-0.074,-0.058,0.045,0.022,-0.066,0.101,0.051,-0.078,-0.149,-0.132,-0.178
0.116,0.069,-0.047,-0.093,0.082,0.011,0.118,0.328,0.419,0.156,-0.02,-0.115
0.409,0.507,0.098,-0.458,0.155,0.303,-0.338,0.048,0.436,0.536,0.475,0.375
0.468,0.743,0.275,-0.606,0.096,0.509,-0.824,-0.649,-0.225,0.845,0.919,0.772
0.157,0.092,-0.065,-0.125,0.111,0.014,-0.629,-0.617,-0.82,0.374,0.416,0.323
-0.057,-0.387,-0.329,0.222,0.136,-0.358,-0.222,-0.269,-0.931,-0.545,-0.321,-0.244
-0.032,-0.152,-0.12,0.092,0.044,-0.136,-0.083,-0.207,-0.458,-0.376,-0.237,-0.209
-0.003,-0.069,-0.067,0.036,0.032,-0.068,0.022,-0.075,-0.193,-0.174,-0.133,-0.155
0.016,-0.045,-0.062,0.015,0.039,-0.053,0.058,-0.034,-0.157,-0.207,-0.144,-0.18
0.034,-0.022,-0.056,-0.006,0.045,-0.039,0.045,-0.044,-0.112,-0.145,-0.117,-0.162
0.035,-0.03,-0.065,-0.003,0.05,-0.047,0.053,-0.026,-0.118,-0.189,-0.14,-0.176
0.045,-0.01,-0.055,-0.018,0.05,-0.032,0.042,-0.031,-0.091,-0.155,-0.122,-0.166
0.041,-0.014,-0.056,-0.013,0.049,-0.035,0.047,-0.017,-0.092,-0.172,-0.135,-0.167
0.034,0.0,-0.034,-0.017,0.035,-0.017,0.042,-0.028,-0.077,-0.162,-0.123,-0.15
0.029,-0.001,-0.03,-0.014,0.03,-0.015,0.04,-0.022,-0.071,-0.16,-0.124,-0.14
0.031,0.008,-0.023,-0.019,0.027,-0.008,0.037,-0.018,-0.061,-0.152,-0.121,-0.134
0.037,0.014,-0.022,-0.025,0.029,-0.004,0.033,-0.012,-0.042,-0.137,-0.116,-0.128
0.029,0.01,-0.019,-0.02,0.024,-0.004,0.032,-0.006,-0.023,-0.126,-0.116,-0.125
0.033,0.018,-0.015,-0.025,0.024,0.002,0.028,-0.002,0.0,-0.101,-0.111,-0.119
0.05,0.034,-0.016,-0.042,0.032,0.009,0.024,0.005,0.028,-0.078,-0.107,-0.116
0.065,0.059,-0.007,-0.062,0.036,0.026,0.011,0.011,0.078,-0.041,-0.076,-0.104
0.089,0.089,0.0,-0.089,0.044,0.045,0.004,0.038,0.138,0.004,-0.035,-0.081
0.095,0.118,0.024,-0.107,0.035,0.071,-0.011,0.061,0.203,0.055,-0.001,-0.053
0.122,0.175,0.053,-0.149,0.035,0.114,-0.039,0.07,0.267,0.112,0.039,-0.015
0.174,0.222,0.047,-0.198,0.063,0.134,-0.059,0.069,0.316,0.177,0.082,0.049
0.201,0.261,0.06,-0.231,0.07,0.161,-0.09,0.06,0.34,0.213,0.122,0.093
0.206,0.303,0.097,-0.255,0.054,0.2,-0.111,0.055,0.345,0.211,0.144,0.101
0.198,0.298,0.101,-0.248,0.048,0.199,-0.119,0.047,0.315,0.199,0.138,0.113
0.188,0.287,0.099,-0.237,0.044,0.193,-0.119,0.042,0.275,0.18,0.128,0.099
0.154,0.253,0.099,-0.204,0.027,0.176,-0.086,0.033,0.21,0.129,0.09,0.051
0.127,0.192,0.065,-0.159,0.031,0.128,-0.051,0.016,0.112,0.052,0.038,0.006
0.095,0.13,0.035,-0.112,0.03,0.082,-0.024,0.0,0.041,-0.027,-0.007,-0.037
0.041,0.071,0.03,-0.057,0.005,0.05,-0.002,-0.015,-0.036,-0.102,-0.063,-0.067
0.026,0.048,0.022,-0.037,0.002,0.035,0.009,-0.028,-0.09,-0.135,-0.092,-0.09
0.028,0.044,0.016,-0.036,0.005,0.03,0.014,-0.04,-0.104,-0.151,-0.108,-0.105
0.03,0.039,0.008,-0.035,0.011,0.023,0.018,-0.043,-0.117,-0.169,-0.12,-0.106
0.027,0.033,0.006,-0.03,0.01,0.019,0.023,-0.04,-0.114,-0.17,-0.12,-0.096
0.014,0.027,0.013,-0.021,0.0,0.02,0.028,-0.04,-0.115,-0.173,-0.119,-0.109
0.022,0.027,0.005,-0.025,0.008,0.016,0.03,-0.04,-0.115,-0.176,-0.124,-0.123
0.028,0.031,0.003,-0.03,0.013,0.017,0.03,-0.04,-0.115,-0.179,-0.135,-0.115
0.018,0.029,0.011,-0.024,0.003,0.02,0.03,-0.04,-0.114,-0.18,-0.135,-0.127
0.016,0.03,0.015,-0.023,0.001,0.022,0.03,-0.04,-0.109,-0.175,-0.135,-0.132
0.014,0.037,0.023,-0.025,-0.005,0.029,0.03,-0.04,-0.111,-0.172,-0.135,-0.128
0.012,0.036,0.023,-0.024,-0.006,0.029,0.03,-0.04,-0.108,-0.168,-0.134,-0.127
0.015,0.034,0.02,-0.025,-0.003,0.027,0.026,-0.039,-0.104,-0.165,-0.137,-0.124
0.007,0.028,0.021,-0.017,-0.007,0.024,0.025,-0.041,-0.107,-0.16,-0.142,-0.124
0.023,0.041,0.017,-0.032,0.003,0.029,0.025,-0.038,-0.099,-0.162,-0.147,-0.12
0.017,0.051,0.034,-0.034,-0.009,0.042,0.025,-0.047,-0.102,-0.167,-0.15,-0.118
-0.002,0.05,0.052,-0.024,-0.027,0.051,0.025,-0.06,-0.116,-0.171,-0.157,-0.115
-0.003,0.05,0.053,-0.024,-0.028,0.051,0.026,-0.057,-0.11,-0.168,-0.157,-0.111
-0.007,0.048,0.056,-0.021,-0.032,0.052,0.031,-0.052,-0.104,-0.164,-0.148,-0.111
0.003,0.065,0.062,-0.034,-0.03,0.063,0.028,-0.052,-0.103,-0.161,-0.139,-0.105
0.012,0.075,0.063,-0.044,-0.026,0.069,0.033,-0.042,-0.095,-0.157,-0.132,-0.095
0.046,0.13,0.084,-0.088,-0.019,0.107,0.008,-0.056,-0.098,-0.153,-0.122,-0.084
0.054,0.17,0.116,-0.112,-0.032,0.143,-0.04,-0.102,-0.108,-0.151,-0.117,-0.075
0.065,0.165,0.1,-0.115,-0.018,0.132,-0.043,-0.087,-0.11,-0.146,-0.107,-0.066
0.069,0.152,0.083,-0.111,-0.007,0.117,-0.022,-0.056,-0.111,-0.146,-0.109,-0.052
0.022,0.08,0.058,-0.051,-0.018,0.069,0.003,-0.062,-0.109,-0.165,-0.147,-0.089
-0.017,0.015,0.032,0.001,-0.024,0.023,0.028,-0.059,-0.141,-0.215,-0.189,-0.138
-0.049,-0.006,0.043,0.028,-0.046,0.018,0.045,-0.06,-0.15,-0.233,-0.206,-0.155
-0.059,-0.028,0.031,0.043,-0.045,0.001,0.043,-0.061,-0.151,-0.242,-0.215,-0.167
-0.073,-0.04,0.034,0.057,-0.053,-0.003,0.048,-0.058,-0.149,-0.241,-0.216,-0.166
-0.071,-0.047,0.024,0.058,-0.047,-0.011,0.045,-0.058,-0.143,-0.235,-0.211,-0.163
-0.064,-0.041,0.022,0.052,-0.043,-0.009,0.056,-0.044,-0.15,-0.25,-0.223,-0.169
-0.034,-0.018,0.016,0.026,-0.025,-0.001,0.04,-0.059,-0.133,-0.224,-0.205,-0.159
-0.033,-0.067,-0.034,0.05,0.001,-0.05,0.076,0.015,-0.103,-0.25,-0.258,-0.186
0.0,-0.003,-0.003,0.002,0.002,-0.003,0.16,0.29,0.358,0.012,-0.18,-0.191
0.263,0.392,0.129,-0.328,0.067,0.26,-0.197,0.193,0.552,0.384,0.239,0.182
0.405,0.753,0.348,-0.579,0.028,0.55,-0.754,-0.493,-0.116,0.708,0.755,0.684
0.157,0.276,0.118,-0.216,0.019,0.197,-0.686,-0.627,-0.811,0.404,0.469,0.406
-0.095,-0.356,-0.261,0.226,0.084,-0.308,-0.253,-0.235,-0.977,-0.573,-0.37,-0.219
-0.09,-0.206,-0.117,0.148,0.014,-0.161,-0.081,-0.166,-0.51,-0.542,-0.402,-0.272
-0.04,-0.051,-0.011,0.046,-0.015,-0.031,-0.012,-0.1,-0.181,-0.233,-0.237,-0.198
-0.035,-0.049,-0.014,0.042,-0.01,-0.032,0.046,-0.028,-0.143,-0.274,-0.26,-0.216
-0.033,-0.02,0.013,0.026,-0.023,-0.003,0.057,-0.032,-0.077,-0.215,-0.213,-0.196
-0.042,-0.03,0.011,0.036,-0.026,-0.009,0.063,-0.019,-0.075,-0.243,-0.241,-0.203
-0.028,-0.008,0.02,0.017,-0.024,0.006,0.051,-0.03,-0.051,-0.211,-0.223,-0.191
-0.022,-0.012,0.011,0.017,-0.016,-0.001,0.051,-0.022,-0.05,-0.216,-0.233,-0.19
-0.03,0.001,0.032,0.014,-0.031,0.016,0.042,-0.027,-0.039,-0.206,-0.23,-0.184
-0.032,0.003,0.035,0.014,-0.034,0.019,0.038,-0.022,-0.032,-0.197,-0.225,-0.179
-0.018,0.01,0.028,0.004,-0.023,0.019,0.032,-0.016,-0.026,-0.191,-0.222,-0.177
-0.01,0.016,0.025,-0.003,-0.018,0.02,0.023,-0.012,-0.014,-0.172,-0.212,-0.167
-0.017,0.002,0.02,0.007,-0.019,0.011,0.018,-0.005,-0.004,-0.162,-0.21,-0.153
-0.009,0.006,0.014,0.001,-0.012,0.01,0.009,0.0,0.036,-0.135,-0.194,-0.14
0.01,0.028,0.018,-0.02,-0.004,0.023,0.003,0.005,0.071,-0.12,-0.183,-0.13
0.016,0.055,0.04,-0.036,-0.012,0.047,-0.005,0.015,0.108,-0.091,-0.163,-0.121
0.037,0.082,0.045,-0.06,-0.005,0.063,-0.009,0.031,0.166,-0.043,-0.135,-0.104
0.082,0.123,0.041,-0.103,0.02,0.082,-0.023,0.042,0.235,0.018,-0.096,-0.081
0.109,0.173,0.064,-0.141,0.022,0.118,-0.047,0.054,0.293,0.077,-0.045,-0.039
0.119,0.22,0.101,-0.169,0.009,0.16,-0.074,0.056,0.358,0.146,0.017,0.017
0.157,0.262,0.105,-0.21,0.026,0.183,-0.107,0.055,0.389,0.198,0.054,0.044
0.198,0.295,0.097,-0.247,0.051,0.195,-0.126,0.055,0.378,0.206,0.076,0.081
0.161,0.298,0.137,-0.23,0.012,0.217,-0.122,0.055,0.373,0.198,0.094,0.108
0.132,0.289,0.157,-0.211,-0.013,0.223,-0.112,0.056,0.324,0.182,0.068,0.1
0.129,0.261,0.132,-0.195,-0.001,0.196,-0.086,0.049,0.241,0.117,0.037,0.062
0.082,0.205,0.123,-0.144,-0.02,0.164,-0.045,0.035,0.147,0.016,-0.012,0.004
0.036,0.15,0.113,-0.093,-0.039,0.131,-0.016,0.019,0.056,-0.06,-0.088,-0.051
0.014,0.103,0.09,-0.059,-0.038,0.096,-0.002,0.003,-0.003,-0.115,-0.138,-0.096
0.008,0.072,0.064,-0.041,-0.028,0.068,0.001,-0.012,-0.059,-0.157,-0.164,-0.11
-0.003,0.053,0.055,-0.025,-0.029,0.054,0.0,-0.022,-0.095,-0.178,-0.176,-0.131
-0.014,0.036,0.05,-0.011,-0.032,0.043,0.005,-0.035,-0.107,-0.187,-0.189,-0.147
-0.022,0.024,0.046,-0.002,-0.034,0.035,0.005,-0.045,-0.117,-0.185,-0.192,-0.144
-0.019,0.024,0.043,-0.003,-0.032,0.033,0.006,-0.051,-0.116,-0.182,-0.187,-0.146
-0.015,0.025,0.041,-0.005,-0.029,0.033,0.01,-0.054,-0.115,-0.18,-0.198,-0.145
-0.008,0.029,0.037,-0.01,-0.023,0.032,0.01,-0.052,-0.115,-0.176,-0.202,-0.145
-0.005,0.03,0.036,-0.013,-0.02,0.032,0.012,-0.047,-0.114,-0.174,-0.189,-0.143
0.0,0.032,0.032,-0.017,-0.016,0.031,0.016,-0.044,-0.116,-0.175,-0.181,-0.138
0.021,0.039,0.018,-0.031,0.001,0.028,0.015,-0.041,-0.112,-0.186,-0.175,-0.137
0.008,0.045,0.037,-0.027,-0.015,0.041,0.012,-0.036,-0.103,-0.181,-0.17,-0.131
-0.002,0.052,0.054,-0.025,-0.028,0.052,0.009,-0.036,-0.092,-0.166,-0.164,-0.132
0.013,0.056,0.043,-0.035,-0.015,0.049,0.006,-0.04,-0.085,-0.161,-0.158,-0.142
0.028,0.069,0.041,-0.049,-0.007,0.055,0.003,-0.04,-0.085,-0.16,-0.154,-0.132
0.04,0.077,0.037,-0.059,0.001,0.057,0.0,-0.04,-0.086,-0.161,-0.147,-0.119
0.048,0.076,0.029,-0.062,0.009,0.053,0.002,-0.039,-0.085,-0.16,-0.141,-0.113
0.04,0.082,0.042,-0.061,-0.001,0.062,0.006,-0.037,-0.086,-0.161,-0.134,-0.107
0.028,0.083,0.054,-0.056,-0.013,0.068,0.012,-0.034,-0.081,-0.156,-0.127,-0.101
0.021,0.087,0.067,-0.054,-0.024,0.077,0.013,-0.036,-0.066,-0.141,-0.121,-0.097
-0.002,0.1,0.102,-0.049,-0.052,0.1,0.023,-0.034,-0.054,-0.128,-0.114,-0.084
-0.012,0.138,0.15,-0.064,-0.081,0.144,0.001,-0.038,-0.043,-0.117,-0.101,-0.057
-0.001,0.17,0.171,-0.085,-0.086,0.17,-0.042,-0.065,-0.039,-0.111,-0.09,-0.042
0.005,0.16,0.156,-0.083,-0.076,0.157,-0.039,-0.071,-0.031,-0.105,-0.081,-0.03
0.012,0.148,0.137,-0.08,-0.063,0.142,-0.025,-0.063,-0.026,-0.117,-0.071,-0.032
0.003,0.111,0.109,-0.057,-0.053,0.11,-0.014,-0.063,-0.038,-0.117,-0.085,-0.054
-0.025,0.047,0.072,-0.011,-0.049,0.059,-0.002,-0.056,-0.069,-0.136,-0.121,-0.077
-0.049,0.012,0.061,0.018,-0.055,0.037,0.011,-0.054,-0.092,-0.167,-0.146,-0.105
-0.061,-0.003,0.058,0.032,-0.059,0.027,0.014,-0.051,-0.101,-0.172,-0.154,-0.106
-0.072,-0.011,0.061,0.041,-0.066,0.025,0.016,-0.047,-0.103,-0.182,-0.159,-0.103
-0.072,-0.012,0.061,0.042,-0.066,0.024,0.015,-0.048,-0.092,-0.164,-0.148,-0.126
-0.086,-0.03,0.056,0.058,-0.071,0.013,0.023,-0.038,-0.104,-0.189,-0.164,-0.149
-0.068,-0.018,0.05,0.043,-0.059,0.016,0.017,-0.048,-0.083,-0.157,-0.143,-0.149
-0.036,-0.048,-0.012,0.042,-0.011,-0.03,0.036,-0.008,-0.088,-0.188,-0.173,-0.155
-0.011,-0.023,-0.012,0.017,0.001,-0.018,0.131,0.24,0.307,0.002,-0.138,-0.16
0.232,0.327,0.095,-0.28,0.068,0.211,-0.135,0.282,0.691,0.436,0.235,0.146
0.438,0.786,0.348,-0.612,0.045,0.567,-0.757,-0.357,0.149,0.779,0.794,0.721
0.258,0.473,0.215,-0.366,0.021,0.344,-0.837,-0.69,-0.616,0.676,0.731,0.63
-0.017,-0.269,-0.252,0.143,0.117,-0.26,-0.376,-0.307,-0.925,-0.298,-0.139,-0.05
-0.072,-0.257,-0.185,0.165,0.057,-0.221,-0.122,-0.145,-0.555,-0.524,-0.364,-0.229
-0.028,-0.063,-0.035,0.046,0.004,-0.049,-0.041,-0.104,-0.136,-0.156,-0.136,-0.119
-0.029,-0.061,-0.033,0.045,0.002,-0.047,0.022,-0.033,-0.093,-0.186,-0.168,-0.121
-0.019,-0.023,-0.004,0.021,-0.007,-0.013,0.026,-0.037,-0.036,-0.114,-0.127,-0.103
-0.019,-0.043,-0.024,0.031,0.003,-0.033,0.033,-0.013,-0.032,-0.13,-0.135,-0.117
-0.021,-0.031,-0.01,0.026,-0.005,-0.02,0.029,-0.017,-0.018,-0.112,-0.126,-0.114
-0.01,-0.037,-0.027,0.024,0.009,-0.032,0.03,-0.014,-0.005,-0.099,-0.121,-0.119
0.001,-0.035,-0.036,0.018,0.019,-0.035,0.03,-0.011,-0.001,-0.103,-0.123,-0.121
-0.001,-0.03,-0.029,0.016,0.014,-0.03,0.028,-0.01,0.017,-0.08,-0.112,-0.102
0.0,-0.026,-0.026,0.013,0.013,-0.026,0.025,-0.009,0.029,-0.087,-0.115,-0.085
-0.001,-0.019,-0.018,0.01,0.009,-0.018,0.018,-0.004,0.052,-0.057,-0.101,-0.074
-0.001,-0.015,-0.014,0.008,0.007,-0.015,0.015,0.006,0.062,-0.04,-0.096,-0.071
0.001,-0.008,-0.009,0.004,0.005,-0.008,0.009,0.012,0.088,-0.034,-0.086,-0.061
-0.002,-0.004,-0.002,0.004,0.0,-0.003,0.006,0.022,0.117,-0.005,-0.065,-0.057
0.009,0.012,0.003,-0.011,0.003,0.007,0.001,0.027,0.158,0.039,-0.038,-0.043
0.014,0.027,0.013,-0.021,0.0,0.02,-0.011,0.038,0.207,0.076,-0.017,-0.023
0.047,0.062,0.015,-0.055,0.016,0.038,-0.018,0.061,0.269,0.132,0.02,-0.001
0.087,0.11,0.024,-0.099,0.031,0.067,-0.039,0.076,0.349,0.187,0.062,0.045
0.108,0.152,0.045,-0.13,0.031,0.098,-0.074,0.076,0.409,0.255,0.111,0.085
0.137,0.193,0.056,-0.165,0.04,0.124,-0.099,0.07,0.445,0.312,0.159,0.131
0.159,0.23,0.071,-0.195,0.044,0.15,-0.121,0.066,0.449,0.328,0.194,0.169
0.171,0.247,0.077,-0.209,0.047,0.162,-0.121,0.061,0.425,0.322,0.204,0.177
0.151,0.237,0.086,-0.194,0.032,0.161,-0.114,0.057,0.383,0.306,0.195,0.17
0.111,0.194,0.083,-0.153,0.013,0.138,-0.108,0.051,0.31,0.254,0.167,0.139
0.062,0.128,0.066,-0.095,-0.003,0.097,-0.075,0.035,0.225,0.185,0.116,0.101
0.012,0.062,0.05,-0.037,-0.019,0.056,-0.042,0.019,0.13,0.116,0.069,0.059
-0.016,0.004,0.02,0.006,-0.018,0.012,-0.023,-0.002,0.054,0.042,0.017,0.013
-0.021,-0.032,-0.011,0.027,-0.005,-0.021,-0.012,-0.021,0.01,-0.007,-0.013,-0.014
-0.021,-0.05,-0.029,0.036,0.004,-0.039,-0.008,-0.029,-0.023,-0.026,-0.03,-0.017
-0.021,-0.061,-0.039,0.041,0.009,-0.05,-0.001,-0.036,-0.032,-0.032,-0.041,-0.022
-0.022,-0.065,-0.043,0.044,0.011,-0.054,0.004,-0.043,-0.029,-0.032,-0.036,-0.035
-0.025,-0.062,-0.037,0.044,0.006,-0.049,0.007,-0.049,-0.024,-0.026,-0.034,-0.032
-0.024,-0.059,-0.035,0.042,0.005,-0.046,0.011,-0.043,-0.02,-0.022,-0.029,-0.026
-0.026,-0.057,-0.031,0.041,0.003,-0.043,0.014,-0.032,-0.015,-0.017,-0.026,-0.023
-0.026,-0.052,-0.026,0.039,0.0,-0.039,0.019,-0.022,-0.01,-0.013,-0.023,-0.017
-0.027,-0.052,-0.025,0.04,-0.001,-0.038,0.019,-0.015,-0.006,-0.008,-0.02,-0.013
-0.021,-0.045,-0.024,0.034,0.002,-0.035,0.015,-0.015,0.003,-0.005,-0.017,-0.01
-0.031,-0.06,-0.029,0.046,-0.001,-0.044,0.015,-0.015,0.01,-0.003,-0.014,-0.01
-0.056,-0.078,-0.023,0.067,-0.016,-0.051,0.013,-0.015,0.02,0.0,-0.011,-0.007
-0.039,-0.071,-0.033,0.055,-0.003,-0.052,0.01,-0.015,0.024,0.003,-0.01,-0.002
-0.016,-0.071,-0.055,0.044,0.02,-0.062,0.01,-0.015,0.018,0.006,-0.015,0.001
-0.011,-0.066,-0.055,0.039,0.023,-0.06,0.014,-0.011,0.01,0.008,-0.015,0.004
-0.008,-0.065,-0.058,0.037,0.026,-0.061,0.021,-0.007,0.004,0.011,-0.017,0.008
-0.006,-0.068,-0.062,0.037,0.028,-0.065,0.027,-0.003,-0.002,0.009,-0.02,0.011
-0.017,-0.074,-0.057,0.046,0.02,-0.065,0.029,-0.001,-0.01,0.011,-0.021,0.018
-0.022,-0.073,-0.051,0.047,0.015,-0.061,0.032,0.006,-0.003,0.009,-0.017,0.027
0.003,-0.042,-0.045,0.02,0.025,-0.043,0.033,0.0,0.015,0.013,-0.008,0.031
0.026,0.0,-0.026,-0.013,0.026,-0.013,0.039,-0.009,0.032,0.04,0.003,0.044
0.042,0.044,0.002,-0.043,0.02,0.023,0.013,-0.025,0.037,0.052,0.012,0.053
0.043,0.056,0.013,-0.05,0.015,0.034,-0.036,-0.048,0.033,0.048,0.022,0.066
0.066,0.062,-0.004,-0.064,0.035,0.029,-0.04,-0.027,0.038,0.047,0.032,0.071
0.071,0.039,-0.032,-0.055,0.052,0.003,-0.027,-0.006,0.031,0.028,0.015,0.059
0.029,-0.033,-0.062,0.002,0.046,-0.047,-0.007,-0.001,0.023,0.023,0.0,0.041
-0.014,-0.101,-0.087,0.058,0.037,-0.094,0.021,0.004,-0.019,0.008,-0.026,-0.001
-0.051,-0.133,-0.082,0.093,0.016,-0.108,0.037,-0.004,-0.046,0.006,-0.045,-0.017
-0.053,-0.14,-0.087,0.097,0.017,-0.113,0.038,-0.011,-0.06,-0.001,-0.046,-0.014
-0.057,-0.142,-0.085,0.1,0.014,-0.113,0.043,-0.016,-0.059,-0.015,-0.055,-0.016
-0.057,-0.151,-0.095,0.104,0.019,-0.123,0.037,-0.027,-0.052,-0.009,-0.049,-0.02
-0.061,-0.16,-0.099,0.111,0.019,-0.129,0.043,-0.026,-0.055,-0.04,-0.066,-0.033
-0.06,-0.146,-0.086,0.103,0.013,-0.116,0.036,-0.026,-0.031,0.005,-0.048,-0.005
-0.068,-0.189,-0.121,0.129,0.027,-0.155,0.072,0.041,-0.037,-0.03,-0.084,-0.042
-0.001,-0.117,-0.115,0.059,0.057,-0.116,0.167,0.34,0.442,0.206,-0.019,-0.042
0.299,0.292,-0.006,-0.296,0.152,0.143,-0.201,0.274,0.73,0.629,0.407,0.326
0.472,0.73,0.258,-0.601,0.107,0.493,-0.831,-0.479,0.12,0.993,0.974,0.88
0.255,0.286,0.03,-0.271,0.112,0.158,-0.819,-0.684,-0.576,0.822,0.777,0.708
-0.027,-0.431,-0.405,0.229,0.189,-0.418,-0.351,-0.288,-0.844,-0.202,-0.102,0.004
-0.098,-0.341,-0.242,0.22,0.072,-0.291,-0.074,-0.161,-0.418,-0.308,-0.222,-0.115
-0.059,-0.195,-0.136,0.127,0.039,-0.165,0.026,-0.047,-0.064,0.012,-0.037,-0.008
-0.042,-0.186,-0.144,0.114,0.051,-0.165,0.074,0.037,-0.049,-0.047,-0.087,-0.023
-0.041,-0.157,-0.116,0.1,0.037,-0.136,0.074,0.033,0.016,0.035,-0.046,0.0
-0.046,-0.176,-0.129,0.111,0.042,-0.152,0.072,0.051,0.009,0.012,-0.062,-0.011
-0.044,-0.156,-0.112,0.1,0.035,-0.134,0.069,0.044,0.034,0.041,-0.045,0.001
-0.051,-0.165,-0.114,0.108,0.032,-0.139,0.066,0.055,0.05,0.034,-0.044,-0.001
-0.043,-0.156,-0.112,0.1,0.035,-0.134,0.064,0.056,0.063,0.034,-0.042,0.002
-0.035,-0.156,-0.121,0.096,0.043,-0.138,0.061,0.062,0.064,0.037,-0.035,0.006
-0.053,-0.152,-0.099,0.103,0.023,-0.125,0.058,0.066,0.077,0.042,-0.038,0.007
-0.051,-0.149,-0.098,0.1,0.024,-0.124,0.056,0.064,0.105,0.076,-0.028,0.012
-0.044,-0.147,-0.102,0.096,0.029,-0.124,0.052,0.068,0.111,0.066,-0.033,0.014
-0.048,-0.145,-0.097,0.097,0.025,-0.12,0.05,0.082,0.136,0.093,-0.021,0.015
-0.042,-0.138,-0.096,0.091,0.027,-0.117,0.047,0.091,0.173,0.116,-0.003,0.035
-0.029,-0.123,-0.094,0.077,0.033,-0.108,0.034,0.103,0.217,0.146,0.018,0.044
-0.017,-0.108,-0.09,0.063,0.037,-0.099,0.023,0.128,0.271,0.185,0.041,0.052
-0.007,-0.069,-0.063,0.038,0.028,-0.066,0.008,0.146,0.333,0.239,0.064,0.083
0.024,-0.02,-0.043,-0.002,0.034,-0.031,-0.014,0.168,0.388,0.302,0.108,0.109
0.049,0.018,-0.03,-0.033,0.039,-0.006,-0.042,0.18,0.45,0.359,0.166,0.163
0.068,0.052,-0.016,-0.06,0.042,0.018,-0.066,0.17,0.484,0.403,0.211,0.187
0.104,0.099,-0.004,-0.101,0.054,0.047,-0.088,0.158,0.473,0.426,0.244,0.224
0.093,0.107,0.014,-0.1,0.039,0.06,-0.099,0.148,0.44,0.419,0.254,0.25
0.074,0.097,0.023,-0.086,0.026,0.06,-0.09,0.133,0.395,0.395,0.25,0.239
0.044,0.061,0.017,-0.053,0.014,0.038,-0.081,0.11,0.322,0.344,0.214,0.216
0.004,-0.005,-0.009,0.001,0.006,-0.006,-0.063,0.08,0.227,0.259,0.152,0.158
-0.011,-0.06,-0.048,0.036,0.019,-0.053,-0.036,0.057,0.14,0.184,0.1,0.123
-0.052,-0.122,-0.069,0.087,0.009,-0.095,-0.014,0.038,0.072,0.126,0.056,0.093
-0.062,-0.153,-0.091,0.108,0.015,-0.122,-0.008,0.028,0.023,0.085,0.033,0.063
-0.058,-0.164,-0.106,0.112,0.024,-0.135,-0.005,0.02,-0.004,0.068,0.018,0.044
-0.076,-0.179,-0.103,0.128,0.013,-0.14,-0.002,0.011,-0.011,0.064,0.005,0.039
-0.072,-0.187,-0.114,0.13,0.021,-0.15,0.003,0.01,-0.017,0.059,0.005,0.041
-0.072,-0.198,-0.126,0.136,0.027,-0.161,0.005,0.01,-0.024,0.053,0.005,0.039
-0.082,-0.209,-0.127,0.146,0.023,-0.168,0.012,0.01,-0.031,0.047,0.005,0.04
-0.074,-0.205,-0.13,0.139,0.028,-0.167,0.02,0.01,-0.034,0.045,0.005,0.04
-0.064,-0.197,-0.133,0.131,0.035,-0.165,0.02,0.01,-0.03,0.045,0.004,0.041
-0.059,-0.194,-0.136,0.127,0.039,-0.165,0.02,0.009,-0.027,0.045,0.0,0.039
-0.053,-0.184,-0.131,0.119,0.039,-0.157,0.02,0.011,-0.023,0.045,0.0,0.041
-0.07,-0.194,-0.124,0.132,0.027,-0.159,0.02,0.024,-0.02,0.045,-0.002,0.038
-0.09,-0.207,-0.117,0.149,0.014,-0.162,0.017,0.026,-0.02,0.045,-0.006,0.043
-0.082,-0.193,-0.111,0.138,0.015,-0.152,0.015,0.024,-0.02,0.045,-0.005,0.033
-0.078,-0.182,-0.104,0.131,0.013,-0.143,0.015,0.022,-0.02,0.045,-0.009,0.03
-0.081,-0.18,-0.099,0.131,0.009,-0.139,0.011,0.019,-0.021,0.045,-0.016,0.06
-0.085,-0.18,-0.095,0.133,0.005,-0.137,0.01,0.02,-0.02,0.045,-0.02,0.055
-0.086,-0.181,-0.095,0.134,0.005,-0.137,0.011,0.015,-0.021,0.045,-0.02,0.05
-0.085,-0.178,-0.093,0.132,0.004,-0.135,0.014,0.015,-0.03,0.042,-0.019,0.047
-0.095,-0.183,-0.088,0.139,-0.003,-0.135,0.015,0.014,-0.04,0.036,-0.027,0.041
-0.099,-0.192,-0.093,0.145,-0.003,-0.142,0.015,0.009,-0.046,0.028,-0.037,0.036
-0.108,-0.189,-0.081,0.149,-0.013,-0.135,0.016,0.011,-0.043,0.023,-0.034,0.025
-0.11,-0.197,-0.088,0.154,-0.011,-0.142,0.014,0.013,-0.057,0.015,-0.036,0.013
-0.12,-0.214,-0.094,0.167,-0.012,-0.154,0.018,0.027,-0.064,0.012,-0.035,0.002
-0.127,-0.187,-0.06,0.158,-0.034,-0.123,0.027,0.036,-0.044,0.026,-0.022,0.023
-0.092,-0.128,-0.036,0.11,-0.027,-0.082,0.039,0.036,-0.021,0.056,-0.009,0.058
-0.073,-0.093,-0.02,0.083,-0.026,-0.056,0.006,0.021,-0.01,0.07,0.013,0.085
-0.077,-0.08,-0.003,0.079,-0.037,-0.041,-0.048,-0.021,-0.005,0.071,0.026,0.089
-0.059,-0.059,-0.001,0.059,-0.029,-0.03,-0.041,-0.006,-0.002,0.096,0.018,0.107
-0.052,-0.077,-0.025,0.065,-0.013,-0.051,-0.012,0.043,0.004,0.089,0.006,0.112
-0.092,-0.141,-0.049,0.117,-0.021,-0.095,0.009,0.045,0.001,0.08,0.0,0.081
-0.138,-0.19,-0.052,0.164,-0.043,-0.121,0.039,0.045,-0.044,0.052,-0.024,0.054
-0.157,-0.204,-0.047,0.18,-0.054,-0.125,0.057,0.046,-0.052,0.029,-0.039,0.043
-0.155,-0.208,-0.054,0.181,-0.05,-0.13,0.06,0.043,-0.059,0.015,-0.051,0.039
-0.149,-0.195,-0.046,0.172,-0.052,-0.12,0.058,0.048,-0.051,0.023,-0.055,0.028
-0.156,-0.21,-0.055,0.183,-0.05,-0.132,0.051,0.045,-0.059,0.021,-0.057,0.025
-0.177,-0.231,-0.054,0.205,-0.062,-0.142,0.056,0.059,-0.053,0.013,-0.066,0.011
-0.167,-0.225,-0.057,0.196,-0.055,-0.141,0.04,0.039,-0.05,0.035,-0.048,0.018
-0.178,-0.257,-0.079,0.218,-0.05,-0.168,0.101,0.139,0.026,0.006,-0.09,-0.025
-0.073,-0.134,-0.061,0.104,-0.006,-0.098,0.129,0.438,0.539,0.313,0.028,0.028
0.252,0.327,0.076,-0.29,0.088,0.201,-0.351,0.153,0.597,0.704,0.505,0.497
0.342,0.623,0.281,-0.483,0.03,0.452,-0.903,-0.606,-0.049,1.042,0.991,0.955
0.057,-0.003,-0.06,-0.027,0.058,-0.031,-0.739,-0.614,-0.679,0.63,0.547,0.567
-0.198,-0.556,-0.358,0.378,0.08,-0.457,-0.281,-0.254,-0.819,-0.324,-0.247,-0.068
-0.213,-0.34,-0.127,0.277,-0.042,-0.234,-0.071,-0.133,-0.314,-0.204,-0.196,-0.053
-0.175,-0.247,-0.072,0.211,-0.052,-0.159,0.027,0.006,-0.058,0.008,-0.08,0.029
-0.169,-0.251,-0.082,0.21,-0.043,-0.166,0.064,0.049,-0.038,-0.022,-0.095,0.007
-0.171,-0.229,-0.059,0.2,-0.056,-0.144,0.062,0.053,0.017,0.046,-0.06,0.031
-0.186,-0.24,-0.054,0.213,-0.066,-0.146,0.062,0.07,0.001,0.006,-0.087,0.013
-0.163,-0.223,-0.059,0.193,-0.052,-0.141,0.055,0.068,0.03,0.041,-0.066,0.024
-0.18,-0.228,-0.048,0.205,-0.066,-0.138,0.054,0.072,0.028,0.024,-0.081,0.018
-0.177,-0.216,-0.04,0.197,-0.068,-0.128,0.048,0.065,0.037,0.036,-0.071,0.02
-0.17,-0.217,-0.047,0.194,-0.061,-0.132,0.046,0.065,0.054,0.041,-0.068,0.023
-0.187,-0.215,-0.028,0.201,-0.079,-0.121,0.043,0.065,0.07,0.051,-0.061,0.023
-0.174,-0.211,-0.038,0.193,-0.068,-0.124,0.04,0.071,0.078,0.065,-0.053,0.024
-0.16,-0.197,-0.036,0.179,-0.062,-0.116,0.038,0.071,0.107,0.078,-0.048,0.049
-0.138,-0.183,-0.045,0.161,-0.046,-0.114,0.034,0.09,0.13,0.107,-0.041,0.039
-0.135,-0.161,-0.026,0.148,-0.054,-0.094,0.033,0.102,0.15,0.123,-0.03,0.037
-0.112,-0.129,-0.016,0.121,-0.048,-0.072,0.026,0.12,0.204,0.156,-0.005,0.078
-0.077,-0.101,-0.024,0.089,-0.026,-0.062,0.021,0.148,0.258,0.198,0.019,0.085
-0.053,-0.06,-0.007,0.057,-0.023,-0.033,0.016,0.168,0.327,0.249,0.057,0.116
-0.031,-0.019,0.012,0.025,-0.021,-0.003,-0.003,0.188,0.388,0.305,0.102,0.152
-0.032,0.03,0.062,0.001,-0.047,0.046,-0.025,0.195,0.436,0.367,0.152,0.184
-0.015,0.076,0.091,-0.03,-0.053,0.083,-0.061,0.189,0.451,0.405,0.193,0.233
0.01,0.101,0.091,-0.055,-0.041,0.096,-0.091,0.177,0.43,0.42,0.218,0.263
-0.007,0.102,0.109,-0.048,-0.058,0.105,-0.098,0.168,0.428,0.415,0.223,0.286
-0.013,0.089,0.102,-0.039,-0.058,0.095,-0.09,0.147,0.392,0.38,0.213,0.283
-0.027,0.07,0.097,-0.021,-0.062,0.083,-0.063,0.12,0.306,0.328,0.192,0.237
-0.078,0.001,0.079,0.038,-0.078,0.04,-0.043,0.097,0.216,0.263,0.138,0.194
-0.109,-0.068,0.041,0.088,-0.075,-0.013,-0.022,0.08,0.138,0.203,0.075,0.152
-0.139,-0.106,0.033,0.122,-0.085,-0.036,-0.005,0.066,0.083,0.148,0.041,0.105
-0.171,-0.142,0.03,0.156,-0.1,-0.056,0.004,0.05,0.041,0.109,0.023,0.093
-0.166,-0.15,0.017,0.158,-0.092,-0.066,0.012,0.034,0.013,0.084,0.002,0.085
-0.175,-0.174,0.001,0.174,-0.088,-0.086,0.021,0.028,0.002,0.074,-0.008,0.079
-0.177,-0.197,-0.02,0.187,-0.079,-0.108,0.03,0.032,-0.007,0.068,-0.012,0.073
-0.168,-0.186,-0.017,0.177,-0.075,-0.101,0.035,0.023,-0.018,0.06,-0.02,0.063
-0.271,-0.183,0.088,0.226,-0.179,-0.047,0.058,0.05,0.004,0.091,-0.013,0.106
-0.337,-0.176,0.161,0.256,-0.249,-0.007,0.074,0.09,0.041,0.103,0.001,0.129
-0.325,-0.171,0.154,0.247,-0.239,-0.008,0.074,0.089,0.045,0.098,0.017,0.118
-0.341,-0.167,0.174,0.254,-0.257,0.004,0.079,0.09,0.044,0.111,0.035,0.119
-0.343,-0.163,0.18,0.253,-0.261,0.008,0.09,0.09,0.058,0.114,0.035,0.113
-0.344,-0.162,0.183,0.253,-0.263,0.01,0.093,0.09,0.058,0.131,0.03,0.109
-0.346,-0.157,0.189,0.251,-0.267,0.015,0.085,0.09,0.052,0.135,0.028,0.108
-0.345,-0.156,0.189,0.251,-0.267,0.016,0.081,0.089,0.049,0.129,0.023,0.103
-0.343,-0.152,0.191,0.248,-0.266,0.019,0.074,0.09,0.044,0.127,0.02,0.109
-0.344,-0.151,0.193,0.248,-0.269,0.02,0.071,0.086,0.039,0.121,0.025,0.131
-0.343,-0.147,0.196,0.244,-0.269,0.024,0.074,0.085,0.035,0.12,0.027,0.129
-0.354,-0.159,0.195,0.256,-0.274,0.018,0.077,0.085,0.027,0.113,0.019,0.117
-0.373,-0.172,0.2,0.272,-0.286,0.014,0.081,0.084,0.021,0.105,0.015,0.107
-0.376,-0.167,0.208,0.271,-0.292,0.02,0.085,0.085,0.014,0.099,0.009,0.113
-0.395,-0.185,0.209,0.29,-0.302,0.012,0.083,0.084,0.007,0.09,0.003,0.116
-0.409,-0.198,0.211,0.303,-0.309,0.006,0.078,0.078,0.008,0.084,0.001,0.11
-0.387,-0.177,0.209,0.282,-0.298,0.016,0.075,0.072,0.016,0.081,0.009,0.101
-0.348,-0.139,0.209,0.244,-0.278,0.034,0.072,0.068,0.026,0.09,0.021,0.098
-0.342,-0.108,0.234,0.225,-0.287,0.062,0.067,0.061,0.033,0.105,0.029,0.132
-0.343,-0.084,0.26,0.213,-0.301,0.088,0.065,0.057,0.042,0.117,0.041,0.121
-0.328,-0.064,0.263,0.196,-0.295,0.099,0.054,0.054,0.054,0.128,0.048,0.136
-0.294,-0.038,0.255,0.166,-0.274,0.108,0.039,0.057,0.049,0.132,0.041,0.184
-0.278,-0.04,0.237,0.159,-0.258,0.098,0.032,0.076,0.038,0.128,0.034,0.162
-0.314,-0.115,0.198,0.214,-0.256,0.041,0.036,0.082,0.038,0.115,0.025,0.118
-0.369,-0.178,0.192,0.273,-0.28,0.006,0.064,0.078,0.024,0.086,-0.002,0.093
-0.399,-0.192,0.207,0.295,-0.303,0.007,0.081,0.079,0.024,0.084,-0.019,0.094
-0.389,-0.197,0.192,0.292,-0.29,-0.002,0.082,0.071,0.015,0.082,-0.023,0.091
-0.388,-0.195,0.194,0.291,-0.291,0.0,0.11,0.079,0.01,0.071,-0.028,0.085
-0.371,-0.188,0.183,0.279,-0.277,-0.002,0.109,0.075,0.009,0.082,-0.024,0.088
-0.375,-0.195,0.18,0.285,-0.278,-0.008,0.111,0.085,-0.009,0.055,-0.037,0.078
-0.355,-0.179,0.175,0.267,-0.265,-0.002,0.11,0.074,0.009,0.079,-0.024,0.086
-0.356,-0.196,0.16,0.276,-0.258,-0.017,0.113,0.103,-0.021,0.03,-0.053,0.049
-0.341,-0.154,0.188,0.247,-0.265,0.017,0.21,0.414,0.386,0.222,-0.014,0.03
-0.038,0.193,0.231,-0.077,-0.135,0.211,-0.069,0.403,0.729,0.617,0.343,0.349
0.21,0.669,0.459,-0.44,-0.125,0.564,-0.716,-0.325,0.278,1.002,0.925,0.923
0.028,0.363,0.335,-0.196,-0.154,0.349,-0.798,-0.641,-0.394,0.959,0.853,0.85
-0.293,-0.385,-0.093,0.339,-0.1,-0.239,-0.348,-0.3,-0.792,-0.038,-0.018,0.143
-0.376,-0.358,0.018,0.367,-0.197,-0.17,-0.055,-0.093,-0.435,-0.276,-0.222,-0.027
-0.338,-0.165,0.172,0.251,-0.255,0.004,0.068,0.044,-0.026,0.095,-0.006,0.092
-0.331,-0.17,0.161,0.25,-0.246,-0.005,0.112,0.129,0.009,0.051,-0.048,0.071
-0.311,-0.132,0.179,0.221,-0.245,0.023,0.113,0.121,0.078,0.096,-0.02,0.107
-0.304,-0.146,0.158,0.225,-0.231,0.005,0.117,0.135,0.073,0.076,-0.035,0.09
-0.295,-0.13,0.165,0.213,-0.23,0.017,0.113,0.127,0.084,0.086,-0.029,0.089
-0.286,-0.132,0.154,0.209,-0.22,0.011,0.118,0.131,0.088,0.09,-0.028,0.084
-0.276,-0.125,0.151,0.201,-0.213,0.012,0.111,0.129,0.088,0.085,-0.029,0.074
-0.279,-0.119,0.16,0.199,-0.219,0.02,0.119,0.137,0.111,0.099,-0.018,0.082
-0.282,-0.111,0.17,0.196,-0.226,0.029,0.1,0.141,0.125,0.091,-0.022,0.096
-0.257,-0.099,0.159,0.178,-0.208,0.03,0.111,0.14,0.124,0.102,-0.012,0.102
-0.257,-0.091,0.166,0.174,-0.211,0.037,0.087,0.145,0.14,0.107,-0.013,0.098
-0.284,-0.08,0.204,0.182,-0.243,0.061,0.102,0.157,0.18,0.141,-0.006,0.101
-0.281,-0.073,0.208,0.177,-0.244,0.067,0.077,0.168,0.2,0.163,-0.005,0.107
-0.273,-0.06,0.214,0.166,-0.243,0.077,-0.102,0.188,0.241,0.19,0.012,0.123
-0.242,-0.03,0.212,0.136,-0.227,0.091,-0.037,0.21,0.297,0.227,0.042,0.129
-0.206,0.002,0.208,0.102,-0.207,0.105,0.031,0.221,0.356,0.275,0.074,0.152
-0.191,0.048,0.24,0.071,-0.216,0.144,0.0,0.252,0.425,0.34,0.122,0.197
