0.18,0.056,-0.124,-0.118,0.152,-0.034,-0.03,0.364,0.421,0.153,0.162,0.148
0.185,0.067,-0.118,-0.126,0.151,-0.025,-0.049,0.391,0.438,0.178,0.197,0.179
0.21,0.102,-0.107,-0.156,0.158,-0.003,-0.067,0.406,0.471,0.217,0.25,0.229
0.232,0.133,-0.099,-0.183,0.165,0.017,-0.07,0.416,0.498,0.265,0.299,0.283
0.247,0.146,-0.101,-0.197,0.174,0.022,-0.11,0.398,0.491,0.299,0.331,0.316
0.256,0.18,-0.075,-0.218,0.165,0.052,-0.11,0.368,0.462,0.295,0.325,0.312
0.217,0.175,-0.043,-0.196,0.13,0.066,-0.095,0.314,0.422,0.28,0.313,0.302
0.194,0.16,-0.034,-0.177,0.114,0.063,-0.09,0.242,0.349,0.265,0.282,0.273
0.161,0.134,-0.027,-0.147,0.093,0.054,-0.065,0.191,0.264,0.217,0.224,0.208
0.113,0.085,-0.029,-0.099,0.071,0.028,-0.06,0.139,0.191,0.153,0.149,0.126
0.077,0.045,-0.032,-0.061,0.054,0.006,-0.036,0.098,0.124,0.103,0.083,0.058
0.03,-0.005,-0.034,-0.012,0.032,-0.02,-0.004,0.072,0.075,0.047,0.035,0.014
0.009,-0.028,-0.037,0.01,0.024,-0.032,-0.001,0.046,0.046,0.011,-0.004,-0.029
-0.006,-0.049,-0.043,0.027,0.019,-0.045,0.005,0.031,0.032,-0.007,-0.018,-0.043
-0.037,-0.086,-0.049,0.062,0.006,-0.067,0.01,0.025,0.026,-0.025,-0.038,-0.052
-0.045,-0.084,-0.039,0.065,-0.002,-0.062,0.017,0.02,0.019,-0.036,-0.057,-0.069
-0.037,-0.089,-0.052,0.063,0.008,-0.07,0.019,0.014,0.013,-0.049,-0.062,-0.072
-0.018,-0.09,-0.072,0.054,0.027,-0.081,0.013,0.008,0.005,-0.056,-0.063,-0.078
-0.022,-0.09,-0.068,0.056,0.023,-0.079,0.005,0.004,0.001,-0.063,-0.059,-0.082
-0.055,-0.121,-0.065,0.088,0.005,-0.093,0.012,0.006,0.005,-0.074,-0.061,-0.085
-0.064,-0.127,-0.062,0.096,0.0,-0.094,0.031,-0.002,0.01,-0.07,-0.06,-0.084
-0.063,-0.123,-0.06,0.093,-0.001,-0.091,0.028,-0.013,0.014,-0.062,-0.06,-0.093
-0.053,-0.111,-0.058,0.083,0.002,-0.084,0.02,-0.011,0.018,-0.057,-0.059,-0.098
-0.041,-0.095,-0.054,0.069,0.007,-0.075,0.015,-0.007,0.024,-0.049,-0.056,-0.084
-0.035,-0.087,-0.052,0.061,0.009,-0.069,0.007,-0.005,0.023,-0.045,-0.053,-0.077
-0.035,-0.084,-0.049,0.06,0.008,-0.066,0.001,-0.001,0.019,-0.045,-0.051,-0.071
-0.041,-0.086,-0.045,0.064,0.003,-0.066,0.003,0.0,0.02,-0.045,-0.047,-0.066
-0.038,-0.084,-0.045,0.061,0.004,-0.064,0.011,-0.004,0.02,-0.045,-0.045,-0.063
-0.037,-0.087,-0.049,0.062,0.006,-0.068,0.015,-0.005,0.02,-0.045,-0.047,-0.057
-0.012,-0.063,-0.052,0.038,0.02,-0.057,0.022,-0.005,0.02,-0.045,-0.052,-0.056
-0.017,-0.071,-0.055,0.045,0.019,-0.063,0.024,-0.005,0.014,-0.048,-0.053,-0.065
-0.054,-0.112,-0.057,0.083,0.002,-0.084,0.02,-0.005,0.008,-0.053,-0.057,-0.071
-0.041,-0.102,-0.061,0.072,0.01,-0.081,0.02,-0.006,0.001,-0.056,-0.059,-0.069
-0.037,-0.095,-0.057,0.066,0.01,-0.076,0.02,-0.012,-0.005,-0.06,-0.062,-0.071
-0.037,-0.091,-0.054,0.065,0.009,-0.073,0.02,-0.019,-0.013,-0.06,-0.066,-0.073
-0.023,-0.078,-0.055,0.051,0.016,-0.067,0.02,-0.026,-0.015,-0.059,-0.061,-0.078
-0.034,-0.089,-0.055,0.062,0.01,-0.071,0.016,-0.033,-0.016,-0.061,-0.062,-0.079
-0.043,-0.098,-0.055,0.071,0.006,-0.077,0.015,-0.032,-0.014,-0.058,-0.056,-0.072
-0.065,-0.12,-0.055,0.093,-0.005,-0.088,0.015,-0.03,-0.005,-0.069,-0.065,-0.079
-0.063,-0.118,-0.055,0.091,-0.003,-0.086,0.011,-0.03,-0.008,-0.08,-0.086,-0.086
-0.044,-0.099,-0.055,0.072,0.006,-0.077,0.009,-0.03,-0.014,-0.073,-0.078,-0.084
-0.055,-0.109,-0.055,0.083,0.0,-0.082,0.012,-0.03,-0.018,-0.069,-0.073,-0.085
-0.054,-0.109,-0.055,0.082,0.001,-0.082,0.015,-0.031,-0.026,-0.063,-0.068,-0.085
-0.044,-0.098,-0.055,0.072,0.006,-0.076,0.015,-0.036,-0.029,-0.057,-0.061,-0.085
-0.036,-0.093,-0.057,0.065,0.011,-0.075,0.015,-0.034,-0.026,-0.056,-0.062,-0.082
-0.046,-0.106,-0.06,0.076,0.008,-0.083,0.015,-0.042,-0.024,-0.069,-0.078,-0.079
-0.053,-0.113,-0.06,0.083,0.003,-0.086,0.015,-0.051,-0.025,-0.076,-0.088,-0.08
-0.048,-0.108,-0.06,0.078,0.006,-0.084,0.011,-0.043,-0.025,-0.07,-0.081,-0.08
-0.046,-0.106,-0.06,0.076,0.008,-0.083,0.01,-0.04,-0.025,-0.067,-0.081,-0.08
-0.046,-0.106,-0.06,0.076,0.007,-0.082,0.01,-0.036,-0.024,-0.064,-0.076,-0.079
-0.041,-0.101,-0.06,0.071,0.01,-0.08,0.01,-0.028,-0.017,-0.058,-0.075,-0.073
-0.047,-0.107,-0.06,0.077,0.006,-0.083,0.009,-0.038,-0.026,-0.07,-0.078,-0.084
-0.051,-0.111,-0.06,0.081,0.005,-0.086,0.013,-0.045,-0.039,-0.079,-0.072,-0.096
-0.035,-0.095,-0.06,0.065,0.013,-0.077,0.022,-0.035,-0.03,-0.07,-0.064,-0.088
-0.008,-0.065,-0.057,0.036,0.025,-0.061,0.018,-0.018,-0.017,-0.059,-0.057,-0.079
-0.001,-0.038,-0.037,0.02,0.018,-0.038,0.007,-0.012,0.001,-0.037,-0.049,-0.058
0.008,-0.016,-0.023,0.004,0.016,-0.019,0.005,0.019,0.033,-0.019,-0.033,-0.037
0.051,0.024,-0.027,-0.037,0.039,-0.002,-0.016,0.031,0.047,-0.003,-0.028,-0.02
0.051,0.03,-0.021,-0.04,0.036,0.004,-0.051,-0.004,0.029,-0.004,-0.015,-0.009
0.042,-0.021,-0.064,-0.01,0.053,-0.042,-0.037,-0.005,-0.003,-0.045,-0.029,-0.041
0.02,-0.076,-0.096,0.028,0.058,-0.086,-0.011,-0.032,-0.029,-0.057,-0.061,-0.059
0.001,-0.08,-0.081,0.04,0.041,-0.08,0.001,-0.024,-0.034,-0.036,-0.052,-0.05
-0.003,-0.08,-0.077,0.042,0.037,-0.079,0.015,-0.031,-0.049,-0.052,-0.065,-0.069
-0.041,-0.111,-0.07,0.076,0.014,-0.09,0.024,-0.054,-0.041,-0.077,-0.083,-0.093
-0.044,-0.112,-0.068,0.078,0.012,-0.09,0.032,-0.057,-0.046,-0.095,-0.091,-0.099
-0.048,-0.105,-0.056,0.077,0.004,-0.08,0.036,-0.054,-0.035,-0.079,-0.076,-0.088
-0.07,-0.131,-0.061,0.101,-0.005,-0.096,0.04,-0.055,-0.037,-0.091,-0.096,-0.104
-0.08,-0.134,-0.053,0.107,-0.013,-0.093,0.027,-0.071,-0.033,-0.066,-0.073,-0.085
-0.072,-0.139,-0.066,0.106,-0.003,-0.102,0.038,-0.019,-0.023,-0.079,-0.1,-0.112
-0.028,-0.108,-0.079,0.068,0.025,-0.093,0.092,0.062,0.014,-0.071,-0.137,-0.146
0.029,-0.065,-0.094,0.018,0.062,-0.08,0.128,0.303,0.334,0.132,0.009,-0.058
0.264,0.241,-0.023,-0.252,0.144,0.109,-0.23,-0.08,0.355,0.552,0.585,0.504
0.552,0.594,0.041,-0.573,0.255,0.317,-0.793,-0.936,-0.14,0.825,1.206,1.222
0.456,0.236,-0.22,-0.346,0.338,0.008,-0.78,-1.087,-0.772,0.047,0.463,0.717
0.158,-0.145,-0.302,-0.006,0.23,-0.223,-0.437,-0.741,-0.904,-0.536,-0.299,-0.024
0.035,-0.132,-0.166,0.049,0.101,-0.149,-0.186,-0.288,-0.433,-0.269,-0.161,-0.082
0.003,-0.119,-0.122,0.058,0.062,-0.12,-0.033,-0.064,-0.18,-0.151,-0.152,-0.136
-0.022,-0.095,-0.073,0.059,0.026,-0.084,0.029,0.011,-0.064,-0.045,-0.089,-0.108
-0.025,-0.099,-0.074,0.062,0.025,-0.086,0.047,0.063,-0.006,-0.029,-0.078,-0.102
-0.026,-0.091,-0.065,0.059,0.02,-0.078,0.041,0.054,0.002,-0.032,-0.08,-0.102
-0.019,-0.082,-0.063,0.051,0.022,-0.072,0.05,0.07,0.028,-0.012,-0.065,-0.09
-0.025,-0.087,-0.062,0.056,0.018,-0.074,0.047,0.06,0.03,-0.02,-0.077,-0.097
-0.027,-0.079,-0.052,0.054,0.013,-0.065,0.058,0.073,0.058,0.001,-0.059,-0.082
-0.04,-0.101,-0.061,0.071,0.011,-0.081,0.068,0.083,0.059,-0.015,-0.07,-0.089
-0.05,-0.119,-0.069,0.085,0.009,-0.094,0.063,0.092,0.076,-0.007,-0.056,-0.076
-0.041,-0.112,-0.072,0.076,0.016,-0.092,0.066,0.095,0.085,-0.007,-0.055,-0.072
-0.035,-0.101,-0.067,0.068,0.016,-0.084,0.064,0.098,0.093,-0.003,-0.045,-0.061
-0.028,-0.095,-0.067,0.062,0.02,-0.081,0.065,0.12,0.108,0.003,-0.039,-0.054
-0.011,-0.074,-0.063,0.043,0.026,-0.068,0.062,0.127,0.113,0.003,-0.033,-0.047
0.004,-0.067,-0.071,0.032,0.038,-0.069,0.058,0.136,0.123,0.018,-0.022,-0.038
-0.005,-0.09,-0.086,0.048,0.041,-0.088,0.057,0.148,0.136,0.025,-0.014,-0.032
0.011,-0.074,-0.085,0.032,0.048,-0.079,0.052,0.172,0.159,0.026,0.002,-0.022
0.029,-0.055,-0.084,0.014,0.057,-0.069,0.051,0.197,0.188,0.051,0.014,-0.018
0.031,-0.048,-0.079,0.008,0.056,-0.063,0.048,0.224,0.213,0.067,0.032,0.005
0.053,-0.028,-0.081,-0.013,0.067,-0.054,0.041,0.257,0.25,0.08,0.059,0.03
0.069,-0.008,-0.076,-0.03,0.073,-0.042,0.03,0.29,0.291,0.107,0.091,0.062
0.082,0.009,-0.074,-0.045,0.078,-0.032,0.013,0.324,0.33,0.137,0.127,0.101
0.124,0.032,-0.092,-0.078,0.108,-0.03,-0.012,0.35,0.372,0.172,0.17,0.145
0.17,0.082,-0.088,-0.126,0.129,-0.003,-0.046,0.386,0.418,0.206,0.224,0.204
0.19,0.113,-0.078,-0.151,0.134,0.017,-0.05,0.4,0.447,0.244,0.265,0.248
0.219,0.147,-0.072,-0.183,0.146,0.037,-0.062,0.389,0.457,0.281,0.309,0.294
0.232,0.169,-0.062,-0.2,0.147,0.053,-0.081,0.374,0.454,0.304,0.346,0.332
0.223,0.166,-0.057,-0.194,0.14,0.054,-0.083,0.345,0.444,0.307,0.353,0.346
0.221,0.187,-0.034,-0.204,0.127,0.076,-0.094,0.294,0.393,0.292,0.339,0.333
0.177,0.178,0.001,-0.178,0.088,0.09,-0.083,0.232,0.316,0.273,0.302,0.289
0.128,0.14,0.012,-0.134,0.058,0.075,-0.063,0.184,0.249,0.235,0.238,0.225
0.079,0.09,0.011,-0.085,0.033,0.051,-0.035,0.135,0.166,0.178,0.16,0.149
0.039,0.046,0.007,-0.043,0.016,0.027,-0.008,0.092,0.098,0.12,0.099,0.078
0.005,0.003,-0.002,-0.004,0.004,0.001,-0.001,0.063,0.053,0.071,0.048,0.026
-0.033,-0.039,-0.006,0.036,-0.013,-0.022,0.004,0.034,0.02,0.037,0.015,-0.006
-0.043,-0.061,-0.017,0.052,-0.013,-0.039,0.009,0.016,0.007,0.012,-0.01,-0.031
-0.067,-0.096,-0.029,0.081,-0.019,-0.062,0.016,0.009,0.001,-0.005,-0.037,-0.046
-0.065,-0.103,-0.038,0.084,-0.014,-0.07,0.019,0.005,-0.004,-0.019,-0.041,-0.058
-0.049,-0.098,-0.049,0.074,0.0,-0.073,0.026,0.005,-0.007,-0.025,-0.044,-0.067
-0.051,-0.097,-0.046,0.074,-0.002,-0.072,0.035,0.003,-0.013,-0.027,-0.045,-0.065
-0.055,-0.094,-0.039,0.074,-0.007,-0.066,0.035,-0.001,-0.014,-0.032,-0.039,-0.063
-0.06,-0.095,-0.036,0.078,-0.012,-0.065,0.035,0.002,-0.01,-0.029,-0.041,-0.06
-0.061,-0.088,-0.027,0.075,-0.017,-0.057,0.035,-0.005,-0.01,-0.026,-0.039,-0.06
-0.058,-0.086,-0.029,0.072,-0.014,-0.057,0.035,-0.016,-0.008,-0.024,-0.041,-0.064
-0.022,-0.063,-0.041,0.042,0.01,-0.051,0.034,-0.015,-0.005,-0.02,-0.038,-0.064
-0.033,-0.072,-0.039,0.053,0.004,-0.055,0.03,-0.015,-0.005,-0.021,-0.042,-0.06
-0.067,-0.101,-0.034,0.084,-0.016,-0.067,0.03,-0.015,-0.009,-0.025,-0.055,-0.06
-0.051,-0.084,-0.033,0.068,-0.009,-0.058,0.03,-0.015,-0.01,-0.025,-0.049,-0.06
-0.051,-0.077,-0.026,0.064,-0.012,-0.051,0.03,-0.015,-0.012,-0.025,-0.044,-0.06
-0.056,-0.083,-0.026,0.07,-0.015,-0.054,0.03,-0.015,-0.015,-0.025,-0.038,-0.06
-0.056,-0.084,-0.029,0.07,-0.013,-0.056,0.026,-0.015,-0.016,-0.025,-0.031,-0.063
-0.049,-0.079,-0.03,0.064,-0.009,-0.054,0.025,-0.015,-0.021,-0.025,-0.034,-0.066
-0.036,-0.075,-0.039,0.055,0.002,-0.057,0.025,-0.015,-0.024,-0.025,-0.044,-0.069
-0.024,-0.065,-0.041,0.045,0.009,-0.052,0.025,-0.015,-0.027,-0.039,-0.046,-0.072
-0.038,-0.078,-0.04,0.058,0.001,-0.058,0.026,-0.031,-0.032,-0.047,-0.044,-0.075
-0.051,-0.091,-0.04,0.071,-0.006,-0.066,0.023,-0.037,-0.035,-0.044,-0.062,-0.074
-0.048,-0.088,-0.04,0.068,-0.004,-0.064,0.02,-0.034,-0.035,-0.046,-0.072,-0.07
-0.07,-0.108,-0.038,0.089,-0.016,-0.073,0.019,-0.036,-0.035,-0.045,-0.069,-0.07
-0.076,-0.111,-0.035,0.094,-0.02,-0.073,0.028,-0.035,-0.035,-0.044,-0.07,-0.07
-0.076,-0.108,-0.032,0.092,-0.022,-0.07,0.036,-0.035,-0.035,-0.058,-0.07,-0.07
-0.077,-0.107,-0.03,0.092,-0.023,-0.068,0.035,-0.037,-0.035,-0.067,-0.07,-0.069
-0.077,-0.104,-0.027,0.091,-0.025,-0.065,0.035,-0.041,-0.035,-0.064,-0.065,-0.075
-0.082,-0.106,-0.024,0.094,-0.029,-0.065,0.035,-0.04,-0.035,-0.066,-0.065,-0.084
-0.062,-0.104,-0.042,0.084,-0.01,-0.073,0.035,-0.044,-0.035,-0.065,-0.063,-0.085
-0.053,-0.105,-0.052,0.079,0.0,-0.078,0.033,-0.045,-0.035,-0.065,-0.06,-0.085
-0.056,-0.105,-0.049,0.081,-0.003,-0.076,0.029,-0.045,-0.035,-0.065,-0.059,-0.085
-0.054,-0.105,-0.051,0.079,-0.001,-0.077,0.03,-0.05,-0.035,-0.065,-0.065,-0.085
-0.056,-0.105,-0.05,0.08,-0.002,-0.077,0.03,-0.05,-0.039,-0.065,-0.076,-0.085
-0.052,-0.101,-0.05,0.077,-0.001,-0.075,0.03,-0.051,-0.041,-0.065,-0.07,-0.085
-0.054,-0.099,-0.045,0.077,-0.004,-0.072,0.029,-0.055,-0.039,-0.066,-0.065,-0.085
-0.055,-0.099,-0.045,0.078,-0.005,-0.072,0.026,-0.055,-0.041,-0.062,-0.062,-0.085
-0.046,-0.091,-0.044,0.069,-0.001,-0.067,0.024,-0.055,-0.039,-0.059,-0.055,-0.085
-0.069,-0.108,-0.039,0.088,-0.014,-0.073,0.026,-0.055,-0.045,-0.054,-0.062,-0.085
-0.081,-0.122,-0.041,0.102,-0.02,-0.082,0.024,-0.055,-0.056,-0.053,-0.071,-0.085
-0.078,-0.115,-0.037,0.097,-0.021,-0.075,0.026,-0.055,-0.05,-0.046,-0.069,-0.085
-0.082,-0.118,-0.036,0.101,-0.022,-0.077,0.022,-0.055,-0.045,-0.047,-0.07,-0.085
-0.062,-0.112,-0.05,0.087,-0.006,-0.081,0.022,-0.055,-0.042,-0.064,-0.07,-0.085
-0.052,-0.102,-0.05,0.077,-0.001,-0.076,0.04,-0.051,-0.034,-0.065,-0.069,-0.085
-0.051,-0.101,-0.049,0.076,-0.001,-0.075,0.038,-0.046,-0.044,-0.065,-0.069,-0.086
-0.041,-0.087,-0.046,0.064,0.003,-0.066,0.034,-0.044,-0.048,-0.065,-0.06,-0.081
-0.046,-0.09,-0.044,0.069,-0.001,-0.067,0.032,-0.039,-0.038,-0.065,-0.069,-0.073
-0.049,-0.094,-0.045,0.072,-0.002,-0.069,0.025,-0.036,-0.034,-0.063,-0.074,-0.065
-0.032,-0.063,-0.03,0.048,-0.001,-0.046,0.029,-0.031,-0.017,-0.039,-0.053,-0.06
-0.019,-0.043,-0.024,0.031,0.003,-0.033,0.032,-0.031,0.011,-0.007,-0.037,-0.042
-0.022,-0.018,0.004,0.02,-0.013,-0.007,0.022,-0.028,0.035,0.009,-0.025,-0.03
0.013,0.021,0.008,-0.017,0.002,0.014,-0.018,-0.034,0.029,0.004,-0.008,-0.021
0.053,0.011,-0.042,-0.032,0.047,-0.015,-0.023,-0.049,0.002,-0.018,-0.006,-0.017
0.022,-0.056,-0.078,0.017,0.05,-0.067,-0.009,-0.062,-0.043,-0.049,-0.048,-0.056
-0.025,-0.1,-0.075,0.063,0.025,-0.087,-0.004,-0.072,-0.067,-0.07,-0.074,-0.083
-0.043,-0.083,-0.04,0.063,-0.001,-0.062,0.031,-0.077,-0.072,-0.088,-0.078,-0.088
-0.035,-0.089,-0.054,0.063,0.01,-0.071,0.036,-0.074,-0.068,-0.082,-0.069,-0.085
-0.056,-0.13,-0.074,0.094,0.009,-0.102,0.034,-0.073,-0.07,-0.088,-0.086,-0.098
-0.064,-0.128,-0.064,0.095,0.0,-0.096,0.045,-0.08,-0.072,-0.082,-0.082,-0.096
-0.057,-0.133,-0.076,0.095,0.009,-0.105,0.058,-0.066,-0.064,-0.085,-0.084,-0.104
-0.062,-0.126,-0.064,0.094,0.001,-0.095,0.052,-0.074,-0.07,-0.09,-0.067,-0.098
-0.063,-0.139,-0.076,0.101,0.006,-0.107,0.056,-0.037,-0.04,-0.086,-0.072,-0.1
-0.086,-0.146,-0.06,0.116,-0.013,-0.103,0.082,-0.004,-0.035,-0.104,-0.142,-0.147
-0.043,-0.099,-0.056,0.071,0.007,-0.077,0.145,0.245,0.223,0.05,-0.054,-0.112
0.175,0.121,-0.054,-0.148,0.114,0.034,-0.042,0.134,0.391,0.403,0.364,0.271
0.525,0.566,0.041,-0.546,0.242,0.303,-0.641,-0.729,0.029,0.834,1.141,1.106
0.535,0.413,-0.123,-0.474,0.329,0.145,-0.842,-1.111,-0.597,0.35,0.81,0.993
0.213,-0.071,-0.284,-0.071,0.248,-0.177,-0.516,-0.868,-0.958,-0.493,-0.194,0.119
0.049,-0.143,-0.193,0.047,0.122,-0.168,-0.225,-0.429,-0.588,-0.377,-0.226,-0.093
-0.001,-0.121,-0.12,0.061,0.06,-0.12,-0.048,-0.117,-0.234,-0.181,-0.145,-0.131
-0.038,-0.103,-0.065,0.071,0.014,-0.084,0.022,-0.025,-0.112,-0.096,-0.111,-0.134
-0.064,-0.12,-0.056,0.093,-0.004,-0.088,0.062,0.051,-0.015,-0.034,-0.057,-0.107
-0.057,-0.113,-0.056,0.086,0.0,-0.084,0.081,0.048,-0.012,-0.061,-0.083,-0.122
-0.052,-0.104,-0.052,0.078,0.0,-0.078,0.079,0.055,0.012,-0.033,-0.059,-0.098
-0.052,-0.103,-0.052,0.078,0.0,-0.077,0.081,0.055,0.026,-0.043,-0.074,-0.107
-0.051,-0.099,-0.048,0.075,-0.001,-0.074,0.079,0.065,0.061,-0.025,-0.06,-0.086
-0.069,-0.12,-0.051,0.094,-0.009,-0.086,0.081,0.07,0.063,-0.025,-0.067,-0.082
-0.036,-0.085,-0.049,0.061,0.006,-0.067,0.081,0.074,0.066,-0.017,-0.054,-0.069
-0.043,-0.093,-0.051,0.068,0.004,-0.071,0.086,0.085,0.073,-0.012,-0.045,-0.062
-0.04,-0.09,-0.05,0.065,0.005,-0.07,0.09,0.087,0.078,-0.01,-0.036,-0.054
-0.021,-0.071,-0.05,0.046,0.014,-0.06,0.085,0.105,0.095,-0.002,-0.024,-0.045
-0.027,-0.078,-0.051,0.052,0.012,-0.064,0.077,0.113,0.108,-0.001,-0.02,-0.042
-0.011,-0.065,-0.054,0.038,0.022,-0.059,0.068,0.122,0.112,0.008,-0.012,-0.036
-0.026,-0.083,-0.057,0.055,0.015,-0.07,0.062,0.136,0.124,0.016,-0.006,-0.033
-0.005,-0.064,-0.06,0.035,0.028,-0.062,0.052,0.163,0.156,0.024,0.001,-0.028
0.007,-0.055,-0.062,0.024,0.035,-0.058,0.054,0.19,0.177,0.037,0.007,-0.023
0.007,-0.063,-0.07,0.028,0.039,-0.066,0.063,0.205,0.205,0.053,0.027,0.001
0.037,-0.037,-0.074,0.0,0.056,-0.055,0.053,0.23,0.229,0.06,0.052,0.03
0.054,-0.016,-0.07,-0.019,0.062,-0.043,0.043,0.262,0.269,0.088,0.08,0.055
0.095,0.03,-0.065,-0.062,0.08,-0.017,0.031,0.304,0.316,0.12,0.117,0.093
0.113,0.053,-0.061,-0.083,0.087,-0.004,0.019,0.34,0.352,0.148,0.158,0.142
0.131,0.075,-0.056,-0.103,0.094,0.009,-0.004,0.358,0.397,0.184,0.206,0.188
0.168,0.117,-0.05,-0.142,0.109,0.033,-0.025,0.371,0.432,0.223,0.256,0.24
0.201,0.145,-0.056,-0.173,0.128,0.045,-0.043,0.363,0.441,0.266,0.301,0.29
0.216,0.162,-0.054,-0.188,0.134,0.054,-0.066,0.35,0.429,0.286,0.334,0.328
0.224,0.188,-0.036,-0.206,0.13,0.076,-0.073,0.339,0.418,0.298,0.342,0.35
0.239,0.215,-0.024,-0.227,0.131,0.095,-0.079,0.295,0.401,0.3,0.331,0.357
0.189,0.179,-0.009,-0.184,0.098,0.085,-0.069,0.242,0.339,0.275,0.313,0.321
0.142,0.155,0.014,-0.149,0.064,0.084,-0.048,0.187,0.262,0.242,0.268,0.249
0.112,0.133,0.021,-0.123,0.045,0.076,-0.025,0.134,0.193,0.194,0.2,0.178
0.063,0.075,0.012,-0.069,0.025,0.043,-0.002,0.097,0.12,0.14,0.127,0.106
0.036,0.042,0.006,-0.039,0.015,0.024,0.017,0.07,0.073,0.092,0.066,0.044
0.006,0.004,-0.002,-0.004,0.004,0.001,0.032,0.042,0.04,0.049,0.025,-0.006
-0.017,-0.027,-0.009,0.022,-0.004,-0.018,0.043,0.013,0.013,0.011,-0.011,-0.025
-0.034,-0.049,-0.016,0.042,-0.009,-0.032,0.05,0.003,0.008,-0.006,-0.033,-0.039
-0.049,-0.073,-0.024,0.062,-0.012,-0.048,0.05,-0.001,0.002,-0.013,-0.036,-0.06
-0.045,-0.078,-0.032,0.062,-0.006,-0.055,0.05,-0.006,-0.001,-0.023,-0.035,-0.061
-0.04,-0.071,-0.032,0.056,-0.004,-0.051,0.05,-0.009,-0.006,-0.032,-0.035,-0.059
-0.056,-0.08,-0.024,0.068,-0.015,-0.052,0.05,-0.016,-0.01,-0.039,-0.036,-0.059
-0.041,-0.061,-0.02,0.051,-0.01,-0.041,0.05,-0.011,-0.01,-0.04,-0.034,-0.052
-0.018,-0.032,-0.014,0.025,-0.002,-0.023,0.045,-0.006,-0.01,-0.04,-0.036,-0.051
-0.055,-0.063,-0.009,0.059,-0.023,-0.036,0.045,-0.012,-0.01,-0.04,-0.051,-0.069
-0.046,-0.05,-0.004,0.049,-0.021,-0.027,0.043,-0.015,-0.01,-0.04,-0.057,-0.06
-0.043,-0.042,0.001,0.042,-0.022,-0.02,0.041,-0.02,-0.01,-0.039,-0.054,-0.054
-0.077,-0.07,0.006,0.073,-0.041,-0.031,0.039,-0.025,-0.01,-0.034,-0.052,-0.06
-0.035,-0.025,0.01,0.03,-0.023,-0.007,0.045,-0.022,-0.011,-0.036,-0.049,-0.053
-0.037,-0.022,0.015,0.029,-0.026,-0.004,0.055,-0.019,-0.009,-0.034,-0.05,-0.056
-0.082,-0.062,0.02,0.072,-0.051,-0.021,0.056,-0.022,-0.011,-0.036,-0.043,-0.051
-0.073,-0.057,0.016,0.065,-0.045,-0.02,0.048,-0.018,-0.009,-0.034,-0.035,-0.05
-0.053,-0.038,0.015,0.045,-0.034,-0.012,0.055,-0.022,-0.01,-0.033,-0.031,-0.05
-0.023,-0.008,0.015,0.015,-0.019,0.004,0.077,-0.018,-0.004,-0.028,-0.024,-0.042
-0.047,-0.037,0.01,0.042,-0.029,-0.013,0.074,-0.01,0.001,-0.019,-0.045,-0.063
-0.05,-0.04,0.01,0.045,-0.03,-0.015,0.065,-0.037,-0.027,-0.042,-0.068,-0.082
-0.044,-0.035,0.009,0.039,-0.027,-0.013,0.059,-0.048,-0.038,-0.056,-0.065,-0.079
-0.063,-0.07,-0.008,0.067,-0.027,-0.039,0.05,-0.043,-0.037,-0.054,-0.063,-0.078
-0.027,-0.045,-0.018,0.037,-0.004,-0.031,0.044,-0.046,-0.042,-0.056,-0.06,-0.075
-0.044,-0.056,-0.012,0.05,-0.016,-0.033,0.039,-0.044,-0.044,-0.054,-0.06,-0.075
-0.055,-0.065,-0.01,0.06,-0.022,-0.037,0.04,-0.045,-0.045,-0.056,-0.06,-0.079
-0.028,-0.033,-0.005,0.031,-0.011,-0.019,0.038,-0.04,-0.04,-0.054,-0.06,-0.08
-0.045,-0.047,-0.002,0.047,-0.022,-0.024,0.035,-0.04,-0.04,-0.057,-0.06,-0.08
-0.066,-0.064,0.002,0.065,-0.034,-0.031,0.035,-0.041,-0.039,-0.061,-0.06,-0.08
-0.082,-0.059,0.023,0.07,-0.052,-0.018,0.049,-0.038,-0.034,-0.059,-0.06,-0.08
-0.089,-0.057,0.032,0.073,-0.06,-0.012,0.057,-0.049,-0.035,-0.061,-0.061,-0.081
-0.082,-0.055,0.027,0.068,-0.054,-0.014,0.054,-0.056,-0.037,-0.059,-0.065,-0.085
-0.078,-0.054,0.024,0.066,-0.051,-0.015,0.055,-0.05,-0.042,-0.061,-0.065,-0.085
-0.067,-0.046,0.022,0.056,-0.044,-0.012,0.055,-0.048,-0.045,-0.064,-0.067,-0.085
-0.058,-0.043,0.014,0.05,-0.036,-0.014,0.055,-0.043,-0.04,-0.066,-0.07,-0.085
-0.09,-0.07,0.02,0.08,-0.055,-0.024,0.05,-0.04,-0.04,-0.064,-0.07,-0.085
-0.11,-0.074,0.036,0.092,-0.073,-0.019,0.042,-0.052,-0.038,-0.065,-0.066,-0.082
-0.086,-0.051,0.035,0.068,-0.06,-0.008,0.036,-0.056,-0.035,-0.079,-0.065,-0.078
-0.093,-0.058,0.035,0.075,-0.063,-0.011,0.03,-0.055,-0.034,-0.077,-0.065,-0.076
-0.08,-0.049,0.03,0.064,-0.055,-0.009,0.02,-0.052,-0.04,-0.07,-0.06,-0.073
-0.073,-0.043,0.03,0.058,-0.051,-0.006,0.033,-0.049,-0.061,-0.069,-0.06,-0.07
-0.062,-0.033,0.029,0.047,-0.045,-0.002,0.047,-0.05,-0.063,-0.061,-0.059,-0.07
-0.044,-0.027,0.017,0.035,-0.03,-0.005,0.04,-0.044,-0.053,-0.063,-0.054,-0.07
-0.078,-0.071,0.008,0.074,-0.043,-0.031,0.038,-0.038,-0.049,-0.071,-0.049,-0.086
-0.07,-0.078,-0.008,0.075,-0.031,-0.042,0.034,-0.033,-0.039,-0.069,-0.045,-0.088
-0.023,-0.018,0.004,0.02,-0.013,-0.007,0.028,-0.027,-0.036,-0.044,-0.039,-0.079
-0.002,0.032,0.034,-0.015,-0.018,0.032,0.039,-0.023,-0.016,-0.036,-0.037,-0.077
-0.032,0.028,0.061,0.002,-0.047,0.044,0.038,-0.016,0.002,-0.029,-0.021,-0.049
-0.014,0.063,0.077,-0.024,-0.046,0.07,0.018,-0.01,-0.007,-0.001,0.003,-0.019
0.005,0.062,0.057,-0.034,-0.026,0.059,0.007,-0.03,-0.013,-0.001,0.006,0.0
-0.01,-0.001,0.008,0.005,-0.009,0.003,0.001,-0.057,-0.033,-0.03,-0.014,-0.027
0.011,-0.014,-0.024,0.002,0.018,-0.019,0.007,-0.063,-0.054,-0.054,-0.033,-0.05
-0.018,-0.042,-0.024,0.03,0.003,-0.033,0.017,-0.074,-0.068,-0.08,-0.055,-0.065
-0.048,-0.063,-0.015,0.056,-0.016,-0.039,0.03,-0.096,-0.092,-0.1,-0.068,-0.089
-0.052,-0.056,-0.004,0.055,-0.024,-0.03,0.036,-0.084,-0.079,-0.09,-0.069,-0.088
-0.067,-0.065,0.002,0.066,-0.034,-0.032,0.031,-0.087,-0.09,-0.101,-0.101,-0.107
-0.064,-0.052,0.012,0.058,-0.038,-0.02,0.025,-0.082,-0.082,-0.087,-0.087,-0.093
-0.085,-0.076,0.008,0.08,-0.046,-0.034,0.03,-0.075,-0.085,-0.103,-0.104,-0.108
-0.096,-0.071,0.024,0.083,-0.06,-0.023,0.042,-0.09,-0.09,-0.083,-0.086,-0.092
-0.088,-0.074,0.014,0.081,-0.051,-0.03,0.06,-0.058,-0.068,-0.091,-0.104,-0.11
-0.119,-0.079,0.04,0.098,-0.079,-0.02,0.097,0.024,-0.021,-0.095,-0.136,-0.173
-0.055,0.004,0.059,0.025,-0.057,0.031,0.145,0.279,0.289,0.118,0.012,-0.076
0.226,0.291,0.066,-0.259,0.079,0.178,-0.173,-0.076,0.326,0.526,0.57,0.479
0.558,0.662,0.105,-0.61,0.226,0.383,-0.747,-0.914,-0.137,0.822,1.215,1.216
0.445,0.356,-0.089,-0.4,0.267,0.133,-0.771,-1.098,-0.776,0.089,0.517,0.765
0.098,-0.074,-0.173,-0.012,0.136,-0.123,-0.425,-0.781,-0.951,-0.549,-0.286,-0.012
0.022,-0.056,-0.078,0.017,0.05,-0.067,-0.166,-0.321,-0.481,-0.301,-0.166,-0.09
-0.031,-0.042,-0.011,0.037,-0.01,-0.026,-0.008,-0.087,-0.217,-0.163,-0.152,-0.139
-0.059,0.003,0.062,0.027,-0.06,0.032,0.049,-0.015,-0.102,-0.061,-0.088,-0.114
-0.07,-0.017,0.053,0.043,-0.062,0.018,0.071,0.039,-0.058,-0.047,-0.073,-0.106
-0.09,-0.027,0.063,0.058,-0.076,0.018,0.074,0.028,-0.045,-0.05,-0.079,-0.102
-0.067,-0.002,0.065,0.034,-0.066,0.032,0.079,0.057,0.009,-0.029,-0.06,-0.087
-0.085,-0.019,0.066,0.052,-0.075,0.023,0.08,0.057,0.006,-0.041,-0.07,-0.095
-0.07,0.002,0.072,0.034,-0.071,0.037,0.075,0.073,0.024,-0.018,-0.049,-0.078
-0.075,-0.004,0.071,0.039,-0.074,0.034,0.072,0.093,0.027,-0.03,-0.059,-0.086
-0.043,0.034,0.077,0.004,-0.06,0.055,0.068,0.092,0.045,0.002,-0.028,-0.056
-0.051,0.018,0.07,0.016,-0.061,0.044,0.065,0.097,0.04,-0.002,-0.049,-0.073
-0.101,-0.037,0.065,0.069,-0.083,0.014,0.06,0.094,0.047,-0.019,-0.053,-0.077
-0.061,-0.004,0.057,0.032,-0.059,0.026,0.063,0.097,0.07,-0.002,-0.022,-0.048
-0.046,0.005,0.051,0.02,-0.049,0.028,0.065,0.118,0.085,0.009,-0.021,-0.046
-0.041,0.003,0.044,0.018,-0.042,0.024,0.057,0.126,0.099,0.021,-0.012,-0.039
-0.014,0.024,0.038,-0.005,-0.027,0.031,0.051,0.137,0.109,0.027,-0.005,-0.032
-0.009,0.023,0.033,-0.007,-0.021,0.028,0.044,0.158,0.133,0.038,-0.002,-0.013
-0.013,0.015,0.027,-0.001,-0.02,0.021,0.038,0.177,0.16,0.037,0.013,-0.008
0.002,0.024,0.022,-0.014,-0.01,0.023,0.032,0.199,0.18,0.036,0.036,-0.003
0.033,0.049,0.017,-0.041,0.008,0.033,0.026,0.237,0.215,0.071,0.058,0.031
0.08,0.091,0.01,-0.086,0.035,0.05,0.021,0.282,0.254,0.099,0.087,0.054
0.093,0.11,0.017,-0.102,0.038,0.063,0.014,0.304,0.294,0.125,0.129,0.098
0.068,0.103,0.035,-0.086,0.016,0.069,0.001,0.338,0.345,0.16,0.179,0.157
0.103,0.138,0.035,-0.121,0.034,0.086,-0.03,0.37,0.385,0.201,0.233,0.201
0.146,0.186,0.04,-0.166,0.053,0.113,-0.048,0.383,0.42,0.244,0.285,0.264
0.149,0.189,0.041,-0.169,0.054,0.115,-0.061,0.376,0.437,0.276,0.322,0.308
0.182,0.22,0.038,-0.201,0.072,0.129,-0.079,0.357,0.432,0.307,0.354,0.338
0.205,0.265,0.06,-0.235,0.073,0.162,-0.086,0.332,0.413,0.317,0.369,0.362
0.176,0.254,0.079,-0.215,0.048,0.166,-0.088,0.287,0.371,0.314,0.357,0.348
0.124,0.229,0.105,-0.177,0.009,0.167,-0.071,0.216,0.285,0.287,0.315,0.311
0.076,0.198,0.122,-0.137,-0.023,0.16,-0.052,0.147,0.192,0.233,0.242,0.224
0.016,0.146,0.129,-0.081,-0.057,0.137,-0.026,0.123,0.14,0.172,0.165,0.14
-0.028,0.101,0.129,-0.037,-0.078,0.114,0.006,0.095,0.072,0.116,0.103,0.089
-0.021,0.085,0.107,-0.032,-0.064,0.096,0.034,0.057,0.019,0.075,0.06,0.037
-0.038,0.061,0.099,-0.012,-0.069,0.08,0.047,0.032,-0.005,0.037,0.021,0.005
-0.051,0.042,0.094,0.004,-0.073,0.068,0.044,0.016,-0.045,0.007,-0.022,-0.039
-0.075,0.013,0.089,0.031,-0.082,0.051,0.046,0.009,-0.052,-0.01,-0.051,-0.069
-0.116,-0.033,0.083,0.074,-0.099,0.025,0.044,0.002,-0.046,-0.025,-0.06,-0.063
-0.098,-0.021,0.077,0.059,-0.087,0.028,0.045,-0.004,-0.046,-0.044,-0.064,-0.073
-0.081,-0.008,0.073,0.044,-0.077,0.032,0.045,-0.011,-0.041,-0.053,-0.061,-0.077
-0.084,-0.015,0.069,0.05,-0.076,0.026,0.044,-0.014,-0.04,-0.049,-0.058,-0.074
-0.095,-0.024,0.071,0.06,-0.083,0.023,0.061,-0.008,-0.036,-0.05,-0.055,-0.076
-0.093,-0.027,0.066,0.06,-0.079,0.019,0.066,-0.003,-0.035,-0.047,-0.053,-0.074
-0.084,-0.019,0.065,0.051,-0.074,0.023,0.061,0.004,-0.035,-0.044,-0.049,-0.076
-0.078,-0.014,0.064,0.045,-0.071,0.025,0.06,0.001,-0.035,-0.046,-0.055,-0.073
-0.057,0.01,0.067,0.023,-0.063,0.038,0.055,-0.008,-0.035,-0.043,-0.07,-0.069
-0.11,-0.025,0.084,0.067,-0.097,0.029,0.054,-0.014,-0.036,-0.054,-0.07,-0.064
-0.113,-0.031,0.082,0.072,-0.097,0.025,0.051,-0.022,-0.041,-0.057,-0.07,-0.059
-0.074,0.002,0.075,0.036,-0.075,0.038,0.046,-0.029,-0.04,-0.044,-0.071,-0.056
-0.09,-0.017,0.073,0.053,-0.082,0.028,0.044,-0.036,-0.042,-0.044,-0.069,-0.048
-0.057,0.009,0.066,0.024,-0.062,0.038,0.039,-0.041,-0.046,-0.051,-0.072,-0.068
-0.074,-0.008,0.066,0.041,-0.07,0.029,0.035,-0.05,-0.045,-0.06,-0.075,-0.088
-0.1,-0.03,0.07,0.065,-0.085,0.02,0.037,-0.059,-0.042,-0.069,-0.075,-0.084
-0.077,-0.007,0.07,0.042,-0.073,0.031,0.045,-0.061,-0.039,-0.071,-0.077,-0.086
-0.081,-0.011,0.07,0.046,-0.075,0.029,0.05,-0.064,-0.041,-0.074,-0.08,-0.085
-0.08,-0.01,0.07,0.045,-0.075,0.03,0.06,-0.066,-0.038,-0.077,-0.08,-0.085
-0.066,0.003,0.07,0.031,-0.068,0.036,0.07,-0.07,-0.044,-0.079,-0.076,-0.082
-0.072,0.002,0.074,0.035,-0.073,0.038,0.07,-0.068,-0.059,-0.082,-0.075,-0.079
-0.109,-0.035,0.074,0.072,-0.091,0.019,0.07,-0.065,-0.061,-0.085,-0.075,-0.081
-0.109,-0.039,0.07,0.074,-0.089,0.015,0.07,-0.064,-0.058,-0.085,-0.07,-0.079
-0.102,-0.035,0.068,0.068,-0.085,0.016,0.07,-0.061,-0.057,-0.087,-0.07,-0.081
-0.095,-0.03,0.065,0.062,-0.079,0.017,0.07,-0.058,-0.053,-0.091,-0.071,-0.079
-0.083,-0.021,0.062,0.052,-0.072,0.02,0.065,-0.068,-0.057,-0.09,-0.08,-0.083
-0.108,-0.048,0.059,0.078,-0.083,0.005,0.065,-0.086,-0.069,-0.087,-0.095,-0.1
-0.083,-0.019,0.064,0.051,-0.074,0.023,0.064,-0.081,-0.067,-0.082,-0.093,-0.098
-0.092,-0.023,0.069,0.057,-0.08,0.023,0.059,-0.076,-0.061,-0.079,-0.089,-0.094
-0.119,-0.055,0.064,0.087,-0.092,0.005,0.061,-0.073,-0.058,-0.076,-0.086,-0.091
-0.097,-0.036,0.061,0.067,-0.078,0.012,0.057,-0.067,-0.052,-0.071,-0.081,-0.086
-0.102,-0.044,0.058,0.073,-0.08,0.006,0.055,-0.066,-0.051,-0.071,-0.08,-0.084
-0.094,-0.041,0.053,0.067,-0.074,0.006,0.055,-0.063,-0.055,-0.076,-0.08,-0.085
-0.084,-0.034,0.05,0.059,-0.067,0.008,0.055,-0.075,-0.055,-0.075,-0.087,-0.093
-0.079,-0.032,0.046,0.055,-0.062,0.006,0.055,-0.085,-0.055,-0.075,-0.091,-0.096
-0.071,-0.026,0.045,0.048,-0.057,0.009,0.055,-0.077,-0.056,-0.075,-0.09,-0.095
-0.07,-0.025,0.045,0.047,-0.057,0.01,0.059,-0.072,-0.054,-0.074,-0.09,-0.094
-0.096,-0.056,0.04,0.076,-0.068,-0.008,0.06,-0.068,-0.054,-0.077,-0.091,-0.097
-0.117,-0.077,0.04,0.097,-0.078,-0.018,0.06,-0.057,-0.045,-0.072,-0.089,-0.091
-0.119,-0.079,0.04,0.099,-0.079,-0.019,0.06,-0.068,-0.061,-0.085,-0.082,-0.099
-0.099,-0.045,0.054,0.072,-0.076,0.004,0.061,-0.065,-0.054,-0.08,-0.061,-0.093
-0.048,0.041,0.089,0.003,-0.068,0.065,0.056,-0.039,-0.026,-0.047,-0.061,-0.078
-0.063,0.041,0.104,0.011,-0.084,0.072,0.04,-0.028,-0.037,-0.043,-0.061,-0.077
-0.047,0.047,0.094,0.0,-0.071,0.07,0.024,-0.021,-0.037,-0.041,-0.033,-0.043
-0.012,0.068,0.08,-0.028,-0.046,0.074,0.011,-0.047,-0.027,-0.026,-0.027,-0.025
-0.025,0.043,0.067,-0.009,-0.046,0.055,-0.002,-0.056,-0.028,-0.034,-0.039,-0.041
-0.026,0.035,0.061,-0.004,-0.044,0.047,-0.005,-0.066,-0.057,-0.072,-0.064,-0.067
-0.043,0.012,0.054,0.015,-0.049,0.033,0.025,-0.075,-0.062,-0.077,-0.075,-0.071
-0.044,0.002,0.047,0.021,-0.046,0.025,0.047,-0.074,-0.067,-0.084,-0.087,-0.086
-0.063,-0.021,0.042,0.042,-0.052,0.01,0.045,-0.085,-0.085,-0.097,-0.095,-0.105
-0.065,-0.032,0.033,0.048,-0.049,0.0,0.045,-0.095,-0.096,-0.112,-0.105,-0.111
-0.074,-0.042,0.032,0.058,-0.052,-0.005,0.037,-0.092,-0.087,-0.1,-0.103,-0.118
-0.097,-0.068,0.029,0.082,-0.063,-0.019,0.042,-0.078,-0.077,-0.109,-0.122,-0.139
-0.076,-0.034,0.042,0.055,-0.059,0.004,0.029,-0.094,-0.086,-0.104,-0.111,-0.136
-0.074,-0.04,0.034,0.057,-0.054,-0.003,0.043,-0.038,-0.046,-0.102,-0.115,-0.136
-0.07,-0.042,0.028,0.055,-0.049,-0.007,0.105,0.023,-0.02,-0.097,-0.143,-0.178
-0.053,-0.023,0.029,0.038,-0.041,0.003,0.154,0.249,0.249,0.085,-0.046,-0.128
0.154,0.271,0.117,-0.212,0.018,0.194,-0.107,0.011,0.333,0.501,0.487,0.396
0.438,0.732,0.294,-0.585,0.072,0.512,-0.66,-0.827,-0.154,0.934,1.262,1.222
0.357,0.46,0.103,-0.408,0.127,0.282,-0.744,-1.091,-0.803,0.225,0.659,0.894
0.094,-0.029,-0.123,-0.032,0.108,-0.076,-0.432,-0.813,-0.999,-0.613,-0.294,0.031
-0.004,-0.063,-0.06,0.034,0.028,-0.061,-0.179,-0.376,-0.536,-0.382,-0.213,-0.108
-0.018,-0.031,-0.013,0.024,-0.002,-0.022,-0.031,-0.109,-0.224,-0.205,-0.176,-0.138
-0.028,0.013,0.041,0.007,-0.035,0.027,0.017,-0.036,-0.1,-0.108,-0.121,-0.13
-0.008,0.048,0.057,-0.02,-0.033,0.052,0.067,0.015,-0.03,-0.062,-0.085,-0.115
-0.008,0.047,0.054,-0.02,-0.031,0.05,0.072,0.009,-0.042,-0.08,-0.117,-0.122
-0.01,0.048,0.058,-0.019,-0.035,0.053,0.068,0.034,0.003,-0.05,-0.083,-0.1
-0.013,0.039,0.051,-0.013,-0.032,0.045,0.072,0.031,0.006,-0.056,-0.089,-0.107
-0.026,0.039,0.066,-0.007,-0.046,0.052,0.068,0.047,0.02,-0.027,-0.066,-0.092
-0.039,0.034,0.073,0.002,-0.056,0.053,0.072,0.064,0.026,-0.028,-0.07,-0.094
-0.061,0.006,0.067,0.027,-0.063,0.036,0.065,0.071,0.035,-0.017,-0.057,-0.083
-0.028,0.03,0.058,-0.001,-0.043,0.044,0.065,0.082,0.054,-0.014,-0.053,-0.081
-0.004,0.05,0.054,-0.023,-0.03,0.051,0.065,0.08,0.06,-0.008,-0.046,-0.073
0.0,0.043,0.044,-0.022,-0.022,0.043,0.065,0.095,0.07,-0.001,-0.036,-0.062
0.013,0.064,0.05,-0.039,-0.019,0.057,0.065,0.105,0.08,0.001,-0.03,-0.053
0.006,0.066,0.059,-0.036,-0.027,0.062,0.064,0.112,0.09,0.01,-0.019,-0.041
0.02,0.07,0.05,-0.045,-0.015,0.06,0.057,0.126,0.108,0.013,-0.016,-0.03
0.024,0.069,0.044,-0.047,-0.01,0.056,0.051,0.156,0.138,0.02,-0.004,-0.018
0.042,0.08,0.038,-0.061,0.002,0.059,0.044,0.18,0.161,0.037,0.002,-0.003
0.054,0.083,0.029,-0.068,0.012,0.056,0.039,0.195,0.182,0.052,0.026,0.017
0.039,0.074,0.035,-0.057,0.002,0.054,0.029,0.221,0.217,0.065,0.057,0.037
0.059,0.105,0.046,-0.082,0.006,0.075,0.021,0.263,0.256,0.091,0.084,0.069
0.093,0.131,0.038,-0.112,0.027,0.084,0.008,0.305,0.307,0.135,0.135,0.117
0.114,0.148,0.034,-0.131,0.04,0.09,-0.012,0.332,0.344,0.17,0.176,0.161
0.153,0.185,0.032,-0.169,0.06,0.108,-0.03,0.358,0.379,0.205,0.225,0.216
0.185,0.205,0.02,-0.196,0.082,0.113,-0.057,0.365,0.413,0.243,0.27,0.262
0.209,0.252,0.043,-0.231,0.083,0.147,-0.068,0.372,0.425,0.281,0.319,0.311
0.242,0.306,0.064,-0.274,0.089,0.184,-0.096,0.371,0.432,0.315,0.362,0.357
0.222,0.296,0.074,-0.26,0.074,0.185,-0.116,0.333,0.398,0.305,0.354,0.367
0.202,0.287,0.084,-0.245,0.059,0.185,-0.099,0.268,0.352,0.294,0.348,0.356
0.178,0.279,0.101,-0.229,0.038,0.19,-0.096,0.203,0.286,0.276,0.315,0.31
0.125,0.245,0.12,-0.186,0.003,0.182,-0.074,0.16,0.188,0.222,0.241,0.236
0.079,0.185,0.107,-0.132,-0.014,0.146,-0.038,0.107,0.122,0.171,0.16,0.156
0.032,0.132,0.1,-0.082,-0.034,0.115,-0.026,0.07,0.063,0.113,0.089,0.085
0.012,0.105,0.093,-0.059,-0.041,0.099,-0.019,0.05,0.011,0.051,0.033,0.028
0.004,0.089,0.085,-0.047,-0.041,0.087,-0.013,0.026,-0.028,0.015,-0.003,-0.011
-0.005,0.076,0.081,-0.036,-0.043,0.078,-0.003,0.01,-0.042,-0.014,-0.022,-0.033
-0.013,0.061,0.074,-0.024,-0.044,0.067,0.01,-0.006,-0.04,-0.037,-0.052,-0.051
-0.018,0.051,0.069,-0.017,-0.044,0.06,0.018,-0.023,-0.058,-0.048,-0.062,-0.067
-0.019,0.045,0.064,-0.013,-0.042,0.054,0.032,-0.037,-0.061,-0.055,-0.068,-0.077
-0.019,0.039,0.059,-0.01,-0.039,0.049,0.034,-0.036,-0.059,-0.055,-0.073,-0.076
-0.021,0.034,0.054,-0.007,-0.038,0.044,0.027,-0.029,-0.06,-0.055,-0.067,-0.075
-0.025,0.026,0.051,-0.001,-0.038,0.038,0.024,-0.026,-0.06,-0.055,-0.066,-0.074
-0.024,0.019,0.044,0.002,-0.034,0.031,0.018,-0.021,-0.06,-0.055,-0.062,-0.069
-0.039,0.012,0.051,0.013,-0.046,0.031,0.015,-0.016,-0.056,-0.053,-0.061,-0.071
-0.057,0.004,0.061,0.027,-0.06,0.032,0.01,-0.017,-0.054,-0.049,-0.057,-0.067
-0.063,-0.003,0.06,0.033,-0.061,0.028,0.012,-0.028,-0.05,-0.051,-0.055,-0.065
-0.057,0.0,0.057,0.028,-0.057,0.029,0.016,-0.037,-0.048,-0.046,-0.056,-0.065
-0.03,0.026,0.056,0.001,-0.043,0.041,0.015,-0.041,-0.044,-0.045,-0.051,-0.065
-0.014,0.039,0.053,-0.013,-0.033,0.046,0.015,-0.04,-0.046,-0.045,-0.05,-0.065
-0.03,0.03,0.061,0.0,-0.046,0.045,0.015,-0.04,-0.043,-0.04,-0.049,-0.066
-0.047,0.024,0.071,0.012,-0.059,0.047,0.02,-0.04,-0.048,-0.041,-0.046,-0.069
-0.049,0.017,0.066,0.016,-0.058,0.041,0.02,-0.04,-0.058,-0.039,-0.04,-0.071
-0.055,0.008,0.062,0.023,-0.059,0.035,0.02,-0.042,-0.057,-0.046,-0.046,-0.069
-0.051,0.008,0.059,0.021,-0.055,0.033,0.02,-0.041,-0.076,-0.064,-0.061,-0.071
-0.041,0.013,0.054,0.014,-0.048,0.034,0.019,-0.039,-0.082,-0.065,-0.06,-0.069
-0.032,0.023,0.055,0.004,-0.044,0.039,0.024,-0.034,-0.079,-0.07,-0.06,-0.073
-0.031,0.036,0.067,-0.003,-0.049,0.051,0.026,-0.046,-0.081,-0.069,-0.06,-0.082
-0.048,0.023,0.071,0.012,-0.06,0.047,0.022,-0.058,-0.08,-0.064,-0.059,-0.08
-0.058,0.012,0.069,0.023,-0.064,0.04,0.018,-0.052,-0.08,-0.061,-0.061,-0.073
-0.054,0.016,0.07,0.019,-0.063,0.043,0.016,-0.05,-0.074,-0.056,-0.059,-0.069
-0.051,0.019,0.07,0.016,-0.061,0.044,0.008,-0.048,-0.069,-0.055,-0.062,-0.063
-0.045,0.025,0.07,0.01,-0.058,0.047,0.019,-0.042,-0.06,-0.046,-0.057,-0.055
-0.031,0.033,0.064,-0.001,-0.048,0.048,0.045,-0.062,-0.073,-0.064,-0.058,-0.065
-0.038,0.02,0.059,0.009,-0.049,0.039,0.043,-0.082,-0.088,-0.087,-0.066,-0.076
-0.066,-0.013,0.053,0.039,-0.06,0.02,0.036,-0.076,-0.084,-0.077,-0.065,-0.075
-0.044,0.005,0.049,0.019,-0.046,0.027,0.035,-0.072,-0.083,-0.072,-0.064,-0.074
-0.008,0.032,0.04,-0.012,-0.024,0.035,0.027,-0.069,-0.08,-0.07,-0.066,-0.08
-0.036,0.02,0.056,0.008,-0.046,0.038,0.026,-0.064,-0.08,-0.066,-0.064,-0.09
-0.073,0.009,0.082,0.032,-0.078,0.045,0.029,-0.063,-0.081,-0.065,-0.062,-0.085
-0.087,-0.004,0.083,0.045,-0.085,0.039,0.034,-0.056,-0.079,-0.06,-0.059,-0.08
-0.1,-0.02,0.08,0.06,-0.09,0.03,0.035,-0.056,-0.082,-0.061,-0.06,-0.077
-0.12,-0.045,0.076,0.082,-0.098,0.015,0.035,-0.076,-0.093,-0.069,-0.075,-0.07
-0.118,-0.046,0.073,0.082,-0.095,0.013,0.047,-0.082,-0.095,-0.07,-0.082,-0.073
-0.104,-0.035,0.069,0.069,-0.086,0.016,0.047,-0.079,-0.095,-0.07,-0.079,-0.082
-0.095,-0.03,0.064,0.062,-0.079,0.017,0.038,-0.081,-0.099,-0.071,-0.081,-0.081
-0.089,-0.027,0.062,0.058,-0.076,0.017,0.033,-0.079,-0.101,-0.079,-0.08,-0.076
-0.078,-0.021,0.056,0.049,-0.067,0.017,0.026,-0.081,-0.098,-0.082,-0.081,-0.074
-0.066,-0.009,0.056,0.037,-0.061,0.023,0.02,-0.084,-0.094,-0.086,-0.073,-0.07
-0.061,0.001,0.062,0.03,-0.061,0.031,0.022,-0.083,-0.088,-0.086,-0.065,-0.066
-0.032,0.038,0.07,-0.003,-0.051,0.054,0.018,-0.064,-0.087,-0.063,-0.056,-0.062
-0.03,0.042,0.072,-0.007,-0.051,0.057,0.024,-0.057,-0.07,-0.049,-0.05,-0.049
-0.032,0.047,0.079,-0.008,-0.056,0.062,0.026,-0.033,-0.033,-0.046,-0.038,-0.037
0.023,0.106,0.084,-0.065,-0.031,0.095,-0.018,-0.034,-0.041,-0.036,-0.018,-0.041
0.075,0.128,0.053,-0.102,0.01,0.09,-0.036,-0.078,-0.051,-0.019,-0.019,-0.046
0.075,0.075,0.0,-0.075,0.037,0.037,-0.02,-0.093,-0.081,-0.055,-0.045,-0.057
0.052,0.027,-0.025,-0.039,0.039,0.0,-0.014,-0.105,-0.111,-0.098,-0.059,-0.061
0.025,0.023,-0.003,-0.024,0.014,0.01,-0.001,-0.111,-0.1,-0.107,-0.06,-0.059
-0.005,0.003,0.009,0.001,-0.007,0.006,0.006,-0.109,-0.117,-0.103,-0.065,-0.066
-0.026,-0.032,-0.006,0.029,-0.009,-0.019,0.018,-0.099,-0.121,-0.108,-0.09,-0.099
-0.035,-0.041,-0.006,0.038,-0.015,-0.023,0.028,-0.108,-0.129,-0.124,-0.1,-0.121
-0.044,-0.063,-0.019,0.054,-0.012,-0.041,0.016,-0.091,-0.109,-0.108,-0.091,-0.111
-0.062,-0.079,-0.016,0.071,-0.023,-0.047,0.013,-0.127,-0.125,-0.12,-0.108,-0.124
-0.046,-0.058,-0.011,0.052,-0.017,-0.034,0.041,-0.105,-0.1,-0.093,-0.077,-0.101
-0.067,-0.071,-0.004,0.07,-0.032,-0.037,0.067,-0.055,-0.105,-0.118,-0.125,-0.138
-0.1,-0.069,0.031,0.084,-0.066,-0.018,0.121,0.104,0.043,-0.056,-0.115,-0.164
0.072,0.09,0.018,-0.081,0.027,0.054,0.053,0.223,0.344,0.249,0.168,0.077
0.408,0.531,0.124,-0.47,0.142,0.327,-0.463,-0.513,0.097,0.723,0.921,0.846
0.566,0.615,0.049,-0.591,0.258,0.332,-0.863,-1.138,-0.477,0.616,1.099,1.183
0.357,0.123,-0.234,-0.24,0.295,-0.055,-0.652,-0.982,-0.95,-0.303,0.085,0.392
0.116,-0.093,-0.209,-0.011,0.163,-0.151,-0.308,-0.583,-0.802,-0.508,-0.276,-0.07
0.005,-0.076,-0.081,0.036,0.043,-0.079,-0.089,-0.198,-0.352,-0.236,-0.136,-0.096
-0.066,-0.077,-0.011,0.072,-0.028,-0.043,0.003,-0.066,-0.2,-0.158,-0.159,-0.149
-0.052,-0.051,0.001,0.052,-0.026,-0.025,0.041,-0.009,-0.097,-0.069,-0.085,-0.108
-0.026,-0.037,-0.01,0.032,-0.008,-0.023,0.08,0.006,-0.081,-0.085,-0.106,-0.126
-0.029,-0.024,0.005,0.026,-0.017,-0.01,0.084,0.018,-0.059,-0.059,-0.076,-0.106
-0.032,-0.036,-0.004,0.034,-0.014,-0.02,0.086,0.035,-0.044,-0.059,-0.079,-0.108
-0.027,-0.024,0.004,0.026,-0.016,-0.01,0.084,0.033,-0.039,-0.05,-0.074,-0.1
-0.053,-0.04,0.014,0.046,-0.033,-0.013,0.085,0.037,-0.021,-0.04,-0.066,-0.091
-0.048,-0.034,0.014,0.041,-0.031,-0.01,0.085,0.043,-0.018,-0.042,-0.067,-0.088
-0.015,-0.008,0.007,0.011,-0.011,-0.001,0.081,0.055,-0.003,-0.031,-0.057,-0.077
-0.02,-0.018,0.002,0.019,-0.011,-0.008,0.079,0.055,0.002,-0.035,-0.056,-0.076
0.014,0.01,-0.004,-0.011,0.009,0.003,0.075,0.071,0.008,-0.024,-0.048,-0.066
0.02,0.011,-0.009,-0.015,0.014,0.001,0.074,0.075,0.022,-0.028,-0.043,-0.062
-0.017,-0.027,-0.01,0.022,-0.003,-0.018,0.069,0.082,0.048,-0.032,-0.039,-0.054
0.001,-0.009,-0.01,0.004,0.006,-0.009,0.072,0.101,0.058,-0.022,-0.028,-0.048
0.013,0.003,-0.01,-0.008,0.011,-0.003,0.082,0.131,0.079,-0.009,-0.006,-0.038
-0.014,-0.025,-0.01,0.02,-0.002,-0.017,0.076,0.149,0.102,0.002,-0.011,-0.023
0.017,0.007,-0.01,-0.012,0.013,-0.002,0.065,0.163,0.126,0.014,0.016,-0.01
0.044,0.034,-0.01,-0.039,0.027,0.011,0.056,0.202,0.163,0.03,0.044,0.005
0.055,0.045,-0.01,-0.05,0.032,0.017,0.045,0.235,0.199,0.052,0.057,0.031
0.065,0.055,-0.01,-0.06,0.037,0.022,0.037,0.275,0.239,0.079,0.096,0.066
0.085,0.075,-0.01,-0.08,0.047,0.032,0.031,0.313,0.288,0.114,0.137,0.114
0.136,0.126,-0.01,-0.131,0.073,0.058,0.022,0.343,0.335,0.155,0.19,0.166
0.133,0.123,-0.01,-0.128,0.071,0.056,0.002,0.364,0.372,0.193,0.236,0.213
0.166,0.162,-0.004,-0.164,0.085,0.078,-0.028,0.355,0.393,0.232,0.274,0.261
0.215,0.224,0.009,-0.219,0.102,0.116,-0.045,0.345,0.395,0.269,0.318,0.306
0.227,0.247,0.02,-0.237,0.104,0.133,-0.064,0.333,0.388,0.274,0.331,0.332
0.216,0.252,0.035,-0.234,0.09,0.143,-0.071,0.291,0.364,0.28,0.325,0.336
0.187,0.252,0.065,-0.22,0.061,0.158,-0.048,0.237,0.307,0.271,0.316,0.32
0.166,0.243,0.077,-0.205,0.044,0.16,-0.041,0.174,0.224,0.23,0.259,0.253
0.114,0.183,0.069,-0.149,0.022,0.126,-0.036,0.115,0.142,0.179,0.191,0.179
0.082,0.145,0.062,-0.114,0.01,0.103,-0.007,0.076,0.078,0.125,0.133,0.115
0.039,0.092,0.054,-0.066,-0.008,0.073,0.034,0.034,0.027,0.071,0.06,0.04
-0.027,0.019,0.046,0.004,-0.037,0.032,0.048,-0.001,-0.028,0.019,0.016,0.0
-0.037,0.002,0.039,0.017,-0.038,0.02,0.043,-0.023,-0.064,-0.014,-0.008,-0.029
-0.04,-0.009,0.03,0.024,-0.035,0.01,0.046,-0.033,-0.075,-0.027,-0.032,-0.045
-0.031,-0.011,0.02,0.021,-0.025,0.004,0.054,-0.039,-0.081,-0.044,-0.042,-0.055
-0.023,-0.013,0.01,0.018,-0.016,-0.002,0.056,-0.053,-0.092,-0.071,-0.056,-0.075
-0.036,-0.036,0.0,0.037,-0.018,-0.018,0.046,-0.06,-0.102,-0.081,-0.072,-0.081
-0.021,-0.029,-0.008,0.025,-0.006,-0.018,0.041,-0.065,-0.097,-0.09,-0.07,-0.08
0.002,-0.014,-0.016,0.007,0.009,-0.015,0.035,-0.073,-0.095,-0.094,-0.069,-0.078
-0.009,-0.033,-0.024,0.021,0.008,-0.029,0.026,-0.07,-0.091,-0.103,-0.082,-0.094
-0.013,-0.043,-0.03,0.028,0.009,-0.036,0.035,-0.068,-0.09,-0.115,-0.09,-0.105
0.044,0.002,-0.042,-0.023,0.043,-0.02,0.046,-0.065,-0.09,-0.105,-0.082,-0.097
0.052,0.004,-0.048,-0.028,0.05,-0.022,0.057,-0.061,-0.093,-0.099,-0.078,-0.093
0.019,-0.025,-0.043,0.003,0.031,-0.034,0.06,-0.06,-0.102,-0.093,-0.072,-0.086
0.032,-0.008,-0.04,-0.012,0.036,-0.024,0.054,-0.06,-0.097,-0.086,-0.065,-0.081
0.006,-0.031,-0.037,0.013,0.022,-0.033,0.052,-0.076,-0.094,-0.082,-0.081,-0.076
-0.005,-0.037,-0.032,0.022,0.014,-0.035,0.047,-0.081,-0.091,-0.079,-0.086,-0.075
0.016,-0.013,-0.029,-0.001,0.023,-0.021,0.044,-0.079,-0.086,-0.08,-0.081,-0.075
0.026,-0.015,-0.041,-0.006,0.034,-0.027,0.046,-0.081,-0.086,-0.081,-0.08,-0.076
0.041,-0.005,-0.046,-0.017,0.043,-0.025,0.045,-0.079,-0.094,-0.078,-0.075,-0.074
0.03,-0.016,-0.046,-0.007,0.038,-0.03,0.043,-0.082,-0.102,-0.086,-0.076,-0.079
0.025,-0.025,-0.051,0.0,0.038,-0.038,0.056,-0.069,-0.098,-0.085,-0.066,-0.088
-0.002,-0.051,-0.049,0.027,0.023,-0.05,0.056,-0.08,-0.107,-0.094,-0.078,-0.098
-0.031,-0.077,-0.047,0.055,0.008,-0.062,0.045,-0.108,-0.121,-0.117,-0.103,-0.116
-0.015,-0.053,-0.039,0.034,0.012,-0.046,0.04,-0.104,-0.12,-0.115,-0.097,-0.114
0.008,-0.049,-0.057,0.021,0.033,-0.053,0.032,-0.105,-0.118,-0.115,-0.095,-0.109
0.038,-0.047,-0.085,0.004,0.062,-0.066,0.026,-0.105,-0.115,-0.116,-0.093,-0.109
0.036,-0.045,-0.081,0.005,0.059,-0.063,0.019,-0.104,-0.114,-0.114,-0.087,-0.102
0.058,-0.036,-0.093,-0.011,0.076,-0.064,0.012,-0.106,-0.119,-0.117,-0.102,-0.117
0.072,-0.036,-0.108,-0.018,0.09,-0.071,0.008,-0.108,-0.132,-0.128,-0.116,-0.131
0.079,-0.041,-0.12,-0.019,0.1,-0.08,-0.002,-0.121,-0.143,-0.142,-0.115,-0.13
0.147,-0.008,-0.156,-0.069,0.152,-0.082,-0.009,-0.13,-0.15,-0.139,-0.119,-0.13
0.168,-0.003,-0.171,-0.083,0.17,-0.086,-0.017,-0.13,-0.149,-0.139,-0.121,-0.13
0.17,-0.009,-0.179,-0.08,0.175,-0.094,-0.025,-0.131,-0.153,-0.15,-0.115,-0.138
0.186,0.002,-0.184,-0.094,0.186,-0.091,-0.018,-0.128,-0.162,-0.154,-0.12,-0.141
0.162,-0.015,-0.177,-0.073,0.169,-0.095,-0.036,-0.141,-0.16,-0.162,-0.13,-0.135
0.127,-0.045,-0.173,-0.041,0.15,-0.109,-0.048,-0.15,-0.152,-0.168,-0.123,-0.133
0.133,-0.035,-0.169,-0.049,0.151,-0.102,-0.034,-0.141,-0.146,-0.157,-0.115,-0.128
0.135,-0.029,-0.164,-0.052,0.149,-0.096,-0.026,-0.138,-0.139,-0.15,-0.11,-0.125
0.138,-0.022,-0.16,-0.058,0.149,-0.09,-0.015,-0.13,-0.131,-0.142,-0.1,-0.128
0.168,-0.003,-0.171,-0.082,0.17,-0.087,-0.012,-0.127,-0.134,-0.143,-0.109,-0.137
0.136,-0.04,-0.176,-0.048,0.156,-0.108,-0.005,-0.121,-0.139,-0.146,-0.118,-0.139
0.124,-0.055,-0.179,-0.035,0.152,-0.117,-0.004,-0.12,-0.151,-0.149,-0.11,-0.133
0.161,-0.021,-0.182,-0.07,0.172,-0.101,0.005,-0.121,-0.158,-0.152,-0.108,-0.127
0.165,-0.021,-0.186,-0.072,0.176,-0.103,0.001,-0.117,-0.143,-0.156,-0.102,-0.122
0.166,-0.03,-0.196,-0.068,0.181,-0.113,-0.022,-0.132,-0.136,-0.153,-0.099,-0.116
0.166,-0.002,-0.168,-0.082,0.167,-0.085,-0.026,-0.112,-0.121,-0.121,-0.091,-0.11
0.156,0.029,-0.128,-0.092,0.142,-0.049,-0.004,-0.084,-0.105,-0.082,-0.075,-0.099
0.139,0.046,-0.093,-0.092,0.115,-0.023,0.03,-0.082,-0.099,-0.057,-0.044,-0.065
0.131,0.078,-0.053,-0.104,0.092,0.012,-0.008,-0.076,-0.101,-0.05,-0.019,-0.042
0.103,0.054,-0.048,-0.078,0.075,0.003,-0.04,-0.073,-0.097,-0.043,-0.031,-0.046
0.093,0.007,-0.085,-0.05,0.089,-0.039,-0.016,-0.066,-0.095,-0.063,-0.044,-0.045
0.055,-0.032,-0.087,-0.012,0.071,-0.059,0.0,-0.069,-0.096,-0.076,-0.05,-0.046
-0.029,-0.079,-0.05,0.055,0.01,-0.064,0.029,-0.074,-0.09,-0.075,-0.058,-0.056
-0.039,-0.053,-0.014,0.046,-0.012,-0.033,0.055,-0.076,-0.093,-0.075,-0.053,-0.053
-0.092,-0.073,0.019,0.082,-0.055,-0.027,0.077,-0.061,-0.082,-0.074,-0.055,-0.065
-0.176,-0.132,0.043,0.154,-0.109,-0.044,0.073,-0.071,-0.092,-0.08,-0.047,-0.067
-0.204,-0.143,0.061,0.173,-0.132,-0.04,0.078,-0.049,-0.074,-0.065,-0.032,-0.046
-0.25,-0.142,0.108,0.196,-0.179,-0.017,0.102,-0.046,-0.073,-0.074,-0.036,-0.051
-0.295,-0.132,0.164,0.213,-0.229,0.016,0.124,-0.013,-0.027,-0.036,-0.008,-0.019
-0.352,-0.153,0.199,0.252,-0.275,0.022,0.171,0.037,-0.007,-0.034,-0.041,-0.053
-0.383,-0.154,0.229,0.268,-0.306,0.037,0.232,0.199,0.13,0.037,-0.007,-0.073
-0.217,-0.011,0.207,0.114,-0.212,0.097,0.18,0.34,0.439,0.309,0.236,0.152
0.126,0.428,0.303,-0.277,-0.089,0.365,-0.329,-0.367,0.242,0.787,0.975,0.914
0.266,0.527,0.261,-0.397,0.002,0.394,-0.762,-1.042,-0.362,0.699,1.166,1.263
0.02,0.018,-0.002,-0.019,0.011,0.008,-0.558,-0.944,-0.875,-0.244,0.151,0.459
-0.177,-0.176,0.001,0.177,-0.089,-0.087,-0.225,-0.546,-0.736,-0.458,-0.21,-0.011
-0.235,-0.117,0.118,0.176,-0.176,0.001,-0.001,-0.144,-0.283,-0.171,-0.063,-0.021
-0.3,-0.122,0.179,0.211,-0.239,0.028,0.116,-0.008,-0.127,-0.097,-0.079,-0.071
-0.294,-0.11,0.184,0.202,-0.239,0.036,0.142,0.058,-0.02,-0.007,-0.008,-0.029
-0.281,-0.11,0.171,0.195,-0.226,0.03,0.141,0.078,0.004,-0.02,-0.033,-0.044
-0.26,-0.082,0.178,0.171,-0.219,0.047,0.146,0.084,0.033,0.0,-0.006,-0.023
-0.272,-0.105,0.166,0.189,-0.218,0.03,0.168,0.095,0.057,-0.002,-0.006,-0.023
-0.288,-0.113,0.175,0.2,-0.231,0.03,0.16,0.089,0.053,0.003,0.001,-0.019
-0.279,-0.106,0.172,0.192,-0.225,0.033,0.159,0.102,0.063,0.011,0.01,-0.012
-0.264,-0.098,0.166,0.181,-0.215,0.033,0.155,0.097,0.061,0.01,0.009,-0.014
-0.252,-0.093,0.159,0.172,-0.205,0.033,0.15,0.109,0.08,0.024,0.02,-0.003
-0.208,-0.058,0.15,0.133,-0.179,0.046,0.148,0.116,0.085,0.025,0.019,-0.008
-0.184,-0.04,0.145,0.112,-0.164,0.052,0.14,0.123,0.095,0.036,0.027,-0.021
-0.25,-0.114,0.137,0.182,-0.193,0.012,0.137,0.126,0.1,0.039,0.019,-0.027
-0.233,-0.105,0.128,0.169,-0.18,0.011,0.13,0.13,0.106,0.04,0.02,-0.015
-0.182,-0.065,0.117,0.123,-0.149,0.026,0.125,0.144,0.123,0.042,0.022,-0.008
-0.169,-0.061,0.108,0.115,-0.138,0.023,0.12,0.158,0.137,0.045,0.029,0.001
-0.148,-0.051,0.097,0.099,-0.122,0.023,0.114,0.176,0.152,0.045,0.035,0.017
-0.141,-0.053,0.088,0.097,-0.114,0.017,0.108,0.199,0.176,0.047,0.05,0.033
-0.124,-0.047,0.077,0.085,-0.101,0.015,0.101,0.228,0.212,0.061,0.073,0.055
-0.077,-0.006,0.071,0.041,-0.074,0.033,0.094,0.26,0.244,0.091,0.086,0.076
-0.054,0.012,0.066,0.021,-0.06,0.039,0.088,0.297,0.282,0.112,0.122,0.105
-0.047,0.014,0.061,0.016,-0.054,0.037,0.079,0.329,0.333,0.14,0.168,0.15
-0.002,0.052,0.055,-0.025,-0.029,0.053,0.054,0.357,0.374,0.181,0.212,0.198
0.043,0.094,0.05,-0.069,-0.004,0.071,0.033,0.384,0.418,0.224,0.268,0.258
0.072,0.137,0.065,-0.104,0.003,0.101,0.02,0.385,0.452,0.263,0.312,0.31
0.083,0.16,0.076,-0.122,0.004,0.118,0.007,0.386,0.449,0.296,0.361,0.352
0.08,0.168,0.088,-0.124,-0.004,0.128,0.003,0.376,0.437,0.313,0.381,0.372
0.075,0.188,0.113,-0.132,-0.019,0.151,-0.002,0.334,0.411,0.304,0.369,0.362
0.055,0.196,0.14,-0.126,-0.043,0.168,-0.005,0.279,0.353,0.296,0.359,0.352
0.005,0.159,0.154,-0.082,-0.075,0.156,0.012,0.206,0.275,0.266,0.313,0.304
-0.029,0.117,0.146,-0.044,-0.088,0.131,0.039,0.149,0.19,0.216,0.238,0.224
-0.063,0.077,0.14,-0.007,-0.102,0.109,0.063,0.111,0.119,0.159,0.165,0.149
-0.105,0.031,0.136,0.037,-0.121,0.083,0.065,0.075,0.065,0.095,0.103,0.081
-0.108,0.015,0.122,0.046,-0.115,0.068,0.084,0.047,0.027,0.055,0.056,0.033
-0.156,-0.049,0.107,0.102,-0.131,0.029,0.111,0.022,-0.004,0.019,0.019,-0.005
-0.163,-0.065,0.099,0.114,-0.131,0.017,0.104,0.007,-0.029,-0.007,-0.007,-0.023
-0.137,-0.046,0.091,0.091,-0.114,0.022,0.097,-0.007,-0.041,-0.027,-0.025,-0.029
-0.158,-0.076,0.082,0.117,-0.12,0.003,0.092,-0.018,-0.041,-0.039,-0.042,-0.046
-0.134,-0.06,0.074,0.096,-0.103,0.007,0.082,-0.024,-0.039,-0.04,-0.044,-0.041
-0.143,-0.077,0.065,0.11,-0.104,-0.006,0.084,-0.039,-0.054,-0.061,-0.056,-0.062
-0.142,-0.085,0.057,0.113,-0.099,-0.014,0.103,-0.046,-0.061,-0.072,-0.068,-0.085
-0.133,-0.084,0.049,0.108,-0.091,-0.017,0.106,-0.04,-0.055,-0.069,-0.061,-0.075
-0.125,-0.083,0.042,0.104,-0.083,-0.02,0.105,-0.038,-0.053,-0.071,-0.06,-0.076
-0.096,-0.06,0.036,0.078,-0.065,-0.012,0.11,-0.033,-0.048,-0.07,-0.056,-0.071
-0.09,-0.064,0.026,0.077,-0.058,-0.018,0.11,-0.03,-0.045,-0.07,-0.055,-0.07
-0.076,-0.054,0.023,0.065,-0.049,-0.015,0.109,-0.034,-0.049,-0.067,-0.051,-0.067
-0.084,-0.055,0.029,0.07,-0.057,-0.012,0.105,-0.035,-0.05,-0.064,-0.05,-0.062
-0.066,-0.038,0.027,0.052,-0.047,-0.005,0.105,-0.036,-0.053,-0.062,-0.05,-0.06
-0.074,-0.056,0.018,0.065,-0.046,-0.019,0.105,-0.042,-0.055,-0.058,-0.045,-0.055
-0.097,-0.083,0.014,0.09,-0.055,-0.035,0.105,-0.046,-0.057,-0.056,-0.045,-0.051
-0.067,-0.062,0.005,0.064,-0.035,-0.028,0.105,-0.043,-0.059,-0.054,-0.044,-0.05
-0.068,-0.068,0.0,0.068,-0.033,-0.033,0.102,-0.05,-0.063,-0.059,-0.047,-0.058
-0.084,-0.062,0.022,0.073,-0.053,-0.02,0.097,-0.065,-0.064,-0.069,-0.043,-0.059
-0.104,-0.073,0.032,0.088,-0.067,-0.02,0.094,-0.065,-0.07,-0.074,-0.059,-0.067
-0.109,-0.087,0.023,0.098,-0.066,-0.032,0.091,-0.066,-0.081,-0.08,-0.082,-0.077
-0.071,-0.053,0.018,0.062,-0.044,-0.017,0.086,-0.071,-0.08,-0.082,-0.074,-0.074
-0.089,-0.075,0.014,0.082,-0.051,-0.031,0.086,-0.069,-0.08,-0.085,-0.07,-0.075
-0.096,-0.094,0.002,0.095,-0.049,-0.046,0.091,-0.073,-0.08,-0.088,-0.067,-0.075
-0.056,-0.066,-0.01,0.061,-0.023,-0.038,0.094,-0.075,-0.079,-0.09,-0.059,-0.075
-0.055,-0.064,-0.009,0.06,-0.023,-0.036,0.092,-0.075,-0.083,-0.093,-0.069,-0.081
-0.044,-0.056,-0.012,0.051,-0.016,-0.034,0.089,-0.075,-0.092,-0.096,-0.081,-0.086
-0.049,-0.06,-0.011,0.054,-0.019,-0.035,0.09,-0.076,-0.096,-0.1,-0.079,-0.084
-0.076,-0.084,-0.009,0.08,-0.033,-0.046,0.09,-0.079,-0.094,-0.099,-0.082,-0.085
-0.055,-0.078,-0.023,0.067,-0.016,-0.05,0.09,-0.084,-0.099,-0.095,-0.086,-0.085
-0.025,-0.06,-0.035,0.043,0.005,-0.048,0.091,-0.084,-0.099,-0.091,-0.084,-0.084
-0.047,-0.082,-0.035,0.065,-0.006,-0.058,0.095,-0.087,-0.101,-0.089,-0.083,-0.098
-0.044,-0.08,-0.036,0.062,-0.003,-0.058,0.095,-0.082,-0.092,-0.083,-0.077,-0.107
-0.03,-0.071,-0.04,0.05,0.005,-0.055,0.091,-0.085,-0.097,-0.096,-0.089,-0.104
-0.055,-0.095,-0.04,0.075,-0.007,-0.067,0.089,-0.106,-0.115,-0.117,-0.105,-0.105
-0.042,-0.079,-0.038,0.061,-0.002,-0.058,0.09,-0.1,-0.109,-0.109,-0.099,-0.105
-0.038,-0.073,-0.035,0.056,-0.002,-0.053,0.09,-0.095,-0.103,-0.105,-0.094,-0.105
-0.045,-0.077,-0.032,0.061,-0.006,-0.054,0.09,-0.092,-0.098,-0.102,-0.088,-0.105
-0.045,-0.074,-0.029,0.059,-0.007,-0.051,0.09,-0.085,-0.091,-0.095,-0.081,-0.105
-0.05,-0.076,-0.026,0.064,-0.012,-0.051,0.097,-0.088,-0.09,-0.098,-0.082,-0.105
-0.049,-0.074,-0.025,0.062,-0.012,-0.049,0.107,-0.09,-0.089,-0.1,-0.085,-0.105
-0.056,-0.091,-0.035,0.073,-0.01,-0.063,0.105,-0.09,-0.091,-0.104,-0.084,-0.105
-0.054,-0.091,-0.036,0.073,-0.009,-0.063,0.105,-0.09,-0.091,-0.106,-0.08,-0.103
-0.051,-0.082,-0.031,0.067,-0.01,-0.056,0.103,-0.09,-0.084,-0.11,-0.08,-0.098
-0.047,-0.076,-0.029,0.062,-0.009,-0.052,0.1,-0.089,-0.078,-0.111,-0.08,-0.093
-0.042,-0.065,-0.024,0.054,-0.008,-0.044,0.1,-0.08,-0.07,-0.098,-0.08,-0.091
-0.03,-0.051,-0.021,0.04,-0.004,-0.036,0.104,-0.067,-0.064,-0.08,-0.076,-0.071
-0.017,-0.034,-0.017,0.026,0.0,-0.025,0.108,-0.065,-0.06,-0.064,-0.062,-0.053
0.012,0.001,-0.011,-0.006,0.012,-0.005,0.086,-0.065,-0.056,-0.057,-0.048,-0.055
0.057,0.052,-0.005,-0.054,0.03,0.024,0.064,-0.065,-0.055,-0.064,-0.046,-0.057
0.06,0.033,-0.027,-0.046,0.043,0.003,0.066,-0.066,-0.047,-0.062,-0.043,-0.059
0.047,-0.027,-0.073,-0.01,0.06,-0.05,0.058,-0.068,-0.077,-0.074,-0.055,-0.062
0.022,-0.063,-0.085,0.021,0.054,-0.074,0.066,-0.085,-0.1,-0.089,-0.076,-0.062
-0.006,-0.092,-0.086,0.049,0.04,-0.089,0.097,-0.1,-0.101,-0.104,-0.095,-0.076
0.001,-0.082,-0.084,0.041,0.043,-0.083,0.103,-0.103,-0.112,-0.096,-0.086,-0.079
0.005,-0.081,-0.086,0.038,0.046,-0.083,0.115,-0.095,-0.107,-0.105,-0.099,-0.099
-0.036,-0.12,-0.084,0.078,0.025,-0.102,0.115,-0.107,-0.129,-0.127,-0.124,-0.112
-0.034,-0.119,-0.084,0.077,0.026,-0.102,0.115,-0.092,-0.111,-0.119,-0.119,-0.103
-0.026,-0.114,-0.087,0.07,0.031,-0.1,0.117,-0.105,-0.124,-0.133,-0.137,-0.108
-0.057,-0.129,-0.072,0.094,0.008,-0.1,0.111,-0.079,-0.102,-0.104,-0.106,-0.082
-0.056,-0.138,-0.082,0.097,0.014,-0.11,0.147,-0.042,-0.099,-0.145,-0.161,-0.157
-0.017,-0.097,-0.08,0.057,0.032,-0.088,0.219,0.115,0.055,-0.051,-0.125,-0.169
0.117,0.019,-0.098,-0.068,0.108,-0.04,0.167,0.251,0.361,0.239,0.147,0.07
0.41,0.448,0.038,-0.429,0.186,0.243,-0.325,-0.43,0.139,0.726,0.913,0.852
0.561,0.615,0.054,-0.588,0.254,0.334,-0.707,-1.101,-0.485,0.657,1.114,1.221
0.273,0.059,-0.214,-0.166,0.243,-0.078,-0.515,-1.022,-1.014,-0.346,0.03,0.359
0.081,-0.159,-0.24,0.039,0.161,-0.2,-0.21,-0.612,-0.841,-0.568,-0.333,-0.13
0.047,-0.099,-0.146,0.026,0.097,-0.123,0.002,-0.209,-0.365,-0.253,-0.164,-0.124
-0.014,-0.106,-0.092,0.06,0.039,-0.098,0.092,-0.065,-0.193,-0.166,-0.168,-0.169
0.011,-0.065,-0.077,0.027,0.044,-0.071,0.15,-0.004,-0.082,-0.067,-0.085,-0.12
-0.03,-0.115,-0.085,0.073,0.027,-0.1,0.182,0.012,-0.061,-0.084,-0.119,-0.135
-0.009,-0.08,-0.071,0.045,0.031,-0.075,0.166,0.032,-0.038,-0.057,-0.089,-0.11
-0.008,-0.083,-0.074,0.046,0.033,-0.078,0.168,0.042,-0.029,-0.054,-0.096,-0.107
-0.027,-0.094,-0.067,0.06,0.021,-0.08,0.16,0.042,-0.022,-0.046,-0.088,-0.1
0.002,-0.07,-0.072,0.034,0.037,-0.07,0.155,0.069,-0.003,-0.039,-0.079,-0.095
-0.013,-0.082,-0.069,0.047,0.028,-0.075,0.157,0.067,0.001,-0.043,-0.08,-0.096
0.003,-0.069,-0.071,0.033,0.037,-0.07,0.171,0.075,0.018,-0.03,-0.066,-0.088
0.003,-0.065,-0.068,0.031,0.036,-0.066,0.169,0.076,0.023,-0.035,-0.068,-0.082
0.024,-0.055,-0.079,0.016,0.052,-0.066,0.164,0.085,0.036,-0.024,-0.056,-0.043
0.018,-0.083,-0.102,0.032,0.06,-0.092,0.163,0.096,0.049,-0.03,-0.055,-0.04
-0.001,-0.101,-0.1,0.051,0.05,-0.1,0.159,0.104,0.064,-0.035,-0.045,-0.056
0.036,-0.064,-0.1,0.014,0.068,-0.081,0.158,0.117,0.076,-0.01,-0.032,-0.034
0.037,-0.063,-0.101,0.013,0.069,-0.082,0.152,0.126,0.093,0.006,-0.017,-0.019
0.031,-0.068,-0.099,0.019,0.065,-0.083,0.148,0.147,0.118,0.009,-0.005,-0.015
0.059,-0.043,-0.103,-0.008,0.082,-0.073,0.144,0.182,0.145,0.029,0.02,0.002
0.088,-0.021,-0.109,-0.033,0.098,-0.064,0.138,0.21,0.182,0.047,0.049,0.029
0.072,-0.033,-0.105,-0.019,0.089,-0.069,0.135,0.238,0.218,0.066,0.075,0.062
0.091,-0.015,-0.106,-0.038,0.099,-0.06,0.123,0.268,0.253,0.1,0.096,0.082
0.145,0.042,-0.103,-0.093,0.124,-0.03,0.103,0.299,0.303,0.138,0.14,0.129
0.173,0.062,-0.111,-0.117,0.142,-0.024,0.093,0.335,0.351,0.18,0.209,0.202
0.196,0.082,-0.114,-0.139,0.155,-0.016,0.082,0.357,0.389,0.227,0.265,0.257
0.211,0.127,-0.085,-0.169,0.148,0.021,0.073,0.376,0.419,0.279,0.322,0.315
0.237,0.172,-0.065,-0.205,0.151,0.054,0.073,0.374,0.436,0.315,0.367,0.366
0.267,0.208,-0.059,-0.237,0.162,0.075,0.077,0.361,0.421,0.342,0.394,0.392
0.238,0.205,-0.033,-0.221,0.135,0.085,0.079,0.314,0.372,0.343,0.387,0.385
0.188,0.191,0.003,-0.19,0.092,0.097,0.083,0.237,0.315,0.305,0.35,0.352
0.148,0.169,0.021,-0.159,0.063,0.095,0.085,0.185,0.236,0.266,0.293,0.297
0.08,0.119,0.039,-0.099,0.02,0.079,0.087,0.135,0.145,0.211,0.202,0.202
0.036,0.074,0.039,-0.055,-0.002,0.056,0.114,0.095,0.076,0.141,0.114,0.114
0.006,0.031,0.024,-0.019,-0.009,0.027,0.135,0.054,0.023,0.084,0.055,0.059
-0.03,-0.006,0.024,0.018,-0.027,0.009,0.153,0.025,-0.009,0.032,0.019,0.022
-0.049,-0.042,0.007,0.046,-0.028,-0.017,0.161,0.02,-0.042,-0.012,-0.021,-0.007
-0.044,-0.06,-0.016,0.052,-0.013,-0.038,0.16,0.002,-0.07,-0.029,-0.048,-0.028
-0.027,-0.054,-0.028,0.041,0.001,-0.041,0.159,-0.015,-0.07,-0.042,-0.052,-0.041
-0.036,-0.079,-0.043,0.058,0.004,-0.061,0.162,-0.024,-0.071,-0.059,-0.063,-0.06
-0.046,-0.092,-0.046,0.07,0.0,-0.069,0.186,-0.032,-0.068,-0.063,-0.072,-0.072
-0.043,-0.083,-0.04,0.063,-0.002,-0.061,0.192,-0.041,-0.076,-0.065,-0.071,-0.069
-0.054,-0.093,-0.039,0.074,-0.007,-0.066,0.193,-0.045,-0.083,-0.065,-0.068,-0.07
-0.052,-0.086,-0.034,0.07,-0.009,-0.06,0.198,-0.045,-0.074,-0.065,-0.065,-0.07
-0.025,-0.062,-0.037,0.044,0.006,-0.049,0.199,-0.048,-0.065,-0.065,-0.063,-0.07
0.002,-0.046,-0.048,0.022,0.025,-0.047,0.202,-0.05,-0.057,-0.065,-0.058,-0.067
-0.011,-0.062,-0.051,0.037,0.02,-0.056,0.205,-0.05,-0.055,-0.064,-0.067,-0.064
-0.028,-0.074,-0.045,0.051,0.009,-0.06,0.205,-0.046,-0.052,-0.058,-0.075,-0.066
-0.009,-0.049,-0.04,0.029,0.016,-0.044,0.204,-0.045,-0.049,-0.053,-0.069,-0.065
0.002,-0.033,-0.035,0.016,0.018,-0.034,0.206,-0.044,-0.046,-0.047,-0.064,-0.066
-0.027,-0.057,-0.03,0.042,0.002,-0.043,0.204,-0.041,-0.045,-0.042,-0.059,-0.063
-0.059,-0.082,-0.023,0.071,-0.018,-0.052,0.209,-0.039,-0.06,-0.035,-0.051,-0.06
-0.048,-0.071,-0.023,0.06,-0.013,-0.047,0.213,-0.043,-0.068,-0.046,-0.054,-0.058
-0.026,-0.066,-0.04,0.047,0.007,-0.053,0.219,-0.058,-0.065,-0.065,-0.067,-0.054
-0.016,-0.062,-0.046,0.039,0.015,-0.053,0.219,-0.061,-0.066,-0.065,-0.072,-0.052
-0.022,-0.063,-0.041,0.043,0.01,-0.052,0.221,-0.059,-0.06,-0.069,-0.073,-0.048
-0.035,-0.074,-0.039,0.055,0.002,-0.057,0.241,-0.062,-0.063,-0.072,-0.079,-0.058
-0.025,-0.061,-0.036,0.044,0.005,-0.048,0.246,-0.066,-0.091,-0.074,-0.079,-0.069
-0.018,-0.051,-0.033,0.035,0.008,-0.042,0.25,-0.071,-0.097,-0.077,-0.076,-0.071
-0.022,-0.053,-0.031,0.037,0.004,-0.041,0.246,-0.07,-0.094,-0.067,-0.073,-0.068
-0.045,-0.075,-0.03,0.06,-0.008,-0.052,0.254,-0.07,-0.101,-0.077,-0.07,-0.065
-0.069,-0.113,-0.044,0.091,-0.012,-0.078,0.252,-0.07,-0.099,-0.092,-0.068,-0.063
-0.025,-0.08,-0.055,0.053,0.015,-0.067,0.216,-0.07,-0.102,-0.089,-0.063,-0.058
-0.017,-0.066,-0.048,0.042,0.016,-0.057,0.202,-0.07,-0.105,-0.088,-0.074,-0.071
-0.044,-0.088,-0.044,0.066,0.0,-0.066,0.189,-0.07,-0.105,-0.085,-0.082,-0.081
-0.038,-0.075,-0.037,0.057,0.0,-0.056,0.177,-0.079,-0.107,-0.085,-0.079,-0.079
-0.028,-0.061,-0.033,0.045,0.003,-0.047,0.171,-0.075,-0.11,-0.085,-0.08,-0.081
-0.027,-0.053,-0.027,0.04,0.0,-0.04,0.161,-0.078,-0.11,-0.084,-0.08,-0.076
-0.075,-0.097,-0.023,0.086,-0.026,-0.06,0.153,-0.095,-0.106,-0.086,-0.08,-0.075
-0.04,-0.075,-0.034,0.058,-0.003,-0.054,0.142,-0.09,-0.1,-0.084,-0.076,-0.075
-0.018,-0.053,-0.035,0.036,0.009,-0.044,0.133,-0.084,-0.095,-0.086,-0.075,-0.075
-0.068,-0.103,-0.035,0.086,-0.017,-0.068,0.123,-0.08,-0.089,-0.083,-0.075,-0.075
-0.036,-0.071,-0.035,0.054,0.0,-0.053,0.115,-0.072,-0.083,-0.08,-0.074,-0.075
-0.029,-0.063,-0.034,0.047,0.003,-0.049,0.107,-0.074,-0.081,-0.08,-0.076,-0.075
-0.043,-0.079,-0.037,0.061,-0.003,-0.058,0.099,-0.074,-0.089,-0.079,-0.073,-0.075
-0.039,-0.079,-0.04,0.059,0.001,-0.059,0.092,-0.082,-0.094,-0.081,-0.071,-0.075
-0.056,-0.101,-0.045,0.079,-0.005,-0.073,0.086,-0.093,-0.084,-0.078,-0.068,-0.075
-0.061,-0.106,-0.045,0.084,-0.008,-0.075,0.079,-0.084,-0.095,-0.091,-0.082,-0.076
-0.05,-0.094,-0.043,0.073,-0.004,-0.068,0.073,-0.074,-0.103,-0.095,-0.089,-0.069
-0.029,-0.043,-0.014,0.036,-0.007,-0.028,0.066,-0.072,-0.074,-0.069,-0.067,-0.055
-0.002,0.006,0.008,-0.002,-0.005,0.007,0.059,-0.076,-0.049,-0.047,-0.048,-0.038
0.002,0.004,0.001,-0.004,0.0,0.003,0.048,-0.074,-0.042,-0.033,-0.032,-0.028
-0.012,0.002,0.014,0.005,-0.013,0.008,0.01,-0.076,-0.048,-0.038,-0.031,-0.032
0.037,0.032,-0.005,-0.035,0.021,0.013,-0.024,-0.074,-0.04,-0.03,-0.018,-0.029
0.043,-0.002,-0.046,-0.02,0.044,-0.024,-0.02,-0.076,-0.069,-0.055,-0.037,-0.03
-0.008,-0.078,-0.07,0.043,0.031,-0.074,-0.01,-0.089,-0.095,-0.088,-0.074,-0.052
-0.022,-0.09,-0.067,0.056,0.023,-0.078,0.006,-0.089,-0.085,-0.092,-0.082,-0.069
-0.034,-0.073,-0.039,0.054,0.003,-0.056,0.012,-0.093,-0.101,-0.085,-0.078,-0.063
-0.025,-0.074,-0.049,0.05,0.012,-0.061,0.029,-0.088,-0.106,-0.085,-0.081,-0.066
-0.045,-0.102,-0.057,0.074,0.006,-0.079,0.031,-0.108,-0.13,-0.109,-0.097,-0.085
-0.052,-0.112,-0.06,0.082,0.004,-0.086,0.025,-0.089,-0.104,-0.097,-0.089,-0.08
-0.034,-0.096,-0.062,0.065,0.014,-0.079,0.011,-0.1,-0.121,-0.111,-0.104,-0.095
-0.015,-0.072,-0.056,0.044,0.021,-0.064,0.009,-0.083,-0.091,-0.082,-0.081,-0.079
-0.035,-0.1,-0.065,0.068,0.015,-0.082,0.043,-0.051,-0.071,-0.115,-0.117,-0.112
-0.054,-0.103,-0.049,0.079,-0.002,-0.076,0.079,0.085,0.036,-0.057,-0.107,-0.143
0.074,0.032,-0.042,-0.053,0.058,-0.005,0.04,0.238,0.347,0.236,0.136,0.07
0.362,0.46,0.098,-0.411,0.132,0.279,-0.461,-0.431,0.156,0.739,0.887,0.826
0.57,0.626,0.056,-0.598,0.257,0.34,-0.902,-1.097,-0.409,0.748,1.195,1.266
0.348,0.092,-0.257,-0.22,0.302,-0.082,-0.716,-1.003,-0.92,-0.227,0.168,0.515
0.079,-0.182,-0.261,0.052,0.171,-0.221,-0.388,-0.619,-0.822,-0.536,-0.311,-0.033
0.005,-0.123,-0.129,0.059,0.067,-0.126,-0.157,-0.221,-0.355,-0.239,-0.142,-0.061
-0.071,-0.132,-0.061,0.102,-0.005,-0.096,-0.067,-0.079,-0.199,-0.159,-0.15,-0.106
-0.071,-0.104,-0.033,0.088,-0.019,-0.069,-0.036,-0.023,-0.098,-0.058,-0.071,-0.071
-0.064,-0.103,-0.039,0.084,-0.012,-0.071,-0.016,-0.007,-0.075,-0.069,-0.097,-0.084
-0.058,-0.089,-0.031,0.074,-0.013,-0.06,-0.016,0.003,-0.037,-0.047,-0.078,-0.068
-0.042,-0.08,-0.038,0.061,-0.002,-0.058,-0.007,0.024,-0.018,-0.047,-0.073,-0.066
-0.041,-0.075,-0.033,0.058,-0.004,-0.054,0.002,0.03,-0.027,-0.044,-0.071,-0.063
-0.033,-0.068,-0.035,0.051,0.001,-0.051,0.022,0.039,-0.004,-0.031,-0.058,-0.055
-0.036,-0.066,-0.03,0.051,-0.002,-0.048,0.016,0.031,-0.003,-0.035,-0.062,-0.057
-0.031,-0.06,-0.029,0.045,-0.001,-0.045,0.009,0.048,0.016,-0.02,-0.049,-0.048
-0.017,-0.048,-0.031,0.033,0.007,-0.04,0.002,0.056,0.028,-0.021,-0.052,-0.049
-0.032,-0.06,-0.029,0.046,-0.001,-0.044,-0.003,0.066,0.047,-0.008,-0.043,-0.042
-0.031,-0.062,-0.032,0.046,0.001,-0.047,-0.018,0.073,0.047,-0.006,-0.039,-0.033
0.003,-0.023,-0.026,0.01,0.015,-0.024,-0.031,0.085,0.068,0.003,-0.028,-0.02
-0.018,-0.042,-0.024,0.03,0.003,-0.032,-0.03,0.101,0.093,0.006,-0.02,-0.018
-0.032,-0.066,-0.033,0.049,0.001,-0.049,-0.026,0.116,0.097,0.01,-0.012,-0.013
-0.014,-0.05,-0.037,0.032,0.012,-0.043,-0.025,0.148,0.12,0.029,-0.003,0.008
0.0,-0.033,-0.033,0.017,0.016,-0.033,-0.051,0.172,0.144,0.031,0.002,0.022
0.037,0.005,-0.032,-0.021,0.034,-0.014,-0.06,0.194,0.169,0.053,0.03,0.046
0.05,0.022,-0.028,-0.036,0.039,-0.003,-0.063,0.235,0.211,0.077,0.063,0.07
0.071,0.038,-0.033,-0.054,0.052,0.002,-0.063,0.273,0.257,0.103,0.101,0.101
0.126,0.079,-0.047,-0.103,0.086,0.016,-0.081,0.314,0.313,0.15,0.149,0.149
0.16,0.108,-0.053,-0.134,0.106,0.027,-0.114,0.348,0.36,0.173,0.184,0.189
0.182,0.121,-0.061,-0.151,0.121,0.03,-0.124,0.364,0.391,0.216,0.237,0.246
0.208,0.155,-0.053,-0.181,0.13,0.051,-0.152,0.381,0.423,0.263,0.294,0.303
0.232,0.194,-0.038,-0.213,0.135,0.077,-0.164,0.378,0.432,0.288,0.334,0.345
0.235,0.207,-0.028,-0.221,0.131,0.089,-0.175,0.36,0.42,0.309,0.368,0.383
0.213,0.204,-0.008,-0.208,0.11,0.098,-0.18,0.307,0.391,0.309,0.366,0.382
0.181,0.194,0.013,-0.188,0.083,0.103,-0.165,0.248,0.33,0.3,0.338,0.351
0.148,0.187,0.039,-0.168,0.054,0.113,-0.159,0.196,0.245,0.266,0.283,0.298
0.109,0.155,0.046,-0.132,0.031,0.1,-0.143,0.131,0.157,0.207,0.207,0.221
0.065,0.102,0.037,-0.083,0.014,0.069,-0.123,0.083,0.087,0.148,0.134,0.149
0.028,0.057,0.029,-0.042,-0.001,0.043,-0.102,0.038,0.029,0.089,0.072,0.083
0.005,0.026,0.021,-0.015,-0.008,0.023,-0.087,0.015,-0.02,0.042,0.021,0.032
-0.007,0.007,0.014,-0.001,-0.01,0.01,-0.085,0.004,-0.048,0.009,-0.013,0.005
-0.031,-0.021,0.01,0.026,-0.021,-0.005,-0.085,-0.02,-0.065,-0.011,-0.029,-0.001
-0.058,-0.051,0.007,0.055,-0.032,-0.022,-0.081,-0.04,-0.071,-0.022,-0.046,-0.015
-0.062,-0.057,0.005,0.059,-0.033,-0.026,-0.08,-0.043,-0.072,-0.035,-0.05,-0.046
-0.054,-0.053,0.001,0.053,-0.027,-0.025,-0.08,-0.04,-0.077,-0.044,-0.055,-0.051
-0.061,-0.061,0.0,0.061,-0.03,-0.03,-0.08,-0.04,-0.073,-0.057,-0.068,-0.049
-0.074,-0.07,0.004,0.072,-0.038,-0.033,-0.08,-0.038,-0.081,-0.071,-0.065,-0.051
-0.071,-0.065,0.006,0.067,-0.038,-0.03,-0.08,-0.035,-0.09,-0.07,-0.065,-0.05
-0.064,-0.06,0.004,0.062,-0.034,-0.028,-0.079,-0.035,-0.082,-0.068,-0.065,-0.049
-0.052,-0.057,-0.005,0.055,-0.023,-0.031,-0.081,-0.035,-0.076,-0.065,-0.065,-0.045
-0.043,-0.051,-0.007,0.048,-0.018,-0.029,-0.077,-0.035,-0.069,-0.065,-0.065,-0.043
-0.046,-0.048,-0.002,0.047,-0.022,-0.024,-0.073,-0.035,-0.062,-0.063,-0.062,-0.04
-0.045,-0.044,0.001,0.045,-0.022,-0.022,-0.068,-0.035,-0.06,-0.059,-0.06,-0.037
-0.049,-0.045,0.004,0.047,-0.026,-0.02,-0.064,-0.035,-0.06,-0.057,-0.06,-0.035
-0.052,-0.042,0.009,0.047,-0.03,-0.017,-0.086,-0.045,-0.06,-0.054,-0.06,-0.042
-0.047,-0.038,0.009,0.042,-0.028,-0.014,-0.097,-0.051,-0.059,-0.051,-0.06,-0.046
-0.048,-0.044,0.005,0.046,-0.026,-0.019,-0.094,-0.049,-0.061,-0.05,-0.06,-0.044
-0.027,-0.022,0.005,0.024,-0.016,-0.008,-0.093,-0.051,-0.063,-0.044,-0.05,-0.046
-0.039,-0.034,0.005,0.036,-0.022,-0.014,-0.089,-0.054,-0.071,-0.052,-0.061,-0.045
-0.063,-0.058,0.005,0.06,-0.034,-0.026,-0.091,-0.055,-0.08,-0.067,-0.077,-0.046
-0.036,-0.031,0.005,0.033,-0.02,-0.012,-0.085,-0.055,-0.081,-0.064,-0.075,-0.049
-0.033,-0.032,0.001,0.032,-0.017,-0.015,-0.08,-0.055,-0.078,-0.065,-0.074,-0.05
-0.027,-0.027,0.0,0.027,-0.013,-0.014,-0.074,-0.055,-0.076,-0.065,-0.07,-0.05
-0.036,-0.036,0.0,0.036,-0.018,-0.017,-0.07,-0.057,-0.074,-0.065,-0.069,-0.05
-0.056,-0.057,0.0,0.057,-0.028,-0.028,-0.062,-0.061,-0.079,-0.062,-0.073,-0.052
-0.054,-0.054,0.001,0.054,-0.027,-0.026,-0.063,-0.065,-0.095,-0.06,-0.082,-0.056
-0.055,-0.056,-0.001,0.056,-0.026,-0.029,-0.085,-0.07,-0.097,-0.06,-0.081,-0.054
-0.046,-0.053,-0.007,0.05,-0.019,-0.03,-0.085,-0.07,-0.094,-0.06,-0.079,-0.055
-0.045,-0.058,-0.013,0.052,-0.016,-0.035,-0.085,-0.07,-0.096,-0.06,-0.081,-0.055
-0.024,-0.043,-0.019,0.034,-0.002,-0.031,-0.085,-0.07,-0.094,-0.06,-0.079,-0.055
-0.056,-0.073,-0.017,0.064,-0.019,-0.044,-0.085,-0.07,-0.096,-0.08,-0.081,-0.067
-0.058,-0.072,-0.014,0.065,-0.021,-0.043,-0.084,-0.068,-0.092,-0.086,-0.077,-0.071
-0.009,-0.024,-0.015,0.017,0.003,-0.02,-0.071,-0.064,-0.09,-0.078,-0.075,-0.069
-0.066,-0.076,-0.01,0.071,-0.028,-0.043,-0.09,-0.066,-0.09,-0.078,-0.075,-0.067
-0.05,-0.06,-0.01,0.055,-0.02,-0.035,-0.097,-0.061,-0.09,-0.071,-0.071,-0.064
-0.035,-0.044,-0.009,0.04,-0.013,-0.026,-0.082,-0.059,-0.09,-0.07,-0.07,-0.066
-0.073,-0.066,0.007,0.069,-0.04,-0.029,-0.078,-0.061,-0.09,-0.07,-0.07,-0.069
-0.05,-0.037,0.013,0.043,-0.031,-0.011,-0.078,-0.058,-0.095,-0.069,-0.077,-0.07
-0.067,-0.06,0.006,0.063,-0.036,-0.027,-0.082,-0.069,-0.095,-0.079,-0.088,-0.07
-0.063,-0.058,0.005,0.06,-0.034,-0.026,-0.085,-0.076,-0.096,-0.086,-0.09,-0.07
-0.061,-0.061,0.0,0.061,-0.03,-0.03,-0.084,-0.075,-0.1,-0.085,-0.09,-0.07
-0.073,-0.077,-0.003,0.075,-0.035,-0.04,-0.077,-0.073,-0.1,-0.082,-0.09,-0.068
-0.057,-0.061,-0.004,0.059,-0.026,-0.033,-0.092,-0.07,-0.098,-0.08,-0.09,-0.065
-0.059,-0.059,0.0,0.059,-0.03,-0.029,-0.099,-0.07,-0.091,-0.08,-0.09,-0.062
-0.052,-0.051,0.0,0.051,-0.026,-0.025,-0.092,-0.066,-0.084,-0.081,-0.096,-0.06
-0.036,-0.044,-0.008,0.04,-0.014,-0.025,-0.087,-0.059,-0.077,-0.077,-0.088,-0.055
-0.054,-0.025,0.03,0.039,-0.041,0.003,-0.081,-0.042,-0.071,-0.056,-0.068,-0.055
-0.038,0.021,0.059,0.008,-0.048,0.039,-0.076,-0.03,-0.051,-0.033,-0.042,-0.037
-0.017,0.031,0.048,-0.007,-0.033,0.039,-0.074,-0.03,-0.022,-0.027,-0.024,-0.013
-0.013,0.03,0.044,-0.009,-0.029,0.037,-0.128,-0.03,-0.021,-0.016,-0.019,-0.006
0.026,0.056,0.03,-0.041,-0.002,0.043,-0.152,-0.023,-0.031,-0.012,-0.013,0.001
0.01,0.009,-0.001,-0.01,0.006,0.004,-0.139,-0.042,-0.065,-0.051,-0.044,-0.023
-0.019,-0.045,-0.027,0.032,0.004,-0.036,-0.129,-0.072,-0.097,-0.072,-0.061,-0.051
-0.027,-0.05,-0.023,0.039,-0.002,-0.036,-0.091,-0.067,-0.093,-0.067,-0.062,-0.056
-0.052,-0.049,0.004,0.05,-0.028,-0.022,-0.084,-0.074,-0.096,-0.064,-0.065,-0.054
-0.077,-0.082,-0.005,0.079,-0.036,-0.043,-0.076,-0.065,-0.107,-0.087,-0.087,-0.071
-0.08,-0.098,-0.018,0.089,-0.031,-0.058,-0.073,-0.076,-0.129,-0.107,-0.107,-0.078
-0.072,-0.093,-0.022,0.082,-0.024,-0.057,-0.066,-0.065,-0.106,-0.092,-0.091,-0.07
-0.08,-0.1,-0.02,0.09,-0.03,-0.06,-0.06,-0.08,-0.122,-0.11,-0.112,-0.083
-0.087,-0.099,-0.012,0.093,-0.038,-0.055,-0.064,-0.08,-0.101,-0.088,-0.083,-0.063
-0.078,-0.101,-0.022,0.09,-0.028,-0.061,-0.045,-0.037,-0.086,-0.113,-0.123,-0.109
-0.083,-0.072,0.011,0.077,-0.047,-0.03,-0.005,0.123,0.039,-0.044,-0.114,-0.133
0.056,0.031,-0.025,-0.043,0.04,0.003,-0.025,0.272,0.35,0.229,0.131,0.061
0.424,0.47,0.047,-0.447,0.188,0.258,-0.513,-0.394,0.182,0.713,0.862,0.814
0.594,0.621,0.027,-0.608,0.284,0.323,-0.98,-1.081,-0.398,0.694,1.139,1.234
0.348,0.11,-0.238,-0.229,0.293,-0.064,-0.785,-0.992,-0.93,-0.24,0.138,0.462
0.108,-0.119,-0.227,0.006,0.168,-0.172,-0.443,-0.593,-0.821,-0.508,-0.301,-0.052
0.015,-0.09,-0.105,0.038,0.061,-0.098,-0.211,-0.186,-0.35,-0.218,-0.141,-0.074
-0.036,-0.084,-0.048,0.06,0.006,-0.066,-0.095,-0.04,-0.185,-0.145,-0.144,-0.115
-0.023,-0.054,-0.031,0.039,0.004,-0.042,-0.067,0.021,-0.091,-0.054,-0.075,-0.078
-0.035,-0.073,-0.038,0.054,0.002,-0.055,-0.046,0.057,-0.063,-0.057,-0.097,-0.094
-0.042,-0.063,-0.021,0.053,-0.01,-0.042,-0.064,0.057,-0.033,-0.039,-0.069,-0.075
-0.025,-0.05,-0.025,0.038,0.0,-0.038,-0.047,0.064,-0.012,-0.036,-0.082,-0.077
-0.025,-0.036,-0.011,0.031,-0.007,-0.024,-0.034,0.056,-0.009,-0.031,-0.083,-0.07
-0.034,-0.047,-0.013,0.041,-0.01,-0.03,-0.036,0.064,0.008,-0.02,-0.068,-0.061
-0.028,-0.056,-0.027,0.042,0.0,-0.042,-0.033,0.085,0.012,-0.023,-0.071,-0.058
-0.007,-0.038,-0.031,0.023,0.012,-0.035,-0.037,0.095,0.027,-0.014,-0.055,-0.047
0.001,-0.029,-0.03,0.014,0.015,-0.029,-0.032,0.096,0.034,-0.016,-0.057,-0.045
0.007,-0.02,-0.027,0.007,0.017,-0.023,-0.047,0.101,0.046,-0.01,-0.047,-0.036
0.008,-0.017,-0.025,0.005,0.016,-0.021,-0.061,0.098,0.052,-0.01,-0.043,-0.032
0.014,-0.01,-0.025,-0.001,0.02,-0.017,-0.06,0.121,0.072,0.0,-0.038,-0.026
0.031,-0.005,-0.036,-0.013,0.034,-0.02,-0.06,0.139,0.085,0.017,-0.03,-0.021
0.042,0.0,-0.042,-0.021,0.042,-0.021,-0.06,0.154,0.105,0.026,-0.018,-0.015
0.059,0.023,-0.036,-0.041,0.047,-0.006,-0.06,0.178,0.124,0.033,-0.002,-0.01
0.059,0.024,-0.035,-0.041,0.046,-0.005,-0.054,0.202,0.146,0.042,0.008,0.005
0.058,0.028,-0.031,-0.043,0.044,-0.001,-0.073,0.237,0.186,0.06,0.03,0.031
0.076,0.047,-0.029,-0.062,0.052,0.009,-0.09,0.265,0.223,0.081,0.058,0.057
0.087,0.046,-0.042,-0.066,0.064,0.002,-0.091,0.296,0.256,0.103,0.083,0.082
0.121,0.079,-0.043,-0.1,0.082,0.018,-0.094,0.341,0.307,0.147,0.133,0.134
0.18,0.145,-0.035,-0.162,0.108,0.054,-0.11,0.377,0.363,0.18,0.184,0.189
0.196,0.164,-0.032,-0.18,0.113,0.066,-0.138,0.392,0.389,0.217,0.228,0.232
0.197,0.173,-0.024,-0.184,0.11,0.074,-0.153,0.392,0.421,0.265,0.283,0.286
0.24,0.219,-0.022,-0.23,0.131,0.098,-0.174,0.378,0.43,0.298,0.331,0.335
0.245,0.243,-0.002,-0.244,0.123,0.12,-0.182,0.37,0.415,0.326,0.357,0.371
0.233,0.248,0.015,-0.24,0.109,0.131,-0.192,0.346,0.403,0.325,0.356,0.371
0.203,0.236,0.033,-0.22,0.085,0.134,-0.199,0.285,0.343,0.301,0.328,0.341
0.145,0.212,0.067,-0.179,0.039,0.139,-0.169,0.23,0.265,0.268,0.28,0.294
0.116,0.186,0.071,-0.151,0.022,0.128,-0.13,0.18,0.185,0.222,0.214,0.214
0.069,0.134,0.065,-0.102,0.002,0.099,-0.106,0.126,0.108,0.164,0.136,0.142
0.016,0.078,0.062,-0.047,-0.024,0.07,-0.099,0.084,0.05,0.106,0.073,0.084
-0.018,0.039,0.056,-0.011,-0.037,0.047,-0.09,0.064,0.001,0.062,0.029,0.035
-0.008,0.041,0.05,-0.017,-0.029,0.045,-0.082,0.049,-0.022,0.033,-0.003,0.002
-0.015,0.027,0.042,-0.006,-0.029,0.034,-0.077,0.033,-0.045,0.007,-0.033,-0.031
-0.042,-0.007,0.035,0.024,-0.038,0.014,-0.071,0.017,-0.062,-0.018,-0.047,-0.047
-0.025,0.002,0.027,0.012,-0.026,0.014,-0.065,0.002,-0.059,-0.02,-0.044,-0.045
-0.014,0.007,0.021,0.003,-0.018,0.014,-0.06,-0.003,-0.06,-0.021,-0.05,-0.045
0.01,0.025,0.015,-0.018,-0.003,0.02,-0.06,-0.007,-0.06,-0.033,-0.061,-0.05
-0.008,0.007,0.015,0.0,-0.012,0.011,-0.06,-0.012,-0.06,-0.036,-0.068,-0.058
-0.033,-0.019,0.014,0.026,-0.023,-0.003,-0.06,-0.016,-0.057,-0.034,-0.065,-0.055
-0.022,-0.012,0.01,0.017,-0.016,-0.001,-0.06,-0.021,-0.052,-0.039,-0.06,-0.055
-0.054,-0.045,0.01,0.049,-0.032,-0.017,-0.061,-0.024,-0.05,-0.05,-0.058,-0.053
-0.047,-0.035,0.012,0.041,-0.03,-0.011,-0.057,-0.025,-0.045,-0.05,-0.053,-0.05
-0.042,-0.019,0.023,0.03,-0.032,0.002,-0.056,-0.025,-0.042,-0.05,-0.05,-0.05
-0.045,-0.015,0.03,0.03,-0.037,0.007,-0.053,-0.025,-0.038,-0.05,-0.054,-0.054
-0.041,-0.01,0.031,0.025,-0.036,0.01,-0.065,-0.025,-0.035,-0.05,-0.056,-0.059
-0.059,-0.023,0.036,0.041,-0.047,0.006,-0.06,-0.026,-0.053,-0.048,-0.055,-0.055
-0.021,0.012,0.032,0.004,-0.026,0.022,-0.037,-0.025,-0.063,-0.044,-0.055,-0.056
0.0,0.029,0.029,-0.015,-0.015,0.029,-0.062,-0.026,-0.058,-0.046,-0.055,-0.053
-0.011,0.02,0.031,-0.004,-0.021,0.025,-0.071,-0.025,-0.061,-0.041,-0.056,-0.05
-0.004,0.022,0.026,-0.009,-0.015,0.024,-0.062,-0.025,-0.059,-0.04,-0.06,-0.05
-0.013,0.012,0.025,0.0,-0.019,0.018,-0.061,-0.024,-0.061,-0.04,-0.06,-0.054
0.002,0.026,0.025,-0.014,-0.012,0.025,-0.054,-0.019,-0.064,-0.035,-0.06,-0.058
0.011,0.032,0.02,-0.022,-0.005,0.026,-0.056,-0.041,-0.065,-0.036,-0.063,-0.063
-0.013,0.002,0.015,0.005,-0.014,0.008,-0.054,-0.046,-0.065,-0.034,-0.068,-0.064
-0.016,-0.006,0.011,0.011,-0.013,0.002,-0.05,-0.038,-0.064,-0.043,-0.07,-0.059
-0.022,-0.016,0.006,0.019,-0.014,-0.005,-0.05,-0.061,-0.084,-0.067,-0.07,-0.076
-0.03,-0.029,0.001,0.029,-0.015,-0.014,-0.052,-0.065,-0.092,-0.069,-0.07,-0.08
-0.023,-0.021,0.002,0.022,-0.013,-0.009,-0.056,-0.059,-0.086,-0.061,-0.07,-0.071
-0.034,-0.022,0.012,0.028,-0.023,-0.005,-0.061,-0.057,-0.085,-0.06,-0.07,-0.07
-0.039,-0.016,0.023,0.027,-0.031,0.004,-0.052,-0.052,-0.081,-0.053,-0.07,-0.063
-0.035,-0.017,0.018,0.025,-0.026,0.0,-0.045,-0.05,-0.079,-0.05,-0.067,-0.06
-0.033,-0.011,0.022,0.022,-0.027,0.005,-0.033,-0.045,-0.076,-0.051,-0.064,-0.06
-0.051,-0.009,0.042,0.03,-0.046,0.016,-0.033,-0.045,-0.073,-0.045,-0.061,-0.059
-0.083,-0.044,0.039,0.063,-0.06,-0.003,-0.064,-0.044,-0.071,-0.062,-0.059,-0.071
-0.069,-0.035,0.034,0.052,-0.052,0.0,-0.052,-0.04,-0.067,-0.069,-0.054,-0.073
-0.05,-0.017,0.033,0.033,-0.041,0.008,-0.041,-0.04,-0.064,-0.058,-0.056,-0.063
-0.043,-0.018,0.026,0.03,-0.034,0.004,-0.047,-0.038,-0.067,-0.052,-0.06,-0.059
-0.036,-0.01,0.027,0.022,-0.031,0.008,-0.043,-0.034,-0.07,-0.047,-0.062,-0.049
-0.019,-0.008,0.011,0.013,-0.015,0.002,-0.046,-0.035,-0.07,-0.048,-0.066,-0.048
-0.002,0.003,0.005,-0.001,-0.004,0.004,-0.042,-0.05,-0.07,-0.053,-0.061,-0.059
-0.043,-0.007,0.035,0.025,-0.039,0.013,-0.04,-0.056,-0.07,-0.065,-0.06,-0.061
-0.072,-0.025,0.046,0.048,-0.059,0.01,-0.036,-0.054,-0.07,-0.066,-0.06,-0.059
-0.048,-0.004,0.044,0.026,-0.046,0.02,-0.034,-0.056,-0.07,-0.064,-0.06,-0.056
-0.058,-0.012,0.046,0.035,-0.052,0.017,-0.031,-0.054,-0.07,-0.065,-0.06,-0.055
-0.081,-0.037,0.044,0.059,-0.062,0.003,-0.029,-0.056,-0.07,-0.065,-0.059,-0.054
-0.08,-0.034,0.046,0.056,-0.062,0.006,-0.039,-0.049,-0.07,-0.063,-0.054,-0.05
-0.069,-0.023,0.046,0.046,-0.057,0.011,-0.039,-0.046,-0.07,-0.056,-0.05,-0.049
-0.068,-0.016,0.052,0.042,-0.06,0.018,-0.042,-0.041,-0.067,-0.051,-0.062,-0.064
-0.057,-0.01,0.048,0.034,-0.052,0.019,-0.043,-0.036,-0.053,-0.045,-0.055,-0.061
-0.022,0.029,0.051,-0.004,-0.036,0.039,-0.04,-0.029,-0.043,-0.027,-0.036,-0.041
-0.037,0.04,0.077,-0.002,-0.057,0.058,-0.034,0.01,-0.039,-0.002,-0.019,-0.022
-0.008,0.072,0.08,-0.032,-0.044,0.076,-0.054,-0.003,-0.04,0.007,-0.006,0.004
0.014,0.089,0.074,-0.052,-0.03,0.081,-0.099,-0.035,-0.041,0.018,0.011,0.009
-0.002,0.05,0.052,-0.024,-0.028,0.051,-0.093,-0.026,-0.037,-0.001,-0.002,-0.014
0.021,0.034,0.012,-0.028,0.004,0.023,-0.078,-0.053,-0.071,-0.049,-0.052,-0.04
-0.014,-0.006,0.008,0.009,-0.011,0.001,-0.056,-0.06,-0.085,-0.058,-0.058,-0.046
-0.059,-0.025,0.034,0.042,-0.046,0.004,-0.029,-0.06,-0.088,-0.063,-0.066,-0.045
-0.039,-0.002,0.036,0.021,-0.037,0.017,-0.033,-0.061,-0.09,-0.055,-0.06,-0.056
-0.04,-0.019,0.021,0.029,-0.03,0.001,-0.026,-0.057,-0.093,-0.071,-0.076,-0.082
-0.102,-0.076,0.026,0.089,-0.064,-0.025,-0.044,-0.078,-0.103,-0.078,-0.089,-0.086
-0.086,-0.073,0.014,0.079,-0.05,-0.029,-0.045,-0.065,-0.094,-0.077,-0.104,-0.105
-0.058,-0.039,0.019,0.048,-0.039,-0.009,-0.04,-0.08,-0.111,-0.072,-0.098,-0.098
-0.064,-0.058,0.006,0.061,-0.035,-0.026,-0.027,-0.05,-0.084,-0.054,-0.087,-0.097
-0.075,-0.056,0.019,0.065,-0.047,-0.018,0.022,0.005,-0.069,-0.073,-0.133,-0.135
-0.077,-0.033,0.044,0.055,-0.06,0.005,0.077,0.253,0.205,0.077,-0.031,-0.086
0.163,0.207,0.044,-0.185,0.059,0.125,-0.122,0.104,0.374,0.443,0.409,0.327
0.505,0.649,0.144,-0.578,0.18,0.397,-0.697,-0.756,-0.029,0.874,1.191,1.167
0.489,0.457,-0.032,-0.473,0.26,0.212,-0.895,-1.114,-0.661,0.367,0.827,1.021
0.198,-0.03,-0.229,-0.084,0.213,-0.13,-0.574,-0.865,-0.997,-0.493,-0.198,0.126
0.04,-0.075,-0.115,0.018,0.078,-0.094,-0.264,-0.415,-0.608,-0.367,-0.217,-0.073
0.002,-0.041,-0.044,0.02,0.023,-0.042,-0.087,-0.103,-0.246,-0.161,-0.13,-0.092
-0.042,-0.034,0.008,0.038,-0.025,-0.013,-0.036,-0.035,-0.138,-0.082,-0.091,-0.102
-0.048,-0.021,0.026,0.034,-0.037,0.002,-0.01,0.04,-0.046,-0.023,-0.04,-0.08
-0.042,-0.018,0.024,0.03,-0.033,0.003,0.001,0.049,-0.031,-0.046,-0.068,-0.093
-0.077,-0.045,0.032,0.061,-0.055,-0.006,0.004,0.058,0.005,-0.016,-0.035,-0.067
-0.071,-0.041,0.03,0.055,-0.05,-0.006,0.015,0.06,0.001,-0.026,-0.051,-0.073
-0.048,-0.011,0.038,0.029,-0.043,0.013,0.017,0.059,0.011,-0.009,-0.03,-0.055
-0.049,-0.018,0.031,0.033,-0.04,0.007,0.017,0.073,0.02,-0.009,-0.035,-0.055
-0.063,-0.033,0.03,0.048,-0.046,-0.001,0.014,0.068,0.029,-0.002,-0.026,-0.045
-0.039,-0.009,0.03,0.024,-0.034,0.011,0.014,0.077,0.04,0.008,-0.024,-0.041
0.005,0.035,0.03,-0.02,-0.012,0.032,0.01,0.111,0.063,0.031,-0.021,-0.037
-0.046,-0.016,0.03,0.031,-0.038,0.007,0.01,0.118,0.074,0.038,-0.015,-0.029
-0.047,-0.017,0.03,0.032,-0.038,0.006,0.013,0.111,0.071,0.033,-0.015,-0.026
-0.03,0.0,0.03,0.015,-0.029,0.014,0.018,0.121,0.08,0.036,-0.001,-0.018
-0.038,-0.006,0.032,0.022,-0.035,0.013,0.025,0.138,0.099,0.035,0.011,-0.011
-0.017,0.016,0.033,0.0,-0.026,0.024,0.029,0.167,0.126,0.041,0.025,-0.005
-0.03,0.015,0.044,0.007,-0.037,0.029,0.022,0.191,0.15,0.056,0.033,0.006
0.012,0.051,0.039,-0.032,-0.014,0.045,0.008,0.221,0.181,0.075,0.051,0.033
0.057,0.077,0.02,-0.067,0.018,0.048,-0.001,0.247,0.206,0.082,0.058,0.048
0.06,0.081,0.02,-0.071,0.02,0.051,-0.014,0.277,0.248,0.111,0.106,0.076
0.068,0.086,0.018,-0.078,0.025,0.052,-0.021,0.312,0.298,0.148,0.135,0.12
0.095,0.109,0.014,-0.102,0.04,0.061,-0.043,0.345,0.344,0.181,0.191,0.168
0.128,0.144,0.016,-0.137,0.056,0.08,-0.059,0.377,0.387,0.225,0.233,0.224
