-0.036,-0.184,-0.148,0.111,0.056,-0.166,0.17,0.324,0.11,-0.04,-0.02,-0.07
-0.017,-0.185,-0.168,0.101,0.076,-0.176,0.169,0.313,0.106,-0.04,-0.02,-0.07
-0.015,-0.185,-0.17,0.1,0.078,-0.177,0.165,0.299,0.099,-0.04,-0.02,-0.073
-0.011,-0.181,-0.169,0.096,0.079,-0.175,0.162,0.297,0.093,-0.039,-0.024,-0.076
-0.01,-0.181,-0.171,0.095,0.081,-0.176,0.157,0.291,0.086,-0.051,-0.025,-0.079
-0.01,-0.178,-0.168,0.094,0.079,-0.173,0.155,0.28,0.074,-0.063,-0.025,-0.081
-0.01,-0.186,-0.176,0.098,0.084,-0.181,0.16,0.268,0.059,-0.072,-0.032,-0.085
-0.001,-0.195,-0.195,0.098,0.098,-0.195,0.165,0.257,0.048,-0.085,-0.043,-0.093
-0.006,-0.205,-0.199,0.106,0.097,-0.202,0.168,0.249,0.042,-0.088,-0.045,-0.095
-0.024,-0.221,-0.197,0.123,0.087,-0.209,0.173,0.243,0.038,-0.097,-0.046,-0.095
-0.028,-0.219,-0.192,0.124,0.082,-0.206,0.175,0.239,0.034,-0.098,-0.049,-0.098
-0.035,-0.22,-0.185,0.128,0.075,-0.202,0.175,0.232,0.028,-0.078,-0.053,-0.101
-0.036,-0.217,-0.181,0.126,0.073,-0.199,0.178,0.228,0.025,-0.057,-0.055,-0.099
-0.04,-0.213,-0.173,0.127,0.067,-0.193,0.181,0.223,0.024,-0.044,-0.06,-0.095
-0.045,-0.217,-0.172,0.131,0.064,-0.194,0.179,0.226,0.026,-0.029,-0.058,-0.087
-0.034,-0.19,-0.156,0.113,0.061,-0.173,0.175,0.224,0.023,-0.018,-0.051,-0.081
-0.028,-0.152,-0.123,0.09,0.048,-0.137,0.171,0.227,0.038,-0.003,-0.045,-0.075
-0.036,-0.119,-0.083,0.077,0.024,-0.101,0.165,0.225,0.039,0.007,-0.037,-0.068
-0.049,-0.103,-0.054,0.076,0.003,-0.078,0.165,0.227,0.036,0.021,-0.032,-0.062
-0.017,-0.086,-0.069,0.052,0.026,-0.077,0.139,0.24,0.07,0.053,-0.005,-0.046
0.03,-0.045,-0.075,0.008,0.053,-0.06,0.107,0.194,0.072,0.056,0.025,-0.035
0.028,-0.041,-0.069,0.007,0.049,-0.055,0.115,0.196,0.065,0.043,0.01,-0.033
-0.009,-0.073,-0.064,0.041,0.028,-0.068,0.12,0.227,0.041,0.037,-0.008,-0.047
-0.029,-0.108,-0.08,0.069,0.026,-0.094,0.115,0.242,0.003,0.014,-0.019,-0.076
-0.042,-0.163,-0.121,0.102,0.04,-0.141,0.15,0.301,0.0,-0.021,-0.05,-0.11
-0.065,-0.183,-0.119,0.124,0.028,-0.151,0.172,0.309,-0.004,-0.032,-0.057,-0.132
-0.066,-0.186,-0.12,0.126,0.028,-0.152,0.171,0.301,-0.005,-0.054,-0.065,-0.144
-0.064,-0.185,-0.121,0.125,0.029,-0.153,0.168,0.292,-0.011,-0.049,-0.055,-0.136
-0.071,-0.188,-0.117,0.13,0.023,-0.153,0.172,0.291,-0.007,-0.048,-0.067,-0.145
-0.069,-0.194,-0.125,0.131,0.028,-0.159,0.168,0.276,-0.01,-0.049,-0.066,-0.146
-0.059,-0.182,-0.123,0.121,0.032,-0.152,0.171,0.287,0.001,-0.034,-0.059,-0.14
-0.049,-0.194,-0.145,0.122,0.048,-0.169,0.184,0.297,-0.006,-0.055,-0.078,-0.155
-0.06,-0.158,-0.099,0.109,0.02,-0.128,0.174,0.324,0.01,-0.011,-0.043,-0.135
-0.101,-0.214,-0.113,0.158,0.006,-0.163,0.278,0.476,0.115,-0.032,-0.118,-0.227
-0.123,-0.161,-0.038,0.142,-0.042,-0.1,0.316,0.611,0.274,0.159,0.023,-0.183
0.105,0.159,0.054,-0.132,0.026,0.106,-0.043,0.162,0.276,0.55,0.46,0.198
0.55,0.733,0.183,-0.641,0.183,0.457,-0.691,-1.295,-0.019,1.581,1.62,1.141
0.427,1.117,0.689,-0.772,-0.131,0.903,-0.875,-2.133,-0.776,1.926,1.949,1.561
-0.129,0.659,0.787,-0.265,-0.458,0.723,-0.645,-1.921,-1.829,0.066,0.394,0.547
-0.306,0.204,0.51,0.051,-0.409,0.357,-0.477,-1.417,-1.604,-0.787,-0.2,-0.073
-0.17,0.086,0.256,0.041,-0.213,0.17,-0.155,-0.455,-0.452,-0.299,-0.039,-0.076
-0.026,-0.008,0.018,0.017,-0.022,0.005,0.038,0.098,0.016,-0.172,-0.074,-0.12
-0.001,-0.056,-0.055,0.028,0.027,-0.055,0.093,0.21,0.12,-0.075,0.017,-0.085
0.004,-0.099,-0.104,0.047,0.054,-0.101,0.13,0.289,0.156,-0.086,-0.024,-0.11
0.026,-0.08,-0.106,0.027,0.066,-0.093,0.112,0.306,0.179,-0.043,0.017,-0.095
0.038,-0.082,-0.12,0.023,0.079,-0.101,0.127,0.335,0.209,-0.034,0.005,-0.1
0.047,-0.076,-0.123,0.015,0.085,-0.099,0.122,0.32,0.21,-0.03,0.01,-0.091
0.043,-0.07,-0.113,0.014,0.078,-0.091,0.127,0.357,0.24,-0.007,0.028,-0.084
0.05,-0.068,-0.118,0.01,0.084,-0.092,0.122,0.374,0.249,0.001,0.027,-0.082
0.055,-0.053,-0.108,-0.001,0.082,-0.08,0.115,0.389,0.272,0.033,0.053,-0.067
0.068,-0.044,-0.112,-0.012,0.09,-0.078,0.11,0.411,0.29,0.038,0.069,-0.056
0.084,-0.029,-0.113,-0.027,0.099,-0.071,0.102,0.411,0.319,0.064,0.086,-0.041
0.098,-0.019,-0.117,-0.039,0.108,-0.068,0.096,0.414,0.343,0.085,0.096,-0.033
0.114,-0.006,-0.12,-0.054,0.117,-0.063,0.09,0.421,0.368,0.106,0.112,-0.022
0.127,0.005,-0.122,-0.065,0.124,-0.058,0.08,0.445,0.401,0.132,0.132,-0.001
0.145,0.019,-0.127,-0.081,0.136,-0.054,0.064,0.46,0.437,0.163,0.163,0.032
0.16,0.038,-0.121,-0.099,0.14,-0.041,0.052,0.473,0.488,0.193,0.191,0.044
0.176,0.057,-0.119,-0.116,0.147,-0.031,0.034,0.501,0.526,0.228,0.212,0.062
0.214,0.063,-0.152,-0.138,0.183,-0.044,0.013,0.539,0.574,0.272,0.247,0.098
0.249,0.059,-0.191,-0.154,0.22,-0.066,-0.016,0.541,0.625,0.333,0.293,0.143
0.287,0.081,-0.205,-0.184,0.246,-0.062,-0.049,0.516,0.659,0.405,0.327,0.176
0.33,0.111,-0.219,-0.22,0.274,-0.054,-0.068,0.5,0.688,0.467,0.364,0.205
0.349,0.119,-0.229,-0.234,0.289,-0.055,-0.067,0.475,0.694,0.512,0.383,0.233
0.315,0.115,-0.2,-0.214,0.257,-0.042,-0.063,0.443,0.66,0.51,0.376,0.212
0.258,0.103,-0.155,-0.181,0.206,-0.025,-0.06,0.392,0.589,0.458,0.336,0.167
0.206,0.098,-0.108,-0.151,0.156,-0.005,-0.037,0.329,0.472,0.372,0.26,0.101
0.149,0.064,-0.085,-0.106,0.116,-0.01,0.004,0.26,0.347,0.272,0.183,0.023
0.107,0.024,-0.084,-0.065,0.095,-0.03,0.053,0.174,0.231,0.176,0.105,-0.038
0.063,0.013,-0.05,-0.037,0.056,-0.018,0.078,0.108,0.121,0.091,0.032,-0.092
0.029,-0.002,-0.031,-0.014,0.03,-0.016,0.082,0.061,0.061,0.028,-0.017,-0.133
0.02,-0.018,-0.038,-0.001,0.029,-0.028,0.093,0.024,0.013,-0.015,-0.046,-0.162
0.005,-0.034,-0.039,0.014,0.022,-0.036,0.099,0.004,-0.016,-0.05,-0.068,-0.181
0.0,-0.045,-0.045,0.023,0.023,-0.045,0.106,-0.015,-0.019,-0.062,-0.076,-0.186
-0.013,-0.057,-0.044,0.035,0.016,-0.05,0.112,-0.021,-0.032,-0.059,-0.075,-0.185
-0.03,-0.067,-0.038,0.049,0.004,-0.052,0.119,-0.004,-0.032,-0.06,-0.073,-0.184
-0.028,-0.061,-0.033,0.045,0.003,-0.047,0.125,0.008,-0.023,-0.06,-0.069,-0.18
-0.032,-0.057,-0.024,0.045,-0.004,-0.041,0.118,0.013,-0.013,-0.06,-0.07,-0.18
-0.018,-0.053,-0.034,0.036,0.008,-0.043,0.111,0.021,-0.003,-0.056,-0.066,-0.18
-0.011,-0.047,-0.036,0.029,0.013,-0.041,0.104,0.023,-0.004,-0.055,-0.065,-0.18
-0.026,-0.044,-0.018,0.035,-0.003,-0.031,0.096,0.011,-0.009,-0.055,-0.065,-0.18
-0.013,-0.035,-0.022,0.024,0.004,-0.028,0.089,0.041,-0.011,-0.055,-0.065,-0.18
-0.008,-0.027,-0.018,0.018,0.005,-0.022,0.087,0.086,-0.016,-0.055,-0.065,-0.18
-0.021,-0.024,-0.002,0.023,-0.009,-0.013,0.091,0.094,-0.019,-0.056,-0.066,-0.181
-0.033,-0.027,0.006,0.03,-0.019,-0.011,0.094,0.099,-0.023,-0.063,-0.07,-0.184
-0.038,-0.028,0.009,0.033,-0.024,-0.01,0.098,0.094,-0.029,-0.069,-0.073,-0.187
-0.032,-0.035,-0.003,0.034,-0.014,-0.019,0.1,0.084,-0.036,-0.074,-0.077,-0.19
-0.037,-0.046,-0.008,0.042,-0.014,-0.027,0.096,0.081,-0.034,-0.081,-0.08,-0.193
-0.015,-0.04,-0.025,0.028,0.005,-0.032,0.091,0.069,-0.038,-0.085,-0.084,-0.195
0.001,-0.036,-0.037,0.018,0.019,-0.036,0.089,0.066,-0.051,-0.085,-0.089,-0.197
-0.031,-0.031,-0.001,0.031,-0.015,-0.016,0.084,0.049,-0.049,-0.084,-0.092,-0.201
-0.071,-0.027,0.045,0.049,-0.058,0.009,0.08,-0.002,-0.06,-0.096,-0.097,-0.199
-0.085,-0.022,0.063,0.053,-0.074,0.02,0.08,-0.033,-0.072,-0.109,-0.1,-0.2
-0.073,-0.013,0.059,0.043,-0.066,0.023,0.079,-0.043,-0.064,-0.105,-0.105,-0.204
-0.07,-0.001,0.069,0.035,-0.07,0.034,0.081,-0.044,-0.058,-0.097,-0.098,-0.199
-0.048,0.006,0.054,0.02,-0.051,0.03,0.078,-0.047,-0.051,-0.092,-0.083,-0.194
-0.029,0.033,0.062,-0.002,-0.045,0.047,0.081,-0.04,-0.044,-0.083,-0.071,-0.188
-0.059,0.078,0.137,-0.01,-0.098,0.107,0.086,-0.056,-0.04,-0.083,-0.056,-0.183
-0.066,0.076,0.142,-0.005,-0.104,0.109,0.081,-0.072,-0.037,-0.066,-0.041,-0.174
-0.038,0.089,0.128,-0.026,-0.083,0.108,0.038,-0.092,-0.034,-0.034,-0.031,-0.152
-0.037,0.117,0.154,-0.04,-0.096,0.136,-0.01,-0.174,-0.032,-0.03,-0.03,-0.14
-0.04,0.095,0.134,-0.028,-0.087,0.114,0.001,-0.189,-0.028,-0.028,-0.03,-0.14
-0.04,0.047,0.087,-0.004,-0.063,0.067,0.026,-0.159,-0.044,-0.044,-0.031,-0.14
-0.047,0.008,0.055,0.019,-0.051,0.031,0.05,-0.123,-0.081,-0.072,-0.047,-0.145
-0.062,-0.027,0.034,0.044,-0.048,0.004,0.081,-0.05,-0.092,-0.107,-0.09,-0.18
-0.078,-0.053,0.025,0.066,-0.051,-0.014,0.115,-0.005,-0.086,-0.119,-0.107,-0.207
-0.102,-0.078,0.024,0.09,-0.063,-0.027,0.13,0.025,-0.084,-0.124,-0.113,-0.217
-0.124,-0.1,0.024,0.112,-0.074,-0.037,0.129,0.039,-0.09,-0.125,-0.106,-0.21
-0.118,-0.091,0.027,0.104,-0.072,-0.032,0.138,0.041,-0.098,-0.126,-0.104,-0.206
-0.119,-0.088,0.031,0.103,-0.075,-0.028,0.134,0.052,-0.092,-0.137,-0.105,-0.208
-0.128,-0.075,0.052,0.101,-0.09,-0.011,0.137,0.119,-0.079,-0.118,-0.091,-0.191
-0.103,-0.078,0.025,0.09,-0.064,-0.026,0.145,0.115,-0.078,-0.148,-0.114,-0.217
-0.11,-0.07,0.04,0.09,-0.075,-0.015,0.129,0.087,-0.055,-0.102,-0.08,-0.196
-0.138,-0.125,0.012,0.131,-0.075,-0.056,0.219,0.223,0.036,-0.105,-0.124,-0.258
-0.139,-0.105,0.034,0.122,-0.086,-0.035,0.283,0.414,0.21,0.072,-0.017,-0.242
0.016,0.169,0.153,-0.093,-0.069,0.16,-0.041,-0.023,0.176,0.434,0.334,0.088
0.461,0.735,0.274,-0.599,0.094,0.504,-0.692,-1.551,-0.122,1.383,1.407,0.96
0.461,1.183,0.721,-0.822,-0.13,0.952,-0.939,-2.51,-0.788,2.025,2.004,1.564
-0.1,0.752,0.851,-0.326,-0.476,0.801,-0.725,-2.269,-1.855,0.331,0.563,0.67
-0.35,0.215,0.565,0.067,-0.458,0.389,-0.513,-1.682,-1.744,-0.802,-0.27,-0.102
-0.244,0.1,0.344,0.072,-0.294,0.222,-0.188,-0.673,-0.552,-0.288,-0.054,-0.107
-0.109,0.018,0.127,0.045,-0.118,0.072,0.039,-0.027,0.008,-0.113,-0.065,-0.147
-0.087,-0.015,0.072,0.051,-0.079,0.028,0.086,0.079,0.114,-0.034,-0.007,-0.12
-0.094,-0.044,0.05,0.068,-0.072,0.003,0.123,0.16,0.155,-0.019,-0.032,-0.135
-0.081,-0.033,0.048,0.057,-0.064,0.007,0.116,0.173,0.166,-0.005,-0.011,-0.129
-0.073,-0.02,0.052,0.046,-0.062,0.016,0.116,0.194,0.203,0.012,-0.009,-0.126
-0.056,-0.016,0.041,0.035,-0.048,0.012,0.111,0.196,0.199,0.005,-0.008,-0.122
-0.049,0.001,0.049,0.023,-0.049,0.025,0.107,0.203,0.205,0.025,0.014,-0.108
-0.036,0.005,0.04,0.015,-0.038,0.022,0.105,0.21,0.211,0.035,0.01,-0.11
-0.038,0.02,0.058,0.009,-0.049,0.039,0.098,0.22,0.228,0.07,0.035,-0.09
-0.022,0.039,0.061,-0.009,-0.042,0.05,0.091,0.237,0.252,0.08,0.047,-0.074
0.001,0.051,0.05,-0.026,-0.024,0.05,0.084,0.252,0.285,0.113,0.061,-0.055
0.014,0.058,0.044,-0.036,-0.015,0.051,0.076,0.279,0.319,0.134,0.084,-0.044
0.028,0.059,0.031,-0.044,-0.002,0.045,0.069,0.296,0.339,0.149,0.101,-0.027
0.044,0.078,0.034,-0.061,0.005,0.056,0.061,0.317,0.381,0.184,0.126,-0.007
0.061,0.096,0.035,-0.079,0.013,0.066,0.044,0.352,0.42,0.215,0.15,0.01
0.076,0.11,0.035,-0.093,0.02,0.072,0.03,0.405,0.451,0.244,0.168,0.038
0.101,0.134,0.033,-0.118,0.034,0.083,0.012,0.475,0.52,0.289,0.204,0.066
0.147,0.139,-0.008,-0.143,0.077,0.065,-0.001,0.54,0.58,0.346,0.253,0.113
0.192,0.151,-0.041,-0.171,0.116,0.055,-0.023,0.559,0.617,0.395,0.295,0.153
0.215,0.175,-0.039,-0.195,0.127,0.068,-0.058,0.604,0.656,0.439,0.336,0.187
0.239,0.196,-0.043,-0.218,0.141,0.076,-0.085,0.65,0.682,0.487,0.38,0.233
0.278,0.215,-0.064,-0.246,0.171,0.075,-0.106,0.627,0.669,0.519,0.402,0.248
0.279,0.224,-0.055,-0.251,0.167,0.084,-0.104,0.598,0.63,0.521,0.406,0.245
0.223,0.213,-0.01,-0.218,0.116,0.101,-0.1,0.539,0.554,0.467,0.363,0.206
0.164,0.192,0.028,-0.179,0.068,0.11,-0.071,0.473,0.424,0.37,0.285,0.13
0.1,0.167,0.067,-0.134,0.017,0.116,-0.027,0.41,0.284,0.248,0.189,0.044
0.035,0.122,0.087,-0.079,-0.027,0.105,-0.014,0.344,0.16,0.139,0.1,-0.032
-0.011,0.073,0.084,-0.031,-0.048,0.078,0.008,0.306,0.064,0.061,0.043,-0.082
-0.032,0.053,0.086,-0.011,-0.059,0.069,0.032,0.271,-0.013,-0.018,-0.012,-0.129
-0.058,0.046,0.103,0.006,-0.081,0.074,0.039,0.257,-0.079,-0.071,-0.057,-0.164
-0.081,0.035,0.116,0.023,-0.099,0.076,0.046,0.262,-0.105,-0.097,-0.076,-0.176
-0.08,0.036,0.115,0.022,-0.098,0.075,0.054,0.263,-0.118,-0.116,-0.085,-0.178
-0.08,0.034,0.114,0.022,-0.097,0.074,0.055,0.267,-0.128,-0.12,-0.093,-0.18
-0.086,0.031,0.117,0.027,-0.101,0.074,0.055,0.27,-0.114,-0.12,-0.09,-0.18
-0.084,0.029,0.112,0.027,-0.098,0.07,0.055,0.269,-0.105,-0.12,-0.09,-0.18
-0.088,0.033,0.121,0.027,-0.104,0.076,0.055,0.275,-0.096,-0.12,-0.088,-0.18
-0.102,0.038,0.14,0.032,-0.121,0.089,0.054,0.277,-0.091,-0.12,-0.084,-0.18
-0.106,0.054,0.16,0.026,-0.133,0.107,0.046,0.272,-0.087,-0.116,-0.085,-0.18
-0.119,0.065,0.184,0.027,-0.152,0.124,0.039,0.269,-0.082,-0.115,-0.088,-0.18
-0.114,0.071,0.184,0.021,-0.149,0.127,0.032,0.253,-0.078,-0.115,-0.091,-0.18
-0.097,0.1,0.197,-0.002,-0.147,0.149,0.024,0.239,-0.074,-0.115,-0.09,-0.183
-0.086,0.108,0.194,-0.012,-0.14,0.151,0.017,0.232,-0.097,-0.115,-0.09,-0.186
-0.093,0.101,0.194,-0.004,-0.143,0.147,0.011,0.224,-0.112,-0.116,-0.09,-0.185
-0.097,0.1,0.197,-0.002,-0.147,0.148,0.006,0.215,-0.11,-0.122,-0.091,-0.185
-0.078,0.096,0.173,-0.009,-0.126,0.134,0.001,0.206,-0.109,-0.132,-0.097,-0.185
-0.08,0.091,0.171,-0.005,-0.126,0.131,-0.002,0.197,-0.121,-0.148,-0.105,-0.186
-0.073,0.091,0.164,-0.01,-0.119,0.128,-0.008,0.188,-0.136,-0.16,-0.107,-0.195
-0.057,0.102,0.16,-0.023,-0.109,0.131,-0.009,0.18,-0.143,-0.17,-0.123,-0.2
-0.056,0.096,0.152,-0.021,-0.104,0.124,-0.004,0.172,-0.149,-0.178,-0.137,-0.2
-0.066,0.089,0.155,-0.012,-0.11,0.122,0.001,0.166,-0.151,-0.183,-0.134,-0.2
-0.084,0.083,0.166,0.0,-0.125,0.124,0.005,0.159,-0.154,-0.189,-0.135,-0.2
-0.089,0.076,0.165,0.006,-0.127,0.12,0.01,0.151,-0.157,-0.19,-0.135,-0.2
-0.089,0.074,0.164,0.007,-0.127,0.119,0.015,0.144,-0.16,-0.19,-0.135,-0.2
-0.089,0.071,0.16,0.009,-0.124,0.115,0.018,0.138,-0.159,-0.19,-0.131,-0.197
-0.092,0.069,0.16,0.012,-0.126,0.114,0.022,0.128,-0.152,-0.19,-0.124,-0.192
-0.093,0.064,0.157,0.014,-0.126,0.111,0.026,0.123,-0.148,-0.189,-0.118,-0.189
-0.088,0.067,0.155,0.01,-0.121,0.111,0.029,0.122,-0.141,-0.181,-0.111,-0.186
-0.086,0.069,0.155,0.008,-0.12,0.111,0.034,0.139,-0.137,-0.173,-0.104,-0.181
-0.067,0.089,0.156,-0.012,-0.112,0.122,0.036,0.171,-0.129,-0.159,-0.1,-0.179
-0.053,0.126,0.179,-0.037,-0.116,0.152,0.042,0.179,-0.115,-0.132,-0.09,-0.167
-0.073,0.132,0.204,-0.03,-0.139,0.168,0.044,0.173,-0.106,-0.125,-0.085,-0.158
-0.053,0.153,0.206,-0.05,-0.129,0.179,0.023,0.177,-0.103,-0.124,-0.064,-0.134
-0.012,0.183,0.196,-0.086,-0.104,0.189,-0.024,0.171,-0.107,-0.126,-0.031,-0.101
-0.009,0.178,0.187,-0.085,-0.098,0.183,-0.06,0.155,-0.101,-0.123,-0.037,-0.102
-0.013,0.166,0.179,-0.077,-0.096,0.172,-0.043,0.14,-0.124,-0.129,-0.064,-0.124
-0.027,0.13,0.157,-0.052,-0.092,0.143,-0.029,0.12,-0.169,-0.165,-0.1,-0.151
-0.052,0.064,0.116,-0.006,-0.084,0.09,-0.002,0.138,-0.176,-0.182,-0.133,-0.179
-0.08,0.018,0.099,0.031,-0.09,0.058,0.044,0.18,-0.173,-0.188,-0.138,-0.189
-0.101,-0.004,0.097,0.052,-0.099,0.046,0.057,0.181,-0.171,-0.202,-0.149,-0.19
-0.09,-0.007,0.083,0.048,-0.086,0.038,0.056,0.176,-0.167,-0.202,-0.148,-0.192
-0.077,0.007,0.084,0.034,-0.081,0.046,0.052,0.211,-0.165,-0.195,-0.14,-0.186
-0.071,-0.006,0.065,0.038,-0.068,0.03,0.053,0.232,-0.163,-0.208,-0.153,-0.196
-0.091,0.0,0.09,0.045,-0.09,0.045,0.044,0.233,-0.158,-0.19,-0.133,-0.182
-0.118,-0.025,0.093,0.071,-0.105,0.034,0.06,0.23,-0.152,-0.206,-0.159,-0.2
-0.103,-0.014,0.089,0.059,-0.095,0.037,0.048,0.239,-0.154,-0.169,-0.13,-0.179
-0.134,-0.044,0.091,0.089,-0.112,0.023,0.111,0.356,-0.08,-0.178,-0.169,-0.218
-0.141,-0.076,0.066,0.108,-0.103,-0.005,0.248,0.603,0.086,-0.079,-0.119,-0.249
-0.018,0.125,0.144,-0.054,-0.081,0.134,0.038,0.388,0.101,0.24,0.164,-0.005
0.394,0.59,0.196,-0.492,0.099,0.393,-0.579,-1.093,-0.154,0.98,1.032,0.733
0.598,1.164,0.566,-0.881,0.016,0.864,-1.008,-2.423,-0.772,1.916,1.989,1.586
0.058,0.883,0.826,-0.471,-0.384,0.854,-0.858,-2.373,-1.83,0.725,0.91,0.991
-0.325,0.258,0.583,0.033,-0.454,0.42,-0.556,-1.773,-1.994,-0.838,-0.316,-0.022
-0.228,0.169,0.397,0.029,-0.312,0.283,-0.283,-0.73,-0.843,-0.473,-0.151,-0.097
-0.081,0.115,0.196,-0.017,-0.139,0.155,-0.055,0.084,-0.1,-0.158,-0.096,-0.107
-0.007,0.084,0.092,-0.039,-0.05,0.088,0.018,0.237,0.0,-0.115,-0.061,-0.113
-0.025,0.049,0.074,-0.012,-0.05,0.061,0.047,0.335,0.054,-0.077,-0.054,-0.109
-0.022,0.029,0.051,-0.004,-0.037,0.04,0.059,0.379,0.076,-0.088,-0.056,-0.11
-0.025,0.038,0.064,-0.007,-0.045,0.051,0.074,0.425,0.119,-0.034,-0.028,-0.089
-0.025,0.024,0.049,0.0,-0.037,0.036,0.074,0.456,0.128,-0.038,-0.027,-0.092
-0.023,0.031,0.054,-0.004,-0.039,0.042,0.078,0.482,0.151,-0.001,0.004,-0.067
-0.028,0.021,0.049,0.004,-0.039,0.034,0.086,0.512,0.175,0.003,-0.002,-0.062
-0.022,0.036,0.058,-0.007,-0.04,0.046,0.076,0.5,0.189,0.026,0.02,-0.045
-0.032,0.048,0.08,-0.008,-0.056,0.063,0.072,0.508,0.205,0.046,0.03,-0.039
-0.023,0.074,0.097,-0.026,-0.06,0.085,0.064,0.504,0.218,0.063,0.037,-0.026
0.008,0.097,0.089,-0.053,-0.041,0.093,0.058,0.502,0.252,0.086,0.06,-0.009
0.02,0.103,0.083,-0.062,-0.032,0.093,0.052,0.528,0.282,0.101,0.08,0.007
0.021,0.131,0.11,-0.077,-0.044,0.12,0.042,0.553,0.319,0.125,0.09,0.027
0.047,0.15,0.103,-0.099,-0.028,0.126,0.033,0.569,0.362,0.157,0.112,0.052
0.083,0.159,0.077,-0.121,0.003,0.118,0.019,0.613,0.412,0.194,0.147,0.075
0.106,0.173,0.067,-0.14,0.02,0.12,-0.002,0.653,0.467,0.234,0.182,0.104
0.141,0.189,0.048,-0.166,0.046,0.118,-0.021,0.675,0.525,0.283,0.224,0.15
0.188,0.215,0.026,-0.202,0.081,0.12,-0.041,0.708,0.584,0.334,0.267,0.194
0.231,0.234,0.003,-0.232,0.114,0.118,-0.065,0.71,0.628,0.38,0.314,0.245
0.265,0.246,-0.019,-0.255,0.141,0.113,-0.093,0.681,0.664,0.427,0.361,0.293
0.283,0.242,-0.041,-0.262,0.162,0.1,-0.127,0.646,0.666,0.467,0.397,0.326
0.288,0.228,-0.06,-0.257,0.173,0.084,-0.141,0.598,0.65,0.489,0.412,0.339
0.267,0.218,-0.049,-0.242,0.157,0.085,-0.121,0.545,0.612,0.469,0.391,0.316
0.216,0.192,-0.024,-0.204,0.12,0.084,-0.088,0.467,0.501,0.389,0.322,0.255
0.16,0.143,-0.017,-0.151,0.088,0.063,-0.043,0.385,0.367,0.284,0.235,0.178
0.095,0.086,-0.009,-0.09,0.052,0.039,-0.002,0.312,0.25,0.187,0.159,0.104
0.029,0.044,0.015,-0.037,0.007,0.03,0.028,0.248,0.146,0.098,0.084,0.048
-0.018,0.017,0.035,0.0,-0.026,0.026,0.054,0.193,0.057,0.022,0.021,0.004
-0.044,0.002,0.046,0.021,-0.045,0.024,0.064,0.109,-0.005,-0.032,-0.017,-0.03
-0.065,-0.016,0.049,0.04,-0.057,0.016,0.079,0.058,-0.044,-0.066,-0.039,-0.038
-0.084,-0.05,0.034,0.067,-0.059,-0.008,0.087,0.061,-0.056,-0.076,-0.046,-0.041
-0.075,-0.065,0.011,0.07,-0.042,-0.027,0.083,0.059,-0.063,-0.082,-0.053,-0.045
-0.055,-0.069,-0.014,0.062,-0.02,-0.041,0.087,0.06,-0.07,-0.088,-0.055,-0.04
-0.049,-0.077,-0.028,0.063,-0.01,-0.052,0.097,0.06,-0.062,-0.082,-0.049,-0.035
-0.054,-0.075,-0.02,0.065,-0.016,-0.047,0.102,0.058,-0.058,-0.08,-0.047,-0.03
-0.065,-0.075,-0.01,0.07,-0.027,-0.042,0.103,0.056,-0.051,-0.076,-0.042,-0.026
-0.075,-0.075,0.0,0.075,-0.037,-0.037,0.107,0.05,-0.046,-0.071,-0.04,-0.021
-0.076,-0.075,0.002,0.075,-0.039,-0.036,0.109,0.051,-0.041,-0.069,-0.035,-0.018
-0.065,-0.076,-0.012,0.071,-0.026,-0.044,0.112,0.04,-0.04,-0.064,-0.028,-0.013
-0.068,-0.085,-0.017,0.077,-0.026,-0.05,0.115,0.082,-0.04,-0.061,-0.024,-0.01
-0.078,-0.094,-0.016,0.087,-0.031,-0.055,0.115,0.15,-0.036,-0.058,-0.018,-0.007
-0.083,-0.096,-0.014,0.09,-0.034,-0.055,0.115,0.138,-0.035,-0.053,-0.012,-0.002
-0.089,-0.1,-0.011,0.095,-0.039,-0.056,0.114,0.109,-0.037,-0.05,-0.012,0.001
-0.095,-0.103,-0.009,0.099,-0.043,-0.056,0.116,0.084,-0.049,-0.053,-0.019,0.004
-0.097,-0.112,-0.015,0.105,-0.041,-0.063,0.109,0.062,-0.056,-0.056,-0.026,0.005
-0.088,-0.141,-0.053,0.115,-0.017,-0.097,0.11,0.047,-0.054,-0.054,-0.032,0.005
-0.089,-0.16,-0.071,0.124,-0.009,-0.115,0.121,0.031,-0.056,-0.057,-0.039,0.005
-0.08,-0.16,-0.08,0.12,0.0,-0.12,0.12,0.02,-0.054,-0.068,-0.045,0.005
-0.068,-0.16,-0.092,0.114,0.012,-0.126,0.119,0.007,-0.058,-0.072,-0.05,0.003
-0.076,-0.16,-0.084,0.118,0.004,-0.122,0.115,0.044,-0.074,-0.078,-0.055,-0.002
-0.077,-0.16,-0.083,0.119,0.003,-0.121,0.115,0.07,-0.075,-0.086,-0.058,-0.005
-0.081,-0.16,-0.078,0.121,-0.002,-0.119,0.113,0.062,-0.076,-0.091,-0.063,-0.008
-0.089,-0.164,-0.074,0.127,-0.007,-0.119,0.109,0.067,-0.08,-0.095,-0.065,-0.013
-0.084,-0.168,-0.085,0.126,0.001,-0.127,0.111,0.057,-0.08,-0.095,-0.065,-0.015
-0.082,-0.173,-0.091,0.127,0.005,-0.132,0.106,0.062,-0.08,-0.095,-0.068,-0.01
-0.085,-0.174,-0.089,0.129,0.003,-0.131,0.105,0.056,-0.08,-0.095,-0.071,-0.01
-0.079,-0.169,-0.09,0.124,0.005,-0.13,0.105,0.044,-0.08,-0.095,-0.069,-0.01
-0.08,-0.17,-0.09,0.125,0.005,-0.13,0.105,0.091,-0.076,-0.092,-0.066,-0.01
-0.078,-0.168,-0.09,0.123,0.007,-0.129,0.105,0.108,-0.074,-0.089,-0.063,-0.01
-0.077,-0.164,-0.086,0.121,0.005,-0.125,0.105,0.08,-0.075,-0.086,-0.061,-0.008
-0.088,-0.167,-0.079,0.128,-0.004,-0.123,0.105,0.053,-0.075,-0.083,-0.057,-0.003
-0.077,-0.15,-0.073,0.114,-0.001,-0.112,0.104,0.042,-0.075,-0.08,-0.055,0.003
-0.068,-0.112,-0.045,0.09,-0.011,-0.078,0.108,0.047,-0.074,-0.08,-0.053,0.006
-0.063,-0.075,-0.012,0.069,-0.026,-0.043,0.11,0.046,-0.067,-0.07,-0.043,0.011
-0.06,-0.044,0.016,0.052,-0.038,-0.014,0.119,0.046,-0.061,-0.065,-0.033,0.015
-0.073,-0.035,0.039,0.054,-0.055,0.002,0.119,0.046,-0.058,-0.04,-0.022,0.031
-0.038,-0.004,0.034,0.021,-0.036,0.014,0.055,0.042,-0.061,-0.004,-0.01,0.058
-0.002,0.025,0.027,-0.012,-0.015,0.026,0.018,0.026,-0.059,-0.005,0.008,0.06
-0.024,-0.024,0.0,0.024,-0.012,-0.012,0.044,0.015,-0.063,-0.035,0.005,0.045
-0.027,-0.062,-0.035,0.045,0.005,-0.048,0.053,-0.021,-0.102,-0.076,-0.036,0.027
-0.036,-0.102,-0.065,0.069,0.015,-0.083,0.084,-0.05,-0.117,-0.104,-0.066,-0.007
-0.058,-0.155,-0.098,0.107,0.02,-0.126,0.123,-0.051,-0.113,-0.116,-0.081,-0.04
-0.064,-0.156,-0.092,0.111,0.014,-0.124,0.132,-0.049,-0.122,-0.12,-0.09,-0.05
-0.074,-0.172,-0.098,0.123,0.012,-0.135,0.135,-0.048,-0.117,-0.123,-0.094,-0.053
-0.084,-0.176,-0.092,0.131,0.004,-0.134,0.129,-0.044,-0.116,-0.115,-0.082,-0.045
-0.082,-0.178,-0.096,0.13,0.007,-0.137,0.132,-0.045,-0.112,-0.127,-0.094,-0.057
-0.065,-0.164,-0.1,0.115,0.018,-0.131,0.126,-0.042,-0.111,-0.112,-0.074,-0.042
-0.086,-0.167,-0.081,0.126,-0.002,-0.124,0.136,-0.028,-0.108,-0.125,-0.098,-0.058
-0.09,-0.154,-0.064,0.122,-0.013,-0.109,0.12,-0.033,-0.113,-0.098,-0.083,-0.052
-0.113,-0.158,-0.045,0.135,-0.034,-0.101,0.166,0.11,-0.056,-0.096,-0.098,-0.065
-0.159,-0.218,-0.059,0.189,-0.05,-0.138,0.298,0.367,0.113,-0.051,-0.096,-0.129
-0.071,-0.064,0.007,0.068,-0.039,-0.029,0.161,0.29,0.172,0.231,0.139,0.059
0.34,0.373,0.033,-0.357,0.153,0.203,-0.432,-0.995,0.009,0.842,0.862,0.697
0.629,0.972,0.343,-0.801,0.142,0.657,-0.953,-2.585,-0.554,1.834,1.932,1.627
0.158,0.859,0.701,-0.509,-0.272,0.78,-0.85,-2.738,-1.667,1.034,1.195,1.285
-0.353,0.176,0.529,0.088,-0.442,0.353,-0.521,-2.138,-2.055,-0.634,-0.189,0.192
-0.328,-0.023,0.305,0.175,-0.316,0.141,-0.241,-1.15,-1.0,-0.482,-0.139,0.02
-0.135,-0.037,0.097,0.086,-0.116,0.03,-0.01,-0.221,-0.122,-0.107,-0.034,0.035
-0.057,-0.084,-0.027,0.071,-0.015,-0.056,0.083,-0.011,0.032,-0.069,-0.018,0.027
-0.056,-0.099,-0.042,0.078,-0.007,-0.07,0.111,0.073,0.095,-0.01,0.007,0.044
-0.034,-0.102,-0.068,0.068,0.017,-0.085,0.104,0.124,0.111,-0.034,-0.014,0.021
-0.034,-0.092,-0.058,0.063,0.012,-0.075,0.105,0.172,0.128,0.005,0.016,0.037
-0.026,-0.095,-0.069,0.061,0.022,-0.082,0.105,0.253,0.148,-0.007,-0.002,0.018
-0.025,-0.088,-0.063,0.057,0.019,-0.075,0.104,0.297,0.175,0.02,0.02,0.031
-0.015,-0.088,-0.073,0.052,0.029,-0.08,0.106,0.335,0.198,0.028,0.017,0.038
0.015,-0.078,-0.093,0.032,0.055,-0.085,0.102,0.346,0.218,0.052,0.033,0.054
0.029,-0.066,-0.095,0.019,0.062,-0.08,0.094,0.362,0.249,0.073,0.039,0.061
0.034,-0.061,-0.095,0.014,0.065,-0.078,0.087,0.384,0.265,0.088,0.055,0.067
0.034,-0.061,-0.095,0.014,0.065,-0.078,0.08,0.405,0.286,0.11,0.069,0.071
0.051,-0.043,-0.094,-0.003,0.073,-0.068,0.072,0.409,0.326,0.125,0.082,0.081
0.087,-0.011,-0.097,-0.038,0.092,-0.054,0.066,0.427,0.374,0.16,0.111,0.104
0.108,0.011,-0.098,-0.06,0.103,-0.043,0.057,0.463,0.415,0.185,0.124,0.118
0.143,0.024,-0.119,-0.083,0.13,-0.047,0.048,0.482,0.463,0.209,0.151,0.139
0.174,0.035,-0.139,-0.104,0.157,-0.052,0.034,0.489,0.515,0.246,0.185,0.169
0.187,0.042,-0.146,-0.114,0.166,-0.052,0.013,0.512,0.564,0.287,0.215,0.207
0.228,0.063,-0.165,-0.146,0.196,-0.051,-0.015,0.539,0.61,0.331,0.258,0.25
0.267,0.084,-0.182,-0.175,0.224,-0.049,-0.041,0.548,0.66,0.37,0.296,0.29
0.307,0.088,-0.219,-0.197,0.263,-0.065,-0.062,0.542,0.709,0.421,0.346,0.339
0.339,0.084,-0.255,-0.212,0.297,-0.085,-0.093,0.542,0.728,0.472,0.391,0.38
0.339,0.075,-0.265,-0.207,0.302,-0.095,-0.097,0.529,0.721,0.478,0.401,0.39
0.316,0.067,-0.249,-0.191,0.282,-0.091,-0.084,0.471,0.685,0.465,0.392,0.372
0.27,0.06,-0.21,-0.165,0.24,-0.075,-0.074,0.384,0.58,0.428,0.344,0.314
0.215,0.046,-0.17,-0.13,0.192,-0.062,-0.039,0.308,0.455,0.338,0.265,0.245
0.138,0.005,-0.133,-0.071,0.136,-0.064,0.011,0.234,0.328,0.231,0.181,0.167
0.073,-0.04,-0.113,-0.016,0.093,-0.076,0.044,0.174,0.197,0.14,0.099,0.096
0.047,-0.05,-0.097,0.002,0.072,-0.073,0.066,0.135,0.104,0.066,0.029,0.045
0.008,-0.071,-0.079,0.032,0.044,-0.075,0.087,0.095,0.044,-0.001,-0.015,0.002
-0.014,-0.089,-0.075,0.052,0.031,-0.082,0.091,0.082,0.006,-0.05,-0.047,-0.021
-0.01,-0.081,-0.072,0.045,0.032,-0.076,0.091,0.088,-0.009,-0.077,-0.071,-0.042
-0.031,-0.1,-0.068,0.066,0.019,-0.083,0.096,0.087,-0.014,-0.091,-0.08,-0.051
-0.046,-0.111,-0.065,0.079,0.01,-0.088,0.093,0.1,-0.009,-0.091,-0.089,-0.052
-0.043,-0.103,-0.061,0.073,0.01,-0.082,0.09,0.128,0.004,-0.09,-0.091,-0.057
-0.046,-0.101,-0.055,0.073,0.005,-0.077,0.09,0.155,0.015,-0.089,-0.094,-0.06
-0.046,-0.095,-0.049,0.071,0.002,-0.071,0.087,0.173,0.024,-0.085,-0.095,-0.057
-0.048,-0.092,-0.044,0.07,-0.002,-0.068,0.085,0.186,0.031,-0.086,-0.087,-0.049
-0.052,-0.089,-0.038,0.071,-0.007,-0.063,0.085,0.195,0.038,-0.083,-0.081,-0.043
-0.053,-0.089,-0.036,0.071,-0.008,-0.062,0.082,0.196,0.036,-0.08,-0.074,-0.036
-0.055,-0.082,-0.027,0.069,-0.013,-0.055,0.078,0.199,0.024,-0.08,-0.068,-0.029
-0.047,-0.092,-0.045,0.069,0.0,-0.068,0.083,0.203,0.015,-0.08,-0.068,-0.025
-0.039,-0.118,-0.079,0.079,0.02,-0.098,0.095,0.205,0.005,-0.08,-0.071,-0.025
-0.041,-0.122,-0.081,0.082,0.02,-0.101,0.092,0.209,-0.005,-0.08,-0.072,-0.026
-0.046,-0.124,-0.078,0.085,0.017,-0.101,0.085,0.21,-0.015,-0.086,-0.076,-0.024
-0.046,-0.13,-0.083,0.088,0.019,-0.106,0.084,0.203,-0.031,-0.092,-0.074,-0.033
-0.029,-0.128,-0.099,0.079,0.035,-0.113,0.076,0.195,-0.043,-0.098,-0.068,-0.041
-0.025,-0.125,-0.101,0.075,0.039,-0.113,0.077,0.187,-0.048,-0.107,-0.083,-0.039
-0.028,-0.122,-0.095,0.075,0.034,-0.108,0.082,0.179,-0.066,-0.116,-0.097,-0.042
-0.026,-0.12,-0.093,0.073,0.034,-0.106,0.08,0.172,-0.085,-0.122,-0.095,-0.046
-0.029,-0.117,-0.088,0.073,0.03,-0.102,0.08,0.17,-0.088,-0.125,-0.094,-0.044
-0.029,-0.114,-0.086,0.072,0.029,-0.1,0.078,0.166,-0.093,-0.128,-0.1,-0.05
-0.036,-0.115,-0.08,0.076,0.023,-0.097,0.074,0.164,-0.095,-0.131,-0.108,-0.053
-0.044,-0.114,-0.07,0.08,0.014,-0.092,0.075,0.16,-0.099,-0.134,-0.105,-0.05
-0.056,-0.115,-0.059,0.086,0.002,-0.087,0.08,0.16,-0.1,-0.135,-0.105,-0.05
-0.063,-0.114,-0.051,0.089,-0.005,-0.083,0.08,0.17,-0.095,-0.13,-0.103,-0.048
-0.079,-0.116,-0.038,0.098,-0.02,-0.077,0.086,0.181,-0.095,-0.13,-0.099,-0.045
-0.08,-0.13,-0.05,0.105,-0.014,-0.09,0.098,0.19,-0.094,-0.13,-0.101,-0.045
-0.052,-0.13,-0.078,0.091,0.013,-0.104,0.1,0.189,-0.09,-0.129,-0.103,-0.049
-0.055,-0.125,-0.071,0.09,0.008,-0.098,0.1,0.182,-0.09,-0.131,-0.106,-0.05
-0.063,-0.123,-0.059,0.093,-0.002,-0.091,0.1,0.179,-0.092,-0.127,-0.104,-0.051
-0.068,-0.118,-0.051,0.093,-0.009,-0.084,0.099,0.174,-0.096,-0.125,-0.107,-0.054
-0.075,-0.115,-0.04,0.095,-0.017,-0.077,0.101,0.128,-0.106,-0.136,-0.117,-0.056
-0.081,-0.114,-0.033,0.098,-0.023,-0.074,0.095,0.076,-0.104,-0.134,-0.106,-0.053
-0.09,-0.115,-0.025,0.102,-0.032,-0.069,0.096,0.068,-0.1,-0.13,-0.092,-0.041
-0.061,-0.078,-0.017,0.07,-0.022,-0.047,0.094,0.094,-0.079,-0.112,-0.078,-0.026
-0.05,-0.062,-0.012,0.057,-0.019,-0.037,0.098,0.097,-0.046,-0.082,-0.064,-0.016
-0.056,-0.061,-0.006,0.059,-0.025,-0.033,0.117,0.093,-0.046,-0.078,-0.049,-0.004
-0.032,-0.035,-0.004,0.034,-0.014,-0.019,0.081,0.099,-0.014,-0.044,-0.009,0.036
-0.031,-0.027,0.004,0.028,-0.017,-0.011,0.051,0.028,0.013,-0.015,0.013,0.056
-0.018,-0.016,0.002,0.017,-0.01,-0.006,0.057,-0.007,-0.008,-0.031,0.002,0.047
0.01,-0.029,-0.039,0.009,0.025,-0.034,0.055,0.021,-0.042,-0.058,-0.027,0.038
-0.001,-0.071,-0.071,0.036,0.035,-0.071,0.055,0.018,-0.089,-0.104,-0.065,0.007
-0.039,-0.12,-0.08,0.08,0.021,-0.1,0.088,0.057,-0.092,-0.138,-0.095,-0.03
-0.072,-0.14,-0.067,0.106,-0.002,-0.103,0.115,0.09,-0.104,-0.136,-0.105,-0.042
-0.076,-0.139,-0.062,0.108,-0.007,-0.1,0.119,0.094,-0.122,-0.142,-0.118,-0.047
-0.085,-0.145,-0.059,0.115,-0.013,-0.102,0.12,0.097,-0.111,-0.14,-0.114,-0.045
-0.1,-0.154,-0.054,0.128,-0.023,-0.104,0.12,0.113,-0.108,-0.138,-0.114,-0.043
-0.08,-0.168,-0.088,0.124,0.004,-0.127,0.121,0.108,-0.097,-0.146,-0.119,-0.051
-0.079,-0.147,-0.068,0.114,-0.006,-0.108,0.127,0.108,-0.096,-0.13,-0.106,-0.036
-0.093,-0.173,-0.08,0.133,-0.006,-0.126,0.143,0.107,-0.082,-0.154,-0.132,-0.063
-0.1,-0.146,-0.046,0.124,-0.027,-0.096,0.12,0.096,-0.077,-0.119,-0.103,-0.043
-0.146,-0.175,-0.029,0.16,-0.058,-0.102,0.206,0.265,0.028,-0.121,-0.139,-0.101
-0.157,-0.17,-0.013,0.163,-0.071,-0.091,0.292,0.519,0.193,0.037,-0.037,-0.093
0.01,0.076,0.065,-0.043,-0.028,0.07,-0.004,0.178,0.201,0.376,0.295,0.217
0.494,0.591,0.097,-0.543,0.198,0.343,-0.654,-1.387,0.003,1.22,1.275,1.051
0.517,1.052,0.535,-0.785,-0.009,0.794,-0.972,-2.579,-0.825,1.801,1.892,1.702
-0.153,0.598,0.75,-0.223,-0.452,0.674,-0.696,-2.353,-1.932,0.313,0.578,0.843
-0.444,0.02,0.464,0.212,-0.454,0.242,-0.384,-1.629,-1.731,-0.725,-0.268,0.061
-0.287,-0.03,0.257,0.158,-0.272,0.114,-0.118,-0.518,-0.543,-0.257,-0.051,0.077
-0.13,-0.064,0.065,0.097,-0.098,0.001,0.06,0.158,0.026,-0.101,-0.052,0.014
-0.091,-0.097,-0.006,0.094,-0.042,-0.051,0.103,0.229,0.102,-0.038,0.0,0.046
-0.077,-0.13,-0.053,0.104,-0.012,-0.091,0.129,0.323,0.149,-0.033,-0.017,0.031
-0.065,-0.132,-0.066,0.099,0.001,-0.099,0.127,0.343,0.155,-0.024,-0.001,0.034
-0.047,-0.137,-0.09,0.092,0.022,-0.113,0.132,0.377,0.175,0.003,0.007,0.038
-0.021,-0.159,-0.138,0.09,0.059,-0.148,0.134,0.395,0.199,-0.001,0.005,0.031
-0.031,-0.162,-0.131,0.097,0.05,-0.146,0.136,0.403,0.227,0.032,0.023,0.051
-0.009,-0.145,-0.136,0.077,0.064,-0.14,0.13,0.41,0.239,0.034,0.022,0.048
0.002,-0.114,-0.116,0.056,0.059,-0.115,0.122,0.434,0.263,0.064,0.043,0.069
0.02,-0.093,-0.113,0.037,0.067,-0.102,0.117,0.454,0.28,0.073,0.043,0.071
0.026,-0.073,-0.099,0.024,0.062,-0.086,0.107,0.459,0.299,0.093,0.062,0.085
0.033,-0.063,-0.096,0.015,0.065,-0.079,0.101,0.499,0.322,0.122,0.081,0.092
0.061,-0.055,-0.116,-0.003,0.089,-0.085,0.094,0.51,0.346,0.137,0.1,0.104
0.077,-0.046,-0.122,-0.015,0.1,-0.084,0.083,0.544,0.389,0.166,0.111,0.126
0.082,-0.036,-0.118,-0.023,0.1,-0.076,0.071,0.583,0.428,0.194,0.131,0.141
0.099,-0.024,-0.123,-0.038,0.112,-0.073,0.06,0.578,0.472,0.22,0.163,0.169
0.136,-0.011,-0.147,-0.062,0.142,-0.079,0.044,0.583,0.511,0.259,0.195,0.203
0.152,0.005,-0.147,-0.078,0.15,-0.071,0.022,0.585,0.552,0.289,0.224,0.237
0.212,0.035,-0.177,-0.123,0.195,-0.071,0.004,0.586,0.593,0.326,0.257,0.275
0.268,0.069,-0.199,-0.169,0.234,-0.065,-0.019,0.582,0.629,0.371,0.309,0.316
0.296,0.097,-0.199,-0.197,0.247,-0.05,-0.063,0.563,0.651,0.408,0.34,0.345
0.347,0.115,-0.232,-0.231,0.289,-0.058,-0.094,0.533,0.638,0.434,0.362,0.375
0.326,0.114,-0.212,-0.22,0.269,-0.049,-0.101,0.499,0.625,0.432,0.358,0.376
0.29,0.117,-0.173,-0.203,0.231,-0.028,-0.091,0.461,0.589,0.417,0.338,0.339
0.252,0.096,-0.156,-0.174,0.203,-0.029,-0.055,0.403,0.507,0.369,0.289,0.289
0.159,0.044,-0.115,-0.101,0.137,-0.035,-0.017,0.321,0.394,0.275,0.204,0.209
0.105,-0.003,-0.108,-0.051,0.106,-0.056,0.026,0.266,0.277,0.185,0.131,0.132
0.057,-0.06,-0.116,0.002,0.087,-0.088,0.062,0.273,0.179,0.098,0.055,0.068
0.011,-0.099,-0.11,0.044,0.061,-0.104,0.086,0.265,0.1,0.029,0.006,0.022
-0.006,-0.114,-0.109,0.06,0.052,-0.111,0.111,0.249,0.051,-0.019,-0.035,-0.017
-0.029,-0.132,-0.103,0.081,0.037,-0.117,0.117,0.251,0.017,-0.062,-0.064,-0.036
-0.032,-0.139,-0.108,0.086,0.038,-0.123,0.131,0.249,-0.006,-0.087,-0.074,-0.033
-0.042,-0.141,-0.098,0.092,0.028,-0.119,0.137,0.25,-0.012,-0.095,-0.094,-0.043
-0.042,-0.139,-0.098,0.091,0.028,-0.118,0.133,0.25,-0.02,-0.095,-0.095,-0.046
-0.059,-0.143,-0.083,0.101,0.012,-0.113,0.136,0.25,-0.024,-0.095,-0.09,-0.044
-0.083,-0.156,-0.072,0.12,-0.005,-0.114,0.134,0.247,-0.018,-0.091,-0.089,-0.046
-0.063,-0.156,-0.093,0.11,0.015,-0.124,0.134,0.244,-0.012,-0.09,-0.085,-0.045
-0.082,-0.155,-0.072,0.119,-0.004,-0.113,0.127,0.243,-0.006,-0.09,-0.084,-0.044
-0.077,-0.154,-0.077,0.116,0.0,-0.115,0.121,0.238,-0.001,-0.086,-0.08,-0.039
-0.064,-0.149,-0.085,0.107,0.01,-0.117,0.114,0.243,0.0,-0.084,-0.08,-0.034
-0.08,-0.151,-0.071,0.115,-0.005,-0.11,0.107,0.263,0.004,-0.08,-0.08,-0.029
-0.075,-0.148,-0.073,0.112,-0.001,-0.11,0.101,0.261,0.004,-0.079,-0.08,-0.026
-0.081,-0.141,-0.06,0.111,-0.01,-0.1,0.096,0.25,-0.005,-0.073,-0.08,-0.019
-0.072,-0.136,-0.064,0.104,-0.004,-0.1,0.095,0.243,-0.014,-0.081,-0.085,-0.025
-0.039,-0.13,-0.09,0.085,0.026,-0.11,0.095,0.232,-0.023,-0.098,-0.095,-0.033
-0.048,-0.125,-0.077,0.087,0.015,-0.101,0.095,0.226,-0.032,-0.106,-0.105,-0.039
-0.053,-0.125,-0.072,0.089,0.01,-0.098,0.095,0.222,-0.043,-0.127,-0.114,-0.05
-0.033,-0.125,-0.092,0.079,0.03,-0.108,0.096,0.219,-0.052,-0.138,-0.121,-0.05
-0.037,-0.125,-0.088,0.081,0.026,-0.106,0.1,0.215,-0.057,-0.139,-0.125,-0.05
-0.032,-0.125,-0.093,0.078,0.031,-0.108,0.1,0.212,-0.068,-0.142,-0.129,-0.05
-0.042,-0.126,-0.084,0.084,0.022,-0.104,0.1,0.208,-0.08,-0.143,-0.134,-0.05
-0.048,-0.122,-0.074,0.086,0.013,-0.098,0.1,0.205,-0.08,-0.15,-0.136,-0.052
-0.065,-0.119,-0.055,0.092,-0.005,-0.087,0.1,0.205,-0.081,-0.157,-0.14,-0.057
-0.077,-0.121,-0.044,0.099,-0.017,-0.082,0.104,0.201,-0.088,-0.155,-0.139,-0.06
-0.052,-0.118,-0.066,0.086,0.007,-0.092,0.105,0.199,-0.087,-0.155,-0.134,-0.055
-0.072,-0.135,-0.063,0.104,-0.004,-0.099,0.105,0.2,-0.085,-0.152,-0.131,-0.055
-0.064,-0.15,-0.087,0.107,0.012,-0.118,0.105,0.2,-0.085,-0.149,-0.128,-0.055
-0.061,-0.161,-0.1,0.112,0.02,-0.13,0.105,0.199,-0.08,-0.15,-0.123,-0.055
-0.081,-0.172,-0.091,0.127,0.005,-0.131,0.105,0.225,-0.08,-0.15,-0.12,-0.055
-0.069,-0.168,-0.099,0.119,0.015,-0.133,0.105,0.253,-0.08,-0.15,-0.123,-0.057
-0.072,-0.179,-0.107,0.126,0.018,-0.143,0.11,0.268,-0.08,-0.149,-0.126,-0.061
-0.077,-0.182,-0.106,0.13,0.015,-0.144,0.11,0.285,-0.08,-0.151,-0.129,-0.06
-0.074,-0.173,-0.099,0.123,0.012,-0.135,0.103,0.28,-0.08,-0.149,-0.131,-0.064
-0.059,-0.159,-0.101,0.109,0.021,-0.13,0.1,0.274,-0.08,-0.151,-0.135,-0.065
-0.04,-0.136,-0.096,0.089,0.028,-0.116,0.095,0.27,-0.079,-0.158,-0.134,-0.065
-0.04,-0.129,-0.089,0.085,0.024,-0.109,0.09,0.263,-0.086,-0.164,-0.138,-0.071
-0.047,-0.13,-0.083,0.089,0.018,-0.106,0.09,0.259,-0.083,-0.171,-0.146,-0.078
-0.048,-0.127,-0.079,0.088,0.016,-0.103,0.09,0.252,-0.095,-0.17,-0.144,-0.078
-0.052,-0.124,-0.073,0.088,0.011,-0.098,0.09,0.246,-0.123,-0.17,-0.145,-0.073
-0.052,-0.126,-0.073,0.089,0.011,-0.099,0.09,0.241,-0.128,-0.17,-0.145,-0.07
-0.067,-0.12,-0.053,0.094,-0.007,-0.086,0.09,0.239,-0.129,-0.17,-0.145,-0.067
-0.089,-0.112,-0.023,0.101,-0.033,-0.067,0.091,0.241,-0.121,-0.169,-0.145,-0.062
-0.075,-0.103,-0.028,0.09,-0.023,-0.065,0.096,0.239,-0.109,-0.153,-0.127,-0.061
-0.051,-0.071,-0.02,0.061,-0.014,-0.045,0.105,0.241,-0.101,-0.135,-0.111,-0.038
-0.058,-0.033,0.025,0.045,-0.041,-0.004,0.112,0.242,-0.088,-0.128,-0.1,-0.009
-0.071,-0.013,0.058,0.042,-0.064,0.023,0.114,0.245,-0.08,-0.117,-0.09,0.0
-0.048,0.0,0.048,0.024,-0.048,0.024,0.1,0.254,-0.069,-0.079,-0.079,0.004
-0.016,0.011,0.027,0.002,-0.022,0.019,0.054,0.209,-0.064,-0.051,-0.057,0.024
-0.006,0.003,0.009,0.001,-0.008,0.006,0.038,0.179,-0.062,-0.05,-0.048,0.042
-0.019,-0.036,-0.017,0.028,-0.001,-0.026,0.059,0.188,-0.074,-0.085,-0.063,0.022
-0.036,-0.091,-0.055,0.064,0.01,-0.073,0.068,0.182,-0.106,-0.125,-0.087,-0.002
-0.052,-0.146,-0.094,0.099,0.022,-0.12,0.111,0.189,-0.106,-0.14,-0.113,-0.032
-0.063,-0.171,-0.108,0.118,0.023,-0.139,0.137,0.169,-0.113,-0.148,-0.129,-0.05
-0.063,-0.181,-0.119,0.122,0.028,-0.15,0.135,0.143,-0.123,-0.158,-0.149,-0.057
-0.064,-0.196,-0.132,0.131,0.034,-0.164,0.135,0.136,-0.118,-0.154,-0.143,-0.054
-0.09,-0.2,-0.109,0.145,0.01,-0.155,0.135,0.143,-0.122,-0.154,-0.144,-0.057
-0.094,-0.182,-0.088,0.138,-0.002,-0.135,0.136,0.137,-0.118,-0.163,-0.149,-0.064
-0.096,-0.155,-0.059,0.125,-0.018,-0.106,0.133,0.141,-0.122,-0.153,-0.137,-0.053
-0.097,-0.161,-0.064,0.129,-0.016,-0.112,0.146,0.141,-0.113,-0.17,-0.161,-0.076
-0.089,-0.131,-0.041,0.11,-0.023,-0.086,0.128,0.142,-0.113,-0.138,-0.14,-0.051
-0.134,-0.165,-0.031,0.149,-0.051,-0.097,0.201,0.264,-0.012,-0.159,-0.178,-0.123
-0.143,-0.138,0.005,0.14,-0.073,-0.066,0.282,0.453,0.16,0.009,-0.071,-0.113
0.044,0.104,0.06,-0.074,-0.008,0.082,-0.023,0.106,0.183,0.363,0.274,0.211
0.535,0.634,0.099,-0.585,0.218,0.366,-0.681,-1.488,-0.014,1.19,1.246,1.053
0.542,1.103,0.561,-0.823,-0.01,0.832,-0.973,-2.699,-0.866,1.713,1.814,1.674
-0.132,0.642,0.775,-0.255,-0.454,0.708,-0.717,-2.478,-1.971,0.238,0.512,0.816
-0.414,0.067,0.482,0.173,-0.448,0.274,-0.415,-1.751,-1.739,-0.743,-0.305,0.018
-0.251,0.004,0.255,0.123,-0.253,0.129,-0.145,-0.646,-0.572,-0.303,-0.115,0.012
-0.094,-0.035,0.058,0.064,-0.076,0.011,0.014,0.015,-0.035,-0.157,-0.125,-0.03
-0.047,-0.056,-0.009,0.052,-0.019,-0.032,0.077,0.122,0.043,-0.094,-0.064,-0.011
-0.042,-0.082,-0.039,0.062,-0.001,-0.06,0.106,0.215,0.086,-0.099,-0.083,-0.027
-0.039,-0.086,-0.047,0.063,0.004,-0.066,0.096,0.227,0.1,-0.092,-0.069,-0.03
-0.024,-0.088,-0.064,0.056,0.02,-0.075,0.103,0.269,0.131,-0.071,-0.064,-0.024
0.011,-0.087,-0.097,0.038,0.055,-0.092,0.098,0.278,0.139,-0.065,-0.066,-0.015
0.026,-0.083,-0.108,0.029,0.068,-0.095,0.101,0.289,0.158,-0.032,-0.051,0.006
0.039,-0.087,-0.126,0.024,0.083,-0.106,0.096,0.29,0.18,-0.033,-0.05,0.009
0.034,-0.083,-0.117,0.025,0.076,-0.099,0.089,0.303,0.202,-0.004,-0.028,0.025
0.035,-0.087,-0.122,0.026,0.079,-0.104,0.086,0.325,0.213,0.009,-0.024,0.027
0.042,-0.077,-0.12,0.018,0.081,-0.098,0.079,0.324,0.231,0.036,-0.004,0.041
0.062,-0.063,-0.125,0.001,0.093,-0.094,0.074,0.325,0.26,0.055,0.011,0.052
0.075,-0.05,-0.125,-0.012,0.1,-0.087,0.069,0.337,0.286,0.077,0.033,0.066
0.091,-0.035,-0.126,-0.028,0.109,-0.08,0.06,0.365,0.316,0.1,0.044,0.084
0.108,-0.022,-0.13,-0.043,0.12,-0.075,0.05,0.394,0.352,0.12,0.065,0.104
0.126,-0.004,-0.13,-0.061,0.128,-0.067,0.043,0.44,0.397,0.159,0.091,0.139
0.155,0.024,-0.131,-0.089,0.143,-0.054,0.032,0.471,0.437,0.192,0.111,0.162
0.179,0.029,-0.15,-0.104,0.164,-0.06,0.021,0.5,0.497,0.229,0.155,0.198
0.223,0.037,-0.186,-0.13,0.205,-0.074,-0.01,0.531,0.544,0.268,0.193,0.237
0.271,0.067,-0.204,-0.169,0.237,-0.069,-0.044,0.547,0.576,0.305,0.234,0.274
0.308,0.081,-0.227,-0.194,0.268,-0.073,-0.069,0.559,0.596,0.345,0.271,0.316
0.322,0.095,-0.228,-0.208,0.275,-0.066,-0.102,0.535,0.59,0.376,0.295,0.346
0.319,0.087,-0.231,-0.202,0.275,-0.072,-0.1,0.495,0.582,0.399,0.312,0.363
0.302,0.068,-0.234,-0.184,0.268,-0.083,-0.086,0.441,0.574,0.399,0.31,0.349
0.243,0.054,-0.189,-0.148,0.216,-0.067,-0.066,0.365,0.545,0.358,0.264,0.311
0.173,0.026,-0.147,-0.099,0.16,-0.06,-0.025,0.295,0.436,0.278,0.189,0.239
0.105,-0.028,-0.133,-0.038,0.119,-0.08,0.022,0.223,0.302,0.194,0.122,0.154
0.044,-0.081,-0.126,0.019,0.085,-0.103,0.062,0.166,0.192,0.11,0.05,0.088
0.011,-0.101,-0.112,0.045,0.062,-0.106,0.078,0.124,0.093,0.02,-0.016,0.034
-0.018,-0.121,-0.103,0.07,0.042,-0.111,0.092,0.088,0.025,-0.043,-0.066,-0.001
-0.047,-0.14,-0.092,0.094,0.023,-0.116,0.102,0.067,-0.013,-0.073,-0.101,-0.023
-0.062,-0.145,-0.083,0.104,0.011,-0.113,0.111,0.049,-0.022,-0.093,-0.119,-0.042
-0.071,-0.142,-0.072,0.107,0.001,-0.107,0.113,0.032,-0.041,-0.106,-0.122,-0.055
-0.07,-0.135,-0.065,0.103,-0.002,-0.1,0.109,0.021,-0.05,-0.105,-0.12,-0.055
-0.068,-0.131,-0.063,0.1,-0.002,-0.097,0.111,0.016,-0.041,-0.105,-0.12,-0.056
-0.064,-0.124,-0.06,0.094,-0.002,-0.092,0.106,0.011,-0.038,-0.105,-0.12,-0.059
-0.063,-0.12,-0.058,0.092,-0.002,-0.089,0.105,0.007,-0.031,-0.105,-0.128,-0.06
-0.067,-0.12,-0.053,0.094,-0.007,-0.086,0.105,0.002,-0.027,-0.105,-0.127,-0.059
-0.068,-0.119,-0.05,0.094,-0.009,-0.085,0.105,-0.002,-0.021,-0.1,-0.116,-0.054
-0.083,-0.126,-0.043,0.105,-0.02,-0.084,0.105,-0.005,-0.02,-0.1,-0.108,-0.051
-0.077,-0.131,-0.054,0.104,-0.012,-0.092,0.105,-0.005,-0.02,-0.1,-0.107,-0.048
-0.059,-0.13,-0.072,0.095,0.006,-0.101,0.105,0.004,-0.016,-0.1,-0.112,-0.044
-0.058,-0.128,-0.07,0.093,0.006,-0.099,0.106,0.029,-0.014,-0.099,-0.114,-0.039
-0.056,-0.126,-0.069,0.091,0.007,-0.097,0.102,0.051,-0.017,-0.103,-0.117,-0.045
-0.052,-0.124,-0.071,0.088,0.01,-0.097,0.1,0.058,-0.031,-0.111,-0.12,-0.055
-0.061,-0.129,-0.067,0.095,0.003,-0.098,0.1,0.069,-0.043,-0.118,-0.121,-0.055
-0.063,-0.143,-0.079,0.103,0.008,-0.111,0.097,0.071,-0.045,-0.131,-0.125,-0.057
-0.05,-0.146,-0.096,0.099,0.023,-0.121,0.094,0.069,-0.052,-0.136,-0.128,-0.064
-0.062,-0.157,-0.095,0.11,0.017,-0.126,0.097,0.07,-0.064,-0.14,-0.132,-0.071
-0.067,-0.161,-0.093,0.114,0.013,-0.127,0.108,0.07,-0.066,-0.148,-0.135,-0.077
-0.069,-0.16,-0.09,0.115,0.01,-0.125,0.111,0.069,-0.068,-0.151,-0.135,-0.083
-0.071,-0.16,-0.089,0.115,0.009,-0.125,0.109,0.065,-0.071,-0.155,-0.135,-0.089
-0.067,-0.161,-0.094,0.114,0.013,-0.127,0.11,0.063,-0.072,-0.16,-0.135,-0.09
-0.076,-0.183,-0.107,0.13,0.016,-0.145,0.11,0.06,-0.076,-0.16,-0.135,-0.09
-0.064,-0.188,-0.124,0.126,0.03,-0.156,0.109,0.056,-0.078,-0.161,-0.135,-0.09
-0.061,-0.181,-0.121,0.121,0.03,-0.151,0.104,0.055,-0.081,-0.165,-0.136,-0.09
-0.066,-0.18,-0.114,0.123,0.024,-0.147,0.106,0.052,-0.084,-0.165,-0.145,-0.09
-0.066,-0.175,-0.109,0.121,0.022,-0.142,0.102,0.046,-0.085,-0.167,-0.151,-0.092
-0.069,-0.172,-0.102,0.121,0.017,-0.137,0.1,0.041,-0.085,-0.17,-0.149,-0.095
-0.071,-0.168,-0.098,0.12,0.014,-0.133,0.1,0.038,-0.084,-0.173,-0.153,-0.095
-0.07,-0.163,-0.092,0.117,0.011,-0.127,0.097,0.032,-0.096,-0.176,-0.155,-0.099
-0.07,-0.156,-0.086,0.113,0.009,-0.121,0.094,0.029,-0.111,-0.179,-0.155,-0.1
-0.068,-0.149,-0.081,0.108,0.007,-0.115,0.091,0.024,-0.11,-0.18,-0.155,-0.1
-0.066,-0.143,-0.076,0.105,0.005,-0.109,0.088,0.021,-0.11,-0.175,-0.155,-0.1
-0.065,-0.136,-0.071,0.1,0.004,-0.103,0.085,0.018,-0.108,-0.175,-0.155,-0.1
-0.063,-0.131,-0.068,0.098,0.002,-0.099,0.086,0.012,-0.102,-0.175,-0.155,-0.1
-0.061,-0.124,-0.063,0.093,0.002,-0.094,0.09,0.012,-0.098,-0.174,-0.155,-0.1
-0.059,-0.117,-0.058,0.088,0.0,-0.087,0.09,-0.003,-0.093,-0.176,-0.154,-0.101
-0.062,-0.112,-0.05,0.087,-0.005,-0.081,0.09,-0.025,-0.089,-0.172,-0.149,-0.097
-0.057,-0.101,-0.044,0.079,-0.006,-0.073,0.09,-0.041,-0.084,-0.164,-0.147,-0.091
-0.07,-0.107,-0.037,0.089,-0.016,-0.072,0.089,-0.043,-0.078,-0.154,-0.142,-0.084
-0.065,-0.097,-0.032,0.081,-0.017,-0.064,0.091,-0.043,-0.067,-0.147,-0.142,-0.078
-0.04,-0.059,-0.019,0.05,-0.01,-0.04,0.089,-0.027,-0.058,-0.137,-0.129,-0.071
-0.065,-0.048,0.017,0.056,-0.04,-0.015,0.096,0.001,-0.049,-0.129,-0.103,-0.065
-0.079,-0.044,0.035,0.061,-0.057,-0.004,0.114,0.047,-0.041,-0.112,-0.085,-0.053
-0.037,-0.013,0.024,0.025,-0.031,0.005,0.071,0.058,-0.044,-0.076,-0.077,-0.015
-0.007,0.014,0.021,-0.004,-0.014,0.017,0.006,-0.023,-0.045,-0.066,-0.067,-0.005
0.005,0.01,0.005,-0.008,0.0,0.007,0.002,-0.019,-0.048,-0.085,-0.067,-0.015
0.009,-0.037,-0.047,0.015,0.028,-0.042,0.025,0.019,-0.084,-0.121,-0.096,-0.026
-0.028,-0.116,-0.088,0.073,0.03,-0.102,0.057,0.038,-0.119,-0.156,-0.129,-0.061
-0.065,-0.151,-0.086,0.108,0.01,-0.118,0.084,0.058,-0.126,-0.177,-0.159,-0.095
-0.083,-0.146,-0.063,0.115,-0.01,-0.104,0.085,0.054,-0.132,-0.186,-0.17,-0.11
-0.091,-0.154,-0.062,0.123,-0.014,-0.108,0.087,0.072,-0.127,-0.195,-0.183,-0.12
-0.095,-0.149,-0.053,0.122,-0.021,-0.101,0.082,0.067,-0.126,-0.184,-0.179,-0.11
-0.108,-0.158,-0.05,0.133,-0.028,-0.104,0.089,0.075,-0.12,-0.192,-0.197,-0.118
-0.11,-0.154,-0.044,0.132,-0.033,-0.099,0.081,0.061,-0.118,-0.18,-0.183,-0.106
-0.107,-0.149,-0.043,0.128,-0.032,-0.096,0.09,0.073,-0.114,-0.187,-0.195,-0.112
-0.081,-0.15,-0.069,0.115,-0.006,-0.109,0.105,0.055,-0.103,-0.189,-0.19,-0.117
-0.105,-0.128,-0.023,0.117,-0.041,-0.075,0.116,0.093,-0.08,-0.166,-0.183,-0.118
-0.157,-0.194,-0.036,0.176,-0.06,-0.115,0.233,0.295,0.088,-0.131,-0.208,-0.188
-0.121,-0.085,0.036,0.102,-0.078,-0.024,0.191,0.38,0.208,0.129,0.002,-0.056
0.216,0.297,0.081,-0.257,0.067,0.188,-0.318,-0.495,0.186,0.61,0.561,0.453
0.628,0.901,0.273,-0.765,0.177,0.587,-0.916,-2.208,-0.183,1.577,1.653,1.412
0.258,1.025,0.767,-0.642,-0.254,0.896,-0.925,-2.769,-1.333,1.247,1.38,1.411
-0.366,0.372,0.738,-0.003,-0.552,0.555,-0.593,-2.264,-2.052,-0.446,-0.078,0.285
-0.381,0.065,0.446,0.158,-0.414,0.255,-0.315,-1.364,-1.213,-0.614,-0.269,-0.087
-0.173,0.049,0.221,0.062,-0.197,0.135,-0.084,-0.314,-0.213,-0.201,-0.131,-0.058
-0.075,-0.013,0.062,0.043,-0.068,0.025,0.012,0.01,0.024,-0.168,-0.14,-0.09
-0.073,-0.023,0.05,0.048,-0.062,0.014,0.052,0.094,0.078,-0.09,-0.09,-0.065
-0.058,-0.048,0.011,0.053,-0.034,-0.018,0.052,0.152,0.105,-0.113,-0.124,-0.091
-0.036,-0.035,0.001,0.036,-0.019,-0.017,0.049,0.15,0.116,-0.082,-0.092,-0.072
-0.024,-0.043,-0.018,0.034,-0.003,-0.03,0.048,0.189,0.135,-0.083,-0.11,-0.078
-0.003,-0.039,-0.036,0.021,0.016,-0.037,0.042,0.192,0.154,-0.056,-0.095,-0.06
0.004,-0.04,-0.044,0.018,0.024,-0.042,0.042,0.224,0.175,-0.04,-0.095,-0.053
0.011,-0.036,-0.047,0.013,0.029,-0.041,0.038,0.217,0.185,-0.031,-0.078,-0.043
0.018,-0.024,-0.042,0.003,0.03,-0.033,0.037,0.233,0.211,-0.009,-0.063,-0.031
0.026,-0.015,-0.041,-0.005,0.034,-0.028,0.031,0.263,0.228,0.005,-0.051,-0.027
0.031,-0.008,-0.039,-0.012,0.035,-0.023,0.029,0.291,0.247,0.024,-0.029,-0.014
0.052,0.008,-0.043,-0.03,0.047,-0.017,0.024,0.321,0.286,0.045,-0.017,0.0
0.087,0.042,-0.045,-0.064,0.066,-0.001,0.022,0.35,0.334,0.073,0.002,0.023
0.117,0.069,-0.048,-0.093,0.083,0.01,0.013,0.373,0.369,0.085,0.011,0.041
0.128,0.077,-0.051,-0.102,0.089,0.013,-0.007,0.394,0.413,0.114,0.034,0.059
0.146,0.085,-0.061,-0.115,0.103,0.011,-0.028,0.433,0.447,0.143,0.06,0.079
0.177,0.088,-0.09,-0.132,0.133,-0.001,-0.042,0.451,0.464,0.172,0.087,0.104
0.217,0.091,-0.126,-0.154,0.171,-0.017,-0.06,0.467,0.501,0.216,0.126,0.146
0.27,0.127,-0.143,-0.198,0.206,-0.008,-0.09,0.496,0.526,0.252,0.162,0.183
0.29,0.137,-0.153,-0.213,0.221,-0.008,-0.112,0.515,0.557,0.29,0.198,0.22
0.318,0.149,-0.17,-0.234,0.244,-0.01,-0.143,0.514,0.579,0.33,0.242,0.269
0.348,0.18,-0.168,-0.264,0.258,0.006,-0.163,0.489,0.57,0.362,0.265,0.292
0.343,0.18,-0.164,-0.261,0.253,0.008,-0.152,0.448,0.558,0.376,0.252,0.289
0.311,0.162,-0.148,-0.236,0.229,0.007,-0.148,0.395,0.521,0.348,0.239,0.263
0.248,0.125,-0.123,-0.186,0.185,0.001,-0.121,0.325,0.448,0.285,0.193,0.206
0.166,0.057,-0.109,-0.111,0.137,-0.026,-0.061,0.249,0.341,0.211,0.115,0.137
0.093,-0.007,-0.1,-0.043,0.097,-0.054,-0.014,0.184,0.233,0.121,0.035,0.068
0.054,-0.036,-0.09,-0.009,0.072,-0.063,0.006,0.119,0.126,0.033,-0.038,0.005
0.016,-0.064,-0.08,0.024,0.048,-0.072,0.023,0.07,0.038,-0.036,-0.093,-0.054
-0.006,-0.078,-0.073,0.042,0.034,-0.076,0.04,0.034,-0.008,-0.091,-0.138,-0.089
-0.029,-0.094,-0.065,0.061,0.018,-0.079,0.048,0.009,-0.054,-0.115,-0.161,-0.103
-0.034,-0.108,-0.074,0.071,0.02,-0.091,0.059,0.004,-0.078,-0.13,-0.174,-0.12
-0.013,-0.099,-0.086,0.057,0.036,-0.092,0.06,0.002,-0.076,-0.142,-0.181,-0.126
-0.011,-0.098,-0.087,0.055,0.038,-0.092,0.055,-0.001,-0.072,-0.147,-0.184,-0.129
-0.003,-0.094,-0.09,0.049,0.044,-0.092,0.054,-0.004,-0.067,-0.155,-0.182,-0.127
0.002,-0.088,-0.09,0.043,0.046,-0.089,0.05,-0.006,-0.063,-0.149,-0.174,-0.119
-0.01,-0.104,-0.093,0.057,0.042,-0.098,0.049,-0.009,-0.06,-0.139,-0.17,-0.115
-0.021,-0.117,-0.096,0.069,0.038,-0.106,0.045,-0.012,-0.06,-0.131,-0.164,-0.109
-0.015,-0.109,-0.094,0.062,0.04,-0.101,0.042,-0.015,-0.06,-0.129,-0.158,-0.103
-0.017,-0.106,-0.089,0.062,0.036,-0.097,0.04,-0.017,-0.06,-0.131,-0.156,-0.101
-0.024,-0.101,-0.077,0.063,0.026,-0.089,0.036,-0.022,-0.061,-0.129,-0.16,-0.106
-0.029,-0.097,-0.068,0.063,0.02,-0.082,0.035,-0.017,-0.059,-0.131,-0.162,-0.11
-0.035,-0.091,-0.056,0.063,0.011,-0.073,0.031,-0.016,-0.065,-0.128,-0.166,-0.115
-0.035,-0.074,-0.038,0.055,0.002,-0.055,0.024,-0.035,-0.075,-0.141,-0.168,-0.118
-0.034,-0.064,-0.03,0.049,-0.001,-0.047,0.018,-0.059,-0.082,-0.162,-0.178,-0.123
-0.029,-0.058,-0.029,0.044,0.0,-0.043,0.011,-0.08,-0.103,-0.169,-0.193,-0.124
-0.025,-0.051,-0.025,0.039,0.0,-0.038,0.004,-0.101,-0.122,-0.18,-0.198,-0.129
-0.022,-0.044,-0.022,0.033,0.0,-0.033,-0.001,-0.125,-0.133,-0.19,-0.201,-0.14
-0.017,-0.038,-0.02,0.027,0.002,-0.029,-0.005,-0.135,-0.141,-0.199,-0.206,-0.141
-0.016,-0.032,-0.016,0.024,0.001,-0.024,-0.004,-0.153,-0.146,-0.206,-0.209,-0.145
-0.025,-0.027,-0.002,0.026,-0.011,-0.014,-0.008,-0.178,-0.16,-0.21,-0.214,-0.146
-0.033,-0.021,0.012,0.026,-0.022,-0.004,-0.01,-0.194,-0.166,-0.215,-0.217,-0.16
-0.039,-0.017,0.022,0.027,-0.03,0.003,-0.01,-0.199,-0.164,-0.218,-0.222,-0.172
-0.039,-0.009,0.03,0.024,-0.035,0.011,-0.014,-0.195,-0.168,-0.221,-0.225,-0.169
-0.043,-0.007,0.035,0.025,-0.039,0.014,-0.015,-0.193,-0.17,-0.224,-0.225,-0.17
-0.055,-0.02,0.035,0.037,-0.045,0.007,-0.015,-0.189,-0.17,-0.227,-0.225,-0.17
-0.053,-0.018,0.035,0.035,-0.044,0.008,-0.015,-0.187,-0.174,-0.23,-0.225,-0.17
-0.049,-0.013,0.035,0.031,-0.042,0.011,-0.015,-0.184,-0.175,-0.23,-0.224,-0.174
-0.046,-0.011,0.035,0.028,-0.04,0.011,-0.015,-0.182,-0.175,-0.232,-0.232,-0.175
-0.052,-0.006,0.046,0.029,-0.049,0.02,-0.015,-0.179,-0.18,-0.235,-0.241,-0.175
-0.061,-0.004,0.056,0.032,-0.058,0.026,-0.014,-0.176,-0.18,-0.235,-0.24,-0.175
-0.057,0.005,0.062,0.026,-0.06,0.034,-0.013,-0.174,-0.18,-0.232,-0.24,-0.175
-0.051,0.015,0.066,0.017,-0.058,0.04,-0.006,-0.168,-0.18,-0.229,-0.24,-0.175
-0.039,0.025,0.064,0.006,-0.052,0.044,-0.01,-0.175,-0.18,-0.23,-0.24,-0.175
-0.039,0.028,0.066,0.005,-0.053,0.047,-0.031,-0.189,-0.18,-0.229,-0.239,-0.175
-0.04,0.023,0.063,0.008,-0.052,0.043,-0.029,-0.191,-0.18,-0.231,-0.234,-0.175
-0.042,0.027,0.069,0.007,-0.056,0.048,-0.026,-0.186,-0.18,-0.228,-0.228,-0.175
-0.058,0.018,0.076,0.02,-0.067,0.046,-0.024,-0.186,-0.18,-0.221,-0.225,-0.175
-0.053,0.024,0.077,0.014,-0.065,0.05,-0.019,-0.18,-0.18,-0.212,-0.219,-0.171
-0.042,0.013,0.055,0.014,-0.049,0.034,-0.021,-0.181,-0.179,-0.206,-0.216,-0.169
-0.044,0.021,0.065,0.011,-0.055,0.043,-0.007,-0.172,-0.164,-0.198,-0.208,-0.157
-0.027,0.092,0.119,-0.033,-0.073,0.106,-0.005,-0.16,-0.152,-0.191,-0.193,-0.145
-0.043,0.095,0.138,-0.026,-0.091,0.116,0.013,-0.152,-0.126,-0.179,-0.18,-0.135
-0.035,0.101,0.136,-0.034,-0.086,0.119,-0.02,-0.114,-0.085,-0.135,-0.144,-0.099
0.039,0.161,0.123,-0.1,-0.042,0.142,-0.104,-0.184,-0.099,-0.116,-0.119,-0.082
0.04,0.154,0.113,-0.097,-0.037,0.133,-0.095,-0.243,-0.114,-0.127,-0.12,-0.088
0.004,0.083,0.079,-0.044,-0.038,0.081,-0.062,-0.216,-0.128,-0.151,-0.141,-0.092
-0.03,0.006,0.036,0.012,-0.033,0.02,-0.038,-0.205,-0.166,-0.191,-0.176,-0.104
-0.062,-0.063,-0.001,0.062,-0.03,-0.031,0.001,-0.163,-0.164,-0.212,-0.198,-0.132
-0.08,-0.101,-0.02,0.091,-0.03,-0.06,0.024,-0.159,-0.158,-0.212,-0.197,-0.149
-0.091,-0.122,-0.031,0.107,-0.03,-0.076,0.033,-0.155,-0.156,-0.223,-0.212,-0.16
-0.083,-0.126,-0.043,0.104,-0.02,-0.084,0.027,-0.126,-0.148,-0.214,-0.207,-0.158
-0.107,-0.124,-0.016,0.116,-0.045,-0.07,0.032,-0.086,-0.148,-0.213,-0.212,-0.16
-0.092,-0.128,-0.035,0.11,-0.028,-0.081,0.034,-0.081,-0.156,-0.211,-0.208,-0.157
-0.07,-0.12,-0.05,0.095,-0.009,-0.085,0.035,-0.064,-0.167,-0.199,-0.199,-0.148
-0.077,-0.132,-0.056,0.105,-0.01,-0.094,0.037,-0.058,-0.142,-0.213,-0.217,-0.16
-0.095,-0.122,-0.028,0.109,-0.034,-0.075,0.033,-0.02,-0.128,-0.177,-0.182,-0.133
-0.109,-0.156,-0.047,0.133,-0.031,-0.101,0.135,0.138,0.008,-0.171,-0.232,-0.209
-0.104,-0.084,0.02,0.094,-0.062,-0.032,0.18,0.219,0.131,0.032,-0.099,-0.155
0.092,0.202,0.111,-0.147,-0.01,0.156,-0.195,-0.324,0.108,0.402,0.309,0.22
0.581,0.782,0.202,-0.681,0.189,0.492,-0.85,-1.994,-0.057,1.307,1.343,1.121
0.442,1.181,0.739,-0.812,-0.149,0.96,-1.054,-3.044,-1.034,1.559,1.649,1.55
-0.241,0.65,0.892,-0.205,-0.567,0.771,-0.741,-2.731,-2.099,-0.054,0.232,0.552
-0.425,0.151,0.575,0.137,-0.5,0.362,-0.438,-1.983,-1.655,-0.741,-0.357,-0.1
-0.247,0.113,0.36,0.067,-0.304,0.236,-0.203,-0.876,-0.513,-0.292,-0.171,-0.088
-0.071,0.07,0.142,0.0,-0.107,0.106,-0.074,-0.326,-0.057,-0.199,-0.192,-0.126
-0.038,0.076,0.114,-0.02,-0.076,0.095,-0.041,-0.262,0.002,-0.137,-0.135,-0.093
-0.048,0.056,0.104,-0.005,-0.076,0.08,-0.028,-0.193,0.043,-0.152,-0.172,-0.11
-0.019,0.046,0.065,-0.014,-0.042,0.055,-0.023,-0.176,0.06,-0.12,-0.14,-0.096
-0.026,0.032,0.058,-0.003,-0.043,0.045,-0.018,-0.133,0.093,-0.099,-0.14,-0.098
-0.023,0.019,0.042,0.002,-0.033,0.03,-0.021,-0.126,0.112,-0.073,-0.125,-0.079
-0.013,0.022,0.035,-0.005,-0.024,0.028,-0.019,-0.072,0.137,-0.045,-0.107,-0.059
0.001,0.016,0.015,-0.009,-0.007,0.015,-0.021,-0.068,0.156,-0.044,-0.1,-0.056
0.019,0.016,-0.003,-0.018,0.01,0.007,-0.019,-0.065,0.175,-0.021,-0.075,-0.04
0.04,0.015,-0.025,-0.028,0.032,-0.005,-0.024,-0.055,0.192,-0.011,-0.068,-0.035
0.052,0.041,-0.01,-0.046,0.031,0.015,-0.025,-0.053,0.217,0.022,-0.049,-0.021
0.061,0.059,-0.002,-0.06,0.032,0.028,-0.025,-0.031,0.241,0.041,-0.034,-0.009
0.089,0.061,-0.028,-0.074,0.058,0.016,-0.024,0.016,0.269,0.064,-0.007,0.014
0.102,0.059,-0.042,-0.08,0.072,0.008,-0.027,0.09,0.306,0.093,0.012,0.028
0.095,0.061,-0.034,-0.078,0.064,0.014,-0.039,0.145,0.332,0.108,0.027,0.042
0.12,0.09,-0.03,-0.105,0.074,0.03,-0.048,0.199,0.369,0.132,0.05,0.066
0.163,0.097,-0.065,-0.13,0.113,0.016,-0.063,0.207,0.418,0.171,0.08,0.098
0.186,0.109,-0.077,-0.147,0.131,0.016,-0.079,0.194,0.465,0.209,0.115,0.14
0.22,0.143,-0.077,-0.181,0.149,0.032,-0.114,0.193,0.501,0.239,0.151,0.174
0.272,0.169,-0.103,-0.22,0.187,0.033,-0.153,0.178,0.537,0.275,0.185,0.209
0.314,0.205,-0.11,-0.259,0.212,0.047,-0.187,0.179,0.564,0.314,0.219,0.243
0.346,0.227,-0.119,-0.286,0.232,0.054,-0.212,0.153,0.569,0.356,0.262,0.276
0.362,0.222,-0.14,-0.292,0.251,0.04,-0.207,0.102,0.575,0.381,0.286,0.293
0.312,0.178,-0.134,-0.244,0.222,0.022,-0.197,0.047,0.544,0.368,0.269,0.274
0.241,0.129,-0.112,-0.185,0.176,0.009,-0.171,-0.027,0.468,0.318,0.224,0.224
0.189,0.09,-0.099,-0.14,0.143,-0.004,-0.129,-0.093,0.373,0.238,0.152,0.149
0.112,0.034,-0.078,-0.073,0.095,-0.022,-0.084,-0.155,0.257,0.149,0.072,0.081
0.041,-0.023,-0.064,-0.009,0.053,-0.044,-0.049,-0.205,0.151,0.059,-0.002,0.017
0.01,-0.05,-0.06,0.02,0.035,-0.055,-0.026,-0.248,0.064,-0.018,-0.072,-0.039
-0.01,-0.062,-0.052,0.037,0.021,-0.057,0.01,-0.269,0.009,-0.072,-0.114,-0.067
-0.041,-0.101,-0.06,0.072,0.01,-0.081,0.028,-0.28,-0.029,-0.101,-0.135,-0.078
-0.032,-0.115,-0.083,0.074,0.026,-0.099,0.024,-0.287,-0.053,-0.119,-0.152,-0.086
-0.034,-0.12,-0.086,0.077,0.027,-0.103,0.024,-0.28,-0.059,-0.123,-0.153,-0.092
-0.059,-0.14,-0.082,0.1,0.012,-0.111,0.052,-0.28,-0.057,-0.118,-0.151,-0.096
-0.055,-0.135,-0.08,0.095,0.013,-0.107,0.062,-0.275,-0.048,-0.115,-0.146,-0.091
-0.055,-0.135,-0.08,0.095,0.013,-0.107,0.061,-0.275,-0.043,-0.111,-0.143,-0.089
-0.05,-0.134,-0.084,0.093,0.017,-0.109,0.08,-0.28,-0.035,-0.107,-0.14,-0.084
-0.042,-0.129,-0.087,0.086,0.022,-0.108,0.077,-0.288,-0.031,-0.105,-0.135,-0.081
-0.04,-0.131,-0.09,0.085,0.025,-0.11,0.071,-0.289,-0.035,-0.1,-0.135,-0.077
-0.039,-0.13,-0.09,0.084,0.026,-0.11,0.068,-0.292,-0.036,-0.101,-0.135,-0.075
-0.041,-0.13,-0.089,0.086,0.024,-0.11,0.062,-0.317,-0.034,-0.098,-0.135,-0.075
-0.039,-0.13,-0.091,0.084,0.026,-0.11,0.059,-0.317,-0.036,-0.096,-0.135,-0.075
-0.042,-0.13,-0.089,0.086,0.023,-0.109,0.054,-0.308,-0.033,-0.094,-0.135,-0.075
-0.05,-0.13,-0.08,0.09,0.015,-0.104,0.048,-0.303,-0.043,-0.099,-0.135,-0.076
-0.06,-0.131,-0.071,0.095,0.006,-0.101,0.045,-0.295,-0.051,-0.113,-0.129,-0.08
-0.078,-0.135,-0.057,0.107,-0.01,-0.096,0.04,-0.291,-0.049,-0.115,-0.134,-0.08
-0.047,-0.141,-0.094,0.094,0.024,-0.117,0.036,-0.283,-0.064,-0.131,-0.156,-0.083
-0.019,-0.139,-0.12,0.079,0.05,-0.129,0.046,-0.275,-0.071,-0.143,-0.161,-0.086
-0.046,-0.14,-0.094,0.093,0.024,-0.117,0.046,-0.271,-0.083,-0.144,-0.163,-0.086
-0.047,-0.149,-0.102,0.098,0.027,-0.125,0.036,-0.28,-0.093,-0.152,-0.167,-0.1
-0.048,-0.141,-0.094,0.095,0.023,-0.117,0.031,-0.284,-0.098,-0.162,-0.17,-0.108
-0.068,-0.137,-0.069,0.103,0.0,-0.103,0.021,-0.292,-0.112,-0.175,-0.171,-0.103
-0.095,-0.142,-0.048,0.119,-0.023,-0.095,0.017,-0.321,-0.119,-0.175,-0.166,-0.097
-0.095,-0.145,-0.05,0.12,-0.022,-0.097,0.031,-0.338,-0.121,-0.175,-0.165,-0.094
-0.05,-0.143,-0.093,0.097,0.022,-0.118,0.037,-0.361,-0.116,-0.175,-0.16,-0.088
-0.051,-0.136,-0.085,0.094,0.017,-0.11,0.034,-0.395,-0.115,-0.175,-0.16,-0.086
-0.062,-0.131,-0.069,0.096,0.004,-0.1,0.036,-0.419,-0.11,-0.174,-0.166,-0.097
-0.028,-0.126,-0.098,0.078,0.035,-0.112,0.034,-0.423,-0.11,-0.17,-0.165,-0.104
-0.024,-0.119,-0.095,0.072,0.035,-0.106,0.036,-0.401,-0.116,-0.17,-0.162,-0.103
-0.029,-0.116,-0.087,0.073,0.029,-0.102,0.039,-0.369,-0.122,-0.168,-0.159,-0.1
-0.046,-0.129,-0.083,0.088,0.019,-0.105,0.041,-0.33,-0.126,-0.164,-0.156,-0.097
-0.067,-0.142,-0.075,0.105,0.004,-0.108,0.039,-0.292,-0.124,-0.165,-0.154,-0.095
-0.056,-0.154,-0.098,0.105,0.021,-0.126,0.041,-0.268,-0.132,-0.169,-0.15,-0.091
-0.051,-0.155,-0.104,0.103,0.027,-0.129,0.039,-0.253,-0.133,-0.171,-0.143,-0.09
-0.056,-0.148,-0.092,0.102,0.018,-0.12,0.042,-0.24,-0.126,-0.169,-0.139,-0.086
-0.06,-0.148,-0.088,0.104,0.015,-0.118,0.047,-0.225,-0.119,-0.165,-0.132,-0.079
-0.06,-0.141,-0.08,0.101,0.01,-0.11,0.049,-0.21,-0.113,-0.166,-0.128,-0.073
-0.05,-0.125,-0.074,0.088,0.012,-0.099,0.06,-0.209,-0.103,-0.154,-0.123,-0.066
-0.025,-0.097,-0.072,0.061,0.023,-0.084,0.064,-0.207,-0.087,-0.123,-0.113,-0.059
-0.013,-0.078,-0.065,0.046,0.026,-0.071,0.086,-0.214,-0.075,-0.104,-0.104,-0.053
0.011,-0.057,-0.069,0.023,0.04,-0.063,0.068,-0.21,-0.064,-0.081,-0.075,-0.032
0.057,-0.015,-0.073,-0.021,0.065,-0.044,-0.008,-0.228,-0.061,-0.056,-0.042,-0.016
0.071,-0.012,-0.083,-0.029,0.077,-0.047,-0.026,-0.256,-0.048,-0.053,-0.038,-0.014
0.062,-0.043,-0.106,-0.009,0.084,-0.074,0.003,-0.251,-0.065,-0.088,-0.067,-0.018
0.025,-0.093,-0.118,0.034,0.072,-0.105,0.021,-0.253,-0.112,-0.134,-0.105,-0.048
-0.01,-0.152,-0.142,0.081,0.067,-0.147,0.053,-0.208,-0.115,-0.158,-0.141,-0.083
-0.043,-0.173,-0.13,0.108,0.044,-0.152,0.082,-0.169,-0.115,-0.157,-0.139,-0.092
-0.068,-0.183,-0.115,0.125,0.024,-0.149,0.09,-0.161,-0.115,-0.163,-0.143,-0.104
-0.051,-0.193,-0.142,0.122,0.046,-0.167,0.091,-0.172,-0.116,-0.155,-0.138,-0.096
-0.031,-0.202,-0.172,0.117,0.071,-0.187,0.095,-0.164,-0.114,-0.153,-0.136,-0.093
-0.015,-0.203,-0.188,0.109,0.087,-0.195,0.09,-0.172,-0.109,-0.156,-0.139,-0.096
-0.017,-0.187,-0.17,0.102,0.077,-0.178,0.085,-0.155,-0.098,-0.14,-0.125,-0.081
-0.008,-0.197,-0.189,0.102,0.091,-0.193,0.091,-0.155,-0.09,-0.155,-0.152,-0.108
-0.048,-0.17,-0.122,0.109,0.037,-0.146,0.078,-0.148,-0.078,-0.104,-0.11,-0.085
-0.091,-0.202,-0.111,0.147,0.01,-0.156,0.175,0.05,0.028,-0.134,-0.175,-0.156
-0.095,-0.171,-0.076,0.133,-0.009,-0.124,0.248,0.237,0.184,0.055,-0.06,-0.136
0.051,0.07,0.019,-0.06,0.016,0.044,-0.032,-0.015,0.266,0.466,0.338,0.21
0.51,0.622,0.112,-0.566,0.198,0.367,-0.69,-1.448,0.07,1.359,1.382,1.101
0.473,1.095,0.621,-0.784,-0.074,0.858,-0.983,-2.537,-0.673,1.919,1.954,1.692
-0.13,0.691,0.82,-0.281,-0.475,0.755,-0.698,-2.3,-1.769,0.38,0.572,0.788
-0.4,0.176,0.576,0.112,-0.488,0.375,-0.463,-1.806,-1.759,-0.677,-0.209,0.033
-0.27,0.052,0.322,0.109,-0.296,0.187,-0.198,-0.837,-0.631,-0.286,-0.049,0.001
-0.099,-0.022,0.078,0.06,-0.088,0.028,-0.009,-0.167,-0.061,-0.147,-0.112,-0.057
-0.09,-0.058,0.032,0.074,-0.061,-0.013,0.036,-0.056,0.044,-0.061,-0.051,-0.026
-0.072,-0.096,-0.024,0.084,-0.024,-0.06,0.064,0.049,0.108,-0.049,-0.078,-0.042
-0.035,-0.078,-0.043,0.056,0.004,-0.06,0.064,0.052,0.108,-0.039,-0.054,-0.032
-0.025,-0.07,-0.045,0.048,0.01,-0.057,0.075,0.094,0.139,-0.026,-0.053,-0.035
0.001,-0.059,-0.06,0.029,0.031,-0.059,0.059,0.107,0.147,-0.03,-0.051,-0.037
0.004,-0.044,-0.048,0.02,0.026,-0.045,0.057,0.119,0.174,-0.006,-0.032,-0.032
0.009,-0.031,-0.04,0.011,0.025,-0.036,0.047,0.124,0.175,-0.003,-0.033,-0.032
0.017,-0.004,-0.021,-0.006,0.019,-0.013,0.041,0.131,0.187,0.026,-0.013,-0.012
0.039,0.003,-0.036,-0.02,0.037,-0.016,0.034,0.143,0.217,0.046,-0.007,-0.004
0.053,0.017,-0.036,-0.035,0.044,-0.009,0.025,0.152,0.235,0.064,0.017,0.01
0.056,0.023,-0.033,-0.039,0.044,-0.005,0.02,0.189,0.266,0.084,0.031,0.026
0.076,0.038,-0.038,-0.056,0.057,0.0,0.01,0.202,0.297,0.112,0.053,0.046
0.083,0.052,-0.031,-0.067,0.057,0.01,0.005,0.223,0.326,0.135,0.072,0.056
0.088,0.049,-0.039,-0.068,0.063,0.005,-0.005,0.259,0.369,0.164,0.095,0.077
0.124,0.071,-0.052,-0.097,0.088,0.009,-0.017,0.325,0.418,0.198,0.128,0.103
0.152,0.083,-0.069,-0.117,0.11,0.007,-0.032,0.414,0.46,0.225,0.149,0.13
0.207,0.104,-0.102,-0.155,0.154,0.001,-0.034,0.474,0.504,0.273,0.185,0.165
0.241,0.121,-0.121,-0.181,0.181,0.0,-0.06,0.507,0.547,0.311,0.22,0.191
0.255,0.124,-0.132,-0.189,0.193,-0.004,-0.106,0.51,0.586,0.341,0.247,0.227
0.308,0.159,-0.148,-0.233,0.228,0.005,-0.125,0.494,0.623,0.387,0.282,0.258
0.336,0.175,-0.161,-0.255,0.248,0.007,-0.151,0.447,0.644,0.425,0.315,0.284
0.336,0.182,-0.155,-0.259,0.245,0.013,-0.164,0.393,0.636,0.446,0.336,0.303
0.32,0.188,-0.132,-0.254,0.226,0.028,-0.143,0.334,0.594,0.438,0.316,0.282
0.271,0.179,-0.092,-0.225,0.181,0.044,-0.116,0.256,0.514,0.39,0.273,0.241
0.198,0.148,-0.05,-0.173,0.124,0.048,-0.083,0.221,0.401,0.301,0.206,0.172
0.127,0.103,-0.025,-0.115,0.076,0.039,-0.052,0.204,0.278,0.192,0.111,0.085
0.052,0.068,0.017,-0.06,0.017,0.043,-0.028,0.169,0.17,0.087,0.03,0.011
0.013,0.058,0.045,-0.036,-0.016,0.051,-0.013,0.15,0.08,0.009,-0.021,-0.035
0.012,0.061,0.049,-0.037,-0.019,0.055,0.0,0.134,0.006,-0.054,-0.075,-0.072
-0.024,0.059,0.084,-0.018,-0.054,0.071,0.009,0.109,-0.042,-0.104,-0.118,-0.106
-0.035,0.061,0.096,-0.013,-0.066,0.078,0.017,0.103,-0.062,-0.127,-0.127,-0.117
-0.024,0.06,0.083,-0.018,-0.053,0.071,0.024,0.108,-0.056,-0.141,-0.137,-0.12
-0.044,0.057,0.1,-0.007,-0.072,0.078,0.031,0.111,-0.051,-0.144,-0.136,-0.121
-0.049,0.054,0.103,-0.003,-0.076,0.078,0.036,0.114,-0.049,-0.139,-0.134,-0.117
-0.041,0.051,0.092,-0.006,-0.066,0.071,0.035,0.118,-0.041,-0.136,-0.135,-0.115
-0.038,0.048,0.086,-0.005,-0.063,0.067,0.035,0.123,-0.043,-0.133,-0.129,-0.115
-0.034,0.045,0.079,-0.006,-0.057,0.062,0.035,0.12,-0.055,-0.129,-0.131,-0.112
-0.031,0.044,0.075,-0.006,-0.053,0.059,0.035,0.114,-0.056,-0.125,-0.127,-0.107
-0.031,0.038,0.068,-0.004,-0.05,0.053,0.035,0.11,-0.054,-0.125,-0.122,-0.104
-0.032,0.032,0.064,-0.001,-0.048,0.048,0.035,0.106,-0.057,-0.125,-0.116,-0.101
-0.034,0.026,0.06,0.004,-0.048,0.043,0.047,0.1,-0.053,-0.125,-0.112,-0.096
-0.031,0.022,0.053,0.005,-0.042,0.037,0.051,0.104,-0.061,-0.125,-0.104,-0.096
-0.023,0.013,0.036,0.005,-0.03,0.024,0.049,0.118,-0.074,-0.125,-0.101,-0.1
-0.027,-0.007,0.02,0.017,-0.023,0.006,0.05,0.128,-0.078,-0.125,-0.113,-0.1
-0.04,-0.028,0.012,0.034,-0.026,-0.008,0.05,0.13,-0.078,-0.124,-0.116,-0.105
-0.037,-0.037,0.0,0.037,-0.019,-0.018,0.05,0.13,-0.088,-0.136,-0.115,-0.105
-0.049,-0.034,0.015,0.042,-0.032,-0.009,0.045,0.13,-0.101,-0.149,-0.113,-0.109
-0.069,-0.031,0.038,0.05,-0.054,0.003,0.045,0.13,-0.109,-0.153,-0.121,-0.121
-0.06,-0.029,0.031,0.044,-0.046,0.001,0.045,0.131,-0.122,-0.159,-0.131,-0.125
-0.054,-0.024,0.03,0.039,-0.042,0.002,0.044,0.11,-0.125,-0.16,-0.13,-0.125
-0.052,-0.027,0.025,0.039,-0.038,-0.001,0.046,0.083,-0.128,-0.159,-0.128,-0.124
-0.053,-0.031,0.022,0.042,-0.037,-0.004,0.042,0.061,-0.13,-0.163,-0.137,-0.128
-0.045,-0.026,0.018,0.035,-0.031,-0.004,0.04,0.05,-0.123,-0.163,-0.154,-0.129
-0.034,-0.024,0.01,0.028,-0.022,-0.006,0.04,0.046,-0.115,-0.155,-0.148,-0.124
-0.02,-0.019,0.0,0.019,-0.01,-0.009,0.037,0.044,-0.11,-0.147,-0.138,-0.117
-0.004,-0.016,-0.012,0.01,0.004,-0.014,0.034,0.039,-0.099,-0.139,-0.131,-0.113
-0.008,-0.009,-0.001,0.009,-0.003,-0.005,0.036,0.036,-0.077,-0.133,-0.124,-0.107
0.002,0.032,0.029,-0.017,-0.014,0.03,0.039,0.035,-0.062,-0.125,-0.116,-0.099
-0.015,0.061,0.077,-0.023,-0.046,0.069,0.041,0.02,-0.054,-0.118,-0.109,-0.087
-0.021,0.071,0.092,-0.025,-0.056,0.081,0.031,0.021,-0.051,-0.11,-0.092,-0.078
0.011,0.111,0.1,-0.061,-0.045,0.105,-0.029,-0.042,-0.056,-0.105,-0.065,-0.079
0.027,0.12,0.093,-0.074,-0.033,0.106,-0.076,-0.105,-0.055,-0.095,-0.058,-0.08
0.035,0.071,0.036,-0.054,0.0,0.054,-0.05,-0.084,-0.054,-0.104,-0.068,-0.081
0.031,0.029,-0.002,-0.03,0.016,0.013,-0.015,-0.08,-0.083,-0.147,-0.096,-0.079
0.019,-0.016,-0.035,-0.001,0.028,-0.025,0.017,-0.066,-0.099,-0.183,-0.135,-0.115
-0.014,-0.045,-0.031,0.029,0.009,-0.037,0.038,-0.06,-0.107,-0.192,-0.146,-0.138
-0.032,-0.053,-0.021,0.043,-0.005,-0.037,0.04,-0.048,-0.118,-0.204,-0.16,-0.133
-0.021,-0.086,-0.066,0.054,0.023,-0.076,0.042,-0.042,-0.11,-0.201,-0.158,-0.137
-0.033,-0.099,-0.066,0.066,0.017,-0.083,0.047,-0.03,-0.098,-0.184,-0.144,-0.125
-0.03,-0.107,-0.077,0.069,0.024,-0.091,0.06,-0.017,-0.094,-0.195,-0.157,-0.137
-0.033,-0.116,-0.083,0.074,0.025,-0.099,0.055,-0.011,-0.083,-0.164,-0.126,-0.118
-0.048,-0.143,-0.096,0.096,0.024,-0.12,0.072,0.02,-0.076,-0.19,-0.16,-0.135
-0.039,-0.131,-0.092,0.085,0.027,-0.111,0.059,0.02,-0.057,-0.158,-0.129,-0.106
-0.087,-0.155,-0.067,0.122,-0.01,-0.111,0.115,0.121,0.024,-0.164,-0.177,-0.153
-0.107,-0.143,-0.036,0.125,-0.035,-0.089,0.221,0.293,0.161,-0.051,-0.138,-0.204
0.002,0.077,0.075,-0.04,-0.036,0.076,0.035,0.209,0.245,0.307,0.187,0.047
0.395,0.545,0.151,-0.47,0.122,0.348,-0.565,-0.976,0.046,1.086,1.082,0.811
0.544,1.116,0.571,-0.83,-0.014,0.843,-0.987,-2.287,-0.534,2.041,2.05,1.657
0.038,0.924,0.886,-0.481,-0.425,0.905,-0.815,-2.304,-1.617,0.825,0.969,1.054
-0.321,0.367,0.688,-0.023,-0.505,0.527,-0.613,-1.911,-1.985,-0.755,-0.223,0.09
-0.281,0.166,0.447,0.057,-0.364,0.307,-0.359,-1.078,-0.955,-0.472,-0.1,-0.032
-0.109,0.054,0.163,0.027,-0.136,0.108,-0.091,-0.248,-0.181,-0.205,-0.125,-0.083
-0.04,0.028,0.069,0.006,-0.055,0.048,-0.033,-0.053,-0.023,-0.131,-0.089,-0.065
-0.034,0.003,0.037,0.015,-0.036,0.02,0.018,0.046,0.035,-0.083,-0.086,-0.074
-0.008,-0.026,-0.017,0.017,0.005,-0.021,0.028,0.052,0.05,-0.09,-0.086,-0.078
-0.014,-0.027,-0.013,0.021,0.0,-0.02,0.032,0.047,0.083,-0.053,-0.061,-0.061
0.023,-0.027,-0.05,0.002,0.037,-0.038,0.03,0.043,0.099,-0.059,-0.07,-0.068
0.03,-0.011,-0.041,-0.009,0.036,-0.026,0.029,0.031,0.124,-0.019,-0.039,-0.048
0.051,-0.014,-0.065,-0.018,0.058,-0.039,0.031,0.031,0.137,-0.009,-0.036,-0.046
0.059,-0.003,-0.062,-0.028,0.06,-0.032,0.029,0.02,0.158,0.017,-0.017,-0.027
0.046,0.039,-0.008,-0.042,0.026,0.015,0.028,0.02,0.169,0.022,-0.016,-0.022
0.071,0.063,-0.008,-0.067,0.04,0.027,0.013,0.014,0.193,0.039,-0.008,-0.011
0.091,0.086,-0.005,-0.088,0.048,0.04,0.003,0.042,0.215,0.053,0.007,-0.003
0.085,0.101,0.016,-0.094,0.034,0.059,-0.012,0.055,0.235,0.063,0.026,0.007
0.102,0.116,0.014,-0.109,0.044,0.064,-0.028,0.055,0.273,0.105,0.041,0.033
0.139,0.143,0.004,-0.141,0.067,0.073,-0.044,0.062,0.299,0.125,0.064,0.045
0.144,0.163,0.019,-0.154,0.063,0.091,-0.062,0.058,0.339,0.149,0.084,0.052
0.175,0.2,0.025,-0.188,0.075,0.112,-0.081,0.063,0.392,0.192,0.109,0.079
0.216,0.212,-0.003,-0.214,0.109,0.105,-0.098,0.059,0.431,0.231,0.148,0.117
0.251,0.232,-0.019,-0.241,0.135,0.106,-0.128,0.063,0.477,0.276,0.186,0.154
0.294,0.266,-0.028,-0.28,0.161,0.119,-0.152,0.058,0.527,0.322,0.225,0.194
0.328,0.276,-0.052,-0.301,0.19,0.112,-0.179,0.073,0.559,0.363,0.267,0.228
0.373,0.301,-0.072,-0.336,0.222,0.114,-0.206,0.16,0.575,0.41,0.298,0.259
0.374,0.295,-0.079,-0.334,0.226,0.108,-0.203,0.203,0.566,0.427,0.294,0.262
0.342,0.268,-0.074,-0.305,0.207,0.097,-0.197,0.184,0.53,0.408,0.281,0.242
0.295,0.245,-0.05,-0.27,0.172,0.098,-0.167,0.154,0.457,0.36,0.252,0.211
0.22,0.196,-0.025,-0.208,0.122,0.086,-0.12,0.104,0.341,0.265,0.178,0.14
0.137,0.148,0.011,-0.143,0.063,0.08,-0.081,0.06,0.216,0.157,0.087,0.064
0.077,0.117,0.04,-0.098,0.018,0.079,-0.046,0.02,0.092,0.053,0.004,-0.002
0.043,0.098,0.055,-0.071,-0.006,0.077,-0.026,-0.021,-0.005,-0.04,-0.067,-0.067
-0.007,0.059,0.066,-0.026,-0.037,0.063,-0.02,-0.05,-0.067,-0.099,-0.112,-0.103
-0.034,0.031,0.064,0.001,-0.049,0.047,-0.015,-0.072,-0.112,-0.14,-0.145,-0.123
-0.038,0.027,0.065,0.005,-0.052,0.046,-0.009,-0.086,-0.128,-0.163,-0.162,-0.136
-0.036,0.028,0.064,0.004,-0.051,0.046,-0.003,-0.079,-0.13,-0.171,-0.167,-0.134
-0.04,0.041,0.081,-0.001,-0.061,0.061,-0.001,-0.083,-0.125,-0.169,-0.174,-0.135
-0.056,0.04,0.096,0.008,-0.076,0.068,-0.006,-0.099,-0.12,-0.165,-0.174,-0.135
-0.049,0.039,0.088,0.005,-0.069,0.064,-0.009,-0.1,-0.117,-0.163,-0.17,-0.135
-0.05,0.034,0.084,0.008,-0.068,0.059,-0.012,-0.1,-0.111,-0.159,-0.166,-0.135
-0.042,0.037,0.078,0.002,-0.06,0.057,-0.017,-0.099,-0.112,-0.163,-0.163,-0.13
-0.018,0.054,0.073,-0.018,-0.046,0.063,-0.02,-0.11,-0.116,-0.165,-0.158,-0.127
-0.015,0.052,0.067,-0.019,-0.041,0.059,-0.024,-0.122,-0.115,-0.165,-0.155,-0.123
-0.019,0.045,0.065,-0.014,-0.042,0.055,-0.027,-0.131,-0.115,-0.165,-0.159,-0.12
-0.022,0.044,0.065,-0.011,-0.044,0.054,-0.032,-0.145,-0.115,-0.165,-0.16,-0.115
-0.029,0.036,0.065,-0.004,-0.047,0.05,-0.034,-0.145,-0.115,-0.165,-0.16,-0.117
-0.028,0.037,0.065,-0.005,-0.047,0.051,-0.037,-0.144,-0.121,-0.171,-0.165,-0.122
-0.017,0.048,0.065,-0.016,-0.041,0.056,-0.04,-0.141,-0.127,-0.178,-0.165,-0.125
-0.018,0.047,0.065,-0.015,-0.041,0.056,-0.036,-0.139,-0.137,-0.183,-0.166,-0.132
-0.016,0.044,0.06,-0.014,-0.038,0.051,-0.035,-0.142,-0.151,-0.193,-0.175,-0.135
-0.006,0.046,0.052,-0.02,-0.03,0.049,-0.035,-0.146,-0.158,-0.2,-0.183,-0.138
-0.002,0.044,0.046,-0.022,-0.024,0.045,-0.035,-0.156,-0.16,-0.204,-0.185,-0.14
0.006,0.045,0.039,-0.026,-0.017,0.042,-0.035,-0.153,-0.16,-0.203,-0.185,-0.135
0.011,0.043,0.033,-0.027,-0.011,0.038,-0.034,-0.161,-0.16,-0.199,-0.185,-0.135
-0.008,0.02,0.028,-0.007,-0.018,0.023,-0.029,-0.168,-0.16,-0.201,-0.185,-0.134
-0.022,0.0,0.022,0.011,-0.022,0.011,-0.026,-0.158,-0.16,-0.196,-0.185,-0.129
-0.022,-0.004,0.018,0.013,-0.02,0.006,-0.023,-0.141,-0.159,-0.195,-0.183,-0.131
-0.024,-0.011,0.013,0.017,-0.018,0.001,-0.018,-0.099,-0.156,-0.195,-0.176,-0.127
-0.024,-0.015,0.009,0.019,-0.016,-0.002,-0.016,-0.077,-0.153,-0.188,-0.167,-0.119
-0.027,-0.023,0.004,0.025,-0.016,-0.009,-0.01,-0.071,-0.15,-0.177,-0.16,-0.111
-0.032,-0.022,0.01,0.027,-0.021,-0.005,-0.008,-0.064,-0.148,-0.168,-0.152,-0.103
-0.01,-0.001,0.009,0.005,-0.009,0.004,0.001,-0.058,-0.141,-0.158,-0.146,-0.097
0.019,0.038,0.018,-0.029,0.0,0.028,0.001,-0.048,-0.135,-0.154,-0.136,-0.088
-0.01,0.058,0.068,-0.024,-0.039,0.063,0.01,-0.049,-0.13,-0.157,-0.127,-0.081
-0.013,0.068,0.081,-0.028,-0.047,0.074,0.005,-0.031,-0.122,-0.123,-0.119,-0.068
0.03,0.102,0.072,-0.066,-0.022,0.087,-0.07,-0.081,-0.12,-0.09,-0.084,-0.041
0.04,0.102,0.062,-0.071,-0.011,0.082,-0.089,-0.11,-0.109,-0.094,-0.074,-0.026
0.058,0.073,0.015,-0.065,0.021,0.043,-0.067,-0.076,-0.126,-0.123,-0.098,-0.04
0.048,0.026,-0.022,-0.037,0.035,0.002,-0.054,-0.098,-0.169,-0.158,-0.123,-0.066
0.009,-0.051,-0.06,0.022,0.035,-0.056,-0.008,-0.098,-0.175,-0.177,-0.162,-0.099
-0.015,-0.086,-0.071,0.051,0.028,-0.078,0.02,-0.09,-0.178,-0.185,-0.167,-0.114
-0.028,-0.086,-0.058,0.057,0.015,-0.071,0.032,-0.084,-0.184,-0.202,-0.172,-0.126
-0.024,-0.083,-0.058,0.054,0.017,-0.07,0.025,-0.078,-0.185,-0.209,-0.177,-0.131
-0.034,-0.076,-0.042,0.055,0.004,-0.059,0.018,-0.07,-0.185,-0.204,-0.176,-0.127
-0.032,-0.08,-0.048,0.056,0.009,-0.064,0.018,-0.078,-0.184,-0.21,-0.187,-0.136
-0.035,-0.063,-0.027,0.049,-0.004,-0.045,0.001,-0.082,-0.18,-0.187,-0.171,-0.125
-0.045,-0.08,-0.035,0.063,-0.005,-0.057,0.017,-0.076,-0.179,-0.209,-0.201,-0.153
-0.045,-0.057,-0.012,0.051,-0.017,-0.034,0.012,-0.074,-0.177,-0.171,-0.166,-0.132
-0.09,-0.106,-0.016,0.098,-0.037,-0.061,0.092,0.045,-0.087,-0.184,-0.201,-0.177
-0.108,-0.108,0.0,0.108,-0.054,-0.054,0.173,0.23,0.086,-0.041,-0.126,-0.187
0.027,0.143,0.116,-0.085,-0.045,0.129,-0.088,-0.055,0.101,0.314,0.203,0.109
0.446,0.63,0.184,-0.539,0.131,0.407,-0.706,-1.491,-0.136,1.19,1.214,0.945
0.525,1.138,0.613,-0.832,-0.044,0.875,-1.052,-2.668,-0.803,2.009,2.029,1.677
-0.018,0.786,0.803,-0.384,-0.411,0.794,-0.848,-2.525,-1.891,0.525,0.741,0.914
-0.329,0.177,0.506,0.075,-0.418,0.342,-0.621,-1.976,-1.951,-0.865,-0.292,0.022
-0.239,0.046,0.285,0.096,-0.262,0.165,-0.327,-0.991,-0.797,-0.427,-0.092,-0.025
-0.087,-0.029,0.058,0.058,-0.072,0.014,-0.088,-0.247,-0.128,-0.174,-0.079,-0.057
-0.027,-0.046,-0.019,0.036,-0.003,-0.032,-0.036,-0.129,-0.035,-0.1,-0.005,-0.039
-0.007,-0.059,-0.052,0.033,0.022,-0.055,0.004,-0.042,0.016,-0.086,-0.014,-0.046
0.018,-0.058,-0.076,0.02,0.047,-0.066,-0.01,-0.015,0.044,-0.085,-0.01,-0.048
0.018,-0.046,-0.064,0.014,0.042,-0.055,-0.007,0.028,0.071,-0.054,0.001,-0.04
0.028,-0.047,-0.075,0.009,0.052,-0.061,-0.012,0.052,0.075,-0.063,-0.009,-0.041
0.026,-0.035,-0.061,0.005,0.043,-0.048,-0.015,0.054,0.096,-0.032,0.008,-0.024
0.019,-0.017,-0.037,-0.001,0.028,-0.027,-0.015,0.067,0.105,-0.035,-0.001,-0.027
0.024,0.007,-0.017,-0.015,0.021,-0.005,-0.024,0.086,0.124,-0.01,0.034,-0.012
0.03,0.009,-0.021,-0.02,0.025,-0.006,-0.027,0.101,0.145,0.006,0.039,-0.008
0.03,0.018,-0.012,-0.024,0.021,0.003,-0.035,0.111,0.162,0.033,0.054,0.008
0.053,0.024,-0.029,-0.038,0.041,-0.003,-0.038,0.142,0.198,0.055,0.084,0.026
0.078,0.031,-0.047,-0.054,0.062,-0.007,-0.042,0.163,0.223,0.08,0.1,0.043
0.095,0.05,-0.045,-0.072,0.07,0.003,-0.045,0.191,0.259,0.11,0.124,0.065
0.121,0.063,-0.058,-0.091,0.09,0.002,-0.049,0.226,0.298,0.133,0.148,0.081
0.14,0.057,-0.083,-0.098,0.111,-0.012,-0.051,0.265,0.341,0.176,0.176,0.109
0.174,0.071,-0.103,-0.122,0.138,-0.016,-0.067,0.297,0.399,0.217,0.216,0.148
0.213,0.11,-0.104,-0.161,0.158,0.003,-0.099,0.326,0.449,0.256,0.249,0.172
0.247,0.134,-0.112,-0.19,0.179,0.011,-0.134,0.359,0.495,0.311,0.291,0.206
0.285,0.161,-0.123,-0.223,0.204,0.019,-0.164,0.38,0.542,0.358,0.335,0.248
0.328,0.199,-0.129,-0.264,0.228,0.035,-0.188,0.383,0.573,0.399,0.371,0.278
0.349,0.222,-0.126,-0.285,0.237,0.048,-0.218,0.374,0.574,0.446,0.405,0.312
0.333,0.214,-0.119,-0.273,0.226,0.047,-0.223,0.331,0.561,0.463,0.4,0.327
0.309,0.197,-0.112,-0.253,0.21,0.042,-0.203,0.259,0.529,0.445,0.384,0.305
0.265,0.176,-0.089,-0.221,0.177,0.043,-0.177,0.181,0.433,0.37,0.343,0.244
0.188,0.134,-0.055,-0.161,0.121,0.039,-0.141,0.101,0.296,0.25,0.25,0.158
0.127,0.1,-0.026,-0.113,0.076,0.037,-0.1,0.034,0.169,0.142,0.157,0.083
0.094,0.069,-0.025,-0.081,0.059,0.021,-0.063,-0.011,0.064,0.043,0.079,0.017
0.061,0.03,-0.031,-0.046,0.046,0.0,-0.042,-0.047,-0.023,-0.034,0.026,-0.034
0.029,-0.006,-0.035,-0.011,0.032,-0.02,-0.03,-0.072,-0.079,-0.084,-0.012,-0.063
-0.001,-0.032,-0.031,0.017,0.015,-0.031,-0.02,-0.101,-0.11,-0.122,-0.043,-0.082
-0.009,-0.041,-0.032,0.025,0.012,-0.037,-0.01,-0.127,-0.126,-0.139,-0.055,-0.091
-0.022,-0.064,-0.042,0.043,0.011,-0.053,-0.001,-0.125,-0.125,-0.142,-0.057,-0.09
-0.04,-0.078,-0.038,0.059,0.0,-0.058,0.0,-0.125,-0.125,-0.146,-0.056,-0.094
-0.033,-0.078,-0.045,0.056,0.006,-0.061,0.0,-0.124,-0.122,-0.141,-0.055,-0.096
-0.018,-0.078,-0.06,0.048,0.021,-0.068,0.0,-0.119,-0.119,-0.136,-0.055,-0.091
0.004,-0.073,-0.077,0.035,0.041,-0.075,0.0,-0.12,-0.12,-0.133,-0.055,-0.09
0.008,-0.072,-0.08,0.032,0.044,-0.075,-0.001,-0.12,-0.115,-0.127,-0.055,-0.089
0.007,-0.067,-0.074,0.031,0.041,-0.07,-0.007,-0.12,-0.116,-0.124,-0.054,-0.086
0.005,-0.067,-0.072,0.031,0.039,-0.069,-0.013,-0.121,-0.114,-0.12,-0.049,-0.085
0.006,-0.061,-0.066,0.028,0.036,-0.063,-0.017,-0.125,-0.11,-0.121,-0.051,-0.084
-0.012,-0.078,-0.066,0.045,0.028,-0.072,-0.024,-0.12,-0.11,-0.117,-0.047,-0.08
-0.042,-0.098,-0.056,0.07,0.007,-0.077,-0.029,-0.102,-0.112,-0.115,-0.045,-0.08
-0.018,-0.094,-0.076,0.056,0.03,-0.085,-0.027,-0.098,-0.119,-0.115,-0.044,-0.08
0.0,-0.098,-0.098,0.049,0.049,-0.098,-0.022,-0.101,-0.119,-0.122,-0.052,-0.079
-0.013,-0.101,-0.088,0.057,0.037,-0.094,-0.019,-0.099,-0.137,-0.136,-0.066,-0.088
-0.014,-0.1,-0.086,0.057,0.036,-0.092,-0.016,-0.101,-0.153,-0.144,-0.063,-0.089
-0.017,-0.097,-0.08,0.057,0.032,-0.088,-0.011,-0.108,-0.152,-0.151,-0.075,-0.098
-0.018,-0.094,-0.076,0.056,0.029,-0.085,-0.011,-0.114,-0.163,-0.156,-0.086,-0.112
-0.022,-0.091,-0.07,0.057,0.024,-0.08,-0.02,-0.121,-0.174,-0.162,-0.085,-0.109
-0.025,-0.088,-0.064,0.057,0.019,-0.076,-0.029,-0.129,-0.175,-0.17,-0.084,-0.113
-0.018,-0.085,-0.066,0.052,0.025,-0.076,-0.03,-0.151,-0.175,-0.176,-0.092,-0.115
-0.023,-0.086,-0.064,0.055,0.021,-0.075,-0.03,-0.181,-0.185,-0.18,-0.109,-0.115
-0.024,-0.09,-0.066,0.057,0.021,-0.077,-0.03,-0.188,-0.188,-0.188,-0.11,-0.115
-0.026,-0.09,-0.065,0.059,0.02,-0.077,-0.03,-0.182,-0.185,-0.191,-0.109,-0.115
-0.034,-0.094,-0.06,0.064,0.013,-0.077,-0.029,-0.178,-0.185,-0.189,-0.11,-0.115
-0.013,-0.095,-0.083,0.054,0.036,-0.089,-0.024,-0.17,-0.182,-0.182,-0.11,-0.114
-0.015,-0.103,-0.088,0.059,0.037,-0.096,-0.021,-0.167,-0.18,-0.186,-0.109,-0.116
-0.034,-0.114,-0.08,0.074,0.023,-0.097,-0.017,-0.165,-0.178,-0.173,-0.104,-0.111
-0.035,-0.09,-0.055,0.063,0.01,-0.072,-0.014,-0.164,-0.186,-0.195,-0.105,-0.121
-0.027,-0.046,-0.018,0.037,-0.004,-0.032,-0.01,-0.163,-0.168,-0.171,-0.095,-0.11
0.007,-0.013,-0.021,0.003,0.014,-0.017,-0.009,-0.156,-0.136,-0.14,-0.065,-0.083
-0.006,0.006,0.013,0.0,-0.01,0.009,0.006,-0.166,-0.128,-0.145,-0.062,-0.076
-0.021,0.02,0.041,0.0,-0.032,0.03,0.014,-0.132,-0.114,-0.109,-0.045,-0.063
0.016,0.045,0.029,-0.031,-0.007,0.037,-0.06,-0.17,-0.116,-0.158,-0.008,-0.043
0.056,0.052,-0.004,-0.054,0.03,0.023,-0.108,-0.229,-0.113,-0.092,-0.014,-0.024
0.083,0.022,-0.061,-0.052,0.072,-0.019,-0.08,-0.234,-0.124,-0.178,-0.027,-0.026
0.04,-0.026,-0.066,-0.007,0.053,-0.045,-0.062,-0.187,-0.125,-0.095,-0.061,-0.052
0.015,-0.076,-0.091,0.031,0.053,-0.083,-0.041,0.0,-0.039,-0.261,-0.095,-0.094
0.003,-0.117,-0.12,0.057,0.062,-0.118,-0.014,0.032,0.007,-0.515,-0.102,-0.096
-0.031,-0.139,-0.108,0.085,0.039,-0.123,0.001,-0.018,-0.004,-0.078,-0.125,-0.154
-0.048,-0.147,-0.099,0.098,0.025,-0.122,0.009,0.014,0.003,0.062,-0.144,-0.2
