0.037,0.03,-0.008,-0.034,0.022,0.011,0.036,-0.029,0.011,0.036,0.011,-0.025
0.028,0.031,0.003,-0.03,0.013,0.017,0.036,-0.023,0.017,0.042,0.017,-0.024
0.046,0.06,0.014,-0.053,0.016,0.037,0.037,-0.013,0.036,0.056,0.031,-0.019
0.041,0.094,0.053,-0.068,-0.006,0.073,0.033,0.01,0.062,0.087,0.057,-0.013
0.028,0.07,0.042,-0.049,-0.007,0.055,0.001,0.0,0.05,0.085,0.048,-0.001
0.017,0.044,0.027,-0.031,-0.005,0.035,-0.002,-0.039,0.019,0.061,0.034,0.001
-0.007,0.041,0.049,-0.018,-0.028,0.044,0.002,-0.077,-0.009,0.038,0.02,-0.016
-0.006,0.033,0.039,-0.013,-0.023,0.036,-0.002,-0.099,-0.022,0.008,-0.003,-0.029
-0.011,0.03,0.041,-0.01,-0.026,0.036,0.002,-0.106,-0.044,-0.01,-0.022,-0.054
-0.008,0.023,0.031,-0.008,-0.02,0.027,-0.002,-0.111,-0.056,-0.014,-0.041,-0.076
-0.007,0.028,0.035,-0.01,-0.022,0.031,0.005,-0.112,-0.064,-0.023,-0.046,-0.084
-0.002,0.02,0.023,-0.009,-0.013,0.021,0.008,-0.106,-0.066,-0.021,-0.044,-0.083
-0.005,0.021,0.026,-0.008,-0.016,0.024,0.011,-0.107,-0.073,-0.038,-0.053,-0.089
-0.02,0.02,0.039,0.0,-0.03,0.029,0.023,-0.102,-0.07,-0.028,-0.048,-0.08
-0.046,0.016,0.062,0.015,-0.054,0.039,0.055,-0.076,-0.045,-0.054,-0.082,-0.118
-0.09,0.02,0.11,0.035,-0.101,0.065,0.193,0.111,0.05,-0.02,-0.103,-0.184
0.042,0.226,0.184,-0.134,-0.072,0.205,0.124,0.282,0.388,0.352,0.216,0.06
0.408,0.884,0.476,-0.646,-0.034,0.679,-0.305,0.073,1.021,1.28,1.216,0.858
0.583,1.132,0.548,-0.857,0.017,0.84,-0.568,-0.188,1.379,1.852,1.87,1.415
0.286,0.715,0.429,-0.501,-0.072,0.572,-0.443,-0.541,0.568,0.887,1.042,0.915
0.018,0.391,0.372,-0.205,-0.177,0.381,-0.306,-0.804,-0.298,-0.036,0.198,0.299
-0.012,0.221,0.233,-0.105,-0.123,0.227,-0.235,-0.513,-0.226,-0.049,0.098,0.124
-0.018,0.151,0.169,-0.067,-0.094,0.16,-0.089,-0.2,-0.066,-0.012,0.042,0.028
-0.022,0.076,0.097,-0.027,-0.059,0.086,-0.018,-0.084,-0.007,0.046,0.036,-0.003
-0.028,0.029,0.057,-0.001,-0.043,0.043,-0.002,-0.039,0.011,0.038,0.02,-0.022
-0.023,0.034,0.058,-0.006,-0.041,0.046,0.022,-0.03,0.008,0.033,0.005,-0.034
-0.036,0.015,0.051,0.01,-0.043,0.032,0.023,-0.01,0.026,0.037,0.002,-0.049
-0.038,0.013,0.052,0.012,-0.045,0.032,0.031,-0.006,0.017,0.025,-0.011,-0.049
-0.045,0.0,0.044,0.022,-0.045,0.022,0.049,0.01,0.032,0.034,-0.011,-0.042
-0.039,-0.005,0.034,0.021,-0.036,0.014,0.051,0.033,0.033,0.017,-0.009,-0.042
-0.005,-0.013,-0.007,0.009,0.001,-0.01,0.046,0.043,0.035,0.035,0.012,-0.035
0.007,-0.019,-0.027,0.006,0.017,-0.023,0.062,0.052,0.058,0.056,0.023,-0.035
0.0,-0.013,-0.013,0.006,0.007,-0.013,0.063,0.076,0.072,0.067,0.029,-0.027
-0.021,-0.006,0.015,0.013,-0.018,0.004,0.054,0.083,0.069,0.071,0.022,-0.022
0.003,0.007,0.004,-0.005,-0.001,0.005,0.055,0.087,0.08,0.076,0.032,-0.013
0.029,0.026,-0.003,-0.028,0.016,0.011,0.044,0.101,0.09,0.087,0.05,-0.009
0.018,0.035,0.017,-0.027,0.0,0.026,0.049,0.118,0.112,0.102,0.061,0.003
0.009,0.04,0.031,-0.024,-0.011,0.035,0.068,0.13,0.134,0.124,0.083,0.016
0.005,0.049,0.044,-0.027,-0.02,0.046,0.072,0.15,0.155,0.145,0.104,0.03
0.009,0.048,0.039,-0.029,-0.015,0.044,0.094,0.186,0.197,0.183,0.127,0.055
0.013,0.063,0.05,-0.039,-0.018,0.056,0.103,0.225,0.235,0.222,0.158,0.07
0.044,0.083,0.039,-0.064,0.002,0.061,0.102,0.276,0.284,0.261,0.194,0.1
0.066,0.121,0.055,-0.094,0.005,0.087,0.106,0.333,0.334,0.302,0.231,0.127
0.081,0.169,0.088,-0.126,-0.004,0.129,0.097,0.393,0.39,0.343,0.268,0.148
0.103,0.19,0.087,-0.146,0.008,0.138,0.108,0.452,0.456,0.411,0.325,0.197
0.108,0.218,0.11,-0.163,-0.001,0.164,0.123,0.508,0.515,0.471,0.381,0.24
0.13,0.248,0.118,-0.189,0.005,0.183,0.116,0.541,0.564,0.519,0.428,0.279
0.126,0.272,0.145,-0.199,-0.009,0.208,0.105,0.556,0.593,0.552,0.475,0.32
0.125,0.28,0.156,-0.203,-0.016,0.218,0.095,0.536,0.594,0.553,0.484,0.327
0.134,0.273,0.138,-0.204,-0.002,0.205,0.087,0.454,0.55,0.535,0.469,0.325
0.106,0.249,0.143,-0.177,-0.019,0.196,0.082,0.347,0.454,0.459,0.411,0.28
0.079,0.19,0.112,-0.135,-0.017,0.151,0.075,0.235,0.331,0.343,0.3,0.193
0.058,0.121,0.063,-0.09,-0.003,0.092,0.07,0.146,0.232,0.241,0.209,0.116
0.026,0.07,0.044,-0.048,-0.01,0.057,0.062,0.083,0.156,0.161,0.133,0.051
-0.004,0.034,0.038,-0.015,-0.022,0.036,0.057,0.037,0.103,0.103,0.072,0.015
-0.022,0.009,0.031,0.007,-0.027,0.02,0.048,0.013,0.068,0.073,0.043,-0.001
-0.025,0.001,0.026,0.012,-0.026,0.013,0.047,-0.017,0.037,0.057,0.034,-0.01
-0.025,-0.003,0.022,0.014,-0.023,0.009,0.06,-0.029,0.03,0.045,0.031,-0.025
-0.026,-0.009,0.017,0.018,-0.021,0.003,0.058,-0.023,0.028,0.045,0.028,-0.04
-0.029,-0.015,0.013,0.022,-0.02,-0.001,0.053,-0.019,0.024,0.044,0.023,-0.035
-0.025,-0.019,0.007,0.022,-0.016,-0.006,0.052,-0.014,0.022,0.041,0.02,-0.03
-0.005,-0.035,-0.03,0.02,0.013,-0.032,0.045,-0.01,0.018,0.039,0.023,-0.024
0.001,-0.052,-0.053,0.025,0.028,-0.052,0.047,-0.005,0.028,0.041,0.026,-0.019
-0.01,-0.058,-0.048,0.034,0.019,-0.052,0.05,-0.005,0.036,0.045,0.029,-0.014
-0.012,-0.058,-0.047,0.035,0.018,-0.052,0.05,-0.005,0.039,0.05,0.03,-0.01
-0.011,-0.054,-0.043,0.033,0.017,-0.049,0.062,-0.005,0.037,0.046,0.03,-0.01
-0.016,-0.056,-0.04,0.036,0.012,-0.047,0.064,-0.005,0.034,0.044,0.03,-0.01
-0.009,-0.051,-0.042,0.03,0.017,-0.047,0.057,-0.005,0.035,0.045,0.03,-0.01
-0.005,-0.05,-0.045,0.027,0.02,-0.047,0.054,-0.006,0.03,0.04,0.03,-0.01
-0.015,-0.05,-0.035,0.033,0.01,-0.042,0.048,-0.012,0.03,0.04,0.03,-0.013
-0.021,-0.045,-0.024,0.033,0.002,-0.034,0.045,-0.018,0.029,0.039,0.026,-0.019
-0.025,-0.045,-0.02,0.035,-0.002,-0.032,0.04,-0.023,0.022,0.032,0.019,-0.023
-0.026,-0.044,-0.017,0.035,-0.004,-0.03,0.04,-0.029,0.018,0.026,0.013,-0.028
-0.025,-0.04,-0.015,0.033,-0.005,-0.027,0.04,-0.034,0.012,0.019,0.006,-0.032
-0.029,-0.04,-0.012,0.035,-0.009,-0.026,0.04,-0.035,0.006,0.012,-0.001,-0.037
-0.03,-0.04,-0.01,0.035,-0.01,-0.025,0.041,-0.035,0.001,0.006,-0.007,-0.039
-0.033,-0.04,-0.007,0.037,-0.013,-0.023,0.037,-0.035,-0.004,0.001,-0.01,-0.043
-0.035,-0.04,-0.004,0.038,-0.016,-0.022,0.035,-0.035,-0.01,-0.006,-0.01,-0.044
-0.035,-0.04,-0.006,0.038,-0.015,-0.022,0.035,-0.035,-0.015,-0.013,-0.012,-0.052
-0.035,-0.04,-0.004,0.038,-0.016,-0.022,0.035,-0.034,-0.021,-0.019,-0.015,-0.061
-0.034,-0.04,-0.007,0.037,-0.014,-0.023,0.035,-0.03,-0.026,-0.027,-0.015,-0.06
-0.034,-0.046,-0.013,0.04,-0.01,-0.029,0.035,-0.03,-0.031,-0.029,-0.019,-0.06
-0.04,-0.047,-0.006,0.044,-0.016,-0.026,0.035,-0.028,-0.035,-0.025,-0.024,-0.06
-0.046,-0.043,0.003,0.044,-0.024,-0.02,0.035,-0.024,-0.035,-0.025,-0.027,-0.06
-0.043,-0.04,0.002,0.041,-0.022,-0.019,0.035,-0.025,-0.035,-0.025,-0.033,-0.064
-0.036,-0.037,-0.002,0.037,-0.017,-0.02,0.035,-0.025,-0.035,-0.025,-0.034,-0.065
-0.03,-0.034,-0.005,0.032,-0.012,-0.019,0.035,-0.025,-0.035,-0.025,-0.03,-0.065
-0.029,-0.038,-0.009,0.033,-0.01,-0.023,0.032,-0.025,-0.035,-0.021,-0.031,-0.065
-0.029,-0.04,-0.011,0.035,-0.009,-0.026,0.03,-0.025,-0.035,-0.02,-0.027,-0.065
-0.02,-0.04,-0.02,0.03,0.0,-0.029,0.03,-0.025,-0.035,-0.02,-0.025,-0.065
-0.013,-0.044,-0.031,0.029,0.009,-0.037,0.03,-0.026,-0.035,-0.02,-0.025,-0.065
-0.014,-0.046,-0.032,0.03,0.01,-0.038,0.03,-0.039,-0.035,-0.02,-0.025,-0.065
-0.018,-0.044,-0.026,0.032,0.005,-0.035,0.03,-0.045,-0.035,-0.021,-0.025,-0.065
-0.02,-0.041,-0.021,0.03,0.001,-0.031,0.035,-0.055,-0.035,-0.025,-0.025,-0.065
-0.021,-0.04,-0.019,0.03,-0.001,-0.029,0.033,-0.066,-0.035,-0.024,-0.025,-0.065
-0.03,-0.04,-0.01,0.036,-0.01,-0.025,0.029,-0.061,-0.035,-0.027,-0.025,-0.062
-0.024,-0.04,-0.016,0.032,-0.004,-0.028,0.03,-0.059,-0.035,-0.031,-0.026,-0.059
-0.011,-0.04,-0.029,0.026,0.009,-0.034,0.03,-0.055,-0.035,-0.03,-0.03,-0.056
-0.013,-0.04,-0.027,0.027,0.007,-0.033,0.03,-0.05,-0.037,-0.034,-0.033,-0.053
-0.027,-0.04,-0.013,0.034,-0.007,-0.026,0.03,-0.05,-0.035,-0.035,-0.035,-0.05
-0.029,-0.04,-0.011,0.035,-0.009,-0.025,0.035,-0.05,-0.035,-0.035,-0.035,-0.051
-0.007,-0.04,-0.033,0.023,0.013,-0.036,0.035,-0.05,-0.033,-0.035,-0.035,-0.059
-0.013,-0.04,-0.028,0.027,0.007,-0.034,0.036,-0.05,-0.029,-0.035,-0.036,-0.06
-0.035,-0.04,-0.004,0.038,-0.015,-0.022,0.04,-0.05,-0.03,-0.035,-0.035,-0.06
-0.032,-0.048,-0.016,0.04,-0.008,-0.032,0.04,-0.05,-0.033,-0.035,-0.035,-0.06
-0.019,-0.053,-0.034,0.036,0.007,-0.043,0.038,-0.054,-0.036,-0.035,-0.033,-0.06
-0.013,-0.046,-0.033,0.03,0.01,-0.039,0.032,-0.055,-0.033,-0.035,-0.03,-0.06
-0.014,-0.041,-0.027,0.028,0.007,-0.034,0.028,-0.056,-0.03,-0.035,-0.029,-0.063
-0.038,-0.036,0.003,0.037,-0.02,-0.016,0.023,-0.061,-0.031,-0.035,-0.031,-0.067
-0.029,-0.03,-0.001,0.03,-0.014,-0.015,0.019,-0.059,-0.029,-0.031,-0.029,-0.07
-0.016,-0.025,-0.009,0.021,-0.004,-0.017,0.013,-0.063,-0.038,-0.029,-0.032,-0.074
-0.061,-0.02,0.041,0.04,-0.051,0.01,-0.005,-0.078,-0.048,-0.03,-0.044,-0.074
-0.044,-0.015,0.029,0.029,-0.036,0.006,-0.003,-0.073,-0.045,-0.03,-0.041,-0.068
-0.01,-0.013,-0.003,0.011,-0.003,-0.008,0.002,-0.063,-0.045,-0.031,-0.036,-0.063
-0.004,-0.003,0.001,0.003,-0.002,-0.001,0.004,-0.057,-0.046,-0.03,-0.029,-0.058
0.009,0.029,0.02,-0.019,-0.006,0.024,0.01,-0.047,-0.039,-0.022,-0.024,-0.051
0.002,0.048,0.046,-0.025,-0.022,0.046,0.011,-0.045,-0.023,-0.018,-0.017,-0.047
0.03,0.045,0.015,-0.038,0.007,0.029,0.037,-0.024,0.007,0.0,0.003,-0.033
0.036,0.065,0.028,-0.051,0.004,0.046,0.039,0.011,0.043,0.04,0.034,-0.008
0.017,0.08,0.063,-0.049,-0.023,0.071,0.008,0.006,0.048,0.06,0.054,0.006
0.023,0.065,0.043,-0.045,-0.01,0.054,-0.008,-0.025,0.029,0.036,0.036,0.003
0.009,0.055,0.046,-0.033,-0.019,0.051,-0.018,-0.068,-0.005,-0.001,0.003,-0.017
-0.006,0.038,0.044,-0.016,-0.025,0.041,-0.031,-0.103,-0.043,-0.032,-0.021,-0.04
-0.023,0.024,0.047,-0.001,-0.035,0.035,-0.033,-0.111,-0.054,-0.059,-0.032,-0.064
-0.039,0.018,0.057,0.01,-0.049,0.038,-0.024,-0.112,-0.077,-0.06,-0.044,-0.085
-0.033,0.01,0.042,0.011,-0.038,0.026,-0.025,-0.123,-0.094,-0.076,-0.067,-0.102
-0.025,0.006,0.031,0.009,-0.028,0.018,-0.013,-0.117,-0.088,-0.082,-0.069,-0.104
-0.028,-0.005,0.023,0.016,-0.025,0.008,-0.018,-0.101,-0.09,-0.08,-0.072,-0.099
-0.036,-0.006,0.03,0.021,-0.033,0.012,0.001,-0.103,-0.084,-0.08,-0.067,-0.094
-0.058,-0.02,0.038,0.039,-0.048,0.009,0.019,-0.064,-0.071,-0.07,-0.065,-0.09
-0.088,-0.02,0.068,0.054,-0.078,0.024,0.098,0.034,-0.042,-0.086,-0.12,-0.163
-0.078,0.02,0.098,0.029,-0.088,0.058,0.211,0.281,0.173,0.08,-0.028,-0.145
0.19,0.435,0.245,-0.312,-0.028,0.34,-0.049,0.305,0.649,0.691,0.601,0.369
0.568,1.028,0.461,-0.798,0.053,0.744,-0.481,0.009,1.273,1.644,1.655,1.222
0.446,0.906,0.459,-0.676,-0.007,0.682,-0.547,-0.297,1.084,1.48,1.586,1.273
0.079,0.476,0.397,-0.278,-0.159,0.436,-0.365,-0.71,0.015,0.256,0.492,0.546
-0.037,0.257,0.293,-0.11,-0.165,0.275,-0.28,-0.698,-0.351,-0.14,0.078,0.178
-0.051,0.135,0.186,-0.042,-0.119,0.16,-0.172,-0.311,-0.142,-0.064,0.045,0.067
-0.043,0.097,0.139,-0.027,-0.091,0.118,-0.039,-0.093,-0.059,-0.053,0.008,-0.003
-0.041,0.031,0.072,0.005,-0.057,0.052,-0.009,-0.013,-0.024,0.001,0.018,-0.016
-0.031,0.005,0.036,0.013,-0.034,0.02,0.012,-0.024,-0.033,-0.019,-0.006,-0.049
-0.032,-0.008,0.024,0.02,-0.027,0.007,0.023,-0.011,-0.014,-0.004,0.006,-0.051
-0.047,-0.03,0.017,0.038,-0.031,-0.006,0.03,-0.006,-0.013,-0.009,-0.008,-0.058
-0.039,-0.027,0.013,0.033,-0.025,-0.007,0.031,0.011,-0.004,-0.004,-0.006,-0.054
-0.037,-0.006,0.031,0.021,-0.033,0.012,0.029,0.029,0.003,-0.004,-0.011,-0.055
-0.01,0.015,0.025,-0.003,-0.018,0.02,0.031,0.029,0.008,0.002,-0.021,-0.055
-0.015,0.021,0.035,-0.004,-0.025,0.028,0.029,0.04,0.017,0.008,-0.018,-0.054
-0.019,0.033,0.052,-0.008,-0.036,0.042,0.032,0.037,0.022,0.013,-0.008,-0.047
-0.016,0.042,0.058,-0.013,-0.037,0.049,0.037,0.054,0.034,0.019,0.003,-0.038
-0.01,0.046,0.056,-0.018,-0.033,0.05,0.044,0.076,0.049,0.023,0.012,-0.03
0.008,0.045,0.037,-0.027,-0.015,0.041,0.049,0.083,0.067,0.049,0.019,-0.022
-0.011,0.048,0.059,-0.019,-0.035,0.054,0.05,0.099,0.08,0.06,0.034,-0.013
-0.006,0.051,0.057,-0.023,-0.031,0.053,0.049,0.12,0.106,0.078,0.046,0.003
0.001,0.049,0.048,-0.025,-0.024,0.048,0.044,0.147,0.129,0.097,0.061,0.013
0.003,0.052,0.049,-0.028,-0.023,0.05,0.041,0.177,0.16,0.121,0.095,0.033
0.034,0.072,0.038,-0.053,-0.003,0.054,0.055,0.207,0.196,0.152,0.109,0.048
0.045,0.093,0.048,-0.069,-0.002,0.07,0.071,0.255,0.235,0.186,0.131,0.062
0.046,0.112,0.067,-0.08,-0.011,0.089,0.08,0.308,0.286,0.237,0.173,0.091
0.075,0.139,0.063,-0.108,0.006,0.101,0.077,0.377,0.347,0.286,0.219,0.126
0.104,0.171,0.067,-0.138,0.018,0.118,0.073,0.429,0.416,0.347,0.275,0.167
0.12,0.23,0.11,-0.175,0.005,0.17,0.07,0.476,0.459,0.394,0.317,0.203
0.128,0.276,0.148,-0.202,-0.01,0.212,0.065,0.52,0.506,0.434,0.36,0.238
0.164,0.304,0.14,-0.234,0.011,0.222,0.063,0.536,0.559,0.495,0.415,0.283
0.194,0.326,0.132,-0.26,0.031,0.229,0.056,0.54,0.578,0.53,0.451,0.31
0.147,0.318,0.17,-0.233,-0.012,0.244,0.049,0.494,0.567,0.52,0.449,0.301
0.138,0.297,0.159,-0.218,-0.011,0.227,0.043,0.41,0.507,0.475,0.424,0.295
0.13,0.255,0.125,-0.193,0.003,0.189,0.036,0.303,0.392,0.376,0.342,0.239
0.072,0.189,0.117,-0.13,-0.023,0.153,0.03,0.195,0.267,0.254,0.208,0.134
0.041,0.122,0.081,-0.082,-0.02,0.102,0.025,0.12,0.169,0.158,0.112,0.058
0.009,0.073,0.064,-0.042,-0.027,0.068,0.02,0.065,0.089,0.086,0.042,0.003
-0.012,0.039,0.051,-0.014,-0.032,0.045,0.017,0.037,0.04,0.034,0.0,-0.025
-0.008,0.026,0.034,-0.01,-0.021,0.03,0.01,0.021,0.025,0.013,-0.023,-0.048
-0.012,0.023,0.035,-0.006,-0.024,0.029,0.014,0.014,0.012,0.005,-0.038,-0.062
0.005,0.017,0.011,-0.011,-0.003,0.014,0.026,0.007,0.004,0.001,-0.021,-0.058
-0.007,0.012,0.019,-0.002,-0.013,0.015,0.025,0.001,-0.005,-0.014,-0.038,-0.062
-0.041,0.006,0.046,0.017,-0.044,0.025,0.025,-0.006,-0.014,-0.036,-0.074,-0.077
-0.021,0.009,0.03,0.006,-0.025,0.019,0.025,-0.009,-0.011,-0.035,-0.076,-0.081
-0.012,0.014,0.026,-0.001,-0.019,0.019,0.025,0.025,-0.008,-0.035,-0.074,-0.079
0.003,0.003,0.0,-0.003,0.001,0.001,0.024,0.043,-0.006,-0.032,-0.076,-0.079
-0.002,-0.011,-0.009,0.006,0.004,-0.01,0.021,0.039,-0.002,-0.029,-0.075,-0.074
-0.003,-0.009,-0.006,0.006,0.002,-0.007,0.018,0.04,0.0,-0.03,-0.074,-0.071
-0.009,0.005,0.014,0.002,-0.012,0.009,0.015,0.04,-0.002,-0.025,-0.069,-0.068
-0.033,0.023,0.055,0.005,-0.044,0.039,0.012,0.039,-0.008,-0.025,-0.066,-0.063
0.001,0.026,0.026,-0.014,-0.013,0.026,0.01,0.043,-0.009,-0.025,-0.062,-0.06
0.033,0.016,-0.017,-0.025,0.025,0.0,0.01,0.063,-0.006,-0.025,-0.06,-0.064
0.022,0.009,-0.013,-0.016,0.017,-0.002,0.01,0.061,-0.006,-0.025,-0.081,-0.078
-0.009,0.001,0.009,0.004,-0.009,0.005,0.01,0.054,-0.012,-0.027,-0.097,-0.085
-0.003,-0.006,-0.003,0.005,0.001,-0.005,0.01,0.05,-0.007,-0.035,-0.096,-0.087
-0.003,-0.012,-0.009,0.008,0.003,-0.01,0.01,0.043,0.008,-0.04,-0.101,-0.091
0.0,-0.019,-0.019,0.01,0.01,-0.019,0.01,0.039,0.001,-0.04,-0.102,-0.093
0.005,-0.026,-0.031,0.011,0.018,-0.028,0.01,0.034,-0.011,-0.041,-0.107,-0.096
-0.008,-0.033,-0.025,0.02,0.009,-0.029,0.011,0.031,-0.019,-0.039,-0.1,-0.091
-0.002,-0.039,-0.037,0.021,0.018,-0.038,0.009,0.027,-0.032,-0.047,-0.104,-0.09
-0.038,-0.04,-0.002,0.039,-0.018,-0.021,0.011,0.024,-0.036,-0.06,-0.12,-0.09
-0.046,-0.04,0.006,0.043,-0.026,-0.017,0.009,0.019,-0.034,-0.055,-0.115,-0.085
-0.005,-0.041,-0.036,0.024,0.015,-0.038,0.01,0.035,-0.036,-0.055,-0.116,-0.086
-0.002,-0.045,-0.043,0.024,0.021,-0.044,0.021,0.052,-0.034,-0.054,-0.113,-0.083
-0.013,-0.045,-0.032,0.029,0.01,-0.038,0.013,0.035,-0.04,-0.061,-0.122,-0.091
-0.012,-0.045,-0.032,0.029,0.011,-0.038,-0.002,0.023,-0.061,-0.088,-0.137,-0.106
0.001,-0.057,-0.058,0.028,0.03,-0.058,-0.012,0.025,-0.065,-0.088,-0.134,-0.099
-0.002,-0.061,-0.059,0.032,0.029,-0.06,-0.011,0.024,-0.059,-0.082,-0.135,-0.096
-0.007,-0.06,-0.053,0.034,0.023,-0.056,-0.009,0.028,-0.057,-0.079,-0.129,-0.091
-0.005,-0.057,-0.051,0.031,0.023,-0.054,-0.026,0.03,-0.052,-0.073,-0.131,-0.087
-0.008,-0.055,-0.046,0.032,0.019,-0.05,-0.03,0.03,-0.049,-0.07,-0.126,-0.082
-0.011,-0.055,-0.044,0.033,0.017,-0.049,-0.024,0.033,-0.057,-0.064,-0.115,-0.081
-0.012,-0.05,-0.039,0.031,0.014,-0.044,-0.022,0.038,-0.069,-0.076,-0.135,-0.095
-0.013,-0.047,-0.034,0.03,0.011,-0.04,-0.018,0.039,-0.066,-0.087,-0.143,-0.095
-0.015,-0.043,-0.028,0.029,0.007,-0.035,-0.014,0.035,-0.059,-0.084,-0.143,-0.09
-0.012,-0.04,-0.028,0.026,0.008,-0.033,-0.023,0.035,-0.056,-0.083,-0.15,-0.089
-0.019,-0.035,-0.015,0.027,-0.002,-0.024,-0.036,0.033,-0.046,-0.08,-0.148,-0.084
0.007,-0.041,-0.048,0.017,0.028,-0.044,-0.023,0.029,-0.049,-0.08,-0.145,-0.086
0.007,-0.045,-0.052,0.02,0.029,-0.048,-0.012,0.03,-0.056,-0.085,-0.14,-0.093
-0.011,-0.038,-0.027,0.024,0.008,-0.032,-0.015,0.033,-0.052,-0.09,-0.138,-0.092
-0.003,-0.035,-0.032,0.019,0.015,-0.034,-0.015,0.042,-0.05,-0.09,-0.134,-0.09
0.006,-0.029,-0.035,0.012,0.02,-0.032,-0.014,0.043,-0.042,-0.09,-0.129,-0.089
0.025,-0.026,-0.051,0.001,0.038,-0.038,-0.028,0.041,-0.066,-0.09,-0.137,-0.086
0.01,-0.021,-0.031,0.006,0.021,-0.026,-0.042,0.037,-0.088,-0.09,-0.147,-0.084
-0.002,-0.02,-0.018,0.012,0.008,-0.019,-0.039,0.035,-0.077,-0.089,-0.145,-0.088
-0.011,-0.018,-0.007,0.014,-0.002,-0.012,-0.04,0.031,-0.076,-0.085,-0.146,-0.085
0.003,0.02,0.018,-0.012,-0.008,0.019,-0.04,0.03,-0.07,-0.085,-0.145,-0.083
0.024,0.046,0.023,-0.035,0.0,0.034,-0.04,0.034,-0.066,-0.085,-0.148,-0.092
0.019,0.044,0.025,-0.032,-0.003,0.034,-0.043,0.041,-0.049,-0.072,-0.141,-0.081
0.034,0.051,0.017,-0.043,0.008,0.034,-0.046,0.076,-0.002,-0.024,-0.09,-0.043
0.05,0.064,0.014,-0.058,0.018,0.039,-0.05,0.087,0.027,0.014,-0.062,-0.016
0.05,0.061,0.01,-0.055,0.02,0.035,-0.049,0.057,0.015,0.006,-0.067,-0.025
0.046,0.026,-0.021,-0.036,0.033,0.003,-0.045,0.023,-0.016,-0.026,-0.089,-0.038
0.037,-0.019,-0.056,-0.009,0.047,-0.037,-0.042,0.0,-0.054,-0.063,-0.122,-0.05
0.015,-0.041,-0.056,0.013,0.036,-0.048,-0.04,-0.005,-0.066,-0.077,-0.125,-0.065
-0.004,-0.056,-0.052,0.03,0.025,-0.054,-0.035,-0.02,-0.078,-0.085,-0.135,-0.077
-0.018,-0.077,-0.059,0.048,0.021,-0.068,-0.036,-0.035,-0.097,-0.105,-0.156,-0.085
-0.025,-0.074,-0.049,0.05,0.012,-0.061,-0.03,-0.045,-0.095,-0.107,-0.156,-0.085
-0.008,-0.092,-0.084,0.05,0.038,-0.087,-0.028,-0.04,-0.097,-0.108,-0.177,-0.084
-0.013,-0.093,-0.08,0.053,0.034,-0.086,-0.021,-0.04,-0.089,-0.118,-0.191,-0.087
-0.015,-0.095,-0.08,0.055,0.033,-0.087,-0.017,-0.055,-0.089,-0.106,-0.186,-0.107
-0.029,-0.104,-0.075,0.067,0.023,-0.089,0.045,0.038,-0.064,-0.086,-0.203,-0.152
-0.073,-0.106,-0.033,0.09,-0.02,-0.069,0.185,0.296,0.128,0.03,-0.151,-0.166
0.13,0.181,0.05,-0.156,0.04,0.116,0.021,0.384,0.541,0.519,0.343,0.224
0.481,0.889,0.409,-0.685,0.036,0.649,-0.456,-0.037,1.067,1.485,1.483,1.122
0.437,0.945,0.508,-0.692,-0.036,0.726,-0.602,-0.532,0.947,1.534,1.622,1.289
0.085,0.461,0.375,-0.273,-0.145,0.418,-0.339,-0.781,0.021,0.313,0.416,0.473
-0.08,0.244,0.324,-0.083,-0.202,0.284,-0.21,-0.762,-0.459,-0.253,-0.131,0.041
-0.074,0.106,0.18,-0.016,-0.128,0.143,-0.179,-0.452,-0.309,-0.173,-0.137,0.0
-0.041,0.07,0.112,-0.015,-0.077,0.091,-0.07,-0.165,-0.152,-0.126,-0.142,-0.05
-0.014,0.026,0.04,-0.006,-0.027,0.033,-0.04,-0.037,-0.076,-0.055,-0.097,-0.033
-0.023,-0.036,-0.013,0.03,-0.005,-0.024,-0.029,-0.012,-0.065,-0.063,-0.122,-0.045
-0.006,-0.047,-0.042,0.027,0.018,-0.044,-0.016,0.006,-0.055,-0.051,-0.099,-0.044
-0.006,-0.054,-0.047,0.03,0.02,-0.05,-0.014,0.027,-0.053,-0.056,-0.106,-0.046
-0.01,-0.047,-0.037,0.028,0.014,-0.042,-0.007,0.028,-0.048,-0.05,-0.098,-0.045
-0.012,-0.052,-0.041,0.032,0.015,-0.046,-0.005,0.047,-0.043,-0.049,-0.094,-0.041
-0.005,-0.049,-0.044,0.027,0.019,-0.046,0.001,0.06,-0.032,-0.049,-0.089,-0.041
0.019,-0.051,-0.071,0.016,0.045,-0.061,0.005,0.064,-0.015,-0.032,-0.079,-0.039
0.011,-0.065,-0.076,0.028,0.044,-0.071,0.012,0.07,-0.006,-0.025,-0.076,-0.036
0.014,-0.08,-0.094,0.033,0.054,-0.087,0.016,0.073,0.006,-0.006,-0.065,-0.031
0.022,-0.074,-0.096,0.027,0.059,-0.085,0.022,0.082,0.02,0.01,-0.059,-0.027
0.026,-0.067,-0.094,0.021,0.06,-0.08,0.029,0.112,0.049,0.034,-0.036,-0.014
0.035,-0.061,-0.096,0.013,0.066,-0.078,0.027,0.12,0.059,0.051,-0.013,-0.003
0.04,-0.054,-0.094,0.008,0.067,-0.074,0.025,0.137,0.078,0.066,0.001,0.018
0.052,-0.048,-0.1,-0.001,0.076,-0.074,0.022,0.173,0.108,0.089,0.012,0.035
0.071,-0.035,-0.106,-0.018,0.089,-0.07,0.019,0.187,0.125,0.113,0.034,0.045
0.074,-0.012,-0.086,-0.031,0.08,-0.049,0.017,0.203,0.161,0.148,0.06,0.067
0.07,0.016,-0.053,-0.043,0.061,-0.018,0.012,0.23,0.198,0.18,0.081,0.083
0.087,0.034,-0.053,-0.061,0.07,-0.009,0.027,0.28,0.251,0.229,0.129,0.114
0.124,0.084,-0.04,-0.104,0.082,0.022,0.04,0.322,0.304,0.28,0.179,0.146
0.147,0.118,-0.029,-0.132,0.088,0.044,0.031,0.37,0.361,0.337,0.234,0.189
0.137,0.112,-0.025,-0.124,0.081,0.043,0.027,0.435,0.439,0.417,0.304,0.255
0.174,0.157,-0.017,-0.165,0.095,0.07,0.021,0.459,0.481,0.46,0.349,0.287
0.209,0.201,-0.008,-0.204,0.108,0.096,0.014,0.479,0.525,0.511,0.402,0.325
0.202,0.205,0.003,-0.203,0.099,0.104,0.008,0.489,0.548,0.546,0.439,0.365
0.193,0.22,0.027,-0.207,0.083,0.123,0.001,0.439,0.52,0.529,0.434,0.359
0.146,0.228,0.082,-0.187,0.032,0.155,-0.006,0.361,0.455,0.475,0.391,0.321
0.108,0.189,0.081,-0.149,0.013,0.135,-0.01,0.264,0.346,0.371,0.294,0.249
0.066,0.119,0.053,-0.092,0.006,0.085,-0.001,0.168,0.231,0.252,0.183,0.158
0.014,0.065,0.051,-0.04,-0.019,0.058,0.006,0.096,0.125,0.142,0.08,0.075
-0.009,0.033,0.042,-0.013,-0.025,0.037,0.012,0.043,0.064,0.072,0.011,0.015
-0.032,-0.001,0.031,0.016,-0.032,0.015,0.031,0.008,0.014,0.02,-0.041,-0.025
-0.047,-0.036,0.011,0.041,-0.028,-0.013,0.036,-0.017,-0.028,-0.017,-0.077,-0.044
-0.038,-0.048,-0.009,0.043,-0.014,-0.028,0.031,-0.04,-0.039,-0.031,-0.081,-0.05
-0.011,-0.05,-0.039,0.031,0.014,-0.044,0.029,-0.07,-0.071,-0.055,-0.095,-0.065
-0.011,-0.055,-0.044,0.033,0.017,-0.05,0.026,-0.075,-0.072,-0.048,-0.098,-0.068
-0.012,-0.051,-0.039,0.031,0.014,-0.045,0.024,-0.066,-0.055,-0.032,-0.09,-0.06
-0.009,-0.046,-0.038,0.028,0.015,-0.042,0.021,-0.064,-0.051,-0.031,-0.086,-0.057
-0.013,-0.043,-0.03,0.028,0.009,-0.036,0.018,-0.059,-0.05,-0.03,-0.079,-0.049
-0.003,-0.037,-0.034,0.02,0.016,-0.035,0.015,-0.054,-0.049,-0.031,-0.076,-0.046
-0.031,-0.036,-0.005,0.034,-0.012,-0.02,0.013,-0.051,-0.044,-0.03,-0.075,-0.045
-0.013,-0.04,-0.027,0.027,0.007,-0.033,0.008,-0.049,-0.045,-0.031,-0.075,-0.045
-0.01,-0.04,-0.03,0.025,0.01,-0.035,0.021,-0.045,-0.047,-0.03,-0.073,-0.045
-0.019,-0.04,-0.021,0.03,0.001,-0.03,0.032,-0.044,-0.052,-0.031,-0.07,-0.045
-0.022,-0.041,-0.019,0.032,-0.002,-0.03,0.029,-0.037,-0.047,-0.028,-0.067,-0.045
-0.052,-0.039,0.014,0.045,-0.033,-0.012,0.028,-0.055,-0.057,-0.035,-0.064,-0.045
-0.001,-0.048,-0.047,0.025,0.023,-0.048,0.024,-0.072,-0.072,-0.048,-0.061,-0.045
0.009,-0.051,-0.06,0.022,0.034,-0.055,0.025,-0.069,-0.069,-0.042,-0.06,-0.046
0.001,-0.04,-0.041,0.02,0.021,-0.04,0.022,-0.071,-0.071,-0.04,-0.064,-0.043
0.009,-0.03,-0.038,0.011,0.024,-0.034,0.017,-0.069,-0.069,-0.037,-0.071,-0.055
-0.005,-0.022,-0.017,0.014,0.006,-0.019,0.015,-0.088,-0.087,-0.033,-0.076,-0.067
-0.006,-0.028,-0.022,0.018,0.008,-0.025,0.01,-0.097,-0.097,-0.043,-0.075,-0.064
-0.035,-0.031,0.004,0.033,-0.02,-0.013,0.007,-0.094,-0.094,-0.05,-0.073,-0.065
-0.026,-0.029,-0.004,0.028,-0.011,-0.017,0.003,-0.096,-0.096,-0.05,-0.071,-0.065
-0.018,-0.03,-0.013,0.024,-0.003,-0.021,0.001,-0.094,-0.094,-0.049,-0.068,-0.064
-0.03,-0.03,0.001,0.03,-0.016,-0.014,-0.003,-0.095,-0.095,-0.059,-0.078,-0.069
-0.023,-0.031,-0.008,0.027,-0.007,-0.019,-0.005,-0.09,-0.089,-0.067,-0.076,-0.069
-0.036,-0.038,-0.002,0.037,-0.017,-0.02,-0.008,-0.09,-0.098,-0.064,-0.081,-0.073
-0.026,-0.044,-0.018,0.035,-0.003,-0.031,-0.011,-0.089,-0.107,-0.065,-0.097,-0.082
-0.033,-0.045,-0.013,0.039,-0.01,-0.029,-0.006,-0.096,-0.104,-0.065,-0.095,-0.079
-0.051,-0.045,0.006,0.048,-0.028,-0.019,0.0,-0.109,-0.106,-0.065,-0.095,-0.076
-0.024,-0.046,-0.022,0.035,-0.001,-0.034,0.006,-0.11,-0.105,-0.069,-0.091,-0.073
-0.017,-0.067,-0.049,0.042,0.016,-0.058,0.009,-0.11,-0.105,-0.07,-0.09,-0.07
-0.033,-0.078,-0.045,0.055,0.006,-0.061,0.005,-0.11,-0.101,-0.07,-0.089,-0.069
-0.041,-0.071,-0.03,0.057,-0.006,-0.05,0.004,-0.11,-0.1,-0.07,-0.084,-0.065
-0.043,-0.07,-0.027,0.057,-0.008,-0.049,0.001,-0.11,-0.1,-0.07,-0.081,-0.065
-0.056,-0.066,-0.01,0.061,-0.022,-0.038,-0.001,-0.122,-0.095,-0.07,-0.077,-0.063
-0.041,-0.065,-0.024,0.053,-0.008,-0.044,0.007,-0.126,-0.095,-0.07,-0.074,-0.059
0.0,-0.062,-0.061,0.031,0.031,-0.061,0.017,-0.124,-0.096,-0.07,-0.069,-0.06
-0.008,-0.059,-0.052,0.034,0.022,-0.055,0.016,-0.122,-0.102,-0.07,-0.074,-0.063
-0.008,-0.06,-0.053,0.034,0.022,-0.056,0.012,-0.119,-0.109,-0.07,-0.08,-0.072
-0.013,-0.06,-0.047,0.036,0.017,-0.053,0.01,-0.12,-0.11,-0.07,-0.08,-0.074
-0.065,-0.06,0.005,0.063,-0.035,-0.028,0.006,-0.115,-0.11,-0.074,-0.08,-0.07
-0.054,-0.059,-0.005,0.056,-0.024,-0.031,0.005,-0.112,-0.11,-0.075,-0.08,-0.07
-0.009,-0.055,-0.046,0.032,0.019,-0.05,0.009,-0.108,-0.11,-0.075,-0.08,-0.07
-0.022,-0.052,-0.03,0.037,0.004,-0.04,0.014,-0.105,-0.109,-0.08,-0.08,-0.07
-0.025,-0.049,-0.024,0.037,0.0,-0.036,0.018,-0.101,-0.103,-0.081,-0.076,-0.071
-0.022,-0.045,-0.023,0.034,0.001,-0.034,0.023,-0.097,-0.096,-0.079,-0.067,-0.066
-0.023,-0.04,-0.017,0.031,-0.003,-0.028,0.027,-0.095,-0.089,-0.068,-0.062,-0.057
-0.009,-0.026,-0.018,0.018,0.005,-0.022,0.03,-0.09,-0.083,-0.055,-0.053,-0.049
-0.01,-0.013,-0.003,0.012,-0.004,-0.008,0.03,-0.092,-0.072,-0.039,-0.052,-0.04
0.008,0.025,0.017,-0.017,-0.004,0.02,0.027,-0.064,-0.055,-0.016,-0.037,-0.037
0.026,0.06,0.034,-0.044,-0.004,0.047,0.024,-0.039,-0.055,-0.01,-0.01,-0.04
0.031,0.033,0.002,-0.032,0.014,0.018,0.022,-0.052,-0.062,-0.005,-0.015,-0.04
0.039,0.009,-0.03,-0.024,0.035,-0.011,0.017,-0.072,-0.062,-0.015,-0.024,-0.039
0.02,-0.016,-0.036,-0.001,0.029,-0.026,0.017,-0.1,-0.072,-0.045,-0.034,-0.042
0.006,-0.04,-0.046,0.018,0.026,-0.043,0.012,-0.09,-0.075,-0.049,-0.039,-0.037
-0.014,-0.045,-0.031,0.03,0.009,-0.038,0.012,-0.105,-0.097,-0.072,-0.061,-0.055
-0.026,-0.06,-0.034,0.043,0.004,-0.047,0.006,-0.132,-0.13,-0.1,-0.098,-0.083
-0.027,-0.037,-0.011,0.032,-0.008,-0.024,0.005,-0.138,-0.136,-0.11,-0.111,-0.086
-0.036,-0.036,0.001,0.036,-0.018,-0.017,0.002,-0.152,-0.119,-0.1,-0.101,-0.083
-0.075,-0.056,0.019,0.065,-0.047,-0.018,-0.004,-0.155,-0.122,-0.105,-0.108,-0.086
-0.091,-0.073,0.017,0.081,-0.053,-0.028,0.019,-0.133,-0.108,-0.098,-0.094,-0.085
-0.068,-0.078,-0.01,0.073,-0.029,-0.044,0.048,-0.097,-0.105,-0.096,-0.113,-0.103
-0.105,-0.076,0.029,0.09,-0.067,-0.023,0.179,0.069,-0.053,-0.086,-0.161,-0.176
-0.017,0.065,0.082,-0.024,-0.049,0.073,0.164,0.266,0.271,0.209,0.092,-0.018
0.309,0.707,0.398,-0.508,-0.045,0.552,-0.255,0.023,0.829,1.045,0.986,0.69
0.531,1.107,0.576,-0.819,-0.023,0.841,-0.589,-0.245,1.344,1.825,1.827,1.337
0.317,0.722,0.405,-0.52,-0.045,0.564,-0.521,-0.498,0.733,1.096,1.215,1.004
0.031,0.341,0.31,-0.186,-0.139,0.325,-0.38,-0.814,-0.331,-0.045,0.206,0.332
-0.016,0.178,0.195,-0.081,-0.106,0.186,-0.27,-0.571,-0.346,-0.143,0.043,0.112
-0.019,0.093,0.112,-0.037,-0.065,0.102,-0.1,-0.229,-0.134,-0.07,0.029,0.033
-0.011,0.034,0.045,-0.012,-0.028,0.039,-0.007,-0.098,-0.076,-0.051,0.017,-0.009
-0.015,-0.013,0.002,0.013,-0.008,-0.005,0.021,-0.039,-0.054,-0.04,-0.011,-0.027
-0.025,-0.019,0.007,0.022,-0.016,-0.006,0.04,-0.028,-0.075,-0.049,-0.05,-0.047
-0.03,-0.038,-0.008,0.034,-0.011,-0.023,0.046,-0.001,-0.052,-0.032,-0.04,-0.047
-0.029,-0.036,-0.006,0.033,-0.011,-0.021,0.049,-0.007,-0.066,-0.041,-0.054,-0.053
-0.015,-0.031,-0.017,0.023,0.001,-0.024,0.044,0.002,-0.055,-0.027,-0.048,-0.046
-0.008,-0.027,-0.019,0.017,0.006,-0.023,0.045,0.003,-0.05,-0.033,-0.057,-0.043
-0.009,-0.022,-0.013,0.016,0.002,-0.017,0.043,0.006,-0.035,-0.028,-0.053,-0.037
-0.016,-0.018,-0.002,0.017,-0.006,-0.01,0.039,0.023,-0.023,-0.031,-0.041,-0.034
-0.016,-0.013,0.003,0.014,-0.009,-0.005,0.041,0.028,-0.009,-0.027,-0.027,-0.029
-0.002,-0.008,-0.007,0.005,0.003,-0.007,0.043,0.047,0.005,-0.008,-0.014,-0.024
0.012,-0.002,-0.014,-0.005,0.013,-0.007,0.046,0.062,0.015,0.011,-0.008,-0.02
-0.001,0.002,0.003,-0.001,-0.002,0.003,0.045,0.06,0.026,0.017,-0.001,-0.015
-0.015,0.009,0.024,0.002,-0.019,0.016,0.045,0.073,0.043,0.03,0.007,-0.012
-0.014,0.013,0.027,0.0,-0.021,0.02,0.066,0.104,0.068,0.056,0.027,-0.007
0.006,0.025,0.019,-0.016,-0.007,0.022,0.082,0.135,0.091,0.077,0.056,0.009
0.007,0.049,0.042,-0.028,-0.017,0.045,0.08,0.169,0.132,0.108,0.076,0.02
0.012,0.057,0.045,-0.035,-0.016,0.051,0.078,0.214,0.172,0.141,0.099,0.04
0.031,0.058,0.027,-0.045,0.002,0.042,0.099,0.276,0.221,0.187,0.142,0.074
0.008,0.052,0.044,-0.03,-0.018,0.047,0.117,0.342,0.286,0.245,0.187,0.105
0.026,0.064,0.038,-0.045,-0.006,0.05,0.123,0.404,0.348,0.302,0.235,0.145
0.076,0.113,0.037,-0.095,0.02,0.074,0.132,0.456,0.415,0.361,0.292,0.183
0.092,0.126,0.034,-0.11,0.029,0.08,0.131,0.521,0.483,0.427,0.352,0.23
0.115,0.147,0.032,-0.132,0.041,0.089,0.123,0.555,0.534,0.485,0.402,0.276
0.133,0.208,0.075,-0.171,0.029,0.141,0.112,0.534,0.55,0.508,0.425,0.295
0.131,0.244,0.112,-0.188,0.009,0.178,0.103,0.519,0.548,0.512,0.439,0.312
0.128,0.246,0.118,-0.187,0.005,0.182,0.083,0.45,0.5,0.49,0.43,0.305
0.109,0.212,0.103,-0.161,0.003,0.157,0.063,0.331,0.399,0.407,0.366,0.254
0.073,0.156,0.083,-0.115,-0.005,0.119,0.056,0.216,0.278,0.292,0.266,0.184
0.046,0.109,0.062,-0.078,-0.008,0.085,0.049,0.119,0.166,0.177,0.161,0.101
0.013,0.056,0.043,-0.035,-0.016,0.049,0.043,0.053,0.085,0.096,0.086,0.034
-0.018,0.015,0.033,0.001,-0.026,0.024,0.035,0.002,0.021,0.041,0.034,-0.003
-0.02,0.002,0.022,0.009,-0.021,0.012,0.031,-0.021,-0.018,0.003,0.0,-0.021
-0.024,-0.011,0.013,0.017,-0.018,0.001,0.028,-0.033,-0.033,-0.002,-0.003,-0.027
-0.035,-0.029,0.006,0.031,-0.02,-0.011,0.025,-0.037,-0.036,-0.013,-0.009,-0.038
-0.041,-0.042,-0.001,0.042,-0.02,-0.022,0.023,-0.034,-0.035,-0.03,-0.012,-0.04
-0.039,-0.045,-0.007,0.042,-0.015,-0.026,0.019,-0.035,-0.04,-0.031,-0.018,-0.04
-0.029,-0.045,-0.015,0.037,-0.007,-0.03,0.022,-0.03,-0.04,-0.027,-0.019,-0.04
-0.027,-0.045,-0.018,0.036,-0.004,-0.032,0.026,-0.03,-0.039,-0.025,-0.014,-0.04
-0.011,-0.045,-0.034,0.028,0.012,-0.039,0.025,-0.029,-0.035,-0.022,-0.015,-0.04
-0.01,-0.053,-0.043,0.032,0.017,-0.048,0.026,-0.025,-0.035,-0.019,-0.015,-0.041
-0.037,-0.055,-0.019,0.046,-0.008,-0.037,0.03,-0.023,-0.033,-0.024,-0.015,-0.045
-0.048,-0.05,-0.002,0.049,-0.023,-0.026,0.032,-0.02,-0.029,-0.025,-0.015,-0.045
-0.048,-0.048,0.0,0.048,-0.024,-0.024,0.04,-0.017,-0.03,-0.025,-0.019,-0.045
-0.051,-0.043,0.008,0.047,-0.029,-0.018,0.048,-0.014,-0.033,-0.025,-0.02,-0.045
-0.051,-0.04,0.011,0.045,-0.031,-0.014,0.044,-0.019,-0.036,-0.025,-0.02,-0.045
-0.061,-0.043,0.018,0.052,-0.039,-0.012,0.042,-0.026,-0.035,-0.025,-0.025,-0.049
-0.073,-0.046,0.027,0.059,-0.049,-0.009,0.039,-0.032,-0.035,-0.025,-0.025,-0.05
-0.057,-0.044,0.012,0.05,-0.034,-0.016,0.036,-0.039,-0.035,-0.025,-0.025,-0.05
-0.027,-0.046,-0.019,0.037,-0.004,-0.032,0.034,-0.046,-0.035,-0.025,-0.025,-0.05
-0.009,-0.044,-0.035,0.027,0.014,-0.039,0.031,-0.051,-0.036,-0.025,-0.025,-0.05
-0.017,-0.049,-0.031,0.033,0.008,-0.04,0.028,-0.055,-0.034,-0.026,-0.025,-0.051
-0.013,-0.056,-0.043,0.035,0.015,-0.049,0.026,-0.058,-0.046,-0.031,-0.025,-0.056
-0.028,-0.05,-0.022,0.039,-0.003,-0.036,0.022,-0.062,-0.063,-0.041,-0.025,-0.061
-0.051,-0.044,0.007,0.047,-0.029,-0.018,0.02,-0.064,-0.065,-0.046,-0.03,-0.064
-0.043,-0.039,0.004,0.04,-0.023,-0.017,0.018,-0.072,-0.073,-0.056,-0.04,-0.069
-0.035,-0.03,0.005,0.032,-0.02,-0.012,0.011,-0.089,-0.086,-0.07,-0.047,-0.076
-0.027,-0.019,0.007,0.023,-0.017,-0.006,0.006,-0.096,-0.093,-0.07,-0.058,-0.082
-0.047,-0.011,0.036,0.029,-0.041,0.012,0.001,-0.102,-0.102,-0.07,-0.062,-0.085
-0.047,-0.007,0.039,0.027,-0.043,0.016,-0.006,-0.109,-0.104,-0.069,-0.059,-0.085
-0.035,-0.006,0.03,0.02,-0.032,0.012,-0.009,-0.11,-0.1,-0.081,-0.06,-0.085
-0.047,-0.022,0.025,0.034,-0.036,0.002,-0.006,-0.11,-0.098,-0.092,-0.06,-0.085
-0.052,-0.035,0.017,0.043,-0.034,-0.009,-0.004,-0.109,-0.094,-0.089,-0.06,-0.085
-0.046,-0.034,0.013,0.04,-0.029,-0.01,-0.002,-0.111,-0.092,-0.088,-0.061,-0.081
-0.039,-0.038,0.001,0.038,-0.02,-0.018,0.002,-0.108,-0.088,-0.084,-0.065,-0.08
-0.051,-0.044,0.008,0.048,-0.029,-0.018,-0.005,-0.106,-0.092,-0.085,-0.065,-0.08
-0.039,-0.046,-0.008,0.043,-0.015,-0.027,-0.016,-0.103,-0.104,-0.081,-0.065,-0.075
-0.051,-0.043,0.009,0.047,-0.029,-0.017,-0.013,-0.11,-0.099,-0.08,-0.062,-0.075
-0.07,-0.052,0.017,0.061,-0.043,-0.017,-0.008,-0.121,-0.093,-0.078,-0.059,-0.075
-0.025,-0.075,-0.051,0.05,0.013,-0.063,-0.005,-0.108,-0.089,-0.074,-0.06,-0.075
-0.014,-0.075,-0.061,0.045,0.024,-0.068,0.0,-0.097,-0.079,-0.074,-0.06,-0.075
-0.02,-0.075,-0.055,0.048,0.018,-0.065,0.005,-0.095,-0.087,-0.069,-0.06,-0.075
0.007,-0.075,-0.082,0.034,0.045,-0.078,0.009,-0.091,-0.1,-0.071,-0.059,-0.075
0.015,-0.077,-0.092,0.031,0.054,-0.084,0.014,-0.09,-0.094,-0.067,-0.054,-0.075
-0.011,-0.104,-0.094,0.058,0.042,-0.099,0.018,-0.085,-0.088,-0.065,-0.049,-0.071
-0.024,-0.111,-0.088,0.068,0.032,-0.1,0.023,-0.085,-0.083,-0.065,-0.045,-0.069
-0.022,-0.104,-0.082,0.063,0.031,-0.093,0.028,-0.09,-0.077,-0.061,-0.04,-0.07
-0.027,-0.104,-0.077,0.066,0.025,-0.09,0.026,-0.09,-0.074,-0.059,-0.035,-0.07
-0.025,-0.097,-0.072,0.061,0.024,-0.084,0.023,-0.091,-0.083,-0.056,-0.04,-0.07
-0.033,-0.096,-0.063,0.065,0.016,-0.08,0.021,-0.088,-0.091,-0.054,-0.049,-0.069
-0.013,-0.09,-0.077,0.052,0.032,-0.084,0.017,-0.101,-0.089,-0.049,-0.047,-0.065
-0.003,-0.092,-0.09,0.047,0.044,-0.091,0.014,-0.11,-0.09,-0.055,-0.045,-0.065
-0.012,-0.112,-0.1,0.062,0.044,-0.106,0.018,-0.1,-0.09,-0.066,-0.045,-0.065
-0.003,-0.121,-0.118,0.062,0.057,-0.119,0.023,-0.095,-0.089,-0.059,-0.041,-0.065
-0.013,-0.122,-0.109,0.068,0.048,-0.115,0.019,-0.087,-0.087,-0.055,-0.039,-0.065
-0.016,-0.125,-0.109,0.071,0.047,-0.117,0.021,-0.082,-0.083,-0.052,-0.04,-0.061
-0.027,-0.129,-0.101,0.078,0.037,-0.115,0.019,-0.077,-0.081,-0.045,-0.034,-0.055
-0.027,-0.13,-0.103,0.079,0.038,-0.116,0.02,-0.079,-0.078,-0.05,-0.028,-0.05
-0.039,-0.131,-0.092,0.085,0.027,-0.111,0.02,-0.093,-0.075,-0.062,-0.021,-0.045
-0.033,-0.13,-0.097,0.082,0.032,-0.113,0.014,-0.082,-0.073,-0.046,-0.014,-0.039
0.005,-0.155,-0.16,0.075,0.083,-0.157,0.051,-0.047,-0.033,-0.004,-0.008,-0.035
-0.006,-0.173,-0.167,0.09,0.081,-0.17,0.079,-0.02,-0.017,0.005,0.002,-0.025
0.016,-0.127,-0.143,0.056,0.08,-0.135,0.073,0.001,-0.032,0.004,0.007,-0.019
0.05,-0.095,-0.145,0.023,0.097,-0.12,0.077,0.031,0.01,0.03,0.041,-0.003
0.047,-0.091,-0.138,0.022,0.092,-0.114,0.071,0.055,0.039,0.046,0.069,0.016
0.034,-0.088,-0.121,0.028,0.077,-0.104,0.056,0.04,0.02,0.043,0.056,0.012
0.035,-0.102,-0.137,0.034,0.086,-0.119,0.044,-0.001,-0.013,0.012,0.038,0.007
0.029,-0.118,-0.147,0.045,0.088,-0.132,0.032,-0.031,-0.058,-0.025,0.014,-0.009
0.002,-0.123,-0.124,0.061,0.063,-0.123,0.024,-0.057,-0.075,-0.047,-0.022,-0.04
0.006,-0.116,-0.122,0.055,0.064,-0.119,0.015,-0.081,-0.094,-0.065,-0.06,-0.064
-0.011,-0.132,-0.122,0.072,0.056,-0.127,0.006,-0.081,-0.119,-0.088,-0.081,-0.073
-0.04,-0.144,-0.104,0.092,0.032,-0.123,0.006,-0.088,-0.122,-0.097,-0.081,-0.079
-0.019,-0.142,-0.123,0.081,0.052,-0.133,-0.001,-0.082,-0.124,-0.088,-0.077,-0.077
-0.03,-0.135,-0.105,0.082,0.038,-0.119,0.004,-0.087,-0.137,-0.096,-0.085,-0.085
-0.057,-0.131,-0.074,0.094,0.008,-0.102,-0.005,-0.095,-0.115,-0.078,-0.072,-0.09
-0.087,-0.145,-0.058,0.117,-0.014,-0.101,0.074,-0.021,-0.092,-0.093,-0.103,-0.127
-0.105,-0.139,-0.034,0.122,-0.035,-0.086,0.221,0.196,0.041,-0.028,-0.108,-0.169
0.07,0.187,0.116,-0.129,-0.023,0.151,0.061,0.283,0.429,0.417,0.324,0.161
0.451,0.846,0.394,-0.649,0.028,0.62,-0.377,0.039,1.089,1.392,1.374,0.999
0.565,0.918,0.353,-0.742,0.106,0.635,-0.563,-0.184,1.295,1.725,1.781,1.384
0.209,0.464,0.255,-0.337,-0.023,0.359,-0.412,-0.551,0.322,0.613,0.819,0.785
-0.021,0.182,0.203,-0.081,-0.112,0.193,-0.31,-0.741,-0.366,-0.138,0.117,0.244
-0.015,0.038,0.054,-0.012,-0.035,0.046,-0.202,-0.403,-0.208,-0.089,0.054,0.095
-0.032,-0.001,0.031,0.016,-0.031,0.014,-0.053,-0.144,-0.106,-0.049,0.007,0.026
-0.048,-0.034,0.014,0.041,-0.03,-0.01,-0.018,-0.05,-0.065,-0.023,-0.007,0.005
-0.045,-0.053,-0.008,0.049,-0.018,-0.03,-0.008,-0.022,-0.068,-0.052,-0.042,-0.049
-0.017,-0.063,-0.046,0.041,0.015,-0.055,0.012,-0.011,-0.057,-0.035,-0.032,-0.051
-0.021,-0.084,-0.062,0.053,0.021,-0.073,0.037,0.005,-0.046,-0.035,-0.038,-0.046
-0.024,-0.081,-0.058,0.053,0.017,-0.069,0.047,0.003,-0.044,-0.032,-0.042,-0.047
-0.017,-0.088,-0.071,0.053,0.027,-0.079,0.047,0.02,-0.029,-0.023,-0.033,-0.04
-0.022,-0.103,-0.081,0.062,0.03,-0.092,0.053,0.037,-0.027,-0.024,-0.029,-0.041
-0.021,-0.115,-0.094,0.069,0.036,-0.104,0.054,0.042,-0.015,-0.016,-0.02,-0.039
-0.02,-0.1,-0.08,0.06,0.03,-0.09,0.059,0.057,-0.014,-0.017,-0.014,-0.041
-0.015,-0.093,-0.078,0.054,0.032,-0.085,0.06,0.068,-0.007,-0.01,-0.012,-0.039
-0.016,-0.09,-0.074,0.054,0.029,-0.081,0.06,0.068,-0.005,-0.01,-0.03,-0.039
-0.016,-0.085,-0.069,0.05,0.027,-0.077,0.061,0.086,0.012,0.0,-0.027,-0.034
-0.012,-0.079,-0.068,0.046,0.028,-0.073,0.059,0.087,0.032,0.005,-0.014,-0.036
-0.001,-0.063,-0.063,0.033,0.031,-0.063,0.062,0.109,0.045,0.03,-0.004,-0.027
0.018,-0.043,-0.061,0.012,0.04,-0.052,0.065,0.146,0.071,0.058,0.018,-0.009
0.033,-0.023,-0.055,-0.005,0.044,-0.039,0.065,0.172,0.096,0.078,0.061,0.012
0.041,-0.003,-0.045,-0.019,0.043,-0.024,0.066,0.194,0.119,0.102,0.079,0.032
0.054,0.018,-0.036,-0.036,0.044,-0.009,0.064,0.236,0.155,0.121,0.088,0.046
0.07,0.045,-0.024,-0.057,0.047,0.01,0.071,0.298,0.211,0.175,0.133,0.082
0.085,0.076,-0.009,-0.08,0.047,0.033,0.07,0.346,0.264,0.217,0.164,0.106
0.071,0.102,0.031,-0.087,0.02,0.066,0.07,0.394,0.315,0.257,0.197,0.123
0.081,0.146,0.065,-0.114,0.008,0.105,0.094,0.446,0.38,0.324,0.26,0.168
0.116,0.16,0.043,-0.138,0.036,0.101,0.097,0.508,0.445,0.39,0.314,0.218
0.124,0.158,0.034,-0.141,0.045,0.096,0.088,0.557,0.502,0.45,0.368,0.264
0.14,0.207,0.067,-0.174,0.036,0.137,0.082,0.566,0.524,0.477,0.405,0.292
0.133,0.232,0.099,-0.183,0.017,0.165,0.072,0.53,0.509,0.474,0.404,0.309
0.131,0.205,0.075,-0.168,0.028,0.14,0.066,0.447,0.449,0.434,0.382,0.292
0.108,0.162,0.054,-0.135,0.027,0.108,0.059,0.334,0.344,0.343,0.317,0.23
0.044,0.095,0.051,-0.07,-0.003,0.073,0.054,0.221,0.232,0.23,0.206,0.153
0.01,0.026,0.016,-0.018,-0.003,0.02,0.048,0.134,0.125,0.127,0.109,0.074
-0.012,0.001,0.013,0.005,-0.012,0.007,0.042,0.067,0.05,0.051,0.038,0.016
-0.017,-0.02,-0.003,0.018,-0.006,-0.011,0.036,0.024,0.006,0.005,-0.014,-0.026
-0.013,-0.056,-0.043,0.035,0.015,-0.049,0.029,0.007,-0.029,-0.032,-0.039,-0.047
-0.011,-0.078,-0.067,0.045,0.028,-0.072,0.023,-0.008,-0.043,-0.048,-0.06,-0.052
0.012,-0.085,-0.097,0.037,0.055,-0.091,0.015,-0.034,-0.038,-0.043,-0.067,-0.058
0.026,-0.08,-0.106,0.028,0.066,-0.093,0.01,-0.042,-0.047,-0.05,-0.065,-0.06
0.009,-0.091,-0.1,0.042,0.055,-0.096,0.017,-0.039,-0.061,-0.061,-0.07,-0.063
-0.007,-0.097,-0.089,0.052,0.042,-0.093,0.023,-0.04,-0.06,-0.058,-0.071,-0.066
-0.017,-0.094,-0.077,0.056,0.031,-0.085,0.014,-0.048,-0.06,-0.055,-0.069,-0.069
-0.017,-0.092,-0.075,0.055,0.029,-0.084,0.006,-0.057,-0.061,-0.053,-0.075,-0.07
-0.022,-0.089,-0.067,0.056,0.022,-0.078,0.028,-0.049,-0.059,-0.048,-0.087,-0.065
-0.026,-0.09,-0.065,0.058,0.02,-0.077,0.043,-0.049,-0.063,-0.056,-0.083,-0.066
-0.029,-0.084,-0.055,0.057,0.013,-0.069,0.037,-0.043,-0.069,-0.062,-0.081,-0.064
-0.016,-0.078,-0.062,0.047,0.023,-0.069,0.036,-0.041,-0.076,-0.058,-0.077,-0.06
0.008,-0.071,-0.079,0.032,0.044,-0.075,0.032,-0.036,-0.079,-0.071,-0.075,-0.06
-0.011,-0.064,-0.054,0.038,0.022,-0.059,0.03,-0.025,-0.081,-0.083,-0.072,-0.06
0.007,-0.057,-0.064,0.025,0.036,-0.06,0.028,-0.046,-0.08,-0.076,-0.07,-0.061
0.016,-0.055,-0.072,0.02,0.044,-0.063,0.023,-0.063,-0.08,-0.075,-0.076,-0.059
0.001,-0.054,-0.055,0.027,0.029,-0.054,0.017,-0.057,-0.081,-0.072,-0.071,-0.061
0.007,-0.057,-0.063,0.025,0.035,-0.059,0.014,-0.054,-0.078,-0.067,-0.084,-0.065
0.0,-0.056,-0.056,0.028,0.028,-0.056,0.008,-0.074,-0.094,-0.092,-0.09,-0.066
0.001,-0.057,-0.058,0.029,0.03,-0.058,0.007,-0.088,-0.112,-0.113,-0.095,-0.06
-0.023,-0.074,-0.05,0.049,0.014,-0.062,0.02,-0.083,-0.11,-0.109,-0.117,-0.062
-0.014,-0.07,-0.056,0.042,0.021,-0.063,0.02,-0.087,-0.109,-0.109,-0.122,-0.086
-0.01,-0.062,-0.051,0.036,0.021,-0.056,0.016,-0.083,-0.126,-0.121,-0.125,-0.095
-0.028,-0.057,-0.028,0.043,0.0,-0.042,0.014,-0.092,-0.137,-0.132,-0.125,-0.094
-0.007,-0.048,-0.041,0.028,0.017,-0.044,0.01,-0.106,-0.134,-0.129,-0.125,-0.096
-0.005,-0.046,-0.041,0.026,0.018,-0.043,0.009,-0.105,-0.135,-0.13,-0.125,-0.099
-0.013,-0.05,-0.037,0.032,0.012,-0.044,0.005,-0.105,-0.135,-0.13,-0.125,-0.101
-0.019,-0.055,-0.036,0.037,0.009,-0.046,0.005,-0.106,-0.135,-0.13,-0.132,-0.1
-0.018,-0.051,-0.033,0.035,0.008,-0.042,0.003,-0.104,-0.131,-0.13,-0.137,-0.1
-0.011,-0.049,-0.038,0.03,0.014,-0.043,-0.001,-0.109,-0.13,-0.13,-0.14,-0.1
-0.001,-0.043,-0.042,0.022,0.021,-0.042,0.001,-0.122,-0.124,-0.129,-0.145,-0.1
0.001,-0.044,-0.045,0.022,0.023,-0.044,-0.004,-0.126,-0.13,-0.133,-0.145,-0.1
-0.004,-0.033,-0.03,0.019,0.013,-0.031,-0.01,-0.128,-0.151,-0.148,-0.146,-0.1
-0.046,-0.03,0.016,0.038,-0.031,-0.007,-0.016,-0.131,-0.149,-0.15,-0.15,-0.097
-0.089,-0.061,0.028,0.075,-0.058,-0.017,-0.019,-0.134,-0.151,-0.15,-0.15,-0.093
-0.059,-0.052,0.007,0.055,-0.033,-0.022,-0.014,-0.135,-0.155,-0.15,-0.148,-0.098
-0.023,-0.037,-0.014,0.03,-0.004,-0.025,-0.016,-0.129,-0.155,-0.15,-0.143,-0.106
-0.004,-0.056,-0.052,0.03,0.025,-0.054,-0.012,-0.124,-0.153,-0.149,-0.14,-0.102
-0.016,-0.077,-0.061,0.046,0.023,-0.069,-0.009,-0.118,-0.146,-0.144,-0.137,-0.099
-0.037,-0.088,-0.051,0.062,0.008,-0.069,-0.011,-0.112,-0.141,-0.139,-0.132,-0.096
-0.015,-0.094,-0.079,0.055,0.032,-0.086,-0.001,-0.106,-0.136,-0.134,-0.131,-0.091
-0.018,-0.106,-0.087,0.062,0.035,-0.096,-0.008,-0.101,-0.13,-0.13,-0.135,-0.089
-0.047,-0.11,-0.064,0.079,0.008,-0.087,-0.013,-0.096,-0.125,-0.124,-0.135,-0.085
-0.027,-0.11,-0.083,0.068,0.028,-0.096,-0.009,-0.09,-0.133,-0.133,-0.135,-0.086
-0.01,-0.112,-0.103,0.061,0.047,-0.107,-0.01,-0.085,-0.141,-0.141,-0.135,-0.082
-0.023,-0.115,-0.092,0.07,0.035,-0.104,-0.005,-0.081,-0.139,-0.139,-0.135,-0.08
-0.023,-0.115,-0.092,0.069,0.035,-0.103,-0.005,-0.078,-0.14,-0.14,-0.135,-0.079
-0.024,-0.109,-0.085,0.067,0.031,-0.097,-0.004,-0.076,-0.14,-0.14,-0.14,-0.087
-0.017,-0.097,-0.079,0.057,0.031,-0.088,0.001,-0.072,-0.141,-0.141,-0.138,-0.097
-0.011,-0.084,-0.073,0.048,0.031,-0.078,0.0,-0.07,-0.138,-0.136,-0.134,-0.09
-0.011,-0.077,-0.065,0.044,0.027,-0.071,0.003,-0.067,-0.128,-0.126,-0.132,-0.085
-0.002,-0.063,-0.061,0.033,0.029,-0.061,0.005,-0.054,-0.119,-0.117,-0.126,-0.079
-0.015,-0.058,-0.043,0.037,0.014,-0.051,0.005,-0.043,-0.111,-0.108,-0.126,-0.073
0.009,-0.026,-0.034,0.009,0.022,-0.03,0.002,-0.032,-0.081,-0.078,-0.094,-0.048
0.037,0.021,-0.016,-0.029,0.027,0.002,-0.004,-0.026,-0.043,-0.059,-0.059,-0.025
0.033,0.002,-0.031,-0.018,0.032,-0.014,-0.008,-0.018,-0.041,-0.059,-0.067,-0.026
0.032,-0.04,-0.072,0.004,0.052,-0.055,-0.013,-0.021,-0.064,-0.063,-0.078,-0.023
0.01,-0.066,-0.076,0.028,0.043,-0.071,-0.017,-0.061,-0.105,-0.094,-0.091,-0.031
0.024,-0.076,-0.099,0.026,0.062,-0.087,-0.02,-0.081,-0.137,-0.129,-0.127,-0.047
0.004,-0.096,-0.1,0.046,0.053,-0.098,-0.014,-0.091,-0.149,-0.149,-0.149,-0.077
-0.028,-0.128,-0.1,0.078,0.036,-0.113,-0.013,-0.107,-0.162,-0.155,-0.155,-0.099
-0.03,-0.126,-0.096,0.079,0.033,-0.11,-0.01,-0.107,-0.172,-0.173,-0.178,-0.101
-0.04,-0.134,-0.094,0.087,0.027,-0.113,-0.006,-0.105,-0.173,-0.173,-0.179,-0.098
-0.039,-0.137,-0.098,0.088,0.03,-0.117,-0.007,-0.104,-0.166,-0.176,-0.182,-0.101
-0.05,-0.14,-0.09,0.096,0.02,-0.114,0.009,-0.107,-0.158,-0.175,-0.177,-0.099
-0.047,-0.157,-0.11,0.102,0.032,-0.133,0.026,-0.07,-0.145,-0.172,-0.194,-0.11
-0.078,-0.133,-0.056,0.106,-0.011,-0.094,0.145,0.083,-0.055,-0.151,-0.222,-0.198
-0.013,-0.041,-0.028,0.027,0.008,-0.035,0.172,0.31,0.223,0.099,-0.037,-0.094
0.307,0.521,0.214,-0.414,0.046,0.367,-0.203,0.145,0.736,0.882,0.826,0.617
0.517,0.991,0.473,-0.754,0.022,0.732,-0.587,-0.327,1.139,1.66,1.745,1.357
0.272,0.661,0.39,-0.467,-0.059,0.525,-0.494,-0.672,0.577,0.986,1.121,0.979
-0.028,0.294,0.322,-0.133,-0.176,0.308,-0.26,-0.868,-0.35,-0.144,0.047,0.224
-0.068,0.105,0.174,-0.019,-0.121,0.139,-0.221,-0.681,-0.447,-0.288,-0.133,0.034
-0.053,0.015,0.068,0.019,-0.061,0.041,-0.128,-0.336,-0.233,-0.196,-0.15,-0.023
-0.031,0.006,0.038,0.012,-0.034,0.022,-0.049,-0.14,-0.145,-0.135,-0.153,-0.043
-0.026,-0.052,-0.026,0.039,0.0,-0.038,-0.043,-0.077,-0.124,-0.116,-0.145,-0.071
-0.028,-0.061,-0.033,0.045,0.003,-0.047,-0.015,-0.08,-0.126,-0.133,-0.156,-0.092
0.002,-0.086,-0.088,0.043,0.045,-0.087,-0.012,-0.056,-0.105,-0.118,-0.145,-0.079
0.008,-0.091,-0.099,0.042,0.054,-0.095,-0.007,-0.052,-0.106,-0.13,-0.151,-0.09
0.003,-0.084,-0.087,0.041,0.046,-0.086,-0.004,-0.039,-0.094,-0.121,-0.137,-0.082
0.012,-0.085,-0.097,0.036,0.055,-0.091,-0.002,-0.03,-0.09,-0.127,-0.139,-0.087
-0.016,-0.077,-0.06,0.047,0.022,-0.068,0.007,-0.023,-0.082,-0.117,-0.131,-0.078
-0.002,-0.077,-0.075,0.04,0.037,-0.076,0.022,-0.015,-0.076,-0.107,-0.128,-0.073
0.032,-0.07,-0.102,0.019,0.067,-0.086,0.014,-0.009,-0.069,-0.098,-0.123,-0.067
0.026,-0.066,-0.092,0.02,0.059,-0.078,0.008,0.003,-0.055,-0.09,-0.116,-0.061
0.035,-0.059,-0.094,0.012,0.065,-0.076,0.028,0.014,-0.042,-0.081,-0.104,-0.054
0.018,-0.054,-0.072,0.019,0.045,-0.063,0.031,0.027,-0.027,-0.068,-0.096,-0.047
0.034,-0.045,-0.079,0.005,0.057,-0.062,0.029,0.055,-0.01,-0.057,-0.088,-0.041
0.044,-0.035,-0.08,-0.004,0.062,-0.057,0.03,0.09,0.006,-0.044,-0.066,-0.022
0.047,-0.025,-0.072,-0.011,0.06,-0.048,0.03,0.117,0.033,-0.01,-0.035,0.002
0.057,-0.016,-0.073,-0.021,0.065,-0.044,0.029,0.157,0.07,0.031,0.002,0.022
0.062,-0.004,-0.066,-0.029,0.064,-0.035,0.023,0.184,0.103,0.055,0.013,0.031
0.085,0.02,-0.066,-0.052,0.075,-0.023,0.016,0.223,0.149,0.094,0.042,0.054
0.101,0.045,-0.056,-0.073,0.078,-0.005,0.009,0.276,0.199,0.14,0.082,0.091
0.128,0.084,-0.043,-0.106,0.086,0.02,0.002,0.324,0.259,0.195,0.13,0.13
0.146,0.114,-0.032,-0.129,0.088,0.04,-0.004,0.382,0.328,0.266,0.202,0.178
0.168,0.144,-0.024,-0.156,0.095,0.06,-0.002,0.417,0.38,0.324,0.249,0.22
0.164,0.165,0.0,-0.165,0.082,0.082,0.001,0.439,0.432,0.372,0.304,0.264
0.181,0.164,-0.017,-0.172,0.099,0.073,-0.001,0.452,0.478,0.419,0.351,0.306
0.205,0.184,-0.022,-0.194,0.113,0.081,0.0,0.44,0.487,0.437,0.375,0.318
0.168,0.185,0.017,-0.177,0.075,0.101,0.0,0.38,0.45,0.419,0.366,0.306
0.146,0.169,0.023,-0.158,0.061,0.096,0.001,0.28,0.348,0.333,0.292,0.262
0.092,0.141,0.049,-0.117,0.021,0.095,0.018,0.189,0.238,0.217,0.186,0.18
0.051,0.08,0.029,-0.066,0.01,0.054,0.027,0.097,0.123,0.098,0.065,0.087
0.047,0.018,-0.029,-0.032,0.038,-0.005,0.024,0.034,0.018,-0.011,-0.036,0.011
0.021,-0.033,-0.054,0.006,0.037,-0.043,0.025,-0.006,-0.019,-0.052,-0.083,-0.025
0.026,-0.058,-0.084,0.016,0.055,-0.071,0.02,-0.049,-0.063,-0.089,-0.111,-0.044
0.0,-0.082,-0.081,0.041,0.041,-0.081,0.02,-0.049,-0.082,-0.108,-0.124,-0.061
-0.003,-0.089,-0.086,0.046,0.042,-0.087,0.019,-0.054,-0.083,-0.117,-0.136,-0.07
0.031,-0.075,-0.106,0.022,0.069,-0.09,0.015,-0.068,-0.098,-0.137,-0.142,-0.076
0.0,-0.097,-0.097,0.049,0.049,-0.097,0.013,-0.062,-0.092,-0.129,-0.138,-0.074
-0.019,-0.113,-0.094,0.066,0.038,-0.103,0.01,-0.062,-0.092,-0.126,-0.144,-0.078
-0.02,-0.108,-0.088,0.065,0.034,-0.098,0.007,-0.056,-0.086,-0.122,-0.159,-0.08
-0.024,-0.106,-0.082,0.066,0.029,-0.094,0.004,-0.057,-0.086,-0.115,-0.157,-0.08
-0.026,-0.104,-0.078,0.065,0.027,-0.091,0.01,-0.051,-0.082,-0.118,-0.15,-0.077
-0.031,-0.102,-0.071,0.066,0.021,-0.087,0.013,-0.05,-0.078,-0.127,-0.149,-0.074
-0.025,-0.093,-0.068,0.059,0.022,-0.08,0.006,-0.078,-0.099,-0.131,-0.141,-0.075
-0.026,-0.089,-0.063,0.058,0.019,-0.075,0.007,-0.081,-0.101,-0.129,-0.141,-0.075
-0.02,-0.079,-0.059,0.05,0.02,-0.069,0.019,-0.079,-0.1,-0.134,-0.146,-0.076
-0.023,-0.077,-0.055,0.051,0.016,-0.066,0.02,-0.081,-0.101,-0.135,-0.151,-0.074
-0.025,-0.079,-0.054,0.053,0.014,-0.066,0.015,-0.079,-0.1,-0.135,-0.155,-0.07
-0.019,-0.081,-0.062,0.05,0.022,-0.071,0.013,-0.081,-0.101,-0.135,-0.152,-0.068
-0.018,-0.079,-0.061,0.049,0.021,-0.07,0.008,-0.079,-0.098,-0.137,-0.147,-0.065
0.007,-0.077,-0.084,0.035,0.046,-0.08,0.005,-0.095,-0.121,-0.141,-0.144,-0.062
-0.007,-0.115,-0.108,0.061,0.051,-0.112,0.009,-0.101,-0.132,-0.14,-0.141,-0.059
-0.019,-0.143,-0.124,0.082,0.053,-0.134,0.016,-0.099,-0.129,-0.14,-0.136,-0.064
-0.002,-0.153,-0.15,0.078,0.074,-0.151,0.02,-0.101,-0.131,-0.14,-0.136,-0.066
-0.015,-0.163,-0.147,0.089,0.066,-0.155,0.027,-0.099,-0.129,-0.139,-0.141,-0.069
-0.003,-0.161,-0.158,0.082,0.077,-0.159,0.029,-0.101,-0.131,-0.141,-0.145,-0.072
0.005,-0.161,-0.166,0.078,0.085,-0.163,0.025,-0.099,-0.129,-0.138,-0.149,-0.074
-0.005,-0.16,-0.154,0.082,0.075,-0.157,0.025,-0.101,-0.131,-0.143,-0.154,-0.075
-0.019,-0.158,-0.139,0.089,0.061,-0.148,0.022,-0.098,-0.128,-0.144,-0.155,-0.065
-0.009,-0.154,-0.145,0.082,0.068,-0.149,0.02,-0.105,-0.137,-0.151,-0.155,-0.075
0.017,-0.156,-0.173,0.07,0.095,-0.164,0.019,-0.116,-0.151,-0.166,-0.155,-0.092
0.003,-0.16,-0.163,0.079,0.083,-0.162,0.028,-0.115,-0.15,-0.165,-0.155,-0.086
-0.005,-0.169,-0.164,0.087,0.08,-0.166,0.032,-0.115,-0.149,-0.165,-0.153,-0.083
-0.023,-0.176,-0.153,0.1,0.065,-0.164,0.029,-0.115,-0.145,-0.165,-0.15,-0.08
-0.029,-0.185,-0.156,0.108,0.064,-0.17,0.03,-0.115,-0.145,-0.165,-0.148,-0.075
-0.031,-0.209,-0.178,0.12,0.073,-0.193,0.025,-0.112,-0.143,-0.163,-0.144,-0.073
-0.034,-0.212,-0.178,0.123,0.072,-0.195,0.025,-0.108,-0.139,-0.157,-0.142,-0.067
-0.006,-0.206,-0.2,0.107,0.097,-0.203,0.025,-0.102,-0.14,-0.152,-0.139,-0.062
-0.023,-0.224,-0.201,0.124,0.089,-0.212,0.035,-0.1,-0.136,-0.149,-0.137,-0.059
-0.008,-0.241,-0.233,0.125,0.112,-0.237,0.046,-0.092,-0.133,-0.143,-0.134,-0.053
0.016,-0.24,-0.256,0.112,0.136,-0.248,0.045,-0.092,-0.131,-0.142,-0.131,-0.051
-0.025,-0.239,-0.214,0.132,0.095,-0.226,0.045,-0.107,-0.127,-0.155,-0.128,-0.06
-0.028,-0.241,-0.213,0.134,0.093,-0.227,0.045,-0.091,-0.125,-0.155,-0.125,-0.06
0.019,-0.238,-0.257,0.11,0.138,-0.247,0.045,-0.089,-0.122,-0.15,-0.126,-0.059
0.019,-0.245,-0.264,0.113,0.142,-0.254,0.042,-0.081,-0.118,-0.148,-0.13,-0.057
-0.004,-0.256,-0.252,0.13,0.124,-0.254,0.04,-0.048,-0.112,-0.146,-0.13,-0.054
0.001,-0.248,-0.249,0.124,0.125,-0.248,0.04,-0.037,-0.112,-0.144,-0.129,-0.056
-0.01,-0.237,-0.227,0.124,0.109,-0.232,0.037,-0.051,-0.123,-0.158,-0.14,-0.057
-0.018,-0.228,-0.21,0.123,0.096,-0.219,0.034,-0.051,-0.123,-0.156,-0.14,-0.055
0.0,-0.206,-0.205,0.103,0.103,-0.205,0.037,-0.024,-0.11,-0.128,-0.119,-0.051
0.022,-0.174,-0.196,0.076,0.109,-0.185,0.038,-0.017,-0.105,-0.123,-0.112,-0.048
0.041,-0.135,-0.176,0.047,0.108,-0.155,0.042,-0.017,-0.085,-0.121,-0.113,-0.044
0.022,-0.118,-0.14,0.048,0.081,-0.129,0.043,0.0,-0.048,-0.123,-0.082,-0.041
0.016,-0.121,-0.137,0.052,0.077,-0.129,0.015,0.005,-0.058,-0.127,-0.065,-0.04
0.053,-0.12,-0.173,0.034,0.113,-0.146,0.0,-0.021,-0.08,-0.122,-0.089,-0.04
0.035,-0.12,-0.155,0.043,0.095,-0.137,-0.003,-0.062,-0.122,-0.136,-0.108,-0.04
0.013,-0.12,-0.134,0.054,0.073,-0.126,-0.012,-0.083,-0.146,-0.147,-0.12,-0.043
0.017,-0.121,-0.138,0.052,0.077,-0.129,-0.017,-0.092,-0.15,-0.176,-0.149,-0.072
0.005,-0.135,-0.14,0.065,0.073,-0.137,-0.025,-0.107,-0.183,-0.204,-0.171,-0.097
0.015,-0.134,-0.148,0.06,0.082,-0.141,-0.021,-0.122,-0.191,-0.21,-0.183,-0.1
-0.006,-0.126,-0.12,0.066,0.057,-0.123,-0.014,-0.137,-0.199,-0.213,-0.189,-0.106
-0.021,-0.131,-0.11,0.076,0.045,-0.12,-0.008,-0.15,-0.203,-0.225,-0.197,-0.127
-0.018,-0.113,-0.095,0.066,0.039,-0.104,0.0,-0.156,-0.204,-0.233,-0.206,-0.143
-0.042,-0.133,-0.091,0.088,0.025,-0.112,0.009,-0.131,-0.172,-0.207,-0.19,-0.122
-0.044,-0.125,-0.081,0.085,0.019,-0.103,0.114,-0.035,-0.145,-0.231,-0.248,-0.186
-0.035,-0.094,-0.058,0.065,0.012,-0.076,0.211,0.232,0.073,-0.072,-0.165,-0.169
0.17,0.374,0.203,-0.272,-0.017,0.288,-0.071,0.127,0.528,0.559,0.497,0.342
0.476,1.04,0.564,-0.759,-0.044,0.802,-0.545,-0.342,1.076,1.514,1.562,1.168
0.356,0.842,0.486,-0.599,-0.066,0.664,-0.574,-0.563,0.933,1.392,1.514,1.21
0.036,0.362,0.326,-0.199,-0.145,0.343,-0.348,-0.807,-0.129,0.114,0.365,0.45
-0.053,0.141,0.194,-0.044,-0.124,0.167,-0.265,-0.749,-0.504,-0.321,-0.102,0.078
-0.042,0.041,0.082,0.0,-0.062,0.061,-0.17,-0.38,-0.27,-0.213,-0.116,0.007
-0.033,0.036,0.069,-0.002,-0.051,0.052,-0.076,-0.175,-0.193,-0.211,-0.152,-0.065
-0.046,-0.035,0.011,0.041,-0.028,-0.012,-0.031,-0.072,-0.139,-0.156,-0.129,-0.069
-0.021,-0.05,-0.029,0.036,0.004,-0.039,-0.008,-0.056,-0.152,-0.188,-0.148,-0.09
-0.01,-0.06,-0.051,0.035,0.021,-0.055,0.002,-0.042,-0.133,-0.164,-0.139,-0.087
-0.025,-0.068,-0.043,0.047,0.01,-0.056,0.023,-0.046,-0.132,-0.164,-0.147,-0.09
-0.027,-0.062,-0.035,0.045,0.004,-0.048,0.031,-0.046,-0.125,-0.154,-0.134,-0.083
-0.038,-0.067,-0.029,0.053,-0.004,-0.048,0.029,-0.027,-0.115,-0.146,-0.13,-0.081
-0.007,-0.074,-0.067,0.04,0.031,-0.07,0.031,-0.01,-0.11,-0.144,-0.123,-0.077
-0.003,-0.088,-0.085,0.046,0.042,-0.087,0.029,-0.001,-0.095,-0.134,-0.115,-0.073
-0.008,-0.069,-0.062,0.039,0.027,-0.065,0.031,0.001,-0.089,-0.133,-0.111,-0.071
-0.004,-0.055,-0.05,0.03,0.023,-0.052,0.043,0.007,-0.074,-0.123,-0.099,-0.067
-0.015,-0.042,-0.027,0.029,0.006,-0.034,0.047,0.011,-0.064,-0.121,-0.094,-0.065
-0.021,-0.027,-0.006,0.024,-0.007,-0.016,0.043,0.034,-0.052,-0.103,-0.083,-0.061
-0.011,-0.014,-0.003,0.012,-0.004,-0.008,0.042,0.043,-0.042,-0.082,-0.071,-0.06
0.022,0.0,-0.022,-0.011,0.022,-0.011,0.039,0.062,-0.022,-0.066,-0.057,-0.053
0.022,0.017,-0.005,-0.019,0.013,0.006,0.041,0.093,0.011,-0.054,-0.043,-0.034
0.016,0.037,0.021,-0.027,-0.003,0.029,0.04,0.119,0.035,-0.027,-0.025,-0.013
0.031,0.069,0.038,-0.05,-0.004,0.053,0.039,0.154,0.072,0.016,0.002,0.007
0.024,0.091,0.067,-0.058,-0.022,0.079,0.06,0.2,0.127,0.053,0.037,0.028
0.019,0.103,0.084,-0.061,-0.032,0.093,0.072,0.25,0.182,0.1,0.083,0.051
0.051,0.128,0.078,-0.09,-0.014,0.103,0.072,0.3,0.239,0.151,0.128,0.082
0.075,0.157,0.082,-0.116,-0.003,0.12,0.076,0.355,0.302,0.216,0.178,0.121
0.095,0.2,0.105,-0.147,-0.006,0.153,0.07,0.407,0.368,0.282,0.24,0.167
0.127,0.246,0.12,-0.187,0.003,0.183,0.067,0.442,0.418,0.327,0.292,0.201
0.133,0.292,0.158,-0.213,-0.013,0.225,0.064,0.456,0.456,0.372,0.334,0.235
0.138,0.322,0.185,-0.23,-0.024,0.253,0.059,0.445,0.464,0.388,0.355,0.259
0.131,0.315,0.183,-0.224,-0.026,0.249,0.056,0.413,0.438,0.379,0.358,0.264
0.094,0.269,0.176,-0.182,-0.041,0.222,0.051,0.335,0.368,0.324,0.318,0.24
0.057,0.209,0.151,-0.133,-0.047,0.18,0.04,0.217,0.243,0.207,0.214,0.158
0.027,0.16,0.133,-0.094,-0.054,0.146,0.027,0.12,0.123,0.094,0.109,0.077
0.006,0.121,0.115,-0.063,-0.055,0.118,0.02,0.046,0.024,-0.01,0.019,0.015
-0.01,0.09,0.1,-0.04,-0.055,0.094,0.017,-0.011,-0.057,-0.085,-0.048,-0.042
-0.014,0.061,0.074,-0.024,-0.044,0.067,0.013,-0.041,-0.1,-0.122,-0.084,-0.071
-0.023,0.033,0.056,-0.005,-0.04,0.044,0.01,-0.048,-0.105,-0.134,-0.095,-0.076
-0.033,0.018,0.051,0.007,-0.042,0.035,0.005,-0.055,-0.107,-0.141,-0.099,-0.074
-0.033,0.013,0.046,0.01,-0.04,0.029,0.008,-0.067,-0.11,-0.146,-0.098,-0.075
-0.037,0.005,0.043,0.016,-0.04,0.024,0.01,-0.074,-0.118,-0.145,-0.094,-0.075
-0.038,-0.001,0.037,0.019,-0.037,0.018,0.01,-0.091,-0.127,-0.144,-0.096,-0.074
-0.042,-0.008,0.034,0.024,-0.038,0.013,0.021,-0.096,-0.124,-0.139,-0.091,-0.079
-0.042,-0.014,0.028,0.028,-0.035,0.007,0.026,-0.095,-0.126,-0.141,-0.09,-0.081
-0.052,-0.019,0.033,0.035,-0.042,0.007,0.028,-0.098,-0.124,-0.137,-0.089,-0.08
-0.034,-0.026,0.008,0.03,-0.021,-0.009,0.031,-0.102,-0.126,-0.136,-0.092,-0.079
-0.011,0.0,0.011,0.006,-0.011,0.005,0.034,-0.098,-0.12,-0.134,-0.105,-0.075
-0.037,0.032,0.069,0.003,-0.053,0.05,0.035,-0.094,-0.118,-0.138,-0.103,-0.075
-0.023,0.027,0.051,-0.002,-0.037,0.039,0.03,-0.11,-0.137,-0.163,-0.099,-0.075
-0.016,0.022,0.038,-0.003,-0.027,0.03,0.03,-0.094,-0.134,-0.16,-0.096,-0.075
-0.022,0.019,0.041,0.001,-0.032,0.03,0.029,-0.081,-0.122,-0.152,-0.09,-0.075
-0.025,0.012,0.037,0.006,-0.031,0.024,0.024,-0.079,-0.118,-0.146,-0.092,-0.076
-0.04,0.012,0.052,0.014,-0.046,0.031,0.026,-0.07,-0.107,-0.141,-0.095,-0.074
-0.014,-0.011,0.003,0.013,-0.008,-0.004,0.022,-0.087,-0.107,-0.146,-0.095,-0.077
-0.026,-0.028,-0.003,0.027,-0.011,-0.015,0.02,-0.102,-0.121,-0.149,-0.095,-0.089
-0.039,-0.004,0.035,0.021,-0.037,0.015,0.017,-0.107,-0.118,-0.155,-0.099,-0.091
-0.047,0.0,0.047,0.024,-0.047,0.023,0.014,-0.112,-0.131,-0.154,-0.1,-0.089
-0.041,-0.015,0.026,0.028,-0.033,0.006,0.011,-0.109,-0.147,-0.157,-0.1,-0.086
-0.009,-0.017,-0.008,0.013,0.0,-0.012,0.009,-0.101,-0.144,-0.169,-0.1,-0.084
-0.023,-0.014,0.008,0.018,-0.015,-0.003,0.024,-0.124,-0.145,-0.171,-0.101,-0.087
-0.048,-0.009,0.039,0.028,-0.043,0.015,0.032,-0.138,-0.148,-0.168,-0.115,-0.093
-0.051,-0.007,0.044,0.029,-0.047,0.018,0.024,-0.134,-0.152,-0.167,-0.121,-0.096
-0.043,-0.002,0.041,0.022,-0.041,0.019,0.014,-0.135,-0.157,-0.162,-0.119,-0.094
-0.058,0.0,0.058,0.028,-0.058,0.029,0.008,-0.137,-0.159,-0.171,-0.123,-0.097
-0.058,-0.011,0.047,0.034,-0.052,0.017,-0.005,-0.149,-0.161,-0.19,-0.125,-0.105
-0.064,-0.021,0.043,0.042,-0.053,0.011,-0.001,-0.143,-0.159,-0.19,-0.125,-0.105
-0.071,-0.024,0.047,0.047,-0.058,0.011,0.025,-0.135,-0.161,-0.191,-0.121,-0.106
-0.068,-0.029,0.04,0.048,-0.054,0.005,0.025,-0.13,-0.159,-0.195,-0.119,-0.11
-0.063,-0.032,0.03,0.047,-0.046,-0.001,0.025,-0.124,-0.157,-0.195,-0.12,-0.11
-0.059,-0.039,0.02,0.049,-0.039,-0.01,0.021,-0.126,-0.168,-0.193,-0.115,-0.108
-0.056,-0.047,0.009,0.051,-0.033,-0.018,0.02,-0.121,-0.165,-0.186,-0.116,-0.097
-0.028,-0.061,-0.033,0.045,0.003,-0.047,0.018,-0.114,-0.146,-0.181,-0.113,-0.088
-0.028,-0.064,-0.036,0.046,0.004,-0.05,0.019,-0.107,-0.14,-0.176,-0.108,-0.089
-0.013,-0.052,-0.039,0.033,0.013,-0.045,0.032,-0.101,-0.158,-0.17,-0.102,-0.091
-0.015,-0.043,-0.028,0.029,0.007,-0.035,0.026,-0.096,-0.167,-0.165,-0.096,-0.095
-0.034,-0.032,0.001,0.033,-0.017,-0.015,0.021,-0.095,-0.158,-0.176,-0.114,-0.092
-0.018,-0.029,-0.011,0.024,-0.004,-0.02,0.018,-0.095,-0.158,-0.181,-0.122,-0.09
-0.031,-0.031,0.0,0.031,-0.015,-0.015,0.012,-0.09,-0.151,-0.179,-0.119,-0.09
-0.048,-0.029,0.019,0.038,-0.034,-0.004,0.008,-0.091,-0.15,-0.18,-0.117,-0.09
-0.061,-0.039,0.022,0.05,-0.042,-0.008,0.005,-0.088,-0.169,-0.18,-0.114,-0.09
-0.05,-0.051,-0.001,0.05,-0.024,-0.026,0.003,-0.085,-0.174,-0.18,-0.115,-0.09
-0.031,-0.05,-0.02,0.041,-0.005,-0.035,-0.001,-0.085,-0.165,-0.175,-0.11,-0.09
-0.023,-0.049,-0.026,0.036,0.002,-0.037,-0.003,-0.083,-0.162,-0.172,-0.109,-0.09
-0.022,-0.045,-0.023,0.034,0.001,-0.034,-0.007,-0.079,-0.155,-0.168,-0.104,-0.09
-0.063,-0.044,0.018,0.054,-0.04,-0.013,0.008,-0.08,-0.148,-0.165,-0.113,-0.087
-0.063,-0.048,0.015,0.055,-0.039,-0.016,0.023,-0.106,-0.162,-0.159,-0.122,-0.099
-0.027,-0.05,-0.023,0.039,-0.002,-0.036,0.018,-0.118,-0.172,-0.169,-0.119,-0.107
-0.057,-0.05,0.007,0.054,-0.032,-0.022,0.016,-0.11,-0.169,-0.176,-0.118,-0.104
-0.091,-0.049,0.042,0.07,-0.066,-0.004,0.013,-0.11,-0.167,-0.174,-0.114,-0.102
-0.089,-0.051,0.038,0.07,-0.063,-0.006,0.01,-0.105,-0.164,-0.191,-0.115,-0.099
-0.07,-0.048,0.022,0.059,-0.046,-0.013,0.011,-0.103,-0.165,-0.191,-0.112,-0.1
-0.03,-0.053,-0.023,0.042,-0.003,-0.038,0.018,-0.115,-0.159,-0.18,-0.108,-0.094
-0.024,-0.067,-0.043,0.046,0.01,-0.055,0.024,-0.119,-0.152,-0.174,-0.106,-0.088
-0.032,-0.071,-0.038,0.051,0.003,-0.054,0.022,-0.112,-0.146,-0.165,-0.103,-0.084
-0.034,-0.074,-0.04,0.054,0.003,-0.056,0.02,-0.109,-0.14,-0.159,-0.101,-0.077
-0.036,-0.084,-0.048,0.06,0.006,-0.066,0.018,-0.103,-0.132,-0.153,-0.099,-0.073
-0.022,-0.079,-0.057,0.051,0.018,-0.068,0.015,-0.1,-0.136,-0.15,-0.093,-0.068
-0.011,-0.066,-0.055,0.039,0.022,-0.06,0.016,-0.091,-0.143,-0.143,-0.088,-0.062
-0.005,-0.053,-0.048,0.029,0.022,-0.05,0.04,-0.078,-0.128,-0.138,-0.081,-0.056
-0.005,-0.038,-0.033,0.022,0.014,-0.035,0.045,-0.067,-0.107,-0.131,-0.078,-0.049
0.006,-0.024,-0.03,0.009,0.018,-0.027,0.05,-0.052,-0.073,-0.119,-0.062,-0.046
-0.007,0.018,0.025,-0.006,-0.016,0.022,0.054,-0.05,-0.051,-0.113,-0.035,-0.044
0.009,0.041,0.032,-0.025,-0.012,0.036,0.017,-0.049,-0.05,-0.117,-0.028,-0.046
0.044,0.025,-0.018,-0.034,0.031,0.003,0.002,-0.053,-0.071,-0.112,-0.041,-0.044
-0.003,0.017,0.02,-0.008,-0.012,0.018,0.007,-0.073,-0.111,-0.123,-0.074,-0.045
-0.027,0.003,0.031,0.012,-0.029,0.017,0.002,-0.095,-0.131,-0.14,-0.085,-0.048
-0.047,-0.004,0.043,0.025,-0.045,0.019,-0.001,-0.124,-0.147,-0.147,-0.095,-0.061
-0.092,-0.021,0.071,0.056,-0.081,0.024,0.001,-0.131,-0.162,-0.176,-0.124,-0.093
-0.07,-0.044,0.026,0.057,-0.048,-0.008,-0.007,-0.135,-0.181,-0.195,-0.142,-0.108
-0.048,-0.058,-0.009,0.053,-0.019,-0.033,-0.011,-0.136,-0.186,-0.194,-0.144,-0.108
-0.083,-0.084,-0.002,0.083,-0.04,-0.042,-0.01,-0.133,-0.173,-0.193,-0.138,-0.109
-0.097,-0.083,0.014,0.09,-0.055,-0.034,0.006,-0.138,-0.181,-0.199,-0.136,-0.119
-0.064,-0.093,-0.029,0.079,-0.018,-0.061,0.016,-0.115,-0.161,-0.188,-0.128,-0.107
-0.096,-0.084,0.012,0.09,-0.054,-0.036,0.094,-0.044,-0.142,-0.197,-0.183,-0.156
-0.114,-0.062,0.053,0.088,-0.083,-0.004,0.225,0.193,0.029,-0.087,-0.138,-0.177
0.105,0.294,0.188,-0.2,-0.042,0.241,0.018,0.213,0.455,0.432,0.394,0.241
0.456,0.934,0.479,-0.695,-0.012,0.706,-0.439,-0.029,1.124,1.434,1.46,1.093
0.501,0.905,0.403,-0.703,0.049,0.654,-0.563,-0.218,1.199,1.577,1.674,1.332
0.153,0.459,0.305,-0.306,-0.076,0.382,-0.418,-0.624,0.125,0.365,0.63,0.674
-0.034,0.21,0.244,-0.089,-0.139,0.227,-0.335,-0.712,-0.452,-0.244,0.054,0.209
-0.035,0.076,0.111,-0.021,-0.073,0.093,-0.187,-0.335,-0.235,-0.167,0.024,0.093
-0.064,0.023,0.088,0.02,-0.076,0.055,-0.048,-0.113,-0.139,-0.16,-0.041,0.009
-0.069,-0.042,0.028,0.055,-0.048,-0.007,-0.006,-0.029,-0.112,-0.111,-0.06,-0.032
-0.09,-0.057,0.033,0.073,-0.061,-0.012,0.027,-0.004,-0.12,-0.134,-0.08,-0.05
-0.067,-0.056,0.011,0.062,-0.039,-0.023,0.024,0.01,-0.108,-0.128,-0.089,-0.067
-0.056,-0.057,-0.001,0.056,-0.027,-0.028,0.025,0.023,-0.103,-0.127,-0.11,-0.09
-0.043,-0.043,0.001,0.043,-0.022,-0.021,0.023,0.03,-0.1,-0.134,-0.101,-0.083
-0.044,-0.042,0.002,0.043,-0.023,-0.02,0.018,0.038,-0.093,-0.134,-0.1,-0.086
-0.062,-0.031,0.032,0.046,-0.047,0.001,0.024,0.042,-0.097,-0.137,-0.098,-0.085
-0.071,-0.027,0.043,0.049,-0.057,0.008,0.038,0.048,-0.094,-0.134,-0.094,-0.085
-0.072,-0.021,0.051,0.046,-0.061,0.015,0.04,0.058,-0.089,-0.13,-0.092,-0.082
-0.051,-0.016,0.035,0.033,-0.042,0.009,0.032,0.075,-0.072,-0.112,-0.079,-0.073
-0.062,-0.01,0.052,0.036,-0.057,0.021,0.033,0.085,-0.06,-0.101,-0.07,-0.068
-0.037,-0.005,0.033,0.021,-0.035,0.014,0.023,0.09,-0.045,-0.086,-0.059,-0.06
-0.026,-0.001,0.025,0.013,-0.025,0.012,0.032,0.097,-0.018,-0.069,-0.034,-0.054
-0.032,0.004,0.036,0.014,-0.035,0.02,0.066,0.123,0.005,-0.047,-0.016,-0.042
-0.003,0.005,0.008,-0.002,-0.006,0.007,0.073,0.142,0.037,-0.01,-0.013,-0.024
-0.009,0.011,0.02,-0.002,-0.014,0.015,0.074,0.17,0.071,0.018,0.015,0.008
-0.017,0.012,0.029,0.002,-0.023,0.021,0.08,0.209,0.106,0.038,0.046,0.032
0.005,0.021,0.015,-0.013,-0.005,0.018,0.08,0.253,0.15,0.069,0.08,0.05
0.011,0.033,0.022,-0.022,-0.005,0.027,0.098,0.314,0.2,0.119,0.119,0.077
0.0,0.063,0.064,-0.032,-0.032,0.063,0.113,0.375,0.261,0.172,0.155,0.098
0.026,0.1,0.074,-0.063,-0.024,0.086,0.11,0.427,0.313,0.219,0.195,0.131
0.057,0.126,0.069,-0.091,-0.007,0.098,0.105,0.473,0.378,0.276,0.25,0.172
0.078,0.194,0.116,-0.136,-0.019,0.154,0.103,0.509,0.427,0.326,0.3,0.202
0.104,0.251,0.147,-0.178,-0.022,0.199,0.097,0.53,0.46,0.365,0.335,0.233
0.097,0.266,0.169,-0.181,-0.037,0.217,0.097,0.528,0.485,0.395,0.379,0.265
0.091,0.27,0.18,-0.181,-0.045,0.225,0.081,0.477,0.477,0.396,0.385,0.275
0.114,0.257,0.143,-0.186,-0.015,0.199,0.048,0.375,0.405,0.341,0.343,0.255
0.097,0.201,0.104,-0.149,-0.003,0.152,0.037,0.26,0.287,0.245,0.269,0.197
0.032,0.131,0.099,-0.082,-0.034,0.115,0.031,0.155,0.179,0.144,0.171,0.122
0.016,0.07,0.053,-0.043,-0.019,0.061,0.024,0.073,0.081,0.049,0.087,0.055
-0.006,0.014,0.02,-0.004,-0.013,0.017,0.018,0.024,0.024,-0.01,0.029,0.005
-0.037,0.008,0.045,0.015,-0.042,0.026,0.011,-0.019,-0.029,-0.062,-0.015,-0.029
-0.053,-0.02,0.033,0.036,-0.043,0.007,0.01,-0.064,-0.075,-0.103,-0.052,-0.052
-0.072,-0.049,0.023,0.06,-0.047,-0.013,0.008,-0.077,-0.085,-0.11,-0.063,-0.059
-0.046,-0.031,0.015,0.039,-0.03,-0.008,0.02,-0.074,-0.091,-0.119,-0.059,-0.056
-0.064,-0.036,0.028,0.05,-0.046,-0.004,0.027,-0.078,-0.089,-0.12,-0.06,-0.055
-0.068,-0.041,0.027,0.054,-0.047,-0.007,0.02,-0.08,-0.087,-0.119,-0.06,-0.055
-0.039,-0.044,-0.005,0.042,-0.016,-0.024,0.02,-0.08,-0.084,-0.121,-0.06,-0.055
-0.022,-0.043,-0.021,0.032,0.0,-0.032,0.015,-0.076,-0.081,-0.119,-0.06,-0.055
-0.019,-0.035,-0.016,0.028,-0.001,-0.025,0.016,-0.075,-0.079,-0.121,-0.057,-0.053
-0.039,-0.032,0.007,0.036,-0.023,-0.013,0.029,-0.075,-0.074,-0.116,-0.054,-0.048
-0.05,-0.027,0.023,0.038,-0.036,-0.002,0.031,-0.07,-0.077,-0.115,-0.051,-0.047
-0.074,-0.022,0.052,0.048,-0.063,0.015,0.026,-0.071,-0.076,-0.115,-0.049,-0.055
-0.059,-0.02,0.039,0.04,-0.049,0.009,0.025,-0.069,-0.075,-0.11,-0.045,-0.053
-0.054,-0.028,0.026,0.041,-0.04,-0.001,0.02,-0.061,-0.074,-0.11,-0.046,-0.048
-0.049,-0.03,0.018,0.039,-0.034,-0.006,0.02,-0.053,-0.071,-0.111,-0.052,-0.047
-0.038,-0.03,0.008,0.034,-0.023,-0.011,0.025,-0.046,-0.069,-0.116,-0.056,-0.039
-0.062,-0.03,0.032,0.046,-0.047,0.001,0.025,-0.044,-0.075,-0.121,-0.06,-0.048
-0.061,-0.03,0.031,0.045,-0.046,0.0,0.026,-0.041,-0.091,-0.124,-0.063,-0.066
-0.049,-0.03,0.019,0.039,-0.034,-0.005,0.03,-0.039,-0.088,-0.129,-0.067,-0.062
-0.047,-0.032,0.016,0.039,-0.031,-0.008,0.03,-0.034,-0.097,-0.129,-0.07,-0.058
-0.051,-0.043,0.007,0.047,-0.028,-0.018,0.027,-0.037,-0.117,-0.131,-0.074,-0.056
-0.051,-0.048,0.004,0.049,-0.027,-0.022,0.025,-0.039,-0.114,-0.129,-0.075,-0.048
-0.048,-0.051,-0.003,0.05,-0.022,-0.027,0.021,-0.041,-0.116,-0.133,-0.075,-0.058
-0.05,-0.058,-0.008,0.054,-0.021,-0.033,0.019,-0.044,-0.114,-0.141,-0.075,-0.076
-0.054,-0.064,-0.01,0.059,-0.022,-0.037,0.016,-0.045,-0.116,-0.141,-0.075,-0.075
-0.051,-0.071,-0.02,0.062,-0.015,-0.046,0.015,-0.05,-0.113,-0.137,-0.075,-0.075
-0.044,-0.076,-0.032,0.06,-0.006,-0.053,0.031,-0.048,-0.105,-0.135,-0.074,-0.075
-0.028,-0.093,-0.065,0.061,0.019,-0.079,0.037,-0.069,-0.127,-0.154,-0.085,-0.075
-0.032,-0.101,-0.069,0.067,0.019,-0.085,0.031,-0.083,-0.137,-0.162,-0.091,-0.075
-0.042,-0.095,-0.053,0.069,0.006,-0.074,0.029,-0.079,-0.134,-0.159,-0.089,-0.075
-0.05,-0.093,-0.043,0.072,-0.003,-0.068,0.024,-0.08,-0.136,-0.157,-0.09,-0.074
-0.04,-0.088,-0.048,0.064,0.004,-0.068,0.021,-0.082,-0.134,-0.154,-0.09,-0.076
-0.009,-0.085,-0.076,0.047,0.034,-0.08,0.017,-0.094,-0.135,-0.156,-0.09,-0.09
-0.04,-0.082,-0.042,0.061,0.001,-0.062,0.015,-0.096,-0.134,-0.159,-0.093,-0.089
-0.057,-0.076,-0.018,0.067,-0.019,-0.046,0.015,-0.094,-0.135,-0.164,-0.096,-0.086
-0.065,-0.072,-0.007,0.068,-0.029,-0.039,0.011,-0.091,-0.134,-0.167,-0.096,-0.082
-0.056,-0.067,-0.012,0.062,-0.022,-0.039,0.009,-0.09,-0.136,-0.171,-0.102,-0.081
-0.041,-0.062,-0.022,0.052,-0.009,-0.042,0.011,-0.09,-0.133,-0.172,-0.096,-0.077
-0.09,-0.06,0.031,0.075,-0.06,-0.014,0.016,-0.093,-0.141,-0.179,-0.097,-0.072
-0.076,-0.06,0.016,0.068,-0.046,-0.021,0.015,-0.102,-0.16,-0.184,-0.12,-0.094
-0.04,-0.069,-0.029,0.055,-0.006,-0.048,0.011,-0.098,-0.156,-0.173,-0.118,-0.095
-0.05,-0.071,-0.02,0.061,-0.015,-0.045,0.009,-0.095,-0.151,-0.174,-0.114,-0.09
-0.076,-0.07,0.006,0.073,-0.041,-0.032,0.006,-0.092,-0.148,-0.176,-0.111,-0.089
-0.074,-0.068,0.007,0.071,-0.04,-0.03,0.005,-0.09,-0.142,-0.174,-0.106,-0.084
-0.047,-0.065,-0.018,0.056,-0.014,-0.041,0.005,-0.09,-0.14,-0.175,-0.104,-0.084
-0.047,-0.065,-0.019,0.056,-0.013,-0.042,0.005,-0.09,-0.14,-0.175,-0.1,-0.08
-0.06,-0.061,-0.001,0.061,-0.029,-0.031,0.005,-0.097,-0.14,-0.171,-0.1,-0.08
-0.065,-0.06,0.005,0.063,-0.035,-0.028,0.005,-0.101,-0.139,-0.17,-0.098,-0.08
-0.065,-0.058,0.007,0.061,-0.036,-0.025,0.004,-0.1,-0.141,-0.17,-0.095,-0.08
-0.07,-0.074,-0.004,0.072,-0.033,-0.038,0.009,-0.1,-0.138,-0.165,-0.095,-0.08
-0.039,-0.083,-0.044,0.062,0.002,-0.063,0.018,-0.1,-0.148,-0.166,-0.099,-0.079
-0.035,-0.069,-0.033,0.052,-0.001,-0.051,0.012,-0.1,-0.162,-0.163,-0.098,-0.081
-0.055,-0.061,-0.006,0.058,-0.024,-0.034,0.008,-0.095,-0.159,-0.17,-0.107,-0.085
-0.077,-0.054,0.023,0.065,-0.049,-0.015,0.004,-0.095,-0.16,-0.182,-0.122,-0.085
-0.082,-0.047,0.035,0.064,-0.058,-0.006,-0.001,-0.095,-0.16,-0.179,-0.119,-0.085
-0.058,-0.041,0.017,0.05,-0.038,-0.012,-0.005,-0.094,-0.16,-0.18,-0.118,-0.085
-0.074,-0.034,0.041,0.054,-0.057,0.003,-0.01,-0.096,-0.163,-0.18,-0.114,-0.085
-0.076,-0.028,0.048,0.052,-0.062,0.01,-0.008,-0.092,-0.167,-0.179,-0.115,-0.086
-0.074,-0.023,0.052,0.048,-0.063,0.014,-0.026,-0.09,-0.169,-0.184,-0.119,-0.09
-0.071,-0.017,0.054,0.044,-0.062,0.018,-0.044,-0.09,-0.175,-0.184,-0.121,-0.095
-0.047,-0.012,0.035,0.03,-0.041,0.011,-0.036,-0.084,-0.174,-0.188,-0.132,-0.092
-0.05,-0.005,0.045,0.027,-0.047,0.02,-0.036,-0.087,-0.169,-0.19,-0.128,-0.09
-0.047,-0.014,0.033,0.03,-0.039,0.009,-0.03,-0.06,-0.158,-0.18,-0.11,-0.09
-0.057,-0.027,0.03,0.042,-0.044,0.002,-0.02,-0.027,-0.147,-0.162,-0.095,-0.073
-0.037,-0.015,0.022,0.026,-0.029,0.003,-0.01,-0.023,-0.132,-0.143,-0.082,-0.055
0.003,0.02,0.017,-0.012,-0.007,0.018,0.023,0.011,-0.088,-0.127,-0.066,-0.045
-0.012,0.055,0.067,-0.022,-0.04,0.061,0.028,0.036,-0.071,-0.117,-0.051,-0.035
0.0,0.044,0.044,-0.022,-0.022,0.043,-0.009,0.008,-0.065,-0.102,-0.041,-0.035
-0.007,0.007,0.014,-0.001,-0.011,0.011,-0.034,-0.039,-0.085,-0.111,-0.049,-0.034
-0.001,-0.023,-0.022,0.012,0.011,-0.022,-0.034,-0.067,-0.144,-0.153,-0.083,-0.035
-0.016,-0.026,-0.01,0.021,-0.002,-0.018,-0.029,-0.085,-0.151,-0.164,-0.094,-0.044
-0.078,-0.031,0.047,0.054,-0.062,0.008,-0.024,-0.106,-0.155,-0.173,-0.103,-0.069
-0.044,-0.069,-0.025,0.057,-0.009,-0.047,-0.021,-0.126,-0.18,-0.199,-0.133,-0.098
-0.04,-0.076,-0.036,0.058,-0.002,-0.056,-0.014,-0.148,-0.198,-0.215,-0.151,-0.109
-0.072,-0.078,-0.006,0.075,-0.033,-0.042,-0.02,-0.135,-0.185,-0.206,-0.137,-0.102
-0.085,-0.085,0.0,0.085,-0.042,-0.042,-0.037,-0.132,-0.182,-0.213,-0.143,-0.108
-0.094,-0.081,0.014,0.087,-0.054,-0.033,-0.023,-0.128,-0.179,-0.208,-0.132,-0.103
-0.079,-0.101,-0.022,0.09,-0.028,-0.061,0.007,-0.094,-0.157,-0.209,-0.143,-0.11
-0.126,-0.119,0.007,0.123,-0.066,-0.056,0.131,0.049,-0.102,-0.2,-0.195,-0.183
-0.062,-0.01,0.052,0.035,-0.057,0.021,0.168,0.282,0.192,0.069,0.011,-0.055
0.287,0.57,0.283,-0.428,0.001,0.426,-0.205,0.166,0.777,0.884,0.875,0.636
0.563,0.996,0.433,-0.779,0.064,0.714,-0.561,-0.098,1.318,1.715,1.793,1.389
0.368,0.676,0.308,-0.522,0.03,0.492,-0.498,-0.412,0.775,1.081,1.273,1.126
0.019,0.313,0.293,-0.166,-0.138,0.303,-0.359,-0.765,-0.27,-0.059,0.257,0.413
-0.04,0.129,0.169,-0.044,-0.105,0.149,-0.275,-0.595,-0.38,-0.23,0.015,0.152
-0.045,0.06,0.105,-0.007,-0.076,0.082,-0.143,-0.259,-0.191,-0.179,-0.041,0.041
-0.071,0.037,0.108,0.017,-0.09,0.072,-0.066,-0.101,-0.133,-0.148,-0.052,-0.013
-0.04,-0.017,0.023,0.028,-0.032,0.003,-0.04,-0.045,-0.114,-0.137,-0.086,-0.043
-0.057,-0.022,0.035,0.039,-0.046,0.007,-0.031,-0.047,-0.132,-0.162,-0.108,-0.065
-0.062,-0.02,0.041,0.041,-0.051,0.01,-0.029,-0.034,-0.114,-0.164,-0.112,-0.077
-0.071,-0.016,0.055,0.043,-0.063,0.019,-0.023,-0.039,-0.121,-0.177,-0.13,-0.088
-0.095,-0.04,0.054,0.067,-0.074,0.007,-0.02,-0.029,-0.11,-0.156,-0.11,-0.074
-0.105,-0.048,0.057,0.076,-0.08,0.004,-0.014,-0.006,-0.111,-0.156,-0.114,-0.076
-0.093,-0.041,0.052,0.067,-0.072,0.005,-0.011,0.015,-0.104,-0.144,-0.103,-0.067
-0.103,-0.042,0.061,0.072,-0.082,0.009,-0.007,0.04,-0.094,-0.14,-0.099,-0.065
-0.072,-0.036,0.037,0.054,-0.054,0.0,-0.004,0.053,-0.088,-0.132,-0.087,-0.06
-0.003,-0.036,-0.032,0.02,0.015,-0.034,-0.001,0.048,-0.072,-0.119,-0.077,-0.053
-0.007,-0.034,-0.027,0.021,0.011,-0.031,0.003,0.07,-0.059,-0.108,-0.068,-0.048
-0.025,-0.035,-0.011,0.03,-0.007,-0.023,0.008,0.097,-0.037,-0.094,-0.057,-0.042
-0.063,-0.035,0.028,0.049,-0.045,-0.003,0.017,0.111,-0.021,-0.082,-0.046,-0.037
-0.042,-0.035,0.008,0.039,-0.025,-0.013,0.021,0.127,-0.009,-0.063,-0.03,-0.021
-0.011,-0.037,-0.026,0.024,0.008,-0.031,0.033,0.169,0.024,-0.031,-0.002,-0.009
-0.02,-0.038,-0.018,0.029,-0.001,-0.028,0.053,0.215,0.061,0.005,0.025,0.005
0.02,-0.026,-0.046,0.003,0.034,-0.036,0.057,0.248,0.098,0.034,0.048,0.035
0.033,-0.008,-0.041,-0.012,0.037,-0.025,0.053,0.293,0.143,0.073,0.079,0.056
0.034,0.001,-0.033,-0.017,0.033,-0.016,0.06,0.352,0.2,0.125,0.12,0.084
0.054,0.024,-0.03,-0.039,0.042,-0.003,0.08,0.426,0.267,0.179,0.179,0.128
0.066,0.048,-0.018,-0.056,0.041,0.015,0.077,0.481,0.333,0.246,0.238,0.177
0.104,0.086,-0.018,-0.095,0.061,0.034,0.071,0.524,0.393,0.303,0.291,0.217
0.11,0.121,0.011,-0.116,0.049,0.066,0.068,0.569,0.442,0.35,0.332,0.252
0.093,0.137,0.044,-0.115,0.024,0.09,0.062,0.599,0.485,0.397,0.379,0.297
0.118,0.175,0.057,-0.147,0.03,0.116,0.059,0.588,0.499,0.405,0.402,0.317
0.11,0.176,0.066,-0.143,0.022,0.12,0.051,0.51,0.447,0.376,0.382,0.311
0.085,0.139,0.054,-0.112,0.015,0.096,0.044,0.39,0.344,0.3,0.326,0.266
0.055,0.093,0.039,-0.074,0.008,0.066,0.037,0.276,0.243,0.201,0.234,0.189
0.029,0.045,0.016,-0.037,0.007,0.03,0.031,0.18,0.126,0.091,0.134,0.106
0.0,0.006,0.006,-0.003,-0.003,0.006,0.024,0.12,0.02,-0.011,0.047,0.037
-0.039,-0.043,-0.004,0.041,-0.017,-0.023,0.021,0.069,-0.029,-0.064,-0.003,-0.012
-0.034,-0.077,-0.042,0.056,0.004,-0.059,0.026,0.041,-0.069,-0.102,-0.036,-0.038
-0.013,-0.086,-0.073,0.05,0.03,-0.079,0.024,0.041,-0.086,-0.117,-0.055,-0.043
-0.009,-0.097,-0.088,0.053,0.04,-0.092,0.026,0.032,-0.086,-0.122,-0.055,-0.044
-0.036,-0.12,-0.083,0.078,0.024,-0.101,0.024,0.029,-0.099,-0.133,-0.055,-0.04
-0.041,-0.137,-0.097,0.089,0.028,-0.117,0.027,0.021,-0.101,-0.135,-0.055,-0.04
-0.026,-0.14,-0.114,0.083,0.044,-0.127,0.019,0.026,-0.099,-0.135,-0.055,-0.038
-0.034,-0.141,-0.106,0.088,0.036,-0.123,0.014,0.048,-0.101,-0.134,-0.054,-0.035
-0.041,-0.138,-0.097,0.09,0.028,-0.118,0.04,0.052,-0.099,-0.135,-0.06,-0.034
-0.039,-0.135,-0.096,0.087,0.029,-0.115,0.044,0.046,-0.102,-0.135,-0.069,-0.042
-0.039,-0.135,-0.096,0.087,0.029,-0.115,0.032,0.041,-0.105,-0.129,-0.07,-0.051
-0.04,-0.133,-0.093,0.087,0.027,-0.113,0.028,0.038,-0.105,-0.123,-0.07,-0.05
-0.027,-0.129,-0.102,0.079,0.037,-0.115,0.019,0.031,-0.107,-0.115,-0.07,-0.05
-0.026,-0.127,-0.101,0.077,0.038,-0.114,0.012,0.033,-0.111,-0.111,-0.07,-0.05
-0.051,-0.124,-0.073,0.088,0.011,-0.098,0.026,0.042,-0.109,-0.099,-0.07,-0.05
-0.038,-0.12,-0.082,0.08,0.022,-0.101,0.036,0.037,-0.107,-0.113,-0.067,-0.047
-0.032,-0.12,-0.089,0.077,0.028,-0.104,0.024,0.034,-0.104,-0.132,-0.064,-0.044
-0.042,-0.112,-0.07,0.078,0.014,-0.091,0.02,0.031,-0.101,-0.125,-0.066,-0.041
-0.049,-0.121,-0.072,0.085,0.012,-0.096,0.012,0.026,-0.098,-0.12,-0.064,-0.039
-0.056,-0.139,-0.083,0.098,0.014,-0.111,0.005,0.024,-0.094,-0.128,-0.067,-0.033
-0.03,-0.14,-0.11,0.085,0.04,-0.125,0.016,0.015,-0.1,-0.146,-0.082,-0.041
-0.052,-0.14,-0.088,0.096,0.018,-0.114,0.019,0.006,-0.111,-0.154,-0.085,-0.056
-0.056,-0.14,-0.084,0.098,0.014,-0.112,0.01,-0.003,-0.136,-0.161,-0.102,-0.054
-0.034,-0.14,-0.106,0.087,0.036,-0.123,0.005,-0.012,-0.148,-0.158,-0.112,-0.048
-0.036,-0.139,-0.103,0.088,0.033,-0.121,-0.003,-0.012,-0.144,-0.162,-0.109,-0.059
-0.031,-0.142,-0.111,0.086,0.04,-0.126,-0.008,-0.026,-0.145,-0.18,-0.111,-0.076
-0.035,-0.144,-0.109,0.09,0.038,-0.126,-0.007,-0.042,-0.145,-0.18,-0.11,-0.075
-0.031,-0.142,-0.111,0.087,0.04,-0.126,-0.003,-0.038,-0.144,-0.18,-0.11,-0.075
-0.02,-0.127,-0.107,0.074,0.044,-0.117,-0.002,-0.046,-0.14,-0.18,-0.106,-0.075
-0.027,-0.13,-0.102,0.079,0.038,-0.116,0.003,-0.071,-0.14,-0.18,-0.105,-0.075
-0.067,-0.158,-0.091,0.113,0.012,-0.124,0.023,-0.08,-0.139,-0.178,-0.105,-0.073
-0.055,-0.163,-0.108,0.11,0.026,-0.135,0.024,-0.08,-0.135,-0.174,-0.105,-0.069
-0.028,-0.159,-0.131,0.093,0.052,-0.145,0.016,-0.08,-0.134,-0.175,-0.104,-0.067
-0.046,-0.16,-0.114,0.104,0.034,-0.137,0.013,-0.08,-0.146,-0.171,-0.111,-0.064
-0.051,-0.16,-0.109,0.106,0.029,-0.135,0.005,-0.079,-0.155,-0.169,-0.114,-0.061
-0.046,-0.158,-0.112,0.102,0.033,-0.135,0.002,-0.082,-0.147,-0.171,-0.107,-0.059
-0.048,-0.184,-0.137,0.116,0.045,-0.16,0.003,-0.081,-0.142,-0.175,-0.103,-0.056
-0.051,-0.212,-0.161,0.132,0.056,-0.186,0.018,-0.065,-0.137,-0.175,-0.096,-0.049
-0.043,-0.223,-0.179,0.133,0.068,-0.201,0.035,-0.059,-0.129,-0.174,-0.091,-0.046
-0.046,-0.231,-0.185,0.138,0.07,-0.208,0.031,-0.056,-0.14,-0.171,-0.09,-0.042
-0.072,-0.223,-0.15,0.148,0.039,-0.186,0.024,-0.052,-0.157,-0.169,-0.088,-0.035
-0.054,-0.22,-0.166,0.137,0.056,-0.193,0.017,-0.048,-0.154,-0.172,-0.098,-0.043
-0.031,-0.215,-0.183,0.123,0.077,-0.199,0.009,-0.045,-0.157,-0.174,-0.106,-0.052
-0.063,-0.211,-0.148,0.137,0.042,-0.179,0.002,-0.045,-0.161,-0.178,-0.105,-0.05
-0.078,-0.2,-0.121,0.139,0.022,-0.16,-0.004,-0.047,-0.159,-0.18,-0.102,-0.047
-0.073,-0.177,-0.104,0.125,0.016,-0.14,-0.006,-0.058,-0.159,-0.177,-0.1,-0.046
-0.082,-0.169,-0.087,0.126,0.002,-0.128,-0.004,-0.061,-0.149,-0.173,-0.099,-0.043
-0.057,-0.166,-0.109,0.112,0.026,-0.137,0.012,-0.06,-0.158,-0.182,-0.107,-0.061
-0.037,-0.162,-0.125,0.1,0.044,-0.143,0.012,-0.071,-0.176,-0.196,-0.121,-0.082
-0.061,-0.159,-0.098,0.11,0.018,-0.128,0.003,-0.079,-0.172,-0.191,-0.122,-0.074
-0.055,-0.154,-0.1,0.104,0.023,-0.127,-0.002,-0.079,-0.168,-0.188,-0.119,-0.07
-0.051,-0.152,-0.101,0.101,0.025,-0.126,-0.01,-0.084,-0.165,-0.185,-0.12,-0.067
-0.057,-0.15,-0.093,0.103,0.018,-0.121,-0.015,-0.083,-0.159,-0.18,-0.12,-0.059
-0.059,-0.149,-0.09,0.104,0.015,-0.119,-0.032,-0.09,-0.163,-0.182,-0.12,-0.067
-0.07,-0.152,-0.082,0.111,0.006,-0.116,-0.036,-0.085,-0.172,-0.193,-0.121,-0.076
-0.069,-0.147,-0.078,0.108,0.005,-0.113,-0.027,-0.095,-0.175,-0.2,-0.125,-0.074
-0.081,-0.153,-0.072,0.117,-0.005,-0.112,-0.021,-0.086,-0.176,-0.2,-0.125,-0.078
-0.065,-0.136,-0.071,0.1,0.003,-0.103,-0.014,-0.092,-0.18,-0.201,-0.125,-0.08
-0.056,-0.137,-0.081,0.096,0.013,-0.108,-0.007,-0.093,-0.18,-0.205,-0.125,-0.081
-0.041,-0.119,-0.078,0.08,0.018,-0.098,-0.008,-0.076,-0.173,-0.205,-0.124,-0.073
-0.046,-0.12,-0.074,0.084,0.014,-0.097,-0.022,-0.096,-0.165,-0.202,-0.122,-0.054
-0.025,-0.097,-0.072,0.061,0.024,-0.084,-0.02,-0.039,-0.156,-0.193,-0.108,-0.04
0.164,0.1,-0.064,-0.132,0.114,0.018,-0.012,-0.094,-0.15,-0.181,-0.102,-0.027
0.233,0.166,-0.067,-0.198,0.15,0.049,-0.006,0.018,-0.137,-0.174,-0.087,-0.012
0.253,0.224,-0.03,-0.239,0.141,0.097,0.001,-0.075,-0.107,-0.137,-0.057,0.005
0.17,0.144,-0.026,-0.157,0.098,0.058,0.007,0.051,-0.092,-0.109,-0.041,0.013
-0.015,-0.062,-0.047,0.039,0.016,-0.055,0.018,-0.082,-0.1,-0.126,-0.061,0.005
-0.02,-0.042,-0.022,0.031,0.001,-0.032,0.027,-0.429,-0.124,-0.144,-0.052,-0.002
