0.024,0.353,0.329,-0.189,-0.153,0.341,0.45,0.271,0.313,0.53,1.129,1.089
0.028,0.348,0.32,-0.188,-0.146,0.334,0.45,0.29,0.323,0.529,1.129,1.089
0.065,0.368,0.303,-0.217,-0.119,0.335,0.45,0.324,0.338,0.546,1.129,1.089
0.098,0.392,0.295,-0.245,-0.098,0.343,0.45,0.372,0.376,0.58,1.13,1.089
0.105,0.399,0.295,-0.253,-0.095,0.347,0.444,0.417,0.394,0.596,1.142,1.089
0.118,0.413,0.296,-0.266,-0.089,0.354,0.438,0.444,0.41,0.615,1.144,1.089
0.137,0.428,0.291,-0.283,-0.078,0.36,0.43,0.455,0.406,0.619,1.136,1.084
0.152,0.436,0.284,-0.294,-0.066,0.36,0.425,0.441,0.399,0.622,1.131,1.08
0.165,0.435,0.27,-0.3,-0.053,0.352,0.415,0.427,0.399,0.634,1.122,1.075
0.145,0.425,0.28,-0.285,-0.067,0.352,0.424,0.389,0.384,0.615,1.119,1.072
0.135,0.415,0.28,-0.275,-0.073,0.347,0.426,0.334,0.346,0.58,1.094,1.06
0.119,0.395,0.276,-0.257,-0.079,0.335,0.415,0.261,0.297,0.538,1.037,1.016
0.084,0.349,0.264,-0.217,-0.09,0.306,0.42,0.173,0.246,0.493,0.978,0.968
0.059,0.303,0.244,-0.181,-0.093,0.273,0.394,0.107,0.195,0.46,0.922,0.925
0.013,0.274,0.261,-0.143,-0.124,0.267,0.382,0.062,0.155,0.429,0.883,0.89
0.014,0.262,0.248,-0.139,-0.117,0.255,0.382,0.038,0.128,0.39,0.861,0.867
0.012,0.255,0.243,-0.134,-0.116,0.249,0.373,0.017,0.115,0.374,0.844,0.851
0.001,0.245,0.243,-0.123,-0.121,0.244,0.369,-0.013,0.102,0.374,0.82,0.839
0.002,0.241,0.239,-0.121,-0.118,0.24,0.362,-0.022,0.099,0.37,0.798,0.827
-0.002,0.238,0.24,-0.118,-0.121,0.239,0.356,-0.019,0.097,0.367,0.794,0.817
-0.005,0.235,0.24,-0.115,-0.123,0.237,0.348,-0.02,0.093,0.364,0.782,0.808
-0.009,0.232,0.241,-0.112,-0.125,0.236,0.343,-0.02,0.093,0.364,0.768,0.8
0.01,0.23,0.22,-0.121,-0.105,0.225,0.333,-0.02,0.085,0.356,0.758,0.788
0.01,0.227,0.218,-0.119,-0.104,0.222,0.351,-0.016,0.097,0.373,0.741,0.767
0.018,0.219,0.2,-0.119,-0.091,0.21,0.37,-0.015,0.11,0.389,0.727,0.751
-0.008,0.213,0.221,-0.102,-0.115,0.217,0.357,-0.015,0.1,0.376,0.717,0.743
-0.043,0.205,0.248,-0.081,-0.146,0.226,0.352,-0.017,0.094,0.37,0.707,0.734
-0.042,0.197,0.24,-0.078,-0.141,0.218,0.345,-0.027,0.087,0.362,0.693,0.725
-0.02,0.191,0.21,-0.086,-0.115,0.2,0.335,-0.034,0.081,0.355,0.679,0.715
0.004,0.195,0.19,-0.1,-0.094,0.192,0.342,-0.03,0.08,0.355,0.666,0.7
-0.014,0.195,0.209,-0.091,-0.112,0.202,0.351,-0.026,0.079,0.354,0.647,0.683
-0.009,0.194,0.204,-0.093,-0.107,0.199,0.35,-0.019,0.08,0.355,0.631,0.673
-0.009,0.196,0.205,-0.094,-0.108,0.201,0.348,-0.035,0.08,0.355,0.623,0.669
-0.014,0.192,0.206,-0.09,-0.11,0.199,0.344,-0.058,0.08,0.355,0.615,0.662
0.005,0.208,0.204,-0.107,-0.1,0.206,0.346,-0.054,0.081,0.361,0.612,0.658
0.011,0.212,0.201,-0.112,-0.096,0.206,0.334,-0.057,0.087,0.357,0.605,0.65
0.058,0.242,0.183,-0.15,-0.063,0.212,0.307,-0.062,0.094,0.37,0.599,0.64
0.091,0.269,0.178,-0.18,-0.044,0.223,0.289,-0.057,0.09,0.375,0.596,0.628
0.089,0.238,0.149,-0.164,-0.03,0.193,0.273,-0.067,0.07,0.345,0.564,0.617
0.102,0.212,0.11,-0.157,-0.005,0.161,0.257,-0.063,0.063,0.331,0.522,0.604
0.047,0.172,0.125,-0.11,-0.039,0.148,0.249,-0.079,0.033,0.308,0.486,0.576
-0.012,0.139,0.152,-0.064,-0.082,0.145,0.283,-0.08,0.021,0.306,0.467,0.549
-0.026,0.117,0.143,-0.045,-0.085,0.13,0.299,-0.073,0.001,0.284,0.435,0.518
-0.036,0.123,0.158,-0.043,-0.097,0.14,0.29,-0.081,-0.012,0.285,0.422,0.512
-0.034,0.107,0.141,-0.036,-0.087,0.123,0.298,-0.073,-0.025,0.268,0.394,0.487
-0.058,0.101,0.159,-0.021,-0.109,0.13,0.282,-0.112,-0.04,0.255,0.386,0.486
-0.053,0.062,0.115,-0.005,-0.085,0.088,0.297,-0.054,0.004,0.253,0.378,0.46
-0.025,0.065,0.09,-0.02,-0.058,0.077,0.305,-0.083,-0.05,0.207,0.375,0.424
-0.042,0.12,0.162,-0.039,-0.102,0.14,0.516,0.234,0.117,0.307,0.397,0.431
0.12,0.22,0.1,-0.17,0.009,0.16,0.532,0.498,0.33,0.481,0.496,0.539
0.567,0.783,0.216,-0.675,0.175,0.499,-0.013,0.066,0.815,1.216,1.263,1.137
0.7,0.827,0.127,-0.764,0.287,0.477,-0.327,-0.425,0.794,1.285,1.424,1.268
0.275,0.264,-0.011,-0.269,0.143,0.126,-0.355,-0.947,-0.3,0.268,0.564,0.692
0.055,0.121,0.065,-0.088,-0.005,0.093,-0.13,-0.662,-0.407,0.088,0.301,0.462
0.09,0.094,0.004,-0.092,0.042,0.049,0.212,-0.103,-0.067,0.211,0.296,0.389
0.01,0.083,0.073,-0.047,-0.032,0.078,0.277,-0.077,-0.081,0.178,0.257,0.351
-0.012,0.081,0.093,-0.035,-0.053,0.087,0.289,-0.007,-0.015,0.2,0.275,0.354
0.003,0.074,0.072,-0.039,-0.034,0.073,0.307,-0.009,-0.043,0.193,0.244,0.337
0.009,0.088,0.079,-0.048,-0.035,0.083,0.311,0.027,-0.015,0.238,0.255,0.341
0.022,0.081,0.059,-0.052,-0.019,0.07,0.312,0.055,-0.012,0.22,0.235,0.324
0.032,0.091,0.059,-0.062,-0.013,0.074,0.342,0.069,0.02,0.236,0.238,0.328
0.008,0.09,0.081,-0.05,-0.037,0.085,0.36,0.101,0.029,0.233,0.229,0.329
-0.023,0.084,0.107,-0.031,-0.065,0.096,0.351,0.111,0.026,0.239,0.224,0.33
0.01,0.089,0.079,-0.05,-0.034,0.083,0.357,0.152,0.06,0.252,0.219,0.332
0.045,0.115,0.07,-0.08,-0.013,0.092,0.353,0.187,0.079,0.255,0.214,0.335
0.063,0.117,0.054,-0.09,0.004,0.086,0.355,0.232,0.097,0.273,0.223,0.335
0.079,0.119,0.04,-0.099,0.019,0.079,0.349,0.268,0.114,0.286,0.225,0.338
0.097,0.123,0.027,-0.11,0.035,0.075,0.346,0.313,0.149,0.305,0.24,0.34
0.112,0.128,0.015,-0.12,0.048,0.071,0.34,0.358,0.174,0.323,0.261,0.34
0.131,0.145,0.013,-0.138,0.059,0.079,0.348,0.374,0.206,0.352,0.282,0.356
0.146,0.156,0.01,-0.151,0.068,0.083,0.356,0.37,0.21,0.36,0.29,0.366
0.122,0.154,0.033,-0.138,0.044,0.093,0.35,0.353,0.189,0.345,0.29,0.37
0.114,0.14,0.026,-0.128,0.044,0.083,0.348,0.326,0.176,0.335,0.279,0.356
0.109,0.131,0.023,-0.12,0.043,0.077,0.343,0.266,0.14,0.303,0.245,0.316
0.09,0.11,0.02,-0.1,0.034,0.065,0.341,0.199,0.101,0.275,0.202,0.285
0.047,0.07,0.023,-0.059,0.012,0.046,0.333,0.13,0.052,0.238,0.146,0.246
-0.013,0.039,0.052,-0.014,-0.033,0.046,0.315,0.058,0.004,0.183,0.097,0.205
-0.013,0.012,0.025,0.0,-0.019,0.018,0.3,0.007,-0.035,0.149,0.066,0.183
-0.042,-0.022,0.021,0.032,-0.031,-0.001,0.29,-0.037,-0.08,0.116,0.025,0.163
-0.071,-0.043,0.028,0.057,-0.049,-0.008,0.282,-0.062,-0.106,0.096,-0.008,0.142
-0.055,-0.046,0.009,0.05,-0.032,-0.018,0.273,-0.073,-0.112,0.093,-0.017,0.129
-0.038,-0.044,-0.007,0.041,-0.015,-0.025,0.264,-0.078,-0.11,0.089,-0.031,0.12
-0.031,-0.045,-0.015,0.038,-0.008,-0.03,0.258,-0.074,-0.11,0.086,-0.038,0.11
-0.054,-0.045,0.009,0.049,-0.031,-0.017,0.25,-0.075,-0.108,0.08,-0.034,0.102
-0.07,-0.046,0.024,0.058,-0.047,-0.011,0.243,-0.075,-0.104,0.081,-0.046,0.094
-0.065,-0.055,0.01,0.06,-0.037,-0.022,0.235,-0.075,-0.105,0.084,-0.056,0.085
-0.052,-0.061,-0.009,0.057,-0.022,-0.034,0.231,-0.075,-0.108,0.092,-0.055,0.077
-0.05,-0.059,-0.009,0.055,-0.021,-0.034,0.237,-0.07,-0.111,0.097,-0.054,0.068
-0.05,-0.06,-0.01,0.056,-0.02,-0.035,0.237,-0.067,-0.109,0.094,-0.066,0.06
-0.067,-0.06,0.007,0.063,-0.037,-0.026,0.231,-0.064,-0.111,0.095,-0.076,0.052
-0.069,-0.06,0.009,0.064,-0.039,-0.025,0.226,-0.06,-0.109,0.09,-0.075,0.046
-0.078,-0.059,0.019,0.068,-0.049,-0.019,0.223,-0.056,-0.105,0.089,-0.074,0.039
-0.087,-0.055,0.032,0.07,-0.059,-0.011,0.217,-0.053,-0.106,0.091,-0.086,0.033
-0.055,-0.055,0.0,0.055,-0.027,-0.028,0.216,-0.049,-0.103,0.094,-0.099,0.025
-0.074,-0.062,0.012,0.068,-0.043,-0.025,0.221,-0.05,-0.099,0.096,-0.099,0.02
-0.102,-0.073,0.029,0.088,-0.066,-0.021,0.226,-0.049,-0.1,0.094,-0.102,0.012
-0.077,-0.04,0.036,0.058,-0.056,-0.002,0.23,-0.05,-0.104,0.099,-0.094,0.007
-0.089,-0.024,0.065,0.056,-0.077,0.02,0.223,-0.05,-0.105,0.102,-0.1,0.001
-0.072,-0.008,0.064,0.04,-0.068,0.028,0.204,-0.055,-0.106,0.108,-0.099,-0.005
0.006,0.056,0.05,-0.031,-0.023,0.053,0.17,-0.059,-0.108,0.129,-0.072,0.014
0.012,0.034,0.022,-0.023,-0.005,0.028,0.147,-0.066,-0.112,0.118,-0.085,0.017
0.002,-0.005,-0.006,0.002,0.004,-0.005,0.15,-0.087,-0.11,0.098,-0.111,0.0
-0.05,-0.045,0.005,0.047,-0.027,-0.02,0.151,-0.108,-0.15,0.071,-0.147,-0.036
-0.1,-0.084,0.017,0.092,-0.058,-0.033,0.152,-0.116,-0.175,0.053,-0.165,-0.06
-0.108,-0.104,0.004,0.106,-0.056,-0.05,0.159,-0.101,-0.163,0.039,-0.187,-0.07
-0.139,-0.107,0.033,0.123,-0.086,-0.037,0.151,-0.122,-0.182,0.029,-0.198,-0.083
-0.145,-0.114,0.031,0.13,-0.087,-0.042,0.167,-0.096,-0.162,0.033,-0.2,-0.095
-0.146,-0.128,0.017,0.137,-0.081,-0.055,0.153,-0.126,-0.192,0.007,-0.223,-0.103
-0.156,-0.119,0.037,0.137,-0.097,-0.041,0.166,-0.092,-0.151,0.03,-0.203,-0.107
-0.128,-0.143,-0.015,0.136,-0.056,-0.079,0.16,-0.099,-0.18,-0.016,-0.24,-0.124
-0.146,-0.11,0.036,0.128,-0.091,-0.037,0.279,0.077,-0.08,0.043,-0.216,-0.114
-0.069,-0.069,0.001,0.068,-0.035,-0.034,0.464,0.537,0.167,0.174,-0.139,-0.078
0.328,0.446,0.118,-0.387,0.105,0.281,0.008,0.212,0.599,0.865,0.549,0.476
0.492,0.761,0.269,-0.627,0.111,0.515,-0.436,-0.352,0.957,1.431,1.134,0.901
0.176,0.229,0.053,-0.203,0.061,0.141,-0.451,-0.819,-0.053,0.422,0.342,0.376
-0.106,-0.098,0.009,0.102,-0.057,-0.044,-0.362,-0.841,-0.655,-0.211,-0.245,-0.031
-0.131,-0.157,-0.027,0.144,-0.052,-0.092,-0.049,-0.248,-0.249,-0.017,-0.201,-0.083
-0.113,-0.145,-0.033,0.129,-0.04,-0.089,0.105,-0.084,-0.2,-0.014,-0.229,-0.112
-0.168,-0.12,0.048,0.144,-0.108,-0.036,0.113,-0.043,-0.13,0.06,-0.203,-0.096
-0.169,-0.131,0.038,0.149,-0.103,-0.046,0.136,-0.014,-0.128,0.043,-0.216,-0.117
-0.159,-0.109,0.05,0.133,-0.104,-0.029,0.132,-0.013,-0.122,0.051,-0.207,-0.109
-0.157,-0.115,0.042,0.136,-0.099,-0.036,0.144,0.028,-0.099,0.064,-0.21,-0.105
-0.145,-0.103,0.041,0.124,-0.092,-0.031,0.142,0.026,-0.11,0.054,-0.212,-0.098
-0.14,-0.104,0.036,0.121,-0.087,-0.034,0.15,0.064,-0.084,0.079,-0.201,-0.09
-0.122,-0.092,0.03,0.107,-0.076,-0.031,0.156,0.09,-0.063,0.098,-0.194,-0.086
-0.111,-0.082,0.029,0.096,-0.069,-0.026,0.159,0.141,-0.019,0.119,-0.177,-0.078
-0.093,-0.073,0.02,0.082,-0.056,-0.027,0.156,0.155,-0.002,0.131,-0.165,-0.075
-0.078,-0.062,0.016,0.07,-0.047,-0.023,0.152,0.184,0.026,0.162,-0.146,-0.067
-0.073,-0.053,0.02,0.062,-0.046,-0.016,0.15,0.235,0.047,0.188,-0.129,-0.063
-0.056,-0.043,0.013,0.049,-0.035,-0.015,0.146,0.269,0.078,0.208,-0.108,-0.054
-0.019,-0.029,-0.01,0.024,-0.004,-0.019,0.145,0.314,0.118,0.237,-0.082,-0.024
0.019,-0.008,-0.027,-0.005,0.023,-0.017,0.141,0.323,0.127,0.259,-0.061,-0.01
0.029,0.014,-0.015,-0.021,0.022,-0.001,0.134,0.327,0.125,0.256,-0.058,-0.01
0.027,0.025,-0.002,-0.026,0.015,0.011,0.128,0.314,0.114,0.244,-0.065,-0.007
0.01,0.01,0.0,-0.01,0.005,0.005,0.121,0.275,0.085,0.236,-0.062,-0.004
-0.013,-0.006,0.007,0.009,-0.01,0.001,0.114,0.214,0.05,0.216,-0.075,-0.012
-0.034,-0.022,0.012,0.028,-0.023,-0.005,0.105,0.154,0.01,0.183,-0.115,-0.05
-0.061,-0.043,0.018,0.052,-0.039,-0.012,0.095,0.113,-0.038,0.145,-0.147,-0.068
-0.101,-0.079,0.023,0.09,-0.062,-0.027,0.085,0.044,-0.083,0.108,-0.191,-0.108
-0.134,-0.109,0.025,0.121,-0.08,-0.042,0.073,-0.008,-0.119,0.082,-0.224,-0.147
-0.141,-0.116,0.025,0.129,-0.083,-0.045,0.058,-0.03,-0.153,0.067,-0.24,-0.147
-0.147,-0.127,0.02,0.137,-0.083,-0.053,0.045,-0.038,-0.167,0.057,-0.255,-0.167
-0.143,-0.128,0.016,0.135,-0.079,-0.056,0.039,-0.047,-0.178,0.044,-0.255,-0.171
-0.136,-0.124,0.011,0.13,-0.073,-0.056,0.041,-0.057,-0.184,0.043,-0.255,-0.169
-0.131,-0.126,0.005,0.128,-0.068,-0.06,0.037,-0.054,-0.177,0.052,-0.254,-0.171
-0.132,-0.121,0.011,0.126,-0.072,-0.055,0.035,-0.053,-0.173,0.053,-0.252,-0.169
-0.147,-0.12,0.027,0.133,-0.087,-0.046,0.035,-0.049,-0.166,0.051,-0.249,-0.169
-0.14,-0.12,0.019,0.13,-0.079,-0.05,0.031,-0.05,-0.161,0.048,-0.25,-0.164
-0.128,-0.12,0.008,0.124,-0.068,-0.056,0.024,-0.05,-0.164,0.06,-0.245,-0.165
-0.15,-0.12,0.03,0.135,-0.09,-0.045,0.019,-0.05,-0.165,0.071,-0.242,-0.165
-0.144,-0.12,0.025,0.132,-0.084,-0.047,0.008,-0.05,-0.165,0.065,-0.26,-0.165
-0.12,-0.12,0.0,0.12,-0.06,-0.059,-0.004,-0.05,-0.165,0.06,-0.267,-0.164
-0.137,-0.12,0.017,0.128,-0.077,-0.051,-0.015,-0.05,-0.164,0.055,-0.264,-0.172
-0.144,-0.122,0.022,0.132,-0.083,-0.05,-0.037,-0.051,-0.16,0.048,-0.265,-0.185
-0.123,-0.129,-0.007,0.126,-0.058,-0.068,-0.05,-0.069,-0.16,0.046,-0.265,-0.188
-0.133,-0.123,0.01,0.128,-0.071,-0.057,-0.05,-0.07,-0.176,0.05,-0.265,-0.184
-0.125,-0.115,0.01,0.12,-0.068,-0.052,-0.056,-0.07,-0.181,0.051,-0.261,-0.181
-0.098,-0.107,-0.009,0.103,-0.044,-0.058,-0.058,-0.083,-0.174,0.057,-0.256,-0.177
-0.106,-0.097,0.008,0.102,-0.057,-0.045,-0.06,-0.08,-0.172,0.056,-0.253,-0.174
-0.13,-0.103,0.027,0.116,-0.078,-0.038,-0.064,-0.061,-0.167,0.063,-0.25,-0.169
-0.12,-0.088,0.032,0.104,-0.076,-0.028,-0.064,-0.055,-0.164,0.072,-0.244,-0.174
-0.1,-0.072,0.028,0.086,-0.064,-0.022,-0.074,-0.04,-0.171,0.068,-0.248,-0.179
-0.13,-0.074,0.056,0.102,-0.093,-0.009,-0.095,-0.038,-0.171,0.099,-0.249,-0.147
-0.121,-0.077,0.043,0.099,-0.082,-0.017,-0.14,-0.084,-0.176,0.093,-0.256,-0.135
-0.063,-0.069,-0.007,0.066,-0.028,-0.038,-0.146,-0.083,-0.166,0.079,-0.255,-0.15
-0.036,-0.088,-0.052,0.063,0.008,-0.07,-0.131,-0.103,-0.192,0.063,-0.264,-0.172
-0.101,-0.119,-0.018,0.111,-0.041,-0.068,-0.145,-0.146,-0.231,0.045,-0.285,-0.199
-0.149,-0.159,-0.01,0.155,-0.069,-0.084,-0.129,-0.123,-0.225,0.033,-0.291,-0.216
-0.128,-0.167,-0.039,0.148,-0.045,-0.103,-0.123,-0.147,-0.239,0.008,-0.302,-0.221
-0.156,-0.167,-0.011,0.162,-0.072,-0.089,-0.111,-0.123,-0.217,0.012,-0.303,-0.224
-0.201,-0.208,-0.007,0.204,-0.097,-0.107,-0.116,-0.146,-0.248,-0.022,-0.321,-0.24
-0.181,-0.199,-0.018,0.19,-0.082,-0.108,-0.107,-0.139,-0.217,0.004,-0.306,-0.234
-0.169,-0.229,-0.06,0.199,-0.054,-0.145,-0.097,-0.135,-0.26,-0.049,-0.346,-0.268
-0.211,-0.153,0.058,0.181,-0.134,-0.047,0.013,-0.019,-0.194,0.006,-0.343,-0.244
-0.108,-0.122,-0.013,0.115,-0.047,-0.068,0.196,0.402,0.026,0.106,-0.297,-0.215
0.239,0.294,0.055,-0.267,0.092,0.175,-0.191,0.187,0.391,0.648,0.267,0.211
0.519,0.754,0.236,-0.637,0.141,0.495,-0.728,-0.369,0.838,1.329,0.946,0.711
0.276,0.231,-0.045,-0.253,0.16,0.093,-0.848,-0.857,-0.027,0.491,0.328,0.31
-0.075,-0.156,-0.081,0.116,0.003,-0.118,-0.693,-0.898,-0.698,-0.208,-0.304,-0.115
-0.113,-0.163,-0.05,0.138,-0.032,-0.106,-0.319,-0.297,-0.3,-0.021,-0.283,-0.174
-0.142,-0.187,-0.046,0.165,-0.047,-0.117,-0.152,-0.098,-0.246,-0.023,-0.32,-0.222
-0.168,-0.146,0.021,0.157,-0.094,-0.062,-0.155,-0.086,-0.21,0.025,-0.295,-0.205
-0.153,-0.157,-0.004,0.155,-0.075,-0.08,-0.13,-0.051,-0.201,0.015,-0.309,-0.214
-0.132,-0.134,-0.002,0.133,-0.065,-0.068,-0.131,-0.062,-0.199,0.021,-0.304,-0.204
-0.149,-0.138,0.011,0.143,-0.08,-0.063,-0.118,-0.022,-0.17,0.036,-0.301,-0.205
-0.159,-0.13,0.029,0.144,-0.094,-0.05,-0.116,-0.006,-0.173,0.044,-0.295,-0.201
-0.116,-0.125,-0.009,0.121,-0.053,-0.067,-0.107,0.026,-0.132,0.052,-0.279,-0.198
-0.122,-0.124,-0.002,0.123,-0.06,-0.063,-0.101,0.041,-0.115,0.07,-0.275,-0.195
-0.121,-0.112,0.009,0.116,-0.065,-0.051,-0.097,0.064,-0.09,0.096,-0.26,-0.184
-0.094,-0.094,0.001,0.094,-0.047,-0.046,-0.094,0.091,-0.086,0.093,-0.25,-0.18
-0.107,-0.073,0.034,0.09,-0.07,-0.019,-0.094,0.145,-0.06,0.131,-0.214,-0.171
-0.09,-0.062,0.027,0.076,-0.058,-0.017,-0.088,0.196,-0.026,0.147,-0.197,-0.163
-0.019,-0.042,-0.023,0.031,0.002,-0.032,-0.092,0.242,0.015,0.173,-0.184,-0.143
-0.011,-0.022,-0.012,0.016,0.001,-0.017,-0.095,0.289,0.053,0.212,-0.158,-0.12
-0.014,-0.004,0.01,0.009,-0.012,0.003,-0.095,0.301,0.063,0.225,-0.132,-0.094
-0.006,0.008,0.014,-0.001,-0.011,0.011,-0.095,0.317,0.076,0.24,-0.113,-0.088
-0.001,0.013,0.014,-0.006,-0.007,0.013,-0.094,0.328,0.068,0.241,-0.11,-0.091
0.024,0.028,0.003,-0.026,0.01,0.015,-0.11,0.293,0.034,0.222,-0.11,-0.09
-0.013,0.029,0.041,-0.008,-0.028,0.035,-0.127,0.247,-0.004,0.201,-0.124,-0.09
-0.041,-0.008,0.034,0.024,-0.038,0.013,-0.126,0.192,-0.051,0.161,-0.154,-0.094
-0.059,-0.052,0.007,0.055,-0.032,-0.022,-0.14,0.111,-0.106,0.112,-0.197,-0.135
-0.125,-0.081,0.044,0.103,-0.084,-0.019,-0.161,0.041,-0.163,0.064,-0.238,-0.171
-0.142,-0.105,0.038,0.123,-0.09,-0.033,-0.17,-0.006,-0.208,0.028,-0.274,-0.195
-0.145,-0.127,0.018,0.136,-0.081,-0.054,-0.176,-0.042,-0.232,0.009,-0.299,-0.212
-0.156,-0.128,0.028,0.141,-0.092,-0.05,-0.179,-0.066,-0.247,-0.008,-0.302,-0.206
-0.144,-0.124,0.02,0.134,-0.081,-0.052,-0.187,-0.079,-0.255,-0.019,-0.311,-0.204
-0.145,-0.126,0.02,0.135,-0.082,-0.053,-0.196,-0.086,-0.255,-0.021,-0.311,-0.199
-0.138,-0.124,0.014,0.13,-0.075,-0.055,-0.206,-0.09,-0.27,-0.024,-0.306,-0.195
-0.153,-0.126,0.028,0.139,-0.09,-0.049,-0.212,-0.084,-0.273,-0.027,-0.305,-0.193
-0.151,-0.124,0.028,0.137,-0.089,-0.048,-0.209,-0.078,-0.263,-0.03,-0.301,-0.189
-0.124,-0.121,0.002,0.122,-0.063,-0.059,-0.208,-0.073,-0.258,-0.029,-0.3,-0.19
-0.154,-0.118,0.036,0.136,-0.095,-0.04,-0.203,-0.066,-0.25,-0.024,-0.296,-0.19
-0.17,-0.116,0.055,0.143,-0.112,-0.03,-0.207,-0.069,-0.245,-0.021,-0.292,-0.19
-0.159,-0.112,0.047,0.136,-0.103,-0.032,-0.208,-0.071,-0.245,-0.018,-0.289,-0.189
-0.161,-0.109,0.052,0.135,-0.107,-0.029,-0.215,-0.069,-0.245,-0.013,-0.286,-0.185
-0.161,-0.113,0.048,0.137,-0.105,-0.032,-0.223,-0.064,-0.245,-0.011,-0.282,-0.181
-0.169,-0.118,0.051,0.143,-0.109,-0.033,-0.218,-0.073,-0.245,-0.004,-0.277,-0.179
-0.157,-0.112,0.045,0.134,-0.101,-0.033,-0.238,-0.104,-0.244,-0.01,-0.29,-0.174
-0.134,-0.089,0.045,0.111,-0.089,-0.022,-0.246,-0.12,-0.254,-0.017,-0.293,-0.17
-0.154,-0.109,0.045,0.131,-0.1,-0.032,-0.24,-0.116,-0.258,-0.012,-0.283,-0.171
-0.169,-0.133,0.037,0.151,-0.103,-0.048,-0.237,-0.126,-0.247,-0.01,-0.278,-0.168
-0.159,-0.114,0.045,0.137,-0.102,-0.034,-0.234,-0.136,-0.239,-0.006,-0.27,-0.16
-0.128,-0.099,0.028,0.113,-0.078,-0.035,-0.24,-0.135,-0.233,-0.005,-0.26,-0.155
-0.115,-0.074,0.041,0.094,-0.078,-0.016,-0.245,-0.135,-0.224,0.0,-0.243,-0.147
-0.118,-0.042,0.076,0.079,-0.096,0.017,-0.247,-0.135,-0.223,0.005,-0.234,-0.142
-0.068,-0.014,0.054,0.04,-0.061,0.02,-0.257,-0.135,-0.223,0.024,-0.228,-0.143
-0.027,-0.009,0.018,0.017,-0.022,0.004,-0.294,-0.141,-0.227,0.031,-0.232,-0.146
-0.042,-0.032,0.009,0.037,-0.025,-0.011,-0.305,-0.149,-0.223,0.027,-0.229,-0.147
-0.034,-0.061,-0.027,0.048,-0.003,-0.044,-0.29,-0.141,-0.232,0.005,-0.229,-0.149
-0.054,-0.089,-0.035,0.071,-0.009,-0.062,-0.286,-0.157,-0.269,-0.037,-0.251,-0.155
-0.16,-0.122,0.039,0.141,-0.099,-0.041,-0.258,-0.143,-0.257,-0.035,-0.252,-0.163
-0.15,-0.135,0.015,0.143,-0.082,-0.06,-0.276,-0.151,-0.29,-0.048,-0.272,-0.181
-0.125,-0.132,-0.006,0.129,-0.059,-0.069,-0.275,-0.144,-0.273,-0.029,-0.263,-0.175
-0.138,-0.163,-0.025,0.15,-0.056,-0.094,-0.265,-0.163,-0.282,-0.052,-0.279,-0.186
-0.107,-0.135,-0.027,0.121,-0.04,-0.081,-0.265,-0.176,-0.262,-0.028,-0.26,-0.172
-0.167,-0.168,-0.001,0.167,-0.083,-0.084,-0.241,-0.153,-0.259,-0.048,-0.279,-0.186
-0.193,-0.128,0.065,0.161,-0.129,-0.031,-0.177,-0.136,-0.254,-0.045,-0.286,-0.198
-0.103,-0.089,0.014,0.096,-0.058,-0.037,0.051,0.295,-0.033,0.062,-0.238,-0.177
0.191,0.182,-0.009,-0.187,0.1,0.087,-0.179,0.27,0.244,0.427,0.145,0.142
0.528,0.73,0.201,-0.629,0.163,0.465,-0.731,-0.285,0.765,1.197,0.934,0.716
0.416,0.407,-0.009,-0.412,0.212,0.199,-0.922,-0.814,0.189,0.679,0.586,0.505
0.059,-0.068,-0.127,0.005,0.093,-0.097,-0.865,-1.067,-0.725,-0.222,-0.181,0.005
-0.078,-0.099,-0.021,0.089,-0.028,-0.06,-0.509,-0.512,-0.413,-0.082,-0.2,-0.084
-0.094,-0.154,-0.059,0.124,-0.017,-0.106,-0.272,-0.198,-0.257,-0.05,-0.222,-0.136
-0.111,-0.121,-0.011,0.116,-0.05,-0.066,-0.259,-0.194,-0.251,-0.041,-0.21,-0.127
-0.094,-0.124,-0.03,0.109,-0.032,-0.077,-0.222,-0.136,-0.216,-0.02,-0.205,-0.13
-0.093,-0.112,-0.019,0.103,-0.037,-0.065,-0.224,-0.154,-0.228,-0.031,-0.211,-0.131
-0.101,-0.104,-0.003,0.103,-0.048,-0.054,-0.203,-0.117,-0.183,-0.004,-0.197,-0.128
-0.106,-0.102,0.004,0.104,-0.055,-0.049,-0.2,-0.128,-0.199,-0.017,-0.199,-0.133
-0.103,-0.089,0.014,0.096,-0.058,-0.038,-0.189,-0.111,-0.166,0.006,-0.175,-0.12
-0.104,-0.087,0.018,0.095,-0.061,-0.034,-0.18,-0.108,-0.149,0.002,-0.171,-0.115
-0.093,-0.067,0.025,0.08,-0.059,-0.021,-0.19,-0.084,-0.115,0.025,-0.144,-0.104
-0.082,-0.062,0.019,0.072,-0.05,-0.021,-0.165,-0.033,-0.095,0.058,-0.121,-0.096
-0.09,-0.053,0.037,0.071,-0.063,-0.008,-0.148,0.001,-0.069,0.081,-0.097,-0.079
-0.039,-0.037,0.002,0.038,-0.02,-0.017,-0.143,0.048,-0.037,0.1,-0.078,-0.063
-0.023,-0.003,0.02,0.013,-0.021,0.008,-0.134,0.098,-0.005,0.126,-0.059,-0.046
-0.009,0.018,0.027,-0.005,-0.018,0.022,-0.131,0.134,0.024,0.147,-0.031,-0.035
0.053,0.025,-0.028,-0.039,0.041,-0.002,-0.118,0.151,0.049,0.168,0.002,-0.009
0.067,0.049,-0.017,-0.058,0.042,0.016,-0.139,0.154,0.072,0.174,0.014,0.015
0.056,0.053,-0.003,-0.054,0.029,0.024,-0.162,0.153,0.062,0.166,0.03,0.023
0.021,0.039,0.018,-0.03,0.002,0.028,-0.159,0.13,0.042,0.161,0.038,0.032
0.018,0.034,0.016,-0.026,0.001,0.024,-0.159,0.074,0.02,0.153,0.021,0.027
-0.008,0.023,0.031,-0.007,-0.019,0.026,-0.16,0.009,-0.018,0.13,0.004,0.013
-0.06,0.009,0.069,0.025,-0.064,0.039,-0.168,-0.073,-0.074,0.082,-0.037,-0.018
-0.07,-0.018,0.053,0.044,-0.061,0.017,-0.177,-0.151,-0.12,0.034,-0.075,-0.053
-0.11,-0.059,0.051,0.084,-0.08,-0.004,-0.185,-0.204,-0.161,0.004,-0.102,-0.075
-0.119,-0.077,0.042,0.098,-0.08,-0.018,-0.189,-0.246,-0.188,-0.018,-0.125,-0.091
-0.125,-0.086,0.04,0.106,-0.082,-0.023,-0.212,-0.277,-0.209,-0.049,-0.14,-0.11
-0.132,-0.092,0.041,0.112,-0.087,-0.025,-0.222,-0.296,-0.223,-0.056,-0.143,-0.117
-0.127,-0.089,0.037,0.108,-0.082,-0.026,-0.213,-0.305,-0.218,-0.049,-0.133,-0.111
-0.148,-0.09,0.058,0.119,-0.103,-0.016,-0.213,-0.305,-0.217,-0.048,-0.128,-0.109
-0.123,-0.09,0.033,0.106,-0.078,-0.028,-0.207,-0.302,-0.214,-0.042,-0.12,-0.106
-0.111,-0.09,0.021,0.1,-0.066,-0.034,-0.204,-0.3,-0.215,-0.04,-0.116,-0.104
-0.13,-0.083,0.047,0.106,-0.089,-0.017,-0.2,-0.3,-0.209,-0.034,-0.119,-0.1
-0.136,-0.076,0.06,0.106,-0.098,-0.008,-0.192,-0.297,-0.203,-0.029,-0.115,-0.092
-0.132,-0.069,0.063,0.1,-0.097,-0.002,-0.186,-0.291,-0.198,-0.024,-0.11,-0.086
-0.126,-0.063,0.063,0.094,-0.094,0.0,-0.18,-0.287,-0.192,-0.018,-0.107,-0.079
-0.125,-0.052,0.072,0.088,-0.098,0.01,-0.17,-0.282,-0.19,-0.011,-0.102,-0.071
-0.091,-0.05,0.042,0.07,-0.066,-0.004,-0.185,-0.277,-0.19,-0.016,-0.098,-0.078
-0.096,-0.073,0.023,0.084,-0.059,-0.024,-0.203,-0.275,-0.19,-0.038,-0.092,-0.087
-0.13,-0.071,0.059,0.1,-0.094,-0.006,-0.196,-0.275,-0.19,-0.041,-0.089,-0.085
-0.12,-0.064,0.056,0.092,-0.088,-0.004,-0.195,-0.275,-0.19,-0.036,-0.084,-0.083
-0.111,-0.06,0.051,0.085,-0.081,-0.004,-0.192,-0.275,-0.19,-0.034,-0.08,-0.079
-0.098,-0.053,0.045,0.075,-0.072,-0.004,-0.189,-0.276,-0.184,-0.029,-0.074,-0.08
-0.091,-0.051,0.04,0.071,-0.065,-0.006,-0.187,-0.273,-0.179,-0.027,-0.069,-0.077
-0.144,-0.058,0.086,0.101,-0.115,0.014,-0.178,-0.277,-0.174,-0.022,-0.063,-0.069
-0.172,-0.072,0.1,0.122,-0.136,0.014,-0.172,-0.284,-0.167,-0.018,-0.058,-0.063
-0.142,-0.048,0.094,0.094,-0.118,0.023,-0.166,-0.277,-0.162,-0.014,-0.052,-0.056
-0.11,-0.021,0.089,0.065,-0.099,0.034,-0.158,-0.27,-0.162,-0.008,-0.032,-0.049
-0.087,-0.001,0.086,0.044,-0.087,0.043,-0.161,-0.265,-0.166,-0.006,-0.014,-0.043
-0.055,0.041,0.096,0.007,-0.076,0.069,-0.192,-0.27,-0.165,0.029,0.0,-0.021
-0.003,0.051,0.054,-0.024,-0.029,0.053,-0.23,-0.272,-0.164,0.049,0.015,-0.014
-0.031,0.035,0.065,-0.002,-0.048,0.05,-0.24,-0.275,-0.167,0.028,0.023,-0.024
-0.077,-0.003,0.074,0.04,-0.075,0.035,-0.225,-0.281,-0.18,-0.007,0.004,-0.027
-0.092,-0.04,0.052,0.066,-0.072,0.005,-0.222,-0.296,-0.21,-0.037,-0.018,-0.044
-0.156,-0.058,0.098,0.107,-0.127,0.019,-0.209,-0.286,-0.201,-0.03,-0.02,-0.058
-0.172,-0.08,0.092,0.125,-0.131,0.006,-0.2,-0.289,-0.226,-0.051,-0.045,-0.06
-0.159,-0.065,0.094,0.112,-0.126,0.014,-0.191,-0.285,-0.221,-0.036,-0.035,-0.043
-0.154,-0.089,0.065,0.121,-0.109,-0.012,-0.178,-0.28,-0.224,-0.057,-0.048,-0.056
-0.156,-0.078,0.079,0.117,-0.117,0.001,-0.179,-0.284,-0.221,-0.045,-0.033,-0.03
-0.202,-0.101,0.101,0.151,-0.151,0.0,-0.155,-0.247,-0.205,-0.055,-0.045,-0.061
-0.205,-0.064,0.142,0.135,-0.173,0.038,-0.109,-0.251,-0.216,-0.064,-0.04,-0.078
-0.161,-0.034,0.126,0.097,-0.143,0.046,0.111,0.133,-0.029,0.03,-0.002,-0.068
0.119,0.141,0.022,-0.13,0.048,0.081,-0.009,0.235,0.198,0.278,0.258,0.136
0.511,0.734,0.223,-0.623,0.144,0.478,-0.555,-0.25,0.743,1.082,1.089,0.777
0.45,0.577,0.127,-0.514,0.161,0.352,-0.796,-0.779,0.418,0.834,0.971,0.717
0.057,0.045,-0.012,-0.051,0.034,0.016,-0.788,-1.174,-0.62,-0.165,0.152,0.163
-0.126,-0.036,0.09,0.081,-0.108,0.027,-0.49,-0.69,-0.448,-0.132,0.066,0.034
-0.119,-0.07,0.049,0.094,-0.084,-0.01,-0.195,-0.248,-0.191,-0.039,0.068,-0.001
-0.147,-0.042,0.105,0.095,-0.126,0.031,-0.161,-0.243,-0.201,-0.044,0.064,0.006
-0.146,-0.047,0.099,0.097,-0.122,0.025,-0.126,-0.169,-0.137,-0.013,0.08,-0.001
-0.138,-0.039,0.099,0.088,-0.119,0.03,-0.129,-0.188,-0.17,-0.032,0.067,-0.009
-0.143,-0.032,0.111,0.087,-0.127,0.04,-0.122,-0.151,-0.13,-0.002,0.085,-0.006
-0.123,-0.029,0.095,0.076,-0.109,0.033,-0.116,-0.141,-0.141,-0.011,0.078,-0.007
-0.133,-0.016,0.117,0.074,-0.125,0.051,-0.115,-0.112,-0.108,0.017,0.103,0.008
-0.127,-0.009,0.118,0.068,-0.122,0.054,-0.101,-0.063,-0.075,0.023,0.11,0.007
-0.108,0.011,0.119,0.048,-0.114,0.065,-0.092,-0.051,-0.064,0.037,0.12,0.023
-0.116,-0.005,0.111,0.06,-0.114,0.053,-0.08,-0.017,-0.042,0.054,0.143,0.045
-0.101,0.012,0.114,0.044,-0.108,0.063,-0.08,0.024,-0.003,0.072,0.171,0.051
-0.063,0.042,0.105,0.01,-0.084,0.074,-0.075,0.07,0.019,0.089,0.179,0.056
-0.043,0.064,0.107,-0.011,-0.075,0.086,-0.073,0.126,0.041,0.12,0.203,0.087
-0.046,0.084,0.13,-0.019,-0.088,0.107,-0.07,0.167,0.074,0.143,0.24,0.105
-0.026,0.1,0.126,-0.038,-0.076,0.113,-0.069,0.199,0.095,0.163,0.266,0.131
0.022,0.142,0.12,-0.082,-0.049,0.131,-0.071,0.215,0.119,0.186,0.298,0.162
0.039,0.162,0.123,-0.101,-0.042,0.142,-0.068,0.2,0.116,0.178,0.309,0.166
0.028,0.154,0.126,-0.091,-0.049,0.14,-0.077,0.187,0.097,0.169,0.3,0.17
0.024,0.153,0.129,-0.089,-0.052,0.141,-0.089,0.152,0.076,0.161,0.289,0.162
0.009,0.143,0.134,-0.076,-0.063,0.138,-0.091,0.093,0.034,0.139,0.279,0.153
-0.012,0.12,0.132,-0.055,-0.072,0.125,-0.088,0.018,-0.01,0.101,0.261,0.139
-0.053,0.085,0.138,-0.016,-0.095,0.111,-0.097,-0.058,-0.05,0.056,0.219,0.1
-0.098,0.052,0.149,0.022,-0.124,0.1,-0.12,-0.118,-0.099,0.018,0.192,0.084
-0.109,0.034,0.142,0.037,-0.126,0.088,-0.12,-0.161,-0.124,-0.008,0.177,0.08
-0.113,0.024,0.137,0.044,-0.125,0.081,-0.119,-0.19,-0.142,-0.035,0.166,0.075
-0.109,0.022,0.132,0.043,-0.121,0.077,-0.123,-0.211,-0.164,-0.057,0.171,0.072
-0.108,0.018,0.125,0.045,-0.116,0.071,-0.125,-0.216,-0.165,-0.056,0.169,0.065
-0.114,0.015,0.129,0.049,-0.122,0.072,-0.129,-0.219,-0.165,-0.05,0.171,0.067
-0.139,0.009,0.148,0.064,-0.143,0.078,-0.13,-0.217,-0.165,-0.045,0.169,0.07
-0.139,0.012,0.15,0.063,-0.144,0.081,-0.142,-0.21,-0.177,-0.039,0.172,0.073
-0.118,0.031,0.149,0.043,-0.134,0.09,-0.143,-0.207,-0.178,-0.034,0.196,0.075
-0.107,0.037,0.144,0.035,-0.126,0.09,-0.135,-0.202,-0.168,-0.029,0.203,0.081
-0.114,0.033,0.146,0.04,-0.13,0.089,-0.13,-0.197,-0.163,-0.024,0.206,0.083
-0.15,0.03,0.18,0.059,-0.165,0.105,-0.125,-0.196,-0.156,-0.021,0.21,0.079
-0.159,0.03,0.188,0.064,-0.174,0.109,-0.12,-0.2,-0.16,-0.018,0.21,0.087
-0.143,0.03,0.173,0.056,-0.158,0.101,-0.121,-0.202,-0.16,-0.014,0.21,0.083
-0.132,0.039,0.171,0.046,-0.151,0.105,-0.119,-0.205,-0.16,-0.009,0.207,0.09
-0.117,0.047,0.164,0.034,-0.141,0.105,-0.125,-0.209,-0.16,-0.021,0.203,0.113
-0.11,0.044,0.154,0.033,-0.133,0.099,-0.14,-0.21,-0.16,-0.044,0.211,0.116
-0.125,0.052,0.177,0.036,-0.151,0.114,-0.141,-0.214,-0.158,-0.05,0.23,0.114
-0.134,0.047,0.181,0.043,-0.157,0.114,-0.137,-0.215,-0.154,-0.05,0.233,0.116
-0.114,0.049,0.163,0.032,-0.139,0.105,-0.135,-0.216,-0.156,-0.05,0.233,0.114
-0.091,0.07,0.161,0.01,-0.126,0.115,-0.133,-0.219,-0.151,-0.05,0.25,0.117
-0.116,0.077,0.193,0.019,-0.155,0.134,-0.126,-0.22,-0.15,-0.051,0.257,0.134
-0.149,0.075,0.225,0.037,-0.187,0.149,-0.116,-0.218,-0.149,-0.043,0.252,0.134
-0.13,0.089,0.219,0.021,-0.175,0.154,-0.109,-0.206,-0.14,-0.028,0.271,0.147
-0.098,0.122,0.22,-0.012,-0.159,0.17,-0.102,-0.203,-0.122,-0.015,0.292,0.161
-0.081,0.134,0.215,-0.027,-0.148,0.174,-0.112,-0.205,-0.121,-0.016,0.297,0.159
-0.019,0.173,0.192,-0.077,-0.106,0.182,-0.137,-0.208,-0.135,-0.006,0.323,0.194
0.001,0.189,0.189,-0.095,-0.094,0.189,-0.162,-0.21,-0.135,0.007,0.33,0.194
-0.026,0.152,0.178,-0.063,-0.102,0.165,-0.167,-0.209,-0.134,-0.005,0.319,0.182
-0.016,0.118,0.133,-0.051,-0.074,0.125,-0.153,-0.218,-0.144,-0.035,0.313,0.173
-0.075,0.091,0.166,-0.008,-0.121,0.128,-0.15,-0.243,-0.165,-0.046,0.292,0.163
-0.103,0.082,0.185,0.011,-0.144,0.133,-0.139,-0.226,-0.165,-0.052,0.283,0.186
-0.103,0.06,0.163,0.022,-0.134,0.111,-0.135,-0.232,-0.187,-0.087,0.269,0.176
-0.123,0.072,0.195,0.025,-0.159,0.133,-0.127,-0.225,-0.167,-0.064,0.282,0.177
-0.121,0.05,0.171,0.035,-0.146,0.11,-0.117,-0.215,-0.173,-0.084,0.268,0.16
-0.143,0.068,0.21,0.037,-0.177,0.139,-0.115,-0.231,-0.166,-0.069,0.281,0.165
-0.167,0.043,0.21,0.062,-0.189,0.126,-0.087,-0.189,-0.152,-0.076,0.271,0.147
-0.154,0.048,0.203,0.053,-0.179,0.126,-0.045,-0.195,-0.157,-0.087,0.271,0.133
-0.127,0.068,0.195,0.029,-0.161,0.131,0.172,0.209,0.036,-0.002,0.294,0.136
0.104,0.251,0.147,-0.178,-0.022,0.199,0.055,0.319,0.259,0.256,0.566,0.364
0.535,0.85,0.314,-0.693,0.11,0.582,-0.472,-0.193,0.791,1.059,1.392,1.001
0.442,0.693,0.251,-0.567,0.095,0.472,-0.69,-0.723,0.447,0.794,1.258,0.94
0.053,0.177,0.124,-0.115,-0.036,0.15,-0.682,-1.106,-0.575,-0.203,0.438,0.395
-0.05,0.105,0.154,-0.028,-0.102,0.129,-0.398,-0.619,-0.396,-0.17,0.352,0.26
-0.078,0.053,0.13,0.012,-0.104,0.091,-0.105,-0.188,-0.149,-0.07,0.341,0.219
-0.09,0.09,0.18,0.0,-0.135,0.135,-0.08,-0.191,-0.167,-0.074,0.322,0.226
-0.095,0.088,0.182,0.003,-0.139,0.135,-0.051,-0.119,-0.112,-0.048,0.339,0.226
-0.096,0.09,0.185,0.003,-0.141,0.137,-0.044,-0.121,-0.139,-0.07,0.32,0.222
-0.092,0.101,0.193,-0.005,-0.143,0.147,-0.033,-0.071,-0.093,-0.042,0.34,0.228
-0.089,0.097,0.186,-0.004,-0.138,0.142,-0.023,-0.062,-0.098,-0.059,0.346,0.224
-0.096,0.114,0.21,-0.009,-0.154,0.162,-0.018,-0.043,-0.073,-0.037,0.384,0.233
-0.095,0.119,0.214,-0.012,-0.155,0.167,-0.004,-0.014,-0.059,-0.026,0.393,0.228
-0.068,0.134,0.202,-0.033,-0.135,0.168,0.005,0.019,-0.027,-0.006,0.4,0.237
-0.05,0.141,0.191,-0.045,-0.121,0.166,0.019,0.057,-0.001,0.004,0.407,0.255
-0.044,0.154,0.198,-0.055,-0.122,0.176,0.026,0.088,0.023,0.02,0.431,0.274
-0.031,0.17,0.202,-0.07,-0.117,0.186,0.038,0.141,0.065,0.059,0.453,0.28
0.006,0.196,0.189,-0.101,-0.092,0.192,0.047,0.184,0.094,0.086,0.478,0.302
0.032,0.211,0.18,-0.122,-0.074,0.195,0.046,0.227,0.134,0.107,0.515,0.331
0.054,0.228,0.173,-0.141,-0.06,0.2,0.045,0.255,0.158,0.127,0.535,0.346
0.088,0.252,0.164,-0.17,-0.038,0.208,0.045,0.255,0.165,0.148,0.56,0.375
0.099,0.259,0.161,-0.179,-0.031,0.21,0.045,0.246,0.16,0.152,0.575,0.385
0.104,0.25,0.146,-0.177,-0.021,0.198,0.046,0.232,0.151,0.138,0.566,0.376
0.084,0.244,0.16,-0.164,-0.038,0.202,0.043,0.197,0.135,0.132,0.558,0.371
0.043,0.238,0.196,-0.141,-0.077,0.216,0.038,0.133,0.098,0.106,0.543,0.367
0.045,0.224,0.179,-0.134,-0.067,0.201,0.032,0.06,0.047,0.06,0.516,0.353
0.01,0.202,0.191,-0.106,-0.091,0.196,0.029,-0.009,0.004,0.02,0.479,0.328
-0.051,0.164,0.215,-0.057,-0.133,0.19,0.024,-0.072,-0.032,-0.012,0.447,0.307
-0.053,0.14,0.193,-0.044,-0.123,0.166,0.02,-0.117,-0.065,-0.036,0.426,0.291
-0.055,0.137,0.192,-0.041,-0.124,0.164,0.02,-0.163,-0.09,-0.066,0.415,0.284
-0.049,0.131,0.18,-0.041,-0.114,0.155,0.02,-0.183,-0.099,-0.077,0.413,0.28
-0.051,0.128,0.179,-0.039,-0.116,0.154,0.02,-0.179,-0.095,-0.074,0.41,0.274
-0.091,0.121,0.212,-0.015,-0.152,0.167,0.02,-0.181,-0.092,-0.076,0.407,0.268
-0.085,0.122,0.206,-0.019,-0.146,0.164,0.02,-0.179,-0.088,-0.075,0.404,0.266
-0.092,0.124,0.216,-0.016,-0.155,0.17,0.022,-0.18,-0.084,-0.075,0.407,0.27
-0.102,0.126,0.228,-0.012,-0.166,0.177,0.025,-0.177,-0.08,-0.079,0.41,0.275
-0.079,0.139,0.218,-0.03,-0.148,0.179,0.028,-0.172,-0.08,-0.08,0.409,0.278
-0.079,0.14,0.219,-0.031,-0.149,0.18,0.031,-0.17,-0.08,-0.08,0.414,0.281
-0.069,0.143,0.212,-0.037,-0.141,0.177,0.035,-0.165,-0.08,-0.08,0.414,0.283
-0.064,0.146,0.21,-0.041,-0.138,0.178,0.035,-0.162,-0.08,-0.081,0.415,0.287
-0.071,0.142,0.213,-0.036,-0.142,0.177,0.031,-0.158,-0.08,-0.078,0.419,0.29
-0.078,0.14,0.218,-0.031,-0.148,0.179,0.028,-0.155,-0.08,-0.075,0.421,0.289
-0.08,0.14,0.219,-0.03,-0.149,0.179,0.025,-0.155,-0.08,-0.075,0.425,0.304
-0.074,0.14,0.214,-0.034,-0.144,0.176,0.023,-0.155,-0.08,-0.072,0.425,0.311
-0.071,0.14,0.211,-0.034,-0.141,0.176,0.019,-0.156,-0.08,-0.07,0.424,0.309
-0.066,0.14,0.206,-0.037,-0.136,0.173,0.022,-0.154,-0.08,-0.069,0.42,0.31
-0.06,0.145,0.205,-0.043,-0.133,0.174,0.025,-0.159,-0.081,-0.078,0.419,0.31
-0.051,0.146,0.197,-0.048,-0.124,0.172,0.026,-0.164,-0.077,-0.083,0.421,0.31
-0.061,0.151,0.213,-0.045,-0.137,0.182,0.031,-0.154,-0.068,-0.076,0.433,0.315
-0.089,0.154,0.243,-0.032,-0.167,0.198,0.03,-0.147,-0.059,-0.072,0.444,0.322
-0.09,0.155,0.245,-0.033,-0.168,0.2,0.037,-0.138,-0.051,-0.069,0.446,0.327
-0.077,0.183,0.26,-0.053,-0.169,0.221,0.047,-0.138,-0.045,-0.06,0.462,0.339
-0.056,0.208,0.263,-0.076,-0.16,0.235,0.042,-0.14,-0.041,-0.049,0.466,0.338
-0.021,0.234,0.255,-0.107,-0.138,0.245,0.022,-0.141,-0.043,-0.042,0.482,0.357
0.003,0.253,0.25,-0.128,-0.124,0.251,-0.014,-0.139,-0.046,-0.031,0.496,0.375
0.003,0.235,0.232,-0.119,-0.115,0.233,-0.028,-0.141,-0.054,-0.038,0.479,0.364
-0.025,0.205,0.23,-0.09,-0.128,0.217,-0.023,-0.15,-0.053,-0.056,0.476,0.361
-0.047,0.165,0.212,-0.059,-0.13,0.188,-0.022,-0.172,-0.076,-0.092,0.457,0.35
-0.069,0.149,0.218,-0.04,-0.143,0.183,0.009,-0.17,-0.079,-0.106,0.459,0.345
-0.06,0.131,0.191,-0.036,-0.126,0.161,0.009,-0.16,-0.088,-0.127,0.441,0.33
-0.068,0.139,0.207,-0.035,-0.138,0.172,0.017,-0.171,-0.088,-0.131,0.447,0.329
-0.113,0.123,0.235,-0.005,-0.174,0.179,0.061,-0.143,-0.075,-0.137,0.45,0.312
-0.098,0.127,0.225,-0.015,-0.161,0.176,0.056,-0.174,-0.094,-0.144,0.439,0.311
-0.107,0.121,0.227,-0.007,-0.167,0.174,0.064,-0.138,-0.054,-0.134,0.437,0.302
-0.099,0.118,0.216,-0.01,-0.158,0.167,0.062,-0.158,-0.109,-0.161,0.378,0.298
-0.109,0.158,0.268,-0.025,-0.189,0.213,0.254,0.127,0.042,-0.062,0.413,0.317
0.015,0.206,0.191,-0.11,-0.089,0.198,0.313,0.446,0.253,0.062,0.541,0.388
0.473,0.778,0.305,-0.626,0.084,0.541,-0.178,0.041,0.732,0.797,1.305,0.996
0.561,0.934,0.373,-0.748,0.093,0.654,-0.502,-0.495,0.803,1.008,1.601,1.232
0.177,0.365,0.188,-0.272,-0.006,0.277,-0.544,-1.009,-0.282,-0.042,0.756,0.671
-0.018,0.165,0.183,-0.074,-0.101,0.174,-0.374,-0.778,-0.472,-0.297,0.471,0.414
-0.041,0.114,0.155,-0.037,-0.098,0.134,-0.039,-0.195,-0.099,-0.12,0.495,0.363
-0.056,0.138,0.194,-0.041,-0.125,0.166,0.054,-0.128,-0.105,-0.15,0.449,0.335
-0.061,0.165,0.226,-0.052,-0.144,0.195,0.078,-0.059,-0.031,-0.104,0.486,0.354
-0.051,0.146,0.197,-0.048,-0.125,0.171,0.096,-0.057,-0.041,-0.125,0.457,0.343
-0.036,0.162,0.198,-0.064,-0.117,0.18,0.099,-0.032,0.001,-0.098,0.479,0.358
-0.059,0.155,0.214,-0.049,-0.137,0.184,0.115,0.003,0.021,-0.102,0.48,0.354
-0.047,0.18,0.228,-0.067,-0.138,0.204,0.113,0.011,0.021,-0.089,0.495,0.355
-0.025,0.18,0.206,-0.078,-0.116,0.193,0.124,0.047,0.045,-0.078,0.499,0.372
-0.03,0.189,0.219,-0.08,-0.125,0.204,0.134,0.07,0.067,-0.056,0.511,0.393
-0.004,0.2,0.204,-0.098,-0.104,0.202,0.161,0.107,0.09,-0.029,0.524,0.393
0.006,0.199,0.193,-0.103,-0.094,0.196,0.167,0.147,0.114,-0.016,0.541,0.402
0.004,0.216,0.212,-0.111,-0.104,0.214,0.175,0.202,0.151,0.004,0.569,0.415
0.029,0.241,0.212,-0.136,-0.092,0.227,0.182,0.24,0.173,0.02,0.578,0.421
0.061,0.253,0.193,-0.157,-0.066,0.223,0.178,0.28,0.197,0.045,0.592,0.441
0.068,0.271,0.203,-0.169,-0.068,0.237,0.177,0.325,0.236,0.075,0.619,0.469
0.084,0.296,0.212,-0.19,-0.065,0.254,0.174,0.338,0.254,0.091,0.645,0.49
0.116,0.317,0.201,-0.217,-0.043,0.259,0.175,0.327,0.248,0.082,0.656,0.5
0.121,0.318,0.196,-0.22,-0.038,0.257,0.168,0.318,0.237,0.072,0.649,0.496
0.114,0.309,0.195,-0.212,-0.041,0.252,0.161,0.283,0.229,0.063,0.644,0.485
0.113,0.307,0.194,-0.21,-0.041,0.25,0.154,0.223,0.21,0.048,0.637,0.473
0.081,0.281,0.199,-0.181,-0.06,0.24,0.146,0.155,0.153,0.012,0.61,0.463
0.026,0.241,0.215,-0.134,-0.095,0.227,0.139,0.077,0.097,-0.03,0.574,0.435
-0.006,0.209,0.215,-0.102,-0.111,0.212,0.135,0.01,0.048,-0.07,0.535,0.399
-0.023,0.192,0.215,-0.085,-0.119,0.203,0.135,-0.041,0.016,-0.103,0.503,0.376
-0.031,0.184,0.215,-0.077,-0.123,0.199,0.135,-0.071,0.006,-0.113,0.486,0.365
-0.04,0.176,0.216,-0.068,-0.128,0.195,0.135,-0.094,-0.01,-0.121,0.482,0.365
-0.046,0.166,0.212,-0.06,-0.13,0.189,0.135,-0.105,-0.025,-0.125,0.479,0.365
-0.046,0.166,0.212,-0.06,-0.13,0.189,0.135,-0.098,-0.026,-0.125,0.475,0.364
-0.062,0.164,0.227,-0.051,-0.145,0.195,0.135,-0.094,-0.021,-0.137,0.471,0.365
-0.058,0.165,0.223,-0.054,-0.141,0.194,0.135,-0.088,-0.019,-0.138,0.471,0.364
-0.028,0.192,0.22,-0.082,-0.124,0.206,0.135,-0.082,-0.014,-0.13,0.475,0.365
-0.018,0.199,0.217,-0.091,-0.118,0.208,0.135,-0.077,-0.011,-0.127,0.474,0.364
-0.028,0.187,0.214,-0.08,-0.121,0.2,0.135,-0.075,-0.007,-0.119,0.475,0.365
-0.029,0.184,0.213,-0.077,-0.122,0.198,0.133,-0.075,-0.003,-0.116,0.475,0.365
-0.03,0.175,0.205,-0.073,-0.118,0.19,0.129,-0.075,0.003,-0.115,0.474,0.365
-0.032,0.169,0.202,-0.069,-0.117,0.186,0.127,-0.075,0.006,-0.115,0.483,0.37
-0.01,0.183,0.193,-0.087,-0.102,0.188,0.123,-0.076,0.011,-0.115,0.486,0.374
-0.002,0.19,0.192,-0.094,-0.097,0.191,0.121,-0.08,0.016,-0.115,0.482,0.379
0.007,0.184,0.177,-0.096,-0.085,0.18,0.118,-0.08,0.008,-0.114,0.48,0.378
-0.001,0.18,0.181,-0.09,-0.091,0.18,0.129,-0.08,0.02,-0.118,0.476,0.372
-0.041,0.175,0.217,-0.068,-0.129,0.196,0.139,-0.08,0.03,-0.12,0.474,0.367
-0.036,0.178,0.214,-0.071,-0.125,0.195,0.129,-0.081,0.02,-0.12,0.471,0.364
-0.035,0.181,0.216,-0.073,-0.125,0.198,0.123,-0.078,0.014,-0.12,0.469,0.358
-0.028,0.181,0.209,-0.077,-0.119,0.195,0.113,-0.071,0.005,-0.12,0.47,0.355
0.005,0.186,0.181,-0.096,-0.088,0.183,0.113,-0.066,-0.002,-0.12,0.469,0.363
0.002,0.186,0.184,-0.094,-0.092,0.185,0.115,-0.061,-0.002,-0.112,0.47,0.371
0.014,0.194,0.179,-0.104,-0.083,0.186,0.115,-0.054,0.007,-0.104,0.471,0.375
0.046,0.219,0.173,-0.133,-0.064,0.195,0.126,-0.051,0.019,-0.094,0.484,0.374
0.064,0.229,0.165,-0.147,-0.051,0.197,0.131,-0.054,0.026,-0.093,0.5,0.391
0.12,0.28,0.159,-0.2,-0.02,0.219,0.108,-0.06,0.061,-0.095,0.522,0.419
0.132,0.284,0.152,-0.209,-0.01,0.218,0.062,-0.056,0.063,-0.096,0.526,0.417
0.121,0.233,0.112,-0.178,0.004,0.173,0.062,-0.045,0.03,-0.094,0.519,0.414
0.11,0.213,0.103,-0.163,0.003,0.158,0.077,-0.059,0.018,-0.111,0.503,0.402
0.052,0.179,0.127,-0.116,-0.038,0.153,0.072,-0.093,-0.006,-0.149,0.463,0.37
0.023,0.15,0.127,-0.086,-0.052,0.138,0.093,-0.067,-0.009,-0.158,0.444,0.354
0.016,0.133,0.117,-0.075,-0.051,0.125,0.1,-0.073,-0.031,-0.172,0.431,0.351
0.02,0.134,0.115,-0.077,-0.048,0.124,0.113,-0.055,-0.009,-0.156,0.436,0.352
-0.02,0.109,0.129,-0.045,-0.074,0.119,0.124,-0.048,-0.02,-0.175,0.412,0.34
-0.044,0.128,0.173,-0.042,-0.109,0.151,0.109,-0.051,-0.006,-0.171,0.424,0.349
-0.034,0.096,0.13,-0.032,-0.082,0.113,0.129,0.007,-0.001,-0.199,0.396,0.319
-0.053,0.123,0.176,-0.035,-0.114,0.149,0.195,0.028,0.009,-0.179,0.397,0.33
-0.022,0.139,0.162,-0.059,-0.092,0.15,0.414,0.452,0.218,-0.108,0.43,0.317
0.298,0.376,0.078,-0.337,0.11,0.227,0.246,0.505,0.47,0.205,0.781,0.592
0.704,0.952,0.247,-0.828,0.228,0.599,-0.288,0.035,1.011,0.987,1.585,1.192
0.514,0.696,0.182,-0.605,0.166,0.439,-0.463,-0.485,0.547,0.553,1.3,1.013
0.129,0.201,0.072,-0.165,0.028,0.136,-0.433,-0.869,-0.445,-0.406,0.493,0.492
0.064,0.176,0.112,-0.12,-0.024,0.143,-0.16,-0.345,-0.218,-0.34,0.435,0.372
0.059,0.147,0.088,-0.103,-0.015,0.118,0.107,0.037,0.004,-0.268,0.439,0.338
0.053,0.168,0.115,-0.111,-0.031,0.142,0.131,0.056,0.009,-0.253,0.435,0.348
0.041,0.162,0.122,-0.102,-0.041,0.141,0.175,0.145,0.06,-0.235,0.439,0.344
0.048,0.165,0.117,-0.106,-0.035,0.14,0.173,0.134,0.037,-0.255,0.426,0.344
0.047,0.169,0.122,-0.108,-0.038,0.146,0.175,0.191,0.075,-0.235,0.435,0.346
0.016,0.168,0.152,-0.092,-0.068,0.159,0.19,0.208,0.083,-0.253,0.437,0.345
0.02,0.172,0.152,-0.096,-0.066,0.162,0.186,0.245,0.109,-0.238,0.449,0.352
0.04,0.169,0.129,-0.104,-0.045,0.149,0.2,0.274,0.113,-0.236,0.443,0.348
0.035,0.18,0.145,-0.108,-0.056,0.163,0.215,0.308,0.138,-0.219,0.442,0.351
0.049,0.191,0.142,-0.12,-0.047,0.166,0.218,0.349,0.163,-0.209,0.457,0.35
0.071,0.191,0.12,-0.131,-0.025,0.155,0.219,0.388,0.192,-0.197,0.48,0.349
0.083,0.211,0.128,-0.147,-0.023,0.169,0.226,0.455,0.231,-0.183,0.489,0.363
0.124,0.233,0.108,-0.179,0.008,0.17,0.221,0.509,0.27,-0.173,0.509,0.377
0.11,0.228,0.118,-0.169,-0.004,0.173,0.233,0.559,0.308,-0.153,0.526,0.388
0.12,0.271,0.151,-0.196,-0.016,0.211,0.246,0.602,0.331,-0.132,0.553,0.415
0.151,0.292,0.141,-0.222,0.005,0.216,0.237,0.616,0.348,-0.124,0.559,0.421
0.133,0.283,0.15,-0.208,-0.009,0.216,0.235,0.603,0.358,-0.125,0.548,0.414
0.138,0.285,0.148,-0.212,-0.006,0.216,0.23,0.588,0.346,-0.127,0.545,0.412
0.132,0.285,0.153,-0.209,-0.011,0.219,0.226,0.565,0.331,-0.121,0.539,0.41
0.148,0.278,0.13,-0.214,0.009,0.204,0.221,0.525,0.285,-0.152,0.512,0.379
0.136,0.24,0.104,-0.188,0.015,0.172,0.214,0.474,0.22,-0.205,0.461,0.329
0.038,0.201,0.164,-0.12,-0.063,0.182,0.209,0.4,0.179,-0.249,0.417,0.296
-0.008,0.172,0.18,-0.083,-0.094,0.176,0.203,0.337,0.133,-0.3,0.375,0.266
0.0,0.156,0.156,-0.079,-0.078,0.156,0.197,0.303,0.09,-0.33,0.349,0.242
-0.014,0.143,0.157,-0.065,-0.086,0.15,0.192,0.275,0.071,-0.36,0.336,0.224
-0.019,0.134,0.154,-0.058,-0.087,0.143,0.186,0.27,0.079,-0.382,0.326,0.209
-0.005,0.135,0.141,-0.065,-0.074,0.138,0.18,0.269,0.081,-0.373,0.313,0.2
-0.02,0.134,0.154,-0.058,-0.087,0.144,0.196,0.27,0.079,-0.375,0.301,0.183
-0.03,0.136,0.166,-0.053,-0.098,0.15,0.208,0.27,0.081,-0.401,0.284,0.163
-0.027,0.133,0.161,-0.053,-0.095,0.147,0.203,0.264,0.079,-0.409,0.267,0.157
-0.044,0.144,0.188,-0.05,-0.116,0.165,0.209,0.291,0.08,-0.4,0.291,0.166
-0.039,0.151,0.191,-0.056,-0.115,0.171,0.21,0.302,0.08,-0.396,0.301,0.171
-0.038,0.149,0.187,-0.056,-0.113,0.168,0.209,0.309,0.087,-0.39,0.29,0.155
-0.046,0.15,0.196,-0.053,-0.121,0.173,0.206,0.327,0.092,-0.384,0.29,0.138
-0.043,0.15,0.193,-0.054,-0.118,0.171,0.194,0.326,0.095,-0.383,0.283,0.128
-0.041,0.15,0.192,-0.055,-0.117,0.171,0.211,0.333,0.103,-0.402,0.28,0.121
-0.042,0.146,0.188,-0.052,-0.116,0.167,0.223,0.342,0.105,-0.406,0.274,0.114
-0.048,0.145,0.193,-0.049,-0.121,0.169,0.213,0.351,0.106,-0.404,0.267,0.106
-0.056,0.139,0.195,-0.042,-0.125,0.167,0.207,0.354,0.104,-0.406,0.261,0.099
-0.059,0.14,0.199,-0.04,-0.13,0.169,0.2,0.358,0.106,-0.405,0.254,0.092
-0.07,0.133,0.202,-0.032,-0.137,0.167,0.191,0.362,0.103,-0.405,0.246,0.086
-0.068,0.137,0.205,-0.035,-0.137,0.171,0.202,0.366,0.105,-0.397,0.245,0.081
-0.058,0.154,0.212,-0.048,-0.135,0.183,0.219,0.388,0.116,-0.391,0.241,0.076
-0.043,0.152,0.195,-0.055,-0.119,0.173,0.205,0.389,0.124,-0.384,0.239,0.069
-0.022,0.183,0.206,-0.081,-0.114,0.194,0.215,0.395,0.122,-0.377,0.237,0.067
-0.025,0.199,0.224,-0.087,-0.125,0.211,0.231,0.412,0.077,-0.371,0.231,0.087
0.005,0.242,0.237,-0.123,-0.116,0.239,0.204,0.408,0.059,-0.365,0.268,0.113
0.025,0.253,0.229,-0.139,-0.102,0.241,0.178,0.411,0.061,-0.354,0.278,0.108
0.008,0.212,0.205,-0.11,-0.099,0.208,0.165,0.402,0.033,-0.35,0.245,0.093
0.003,0.204,0.2,-0.104,-0.099,0.202,0.163,0.407,0.034,-0.334,0.226,0.079
-0.007,0.182,0.189,-0.088,-0.099,0.185,0.172,0.405,0.018,-0.317,0.208,0.055
-0.044,0.165,0.209,-0.06,-0.127,0.187,0.193,0.415,0.024,-0.292,0.211,0.041
-0.065,0.142,0.207,-0.038,-0.136,0.174,0.202,0.422,0.01,-0.304,0.192,0.021
-0.063,0.144,0.208,-0.041,-0.136,0.176,0.21,0.414,0.007,-0.272,0.186,0.02
-0.063,0.126,0.189,-0.032,-0.126,0.157,0.217,0.445,0.008,-0.249,0.159,-0.004
-0.099,0.132,0.231,-0.017,-0.165,0.181,0.194,0.429,-0.038,-0.255,0.145,-0.006
-0.111,0.115,0.226,-0.002,-0.169,0.17,0.214,0.478,0.002,-0.245,0.125,-0.038
-0.081,0.133,0.214,-0.027,-0.148,0.173,0.246,0.473,-0.02,-0.283,0.11,-0.048
-0.105,0.111,0.216,-0.003,-0.161,0.164,0.462,0.855,0.183,-0.189,0.122,-0.043
0.083,0.269,0.186,-0.176,-0.052,0.227,0.46,1.053,0.463,0.092,0.364,0.151
0.343,0.932,0.589,-0.638,-0.123,0.761,-0.026,0.506,0.992,1.035,1.282,0.844
0.208,0.83,0.623,-0.519,-0.208,0.726,-0.183,0.11,0.878,1.003,1.253,0.82
-0.032,0.257,0.289,-0.113,-0.161,0.273,-0.158,-0.228,-0.321,-0.299,0.253,0.142
-0.102,0.177,0.279,-0.038,-0.191,0.227,-0.069,0.023,-0.392,-0.443,0.095,-0.023
-0.124,0.119,0.242,0.002,-0.183,0.18,0.186,0.491,-0.029,-0.241,0.14,-0.026
-0.11,0.149,0.259,-0.02,-0.185,0.204,0.251,0.545,-0.019,-0.25,0.114,-0.051
-0.088,0.179,0.267,-0.046,-0.178,0.223,0.25,0.597,0.063,-0.173,0.149,-0.05
-0.099,0.157,0.257,-0.029,-0.178,0.207,0.25,0.597,0.035,-0.207,0.13,-0.049
-0.089,0.176,0.265,-0.044,-0.177,0.22,0.249,0.649,0.102,-0.169,0.154,-0.038
-0.075,0.194,0.269,-0.06,-0.173,0.232,0.252,0.651,0.099,-0.171,0.142,-0.037
-0.098,0.194,0.292,-0.049,-0.195,0.243,0.249,0.67,0.124,-0.141,0.152,-0.028
-0.071,0.202,0.274,-0.065,-0.173,0.237,0.269,0.699,0.149,-0.141,0.159,-0.026
-0.071,0.219,0.29,-0.074,-0.181,0.254,0.288,0.715,0.157,-0.133,0.187,-0.017
-0.08,0.209,0.289,-0.064,-0.185,0.249,0.287,0.759,0.188,-0.1,0.194,-0.01
0.004,0.246,0.243,-0.125,-0.12,0.244,0.283,0.785,0.21,-0.066,0.195,0.021
-0.006,0.258,0.265,-0.126,-0.136,0.261,0.315,0.842,0.263,-0.024,0.23,0.035
-0.048,0.252,0.3,-0.102,-0.175,0.276,0.328,0.872,0.288,-0.012,0.231,0.038
-0.031,0.26,0.291,-0.115,-0.161,0.275,0.313,0.899,0.324,0.011,0.254,0.068
0.015,0.304,0.289,-0.159,-0.138,0.296,0.305,0.924,0.355,0.044,0.317,0.083
0.04,0.328,0.288,-0.185,-0.124,0.308,0.296,0.911,0.36,0.083,0.33,0.095
0.029,0.31,0.281,-0.17,-0.126,0.295,0.293,0.898,0.356,0.085,0.302,0.096
0.045,0.335,0.29,-0.19,-0.123,0.312,0.29,0.866,0.344,0.063,0.285,0.073
0.037,0.337,0.301,-0.187,-0.132,0.319,0.286,0.82,0.315,0.039,0.266,0.065
0.019,0.345,0.326,-0.183,-0.154,0.335,0.284,0.769,0.264,0.011,0.228,0.054
-0.028,0.314,0.342,-0.143,-0.186,0.328,0.279,0.699,0.212,-0.044,0.191,0.005
-0.068,0.264,0.332,-0.099,-0.2,0.298,0.273,0.648,0.147,-0.118,0.137,-0.029
-0.078,0.272,0.35,-0.097,-0.214,0.31,0.269,0.614,0.086,-0.153,0.084,-0.064
-0.121,0.237,0.358,-0.058,-0.24,0.297,0.265,0.586,0.065,-0.196,0.045,-0.103
-0.103,0.215,0.318,-0.056,-0.21,0.266,0.259,0.57,0.059,-0.223,0.013,-0.107
-0.055,0.207,0.262,-0.076,-0.158,0.234,0.266,0.555,0.045,-0.223,0.021,-0.096
-0.11,0.2,0.309,-0.045,-0.21,0.254,0.275,0.549,0.037,-0.221,0.03,-0.093
-0.125,0.229,0.354,-0.052,-0.24,0.291,0.265,0.549,0.022,-0.227,0.009,-0.161
-0.087,0.233,0.32,-0.073,-0.204,0.276,0.259,0.55,0.023,-0.258,-0.011,-0.174
-0.092,0.225,0.317,-0.067,-0.204,0.27,0.253,0.549,0.052,-0.239,-0.006,-0.118
-0.109,0.222,0.33,-0.057,-0.22,0.276,0.243,0.55,0.056,-0.23,0.007,-0.131
-0.125,0.214,0.339,-0.044,-0.233,0.276,0.268,0.548,0.055,-0.247,-0.021,-0.154
-0.119,0.211,0.33,-0.047,-0.224,0.27,0.284,0.543,0.051,-0.222,-0.018,-0.127
-0.124,0.223,0.347,-0.05,-0.236,0.285,0.27,0.537,0.068,-0.222,0.013,-0.117
-0.102,0.247,0.349,-0.073,-0.226,0.298,0.264,0.532,0.072,-0.215,-0.023,-0.146
-0.084,0.256,0.34,-0.086,-0.213,0.298,0.254,0.527,0.045,-0.204,-0.035,-0.152
-0.091,0.251,0.342,-0.08,-0.217,0.297,0.248,0.518,0.059,-0.217,-0.015,-0.154
-0.085,0.248,0.332,-0.082,-0.208,0.29,0.24,0.531,0.078,-0.21,-0.022,-0.161
-0.085,0.246,0.331,-0.081,-0.208,0.288,0.234,0.537,0.091,-0.207,-0.039,-0.155
-0.109,0.246,0.355,-0.068,-0.232,0.3,0.223,0.546,0.091,-0.203,-0.037,-0.147
-0.106,0.259,0.365,-0.077,-0.236,0.312,0.229,0.56,0.086,-0.193,-0.014,-0.139
-0.098,0.254,0.352,-0.078,-0.225,0.303,0.243,0.55,0.087,-0.189,-0.028,-0.131
-0.118,0.268,0.386,-0.076,-0.252,0.327,0.234,0.544,0.081,-0.18,-0.04,-0.125
-0.08,0.295,0.375,-0.108,-0.228,0.334,0.224,0.537,0.105,-0.174,-0.024,-0.125
-0.087,0.318,0.404,-0.116,-0.246,0.361,0.22,0.531,0.121,-0.177,-0.024,-0.124
-0.047,0.364,0.411,-0.159,-0.229,0.387,0.22,0.525,0.114,-0.185,-0.029,-0.122
-0.012,0.324,0.336,-0.156,-0.174,0.329,0.22,0.517,0.111,-0.175,-0.009,-0.11
-0.058,0.288,0.347,-0.115,-0.203,0.317,0.219,0.507,0.103,-0.172,0.012,-0.106
-0.037,0.259,0.296,-0.111,-0.167,0.278,0.22,0.507,0.112,-0.192,-0.027,-0.092
-0.107,0.221,0.328,-0.057,-0.218,0.274,0.22,0.516,0.108,-0.17,-0.033,-0.099
-0.124,0.215,0.339,-0.046,-0.232,0.277,0.207,0.538,0.103,-0.19,-0.056,-0.159
-0.095,0.213,0.308,-0.059,-0.202,0.26,0.205,0.522,0.079,-0.223,-0.094,-0.173
-0.112,0.189,0.301,-0.038,-0.207,0.245,0.249,0.54,0.111,-0.185,-0.067,-0.159
-0.106,0.167,0.273,-0.03,-0.19,0.219,0.251,0.531,0.106,-0.199,-0.086,-0.162
-0.145,0.209,0.354,-0.032,-0.25,0.281,0.252,0.533,0.106,-0.17,-0.073,-0.182
-0.109,0.162,0.272,-0.027,-0.191,0.217,0.257,0.544,0.115,-0.186,-0.09,-0.214
-0.134,0.184,0.317,-0.025,-0.226,0.25,0.34,0.662,0.203,-0.148,-0.101,-0.208
-0.105,0.195,0.3,-0.045,-0.203,0.248,0.533,1.071,0.536,0.028,-0.003,-0.15
0.122,0.689,0.566,-0.406,-0.222,0.627,0.186,0.663,0.791,0.609,0.561,0.297
0.172,1.155,0.984,-0.664,-0.406,1.069,-0.243,-0.056,0.846,1.165,1.106,0.718
-0.037,0.541,0.578,-0.252,-0.308,0.559,-0.169,-0.186,0.132,0.276,0.425,0.273
-0.159,0.177,0.336,-0.009,-0.248,0.256,-0.115,-0.104,-0.391,-0.477,-0.21,-0.156
-0.118,0.216,0.334,-0.049,-0.227,0.275,0.07,0.32,0.009,-0.228,-0.108,-0.127
-0.129,0.176,0.305,-0.024,-0.217,0.241,0.239,0.547,0.193,-0.129,-0.099,-0.173
-0.138,0.198,0.336,-0.031,-0.237,0.267,0.227,0.563,0.255,-0.071,-0.076,-0.181
-0.11,0.207,0.317,-0.049,-0.214,0.261,0.242,0.603,0.304,-0.045,-0.068,-0.146
-0.12,0.228,0.349,-0.054,-0.235,0.289,0.23,0.599,0.309,-0.068,-0.074,-0.141
-0.126,0.197,0.323,-0.036,-0.225,0.259,0.239,0.636,0.341,-0.077,-0.043,-0.13
-0.078,0.272,0.35,-0.098,-0.214,0.31,0.232,0.655,0.368,0.009,-0.004,-0.129
-0.031,0.286,0.317,-0.128,-0.174,0.302,0.237,0.679,0.409,0.01,0.015,-0.147
-0.061,0.264,0.325,-0.102,-0.193,0.294,0.275,0.704,0.417,0.008,0.022,-0.151
-0.088,0.281,0.369,-0.096,-0.229,0.324,0.281,0.708,0.426,0.035,0.002,-0.151
-0.081,0.255,0.337,-0.087,-0.209,0.296,0.279,0.728,0.463,0.047,0.028,-0.131
-0.055,0.283,0.338,-0.115,-0.197,0.311,0.273,0.771,0.513,0.129,0.088,-0.081
-0.013,0.303,0.316,-0.146,-0.165,0.309,0.262,0.803,0.529,0.13,0.096,-0.04
-0.016,0.297,0.313,-0.141,-0.165,0.305,0.253,0.85,0.594,0.163,0.14,-0.044
-0.007,0.327,0.334,-0.16,-0.171,0.33,0.242,0.87,0.627,0.187,0.156,-0.047
0.022,0.346,0.324,-0.184,-0.152,0.335,0.236,0.859,0.632,0.214,0.182,0.003
0.003,0.356,0.353,-0.179,-0.175,0.354,0.23,0.853,0.645,0.239,0.206,-0.006
-0.022,0.33,0.352,-0.154,-0.187,0.341,0.225,0.841,0.603,0.209,0.208,0.004
0.014,0.353,0.339,-0.183,-0.163,0.345,0.216,0.801,0.556,0.165,0.182,-0.004
0.024,0.408,0.385,-0.216,-0.181,0.396,0.2,0.746,0.503,0.106,0.12,-0.064
-0.012,0.34,0.352,-0.164,-0.182,0.346,0.183,0.688,0.442,0.049,0.072,-0.068
-0.013,0.315,0.329,-0.151,-0.171,0.322,0.175,0.624,0.39,-0.012,0.008,-0.136
-0.083,0.286,0.369,-0.102,-0.226,0.327,0.174,0.581,0.331,-0.072,-0.039,-0.174
-0.106,0.252,0.358,-0.073,-0.232,0.305,0.17,0.545,0.257,-0.124,-0.07,-0.173
-0.077,0.274,0.351,-0.099,-0.214,0.313,0.167,0.526,0.234,-0.151,-0.103,-0.215
-0.105,0.227,0.332,-0.061,-0.219,0.279,0.165,0.523,0.265,-0.167,-0.142,-0.197
-0.104,0.215,0.319,-0.056,-0.212,0.266,0.162,0.517,0.267,-0.183,-0.166,-0.204
-0.068,0.255,0.324,-0.094,-0.196,0.289,0.158,0.51,0.269,-0.163,-0.154,-0.241
-0.055,0.25,0.304,-0.098,-0.18,0.277,0.152,0.504,0.272,-0.16,-0.162,-0.24
-0.096,0.232,0.327,-0.068,-0.212,0.279,0.149,0.498,0.249,-0.198,-0.147,-0.211
-0.085,0.246,0.331,-0.081,-0.209,0.288,0.142,0.489,0.247,-0.182,-0.13,-0.208
-0.069,0.253,0.322,-0.092,-0.196,0.287,0.142,0.504,0.261,-0.186,-0.135,-0.256
-0.087,0.24,0.327,-0.076,-0.207,0.283,0.166,0.514,0.26,-0.178,-0.133,-0.253
-0.086,0.227,0.313,-0.071,-0.199,0.27,0.176,0.517,0.252,-0.166,-0.146,-0.241
-0.091,0.258,0.349,-0.084,-0.22,0.303,0.163,0.532,0.26,-0.17,-0.137,-0.243
-0.115,0.26,0.375,-0.073,-0.245,0.317,0.158,0.528,0.24,-0.182,-0.14,-0.234
-0.111,0.244,0.355,-0.067,-0.233,0.3,0.147,0.519,0.249,-0.186,-0.109,-0.236
-0.091,0.254,0.345,-0.082,-0.218,0.299,0.138,0.515,0.262,-0.161,-0.105,-0.234
-0.093,0.257,0.35,-0.082,-0.222,0.303,0.157,0.504,0.226,-0.18,-0.133,-0.252
-0.067,0.287,0.354,-0.111,-0.211,0.321,0.174,0.5,0.266,-0.157,-0.111,-0.25
-0.081,0.294,0.375,-0.107,-0.228,0.334,0.159,0.519,0.268,-0.167,-0.131,-0.208
-0.101,0.306,0.407,-0.103,-0.254,0.356,0.165,0.519,0.251,-0.187,-0.137,-0.207
-0.099,0.288,0.387,-0.094,-0.243,0.337,0.187,0.51,0.297,-0.169,-0.129,-0.22
-0.072,0.341,0.413,-0.134,-0.243,0.377,0.144,0.504,0.309,-0.181,-0.133,-0.2
-0.027,0.405,0.433,-0.189,-0.23,0.419,0.117,0.498,0.306,-0.179,-0.129,-0.194
-0.037,0.342,0.379,-0.153,-0.209,0.361,0.111,0.49,0.3,-0.127,-0.09,-0.175
-0.051,0.315,0.367,-0.132,-0.209,0.341,0.115,0.484,0.293,-0.115,-0.08,-0.171
-0.056,0.274,0.33,-0.109,-0.193,0.301,0.141,0.478,0.245,-0.179,-0.136,-0.213
-0.107,0.224,0.331,-0.059,-0.219,0.277,0.139,0.468,0.245,-0.173,-0.134,-0.236
-0.158,0.178,0.336,-0.01,-0.247,0.257,0.133,0.47,0.258,-0.229,-0.181,-0.249
-0.13,0.195,0.325,-0.033,-0.227,0.26,0.147,0.475,0.242,-0.256,-0.203,-0.242
-0.116,0.186,0.302,-0.035,-0.209,0.244,0.185,0.504,0.254,-0.223,-0.183,-0.243
-0.112,0.167,0.279,-0.028,-0.196,0.223,0.18,0.47,0.226,-0.243,-0.2,-0.24
-0.084,0.192,0.276,-0.054,-0.181,0.234,0.192,0.501,0.255,-0.203,-0.172,-0.237
-0.113,0.162,0.275,-0.024,-0.194,0.218,0.201,0.509,0.217,-0.258,-0.205,-0.283
-0.108,0.173,0.282,-0.033,-0.195,0.228,0.374,0.799,0.447,-0.155,-0.187,-0.304
0.019,0.328,0.308,-0.174,-0.145,0.318,0.395,0.959,0.747,0.157,0.071,-0.113
0.151,0.98,0.829,-0.566,-0.339,0.905,-0.163,0.151,0.798,0.78,0.742,0.451
0.091,0.989,0.898,-0.541,-0.404,0.943,-0.383,-0.318,0.521,0.766,0.789,0.512
-0.062,0.279,0.341,-0.109,-0.202,0.31,-0.229,-0.235,-0.233,-0.334,-0.069,-0.048
-0.149,0.134,0.283,0.007,-0.216,0.208,-0.115,0.023,-0.228,-0.537,-0.29,-0.243
-0.169,0.106,0.276,0.031,-0.223,0.19,0.112,0.43,0.179,-0.265,-0.184,-0.247
-0.109,0.149,0.258,-0.02,-0.184,0.203,0.189,0.518,0.251,-0.277,-0.188,-0.248
-0.06,0.2,0.26,-0.07,-0.161,0.23,0.192,0.555,0.322,-0.197,-0.134,-0.23
-0.052,0.168,0.22,-0.058,-0.136,0.194,0.206,0.566,0.308,-0.215,-0.161,-0.239
-0.056,0.187,0.243,-0.065,-0.15,0.215,0.219,0.575,0.342,-0.186,-0.142,-0.227
-0.064,0.168,0.231,-0.052,-0.148,0.199,0.241,0.605,0.356,-0.183,-0.148,-0.231
-0.096,0.17,0.266,-0.038,-0.181,0.218,0.23,0.592,0.379,-0.165,-0.145,-0.223
-0.079,0.181,0.26,-0.051,-0.17,0.22,0.234,0.616,0.407,-0.127,-0.141,-0.219
-0.024,0.209,0.233,-0.092,-0.129,0.22,0.226,0.656,0.42,-0.118,-0.124,-0.217
-0.038,0.211,0.25,-0.087,-0.144,0.23,0.242,0.689,0.455,-0.095,-0.101,-0.209
-0.056,0.212,0.268,-0.078,-0.162,0.239,0.261,0.705,0.472,-0.074,-0.081,-0.201
-0.044,0.224,0.268,-0.09,-0.157,0.246,0.259,0.739,0.513,-0.05,-0.039,-0.187
-0.007,0.254,0.262,-0.124,-0.135,0.258,0.261,0.787,0.555,-0.017,-0.018,-0.145
0.005,0.265,0.26,-0.135,-0.128,0.262,0.258,0.817,0.601,0.027,0.001,-0.121
0.025,0.28,0.255,-0.153,-0.116,0.268,0.268,0.838,0.636,0.06,0.027,-0.103
0.057,0.312,0.255,-0.185,-0.099,0.283,0.259,0.826,0.63,0.078,0.056,-0.082
0.038,0.31,0.272,-0.174,-0.118,0.291,0.236,0.807,0.593,0.087,0.071,-0.087
0.035,0.304,0.268,-0.17,-0.117,0.286,0.224,0.773,0.542,0.069,0.061,-0.077
0.03,0.293,0.263,-0.162,-0.116,0.278,0.21,0.691,0.488,0.028,0.018,-0.084
0.016,0.289,0.273,-0.153,-0.129,0.281,0.202,0.621,0.429,-0.018,-0.023,-0.11
0.024,0.265,0.241,-0.145,-0.109,0.253,0.196,0.547,0.356,-0.095,-0.068,-0.138
0.007,0.217,0.209,-0.112,-0.101,0.213,0.189,0.48,0.293,-0.157,-0.128,-0.179
-0.029,0.192,0.221,-0.082,-0.125,0.206,0.182,0.441,0.246,-0.208,-0.163,-0.204
-0.048,0.181,0.229,-0.066,-0.139,0.204,0.176,0.399,0.207,-0.247,-0.208,-0.227
-0.022,0.175,0.197,-0.077,-0.109,0.185,0.172,0.387,0.205,-0.258,-0.229,-0.245
-0.026,0.17,0.196,-0.072,-0.111,0.183,0.169,0.355,0.196,-0.283,-0.222,-0.245
-0.054,0.164,0.218,-0.056,-0.136,0.191,0.165,0.329,0.185,-0.291,-0.23,-0.245
-0.04,0.158,0.198,-0.059,-0.12,0.178,0.162,0.334,0.198,-0.287,-0.229,-0.244
-0.042,0.156,0.198,-0.057,-0.121,0.177,0.158,0.314,0.194,-0.284,-0.232,-0.246
-0.037,0.16,0.197,-0.062,-0.117,0.178,0.153,0.306,0.193,-0.279,-0.235,-0.243
-0.023,0.16,0.182,-0.069,-0.102,0.171,0.147,0.301,0.19,-0.277,-0.235,-0.24
-0.019,0.16,0.179,-0.071,-0.099,0.169,0.142,0.297,0.189,-0.272,-0.235,-0.24
-0.01,0.16,0.17,-0.075,-0.09,0.165,0.137,0.294,0.195,-0.27,-0.235,-0.235
-0.001,0.166,0.166,-0.083,-0.084,0.166,0.128,0.284,0.192,-0.259,-0.235,-0.235
0.018,0.178,0.16,-0.098,-0.071,0.169,0.145,0.275,0.214,-0.244,-0.229,-0.23
0.022,0.175,0.154,-0.099,-0.066,0.165,0.159,0.265,0.229,-0.233,-0.216,-0.22
0.015,0.173,0.158,-0.095,-0.072,0.166,0.134,0.264,0.212,-0.222,-0.205,-0.213
0.023,0.17,0.147,-0.097,-0.062,0.158,0.135,0.265,0.217,-0.214,-0.199,-0.204
0.003,0.166,0.163,-0.085,-0.08,0.164,0.147,0.263,0.225,-0.209,-0.194,-0.198
-0.015,0.166,0.181,-0.076,-0.099,0.174,0.144,0.254,0.224,-0.204,-0.19,-0.192
-0.004,0.167,0.171,-0.082,-0.087,0.169,0.145,0.24,0.226,-0.197,-0.185,-0.187
0.041,0.209,0.167,-0.125,-0.063,0.188,0.139,0.233,0.221,-0.193,-0.181,-0.182
0.052,0.212,0.159,-0.132,-0.054,0.185,0.141,0.21,0.218,-0.186,-0.174,-0.174
0.025,0.21,0.185,-0.118,-0.08,0.198,0.133,0.198,0.213,-0.178,-0.19,-0.184
0.078,0.274,0.196,-0.177,-0.059,0.235,0.094,0.177,0.211,-0.166,-0.207,-0.181
0.104,0.27,0.167,-0.187,-0.032,0.218,0.084,0.146,0.206,-0.165,-0.204,-0.167
0.087,0.231,0.143,-0.159,-0.028,0.187,0.087,0.153,0.203,-0.166,-0.205,-0.157
0.063,0.18,0.117,-0.122,-0.027,0.149,0.096,0.149,0.19,-0.162,-0.204,-0.165
0.034,0.156,0.123,-0.095,-0.045,0.139,0.114,0.126,0.165,-0.177,-0.213,-0.195
0.026,0.132,0.106,-0.08,-0.04,0.119,0.117,0.129,0.172,-0.183,-0.229,-0.21
-0.002,0.098,0.1,-0.048,-0.051,0.099,0.114,0.112,0.151,-0.188,-0.234,-0.211
0.008,0.1,0.092,-0.055,-0.042,0.096,0.123,0.12,0.165,-0.167,-0.231,-0.207
0.016,0.072,0.056,-0.045,-0.02,0.064,0.118,0.108,0.137,-0.183,-0.239,-0.216
-0.022,0.091,0.113,-0.035,-0.067,0.101,0.124,0.107,0.158,-0.156,-0.218,-0.21
-0.015,0.046,0.061,-0.016,-0.038,0.053,0.127,0.108,0.155,-0.176,-0.257,-0.237
-0.027,0.069,0.096,-0.021,-0.062,0.083,0.215,0.19,0.196,-0.168,-0.256,-0.236
0.02,0.086,0.066,-0.054,-0.023,0.076,0.409,0.573,0.519,-0.013,-0.175,-0.196
0.249,0.561,0.312,-0.405,-0.032,0.436,0.042,0.226,0.766,0.497,0.332,0.239
0.361,1.192,0.83,-0.777,-0.235,1.011,-0.485,-0.518,1.0,1.237,1.022,0.785
0.175,0.587,0.412,-0.381,-0.119,0.5,-0.454,-0.67,0.406,0.561,0.5,0.397
0.005,0.045,0.04,-0.025,-0.018,0.042,-0.33,-0.596,-0.291,-0.371,-0.243,-0.109
-0.005,0.088,0.093,-0.041,-0.049,0.09,-0.097,-0.211,0.041,-0.2,-0.228,-0.158
0.009,0.042,0.033,-0.026,-0.012,0.037,0.109,0.043,0.226,-0.12,-0.213,-0.184
0.018,0.078,0.06,-0.048,-0.022,0.069,0.111,0.046,0.242,-0.092,-0.204,-0.165
0.029,0.061,0.031,-0.045,-0.001,0.046,0.126,0.064,0.251,-0.084,-0.205,-0.17
0.036,0.074,0.038,-0.055,-0.001,0.056,0.123,0.051,0.24,-0.093,-0.202,-0.163
0.03,0.064,0.034,-0.047,-0.002,0.049,0.126,0.068,0.286,-0.062,-0.186,-0.159
0.056,0.074,0.018,-0.065,0.018,0.046,0.124,0.063,0.273,-0.069,-0.187,-0.157
0.033,0.092,0.059,-0.063,-0.013,0.076,0.148,0.083,0.302,-0.037,-0.172,-0.144
0.021,0.088,0.067,-0.054,-0.023,0.077,0.169,0.105,0.312,-0.019,-0.169,-0.141
0.053,0.098,0.045,-0.076,0.004,0.071,0.161,0.125,0.331,0.008,-0.151,-0.129
0.062,0.099,0.037,-0.081,0.012,0.068,0.172,0.145,0.36,0.02,-0.143,-0.125
0.09,0.119,0.029,-0.104,0.03,0.074,0.177,0.171,0.399,0.049,-0.123,-0.108
0.086,0.123,0.037,-0.105,0.024,0.08,0.203,0.22,0.441,0.092,-0.104,-0.084
0.081,0.141,0.06,-0.111,0.01,0.1,0.224,0.265,0.491,0.142,-0.077,-0.062
0.072,0.163,0.091,-0.117,-0.01,0.127,0.211,0.291,0.54,0.194,-0.026,-0.043
0.083,0.185,0.103,-0.134,-0.01,0.144,0.203,0.301,0.561,0.254,0.003,-0.017
0.112,0.205,0.093,-0.159,0.009,0.149,0.191,0.299,0.56,0.279,0.025,0.017
0.105,0.198,0.094,-0.152,0.005,0.145,0.175,0.272,0.532,0.284,0.029,0.03
0.096,0.185,0.089,-0.141,0.003,0.137,0.16,0.217,0.5,0.31,0.02,0.032
0.09,0.177,0.086,-0.134,0.002,0.132,0.143,0.139,0.438,0.307,0.007,0.023
0.07,0.155,0.085,-0.113,-0.008,0.12,0.124,0.048,0.355,0.295,-0.05,-0.005
0.045,0.123,0.078,-0.085,-0.017,0.1,0.102,-0.036,0.28,0.29,-0.107,-0.032
0.015,0.076,0.06,-0.046,-0.023,0.068,0.083,-0.112,0.203,0.272,-0.164,-0.072
-0.007,0.039,0.046,-0.016,-0.027,0.042,0.067,-0.171,0.145,0.244,-0.208,-0.101
-0.029,0.005,0.034,0.012,-0.032,0.019,0.052,-0.213,0.101,0.224,-0.225,-0.115
-0.071,-0.041,0.03,0.055,-0.05,-0.005,0.043,-0.247,0.062,0.213,-0.253,-0.134
-0.057,-0.04,0.017,0.048,-0.037,-0.011,0.033,-0.286,0.041,0.199,-0.261,-0.135
-0.076,-0.06,0.016,0.067,-0.046,-0.022,0.026,-0.307,0.034,0.191,-0.259,-0.135
-0.084,-0.085,-0.001,0.085,-0.041,-0.043,0.015,-0.303,0.028,0.18,-0.26,-0.135
-0.05,-0.077,-0.028,0.064,-0.011,-0.052,0.004,-0.329,0.022,0.17,-0.259,-0.135
-0.095,-0.081,0.014,0.088,-0.055,-0.033,0.024,-0.343,0.017,0.186,-0.26,-0.135
-0.078,-0.08,-0.002,0.079,-0.038,-0.04,0.029,-0.342,0.011,0.19,-0.256,-0.128
-0.044,-0.079,-0.036,0.062,-0.004,-0.057,0.017,-0.349,0.006,0.184,-0.255,-0.117
-0.086,-0.085,0.001,0.085,-0.043,-0.041,0.014,-0.349,0.001,0.183,-0.255,-0.11
-0.096,-0.09,0.006,0.093,-0.051,-0.041,0.005,-0.356,-0.013,0.176,-0.255,-0.11
-0.092,-0.099,-0.007,0.096,-0.042,-0.053,0.0,-0.353,-0.013,0.175,-0.255,-0.11
-0.075,-0.113,-0.038,0.094,-0.018,-0.075,-0.005,-0.369,-0.021,0.168,-0.256,-0.11
-0.047,-0.117,-0.07,0.082,0.012,-0.093,-0.005,-0.389,-0.045,0.163,-0.26,-0.11
-0.066,-0.119,-0.052,0.093,-0.007,-0.085,-0.006,-0.382,-0.045,0.154,-0.26,-0.11
-0.062,-0.121,-0.06,0.092,-0.001,-0.09,-0.011,-0.397,-0.045,0.152,-0.26,-0.11
-0.055,-0.128,-0.073,0.091,0.01,-0.1,-0.009,-0.407,-0.046,0.13,-0.26,-0.11
-0.072,-0.133,-0.061,0.103,-0.005,-0.097,-0.013,-0.415,-0.045,0.08,-0.26,-0.11
-0.073,-0.146,-0.073,0.11,0.0,-0.109,-0.019,-0.438,-0.046,0.073,-0.256,-0.11
-0.058,-0.161,-0.103,0.11,0.022,-0.131,-0.025,-0.44,-0.062,0.069,-0.25,-0.11
-0.051,-0.152,-0.101,0.102,0.025,-0.127,-0.039,-0.457,-0.075,0.086,-0.246,-0.108
-0.067,-0.146,-0.079,0.106,0.006,-0.112,-0.042,-0.471,-0.079,0.12,-0.24,-0.101
-0.062,-0.139,-0.078,0.101,0.008,-0.109,-0.034,-0.468,-0.091,0.12,-0.232,-0.096
-0.061,-0.131,-0.071,0.096,0.005,-0.101,-0.027,-0.476,-0.089,0.147,-0.234,-0.09
-0.038,-0.119,-0.082,0.079,0.022,-0.1,-0.025,-0.471,-0.09,0.157,-0.238,-0.085
-0.032,-0.108,-0.076,0.07,0.022,-0.092,-0.026,-0.499,-0.09,0.148,-0.228,-0.074
-0.036,-0.109,-0.072,0.073,0.018,-0.09,-0.055,-0.533,-0.09,0.173,-0.211,-0.051
-0.022,-0.114,-0.092,0.069,0.035,-0.103,-0.091,-0.545,-0.087,0.175,-0.218,-0.05
-0.016,-0.117,-0.101,0.066,0.043,-0.109,-0.085,-0.554,-0.074,0.16,-0.218,-0.052
0.017,-0.142,-0.159,0.063,0.088,-0.15,-0.079,-0.558,-0.105,0.116,-0.242,-0.062
-0.013,-0.173,-0.16,0.093,0.074,-0.166,-0.076,-0.581,-0.137,0.07,-0.266,-0.08
-0.039,-0.21,-0.171,0.125,0.067,-0.19,-0.066,-0.566,-0.129,0.075,-0.257,-0.094
-0.019,-0.223,-0.204,0.121,0.093,-0.213,-0.067,-0.573,-0.157,0.079,-0.286,-0.11
-0.035,-0.22,-0.185,0.128,0.076,-0.202,-0.054,-0.56,-0.133,0.097,-0.286,-0.101
-0.053,-0.26,-0.207,0.157,0.077,-0.233,-0.054,-0.562,-0.157,0.067,-0.297,-0.111
-0.044,-0.224,-0.18,0.134,0.069,-0.202,-0.043,-0.562,-0.136,0.087,-0.28,-0.098
-0.086,-0.289,-0.203,0.188,0.059,-0.246,-0.039,-0.556,-0.149,0.057,-0.302,-0.112
-0.143,-0.274,-0.13,0.209,-0.006,-0.202,0.084,-0.47,-0.131,0.071,-0.286,-0.116
-0.03,-0.215,-0.185,0.123,0.078,-0.2,0.269,-0.063,0.131,0.201,-0.219,-0.082
0.274,0.206,-0.068,-0.24,0.171,0.069,-0.136,-0.314,0.433,0.68,0.261,0.335
0.455,0.777,0.321,-0.616,0.067,0.549,-0.731,-1.013,0.867,1.444,1.014,0.918
0.252,0.202,-0.05,-0.227,0.151,0.076,-0.873,-1.351,0.204,0.786,0.529,0.564
0.053,-0.32,-0.373,0.134,0.213,-0.346,-0.662,-1.299,-0.618,-0.119,-0.221,0.054
0.007,-0.286,-0.293,0.14,0.151,-0.29,-0.243,-0.751,-0.248,0.056,-0.235,0.008
-0.044,-0.336,-0.292,0.191,0.125,-0.314,-0.07,-0.524,-0.135,0.09,-0.251,-0.062
-0.041,-0.3,-0.259,0.171,0.109,-0.279,-0.076,-0.526,-0.146,0.086,-0.241,-0.071
-0.055,-0.323,-0.268,0.189,0.107,-0.296,-0.049,-0.48,-0.107,0.096,-0.268,-0.081
-0.044,-0.311,-0.268,0.178,0.113,-0.289,-0.049,-0.501,-0.128,0.075,-0.269,-0.076
-0.014,-0.315,-0.3,0.165,0.144,-0.307,-0.034,-0.464,-0.089,0.096,-0.254,-0.065
-0.026,-0.317,-0.291,0.172,0.133,-0.304,-0.029,-0.452,-0.104,0.067,-0.259,-0.064
-0.033,-0.312,-0.279,0.172,0.124,-0.295,-0.02,-0.414,-0.073,0.038,-0.244,-0.051
-0.035,-0.318,-0.283,0.176,0.125,-0.3,-0.015,-0.389,-0.069,-0.005,-0.244,-0.051
-0.036,-0.312,-0.276,0.174,0.12,-0.293,-0.01,-0.366,-0.04,0.0,-0.227,-0.041
-0.031,-0.315,-0.284,0.173,0.127,-0.299,-0.003,-0.319,-0.015,0.056,-0.219,-0.038
-0.013,-0.289,-0.276,0.151,0.132,-0.282,0.012,-0.272,0.013,0.127,-0.195,-0.031
0.016,-0.267,-0.283,0.125,0.15,-0.275,0.03,-0.218,0.057,0.177,-0.164,-0.019
0.017,-0.254,-0.271,0.119,0.144,-0.262,0.04,-0.156,0.092,0.218,-0.133,0.003
0.035,-0.238,-0.273,0.102,0.154,-0.255,0.048,-0.112,0.133,0.265,-0.107,0.023
0.105,-0.216,-0.32,0.056,0.213,-0.268,0.051,-0.083,0.154,0.302,-0.087,0.039
0.128,-0.197,-0.325,0.035,0.226,-0.261,0.048,-0.074,0.163,0.319,-0.07,0.062
0.111,-0.206,-0.317,0.048,0.214,-0.262,0.035,-0.074,0.154,0.317,-0.071,0.07
0.089,-0.226,-0.315,0.069,0.203,-0.271,0.006,-0.084,0.121,0.312,-0.07,0.056
0.092,-0.222,-0.315,0.066,0.204,-0.269,-0.027,-0.153,0.077,0.29,-0.072,0.049
0.09,-0.24,-0.329,0.075,0.21,-0.284,-0.036,-0.244,0.005,0.23,-0.103,0.034
0.064,-0.271,-0.335,0.104,0.2,-0.303,-0.055,-0.334,-0.069,0.183,-0.163,0.005
0.011,-0.31,-0.321,0.15,0.167,-0.316,-0.069,-0.41,-0.129,0.135,-0.214,-0.024
-0.03,-0.357,-0.327,0.194,0.149,-0.342,-0.086,-0.474,-0.192,0.072,-0.249,-0.061
-0.003,-0.379,-0.375,0.192,0.186,-0.377,-0.097,-0.52,-0.231,0.03,-0.276,-0.087
-0.018,-0.412,-0.394,0.215,0.188,-0.403,-0.109,-0.544,-0.249,0.006,-0.292,-0.107
-0.025,-0.421,-0.396,0.223,0.186,-0.408,-0.133,-0.558,-0.27,-0.01,-0.311,-0.131
-0.034,-0.426,-0.393,0.23,0.179,-0.409,-0.132,-0.554,-0.277,-0.012,-0.316,-0.135
-0.07,-0.451,-0.381,0.261,0.155,-0.415,-0.135,-0.555,-0.279,-0.008,-0.315,-0.135
-0.05,-0.449,-0.399,0.25,0.174,-0.424,-0.132,-0.555,-0.276,-0.006,-0.315,-0.135
-0.024,-0.45,-0.426,0.237,0.201,-0.438,-0.127,-0.554,-0.271,-0.003,-0.316,-0.135
-0.041,-0.45,-0.409,0.246,0.184,-0.429,-0.124,-0.554,-0.269,0.001,-0.313,-0.135
-0.041,-0.449,-0.409,0.245,0.184,-0.429,-0.121,-0.547,-0.264,-0.005,-0.313,-0.138
-0.02,-0.45,-0.43,0.235,0.205,-0.44,-0.115,-0.543,-0.261,-0.016,-0.328,-0.14
-0.042,-0.449,-0.408,0.246,0.183,-0.428,-0.121,-0.537,-0.257,-0.015,-0.331,-0.14
-0.032,-0.45,-0.418,0.241,0.193,-0.434,-0.136,-0.531,-0.255,-0.011,-0.328,-0.14
-0.013,-0.449,-0.436,0.232,0.211,-0.443,-0.135,-0.526,-0.252,-0.01,-0.326,-0.14
-0.025,-0.45,-0.425,0.238,0.2,-0.437,-0.133,-0.521,-0.249,-0.005,-0.324,-0.14
-0.038,-0.449,-0.411,0.244,0.187,-0.43,-0.13,-0.519,-0.245,-0.005,-0.324,-0.14
-0.036,-0.466,-0.43,0.251,0.197,-0.448,-0.13,-0.516,-0.246,0.001,-0.319,-0.141
-0.027,-0.48,-0.452,0.254,0.213,-0.465,-0.132,-0.513,-0.248,0.002,-0.32,-0.139
-0.039,-0.479,-0.441,0.259,0.201,-0.46,-0.15,-0.51,-0.261,-0.018,-0.333,-0.151
-0.045,-0.48,-0.435,0.263,0.195,-0.457,-0.168,-0.51,-0.271,-0.031,-0.342,-0.161
-0.038,-0.48,-0.443,0.259,0.203,-0.461,-0.163,-0.52,-0.265,-0.029,-0.342,-0.16
-0.022,-0.497,-0.475,0.26,0.226,-0.485,-0.166,-0.525,-0.263,-0.031,-0.346,-0.165
-0.039,-0.504,-0.465,0.272,0.214,-0.484,-0.165,-0.525,-0.258,-0.036,-0.349,-0.165
-0.057,-0.513,-0.456,0.285,0.2,-0.484,-0.164,-0.525,-0.254,-0.034,-0.351,-0.169
-0.028,-0.519,-0.491,0.274,0.231,-0.505,-0.176,-0.524,-0.261,-0.042,-0.357,-0.169
-0.013,-0.506,-0.493,0.26,0.24,-0.5,-0.186,-0.525,-0.256,-0.044,-0.356,-0.165
-0.022,-0.505,-0.484,0.264,0.231,-0.494,-0.185,-0.522,-0.244,-0.034,-0.355,-0.165
0.003,-0.482,-0.485,0.24,0.244,-0.483,-0.183,-0.5,-0.235,-0.028,-0.355,-0.165
0.038,-0.455,-0.493,0.208,0.266,-0.474,-0.188,-0.479,-0.225,-0.02,-0.355,-0.164
0.025,-0.446,-0.472,0.211,0.248,-0.459,-0.178,-0.481,-0.225,-0.017,-0.353,-0.165
0.075,-0.408,-0.483,0.167,0.28,-0.446,-0.204,-0.478,-0.223,-0.008,-0.345,-0.168
0.142,-0.401,-0.542,0.129,0.342,-0.471,-0.247,-0.487,-0.217,-0.024,-0.339,-0.174
0.098,-0.442,-0.54,0.172,0.319,-0.491,-0.241,-0.514,-0.225,-0.019,-0.326,-0.178
0.085,-0.486,-0.57,0.201,0.328,-0.528,-0.232,-0.505,-0.257,-0.027,-0.349,-0.177
0.071,-0.517,-0.588,0.223,0.33,-0.552,-0.231,-0.515,-0.282,-0.074,-0.377,-0.191
0.049,-0.53,-0.579,0.241,0.314,-0.554,-0.221,-0.504,-0.271,-0.077,-0.387,-0.219
0.031,-0.562,-0.593,0.266,0.312,-0.577,-0.221,-0.515,-0.3,-0.109,-0.425,-0.242
0.006,-0.567,-0.573,0.281,0.29,-0.57,-0.213,-0.505,-0.275,-0.098,-0.418,-0.241
0.022,-0.584,-0.606,0.282,0.314,-0.595,-0.21,-0.497,-0.288,-0.121,-0.441,-0.258
-0.001,-0.576,-0.575,0.289,0.287,-0.575,-0.207,-0.5,-0.273,-0.107,-0.429,-0.242
-0.04,-0.631,-0.591,0.335,0.276,-0.61,-0.191,-0.47,-0.266,-0.124,-0.443,-0.267
-0.042,-0.609,-0.567,0.325,0.263,-0.587,-0.131,-0.438,-0.288,-0.14,-0.465,-0.29
0.036,-0.545,-0.581,0.255,0.308,-0.563,0.073,0.004,-0.054,-0.021,-0.409,-0.264
0.326,-0.25,-0.577,-0.038,0.452,-0.413,-0.152,-0.025,0.219,0.336,-0.044,0.041
0.658,0.36,-0.298,-0.509,0.477,0.031,-0.722,-0.673,0.687,1.113,0.74,0.65
0.516,0.024,-0.492,-0.27,0.504,-0.234,-0.916,-1.162,0.19,0.665,0.438,0.44
0.172,-0.55,-0.722,0.189,0.447,-0.635,-0.847,-1.319,-0.742,-0.302,-0.381,-0.119
0.095,-0.571,-0.666,0.238,0.381,-0.618,-0.496,-0.769,-0.467,-0.209,-0.422,-0.209
0.055,-0.612,-0.667,0.279,0.361,-0.639,-0.231,-0.427,-0.272,-0.139,-0.437,-0.263
0.014,-0.586,-0.599,0.286,0.307,-0.593,-0.227,-0.423,-0.288,-0.129,-0.441,-0.265
0.048,-0.597,-0.645,0.275,0.347,-0.62,-0.201,-0.362,-0.246,-0.117,-0.436,-0.278
0.053,-0.59,-0.644,0.269,0.349,-0.617,-0.205,-0.369,-0.263,-0.13,-0.457,-0.283
0.05,-0.587,-0.637,0.269,0.343,-0.611,-0.19,-0.34,-0.219,-0.102,-0.447,-0.276
0.061,-0.592,-0.653,0.266,0.357,-0.622,-0.196,-0.341,-0.24,-0.115,-0.457,-0.286
0.055,-0.573,-0.628,0.259,0.342,-0.6,-0.19,-0.286,-0.2,-0.092,-0.439,-0.276
0.064,-0.571,-0.635,0.254,0.35,-0.603,-0.156,-0.254,-0.17,-0.098,-0.445,-0.283
0.094,-0.555,-0.649,0.231,0.372,-0.601,-0.152,-0.223,-0.148,-0.08,-0.433,-0.278
0.119,-0.544,-0.663,0.212,0.391,-0.603,-0.145,-0.17,-0.122,-0.064,-0.422,-0.28
0.133,-0.522,-0.655,0.195,0.395,-0.589,-0.141,-0.138,-0.09,-0.041,-0.408,-0.28
0.144,-0.511,-0.655,0.184,0.4,-0.583,-0.134,-0.082,-0.063,-0.015,-0.388,-0.268
0.147,-0.504,-0.651,0.179,0.399,-0.577,-0.131,-0.029,-0.03,0.015,-0.364,-0.247
0.181,-0.468,-0.649,0.144,0.415,-0.558,-0.133,0.016,0.007,0.051,-0.339,-0.227
0.219,-0.443,-0.662,0.112,0.441,-0.552,-0.148,0.055,0.027,0.068,-0.315,-0.21
0.231,-0.445,-0.677,0.107,0.454,-0.561,-0.169,0.06,0.036,0.069,-0.304,-0.198
0.23,-0.445,-0.675,0.108,0.453,-0.56,-0.162,0.06,0.028,0.063,-0.304,-0.192
0.23,-0.445,-0.675,0.108,0.453,-0.56,-0.166,0.041,0.017,0.059,-0.307,-0.203
0.239,-0.444,-0.683,0.102,0.462,-0.563,-0.176,-0.014,-0.006,0.054,-0.31,-0.211
0.187,-0.458,-0.645,0.136,0.416,-0.551,-0.164,-0.07,-0.042,0.035,-0.335,-0.22
0.143,-0.489,-0.632,0.173,0.388,-0.56,-0.18,-0.155,-0.105,-0.017,-0.391,-0.262
0.115,-0.529,-0.644,0.207,0.38,-0.586,-0.194,-0.23,-0.17,-0.074,-0.435,-0.308
0.092,-0.574,-0.666,0.241,0.38,-0.62,-0.214,-0.297,-0.215,-0.121,-0.491,-0.349
0.086,-0.6,-0.686,0.257,0.386,-0.643,-0.239,-0.343,-0.244,-0.154,-0.533,-0.381
0.068,-0.605,-0.672,0.269,0.37,-0.638,-0.233,-0.363,-0.269,-0.175,-0.543,-0.391
0.094,-0.611,-0.705,0.259,0.4,-0.658,-0.235,-0.394,-0.287,-0.199,-0.563,-0.418
0.068,-0.631,-0.699,0.282,0.384,-0.665,-0.241,-0.396,-0.284,-0.206,-0.578,-0.442
0.044,-0.636,-0.68,0.296,0.363,-0.658,-0.246,-0.391,-0.287,-0.205,-0.59,-0.444
0.04,-0.634,-0.673,0.297,0.357,-0.653,-0.244,-0.387,-0.291,-0.205,-0.597,-0.445
0.024,-0.635,-0.659,0.306,0.342,-0.647,-0.245,-0.387,-0.289,-0.207,-0.603,-0.445
0.073,-0.634,-0.707,0.281,0.391,-0.671,-0.258,-0.401,-0.287,-0.214,-0.606,-0.452
0.06,-0.634,-0.694,0.287,0.377,-0.664,-0.26,-0.4,-0.284,-0.215,-0.602,-0.467
0.041,-0.627,-0.668,0.293,0.355,-0.647,-0.259,-0.395,-0.281,-0.214,-0.612,-0.471
0.056,-0.62,-0.675,0.282,0.366,-0.647,-0.26,-0.395,-0.279,-0.216,-0.634,-0.476
0.033,-0.61,-0.643,0.289,0.338,-0.626,-0.26,-0.388,-0.274,-0.213,-0.632,-0.473
0.061,-0.599,-0.66,0.269,0.361,-0.63,-0.26,-0.394,-0.278,-0.218,-0.633,-0.482
0.085,-0.595,-0.679,0.255,0.383,-0.637,-0.264,-0.413,-0.295,-0.237,-0.65,-0.516
0.051,-0.594,-0.645,0.272,0.348,-0.62,-0.265,-0.411,-0.295,-0.242,-0.649,-0.521
0.052,-0.595,-0.647,0.272,0.35,-0.621,-0.266,-0.403,-0.29,-0.238,-0.669,-0.519
0.072,-0.594,-0.666,0.261,0.37,-0.63,-0.27,-0.401,-0.29,-0.241,-0.688,-0.52
0.057,-0.595,-0.652,0.269,0.355,-0.623,-0.269,-0.391,-0.283,-0.239,-0.687,-0.52
0.075,-0.593,-0.668,0.259,0.372,-0.63,-0.272,-0.395,-0.29,-0.242,-0.697,-0.541
0.108,-0.6,-0.708,0.246,0.408,-0.653,-0.279,-0.406,-0.301,-0.25,-0.706,-0.552
0.102,-0.611,-0.713,0.255,0.407,-0.662,-0.285,-0.402,-0.299,-0.247,-0.701,-0.562
0.105,-0.608,-0.713,0.252,0.409,-0.66,-0.29,-0.416,-0.308,-0.259,-0.722,-0.574
0.102,-0.616,-0.718,0.257,0.41,-0.666,-0.289,-0.431,-0.317,-0.279,-0.749,-0.58
0.101,-0.619,-0.72,0.259,0.411,-0.67,-0.292,-0.43,-0.314,-0.284,-0.752,-0.597
0.108,-0.607,-0.715,0.25,0.412,-0.661,-0.294,-0.424,-0.315,-0.281,-0.767,-0.601
0.102,-0.601,-0.703,0.25,0.402,-0.652,-0.296,-0.411,-0.323,-0.275,-0.773,-0.606
0.096,-0.59,-0.686,0.247,0.391,-0.638,-0.291,-0.399,-0.318,-0.269,-0.768,-0.611
0.104,-0.576,-0.68,0.237,0.392,-0.628,-0.287,-0.395,-0.307,-0.265,-0.77,-0.609
0.103,-0.563,-0.666,0.23,0.385,-0.614,-0.277,-0.394,-0.297,-0.257,-0.766,-0.611
0.125,-0.542,-0.666,0.209,0.396,-0.604,-0.302,-0.395,-0.295,-0.257,-0.764,-0.608
0.172,-0.517,-0.689,0.172,0.431,-0.602,-0.352,-0.402,-0.294,-0.262,-0.766,-0.611
0.181,-0.525,-0.707,0.172,0.444,-0.616,-0.352,-0.409,-0.296,-0.256,-0.768,-0.607
0.183,-0.587,-0.77,0.203,0.477,-0.678,-0.367,-0.429,-0.334,-0.293,-0.814,-0.649
0.165,-0.62,-0.785,0.228,0.475,-0.702,-0.364,-0.464,-0.382,-0.33,-0.863,-0.694
0.131,-0.625,-0.756,0.247,0.444,-0.69,-0.335,-0.455,-0.37,-0.327,-0.867,-0.695
0.106,-0.666,-0.772,0.28,0.439,-0.719,-0.338,-0.446,-0.379,-0.355,-0.899,-0.733
0.088,-0.659,-0.747,0.286,0.418,-0.703,-0.332,-0.454,-0.382,-0.347,-0.898,-0.738
0.065,-0.692,-0.757,0.314,0.411,-0.724,-0.321,-0.428,-0.373,-0.365,-0.923,-0.753
0.066,-0.677,-0.743,0.306,0.405,-0.71,-0.321,-0.454,-0.388,-0.367,-0.932,-0.753
0.059,-0.672,-0.731,0.307,0.395,-0.701,-0.309,-0.418,-0.351,-0.341,-0.936,-0.773
0.051,-0.697,-0.748,0.323,0.4,-0.722,-0.287,-0.438,-0.391,-0.389,-0.983,-0.812
0.066,-0.633,-0.699,0.284,0.383,-0.666,-0.128,-0.133,-0.233,-0.3,-0.932,-0.785
0.214,-0.561,-0.775,0.174,0.495,-0.667,-0.113,0.156,-0.032,-0.152,-0.813,-0.695
0.637,0.03,-0.607,-0.333,0.622,-0.288,-0.578,-0.309,0.423,0.572,-0.072,-0.103
0.736,0.16,-0.576,-0.448,0.656,-0.208,-0.919,-0.866,0.456,0.751,0.176,0.086
0.348,-0.466,-0.814,0.059,0.581,-0.64,-0.949,-1.325,-0.603,-0.302,-0.705,-0.514
0.126,-0.662,-0.788,0.268,0.458,-0.725,-0.749,-1.047,-0.757,-0.554,-1.014,-0.765
0.098,-0.714,-0.812,0.308,0.455,-0.762,-0.429,-0.483,-0.402,-0.377,-0.977,-0.819
0.088,-0.692,-0.781,0.302,0.434,-0.736,-0.339,-0.419,-0.412,-0.391,-1.009,-0.842
0.086,-0.665,-0.75,0.29,0.418,-0.708,-0.313,-0.348,-0.335,-0.354,-0.999,-0.834
0.079,-0.683,-0.762,0.302,0.421,-0.722,-0.301,-0.341,-0.363,-0.391,-1.044,-0.862
0.093,-0.659,-0.752,0.283,0.423,-0.706,-0.304,-0.321,-0.338,-0.362,-1.015,-0.865
0.083,-0.67,-0.753,0.294,0.418,-0.711,-0.29,-0.3,-0.34,-0.375,-1.037,-0.89
0.091,-0.654,-0.746,0.282,0.419,-0.7,-0.291,-0.28,-0.335,-0.364,-1.048,-0.881
0.127,-0.656,-0.783,0.265,0.455,-0.719,-0.281,-0.239,-0.314,-0.365,-1.044,-0.886
0.138,-0.643,-0.781,0.253,0.46,-0.712,-0.28,-0.22,-0.298,-0.36,-1.041,-0.884
0.134,-0.637,-0.77,0.252,0.452,-0.703,-0.273,-0.188,-0.267,-0.341,-1.034,-0.884
0.147,-0.629,-0.776,0.241,0.462,-0.702,-0.268,-0.164,-0.261,-0.331,-1.032,-0.888
0.181,-0.62,-0.801,0.22,0.491,-0.71,-0.267,-0.114,-0.232,-0.313,-1.025,-0.882
0.185,-0.602,-0.788,0.209,0.487,-0.695,-0.257,-0.061,-0.199,-0.284,-1.019,-0.879
0.193,-0.583,-0.776,0.195,0.485,-0.679,-0.262,-0.026,-0.159,-0.261,-1.01,-0.874
0.242,-0.569,-0.81,0.164,0.526,-0.689,-0.279,0.016,-0.142,-0.244,-0.998,-0.869
0.273,-0.562,-0.835,0.145,0.554,-0.698,-0.282,0.045,-0.147,-0.214,-0.984,-0.87
0.274,-0.565,-0.839,0.146,0.557,-0.702,-0.277,0.031,-0.15,-0.219,-0.976,-0.869
0.266,-0.564,-0.83,0.15,0.548,-0.697,-0.286,0.02,-0.154,-0.225,-0.984,-0.87
0.266,-0.566,-0.832,0.15,0.549,-0.698,-0.305,-0.016,-0.156,-0.237,-0.989,-0.869
0.272,-0.561,-0.834,0.145,0.554,-0.698,-0.303,-0.067,-0.179,-0.264,-1.001,-0.873
0.258,-0.582,-0.84,0.162,0.55,-0.711,-0.315,-0.139,-0.237,-0.319,-1.055,-0.913
0.228,-0.605,-0.833,0.189,0.531,-0.719,-0.335,-0.216,-0.281,-0.361,-1.092,-0.948
0.178,-0.643,-0.821,0.233,0.5,-0.732,-0.337,-0.274,-0.326,-0.403,-1.134,-0.987
0.116,-0.693,-0.81,0.289,0.463,-0.751,-0.345,-0.338,-0.375,-0.459,-1.186,-1.028
0.092,-0.71,-0.801,0.309,0.447,-0.755,-0.344,-0.364,-0.397,-0.471,-1.205,-1.045
0.094,-0.724,-0.817,0.315,0.456,-0.77,-0.348,-0.389,-0.417,-0.494,-1.236,-1.073
0.072,-0.73,-0.802,0.329,0.437,-0.766,-0.35,-0.411,-0.426,-0.502,-1.252,-1.089
0.084,-0.728,-0.813,0.322,0.449,-0.77,-0.35,-0.408,-0.427,-0.498,-1.247,-1.102
0.103,-0.726,-0.829,0.312,0.466,-0.777,-0.348,-0.411,-0.431,-0.501,-1.259,-1.107
0.08,-0.722,-0.802,0.321,0.442,-0.762,-0.352,-0.409,-0.429,-0.498,-1.276,-1.115
0.058,-0.72,-0.778,0.331,0.418,-0.749,-0.364,-0.41,-0.43,-0.501,-1.29,-1.135
0.066,-0.718,-0.784,0.326,0.425,-0.751,-0.358,-0.41,-0.429,-0.502,-1.293,-1.136
0.108,-0.712,-0.821,0.302,0.465,-0.766,-0.349,-0.408,-0.431,-0.507,-1.292,-1.139
0.107,-0.705,-0.812,0.299,0.46,-0.758,-0.346,-0.405,-0.435,-0.509,-1.31,-1.142
0.107,-0.699,-0.806,0.296,0.456,-0.752,-0.334,-0.404,-0.435,-0.51,-1.325,-1.143
0.109,-0.691,-0.8,0.291,0.455,-0.745,-0.345,-0.401,-0.435,-0.514,-1.328,-1.143
0.082,-0.708,-0.79,0.313,0.436,-0.749,-0.367,-0.399,-0.435,-0.515,-1.335,-1.154
