-0.086,0.352,0.438,-0.134,-0.262,0.394,-0.164,-0.255,-0.447,-0.592,-0.393,-0.299
-0.08,0.352,0.431,-0.136,-0.256,0.391,-0.16,-0.249,-0.433,-0.571,-0.374,-0.286
-0.088,0.334,0.423,-0.123,-0.256,0.378,-0.149,-0.256,-0.435,-0.573,-0.371,-0.283
-0.07,0.305,0.374,-0.118,-0.222,0.339,-0.109,-0.172,-0.385,-0.577,-0.395,-0.302
-0.111,0.328,0.438,-0.109,-0.274,0.382,0.141,0.133,-0.174,-0.539,-0.46,-0.394
-0.047,0.432,0.48,-0.193,-0.264,0.456,0.079,0.236,0.094,-0.31,-0.284,-0.277
0.246,1.14,0.894,-0.693,-0.324,1.017,-0.68,-1.004,-0.09,0.844,0.939,0.646
0.032,1.121,1.089,-0.577,-0.529,1.105,-0.817,-2.131,-1.306,0.115,0.763,0.709
-0.235,0.32,0.555,-0.042,-0.395,0.437,-0.272,-1.576,-1.786,-1.342,-0.522,-0.147
-0.281,0.055,0.336,0.113,-0.309,0.195,-0.007,-0.952,-1.166,-1.035,-0.635,-0.394
-0.293,0.059,0.352,0.117,-0.323,0.205,-0.073,-0.639,-0.766,-0.814,-0.533,-0.386
-0.104,0.231,0.334,-0.064,-0.219,0.282,-0.144,-0.19,-0.348,-0.525,-0.353,-0.28
-0.057,0.283,0.34,-0.113,-0.199,0.311,-0.095,-0.029,-0.171,-0.381,-0.266,-0.219
-0.043,0.271,0.315,-0.114,-0.179,0.293,-0.108,-0.003,-0.154,-0.398,-0.283,-0.211
-0.022,0.27,0.292,-0.124,-0.157,0.281,-0.096,0.047,-0.085,-0.305,-0.228,-0.179
-0.018,0.213,0.231,-0.098,-0.125,0.222,-0.079,0.085,-0.064,-0.322,-0.235,-0.182
-0.007,0.218,0.226,-0.106,-0.117,0.222,-0.078,0.129,-0.007,-0.261,-0.197,-0.164
-0.019,0.197,0.216,-0.089,-0.118,0.206,-0.072,0.155,0.016,-0.269,-0.194,-0.174
0.014,0.208,0.195,-0.112,-0.091,0.201,-0.078,0.191,0.06,-0.225,-0.174,-0.165
0.018,0.21,0.192,-0.114,-0.087,0.201,-0.073,0.233,0.093,-0.198,-0.172,-0.165
0.027,0.214,0.187,-0.121,-0.08,0.201,-0.077,0.262,0.127,-0.19,-0.164,-0.165
0.024,0.206,0.182,-0.115,-0.08,0.194,-0.072,0.28,0.146,-0.179,-0.156,-0.168
0.034,0.174,0.14,-0.104,-0.054,0.157,-0.068,0.336,0.184,-0.164,-0.142,-0.171
0.078,0.152,0.074,-0.115,0.001,0.113,-0.063,0.381,0.217,-0.15,-0.16,-0.169
0.072,0.119,0.047,-0.096,0.012,0.083,-0.058,0.423,0.245,-0.155,-0.184,-0.171
0.058,0.082,0.023,-0.07,0.017,0.052,-0.054,0.488,0.289,-0.146,-0.182,-0.169
0.095,0.031,-0.064,-0.063,0.079,-0.016,-0.049,0.539,0.312,-0.142,-0.202,-0.17
0.128,-0.014,-0.142,-0.057,0.135,-0.078,-0.044,0.609,0.364,-0.134,-0.2,-0.159
0.09,-0.032,-0.123,-0.029,0.107,-0.077,-0.037,0.649,0.407,-0.12,-0.191,-0.152
0.08,-0.002,-0.082,-0.039,0.081,-0.042,-0.031,0.62,0.405,-0.113,-0.16,-0.129
0.13,0.048,-0.082,-0.089,0.106,-0.017,-0.024,0.506,0.321,-0.117,-0.129,-0.096
0.079,0.056,-0.023,-0.067,0.05,0.016,-0.017,0.372,0.201,-0.109,-0.13,-0.094
-0.003,0.046,0.049,-0.022,-0.026,0.047,-0.009,0.257,0.091,-0.156,-0.132,-0.096
-0.011,0.026,0.037,-0.008,-0.024,0.031,-0.001,0.152,-0.025,-0.233,-0.134,-0.094
-0.044,-0.023,0.021,0.033,-0.032,-0.001,0.006,0.089,-0.084,-0.25,-0.136,-0.096
-0.052,-0.043,0.009,0.047,-0.03,-0.017,0.011,0.059,-0.122,-0.281,-0.14,-0.094
-0.038,-0.038,0.001,0.038,-0.02,-0.018,0.017,0.06,-0.154,-0.302,-0.141,-0.099
-0.053,-0.064,-0.011,0.059,-0.02,-0.037,0.023,0.06,-0.148,-0.292,-0.154,-0.111
-0.028,-0.09,-0.062,0.059,0.017,-0.076,0.025,0.059,-0.137,-0.285,-0.146,-0.103
-0.017,-0.09,-0.073,0.054,0.028,-0.081,0.02,0.061,-0.127,-0.275,-0.133,-0.087
-0.033,-0.09,-0.057,0.062,0.012,-0.073,0.02,0.058,-0.119,-0.27,-0.136,-0.081
-0.036,-0.09,-0.054,0.063,0.009,-0.072,0.02,0.056,-0.121,-0.265,-0.134,-0.076
-0.038,-0.09,-0.052,0.064,0.007,-0.071,0.02,0.052,-0.119,-0.261,-0.136,-0.074
-0.03,-0.091,-0.06,0.06,0.015,-0.075,0.021,0.05,-0.125,-0.264,-0.134,-0.069
-0.04,-0.101,-0.061,0.07,0.011,-0.08,0.017,0.046,-0.145,-0.287,-0.138,-0.066
-0.035,-0.108,-0.073,0.072,0.02,-0.09,0.015,0.045,-0.153,-0.297,-0.14,-0.065
-0.013,-0.104,-0.091,0.059,0.039,-0.097,0.015,0.039,-0.154,-0.293,-0.141,-0.064
-0.011,-0.099,-0.087,0.055,0.038,-0.093,0.011,0.027,-0.164,-0.298,-0.145,-0.087
-0.013,-0.094,-0.081,0.054,0.034,-0.087,0.01,0.016,-0.168,-0.291,-0.144,-0.097
-0.017,-0.091,-0.074,0.054,0.029,-0.083,0.01,0.003,-0.177,-0.3,-0.153,-0.094
-0.024,-0.084,-0.06,0.054,0.019,-0.072,0.006,-0.006,-0.184,-0.307,-0.148,-0.096
-0.029,-0.085,-0.056,0.057,0.014,-0.071,0.004,-0.02,-0.195,-0.317,-0.154,-0.095
-0.035,-0.072,-0.037,0.054,0.001,-0.054,0.006,-0.035,-0.217,-0.339,-0.162,-0.101
-0.038,-0.089,-0.051,0.064,0.007,-0.07,0.006,-0.031,-0.21,-0.324,-0.154,-0.093
-0.022,-0.117,-0.094,0.07,0.036,-0.105,0.03,0.0,-0.184,-0.301,-0.146,-0.082
-0.03,-0.085,-0.055,0.058,0.013,-0.069,0.047,0.022,-0.157,-0.292,-0.13,-0.073
-0.031,-0.054,-0.022,0.043,-0.004,-0.038,0.081,0.035,-0.129,-0.274,-0.104,-0.063
-0.004,-0.053,-0.049,0.029,0.023,-0.051,0.112,0.06,-0.12,-0.258,-0.094,-0.046
0.027,-0.015,-0.043,-0.006,0.035,-0.029,0.03,0.051,-0.104,-0.245,-0.094,0.003
0.045,0.012,-0.033,-0.028,0.039,-0.01,-0.021,0.026,-0.111,-0.241,-0.096,0.013
0.034,-0.054,-0.088,0.01,0.061,-0.07,-0.013,0.023,-0.154,-0.258,-0.104,-0.017
0.018,-0.085,-0.103,0.034,0.061,-0.094,-0.003,0.003,-0.163,-0.261,-0.093,-0.029
-0.033,-0.145,-0.112,0.089,0.04,-0.128,0.027,0.005,-0.189,-0.315,-0.149,-0.078
-0.074,-0.152,-0.078,0.114,0.002,-0.115,0.016,-0.014,-0.224,-0.323,-0.156,-0.088
-0.045,-0.108,-0.062,0.077,0.009,-0.085,0.009,-0.029,-0.248,-0.355,-0.166,-0.105
-0.061,-0.083,-0.022,0.072,-0.019,-0.052,-0.012,-0.038,-0.232,-0.334,-0.165,-0.113
-0.108,-0.056,0.052,0.082,-0.08,-0.002,-0.024,-0.065,-0.25,-0.36,-0.185,-0.118
-0.045,-0.064,-0.018,0.055,-0.013,-0.041,0.006,0.015,-0.21,-0.358,-0.197,-0.132
-0.111,-0.088,0.024,0.099,-0.067,-0.032,0.274,0.336,0.0,-0.335,-0.272,-0.241
-0.015,0.048,0.063,-0.017,-0.039,0.055,0.235,0.477,0.291,-0.115,-0.1,-0.12
0.291,0.769,0.478,-0.53,-0.093,0.623,-0.535,-0.784,0.243,1.097,1.101,0.802
0.08,0.792,0.711,-0.437,-0.316,0.752,-0.662,-1.982,-0.882,0.522,0.982,0.88
-0.219,-0.022,0.197,0.12,-0.208,0.088,-0.104,-1.478,-1.545,-1.082,-0.321,0.002
-0.298,-0.292,0.006,0.295,-0.152,-0.143,0.145,-0.858,-1.006,-0.865,-0.461,-0.26
-0.271,-0.263,0.007,0.267,-0.139,-0.128,0.063,-0.491,-0.574,-0.595,-0.35,-0.237
-0.067,-0.094,-0.027,0.08,-0.02,-0.06,-0.035,-0.039,-0.191,-0.362,-0.201,-0.142
-0.002,-0.012,-0.01,0.007,0.004,-0.011,0.004,0.132,-0.013,-0.212,-0.115,-0.092
-0.023,-0.018,0.004,0.02,-0.014,-0.007,-0.01,0.176,0.003,-0.24,-0.129,-0.092
-0.013,0.027,0.04,-0.008,-0.027,0.033,-0.016,0.207,0.058,-0.166,-0.09,-0.071
-0.007,0.02,0.026,-0.007,-0.017,0.023,-0.017,0.222,0.052,-0.186,-0.116,-0.081
0.008,0.03,0.023,-0.019,-0.008,0.026,-0.018,0.257,0.1,-0.129,-0.088,-0.063
0.015,0.021,0.006,-0.018,0.004,0.013,-0.004,0.294,0.124,-0.131,-0.1,-0.066
0.035,0.031,-0.004,-0.033,0.019,0.013,-0.004,0.321,0.157,-0.105,-0.075,-0.056
0.039,0.003,-0.036,-0.021,0.037,-0.016,0.009,0.355,0.187,-0.1,-0.061,-0.053
0.03,-0.015,-0.045,-0.007,0.038,-0.03,0.006,0.407,0.23,-0.069,-0.061,-0.049
0.042,-0.018,-0.06,-0.012,0.051,-0.039,0.005,0.448,0.276,-0.045,-0.058,-0.043
0.082,-0.028,-0.11,-0.027,0.096,-0.069,0.001,0.474,0.293,-0.058,-0.062,-0.04
0.085,-0.012,-0.096,-0.036,0.091,-0.054,-0.001,0.513,0.312,-0.048,-0.058,-0.066
0.087,-0.057,-0.143,-0.015,0.115,-0.1,-0.004,0.547,0.326,-0.048,-0.065,-0.081
0.118,-0.088,-0.206,-0.015,0.162,-0.147,-0.006,0.597,0.344,-0.043,-0.091,-0.07
0.113,-0.118,-0.231,0.003,0.172,-0.174,0.001,0.67,0.387,-0.04,-0.096,-0.069
0.14,-0.184,-0.323,0.022,0.232,-0.253,0.006,0.728,0.427,-0.036,-0.088,-0.06
0.155,-0.194,-0.349,0.02,0.253,-0.271,0.012,0.777,0.462,-0.028,-0.075,-0.058
0.161,-0.165,-0.326,0.002,0.244,-0.246,0.017,0.76,0.463,0.015,-0.047,-0.043
0.172,-0.127,-0.299,-0.022,0.235,-0.213,0.023,0.665,0.418,0.032,-0.018,-0.013
0.106,-0.137,-0.243,0.016,0.175,-0.19,0.027,0.544,0.335,0.021,0.029,0.0
0.058,-0.159,-0.217,0.051,0.138,-0.188,0.049,0.412,0.216,-0.008,0.022,0.011
0.026,-0.151,-0.178,0.063,0.103,-0.164,0.081,0.303,0.115,-0.078,-0.005,0.005
-0.009,-0.151,-0.142,0.081,0.066,-0.146,0.076,0.218,0.025,-0.127,-0.026,-0.019
-0.011,-0.147,-0.136,0.079,0.063,-0.141,0.061,0.161,-0.04,-0.179,-0.063,-0.037
-0.029,-0.142,-0.112,0.086,0.042,-0.127,0.056,0.13,-0.082,-0.203,-0.08,-0.057
-0.033,-0.136,-0.103,0.085,0.035,-0.119,0.051,0.133,-0.09,-0.197,-0.094,-0.062
-0.02,-0.13,-0.109,0.075,0.045,-0.119,0.049,0.141,-0.075,-0.202,-0.084,-0.064
-0.027,-0.126,-0.098,0.077,0.036,-0.112,0.045,0.132,-0.082,-0.197,-0.077,-0.069
-0.019,-0.118,-0.099,0.069,0.04,-0.108,0.04,0.126,-0.078,-0.206,-0.083,-0.07
-0.043,-0.111,-0.067,0.077,0.012,-0.089,0.043,0.119,-0.081,-0.225,-0.077,-0.07
-0.032,-0.104,-0.072,0.069,0.02,-0.088,0.048,0.111,-0.079,-0.225,-0.082,-0.07
-0.009,-0.096,-0.088,0.053,0.04,-0.092,0.041,0.104,-0.081,-0.225,-0.079,-0.07
-0.039,-0.085,-0.046,0.062,0.004,-0.065,0.036,0.096,-0.101,-0.231,-0.074,-0.07
-0.017,-0.071,-0.055,0.045,0.019,-0.063,0.031,0.084,-0.104,-0.228,-0.098,-0.07
-0.018,-0.066,-0.049,0.042,0.016,-0.057,0.024,0.072,-0.123,-0.237,-0.115,-0.073
-0.026,-0.058,-0.032,0.042,0.003,-0.045,0.02,0.062,-0.145,-0.25,-0.115,-0.082
-0.023,-0.032,-0.009,0.027,-0.006,-0.02,0.015,0.052,-0.152,-0.253,-0.12,-0.102
-0.036,-0.007,0.029,0.022,-0.032,0.011,0.015,0.042,-0.178,-0.271,-0.134,-0.116
-0.048,-0.02,0.029,0.034,-0.038,0.004,0.014,0.039,-0.196,-0.277,-0.142,-0.114
-0.07,-0.039,0.031,0.054,-0.051,-0.004,0.009,0.035,-0.193,-0.272,-0.135,-0.109
-0.074,-0.046,0.028,0.06,-0.051,-0.008,0.011,0.032,-0.187,-0.27,-0.133,-0.105
-0.063,-0.049,0.014,0.056,-0.038,-0.017,0.01,0.028,-0.188,-0.267,-0.128,-0.1
-0.043,-0.058,-0.015,0.05,-0.013,-0.036,0.022,0.023,-0.177,-0.264,-0.124,-0.096
-0.042,-0.016,0.026,0.029,-0.034,0.005,0.035,0.053,-0.147,-0.26,-0.12,-0.088
-0.003,0.089,0.092,-0.043,-0.048,0.09,0.073,0.072,-0.124,-0.245,-0.105,-0.073
0.046,0.095,0.049,-0.07,-0.002,0.072,0.074,0.07,-0.113,-0.234,-0.095,-0.06
0.032,0.082,0.049,-0.057,-0.009,0.065,-0.009,0.06,-0.114,-0.229,-0.087,-0.055
0.024,0.103,0.079,-0.063,-0.028,0.09,-0.044,0.042,-0.13,-0.211,-0.074,-0.054
0.005,0.067,0.062,-0.036,-0.028,0.064,-0.067,0.04,-0.169,-0.236,-0.089,-0.062
-0.037,0.023,0.06,0.007,-0.049,0.042,-0.057,0.025,-0.194,-0.268,-0.118,-0.082
-0.032,-0.067,-0.035,0.05,0.002,-0.051,-0.015,0.028,-0.198,-0.296,-0.143,-0.106
-0.039,-0.095,-0.056,0.067,0.009,-0.075,-0.011,0.022,-0.19,-0.269,-0.117,-0.088
-0.05,-0.102,-0.052,0.076,0.001,-0.076,0.003,0.024,-0.201,-0.301,-0.136,-0.097
-0.055,-0.134,-0.079,0.095,0.012,-0.107,0.002,0.021,-0.188,-0.262,-0.107,-0.081
-0.094,-0.154,-0.06,0.125,-0.017,-0.107,0.015,0.009,-0.201,-0.288,-0.117,-0.082
-0.064,-0.161,-0.097,0.113,0.017,-0.129,0.049,0.094,-0.141,-0.269,-0.128,-0.106
-0.126,-0.214,-0.088,0.171,-0.019,-0.151,0.331,0.479,0.075,-0.253,-0.229,-0.226
0.013,-0.042,-0.055,0.015,0.034,-0.048,0.218,0.531,0.361,0.059,0.046,-0.02
0.305,0.728,0.423,-0.517,-0.06,0.575,-0.55,-0.851,0.359,1.328,1.268,0.936
0.049,0.609,0.56,-0.33,-0.256,0.585,-0.536,-1.912,-0.755,0.558,0.947,0.857
-0.246,-0.188,0.058,0.217,-0.152,-0.065,0.033,-1.388,-1.438,-1.006,-0.321,-0.035
-0.311,-0.362,-0.052,0.337,-0.129,-0.207,0.215,-0.808,-0.91,-0.739,-0.39,-0.236
-0.275,-0.339,-0.064,0.308,-0.105,-0.202,0.085,-0.418,-0.513,-0.53,-0.298,-0.224
-0.072,-0.142,-0.071,0.108,0.0,-0.106,-0.006,0.051,-0.124,-0.258,-0.152,-0.108
-0.019,-0.076,-0.057,0.048,0.019,-0.066,0.053,0.226,0.042,-0.12,-0.086,-0.055
-0.019,-0.093,-0.073,0.056,0.027,-0.083,0.035,0.244,0.04,-0.164,-0.085,-0.064
-0.002,-0.06,-0.058,0.031,0.028,-0.058,0.037,0.292,0.116,-0.099,-0.045,-0.045
-0.007,-0.077,-0.07,0.043,0.032,-0.073,0.036,0.309,0.119,-0.102,-0.063,-0.054
0.011,-0.056,-0.066,0.023,0.039,-0.061,0.027,0.342,0.156,-0.048,-0.032,-0.041
0.002,-0.065,-0.067,0.032,0.034,-0.066,0.034,0.378,0.183,-0.059,-0.042,-0.052
0.029,-0.057,-0.086,0.014,0.058,-0.071,0.029,0.403,0.211,-0.035,-0.022,-0.054
0.058,-0.062,-0.12,0.003,0.089,-0.09,0.032,0.443,0.24,-0.026,-0.017,-0.058
0.056,-0.058,-0.114,0.002,0.085,-0.086,0.028,0.474,0.278,-0.002,-0.014,-0.04
0.051,-0.062,-0.113,0.006,0.082,-0.087,0.031,0.5,0.299,0.011,0.009,-0.038
0.088,-0.041,-0.129,-0.023,0.109,-0.085,0.03,0.538,0.324,0.016,0.015,-0.046
0.124,0.007,-0.116,-0.066,0.12,-0.054,0.019,0.564,0.327,0.016,-0.022,-0.051
0.115,0.003,-0.113,-0.059,0.114,-0.055,0.005,0.595,0.332,-0.004,-0.04,-0.063
0.119,-0.008,-0.127,-0.055,0.124,-0.067,-0.01,0.642,0.366,-0.013,-0.049,-0.07
0.13,-0.035,-0.165,-0.048,0.148,-0.1,-0.037,0.69,0.371,-0.023,-0.082,-0.08
0.12,-0.058,-0.178,-0.031,0.149,-0.118,-0.051,0.751,0.389,-0.012,-0.085,-0.07
0.132,-0.051,-0.183,-0.041,0.158,-0.117,-0.059,0.774,0.419,0.0,-0.086,-0.065
0.151,-0.046,-0.197,-0.052,0.174,-0.121,-0.068,0.748,0.425,0.021,-0.06,-0.053
0.114,-0.043,-0.158,-0.035,0.136,-0.1,-0.051,0.666,0.39,0.062,0.013,-0.016
0.087,-0.036,-0.124,-0.025,0.106,-0.08,-0.019,0.54,0.305,0.047,0.039,-0.009
0.045,-0.033,-0.078,-0.006,0.062,-0.055,0.022,0.407,0.2,-0.008,0.022,-0.019
0.039,-0.04,-0.079,0.0,0.059,-0.059,0.049,0.288,0.088,-0.065,0.003,-0.023
0.007,-0.068,-0.076,0.031,0.042,-0.072,0.058,0.223,0.015,-0.118,-0.018,-0.032
-0.041,-0.121,-0.08,0.081,0.02,-0.101,0.066,0.181,-0.015,-0.13,-0.041,-0.037
0.008,-0.102,-0.109,0.047,0.059,-0.105,0.065,0.15,-0.048,-0.14,-0.053,-0.044
-0.01,-0.089,-0.078,0.05,0.034,-0.083,0.065,0.149,-0.052,-0.154,-0.055,-0.051
-0.023,-0.105,-0.082,0.064,0.03,-0.093,0.065,0.15,-0.049,-0.147,-0.044,-0.052
-0.027,-0.096,-0.069,0.062,0.021,-0.082,0.065,0.154,-0.051,-0.141,-0.031,-0.047
-0.035,-0.128,-0.093,0.082,0.029,-0.11,0.064,0.156,-0.05,-0.143,-0.016,-0.046
-0.003,-0.139,-0.136,0.072,0.066,-0.137,0.057,0.148,-0.05,-0.146,-0.017,-0.042
-0.021,-0.117,-0.096,0.069,0.038,-0.106,0.051,0.137,-0.05,-0.148,-0.036,-0.04
-0.019,-0.087,-0.068,0.053,0.025,-0.077,0.044,0.125,-0.066,-0.153,-0.041,-0.038
-0.04,-0.08,-0.041,0.06,0.001,-0.06,0.037,0.114,-0.07,-0.154,-0.064,-0.03
-0.053,-0.094,-0.041,0.074,-0.006,-0.067,0.031,0.102,-0.098,-0.179,-0.074,-0.056
-0.027,-0.083,-0.056,0.055,0.015,-0.069,0.029,0.091,-0.12,-0.191,-0.073,-0.073
-0.046,-0.077,-0.031,0.062,-0.007,-0.054,0.026,0.079,-0.105,-0.172,-0.08,-0.069
-0.062,-0.075,-0.013,0.069,-0.024,-0.044,0.023,0.068,-0.138,-0.198,-0.078,-0.068
-0.099,-0.074,0.025,0.086,-0.061,-0.024,0.021,0.052,-0.163,-0.214,-0.074,-0.065
-0.097,-0.077,0.021,0.087,-0.059,-0.028,0.021,0.043,-0.15,-0.204,-0.068,-0.065
-0.046,-0.073,-0.027,0.059,-0.009,-0.05,0.026,0.045,-0.147,-0.204,-0.062,-0.062
-0.041,-0.078,-0.037,0.06,-0.001,-0.057,0.026,0.048,-0.138,-0.198,-0.057,-0.057
-0.036,-0.07,-0.034,0.053,0.0,-0.052,0.031,0.052,-0.133,-0.195,-0.051,-0.054
-0.023,-0.037,-0.014,0.03,-0.005,-0.025,0.034,0.054,-0.125,-0.189,-0.046,-0.051
-0.025,0.012,0.037,0.006,-0.031,0.024,0.073,0.069,-0.1,-0.172,-0.037,-0.046
-0.011,0.048,0.059,-0.019,-0.035,0.053,0.101,0.086,-0.091,-0.162,-0.028,-0.044
0.034,0.061,0.027,-0.048,0.004,0.044,0.006,0.076,-0.085,-0.168,-0.023,-0.038
0.043,0.077,0.034,-0.06,0.004,0.055,-0.043,0.049,-0.092,-0.167,-0.009,-0.032
0.037,0.044,0.007,-0.04,0.015,0.025,-0.023,0.038,-0.132,-0.18,-0.021,-0.026
0.033,0.029,-0.004,-0.031,0.019,0.012,-0.029,0.015,-0.152,-0.181,-0.034,-0.036
-0.031,-0.019,0.012,0.025,-0.021,-0.004,-0.016,0.011,-0.193,-0.24,-0.082,-0.088
-0.06,-0.045,0.015,0.052,-0.037,-0.015,-0.02,0.011,-0.211,-0.232,-0.092,-0.092
-0.085,-0.044,0.04,0.064,-0.062,-0.002,-0.006,0.005,-0.218,-0.241,-0.097,-0.098
-0.078,-0.042,0.036,0.06,-0.057,-0.003,-0.004,0.014,-0.21,-0.236,-0.084,-0.087
-0.067,-0.033,0.034,0.05,-0.05,0.001,0.013,-0.012,-0.198,-0.217,-0.068,-0.077
-0.057,-0.101,-0.044,0.079,-0.006,-0.073,0.025,0.053,-0.172,-0.251,-0.087,-0.086
-0.095,-0.135,-0.04,0.115,-0.027,-0.088,0.259,0.342,0.018,-0.191,-0.131,-0.156
-0.042,-0.061,-0.019,0.052,-0.012,-0.04,0.323,0.591,0.253,-0.115,-0.081,-0.13
0.328,0.685,0.357,-0.507,-0.014,0.521,-0.439,-0.487,0.51,1.133,1.058,0.76
0.215,0.875,0.661,-0.545,-0.223,0.768,-0.663,-1.942,-0.251,1.103,1.277,1.042
-0.195,-0.002,0.193,0.099,-0.195,0.095,-0.064,-1.665,-1.325,-0.704,-0.073,0.124
-0.329,-0.311,0.018,0.32,-0.173,-0.146,0.205,-0.942,-1.043,-0.799,-0.384,-0.23
-0.308,-0.235,0.072,0.271,-0.19,-0.081,0.071,-0.576,-0.598,-0.522,-0.282,-0.23
-0.077,-0.072,0.005,0.075,-0.041,-0.034,-0.065,-0.071,-0.236,-0.318,-0.175,-0.139
0.005,0.038,0.033,-0.022,-0.014,0.035,0.003,0.182,0.018,-0.096,-0.043,-0.035
0.005,0.004,-0.001,-0.004,0.003,0.001,0.022,0.216,0.01,-0.157,-0.06,-0.066
0.05,0.012,-0.038,-0.031,0.044,-0.013,0.031,0.272,0.098,-0.042,0.021,-0.027
0.042,-0.007,-0.049,-0.017,0.045,-0.028,0.045,0.312,0.097,-0.064,0.009,-0.014
0.032,-0.003,-0.035,-0.014,0.034,-0.019,0.035,0.339,0.143,-0.032,0.019,-0.007
0.082,-0.013,-0.095,-0.034,0.088,-0.053,0.047,0.367,0.157,-0.03,0.009,-0.021
0.112,-0.019,-0.13,-0.046,0.121,-0.074,0.042,0.411,0.187,0.007,0.048,-0.018
0.096,-0.016,-0.112,-0.04,0.104,-0.064,0.047,0.445,0.23,0.032,0.066,-0.01
0.12,-0.01,-0.13,-0.055,0.125,-0.069,0.04,0.468,0.239,0.026,0.054,-0.011
0.096,-0.024,-0.12,-0.035,0.108,-0.072,0.034,0.509,0.277,0.05,0.067,0.0
0.099,-0.032,-0.131,-0.033,0.115,-0.081,0.027,0.538,0.285,0.051,0.067,0.016
0.111,-0.029,-0.14,-0.041,0.125,-0.084,0.021,0.574,0.307,0.053,0.066,0.002
0.121,-0.03,-0.151,-0.045,0.136,-0.09,0.013,0.629,0.33,0.043,0.046,-0.01
0.144,-0.032,-0.176,-0.056,0.16,-0.104,0.004,0.678,0.345,0.041,0.036,-0.012
0.148,-0.044,-0.192,-0.051,0.17,-0.118,-0.019,0.732,0.359,0.032,0.009,-0.035
0.184,-0.041,-0.225,-0.071,0.205,-0.133,-0.032,0.782,0.371,0.033,-0.002,-0.034
0.208,-0.034,-0.241,-0.087,0.225,-0.137,-0.038,0.809,0.395,0.04,0.017,-0.021
0.23,-0.029,-0.259,-0.101,0.245,-0.144,-0.048,0.811,0.405,0.075,0.035,-0.01
0.197,-0.024,-0.22,-0.086,0.209,-0.122,-0.032,0.732,0.393,0.116,0.085,0.026
0.114,-0.019,-0.133,-0.047,0.123,-0.076,-0.012,0.581,0.313,0.095,0.095,0.044
0.063,-0.022,-0.085,-0.021,0.074,-0.053,0.023,0.428,0.202,0.055,0.076,0.028
0.025,-0.022,-0.047,-0.001,0.037,-0.035,0.064,0.277,0.113,0.015,0.069,0.015
0.012,-0.051,-0.063,0.02,0.038,-0.056,0.084,0.173,0.033,-0.045,0.06,0.01
-0.001,-0.096,-0.095,0.049,0.047,-0.095,0.085,0.117,-0.012,-0.073,0.056,0.009
-0.022,-0.137,-0.114,0.08,0.046,-0.126,0.086,0.091,-0.028,-0.069,0.051,0.006
-0.031,-0.169,-0.137,0.1,0.054,-0.153,0.091,0.089,-0.037,-0.07,0.044,0.004
-0.013,-0.161,-0.148,0.087,0.068,-0.154,0.09,0.086,-0.035,-0.07,0.041,0.01
-0.006,-0.16,-0.155,0.083,0.074,-0.157,0.088,0.083,-0.03,-0.069,0.045,0.017
-0.01,-0.154,-0.144,0.082,0.067,-0.149,0.084,0.08,-0.028,-0.071,0.04,0.025
-0.014,-0.157,-0.143,0.086,0.065,-0.15,0.082,0.078,-0.022,-0.068,0.06,0.028
-0.021,-0.152,-0.131,0.087,0.055,-0.141,0.079,0.037,-0.021,-0.076,0.07,0.025
-0.023,-0.162,-0.139,0.092,0.059,-0.15,0.076,0.004,-0.018,-0.09,0.058,0.025
-0.019,-0.176,-0.157,0.098,0.069,-0.166,0.074,0.0,-0.025,-0.09,0.056,0.025
-0.02,-0.135,-0.115,0.078,0.047,-0.125,0.07,-0.029,-0.053,-0.089,0.046,0.025
-0.044,-0.151,-0.108,0.098,0.032,-0.129,0.067,-0.05,-0.071,-0.091,0.042,0.025
-0.015,-0.161,-0.146,0.089,0.065,-0.153,0.063,-0.062,-0.071,-0.089,0.032,0.022
-0.019,-0.164,-0.145,0.092,0.063,-0.155,0.06,-0.072,-0.079,-0.094,0.038,0.016
-0.039,-0.169,-0.131,0.104,0.046,-0.15,0.055,-0.082,-0.1,-0.108,0.037,0.011
-0.009,-0.149,-0.14,0.079,0.066,-0.144,0.057,-0.087,-0.109,-0.109,0.02,0.007
-0.022,-0.158,-0.136,0.09,0.057,-0.147,0.063,-0.102,-0.116,-0.115,0.026,0.003
0.008,-0.141,-0.149,0.067,0.079,-0.145,0.066,-0.124,-0.115,-0.12,0.022,0.0
0.007,-0.125,-0.132,0.059,0.07,-0.128,0.072,-0.106,-0.096,-0.096,0.006,0.014
0.013,-0.076,-0.089,0.032,0.051,-0.082,0.095,-0.08,-0.068,-0.08,0.028,0.036
0.031,-0.052,-0.083,0.011,0.058,-0.068,0.157,-0.066,-0.044,-0.054,0.069,0.041
0.007,-0.102,-0.109,0.048,0.058,-0.105,0.13,-0.051,-0.045,-0.045,0.083,0.065
0.061,-0.095,-0.155,0.017,0.108,-0.125,0.042,-0.049,-0.03,-0.037,0.122,0.105
0.048,-0.112,-0.16,0.032,0.104,-0.136,0.03,-0.065,-0.043,-0.04,0.109,0.092
0.038,-0.14,-0.178,0.051,0.108,-0.159,0.023,-0.108,-0.085,-0.074,0.062,0.06
0.028,-0.165,-0.194,0.069,0.111,-0.179,0.045,-0.138,-0.111,-0.111,0.048,0.027
0.0,-0.182,-0.182,0.092,0.091,-0.182,0.048,-0.133,-0.139,-0.136,0.023,0.001
-0.005,-0.16,-0.155,0.083,0.076,-0.158,0.037,-0.151,-0.138,-0.127,0.015,0.002
-0.035,-0.164,-0.13,0.1,0.048,-0.147,0.035,-0.142,-0.163,-0.181,-0.036,-0.027
-0.032,-0.108,-0.077,0.07,0.023,-0.092,0.023,-0.163,-0.165,-0.133,-0.012,-0.017
-0.061,-0.119,-0.058,0.09,-0.001,-0.088,0.019,-0.17,-0.202,-0.19,-0.04,-0.047
-0.079,-0.091,-0.012,0.086,-0.034,-0.051,0.119,-0.012,-0.082,-0.147,-0.051,-0.077
-0.113,-0.133,-0.02,0.123,-0.046,-0.076,0.389,0.4,0.113,-0.203,-0.164,-0.198
0.19,0.339,0.149,-0.265,0.021,0.244,-0.076,0.01,0.42,0.504,0.474,0.303
0.37,1.023,0.653,-0.697,-0.142,0.838,-0.725,-1.645,0.354,1.574,1.519,1.181
-0.046,0.397,0.443,-0.176,-0.245,0.42,-0.324,-2.195,-0.864,0.156,0.579,0.59
-0.303,-0.255,0.048,0.279,-0.176,-0.103,0.151,-1.438,-1.297,-0.931,-0.406,-0.196
-0.349,-0.261,0.089,0.305,-0.219,-0.086,0.132,-0.95,-0.762,-0.554,-0.28,-0.232
-0.197,-0.176,0.021,0.186,-0.108,-0.077,-0.021,-0.455,-0.407,-0.401,-0.203,-0.185
-0.053,-0.026,0.027,0.039,-0.039,0.0,-0.011,-0.029,-0.043,-0.095,-0.009,-0.041
-0.067,-0.027,0.04,0.047,-0.054,0.006,0.048,0.052,0.005,-0.096,-0.009,-0.037
-0.012,0.016,0.028,-0.002,-0.02,0.021,0.02,0.074,0.035,-0.068,-0.01,-0.023
0.002,0.079,0.077,-0.041,-0.038,0.077,0.028,0.11,0.084,-0.049,0.012,-0.036
0.016,0.098,0.083,-0.058,-0.034,0.09,0.012,0.142,0.084,-0.059,0.005,-0.049
0.043,0.085,0.042,-0.064,0.0,0.063,0.008,0.165,0.115,-0.021,0.031,-0.026
0.044,0.075,0.031,-0.06,0.006,0.052,0.001,0.197,0.128,-0.03,0.023,-0.021
0.044,0.058,0.014,-0.051,0.015,0.036,0.005,0.24,0.181,0.014,0.051,-0.002
0.062,0.036,-0.026,-0.048,0.043,0.005,0.016,0.286,0.215,0.026,0.065,0.013
0.093,0.024,-0.069,-0.058,0.08,-0.022,0.019,0.332,0.249,0.062,0.074,0.029
0.1,-0.031,-0.131,-0.035,0.116,-0.08,0.027,0.374,0.286,0.087,0.097,0.027
0.096,-0.065,-0.161,-0.015,0.129,-0.113,0.029,0.428,0.329,0.107,0.107,0.061
0.115,-0.087,-0.202,-0.014,0.159,-0.145,0.025,0.477,0.338,0.105,0.095,0.067
0.123,-0.132,-0.256,0.005,0.19,-0.194,0.019,0.534,0.364,0.104,0.095,0.063
0.142,-0.151,-0.293,0.005,0.218,-0.222,0.015,0.586,0.393,0.111,0.087,0.067
0.163,-0.181,-0.344,0.009,0.254,-0.262,0.007,0.655,0.4,0.125,0.085,0.062
0.182,-0.211,-0.393,0.015,0.288,-0.301,0.006,0.712,0.431,0.134,0.091,0.069
0.206,-0.202,-0.408,-0.002,0.307,-0.305,-0.016,0.715,0.447,0.141,0.095,0.066
0.169,-0.206,-0.375,0.019,0.272,-0.29,-0.009,0.679,0.45,0.182,0.148,0.098
0.14,-0.205,-0.345,0.033,0.243,-0.275,0.025,0.57,0.415,0.212,0.194,0.118
0.138,-0.204,-0.342,0.033,0.241,-0.273,0.062,0.43,0.322,0.19,0.178,0.1
0.089,-0.21,-0.299,0.06,0.194,-0.254,0.102,0.29,0.216,0.127,0.147,0.091
0.042,-0.209,-0.251,0.084,0.146,-0.23,0.103,0.173,0.126,0.069,0.118,0.079
0.011,-0.212,-0.223,0.101,0.117,-0.217,0.119,0.108,0.069,0.022,0.111,0.072
-0.003,-0.224,-0.221,0.114,0.109,-0.222,0.125,0.055,0.033,-0.004,0.106,0.066
0.017,-0.232,-0.248,0.108,0.133,-0.24,0.114,0.025,0.023,0.008,0.099,0.059
0.036,-0.234,-0.27,0.099,0.154,-0.252,0.113,0.025,0.026,0.008,0.095,0.053
0.027,-0.232,-0.259,0.103,0.144,-0.245,0.104,0.024,0.024,0.005,0.089,0.046
0.003,-0.224,-0.227,0.111,0.115,-0.225,0.101,0.021,0.025,0.005,0.083,0.041
0.004,-0.221,-0.225,0.109,0.115,-0.222,0.095,0.019,0.025,0.005,0.075,0.04
0.008,-0.214,-0.222,0.103,0.115,-0.218,0.091,0.022,0.019,-0.002,0.07,0.04
0.02,-0.208,-0.228,0.095,0.124,-0.218,0.089,0.025,0.006,-0.01,0.06,0.035
0.005,-0.206,-0.211,0.101,0.108,-0.208,0.084,0.014,-0.006,-0.011,0.074,0.034
-0.017,-0.21,-0.193,0.113,0.088,-0.201,0.081,0.003,-0.017,-0.033,0.084,0.037
0.001,-0.213,-0.213,0.106,0.107,-0.213,0.077,-0.009,-0.029,-0.051,0.071,0.041
-0.01,-0.214,-0.205,0.112,0.098,-0.209,0.075,-0.02,-0.04,-0.053,0.066,0.04
-0.019,-0.22,-0.201,0.12,0.091,-0.211,0.075,-0.03,-0.059,-0.053,0.055,0.039
-0.015,-0.218,-0.202,0.117,0.093,-0.21,0.075,-0.043,-0.07,-0.064,0.059,0.038
-0.04,-0.227,-0.187,0.134,0.073,-0.206,0.075,-0.045,-0.063,-0.075,0.059,0.032
0.004,-0.226,-0.23,0.111,0.117,-0.228,0.074,-0.037,-0.056,-0.06,0.063,0.038
0.033,-0.22,-0.253,0.093,0.143,-0.236,0.083,-0.039,-0.049,-0.048,0.065,0.038
-0.011,-0.207,-0.196,0.109,0.093,-0.201,0.108,-0.019,-0.041,-0.036,0.069,0.06
0.026,-0.145,-0.17,0.06,0.098,-0.157,0.163,0.016,-0.027,-0.022,0.109,0.071
0.064,-0.111,-0.176,0.024,0.12,-0.143,0.159,0.017,-0.013,-0.001,0.116,0.059
0.088,-0.101,-0.189,0.007,0.139,-0.145,0.073,0.004,0.001,0.027,0.132,0.107
0.078,-0.119,-0.197,0.021,0.138,-0.158,0.057,-0.006,0.013,0.014,0.142,0.116
0.048,-0.178,-0.226,0.066,0.137,-0.202,0.062,-0.022,-0.031,-0.031,0.099,0.092
0.026,-0.208,-0.234,0.091,0.13,-0.22,0.054,-0.055,-0.065,-0.029,0.087,0.078
-0.009,-0.245,-0.236,0.127,0.113,-0.24,0.058,-0.064,-0.1,-0.091,0.029,0.029
-0.011,-0.226,-0.215,0.119,0.102,-0.22,0.051,-0.09,-0.122,-0.099,0.025,0.031
-0.02,-0.229,-0.209,0.124,0.095,-0.219,0.066,-0.101,-0.138,-0.13,0.007,0.008
-0.002,-0.216,-0.215,0.109,0.107,-0.216,0.061,-0.082,-0.125,-0.117,0.012,0.015
-0.033,-0.229,-0.196,0.131,0.082,-0.212,0.079,-0.086,-0.115,-0.108,0.011,0.025
-0.037,-0.291,-0.254,0.164,0.109,-0.272,0.098,-0.013,-0.097,-0.129,-0.014,0.003
-0.115,-0.338,-0.223,0.227,0.054,-0.281,0.367,0.327,0.109,-0.06,-0.037,-0.07
-0.008,-0.231,-0.223,0.12,0.108,-0.227,0.357,0.532,0.33,0.075,0.084,0.014
0.395,0.553,0.158,-0.474,0.118,0.355,-0.416,-0.65,0.698,1.437,1.299,1.0
0.183,0.539,0.355,-0.361,-0.086,0.447,-0.481,-2.019,-0.007,1.272,1.363,1.168
-0.225,-0.398,-0.174,0.312,-0.025,-0.286,0.149,-1.689,-1.156,-0.553,-0.031,0.157
-0.334,-0.655,-0.32,0.495,-0.007,-0.487,0.352,-0.968,-0.872,-0.566,-0.25,-0.123
-0.303,-0.592,-0.289,0.447,-0.006,-0.44,0.217,-0.561,-0.441,-0.326,-0.137,-0.091
-0.071,-0.413,-0.342,0.242,0.135,-0.377,0.114,-0.039,-0.074,-0.096,0.021,0.006
0.044,-0.291,-0.335,0.124,0.19,-0.313,0.147,0.186,0.151,0.111,0.132,0.1
0.068,-0.29,-0.358,0.111,0.213,-0.324,0.138,0.197,0.101,0.024,0.07,0.078
0.042,-0.321,-0.363,0.139,0.203,-0.342,0.145,0.266,0.201,0.118,0.154,0.108
0.029,-0.355,-0.384,0.163,0.207,-0.369,0.143,0.307,0.216,0.099,0.142,0.102
0.032,-0.329,-0.361,0.149,0.197,-0.345,0.129,0.341,0.252,0.149,0.167,0.115
0.019,-0.341,-0.36,0.162,0.19,-0.351,0.129,0.367,0.26,0.141,0.165,0.11
0.062,-0.32,-0.382,0.13,0.222,-0.351,0.115,0.397,0.299,0.155,0.17,0.122
0.072,-0.295,-0.367,0.111,0.22,-0.33,0.113,0.426,0.324,0.167,0.172,0.12
0.101,-0.267,-0.368,0.083,0.234,-0.317,0.103,0.449,0.333,0.172,0.167,0.119
0.101,-0.276,-0.378,0.088,0.24,-0.327,0.096,0.488,0.376,0.192,0.173,0.121
0.103,-0.289,-0.393,0.093,0.248,-0.341,0.089,0.523,0.387,0.191,0.168,0.119
0.134,-0.299,-0.433,0.083,0.284,-0.366,0.082,0.56,0.413,0.211,0.171,0.12
0.123,-0.305,-0.428,0.091,0.276,-0.366,0.074,0.595,0.423,0.209,0.162,0.114
0.151,-0.315,-0.467,0.082,0.309,-0.391,0.067,0.65,0.421,0.205,0.154,0.115
0.175,-0.357,-0.532,0.092,0.353,-0.444,0.062,0.708,0.45,0.204,0.145,0.115
0.182,-0.358,-0.539,0.088,0.361,-0.448,0.056,0.755,0.472,0.2,0.137,0.115
0.211,-0.347,-0.558,0.069,0.385,-0.453,0.054,0.786,0.487,0.198,0.133,0.114
0.203,-0.334,-0.536,0.066,0.37,-0.435,0.046,0.772,0.514,0.239,0.162,0.131
0.191,-0.312,-0.504,0.061,0.348,-0.408,0.047,0.699,0.496,0.266,0.211,0.166
0.185,-0.299,-0.484,0.058,0.335,-0.392,0.082,0.564,0.42,0.248,0.231,0.178
0.125,-0.32,-0.445,0.098,0.285,-0.382,0.127,0.427,0.327,0.219,0.213,0.168
0.06,-0.354,-0.414,0.147,0.238,-0.384,0.161,0.315,0.235,0.165,0.178,0.156
0.05,-0.368,-0.418,0.159,0.235,-0.393,0.166,0.222,0.159,0.119,0.153,0.139
0.02,-0.399,-0.418,0.19,0.219,-0.408,0.164,0.163,0.099,0.084,0.141,0.128
-0.033,-0.413,-0.381,0.223,0.174,-0.397,0.166,0.137,0.066,0.061,0.13,0.123
-0.017,-0.407,-0.39,0.212,0.187,-0.398,0.165,0.127,0.064,0.055,0.124,0.115
0.008,-0.405,-0.413,0.199,0.211,-0.409,0.165,0.122,0.061,0.055,0.126,0.11
-0.008,-0.405,-0.398,0.207,0.195,-0.401,0.16,0.117,0.058,0.055,0.122,0.102
0.005,-0.382,-0.387,0.189,0.196,-0.384,0.157,0.111,0.056,0.055,0.12,0.1
0.026,-0.358,-0.383,0.166,0.204,-0.37,0.153,0.107,0.054,0.055,0.12,0.1
0.015,-0.36,-0.376,0.173,0.196,-0.368,0.15,0.1,0.045,0.049,0.116,0.1
0.01,-0.364,-0.375,0.177,0.193,-0.369,0.145,0.092,0.036,0.036,0.115,0.1
0.0,-0.367,-0.367,0.183,0.184,-0.367,0.147,0.083,0.027,0.025,0.113,0.1
-0.006,-0.37,-0.364,0.189,0.179,-0.367,0.153,0.076,0.019,0.015,0.11,0.1
-0.004,-0.37,-0.366,0.187,0.181,-0.367,0.151,0.068,0.002,0.005,0.108,0.095
-0.002,-0.335,-0.334,0.169,0.166,-0.334,0.15,0.046,-0.024,-0.002,0.102,0.092
-0.009,-0.329,-0.32,0.169,0.155,-0.324,0.149,0.031,-0.026,-0.012,0.091,0.087
-0.025,-0.359,-0.334,0.192,0.154,-0.346,0.145,0.038,-0.023,-0.012,0.087,0.086
-0.012,-0.357,-0.345,0.185,0.167,-0.35,0.143,0.037,-0.028,-0.007,0.073,0.078
0.014,-0.327,-0.342,0.157,0.178,-0.334,0.154,0.046,-0.006,-0.002,0.092,0.088
0.044,-0.289,-0.332,0.123,0.188,-0.31,0.203,0.066,0.036,0.03,0.12,0.122
0.048,-0.278,-0.325,0.115,0.187,-0.301,0.216,0.053,0.036,0.038,0.107,0.132
0.054,-0.224,-0.278,0.085,0.167,-0.251,0.112,0.04,0.017,0.023,0.136,0.133
0.08,-0.175,-0.256,0.048,0.168,-0.215,0.058,0.022,0.016,0.035,0.162,0.121
0.062,-0.243,-0.305,0.091,0.183,-0.273,0.066,0.006,-0.02,-0.004,0.116,0.101
0.01,-0.298,-0.309,0.144,0.16,-0.303,0.083,-0.001,-0.043,-0.021,0.086,0.084
-0.017,-0.36,-0.343,0.189,0.163,-0.351,0.126,-0.008,-0.08,-0.078,0.051,0.049
-0.011,-0.365,-0.354,0.188,0.172,-0.359,0.114,-0.013,-0.094,-0.079,0.054,0.058
-0.032,-0.373,-0.341,0.203,0.155,-0.357,0.125,-0.027,-0.097,-0.088,0.037,0.047
-0.014,-0.37,-0.356,0.192,0.171,-0.363,0.115,-0.038,-0.101,-0.087,0.03,0.042
-0.02,-0.362,-0.342,0.191,0.161,-0.352,0.124,-0.037,-0.096,-0.06,0.033,0.042
-0.024,-0.397,-0.373,0.211,0.174,-0.384,0.123,0.007,-0.086,-0.109,0.004,0.022
-0.074,-0.416,-0.342,0.245,0.135,-0.379,0.354,0.323,0.12,-0.049,-0.043,-0.061
-0.048,-0.416,-0.368,0.232,0.16,-0.391,0.465,0.604,0.326,-0.009,-0.012,-0.039
0.326,0.326,0.0,-0.326,0.162,0.163,-0.298,-0.394,0.682,1.321,1.158,0.88
0.234,0.519,0.285,-0.376,-0.026,0.402,-0.506,-1.735,0.081,1.449,1.466,1.223
-0.19,-0.329,-0.139,0.26,-0.025,-0.234,0.128,-1.629,-1.135,-0.486,0.09,0.288
-0.307,-0.661,-0.354,0.485,0.023,-0.507,0.408,-0.967,-0.918,-0.633,-0.256,-0.095
-0.304,-0.684,-0.38,0.494,0.038,-0.531,0.315,-0.58,-0.465,-0.33,-0.15,-0.086
-0.1,-0.518,-0.419,0.31,0.16,-0.468,0.153,-0.122,-0.147,-0.18,-0.039,-0.002
0.019,-0.411,-0.43,0.196,0.224,-0.42,0.166,0.186,0.171,0.083,0.13,0.124
0.024,-0.424,-0.448,0.2,0.236,-0.436,0.158,0.204,0.147,0.02,0.093,0.109
0.036,-0.397,-0.433,0.18,0.234,-0.415,0.145,0.255,0.22,0.103,0.13,0.129
0.002,-0.412,-0.414,0.205,0.208,-0.413,0.147,0.284,0.222,0.084,0.106,0.114
0.055,-0.389,-0.444,0.167,0.25,-0.417,0.138,0.304,0.255,0.129,0.147,0.123
0.115,-0.392,-0.507,0.138,0.311,-0.449,0.148,0.341,0.289,0.117,0.144,0.118
0.111,-0.387,-0.498,0.138,0.305,-0.442,0.142,0.365,0.31,0.14,0.146,0.122
0.057,-0.442,-0.499,0.192,0.278,-0.47,0.169,0.413,0.352,0.169,0.168,0.144
0.032,-0.471,-0.503,0.22,0.268,-0.487,0.16,0.426,0.362,0.17,0.156,0.144
0.061,-0.463,-0.524,0.201,0.293,-0.493,0.151,0.466,0.405,0.204,0.155,0.148
0.081,-0.476,-0.557,0.198,0.319,-0.516,0.144,0.503,0.427,0.189,0.144,0.149
0.101,-0.47,-0.571,0.185,0.337,-0.521,0.132,0.523,0.436,0.187,0.14,0.143
0.137,-0.478,-0.615,0.171,0.377,-0.547,0.129,0.57,0.453,0.178,0.133,0.138
0.143,-0.508,-0.651,0.183,0.397,-0.579,0.12,0.621,0.464,0.169,0.13,0.132
0.142,-0.53,-0.672,0.194,0.407,-0.601,0.115,0.664,0.478,0.167,0.129,0.128
0.171,-0.545,-0.716,0.187,0.444,-0.63,0.107,0.713,0.502,0.178,0.126,0.118
0.177,-0.561,-0.738,0.192,0.458,-0.649,0.101,0.752,0.544,0.199,0.121,0.112
0.18,-0.552,-0.732,0.186,0.457,-0.642,0.103,0.752,0.566,0.247,0.149,0.14
0.159,-0.537,-0.696,0.189,0.428,-0.616,0.116,0.684,0.529,0.285,0.199,0.175
0.128,-0.545,-0.673,0.209,0.401,-0.609,0.156,0.556,0.472,0.265,0.222,0.198
0.1,-0.547,-0.647,0.224,0.374,-0.596,0.205,0.434,0.378,0.223,0.209,0.197
0.058,-0.564,-0.622,0.254,0.34,-0.593,0.229,0.328,0.271,0.173,0.176,0.183
0.028,-0.58,-0.608,0.276,0.318,-0.594,0.228,0.242,0.193,0.129,0.16,0.17
0.003,-0.561,-0.564,0.279,0.284,-0.563,0.222,0.177,0.134,0.097,0.144,0.139
0.005,-0.551,-0.556,0.274,0.281,-0.553,0.219,0.139,0.116,0.078,0.134,0.124
0.004,-0.549,-0.553,0.273,0.279,-0.551,0.214,0.135,0.112,0.071,0.131,0.126
-0.003,-0.55,-0.547,0.276,0.272,-0.548,0.209,0.134,0.103,0.066,0.124,0.123
-0.005,-0.55,-0.545,0.278,0.27,-0.547,0.205,0.137,0.098,0.061,0.123,0.12
-0.011,-0.549,-0.538,0.28,0.263,-0.544,0.205,0.14,0.09,0.055,0.114,0.119
0.005,-0.55,-0.556,0.273,0.281,-0.553,0.205,0.14,0.089,0.05,0.118,0.126
0.032,-0.546,-0.578,0.257,0.305,-0.561,0.205,0.137,0.086,0.045,0.13,0.131
0.043,-0.539,-0.582,0.248,0.313,-0.56,0.206,0.117,0.074,0.041,0.125,0.124
0.03,-0.532,-0.562,0.251,0.296,-0.547,0.202,0.1,0.063,0.036,0.121,0.12
0.016,-0.526,-0.542,0.255,0.279,-0.534,0.199,0.089,0.051,0.032,0.117,0.117
0.011,-0.519,-0.53,0.254,0.271,-0.524,0.195,0.076,0.034,0.025,0.111,0.11
0.011,-0.51,-0.521,0.25,0.266,-0.516,0.192,0.066,0.019,0.015,0.104,0.113
0.016,-0.499,-0.514,0.242,0.265,-0.506,0.187,0.053,0.009,0.003,0.093,0.114
0.017,-0.491,-0.508,0.237,0.263,-0.499,0.185,0.043,0.011,-0.013,0.088,0.117
0.042,-0.471,-0.513,0.214,0.278,-0.491,0.189,0.038,0.001,-0.02,0.075,0.12
0.037,-0.437,-0.474,0.2,0.256,-0.456,0.197,0.046,0.02,0.004,0.09,0.12
0.013,-0.412,-0.425,0.2,0.219,-0.419,0.242,0.049,0.07,0.042,0.117,0.127
0.044,-0.381,-0.426,0.169,0.235,-0.403,0.227,0.037,0.066,0.043,0.112,0.134
0.072,-0.331,-0.403,0.13,0.238,-0.367,0.151,0.031,0.059,0.056,0.147,0.157
0.08,-0.319,-0.399,0.12,0.239,-0.359,0.146,0.018,0.045,0.04,0.144,0.155
0.065,-0.371,-0.436,0.153,0.251,-0.404,0.153,0.013,0.009,0.0,0.098,0.135
0.032,-0.408,-0.44,0.188,0.237,-0.424,0.153,-0.01,-0.016,-0.006,0.078,0.111
0.004,-0.455,-0.459,0.226,0.231,-0.456,0.152,-0.026,-0.065,-0.076,0.017,0.062
-0.025,-0.459,-0.434,0.242,0.205,-0.447,0.139,-0.047,-0.068,-0.059,0.037,0.065
-0.019,-0.46,-0.441,0.24,0.211,-0.451,0.144,-0.053,-0.086,-0.092,0.02,0.04
-0.023,-0.44,-0.416,0.232,0.197,-0.428,0.127,-0.042,-0.061,-0.065,0.034,0.048
-0.074,-0.458,-0.384,0.266,0.155,-0.421,0.131,-0.069,-0.096,-0.104,0.005,0.025
-0.043,-0.466,-0.423,0.255,0.19,-0.444,0.149,0.012,-0.052,-0.098,-0.024,0.002
-0.097,-0.487,-0.39,0.293,0.147,-0.438,0.436,0.375,0.168,-0.085,-0.104,-0.097
0.029,-0.303,-0.332,0.137,0.181,-0.317,0.354,0.47,0.412,0.149,0.11,0.062
0.342,0.493,0.152,-0.417,0.095,0.323,-0.438,-0.785,0.514,1.486,1.338,1.011
0.105,0.409,0.304,-0.258,-0.099,0.356,-0.446,-1.906,-0.551,0.826,1.106,0.983
-0.219,-0.359,-0.14,0.289,-0.039,-0.25,0.136,-1.445,-1.323,-0.804,-0.174,0.095
-0.277,-0.561,-0.284,0.419,0.004,-0.422,0.331,-0.877,-0.824,-0.566,-0.275,-0.122
-0.244,-0.561,-0.316,0.403,0.036,-0.438,0.202,-0.537,-0.465,-0.378,-0.207,-0.117
-0.056,-0.398,-0.343,0.227,0.143,-0.37,0.089,-0.067,-0.073,-0.12,-0.04,0.002
0.041,-0.327,-0.368,0.143,0.205,-0.347,0.143,0.121,0.118,0.021,0.034,0.055
0.011,-0.318,-0.329,0.154,0.17,-0.324,0.125,0.154,0.12,0.004,0.029,0.045
0.025,-0.301,-0.326,0.138,0.175,-0.313,0.133,0.197,0.2,0.096,0.098,0.081
0.064,-0.312,-0.376,0.124,0.221,-0.343,0.138,0.217,0.194,0.054,0.068,0.068
0.093,-0.294,-0.387,0.101,0.24,-0.34,0.132,0.253,0.241,0.104,0.085,0.08
0.107,-0.299,-0.406,0.096,0.257,-0.352,0.134,0.277,0.275,0.119,0.086,0.092
0.098,-0.298,-0.395,0.1,0.247,-0.346,0.118,0.302,0.307,0.155,0.099,0.1
0.102,-0.296,-0.398,0.097,0.25,-0.347,0.116,0.333,0.318,0.152,0.089,0.087
0.091,-0.286,-0.377,0.098,0.234,-0.331,0.104,0.359,0.342,0.151,0.087,0.083
0.111,-0.263,-0.374,0.076,0.242,-0.318,0.099,0.378,0.36,0.151,0.086,0.076
0.12,-0.23,-0.35,0.055,0.235,-0.29,0.085,0.405,0.367,0.143,0.079,0.067
0.123,-0.23,-0.354,0.054,0.239,-0.292,0.071,0.431,0.385,0.146,0.078,0.061
0.138,-0.25,-0.387,0.056,0.263,-0.318,0.061,0.467,0.406,0.139,0.068,0.054
0.117,-0.28,-0.397,0.081,0.258,-0.338,0.051,0.518,0.432,0.139,0.044,0.047
0.157,-0.299,-0.456,0.071,0.307,-0.377,0.045,0.551,0.446,0.132,0.027,0.038
0.173,-0.314,-0.487,0.071,0.331,-0.4,0.036,0.607,0.474,0.119,0.017,0.037
0.181,-0.32,-0.501,0.07,0.341,-0.41,0.03,0.621,0.496,0.149,0.017,0.04
0.193,-0.288,-0.481,0.048,0.337,-0.384,0.039,0.59,0.5,0.201,0.068,0.061
0.156,-0.253,-0.409,0.048,0.283,-0.33,0.041,0.506,0.449,0.207,0.103,0.095
0.114,-0.237,-0.351,0.062,0.233,-0.294,0.069,0.359,0.335,0.17,0.093,0.103
0.077,-0.242,-0.319,0.083,0.198,-0.281,0.107,0.243,0.221,0.114,0.079,0.095
0.06,-0.247,-0.307,0.094,0.184,-0.277,0.125,0.148,0.145,0.063,0.074,0.086
0.041,-0.257,-0.298,0.108,0.17,-0.278,0.148,0.089,0.086,0.027,0.06,0.068
0.013,-0.281,-0.294,0.134,0.154,-0.287,0.147,0.05,0.027,-0.009,0.024,0.042
-0.002,-0.287,-0.285,0.144,0.142,-0.286,0.138,0.011,0.003,-0.049,0.009,0.033
0.0,-0.274,-0.274,0.138,0.137,-0.274,0.133,-0.014,-0.006,-0.061,0.009,0.029
0.007,-0.259,-0.266,0.126,0.137,-0.262,0.125,-0.025,-0.014,-0.06,0.016,0.024
0.032,-0.232,-0.265,0.101,0.149,-0.248,0.12,-0.036,-0.018,-0.06,0.02,0.02
0.044,-0.22,-0.264,0.088,0.154,-0.241,0.115,-0.062,-0.022,-0.061,0.009,0.015
0.045,-0.215,-0.26,0.085,0.152,-0.237,0.11,-0.068,-0.017,-0.059,0.001,0.022
0.059,-0.199,-0.258,0.07,0.159,-0.228,0.105,-0.072,-0.028,-0.059,-0.014,0.038
0.044,-0.211,-0.254,0.084,0.149,-0.232,0.101,-0.075,-0.045,-0.081,-0.021,0.047
0.027,-0.224,-0.251,0.099,0.139,-0.238,0.096,-0.082,-0.046,-0.089,-0.015,0.041
0.038,-0.212,-0.25,0.087,0.145,-0.231,0.093,-0.095,-0.048,-0.089,-0.01,0.033
0.038,-0.205,-0.243,0.084,0.14,-0.224,0.089,-0.104,-0.061,-0.095,-0.006,0.023
0.029,-0.195,-0.224,0.083,0.127,-0.21,0.086,-0.119,-0.078,-0.093,-0.031,0.002
0.026,-0.184,-0.209,0.079,0.118,-0.196,0.082,-0.116,-0.073,-0.09,-0.04,-0.007
0.021,-0.178,-0.199,0.078,0.11,-0.188,0.079,-0.109,-0.065,-0.089,-0.021,0.002
0.02,-0.14,-0.16,0.061,0.09,-0.15,0.101,-0.104,-0.06,-0.081,-0.013,0.012
0.019,-0.08,-0.099,0.031,0.059,-0.089,0.136,-0.101,-0.053,-0.051,0.002,0.027
0.037,-0.064,-0.101,0.013,0.069,-0.082,0.12,-0.109,-0.056,-0.052,0.006,0.037
0.068,-0.05,-0.117,-0.009,0.093,-0.083,0.051,-0.142,-0.058,-0.05,0.018,0.052
0.06,-0.037,-0.098,-0.011,0.079,-0.067,0.025,-0.172,-0.082,-0.047,0.023,0.055
0.082,-0.064,-0.146,-0.009,0.114,-0.105,0.032,-0.168,-0.093,-0.067,0.01,0.035
0.064,-0.099,-0.164,0.018,0.114,-0.131,0.043,-0.171,-0.096,-0.08,-0.007,0.025
-0.009,-0.175,-0.166,0.092,0.079,-0.17,0.052,-0.174,-0.132,-0.14,-0.069,0.0
-0.033,-0.194,-0.161,0.113,0.064,-0.178,0.048,-0.193,-0.134,-0.122,-0.059,-0.004
-0.036,-0.214,-0.178,0.126,0.071,-0.196,0.053,-0.19,-0.15,-0.169,-0.083,-0.04
-0.004,-0.196,-0.192,0.1,0.094,-0.193,0.046,-0.182,-0.127,-0.14,-0.058,-0.039
-0.01,-0.195,-0.184,0.103,0.087,-0.189,0.052,-0.199,-0.16,-0.164,-0.078,-0.048
-0.014,-0.205,-0.191,0.109,0.089,-0.198,0.085,-0.12,-0.102,-0.132,-0.092,-0.059
-0.104,-0.231,-0.128,0.168,0.012,-0.179,0.379,0.236,0.126,-0.124,-0.175,-0.158
0.027,-0.048,-0.075,0.011,0.051,-0.061,0.261,0.28,0.387,0.162,0.077,0.018
0.313,0.697,0.385,-0.505,-0.036,0.54,-0.515,-1.005,0.282,1.352,1.283,0.941
0.073,0.551,0.477,-0.312,-0.202,0.514,-0.506,-2.009,-0.863,0.54,0.952,0.869
-0.191,-0.213,-0.021,0.202,-0.084,-0.117,0.054,-1.479,-1.397,-0.897,-0.296,-0.002
-0.255,-0.374,-0.119,0.315,-0.068,-0.246,0.256,-0.935,-0.852,-0.602,-0.348,-0.192
-0.22,-0.341,-0.122,0.281,-0.049,-0.231,0.126,-0.611,-0.5,-0.418,-0.263,-0.179
-0.051,-0.169,-0.117,0.11,0.033,-0.143,0.028,-0.173,-0.099,-0.151,-0.111,-0.074
0.003,-0.091,-0.094,0.044,0.049,-0.092,0.09,-0.027,0.07,-0.047,-0.061,-0.051
0.045,-0.031,-0.077,-0.007,0.061,-0.054,0.035,-0.015,0.039,-0.068,-0.081,-0.076
0.081,0.024,-0.057,-0.052,0.068,-0.016,0.035,0.032,0.099,-0.011,-0.032,-0.042
0.073,0.005,-0.068,-0.039,0.07,-0.031,0.045,0.052,0.122,-0.021,-0.026,-0.029
0.069,0.019,-0.049,-0.044,0.059,-0.015,0.033,0.07,0.16,0.045,0.006,-0.014
0.072,0.022,-0.05,-0.046,0.06,-0.014,0.04,0.088,0.177,0.029,-0.012,-0.032
0.088,0.048,-0.04,-0.068,0.064,0.004,0.028,0.12,0.211,0.076,-0.002,-0.027
0.076,0.044,-0.032,-0.06,0.054,0.006,0.033,0.15,0.248,0.081,-0.005,-0.037
0.069,0.031,-0.038,-0.05,0.053,-0.003,0.026,0.173,0.259,0.076,-0.015,-0.039
0.099,0.03,-0.07,-0.064,0.084,-0.02,0.023,0.205,0.284,0.099,-0.011,-0.036
0.107,0.014,-0.092,-0.06,0.099,-0.039,0.018,0.26,0.327,0.114,0.018,-0.026
0.114,0.006,-0.108,-0.06,0.111,-0.05,0.014,0.284,0.344,0.112,-0.008,-0.022
0.157,0.046,-0.111,-0.101,0.134,-0.033,0.01,0.301,0.352,0.103,-0.042,-0.039
0.144,0.028,-0.116,-0.085,0.13,-0.044,0.005,0.368,0.385,0.104,-0.038,-0.044
0.148,-0.042,-0.19,-0.053,0.169,-0.115,0.002,0.408,0.41,0.093,-0.057,-0.038
0.202,-0.05,-0.251,-0.076,0.227,-0.15,-0.004,0.455,0.436,0.102,-0.068,-0.032
0.191,-0.03,-0.221,-0.08,0.206,-0.125,-0.008,0.468,0.468,0.134,-0.058,-0.027
0.177,0.027,-0.15,-0.102,0.163,-0.061,-0.017,0.41,0.437,0.145,-0.046,-0.02
0.158,0.083,-0.076,-0.12,0.117,0.003,-0.028,0.317,0.354,0.139,-0.047,-0.018
0.111,0.095,-0.016,-0.103,0.064,0.039,-0.011,0.174,0.231,0.098,-0.039,-0.012
0.063,0.103,0.039,-0.083,0.012,0.071,0.018,0.051,0.099,0.023,-0.044,-0.023
0.017,0.092,0.075,-0.055,-0.029,0.083,0.032,-0.042,0.003,-0.041,-0.055,-0.049
0.01,0.085,0.075,-0.048,-0.033,0.08,0.04,-0.109,-0.069,-0.09,-0.06,-0.054
0.003,0.077,0.074,-0.04,-0.036,0.076,0.042,-0.147,-0.101,-0.118,-0.092,-0.061
-0.007,0.069,0.076,-0.032,-0.041,0.072,0.044,-0.16,-0.106,-0.127,-0.097,-0.06
-0.018,0.056,0.074,-0.019,-0.046,0.065,0.048,-0.153,-0.104,-0.13,-0.093,-0.055
-0.028,0.045,0.072,-0.009,-0.05,0.058,0.05,-0.156,-0.105,-0.13,-0.097,-0.054
-0.029,0.04,0.068,-0.006,-0.049,0.054,0.048,-0.152,-0.105,-0.129,-0.093,-0.049
-0.033,0.038,0.071,-0.003,-0.052,0.055,0.043,-0.15,-0.104,-0.13,-0.097,-0.051
-0.001,0.068,0.069,-0.033,-0.035,0.068,0.04,-0.15,-0.112,-0.13,-0.093,-0.06
0.014,0.087,0.073,-0.051,-0.03,0.079,0.029,-0.153,-0.116,-0.129,-0.099,-0.07
0.004,0.129,0.125,-0.067,-0.061,0.126,0.01,-0.18,-0.129,-0.147,-0.111,-0.079
0.002,0.166,0.164,-0.084,-0.082,0.165,0.0,-0.199,-0.146,-0.158,-0.109,-0.086
0.008,0.165,0.157,-0.086,-0.075,0.16,-0.009,-0.203,-0.154,-0.154,-0.119,-0.092
0.009,0.164,0.155,-0.087,-0.073,0.159,-0.006,-0.21,-0.166,-0.154,-0.131,-0.096
0.012,0.172,0.16,-0.092,-0.075,0.166,-0.026,-0.231,-0.181,-0.175,-0.138,-0.09
0.027,0.211,0.184,-0.119,-0.078,0.197,-0.032,-0.226,-0.186,-0.191,-0.138,-0.093
0.017,0.249,0.232,-0.133,-0.107,0.24,-0.019,-0.228,-0.185,-0.185,-0.132,-0.1
0.035,0.326,0.291,-0.18,-0.128,0.308,-0.007,-0.245,-0.183,-0.18,-0.126,-0.092
0.046,0.373,0.327,-0.21,-0.141,0.35,0.023,-0.218,-0.175,-0.176,-0.121,-0.085
0.071,0.375,0.304,-0.224,-0.117,0.34,-0.071,-0.273,-0.2,-0.173,-0.124,-0.08
0.07,0.39,0.32,-0.23,-0.125,0.355,-0.143,-0.344,-0.218,-0.167,-0.123,-0.069
0.018,0.361,0.343,-0.19,-0.163,0.352,-0.116,-0.329,-0.226,-0.187,-0.133,-0.084
0.013,0.348,0.336,-0.181,-0.162,0.342,-0.117,-0.342,-0.26,-0.209,-0.16,-0.127
-0.019,0.285,0.304,-0.133,-0.162,0.294,-0.102,-0.34,-0.282,-0.264,-0.214,-0.17
-0.019,0.269,0.288,-0.126,-0.153,0.278,-0.103,-0.336,-0.27,-0.255,-0.207,-0.168
-0.032,0.25,0.282,-0.109,-0.157,0.266,-0.089,-0.333,-0.3,-0.289,-0.229,-0.183
-0.021,0.247,0.269,-0.113,-0.145,0.258,-0.09,-0.31,-0.296,-0.266,-0.239,-0.183
-0.029,0.25,0.279,-0.111,-0.154,0.265,-0.076,-0.328,-0.306,-0.275,-0.247,-0.182
-0.024,0.217,0.24,-0.097,-0.132,0.228,-0.056,-0.29,-0.276,-0.288,-0.233,-0.18
-0.03,0.24,0.27,-0.105,-0.151,0.255,0.161,-0.02,-0.085,-0.228,-0.294,-0.277
-0.025,0.239,0.263,-0.107,-0.144,0.251,0.215,0.203,0.182,-0.113,-0.224,-0.234
0.223,0.884,0.661,-0.554,-0.22,0.772,-0.499,-0.822,0.154,1.003,0.934,0.63
0.099,1.008,0.91,-0.554,-0.406,0.959,-0.741,-2.079,-0.934,0.618,0.985,0.825
-0.216,0.21,0.426,0.002,-0.321,0.318,-0.209,-1.72,-1.609,-0.952,-0.316,-0.005
-0.305,-0.048,0.257,0.176,-0.281,0.104,0.085,-1.08,-1.093,-0.811,-0.517,-0.305
-0.295,-0.041,0.254,0.168,-0.275,0.106,0.029,-0.799,-0.7,-0.564,-0.427,-0.312
-0.127,0.13,0.256,-0.002,-0.192,0.193,-0.1,-0.365,-0.305,-0.325,-0.291,-0.233
-0.047,0.235,0.282,-0.094,-0.165,0.258,-0.079,-0.157,-0.076,-0.131,-0.156,-0.168
-0.031,0.23,0.261,-0.1,-0.146,0.246,-0.076,-0.132,-0.067,-0.164,-0.196,-0.179
-0.014,0.291,0.305,-0.139,-0.16,0.298,-0.078,-0.108,-0.017,-0.082,-0.153,-0.151
0.009,0.302,0.293,-0.156,-0.142,0.298,-0.063,-0.1,-0.012,-0.116,-0.174,-0.163
0.03,0.323,0.293,-0.177,-0.132,0.307,-0.071,-0.082,0.039,-0.07,-0.133,-0.155
0.017,0.31,0.293,-0.163,-0.139,0.301,-0.073,-0.051,0.059,-0.078,-0.121,-0.164
0.015,0.329,0.314,-0.173,-0.15,0.321,-0.092,-0.02,0.08,-0.057,-0.141,-0.165
0.021,0.326,0.306,-0.174,-0.143,0.316,-0.094,0.011,0.113,-0.028,-0.149,-0.159
0.031,0.318,0.287,-0.174,-0.129,0.302,-0.096,0.038,0.148,-0.007,-0.141,-0.138
0.034,0.313,0.279,-0.174,-0.122,0.296,-0.094,0.067,0.172,0.002,-0.13,-0.123
0.048,0.305,0.257,-0.177,-0.105,0.281,-0.095,0.115,0.205,0.01,-0.132,-0.127
0.052,0.284,0.233,-0.168,-0.091,0.258,-0.094,0.158,0.243,0.046,-0.125,-0.122
0.055,0.251,0.195,-0.153,-0.07,0.223,-0.102,0.19,0.269,0.045,-0.125,-0.131
0.077,0.24,0.163,-0.159,-0.043,0.201,-0.124,0.234,0.293,0.044,-0.156,-0.158
0.099,0.215,0.116,-0.157,-0.009,0.166,-0.124,0.287,0.316,0.047,-0.167,-0.169
0.107,0.193,0.087,-0.151,0.01,0.14,-0.119,0.331,0.358,0.043,-0.16,-0.157
0.104,0.17,0.067,-0.137,0.018,0.119,-0.117,0.359,0.382,0.073,-0.155,-0.145
0.103,0.198,0.096,-0.151,0.003,0.147,-0.111,0.314,0.353,0.103,-0.119,-0.142
0.095,0.269,0.174,-0.182,-0.039,0.221,-0.111,0.19,0.259,0.068,-0.104,-0.146
0.052,0.277,0.225,-0.165,-0.087,0.251,-0.091,0.066,0.142,0.021,-0.102,-0.145
0.008,0.273,0.265,-0.141,-0.129,0.269,-0.073,-0.041,0.032,-0.027,-0.103,-0.149
-0.009,0.277,0.286,-0.134,-0.148,0.281,-0.076,-0.143,-0.086,-0.108,-0.145,-0.151
-0.048,0.273,0.321,-0.113,-0.185,0.297,-0.074,-0.207,-0.161,-0.168,-0.174,-0.146
-0.071,0.276,0.348,-0.103,-0.21,0.312,-0.076,-0.241,-0.202,-0.19,-0.191,-0.166
-0.076,0.278,0.354,-0.101,-0.215,0.316,-0.074,-0.269,-0.23,-0.215,-0.207,-0.183
-0.08,0.282,0.362,-0.101,-0.221,0.322,-0.076,-0.275,-0.23,-0.221,-0.205,-0.179
-0.072,0.286,0.358,-0.107,-0.215,0.321,-0.073,-0.274,-0.229,-0.213,-0.202,-0.18
-0.069,0.287,0.356,-0.109,-0.212,0.321,-0.078,-0.275,-0.227,-0.206,-0.201,-0.18
-0.053,0.308,0.361,-0.128,-0.207,0.334,-0.095,-0.275,-0.224,-0.213,-0.198,-0.18
-0.043,0.325,0.367,-0.141,-0.205,0.346,-0.095,-0.275,-0.225,-0.226,-0.202,-0.184
-0.038,0.306,0.344,-0.134,-0.191,0.325,-0.096,-0.276,-0.244,-0.228,-0.222,-0.188
-0.052,0.322,0.374,-0.136,-0.213,0.348,-0.093,-0.281,-0.251,-0.229,-0.233,-0.193
-0.078,0.351,0.428,-0.137,-0.253,0.389,-0.101,-0.295,-0.252,-0.233,-0.233,-0.194
-0.073,0.343,0.416,-0.135,-0.244,0.379,-0.123,-0.298,-0.27,-0.241,-0.227,-0.19
-0.063,0.341,0.404,-0.14,-0.234,0.372,-0.117,-0.292,-0.264,-0.23,-0.218,-0.19
-0.044,0.33,0.374,-0.143,-0.21,0.351,-0.102,-0.286,-0.257,-0.219,-0.209,-0.185
-0.032,0.317,0.349,-0.142,-0.191,0.332,-0.102,-0.282,-0.251,-0.213,-0.201,-0.185
-0.054,0.286,0.34,-0.116,-0.197,0.313,-0.079,-0.275,-0.243,-0.201,-0.191,-0.175
-0.053,0.316,0.369,-0.132,-0.211,0.342,-0.057,-0.272,-0.239,-0.202,-0.185,-0.146
-0.052,0.395,0.447,-0.172,-0.25,0.42,-0.027,-0.267,-0.234,-0.197,-0.174,-0.15
-0.066,0.371,0.437,-0.153,-0.252,0.404,-0.036,-0.264,-0.235,-0.203,-0.165,-0.148
-0.047,0.408,0.455,-0.182,-0.251,0.431,-0.137,-0.319,-0.246,-0.197,-0.157,-0.123
-0.004,0.407,0.411,-0.202,-0.207,0.408,-0.159,-0.348,-0.264,-0.196,-0.131,-0.117
0.03,0.336,0.306,-0.183,-0.138,0.32,-0.153,-0.333,-0.257,-0.196,-0.149,-0.119
-0.043,0.328,0.371,-0.143,-0.207,0.349,-0.143,-0.346,-0.267,-0.202,-0.185,-0.14
-0.074,0.259,0.333,-0.093,-0.203,0.295,-0.103,-0.334,-0.293,-0.254,-0.218,-0.173
-0.05,0.25,0.3,-0.101,-0.175,0.275,-0.107,-0.346,-0.312,-0.244,-0.219,-0.174
-0.067,0.227,0.294,-0.08,-0.18,0.26,-0.103,-0.332,-0.337,-0.294,-0.263,-0.187
-0.055,0.244,0.299,-0.095,-0.177,0.271,-0.112,-0.325,-0.31,-0.249,-0.243,-0.17
-0.083,0.238,0.322,-0.078,-0.203,0.28,-0.111,-0.32,-0.317,-0.271,-0.253,-0.178
-0.057,0.207,0.264,-0.075,-0.161,0.235,-0.065,-0.228,-0.243,-0.234,-0.254,-0.191
-0.139,0.188,0.328,-0.025,-0.234,0.258,0.21,0.067,-0.047,-0.234,-0.348,-0.317
-0.036,0.349,0.385,-0.157,-0.211,0.367,0.084,0.113,0.23,0.099,-0.058,-0.112
0.23,1.069,0.838,-0.65,-0.304,0.953,-0.679,-1.158,-0.111,1.072,1.08,0.766
-0.01,0.94,0.95,-0.465,-0.48,0.945,-0.717,-2.094,-1.356,0.107,0.664,0.645
-0.214,0.169,0.383,0.022,-0.299,0.276,-0.164,-1.479,-1.608,-1.087,-0.502,-0.147
-0.281,-0.047,0.234,0.164,-0.258,0.093,0.072,-0.967,-0.998,-0.718,-0.505,-0.323
-0.283,-0.022,0.261,0.152,-0.272,0.119,-0.021,-0.668,-0.628,-0.512,-0.418,-0.305
-0.063,0.187,0.25,-0.062,-0.157,0.218,-0.103,-0.27,-0.215,-0.2,-0.223,-0.183
-0.02,0.226,0.247,-0.103,-0.134,0.236,-0.045,-0.139,-0.082,-0.095,-0.149,-0.148
-0.039,0.213,0.252,-0.087,-0.145,0.232,-0.064,-0.123,-0.065,-0.096,-0.167,-0.141
-0.014,0.224,0.238,-0.105,-0.127,0.231,-0.073,-0.07,0.008,-0.046,-0.129,-0.12
-0.013,0.207,0.22,-0.097,-0.116,0.213,-0.069,-0.041,0.031,-0.058,-0.148,-0.125
-0.002,0.237,0.239,-0.118,-0.12,0.237,-0.064,-0.025,0.057,-0.01,-0.126,-0.106
0.008,0.224,0.216,-0.116,-0.104,0.22,-0.055,0.01,0.078,-0.009,-0.138,-0.106
-0.006,0.213,0.219,-0.104,-0.113,0.216,-0.049,0.035,0.12,0.041,-0.123,-0.102
0.005,0.211,0.206,-0.109,-0.101,0.208,-0.047,0.061,0.15,0.056,-0.109,-0.117
0.048,0.249,0.201,-0.149,-0.076,0.225,-0.082,0.086,0.176,0.064,-0.091,-0.104
0.025,0.218,0.193,-0.122,-0.084,0.205,-0.086,0.129,0.21,0.084,-0.089,-0.105
0.053,0.181,0.128,-0.117,-0.038,0.154,-0.083,0.175,0.258,0.105,-0.09,-0.105
0.081,0.18,0.099,-0.13,-0.009,0.139,-0.087,0.214,0.296,0.102,-0.091,-0.104
0.052,0.144,0.092,-0.098,-0.021,0.118,-0.082,0.268,0.331,0.121,-0.087,-0.106
0.078,0.136,0.058,-0.107,0.009,0.097,-0.087,0.297,0.351,0.134,-0.113,-0.103
0.119,0.126,0.007,-0.123,0.056,0.066,-0.071,0.345,0.377,0.128,-0.129,-0.126
0.13,0.122,-0.009,-0.126,0.069,0.056,-0.073,0.384,0.407,0.13,-0.122,-0.13
0.112,0.184,0.072,-0.148,0.02,0.128,-0.107,0.372,0.401,0.133,-0.132,-0.131
0.098,0.222,0.124,-0.16,-0.014,0.173,-0.104,0.338,0.374,0.138,-0.108,-0.102
0.076,0.233,0.157,-0.155,-0.04,0.194,-0.093,0.222,0.275,0.111,-0.102,-0.065
0.039,0.253,0.214,-0.146,-0.088,0.233,-0.078,0.095,0.137,0.069,-0.11,-0.074
0.022,0.248,0.226,-0.135,-0.102,0.237,-0.068,-0.007,0.028,0.014,-0.108,-0.082
0.017,0.251,0.234,-0.134,-0.108,0.242,-0.07,-0.096,-0.077,-0.055,-0.123,-0.103
-0.022,0.249,0.272,-0.114,-0.147,0.26,-0.073,-0.147,-0.146,-0.116,-0.153,-0.117
-0.053,0.25,0.303,-0.099,-0.178,0.276,-0.073,-0.195,-0.179,-0.136,-0.167,-0.122
-0.045,0.257,0.302,-0.106,-0.174,0.279,-0.081,-0.221,-0.221,-0.176,-0.202,-0.167
-0.051,0.246,0.297,-0.098,-0.174,0.271,-0.086,-0.225,-0.236,-0.201,-0.217,-0.173
-0.066,0.228,0.294,-0.081,-0.18,0.261,-0.074,-0.226,-0.212,-0.165,-0.187,-0.137
-0.066,0.219,0.285,-0.077,-0.176,0.252,-0.061,-0.222,-0.191,-0.154,-0.17,-0.132
-0.058,0.221,0.279,-0.082,-0.169,0.25,-0.049,-0.22,-0.181,-0.154,-0.161,-0.128
-0.044,0.218,0.261,-0.087,-0.152,0.239,-0.078,-0.22,-0.179,-0.155,-0.173,-0.122
-0.041,0.231,0.272,-0.095,-0.157,0.251,-0.094,-0.224,-0.181,-0.155,-0.176,-0.12
-0.053,0.248,0.3,-0.098,-0.177,0.274,-0.088,-0.225,-0.179,-0.155,-0.16,-0.113
-0.035,0.25,0.285,-0.108,-0.16,0.267,-0.091,-0.225,-0.179,-0.155,-0.15,-0.117
-0.034,0.254,0.289,-0.11,-0.162,0.271,-0.089,-0.225,-0.213,-0.153,-0.177,-0.145
-0.044,0.258,0.303,-0.107,-0.174,0.28,-0.09,-0.225,-0.236,-0.15,-0.194,-0.153
-0.045,0.26,0.305,-0.108,-0.175,0.282,-0.089,-0.239,-0.238,-0.15,-0.191,-0.145
-0.073,0.259,0.332,-0.094,-0.202,0.295,-0.097,-0.257,-0.241,-0.168,-0.196,-0.145
-0.073,0.261,0.334,-0.094,-0.203,0.297,-0.107,-0.268,-0.254,-0.177,-0.187,-0.14
-0.049,0.258,0.307,-0.105,-0.179,0.282,-0.089,-0.257,-0.262,-0.165,-0.18,-0.14
-0.049,0.285,0.334,-0.119,-0.192,0.31,-0.076,-0.246,-0.235,-0.163,-0.172,-0.132
-0.04,0.349,0.389,-0.155,-0.215,0.369,-0.067,-0.24,-0.202,-0.16,-0.163,-0.123
-0.046,0.38,0.426,-0.168,-0.236,0.403,-0.046,-0.222,-0.198,-0.155,-0.15,-0.111
-0.025,0.403,0.427,-0.189,-0.226,0.415,-0.132,-0.275,-0.238,-0.158,-0.146,-0.104
-0.004,0.421,0.425,-0.209,-0.214,0.422,-0.189,-0.326,-0.265,-0.132,-0.121,-0.093
-0.025,0.369,0.394,-0.172,-0.21,0.381,-0.165,-0.302,-0.257,-0.134,-0.126,-0.094
-0.03,0.32,0.35,-0.146,-0.19,0.335,-0.156,-0.3,-0.251,-0.152,-0.159,-0.125
-0.047,0.281,0.327,-0.117,-0.187,0.304,-0.113,-0.293,-0.268,-0.19,-0.19,-0.151
-0.06,0.259,0.319,-0.099,-0.19,0.288,-0.12,-0.294,-0.296,-0.197,-0.204,-0.158
-0.082,0.255,0.337,-0.087,-0.209,0.296,-0.125,-0.299,-0.321,-0.23,-0.231,-0.184
-0.046,0.283,0.328,-0.119,-0.187,0.305,-0.126,-0.288,-0.305,-0.202,-0.213,-0.173
-0.065,0.283,0.348,-0.109,-0.206,0.315,-0.123,-0.305,-0.327,-0.226,-0.221,-0.185
-0.088,0.269,0.357,-0.091,-0.222,0.313,-0.098,-0.238,-0.286,-0.239,-0.227,-0.188
-0.118,0.279,0.397,-0.081,-0.258,0.338,0.12,0.01,-0.101,-0.186,-0.295,-0.275
-0.066,0.31,0.375,-0.122,-0.221,0.342,0.171,0.203,0.189,-0.049,-0.229,-0.253
0.194,0.97,0.776,-0.582,-0.291,0.873,-0.524,-0.76,0.051,0.935,0.896,0.592
0.076,1.205,1.13,-0.641,-0.527,1.167,-0.84,-2.014,-1.168,0.466,0.962,0.812
-0.181,0.463,0.644,-0.141,-0.413,0.553,-0.357,-1.66,-1.733,-0.992,-0.337,-0.012
-0.275,0.097,0.371,0.089,-0.323,0.234,0.004,-0.994,-1.135,-0.813,-0.56,-0.326
-0.304,0.074,0.378,0.115,-0.342,0.226,-0.012,-0.728,-0.729,-0.525,-0.427,-0.327
-0.157,0.235,0.392,-0.039,-0.275,0.313,-0.144,-0.314,-0.313,-0.259,-0.284,-0.215
-0.033,0.374,0.407,-0.171,-0.221,0.391,-0.129,-0.134,-0.09,-0.061,-0.16,-0.13
-0.011,0.351,0.362,-0.17,-0.186,0.356,-0.115,-0.121,-0.087,-0.107,-0.187,-0.162
-0.011,0.355,0.366,-0.172,-0.189,0.36,-0.114,-0.083,-0.016,-0.015,-0.142,-0.145
-0.008,0.332,0.34,-0.163,-0.174,0.336,-0.104,-0.048,0.005,-0.017,-0.151,-0.147
0.004,0.351,0.347,-0.178,-0.172,0.349,-0.109,-0.017,0.041,0.02,-0.123,-0.125
0.018,0.363,0.344,-0.191,-0.163,0.353,-0.099,0.009,0.053,0.022,-0.125,-0.123
0.016,0.354,0.338,-0.185,-0.161,0.346,-0.103,0.03,0.081,0.03,-0.113,-0.112
0.005,0.348,0.342,-0.176,-0.169,0.345,-0.096,0.074,0.126,0.068,-0.097,-0.104
0.003,0.338,0.335,-0.171,-0.166,0.336,-0.095,0.102,0.16,0.092,-0.08,-0.107
0.034,0.333,0.3,-0.184,-0.133,0.317,-0.091,0.127,0.2,0.105,-0.052,-0.099
0.06,0.328,0.268,-0.194,-0.104,0.298,-0.088,0.181,0.238,0.138,-0.067,-0.104
0.042,0.328,0.285,-0.185,-0.122,0.306,-0.105,0.199,0.247,0.149,-0.107,-0.117
0.045,0.323,0.278,-0.185,-0.117,0.301,-0.111,0.235,0.274,0.142,-0.123,-0.13
0.086,0.308,0.221,-0.197,-0.068,0.264,-0.11,0.275,0.315,0.146,-0.116,-0.14
0.078,0.273,0.195,-0.175,-0.059,0.234,-0.109,0.325,0.345,0.146,-0.142,-0.14
0.052,0.253,0.202,-0.152,-0.075,0.227,-0.111,0.377,0.385,0.141,-0.166,-0.14
0.103,0.297,0.195,-0.2,-0.046,0.246,-0.124,0.38,0.396,0.155,-0.145,-0.141
0.137,0.327,0.191,-0.233,-0.027,0.259,-0.12,0.353,0.383,0.157,-0.137,-0.137
0.072,0.33,0.258,-0.201,-0.094,0.294,-0.112,0.26,0.303,0.143,-0.09,-0.135
0.036,0.373,0.337,-0.205,-0.15,0.355,-0.107,0.122,0.149,0.11,-0.075,-0.135
0.036,0.395,0.36,-0.215,-0.162,0.377,-0.098,-0.001,0.021,0.029,-0.13,-0.131
-0.017,0.364,0.382,-0.174,-0.2,0.373,-0.097,-0.08,-0.055,-0.019,-0.127,-0.13
-0.044,0.348,0.392,-0.152,-0.218,0.37,-0.1,-0.149,-0.141,-0.086,-0.148,-0.13
-0.04,0.342,0.383,-0.151,-0.212,0.362,-0.103,-0.19,-0.198,-0.128,-0.176,-0.137
-0.043,0.332,0.375,-0.145,-0.209,0.354,-0.105,-0.197,-0.207,-0.129,-0.185,-0.158
-0.034,0.329,0.364,-0.148,-0.199,0.346,-0.108,-0.198,-0.211,-0.157,-0.195,-0.16
-0.048,0.319,0.367,-0.135,-0.208,0.343,-0.112,-0.19,-0.21,-0.151,-0.165,-0.153
-0.063,0.316,0.378,-0.127,-0.221,0.347,-0.114,-0.188,-0.204,-0.133,-0.148,-0.15
-0.064,0.307,0.371,-0.122,-0.218,0.339,-0.119,-0.182,-0.208,-0.112,-0.153,-0.145
-0.075,0.326,0.401,-0.126,-0.239,0.363,-0.119,-0.178,-0.198,-0.131,-0.15,-0.14
-0.064,0.349,0.414,-0.142,-0.239,0.381,-0.111,-0.173,-0.197,-0.149,-0.171,-0.145
-0.075,0.323,0.398,-0.124,-0.236,0.36,-0.103,-0.167,-0.213,-0.143,-0.18,-0.143
-0.064,0.318,0.381,-0.127,-0.223,0.349,-0.095,-0.162,-0.195,-0.128,-0.148,-0.136
-0.048,0.258,0.306,-0.105,-0.177,0.281,-0.087,-0.156,-0.188,-0.102,-0.154,-0.13
-0.075,0.221,0.296,-0.073,-0.186,0.258,-0.081,-0.151,-0.189,-0.095,-0.15,-0.12
-0.068,0.227,0.295,-0.079,-0.182,0.261,-0.075,-0.154,-0.182,-0.085,-0.132,-0.11
-0.06,0.185,0.245,-0.062,-0.153,0.214,-0.068,-0.169,-0.182,-0.111,-0.132,-0.103
-0.056,0.169,0.224,-0.056,-0.14,0.196,-0.065,-0.177,-0.179,-0.122,-0.129,-0.101
-0.041,0.123,0.164,-0.041,-0.103,0.143,-0.057,-0.173,-0.186,-0.11,-0.13,-0.094
-0.041,0.114,0.155,-0.037,-0.098,0.134,-0.058,-0.176,-0.203,-0.112,-0.132,-0.093
-0.042,0.095,0.137,-0.026,-0.09,0.116,-0.04,-0.174,-0.179,-0.101,-0.114,-0.074
-0.039,0.088,0.128,-0.024,-0.084,0.108,-0.009,-0.163,-0.148,-0.091,-0.09,-0.041
-0.046,0.168,0.214,-0.061,-0.13,0.191,0.022,-0.145,-0.119,-0.046,-0.08,-0.03
-0.029,0.169,0.198,-0.07,-0.114,0.183,0.02,-0.127,-0.112,-0.041,-0.073,-0.03
0.005,0.156,0.151,-0.08,-0.073,0.153,-0.071,-0.177,-0.147,-0.049,-0.063,-0.026
0.006,0.162,0.156,-0.085,-0.075,0.159,-0.096,-0.213,-0.157,-0.011,-0.059,-0.012
0.021,0.103,0.082,-0.062,-0.031,0.092,-0.074,-0.215,-0.153,0.001,-0.063,0.001
0.013,0.053,0.04,-0.033,-0.014,0.046,-0.058,-0.248,-0.147,-0.006,-0.05,0.014
-0.045,-0.001,0.044,0.023,-0.044,0.021,-0.024,-0.248,-0.165,-0.058,-0.061,-0.012
-0.087,-0.038,0.049,0.062,-0.067,0.005,-0.03,-0.263,-0.182,-0.05,-0.058,-0.038
-0.101,-0.051,0.05,0.075,-0.075,0.0,-0.031,-0.279,-0.205,-0.09,-0.111,-0.062
-0.063,-0.048,0.016,0.055,-0.039,-0.016,-0.028,-0.273,-0.181,-0.066,-0.1,-0.05
-0.063,-0.016,0.047,0.04,-0.055,0.015,-0.026,-0.294,-0.197,-0.074,-0.1,-0.056
-0.072,-0.025,0.046,0.048,-0.059,0.01,-0.002,-0.235,-0.147,-0.067,-0.11,-0.07
-0.12,-0.054,0.066,0.087,-0.093,0.006,0.244,0.028,0.047,-0.041,-0.165,-0.165
-0.056,0.032,0.089,0.012,-0.073,0.06,0.258,0.2,0.324,0.134,-0.052,-0.091
0.211,0.69,0.479,-0.451,-0.135,0.584,-0.447,-0.814,0.115,1.111,1.088,0.755
0.083,0.85,0.767,-0.467,-0.343,0.808,-0.741,-2.003,-1.139,0.501,1.061,0.915
-0.173,0.071,0.244,0.051,-0.208,0.157,-0.22,-1.577,-1.584,-0.861,-0.204,0.131
-0.245,-0.337,-0.092,0.291,-0.076,-0.214,0.162,-0.916,-0.939,-0.597,-0.369,-0.148
-0.242,-0.359,-0.117,0.3,-0.062,-0.238,0.121,-0.66,-0.536,-0.335,-0.251,-0.14
-0.074,-0.196,-0.122,0.135,0.024,-0.158,0.037,-0.266,-0.114,-0.057,-0.076,-0.043
-0.012,-0.101,-0.089,0.057,0.039,-0.095,0.065,-0.077,0.096,0.139,0.051,0.019
-0.021,-0.13,-0.109,0.076,0.044,-0.12,0.059,-0.053,0.11,0.116,0.024,0.034
-0.009,-0.122,-0.112,0.066,0.052,-0.117,0.056,-0.028,0.169,0.197,0.08,0.062
0.003,-0.132,-0.136,0.065,0.07,-0.134,0.056,0.005,0.187,0.183,0.081,0.049
0.015,-0.118,-0.134,0.052,0.075,-0.126,0.049,0.041,0.212,0.227,0.096,0.065
0.014,-0.121,-0.135,0.054,0.075,-0.127,0.052,0.06,0.241,0.238,0.086,0.058
0.021,-0.114,-0.136,0.047,0.079,-0.125,0.047,0.074,0.273,0.262,0.095,0.068
0.031,-0.117,-0.149,0.043,0.09,-0.133,0.062,0.113,0.301,0.292,0.095,0.068
0.03,-0.122,-0.152,0.047,0.091,-0.137,0.069,0.13,0.332,0.297,0.11,0.074
0.015,-0.117,-0.132,0.051,0.074,-0.124,0.06,0.156,0.356,0.302,0.11,0.077
0.037,-0.124,-0.161,0.044,0.099,-0.142,0.055,0.212,0.421,0.34,0.121,0.069
0.053,-0.181,-0.233,0.064,0.143,-0.207,0.047,0.247,0.453,0.376,0.122,0.079
0.049,-0.196,-0.244,0.074,0.147,-0.22,0.04,0.282,0.46,0.367,0.098,0.06
0.058,-0.175,-0.233,0.059,0.146,-0.204,0.047,0.322,0.508,0.373,0.091,0.041
0.084,-0.243,-0.327,0.08,0.206,-0.285,0.052,0.383,0.556,0.377,0.076,0.048
0.091,-0.289,-0.381,0.099,0.236,-0.335,0.047,0.432,0.602,0.371,0.068,0.043
0.083,-0.272,-0.355,0.095,0.219,-0.313,0.04,0.44,0.635,0.397,0.051,0.044
0.079,-0.265,-0.344,0.094,0.212,-0.305,0.04,0.421,0.613,0.411,0.09,0.072
0.087,-0.218,-0.305,0.066,0.196,-0.261,0.029,0.318,0.512,0.385,0.14,0.101
0.07,-0.183,-0.253,0.057,0.162,-0.218,0.039,0.176,0.369,0.34,0.135,0.105
0.039,-0.171,-0.209,0.066,0.124,-0.19,0.075,0.067,0.234,0.255,0.119,0.085
-0.002,-0.166,-0.164,0.084,0.081,-0.165,0.075,-0.024,0.127,0.17,0.079,0.07
-0.051,-0.204,-0.152,0.128,0.051,-0.178,0.07,-0.071,0.066,0.123,0.058,0.07
-0.025,-0.194,-0.17,0.11,0.072,-0.182,0.07,-0.089,0.04,0.11,0.056,0.058
-0.039,-0.213,-0.174,0.127,0.068,-0.194,0.064,-0.122,0.017,0.098,0.049,0.06
-0.039,-0.201,-0.161,0.12,0.061,-0.18,0.066,-0.127,0.012,0.083,0.048,0.039
-0.019,-0.172,-0.153,0.096,0.067,-0.162,0.075,-0.114,-0.012,0.107,0.04,0.015
-0.07,-0.25,-0.18,0.161,0.055,-0.215,0.077,-0.11,-0.009,0.109,0.043,0.059
-0.066,-0.243,-0.177,0.155,0.055,-0.21,0.074,-0.103,0.031,0.099,0.065,0.074
-0.059,-0.219,-0.16,0.139,0.051,-0.189,0.075,-0.099,0.023,0.089,0.071,0.067
-0.057,-0.236,-0.179,0.147,0.061,-0.207,0.075,-0.093,0.013,0.084,0.063,0.072
-0.027,-0.2,-0.173,0.114,0.073,-0.186,0.075,-0.086,0.006,0.107,0.059,0.069
-0.022,-0.185,-0.163,0.104,0.071,-0.174,0.074,-0.089,-0.006,0.102,0.053,0.071
-0.02,-0.179,-0.159,0.1,0.069,-0.169,0.069,-0.102,-0.009,0.092,0.048,0.067
-0.018,-0.173,-0.155,0.096,0.069,-0.164,0.066,-0.11,-0.018,0.084,0.042,0.061
-0.011,-0.166,-0.155,0.089,0.072,-0.16,0.062,-0.114,-0.02,0.072,0.038,0.057
-0.004,-0.159,-0.155,0.082,0.076,-0.157,0.059,-0.127,-0.034,0.061,0.034,0.052
-0.027,-0.181,-0.154,0.104,0.064,-0.167,0.055,-0.135,-0.046,0.049,0.031,0.047
-0.035,-0.183,-0.148,0.11,0.057,-0.165,0.059,-0.139,-0.044,0.044,0.03,0.044
-0.042,-0.184,-0.142,0.113,0.05,-0.163,0.067,-0.138,-0.045,0.048,0.025,0.038
-0.067,-0.202,-0.135,0.135,0.035,-0.169,0.068,-0.134,-0.044,0.07,0.026,0.036
-0.065,-0.199,-0.134,0.132,0.035,-0.167,0.088,-0.134,-0.046,0.069,0.015,0.027
-0.041,-0.123,-0.082,0.082,0.021,-0.102,0.099,-0.13,-0.041,0.074,0.022,0.047
-0.022,-0.057,-0.035,0.04,0.007,-0.046,0.107,-0.13,-0.034,0.105,0.052,0.065
-0.018,-0.09,-0.072,0.054,0.027,-0.08,0.07,-0.125,-0.007,0.118,0.064,0.076
-0.045,-0.12,-0.076,0.083,0.015,-0.098,0.023,-0.117,0.015,0.136,0.101,0.125
-0.04,-0.119,-0.079,0.079,0.02,-0.098,0.013,-0.116,-0.012,0.124,0.097,0.11
0.012,-0.124,-0.136,0.056,0.075,-0.13,0.002,-0.102,-0.013,0.111,0.069,0.095
-0.017,-0.149,-0.132,0.083,0.058,-0.14,0.041,-0.117,-0.052,0.069,0.06,0.088
-0.016,-0.167,-0.151,0.092,0.068,-0.159,0.035,-0.134,-0.084,0.035,0.013,0.041
-0.046,-0.18,-0.134,0.114,0.044,-0.157,0.04,-0.153,-0.09,0.06,-0.016,0.044
-0.077,-0.231,-0.154,0.154,0.039,-0.193,0.078,-0.149,-0.104,0.025,-0.035,0.033
-0.043,-0.213,-0.17,0.128,0.064,-0.192,0.075,-0.133,-0.069,0.07,0.02,0.049
-0.057,-0.22,-0.162,0.138,0.052,-0.191,0.071,-0.143,-0.101,0.014,-0.025,0.031
-0.041,-0.251,-0.21,0.146,0.085,-0.231,0.121,-0.033,0.01,0.084,-0.002,0.018
-0.143,-0.249,-0.106,0.196,-0.019,-0.177,0.391,0.302,0.232,0.038,-0.128,-0.115
0.013,0.052,0.039,-0.032,-0.013,0.045,0.145,0.167,0.461,0.523,0.305,0.185
0.227,0.764,0.537,-0.496,-0.156,0.65,-0.627,-1.192,-0.131,1.296,1.401,1.026
-0.032,0.563,0.595,-0.266,-0.314,0.579,-0.604,-1.928,-1.412,0.025,0.685,0.738
-0.203,-0.18,0.023,0.191,-0.113,-0.078,-0.029,-1.205,-1.363,-0.833,-0.337,0.013
-0.263,-0.321,-0.058,0.292,-0.102,-0.189,0.17,-0.753,-0.744,-0.401,-0.283,-0.135
-0.21,-0.221,-0.012,0.216,-0.099,-0.116,0.042,-0.466,-0.402,-0.246,-0.224,-0.135
-0.051,-0.002,0.049,0.026,-0.05,0.023,-0.002,-0.094,0.019,0.09,-0.035,-0.024
-0.018,0.062,0.081,-0.022,-0.05,0.071,0.029,-0.03,0.092,0.136,-0.009,-0.016
0.021,0.036,0.015,-0.029,0.003,0.025,0.012,-0.002,0.125,0.153,0.038,-0.001
-0.015,0.043,0.058,-0.014,-0.037,0.05,0.035,0.044,0.182,0.225,0.078,0.01
-0.02,0.021,0.041,0.0,-0.031,0.031,0.039,0.073,0.199,0.221,0.061,0.02
0.027,0.03,0.003,-0.029,0.012,0.016,0.031,0.103,0.243,0.242,0.079,0.037
0.008,0.022,0.014,-0.015,-0.003,0.017,0.03,0.123,0.259,0.242,0.063,0.024
0.013,0.027,0.014,-0.021,-0.001,0.02,0.022,0.156,0.305,0.287,0.092,0.053
0.007,0.024,0.016,-0.016,-0.005,0.02,0.022,0.185,0.334,0.296,0.083,0.054
0.003,0.026,0.023,-0.015,-0.011,0.025,0.022,0.206,0.354,0.3,0.075,0.049
0.034,-0.004,-0.038,-0.014,0.036,-0.021,0.032,0.272,0.407,0.331,0.099,0.048
0.037,-0.047,-0.085,0.005,0.061,-0.066,0.035,0.331,0.45,0.355,0.114,0.04
0.037,-0.053,-0.09,0.008,0.064,-0.071,0.035,0.353,0.473,0.357,0.105,0.042
0.056,-0.1,-0.156,0.023,0.106,-0.128,0.05,0.419,0.517,0.384,0.094,0.053
0.063,-0.162,-0.225,0.05,0.144,-0.193,0.051,0.483,0.563,0.398,0.093,0.057
0.083,-0.168,-0.251,0.043,0.167,-0.209,0.041,0.523,0.587,0.393,0.095,0.053
0.111,-0.159,-0.27,0.024,0.191,-0.214,0.036,0.572,0.619,0.395,0.099,0.056
0.108,-0.141,-0.249,0.017,0.179,-0.195,0.026,0.578,0.631,0.408,0.102,0.054
0.115,-0.099,-0.214,-0.008,0.165,-0.156,0.022,0.526,0.596,0.436,0.106,0.057
0.087,-0.075,-0.162,-0.006,0.125,-0.118,0.027,0.408,0.498,0.403,0.128,0.085
0.016,-0.064,-0.08,0.024,0.049,-0.072,0.035,0.27,0.341,0.316,0.128,0.094
-0.01,-0.049,-0.039,0.03,0.015,-0.044,0.047,0.165,0.219,0.248,0.089,0.069
-0.008,-0.027,-0.019,0.017,0.006,-0.022,0.049,0.075,0.108,0.182,0.047,0.032
-0.031,-0.015,0.016,0.023,-0.023,0.001,0.042,0.021,0.034,0.125,0.031,0.018
-0.084,-0.049,0.035,0.066,-0.059,-0.007,0.039,-0.008,0.002,0.098,0.029,0.022
-0.077,-0.089,-0.012,0.083,-0.033,-0.05,0.034,-0.026,-0.019,0.105,0.022,0.017
-0.054,-0.094,-0.04,0.074,-0.006,-0.066,0.029,-0.024,-0.008,0.118,0.017,0.015
-0.059,-0.063,-0.004,0.061,-0.027,-0.033,0.027,-0.021,-0.003,0.114,0.011,0.015
-0.077,-0.041,0.035,0.059,-0.056,-0.003,0.019,-0.018,0.004,0.115,0.014,0.015
-0.063,-0.036,0.027,0.05,-0.045,-0.004,0.025,-0.015,0.011,0.115,0.02,0.015
-0.034,-0.04,-0.006,0.037,-0.013,-0.023,0.041,-0.016,0.016,0.116,0.025,0.015
-0.033,-0.04,-0.007,0.037,-0.013,-0.023,0.029,-0.013,0.019,0.118,0.032,0.015
-0.045,-0.017,0.028,0.031,-0.036,0.005,0.014,-0.034,0.026,0.128,0.034,0.015
-0.07,-0.009,0.061,0.039,-0.065,0.026,0.01,-0.065,0.012,0.111,0.022,0.014
-0.067,0.026,0.093,0.02,-0.08,0.06,0.005,-0.066,-0.024,0.083,0.01,0.008
-0.059,0.056,0.115,0.001,-0.087,0.086,0.003,-0.067,-0.044,0.081,0.002,0.003
-0.074,0.012,0.086,0.031,-0.08,0.049,-0.002,-0.065,-0.046,0.071,-0.006,-0.003
-0.088,-0.019,0.068,0.053,-0.078,0.024,-0.005,-0.061,-0.044,0.066,-0.014,-0.008
-0.079,-0.019,0.06,0.049,-0.07,0.02,-0.009,-0.059,-0.066,0.06,-0.021,-0.015
-0.074,-0.015,0.059,0.045,-0.066,0.022,-0.015,-0.053,-0.078,0.069,-0.001,-0.011
-0.072,-0.012,0.061,0.042,-0.066,0.024,-0.015,-0.06,-0.077,0.088,-0.002,-0.005
-0.067,-0.008,0.059,0.037,-0.062,0.025,-0.016,-0.07,-0.084,0.078,-0.018,0.001
-0.065,-0.003,0.062,0.034,-0.063,0.029,-0.011,-0.062,-0.084,0.081,-0.008,0.007
-0.046,0.01,0.056,0.018,-0.051,0.033,-0.003,-0.058,-0.059,0.086,-0.004,0.011
-0.027,0.097,0.124,-0.036,-0.076,0.111,0.018,-0.054,-0.009,0.098,0.012,0.023
-0.035,0.151,0.185,-0.058,-0.11,0.168,0.019,-0.056,-0.018,0.106,0.017,0.017
-0.022,0.141,0.163,-0.06,-0.093,0.152,-0.034,-0.054,-0.044,0.091,0.023,0.027
0.011,0.171,0.161,-0.091,-0.075,0.166,-0.074,-0.055,-0.045,0.116,0.059,0.061
-0.002,0.144,0.146,-0.071,-0.074,0.145,-0.089,-0.078,-0.053,0.1,0.035,0.039
-0.021,0.116,0.137,-0.048,-0.079,0.127,-0.077,-0.097,-0.054,0.094,0.005,0.013
-0.054,0.08,0.134,-0.013,-0.094,0.106,-0.056,-0.101,-0.089,0.063,-0.039,-0.023
-0.077,0.04,0.117,0.018,-0.098,0.079,-0.058,-0.102,-0.099,0.04,-0.051,-0.034
-0.074,0.05,0.124,0.012,-0.099,0.087,-0.048,-0.119,-0.12,0.027,-0.052,-0.036
-0.049,0.045,0.094,0.002,-0.072,0.069,-0.048,-0.103,-0.114,0.004,-0.085,-0.058
-0.063,0.053,0.116,0.005,-0.09,0.084,-0.04,-0.106,-0.095,0.035,-0.07,-0.051
-0.089,-0.02,0.068,0.054,-0.079,0.024,-0.039,-0.076,-0.093,-0.001,-0.091,-0.061
-0.105,-0.023,0.083,0.064,-0.094,0.03,0.123,0.114,0.07,0.084,-0.075,-0.085
-0.115,-0.01,0.104,0.062,-0.11,0.047,0.315,0.434,0.337,0.097,-0.132,-0.146
0.173,0.515,0.342,-0.344,-0.085,0.428,-0.251,-0.217,0.426,1.004,0.778,0.515
0.182,1.011,0.829,-0.597,-0.324,0.92,-0.781,-1.677,-0.543,1.187,1.392,1.087
-0.138,0.354,0.493,-0.108,-0.316,0.423,-0.412,-1.701,-1.507,-0.45,0.157,0.374
-0.231,-0.169,0.062,0.2,-0.146,-0.054,0.035,-0.931,-1.085,-0.673,-0.397,-0.143
-0.279,-0.211,0.068,0.245,-0.173,-0.071,0.089,-0.612,-0.581,-0.273,-0.24,-0.153
-0.13,-0.089,0.041,0.109,-0.085,-0.024,-0.031,-0.212,-0.206,-0.094,-0.148,-0.102
-0.011,0.094,0.105,-0.042,-0.058,0.099,-0.025,0.071,0.117,0.194,0.013,-0.005
-0.043,0.052,0.094,-0.005,-0.069,0.073,-0.008,0.114,0.132,0.175,0.0,-0.001
0.013,0.054,0.041,-0.034,-0.014,0.047,-0.017,0.149,0.2,0.255,0.083,0.039
0.03,0.049,0.019,-0.04,0.006,0.034,-0.002,0.187,0.223,0.246,0.081,0.043
0.011,0.047,0.036,-0.029,-0.012,0.041,-0.008,0.206,0.25,0.284,0.085,0.045
0.018,0.048,0.03,-0.033,-0.006,0.039,0.004,0.24,0.287,0.302,0.087,0.045
0.029,0.041,0.012,-0.035,0.008,0.027,-0.007,0.276,0.322,0.322,0.099,0.059
0.027,0.046,0.019,-0.037,0.004,0.033,-0.012,0.292,0.358,0.341,0.111,0.065
0.028,0.036,0.008,-0.032,0.01,0.022,-0.02,0.336,0.382,0.347,0.092,0.051
0.031,0.043,0.012,-0.037,0.009,0.028,-0.026,0.369,0.423,0.374,0.095,0.05
0.051,0.077,0.027,-0.064,0.012,0.052,-0.035,0.381,0.426,0.36,0.079,0.04
0.042,0.085,0.043,-0.064,-0.001,0.064,-0.038,0.417,0.448,0.368,0.078,0.035
0.06,0.097,0.037,-0.079,0.011,0.067,-0.035,0.445,0.477,0.363,0.057,0.02
0.085,0.122,0.037,-0.104,0.024,0.079,-0.046,0.481,0.496,0.365,0.038,-0.009
0.082,0.107,0.026,-0.094,0.028,0.066,-0.042,0.544,0.537,0.365,0.028,-0.031
0.131,0.108,-0.023,-0.119,0.077,0.042,-0.061,0.587,0.563,0.372,0.005,-0.031
0.13,0.088,-0.043,-0.109,0.086,0.022,-0.078,0.614,0.581,0.378,-0.01,-0.025
0.126,0.094,-0.032,-0.11,0.079,0.031,-0.073,0.618,0.589,0.385,0.0,-0.026
0.122,0.144,0.022,-0.133,0.05,0.082,-0.077,0.545,0.548,0.401,0.057,-0.002
0.085,0.168,0.083,-0.127,0.001,0.125,-0.068,0.414,0.425,0.371,0.078,0.022
0.054,0.179,0.125,-0.117,-0.036,0.152,-0.053,0.288,0.286,0.303,0.059,0.012
-0.006,0.166,0.172,-0.08,-0.089,0.169,-0.041,0.168,0.182,0.238,0.045,0.004
-0.016,0.159,0.175,-0.072,-0.096,0.166,-0.04,0.093,0.102,0.186,0.016,-0.005
-0.027,0.143,0.171,-0.058,-0.099,0.157,-0.039,0.054,0.061,0.153,0.021,-0.014
-0.044,0.123,0.167,-0.04,-0.106,0.144,-0.041,0.029,0.019,0.142,0.017,-0.022
-0.046,0.119,0.166,-0.037,-0.106,0.142,-0.039,0.032,0.013,0.13,0.002,-0.034
-0.05,0.137,0.187,-0.044,-0.119,0.162,-0.04,0.028,0.024,0.122,-0.007,-0.03
-0.05,0.152,0.202,-0.052,-0.126,0.177,-0.064,0.033,0.011,0.127,-0.025,-0.022
-0.083,0.12,0.203,-0.019,-0.143,0.161,-0.063,0.053,0.027,0.14,-0.021,-0.017
-0.03,0.135,0.165,-0.053,-0.098,0.15,-0.06,0.05,0.036,0.146,-0.016,-0.008
-0.013,0.145,0.158,-0.067,-0.086,0.152,-0.066,0.041,0.035,0.144,-0.011,-0.007
-0.039,0.138,0.178,-0.05,-0.109,0.158,-0.066,0.037,0.03,0.137,-0.005,-0.027
-0.032,0.189,0.222,-0.079,-0.127,0.205,-0.071,0.027,0.006,0.123,0.0,-0.044
-0.075,0.198,0.273,-0.062,-0.174,0.235,-0.073,0.019,-0.018,0.112,-0.023,-0.047
-0.049,0.232,0.281,-0.091,-0.165,0.256,-0.101,-0.003,-0.052,0.094,-0.063,-0.05
-0.059,0.279,0.339,-0.11,-0.199,0.309,-0.119,-0.02,-0.058,0.082,-0.063,-0.059
-0.064,0.281,0.345,-0.109,-0.205,0.313,-0.123,-0.045,-0.08,0.085,-0.079,-0.084
-0.057,0.31,0.367,-0.127,-0.212,0.338,-0.145,-0.076,-0.115,0.072,-0.111,-0.105
-0.066,0.326,0.392,-0.13,-0.229,0.359,-0.144,-0.074,-0.115,0.054,-0.109,-0.105
-0.026,0.333,0.359,-0.154,-0.193,0.346,-0.145,-0.075,-0.125,0.049,-0.111,-0.106
-0.087,0.335,0.422,-0.124,-0.256,0.379,-0.145,-0.074,-0.121,0.046,-0.108,-0.104
-0.065,0.334,0.398,-0.135,-0.232,0.366,-0.147,-0.08,-0.133,0.039,-0.117,-0.109
-0.017,0.344,0.361,-0.164,-0.189,0.352,-0.143,-0.085,-0.157,0.027,-0.118,-0.109
-0.045,0.388,0.433,-0.171,-0.239,0.41,-0.125,-0.072,-0.151,0.016,-0.107,-0.103
-0.055,0.484,0.539,-0.215,-0.297,0.511,-0.122,-0.068,-0.137,0.05,-0.098,-0.1
-0.086,0.525,0.61,-0.22,-0.348,0.567,-0.093,-0.052,-0.122,0.074,-0.085,-0.091
-0.027,0.542,0.569,-0.258,-0.298,0.556,-0.155,-0.066,-0.127,0.065,-0.089,-0.091
-0.031,0.596,0.627,-0.283,-0.329,0.611,-0.237,-0.1,-0.12,0.078,-0.067,-0.075
-0.054,0.6,0.655,-0.273,-0.355,0.627,-0.238,-0.115,-0.149,0.033,-0.094,-0.094
-0.02,0.577,0.597,-0.279,-0.308,0.587,-0.244,-0.142,-0.195,0.0,-0.133,-0.131
-0.076,0.526,0.602,-0.225,-0.339,0.564,-0.2,-0.128,-0.197,-0.048,-0.173,-0.164
-0.076,0.519,0.595,-0.222,-0.335,0.557,-0.215,-0.136,-0.202,-0.042,-0.177,-0.17
-0.07,0.534,0.604,-0.233,-0.337,0.568,-0.236,-0.179,-0.24,-0.056,-0.186,-0.175
-0.057,0.526,0.582,-0.235,-0.32,0.554,-0.23,-0.164,-0.243,-0.094,-0.22,-0.193
-0.097,0.541,0.638,-0.222,-0.368,0.589,-0.227,-0.184,-0.237,-0.046,-0.196,-0.186
-0.084,0.507,0.591,-0.212,-0.338,0.548,-0.222,-0.154,-0.232,-0.101,-0.223,-0.21
-0.064,0.542,0.606,-0.239,-0.335,0.573,-0.075,0.039,-0.072,-0.004,-0.221,-0.248
-0.13,0.563,0.694,-0.217,-0.412,0.628,0.118,0.347,0.167,-0.023,-0.308,-0.335
0.168,1.11,0.942,-0.639,-0.387,1.026,-0.455,-0.296,0.327,0.911,0.618,0.345
0.178,1.564,1.387,-0.871,-0.605,1.475,-0.974,-1.782,-0.526,1.226,1.261,0.944
-0.131,0.906,1.036,-0.388,-0.584,0.971,-0.576,-1.865,-1.586,-0.482,0.021,0.215
-0.242,0.392,0.634,-0.075,-0.439,0.513,-0.152,-1.082,-1.248,-0.78,-0.55,-0.303
-0.326,0.325,0.651,0.0,-0.489,0.487,-0.106,-0.736,-0.719,-0.375,-0.413,-0.322
-0.158,0.436,0.594,-0.139,-0.377,0.515,-0.208,-0.309,-0.342,-0.204,-0.309,-0.26
-0.024,0.59,0.615,-0.283,-0.32,0.602,-0.184,0.002,-0.004,0.111,-0.122,-0.146
-0.027,0.562,0.589,-0.268,-0.308,0.575,-0.159,0.057,0.025,0.077,-0.133,-0.147
-0.005,0.568,0.573,-0.282,-0.289,0.571,-0.17,0.097,0.073,0.146,-0.076,-0.112
-0.024,0.541,0.565,-0.259,-0.295,0.553,-0.149,0.117,0.081,0.14,-0.083,-0.114
0.007,0.516,0.509,-0.262,-0.251,0.512,-0.157,0.176,0.143,0.188,-0.061,-0.1
0.029,0.471,0.441,-0.25,-0.206,0.456,-0.133,0.224,0.196,0.226,-0.039,-0.08
0.022,0.396,0.375,-0.209,-0.177,0.385,-0.106,0.272,0.248,0.264,-0.013,-0.05
0.026,0.364,0.339,-0.195,-0.157,0.351,-0.099,0.322,0.304,0.303,0.021,-0.036
0.024,0.364,0.34,-0.194,-0.158,0.351,-0.099,0.35,0.319,0.304,0.014,-0.036
0.033,0.362,0.329,-0.198,-0.148,0.345,-0.105,0.378,0.35,0.34,0.018,-0.027
0.055,0.359,0.304,-0.207,-0.124,0.331,-0.115,0.402,0.37,0.336,0.027,-0.027
0.072,0.354,0.283,-0.213,-0.106,0.318,-0.107,0.452,0.414,0.352,0.036,-0.018
0.074,0.32,0.246,-0.197,-0.086,0.283,-0.101,0.499,0.449,0.367,0.024,-0.034
0.085,0.262,0.177,-0.173,-0.047,0.219,-0.094,0.566,0.487,0.378,0.019,-0.039
0.1,0.203,0.104,-0.152,-0.002,0.153,-0.087,0.629,0.527,0.386,0.013,-0.032
0.101,0.14,0.039,-0.12,0.031,0.089,-0.082,0.693,0.562,0.389,0.003,-0.027
0.139,0.099,-0.039,-0.119,0.089,0.029,-0.075,0.746,0.618,0.417,0.019,-0.022
0.144,0.104,-0.04,-0.124,0.092,0.032,-0.069,0.741,0.625,0.45,0.043,-0.003
0.119,0.135,0.016,-0.127,0.051,0.076,-0.062,0.679,0.589,0.467,0.088,0.042
0.094,0.15,0.056,-0.122,0.019,0.103,-0.056,0.556,0.492,0.45,0.126,0.057
0.035,0.137,0.102,-0.086,-0.034,0.119,-0.044,0.429,0.357,0.392,0.117,0.049
0.005,0.124,0.119,-0.065,-0.058,0.122,-0.029,0.307,0.258,0.341,0.108,0.045
-0.011,0.102,0.114,-0.046,-0.063,0.108,-0.018,0.214,0.162,0.291,0.079,0.038
-0.037,0.075,0.112,-0.019,-0.074,0.093,-0.011,0.171,0.122,0.254,0.061,0.036
-0.064,0.045,0.109,0.01,-0.087,0.077,-0.006,0.158,0.121,0.25,0.067,0.04
-0.065,0.004,0.069,0.03,-0.067,0.036,0.001,0.164,0.118,0.249,0.062,0.045
-0.06,-0.018,0.042,0.038,-0.051,0.012,0.004,0.169,0.123,0.251,0.069,0.041
-0.077,-0.007,0.07,0.041,-0.073,0.032,0.006,0.177,0.124,0.249,0.071,0.04
-0.072,0.001,0.073,0.035,-0.072,0.037,0.01,0.185,0.126,0.253,0.066,0.039
-0.05,0.015,0.065,0.017,-0.058,0.04,0.008,0.185,0.12,0.26,0.065,0.036
-0.029,0.032,0.061,-0.002,-0.045,0.046,0.003,0.185,0.112,0.26,0.059,0.034
-0.034,0.021,0.055,0.006,-0.045,0.038,0.0,0.185,0.104,0.26,0.061,0.037
-0.039,0.01,0.048,0.014,-0.044,0.029,-0.003,0.185,0.096,0.26,0.07,0.057
-0.045,0.005,0.05,0.02,-0.048,0.027,-0.008,0.185,0.089,0.26,0.069,0.06
-0.068,-0.004,0.064,0.035,-0.065,0.03,-0.011,0.18,0.083,0.258,0.062,0.053
-0.079,-0.01,0.069,0.044,-0.074,0.029,-0.009,0.176,0.077,0.25,0.059,0.053
-0.087,-0.018,0.069,0.053,-0.078,0.025,-0.019,0.173,0.072,0.246,0.054,0.046
-0.072,-0.023,0.049,0.047,-0.06,0.012,-0.024,0.17,0.066,0.239,0.048,0.046
-0.074,-0.032,0.043,0.053,-0.058,0.005,-0.015,0.165,0.06,0.235,0.08,0.053
-0.062,-0.036,0.026,0.049,-0.044,-0.005,-0.009,0.168,0.058,0.236,0.092,0.056
-0.045,-0.043,0.001,0.044,-0.023,-0.021,-0.004,0.172,0.05,0.233,0.089,0.054
-0.077,-0.095,-0.017,0.086,-0.03,-0.056,0.012,0.175,0.057,0.24,0.098,0.057
-0.064,-0.115,-0.051,0.09,-0.006,-0.083,0.031,0.202,0.086,0.257,0.091,0.085
-0.083,-0.091,-0.008,0.088,-0.037,-0.05,0.075,0.229,0.131,0.302,0.133,0.122
-0.067,-0.095,-0.028,0.081,-0.019,-0.061,0.105,0.244,0.153,0.326,0.159,0.127
0.014,-0.098,-0.112,0.042,0.063,-0.105,0.061,0.253,0.173,0.343,0.177,0.155
0.008,-0.103,-0.111,0.048,0.06,-0.106,0.029,0.244,0.201,0.39,0.208,0.195
0.019,-0.186,-0.205,0.084,0.112,-0.195,0.026,0.245,0.164,0.358,0.185,0.18
-0.015,-0.243,-0.229,0.129,0.107,-0.236,0.041,0.24,0.146,0.341,0.188,0.181
-0.072,-0.288,-0.216,0.18,0.072,-0.251,0.068,0.238,0.129,0.309,0.14,0.143
-0.047,-0.316,-0.269,0.182,0.111,-0.292,0.062,0.237,0.116,0.309,0.124,0.12
-0.053,-0.302,-0.249,0.178,0.098,-0.276,0.068,0.22,0.098,0.31,0.129,0.119
-0.064,-0.322,-0.258,0.193,0.097,-0.289,0.062,0.23,0.093,0.29,0.116,0.107
-0.085,-0.293,-0.208,0.189,0.062,-0.25,0.068,0.202,0.099,0.319,0.13,0.117
-0.067,-0.325,-0.258,0.197,0.096,-0.292,0.062,0.222,0.089,0.262,0.088,0.088
-0.094,-0.33,-0.237,0.212,0.072,-0.283,0.238,0.456,0.273,0.348,0.106,0.059
-0.1,-0.332,-0.232,0.216,0.066,-0.281,0.439,0.81,0.531,0.343,0.046,0.014
0.197,0.223,0.026,-0.21,0.085,0.125,-0.179,0.079,0.718,1.337,0.992,0.722
0.198,0.649,0.451,-0.424,-0.127,0.549,-0.653,-1.414,-0.026,1.707,1.627,1.295
-0.145,-0.075,0.07,0.11,-0.107,-0.003,-0.201,-1.448,-1.112,-0.028,0.369,0.537
-0.283,-0.497,-0.215,0.39,-0.034,-0.356,0.188,-0.717,-0.87,-0.384,-0.189,0.008
-0.324,-0.503,-0.179,0.414,-0.073,-0.341,0.162,-0.371,-0.369,-0.004,-0.068,-0.02
-0.178,-0.35,-0.173,0.264,-0.002,-0.261,0.028,0.065,-0.032,0.123,-0.01,0.027
-0.01,-0.111,-0.101,0.061,0.046,-0.106,0.036,0.359,0.285,0.426,0.176,0.124
-0.026,-0.134,-0.109,0.08,0.042,-0.121,0.055,0.397,0.268,0.338,0.103,0.077
