-0.026,-0.035,-0.009,0.03,-0.008,-0.021,0.044,0.07,0.265,-0.06,-0.005,-0.189
-0.03,-0.022,0.008,0.026,-0.019,-0.007,0.039,0.073,0.272,-0.057,0.001,-0.187
-0.038,-0.009,0.029,0.023,-0.033,0.01,0.034,0.08,0.283,-0.051,0.008,-0.18
-0.034,0.003,0.037,0.015,-0.035,0.02,0.027,0.079,0.291,-0.045,0.014,-0.175
-0.011,0.052,0.063,-0.02,-0.037,0.057,0.022,0.079,0.301,-0.05,0.034,-0.18
-0.007,0.069,0.076,-0.031,-0.042,0.073,0.018,0.082,0.302,-0.052,0.052,-0.181
-0.006,0.044,0.051,-0.019,-0.029,0.047,0.013,0.077,0.289,-0.056,0.047,-0.187
-0.03,0.004,0.035,0.013,-0.033,0.019,0.017,0.081,0.281,-0.059,0.022,-0.188
-0.047,-0.028,0.02,0.037,-0.034,-0.004,0.008,0.055,0.261,-0.066,-0.005,-0.195
-0.065,-0.059,0.007,0.062,-0.036,-0.026,0.013,0.056,0.219,-0.096,-0.019,-0.223
-0.086,-0.077,0.009,0.081,-0.048,-0.034,0.006,0.041,0.21,-0.096,-0.02,-0.224
-0.081,-0.084,-0.003,0.082,-0.039,-0.043,0.014,0.058,0.207,-0.105,-0.037,-0.226
-0.082,-0.08,0.002,0.082,-0.042,-0.039,0.005,0.042,0.204,-0.104,-0.033,-0.223
-0.074,-0.093,-0.02,0.084,-0.026,-0.057,0.031,0.08,0.215,-0.123,-0.061,-0.231
-0.061,-0.128,-0.067,0.095,0.003,-0.098,0.15,0.341,0.268,-0.129,-0.101,-0.267
0.085,0.059,-0.026,-0.072,0.056,0.016,-0.082,-0.014,0.402,0.058,0.081,-0.118
0.384,0.672,0.287,-0.528,0.048,0.479,-0.714,-1.049,0.597,0.592,0.67,0.415
0.428,1.066,0.638,-0.747,-0.105,0.852,-1.155,-1.618,0.747,1.015,1.09,0.797
0.144,0.565,0.422,-0.355,-0.139,0.493,-0.898,-1.191,0.408,0.436,0.549,0.373
-0.051,0.011,0.062,0.02,-0.056,0.036,-0.36,-0.513,0.025,-0.191,-0.037,-0.129
-0.073,-0.055,0.019,0.064,-0.046,-0.017,-0.122,-0.165,0.138,-0.139,-0.064,-0.189
-0.083,-0.051,0.032,0.067,-0.057,-0.01,-0.033,-0.005,0.211,-0.122,-0.066,-0.192
-0.079,-0.045,0.034,0.062,-0.056,-0.005,-0.006,0.024,0.199,-0.121,-0.055,-0.196
-0.068,-0.041,0.027,0.054,-0.047,-0.007,0.001,0.062,0.21,-0.117,-0.049,-0.192
-0.061,-0.038,0.023,0.049,-0.042,-0.007,0.012,0.086,0.2,-0.124,-0.043,-0.191
-0.051,-0.031,0.019,0.041,-0.035,-0.006,0.014,0.082,0.208,-0.116,-0.042,-0.189
-0.043,-0.029,0.014,0.035,-0.028,-0.007,0.024,0.089,0.203,-0.123,-0.056,-0.188
-0.042,-0.021,0.021,0.032,-0.031,0.0,0.028,0.096,0.216,-0.109,-0.043,-0.183
-0.042,-0.02,0.022,0.031,-0.032,0.001,0.028,0.103,0.222,-0.108,-0.041,-0.186
-0.039,-0.013,0.027,0.025,-0.033,0.007,0.024,0.109,0.228,-0.098,-0.031,-0.179
-0.034,-0.01,0.024,0.022,-0.029,0.006,0.026,0.118,0.234,-0.093,-0.026,-0.175
-0.025,0.002,0.027,0.011,-0.026,0.014,0.025,0.139,0.24,-0.083,-0.02,-0.171
-0.027,0.02,0.047,0.004,-0.037,0.033,0.025,0.158,0.246,-0.067,-0.013,-0.166
-0.019,0.033,0.052,-0.007,-0.036,0.042,0.024,0.169,0.257,-0.056,-0.003,-0.162
-0.008,0.047,0.055,-0.02,-0.031,0.051,0.02,0.196,0.275,-0.044,0.008,-0.156
0.002,0.06,0.058,-0.031,-0.029,0.059,0.021,0.222,0.295,-0.03,0.016,-0.145
0.019,0.081,0.061,-0.05,-0.021,0.071,0.018,0.258,0.315,-0.005,0.04,-0.132
0.041,0.111,0.07,-0.076,-0.014,0.09,0.015,0.299,0.339,0.018,0.067,-0.115
0.054,0.138,0.083,-0.096,-0.015,0.11,0.016,0.348,0.368,0.048,0.095,-0.089
0.071,0.178,0.108,-0.125,-0.019,0.143,0.011,0.391,0.398,0.086,0.129,-0.061
0.09,0.224,0.133,-0.157,-0.022,0.178,0.0,0.427,0.442,0.13,0.172,-0.024
0.099,0.259,0.16,-0.179,-0.031,0.209,-0.01,0.457,0.481,0.175,0.216,0.014
0.122,0.294,0.173,-0.208,-0.026,0.233,-0.021,0.455,0.508,0.208,0.25,0.039
0.13,0.323,0.193,-0.227,-0.031,0.257,-0.034,0.445,0.526,0.247,0.288,0.062
0.142,0.338,0.196,-0.24,-0.027,0.267,-0.046,0.424,0.532,0.26,0.299,0.06
0.149,0.33,0.181,-0.24,-0.016,0.255,-0.046,0.374,0.536,0.253,0.293,0.046
0.12,0.293,0.174,-0.207,-0.027,0.233,-0.037,0.306,0.5,0.217,0.267,0.039
0.087,0.228,0.141,-0.158,-0.028,0.184,-0.028,0.24,0.431,0.143,0.205,0.004
0.05,0.149,0.099,-0.1,-0.025,0.124,-0.007,0.171,0.368,0.077,0.14,-0.048
0.017,0.084,0.066,-0.051,-0.025,0.075,0.009,0.115,0.312,0.012,0.089,-0.089
-0.005,0.036,0.041,-0.016,-0.023,0.039,0.01,0.082,0.274,-0.029,0.057,-0.121
-0.022,0.004,0.027,0.009,-0.025,0.015,0.01,0.057,0.251,-0.047,0.039,-0.142
-0.036,-0.011,0.024,0.023,-0.03,0.006,0.01,0.04,0.239,-0.061,0.031,-0.15
-0.04,-0.014,0.025,0.026,-0.032,0.006,0.01,0.023,0.235,-0.068,0.024,-0.15
-0.043,-0.019,0.025,0.031,-0.034,0.003,0.009,0.014,0.23,-0.07,0.018,-0.15
-0.049,-0.024,0.025,0.036,-0.037,0.0,0.005,0.016,0.227,-0.07,0.01,-0.15
-0.048,-0.023,0.025,0.035,-0.036,0.001,0.003,0.013,0.22,-0.07,0.006,-0.15
-0.044,-0.019,0.025,0.031,-0.035,0.002,0.0,0.01,0.222,-0.07,0.01,-0.148
-0.042,-0.017,0.025,0.029,-0.033,0.004,-0.003,0.009,0.225,-0.069,0.01,-0.143
-0.039,-0.014,0.025,0.026,-0.032,0.005,-0.005,0.012,0.224,-0.066,0.01,-0.14
-0.036,-0.011,0.025,0.023,-0.03,0.007,-0.008,0.023,0.229,-0.065,0.01,-0.137
-0.035,-0.01,0.025,0.022,-0.03,0.007,-0.01,0.03,0.23,-0.065,0.01,-0.132
-0.033,-0.01,0.023,0.021,-0.028,0.006,-0.01,0.034,0.229,-0.065,0.008,-0.13
-0.028,-0.01,0.018,0.019,-0.023,0.004,-0.01,0.033,0.225,-0.065,0.004,-0.13
-0.025,-0.01,0.015,0.017,-0.02,0.002,-0.01,0.029,0.221,-0.068,0.005,-0.13
-0.022,-0.01,0.012,0.016,-0.017,0.0,-0.008,0.03,0.218,-0.07,0.001,-0.13
-0.017,-0.009,0.007,0.013,-0.012,-0.001,-0.005,0.03,0.214,-0.07,0.0,-0.13
-0.018,-0.013,0.005,0.015,-0.011,-0.004,-0.002,0.03,0.211,-0.07,0.0,-0.13
-0.032,-0.027,0.005,0.029,-0.018,-0.01,0.0,0.029,0.207,-0.071,-0.005,-0.128
-0.036,-0.031,0.005,0.033,-0.02,-0.012,0.004,0.026,0.204,-0.074,-0.005,-0.121
-0.035,-0.03,0.005,0.032,-0.02,-0.012,0.005,0.023,0.202,-0.078,-0.006,-0.116
-0.035,-0.03,0.005,0.032,-0.02,-0.012,0.005,0.021,0.199,-0.083,-0.01,-0.111
-0.035,-0.03,0.005,0.032,-0.02,-0.012,0.005,0.017,0.196,-0.085,-0.01,-0.105
-0.035,-0.03,0.005,0.032,-0.02,-0.012,0.005,0.015,0.194,-0.088,-0.012,-0.1
-0.037,-0.032,0.005,0.034,-0.021,-0.013,0.005,0.012,0.19,-0.091,-0.019,-0.1
-0.043,-0.038,0.005,0.04,-0.024,-0.016,0.005,0.01,0.185,-0.094,-0.026,-0.1
-0.046,-0.041,0.005,0.043,-0.025,-0.018,0.006,0.01,0.18,-0.095,-0.033,-0.1
-0.051,-0.045,0.005,0.048,-0.027,-0.02,0.012,0.006,0.176,-0.09,-0.039,-0.1
-0.054,-0.05,0.004,0.051,-0.029,-0.022,0.018,0.004,0.171,-0.09,-0.045,-0.1
-0.051,-0.05,0.001,0.05,-0.026,-0.025,0.024,0.006,0.167,-0.089,-0.05,-0.098
-0.046,-0.05,-0.004,0.049,-0.021,-0.026,0.022,0.013,0.165,-0.085,-0.05,-0.093
-0.044,-0.05,-0.007,0.047,-0.019,-0.028,0.019,0.028,0.162,-0.085,-0.05,-0.09
-0.039,-0.05,-0.01,0.044,-0.014,-0.03,0.02,0.032,0.159,-0.087,-0.05,-0.087
-0.038,-0.053,-0.015,0.046,-0.011,-0.034,0.015,0.03,0.156,-0.091,-0.05,-0.082
-0.043,-0.055,-0.013,0.049,-0.015,-0.034,0.015,0.027,0.154,-0.09,-0.052,-0.08
-0.045,-0.055,-0.01,0.05,-0.017,-0.032,0.014,0.024,0.151,-0.094,-0.055,-0.08
-0.045,-0.055,-0.01,0.05,-0.017,-0.032,0.01,0.021,0.146,-0.095,-0.058,-0.08
-0.045,-0.055,-0.01,0.05,-0.017,-0.032,0.01,0.02,0.144,-0.095,-0.061,-0.08
-0.044,-0.054,-0.01,0.049,-0.017,-0.032,0.008,0.02,0.139,-0.1,-0.064,-0.08
-0.041,-0.05,-0.01,0.046,-0.015,-0.03,0.004,0.02,0.136,-0.1,-0.065,-0.08
-0.039,-0.05,-0.01,0.045,-0.015,-0.03,0.005,0.02,0.132,-0.101,-0.065,-0.078
-0.041,-0.05,-0.009,0.046,-0.016,-0.03,0.008,0.02,0.13,-0.105,-0.065,-0.074
-0.039,-0.05,-0.011,0.045,-0.014,-0.031,0.011,0.02,0.13,-0.105,-0.065,-0.072
-0.042,-0.051,-0.009,0.046,-0.016,-0.03,0.01,0.023,0.126,-0.103,-0.065,-0.069
-0.035,-0.047,-0.012,0.041,-0.011,-0.029,0.011,0.026,0.124,-0.095,-0.066,-0.066
-0.031,-0.034,-0.003,0.032,-0.014,-0.018,0.01,0.028,0.125,-0.089,-0.062,-0.064
-0.04,-0.023,0.017,0.031,-0.028,-0.003,0.011,0.032,0.124,-0.083,-0.054,-0.059
-0.033,-0.003,0.029,0.018,-0.031,0.013,0.027,0.035,0.126,-0.075,-0.046,-0.049
-0.031,0.02,0.051,0.005,-0.041,0.036,0.03,0.037,0.124,-0.071,-0.038,-0.043
-0.025,0.042,0.067,-0.009,-0.046,0.054,0.016,0.034,0.125,-0.057,-0.031,-0.033
-0.004,0.076,0.08,-0.036,-0.042,0.078,0.006,0.036,0.131,-0.047,-0.024,-0.028
0.008,0.086,0.078,-0.047,-0.036,0.082,-0.005,0.035,0.123,-0.05,-0.019,-0.023
0.001,0.061,0.06,-0.031,-0.029,0.06,-0.011,0.038,0.11,-0.054,-0.011,-0.019
-0.025,0.025,0.05,0.0,-0.037,0.037,-0.008,0.049,0.099,-0.054,-0.017,-0.038
-0.043,-0.006,0.037,0.024,-0.04,0.015,-0.012,0.025,0.066,-0.077,-0.054,-0.07
-0.045,-0.02,0.025,0.032,-0.035,0.002,-0.007,0.035,0.039,-0.109,-0.073,-0.087
-0.041,-0.026,0.016,0.033,-0.028,-0.004,-0.013,0.008,0.041,-0.102,-0.067,-0.09
-0.053,-0.046,0.007,0.049,-0.03,-0.019,-0.007,0.024,0.032,-0.116,-0.08,-0.091
-0.047,-0.038,0.009,0.042,-0.028,-0.014,-0.01,-0.006,0.034,-0.104,-0.07,-0.089
-0.051,-0.063,-0.011,0.057,-0.02,-0.037,0.038,0.063,0.027,-0.127,-0.105,-0.121
-0.061,-0.098,-0.038,0.08,-0.011,-0.068,0.128,0.339,0.086,-0.123,-0.13,-0.144
0.124,0.156,0.032,-0.14,0.046,0.094,-0.149,-0.126,0.232,0.117,0.105,0.043
0.419,0.806,0.386,-0.613,0.016,0.596,-0.792,-1.173,0.429,0.681,0.727,0.601
0.419,1.094,0.675,-0.756,-0.128,0.884,-1.15,-1.611,0.526,0.983,1.026,0.877
0.097,0.48,0.383,-0.289,-0.143,0.431,-0.816,-1.108,0.113,0.298,0.373,0.363
-0.063,-0.013,0.05,0.037,-0.056,0.018,-0.324,-0.487,-0.207,-0.218,-0.121,-0.06
-0.031,-0.001,0.031,0.016,-0.031,0.015,-0.125,-0.185,-0.061,-0.117,-0.074,-0.076
-0.035,0.003,0.038,0.016,-0.037,0.02,-0.044,-0.02,-0.013,-0.123,-0.082,-0.083
-0.026,0.007,0.033,0.009,-0.03,0.02,-0.02,-0.008,-0.018,-0.109,-0.08,-0.079
-0.03,0.002,0.032,0.014,-0.031,0.017,-0.013,0.024,-0.01,-0.108,-0.081,-0.08
-0.029,-0.001,0.027,0.015,-0.028,0.013,-0.009,0.053,-0.013,-0.107,-0.081,-0.081
-0.023,0.002,0.026,0.01,-0.025,0.014,-0.008,0.063,-0.007,-0.097,-0.078,-0.075
-0.02,0.004,0.024,0.007,-0.022,0.014,-0.001,0.072,-0.011,-0.102,-0.082,-0.071
-0.012,0.013,0.025,-0.001,-0.019,0.019,-0.001,0.073,-0.001,-0.087,-0.078,-0.064
-0.032,0.014,0.046,0.009,-0.039,0.03,-0.004,0.075,-0.001,-0.087,-0.078,-0.06
-0.037,0.021,0.058,0.007,-0.048,0.039,-0.006,0.084,0.004,-0.076,-0.068,-0.053
-0.03,0.023,0.053,0.003,-0.042,0.038,-0.005,0.105,0.008,-0.072,-0.063,-0.049
-0.024,0.033,0.056,-0.005,-0.04,0.044,-0.005,0.113,0.01,-0.06,-0.056,-0.04
-0.009,0.045,0.054,-0.019,-0.031,0.049,-0.005,0.128,0.017,-0.048,-0.049,-0.032
-0.001,0.055,0.056,-0.028,-0.029,0.056,-0.002,0.144,0.024,-0.036,-0.038,-0.023
0.011,0.064,0.053,-0.038,-0.022,0.059,0.0,0.171,0.03,-0.018,-0.025,-0.013
0.016,0.077,0.061,-0.047,-0.023,0.069,0.001,0.201,0.045,0.009,-0.012,-0.002
0.023,0.107,0.083,-0.065,-0.03,0.095,0.005,0.228,0.057,0.03,0.006,0.011
0.045,0.138,0.093,-0.091,-0.024,0.115,0.005,0.267,0.085,0.052,0.039,0.034
0.061,0.166,0.105,-0.114,-0.022,0.136,-0.002,0.305,0.111,0.083,0.071,0.059
0.077,0.207,0.131,-0.142,-0.027,0.169,-0.012,0.338,0.138,0.123,0.099,0.087
0.091,0.252,0.162,-0.172,-0.036,0.207,-0.021,0.371,0.18,0.174,0.143,0.13
0.115,0.293,0.178,-0.204,-0.032,0.235,-0.028,0.381,0.204,0.213,0.18,0.162
0.138,0.338,0.2,-0.239,-0.032,0.269,-0.047,0.38,0.238,0.255,0.22,0.197
0.141,0.369,0.228,-0.256,-0.044,0.299,-0.062,0.377,0.246,0.288,0.254,0.228
0.132,0.363,0.231,-0.248,-0.05,0.297,-0.059,0.348,0.245,0.281,0.25,0.229
0.132,0.351,0.22,-0.242,-0.044,0.285,-0.061,0.293,0.242,0.266,0.242,0.232
0.122,0.327,0.205,-0.225,-0.041,0.266,-0.058,0.236,0.196,0.243,0.214,0.209
0.084,0.257,0.173,-0.171,-0.045,0.215,-0.037,0.183,0.131,0.179,0.148,0.155
0.059,0.175,0.117,-0.117,-0.03,0.146,-0.02,0.124,0.057,0.107,0.074,0.101
0.034,0.105,0.071,-0.07,-0.018,0.087,-0.012,0.078,-0.006,0.051,0.01,0.061
0.007,0.059,0.052,-0.033,-0.023,0.055,-0.004,0.047,-0.056,0.006,-0.029,0.046
-0.009,0.04,0.048,-0.016,-0.029,0.044,0.001,0.029,-0.091,-0.008,-0.046,0.03
-0.013,0.03,0.043,-0.009,-0.028,0.036,0.006,0.021,-0.1,-0.011,-0.046,0.024
-0.013,0.024,0.037,-0.006,-0.025,0.031,0.011,0.013,-0.108,-0.016,-0.044,0.026
-0.015,0.017,0.032,-0.002,-0.024,0.024,0.015,0.005,-0.127,-0.02,-0.045,0.022
-0.016,0.011,0.027,0.002,-0.022,0.018,0.02,-0.003,-0.141,-0.025,-0.044,0.02
-0.015,0.005,0.02,0.005,-0.018,0.012,0.023,-0.001,-0.14,-0.022,-0.046,0.02
-0.015,0.005,0.019,0.005,-0.018,0.012,0.026,0.005,-0.14,-0.017,-0.043,0.023
-0.026,0.005,0.031,0.01,-0.029,0.018,0.029,0.009,-0.144,-0.014,-0.04,0.026
-0.023,0.005,0.028,0.009,-0.026,0.016,0.032,0.016,-0.148,-0.011,-0.037,0.024
-0.017,0.005,0.022,0.006,-0.02,0.013,0.035,0.021,-0.151,-0.006,-0.035,0.026
-0.014,0.005,0.019,0.004,-0.017,0.012,0.034,0.026,-0.154,-0.005,-0.031,0.04
-0.011,0.003,0.013,0.004,-0.012,0.008,0.03,0.03,-0.157,-0.005,-0.03,0.046
-0.011,-0.001,0.01,0.006,-0.01,0.004,0.03,0.03,-0.16,-0.005,-0.033,0.044
0.0,0.0,0.001,0.0,-0.001,0.001,0.03,0.03,-0.161,-0.005,-0.036,0.045
0.007,-0.004,-0.011,-0.001,0.009,-0.007,0.03,0.029,-0.166,-0.005,-0.039,0.045
0.017,-0.005,-0.023,-0.006,0.021,-0.014,0.03,0.035,-0.171,-0.005,-0.042,0.045
0.025,-0.005,-0.03,-0.01,0.028,-0.017,0.026,0.043,-0.174,-0.008,-0.045,0.041
0.018,-0.012,-0.03,-0.003,0.024,-0.021,0.025,0.039,-0.179,-0.013,-0.047,0.04
0.008,-0.023,-0.03,0.008,0.019,-0.026,0.025,0.033,-0.18,-0.016,-0.05,0.04
-0.003,-0.032,-0.03,0.017,0.014,-0.031,0.025,0.03,-0.179,-0.019,-0.05,0.035
-0.005,-0.036,-0.03,0.02,0.013,-0.032,0.025,0.025,-0.181,-0.024,-0.05,0.035
-0.005,-0.035,-0.03,0.02,0.013,-0.032,0.026,0.02,-0.186,-0.024,-0.054,0.034
-0.01,-0.035,-0.026,0.023,0.008,-0.03,0.031,0.016,-0.19,-0.019,-0.055,0.03
-0.013,-0.035,-0.021,0.024,0.005,-0.028,0.035,0.015,-0.195,-0.02,-0.056,0.028
-0.017,-0.035,-0.019,0.026,0.001,-0.026,0.04,0.015,-0.191,-0.02,-0.062,0.025
-0.02,-0.035,-0.015,0.028,-0.002,-0.025,0.036,0.015,-0.189,-0.02,-0.069,0.022
-0.025,-0.035,-0.01,0.03,-0.007,-0.022,0.035,0.015,-0.19,-0.036,-0.07,0.019
-0.022,-0.035,-0.013,0.029,-0.004,-0.024,0.035,0.014,-0.185,-0.04,-0.071,0.024
-0.008,-0.034,-0.026,0.022,0.009,-0.03,0.031,0.01,-0.185,-0.034,-0.075,0.025
-0.003,-0.04,-0.037,0.022,0.018,-0.038,0.029,0.01,-0.184,-0.032,-0.077,0.025
-0.01,-0.046,-0.036,0.029,0.013,-0.041,0.032,0.008,-0.177,-0.027,-0.08,0.03
-0.013,-0.045,-0.032,0.029,0.01,-0.038,0.035,0.005,-0.173,-0.025,-0.083,0.03
-0.017,-0.045,-0.028,0.031,0.006,-0.036,0.035,0.005,-0.167,-0.031,-0.085,0.031
-0.02,-0.045,-0.025,0.033,0.003,-0.035,0.037,0.008,-0.161,-0.038,-0.085,0.035
-0.025,-0.045,-0.02,0.035,-0.002,-0.032,0.04,0.01,-0.156,-0.04,-0.085,0.035
-0.025,-0.049,-0.023,0.037,-0.001,-0.036,0.04,0.01,-0.151,-0.04,-0.085,0.038
-0.007,-0.05,-0.043,0.029,0.018,-0.046,0.036,0.01,-0.146,-0.04,-0.085,0.04
-0.006,-0.052,-0.046,0.03,0.02,-0.049,0.035,0.01,-0.142,-0.04,-0.085,0.04
-0.015,-0.056,-0.041,0.036,0.014,-0.049,0.035,0.012,-0.138,-0.04,-0.084,0.039
-0.014,-0.054,-0.04,0.034,0.013,-0.046,0.035,0.016,-0.133,-0.04,-0.08,0.04
-0.011,-0.046,-0.035,0.029,0.013,-0.041,0.035,0.02,-0.129,-0.035,-0.078,0.039
-0.001,-0.036,-0.035,0.019,0.017,-0.035,0.036,0.022,-0.122,-0.029,-0.075,0.041
-0.001,-0.029,-0.028,0.015,0.013,-0.028,0.046,0.028,-0.116,-0.026,-0.071,0.039
-0.001,-0.019,-0.018,0.01,0.009,-0.018,0.046,0.029,-0.109,-0.021,-0.07,0.042
-0.006,-0.011,-0.006,0.009,0.0,-0.008,0.037,0.034,-0.094,-0.017,-0.066,0.053
-0.007,0.003,0.01,0.002,-0.009,0.006,0.029,0.035,-0.066,-0.012,-0.054,0.056
0.004,0.05,0.046,-0.027,-0.021,0.048,0.021,0.034,-0.041,-0.008,-0.027,0.085
0.009,0.081,0.072,-0.045,-0.032,0.076,0.014,0.042,-0.038,-0.003,-0.014,0.096
0.017,0.063,0.046,-0.041,-0.015,0.055,0.009,0.036,-0.043,0.001,-0.025,0.081
0.014,0.022,0.008,-0.018,0.003,0.015,0.012,0.043,-0.044,-0.012,-0.037,0.071
0.0,-0.02,-0.02,0.011,0.01,-0.02,0.007,0.009,-0.056,-0.035,-0.063,0.061
-0.026,-0.057,-0.031,0.042,0.003,-0.044,0.013,0.002,-0.079,-0.072,-0.091,0.048
-0.036,-0.058,-0.022,0.047,-0.007,-0.04,0.006,-0.013,-0.072,-0.077,-0.096,0.042
-0.039,-0.067,-0.028,0.053,-0.005,-0.047,0.018,-0.01,-0.073,-0.083,-0.111,0.028
-0.047,-0.061,-0.014,0.054,-0.016,-0.037,0.02,-0.011,-0.066,-0.078,-0.091,0.02
-0.038,-0.072,-0.034,0.055,-0.001,-0.053,0.04,0.014,-0.065,-0.079,-0.109,-0.006
-0.026,-0.114,-0.088,0.07,0.031,-0.101,0.152,0.298,-0.028,-0.089,-0.154,-0.055
0.097,0.062,-0.035,-0.08,0.066,0.014,-0.043,0.007,0.125,0.088,0.02,0.083
0.371,0.663,0.292,-0.517,0.039,0.477,-0.654,-1.011,0.317,0.617,0.604,0.607
0.439,1.078,0.64,-0.759,-0.101,0.859,-1.105,-1.599,0.481,1.068,1.04,0.993
0.148,0.555,0.407,-0.352,-0.13,0.48,-0.877,-1.218,0.138,0.483,0.484,0.553
0.0,0.016,0.016,-0.008,-0.008,0.016,-0.375,-0.568,-0.277,-0.191,-0.103,0.057
0.027,-0.01,-0.036,-0.008,0.032,-0.023,-0.138,-0.241,-0.157,-0.141,-0.101,0.032
-0.022,-0.032,-0.01,0.027,-0.005,-0.02,-0.038,-0.067,-0.072,-0.132,-0.112,0.02
-0.021,-0.02,0.002,0.021,-0.012,-0.009,-0.005,-0.028,-0.056,-0.119,-0.104,0.017
-0.017,-0.018,-0.001,0.018,-0.008,-0.009,0.001,0.005,-0.035,-0.1,-0.1,0.013
-0.017,-0.017,0.0,0.017,-0.008,-0.008,0.014,0.027,-0.044,-0.106,-0.103,0.003
-0.007,-0.007,0.001,0.007,-0.004,-0.003,0.021,0.027,-0.028,-0.089,-0.093,0.011
-0.018,-0.019,-0.001,0.018,-0.008,-0.01,0.027,0.043,-0.033,-0.095,-0.092,0.011
-0.021,-0.017,0.005,0.019,-0.013,-0.006,0.024,0.046,-0.022,-0.079,-0.08,0.02
-0.018,-0.009,0.009,0.013,-0.014,0.0,0.025,0.054,-0.02,-0.082,-0.078,0.02
-0.012,0.004,0.015,0.004,-0.014,0.009,0.025,0.057,-0.008,-0.069,-0.068,0.03
-0.009,0.011,0.02,-0.001,-0.015,0.015,0.024,0.077,-0.001,-0.065,-0.065,0.042
-0.005,0.022,0.027,-0.008,-0.016,0.024,0.021,0.088,0.009,-0.057,-0.055,0.049
-0.004,0.027,0.031,-0.011,-0.017,0.028,0.018,0.101,0.02,-0.05,-0.045,0.05
0.006,0.042,0.036,-0.025,-0.015,0.039,0.016,0.117,0.033,-0.04,-0.034,0.063
0.022,0.056,0.034,-0.039,-0.007,0.045,0.012,0.136,0.057,-0.024,-0.022,0.078
0.027,0.065,0.038,-0.047,-0.006,0.051,0.01,0.16,0.073,-0.002,-0.009,0.083
0.031,0.088,0.056,-0.06,-0.013,0.072,0.008,0.191,0.101,0.026,0.006,0.101
0.048,0.112,0.065,-0.08,-0.009,0.088,0.001,0.234,0.127,0.041,0.031,0.122
0.073,0.15,0.077,-0.111,-0.002,0.113,-0.005,0.273,0.158,0.075,0.067,0.144
0.09,0.187,0.098,-0.139,-0.004,0.142,-0.013,0.321,0.202,0.112,0.103,0.175
0.108,0.231,0.123,-0.17,-0.008,0.177,-0.019,0.361,0.239,0.153,0.145,0.21
0.132,0.278,0.146,-0.205,-0.007,0.212,-0.026,0.377,0.281,0.202,0.182,0.241
0.14,0.314,0.174,-0.227,-0.017,0.244,-0.03,0.381,0.32,0.232,0.221,0.274
0.151,0.345,0.194,-0.248,-0.022,0.269,-0.04,0.379,0.347,0.259,0.253,0.303
0.159,0.372,0.213,-0.266,-0.027,0.292,-0.054,0.353,0.351,0.268,0.27,0.311
0.146,0.373,0.227,-0.26,-0.041,0.3,-0.051,0.297,0.35,0.26,0.266,0.3
0.128,0.326,0.199,-0.227,-0.036,0.262,-0.044,0.237,0.318,0.226,0.23,0.27
0.114,0.263,0.148,-0.189,-0.017,0.205,-0.039,0.167,0.26,0.164,0.169,0.224
0.083,0.188,0.104,-0.136,-0.011,0.146,-0.032,0.099,0.203,0.088,0.097,0.171
0.041,0.123,0.081,-0.082,-0.02,0.102,-0.028,0.051,0.145,0.018,0.041,0.121
0.021,0.086,0.065,-0.054,-0.022,0.075,-0.022,0.014,0.105,-0.025,0.001,0.087
-0.007,0.045,0.052,-0.019,-0.03,0.048,-0.016,-0.012,0.088,-0.055,-0.019,0.067
-0.018,0.029,0.046,-0.006,-0.032,0.037,-0.011,-0.034,0.083,-0.073,-0.028,0.06
-0.013,0.026,0.039,-0.007,-0.026,0.032,-0.014,-0.045,0.076,-0.076,-0.041,0.058
-0.013,0.019,0.033,-0.003,-0.023,0.026,-0.015,-0.047,0.069,-0.079,-0.045,0.055
-0.008,0.018,0.026,-0.005,-0.017,0.022,-0.015,-0.05,0.062,-0.081,-0.045,0.052
-0.01,0.01,0.02,0.0,-0.015,0.015,-0.019,-0.045,0.062,-0.085,-0.045,0.05
-0.002,0.014,0.015,-0.006,-0.009,0.014,-0.021,-0.045,0.066,-0.084,-0.045,0.05
0.011,0.026,0.015,-0.019,-0.002,0.02,-0.018,-0.044,0.069,-0.079,-0.045,0.05
0.011,0.026,0.015,-0.019,-0.003,0.02,-0.015,-0.04,0.073,-0.081,-0.045,0.05
0.01,0.025,0.015,-0.018,-0.003,0.02,-0.015,-0.041,0.076,-0.077,-0.045,0.05
0.009,0.024,0.015,-0.017,-0.004,0.019,-0.013,-0.038,0.079,-0.075,-0.045,0.05
0.007,0.02,0.013,-0.013,-0.003,0.016,-0.009,-0.035,0.08,-0.075,-0.045,0.049
0.012,0.02,0.008,-0.016,0.002,0.014,-0.01,-0.032,0.08,-0.079,-0.045,0.045
0.012,0.018,0.006,-0.016,0.003,0.012,-0.013,-0.029,0.079,-0.08,-0.045,0.045
0.007,0.008,0.001,-0.007,0.003,0.004,-0.016,-0.026,0.085,-0.08,-0.049,0.045
0.006,0.004,-0.002,-0.005,0.003,0.001,-0.015,-0.025,0.092,-0.085,-0.05,0.045
0.001,-0.007,-0.008,0.004,0.005,-0.008,-0.015,-0.03,0.088,-0.085,-0.05,0.045
-0.002,-0.029,-0.027,0.016,0.012,-0.027,-0.015,-0.03,0.085,-0.085,-0.05,0.042
-0.014,-0.031,-0.017,0.022,0.001,-0.024,-0.013,-0.03,0.083,-0.085,-0.049,0.039
-0.023,-0.03,-0.006,0.027,-0.008,-0.018,-0.01,-0.03,0.079,-0.085,-0.052,0.036
-0.009,-0.03,-0.021,0.02,0.006,-0.025,-0.007,-0.03,0.083,-0.085,-0.055,0.033
-0.012,-0.05,-0.038,0.031,0.013,-0.044,-0.005,-0.028,0.085,-0.085,-0.058,0.03
-0.018,-0.067,-0.049,0.043,0.016,-0.058,-0.002,-0.024,0.085,-0.085,-0.06,0.029
-0.01,-0.066,-0.056,0.038,0.023,-0.061,0.0,-0.026,0.089,-0.089,-0.064,0.024
-0.011,-0.071,-0.06,0.041,0.024,-0.065,0.003,-0.021,0.09,-0.09,-0.065,0.021
-0.009,-0.073,-0.065,0.041,0.028,-0.069,0.008,-0.02,0.09,-0.09,-0.062,0.018
-0.006,-0.081,-0.075,0.044,0.035,-0.078,0.01,-0.02,0.095,-0.094,-0.059,0.013
-0.004,-0.087,-0.083,0.045,0.04,-0.084,0.015,-0.015,0.095,-0.096,-0.056,0.01
-0.002,-0.09,-0.089,0.046,0.044,-0.089,0.018,-0.015,0.095,-0.093,-0.053,0.007
-0.004,-0.095,-0.09,0.05,0.043,-0.092,0.022,-0.015,0.095,-0.09,-0.05,0.004
-0.005,-0.095,-0.09,0.05,0.043,-0.092,0.025,-0.015,0.094,-0.09,-0.05,0.001
-0.005,-0.095,-0.09,0.05,0.043,-0.092,0.025,-0.015,0.098,-0.088,-0.05,-0.002
-0.004,-0.095,-0.09,0.049,0.043,-0.092,0.027,-0.017,0.1,-0.084,-0.05,-0.005
-0.007,-0.095,-0.089,0.051,0.042,-0.092,0.031,-0.021,0.1,-0.085,-0.05,-0.004
-0.01,-0.094,-0.085,0.053,0.038,-0.09,0.03,-0.023,0.1,-0.088,-0.05,0.0
-0.011,-0.096,-0.085,0.054,0.037,-0.091,0.027,-0.026,0.1,-0.092,-0.05,0.0
-0.017,-0.103,-0.085,0.061,0.034,-0.094,0.024,-0.029,0.1,-0.095,-0.054,0.0
-0.015,-0.1,-0.085,0.058,0.035,-0.092,0.021,-0.03,0.095,-0.099,-0.062,0.0
-0.01,-0.096,-0.085,0.053,0.038,-0.09,0.018,-0.03,0.095,-0.099,-0.064,0.0
-0.012,-0.093,-0.081,0.053,0.035,-0.087,0.015,-0.03,0.094,-0.095,-0.06,0.0
-0.012,-0.089,-0.077,0.051,0.033,-0.082,0.016,-0.03,0.089,-0.093,-0.058,0.0
-0.013,-0.085,-0.072,0.049,0.03,-0.079,0.022,-0.029,0.09,-0.09,-0.055,0.0
-0.014,-0.081,-0.068,0.048,0.027,-0.074,0.025,-0.031,0.092,-0.086,-0.051,0.0
-0.01,-0.073,-0.063,0.042,0.027,-0.068,0.03,-0.027,0.099,-0.085,-0.05,0.0
0.0,-0.05,-0.05,0.025,0.026,-0.05,0.027,-0.024,0.105,-0.08,-0.045,0.001
0.01,-0.027,-0.037,0.009,0.024,-0.031,0.021,-0.026,0.104,-0.071,-0.036,0.01
0.015,-0.007,-0.022,-0.003,0.019,-0.015,0.017,-0.023,0.113,-0.062,-0.027,0.02
0.027,0.024,-0.003,-0.025,0.014,0.01,0.012,-0.028,0.132,-0.057,-0.022,0.03
0.033,0.051,0.019,-0.042,0.007,0.035,0.009,-0.021,0.142,-0.06,-0.025,0.044
0.026,0.046,0.02,-0.036,0.003,0.032,0.004,-0.025,0.133,-0.062,-0.025,0.041
0.024,0.009,-0.014,-0.016,0.019,-0.003,0.017,-0.011,0.121,-0.065,-0.024,0.029
0.009,-0.028,-0.037,0.01,0.023,-0.032,0.022,-0.025,0.101,-0.077,-0.036,0.013
-0.024,-0.073,-0.049,0.049,0.013,-0.061,0.027,-0.048,0.063,-0.115,-0.068,-0.024
-0.03,-0.085,-0.055,0.057,0.013,-0.07,0.024,-0.061,0.06,-0.119,-0.076,-0.03
-0.025,-0.086,-0.061,0.055,0.019,-0.073,0.024,-0.064,0.06,-0.125,-0.086,-0.03
-0.021,-0.085,-0.064,0.053,0.022,-0.074,0.029,-0.048,0.059,-0.129,-0.085,-0.031
-0.026,-0.089,-0.063,0.058,0.019,-0.076,0.02,-0.075,0.061,-0.131,-0.087,-0.033
-0.048,-0.14,-0.091,0.094,0.022,-0.115,0.148,0.194,0.077,-0.165,-0.137,-0.095
0.051,-0.04,-0.091,-0.005,0.071,-0.065,0.074,0.121,0.199,-0.048,-0.049,-0.041
0.329,0.453,0.124,-0.391,0.102,0.288,-0.48,-0.815,0.367,0.372,0.412,0.381
0.512,1.037,0.526,-0.775,-0.007,0.781,-1.064,-1.639,0.58,0.952,1.001,0.914
0.289,0.795,0.507,-0.542,-0.109,0.651,-1.035,-1.495,0.408,0.692,0.747,0.733
0.007,0.103,0.097,-0.055,-0.045,0.1,-0.484,-0.779,-0.084,-0.094,0.03,0.132
-0.008,-0.068,-0.06,0.039,0.026,-0.064,-0.142,-0.339,-0.087,-0.186,-0.116,-0.032
0.011,-0.038,-0.049,0.014,0.03,-0.043,-0.027,-0.128,0.051,-0.121,-0.098,-0.019
0.01,-0.038,-0.049,0.014,0.03,-0.043,0.022,-0.06,0.042,-0.15,-0.111,-0.031
0.009,-0.032,-0.041,0.012,0.025,-0.036,0.028,-0.038,0.056,-0.126,-0.094,-0.034
0.001,-0.038,-0.039,0.019,0.02,-0.038,0.044,-0.002,0.046,-0.139,-0.105,-0.044
0.0,-0.032,-0.032,0.017,0.016,-0.032,0.042,-0.004,0.053,-0.123,-0.095,-0.037
-0.006,-0.037,-0.031,0.021,0.013,-0.034,0.046,0.013,0.048,-0.128,-0.095,-0.043
-0.003,-0.03,-0.027,0.017,0.012,-0.028,0.047,0.015,0.054,-0.119,-0.084,-0.037
0.0,-0.025,-0.025,0.013,0.013,-0.025,0.051,0.025,0.055,-0.118,-0.08,-0.035
0.004,-0.018,-0.022,0.007,0.013,-0.019,0.054,0.033,0.057,-0.111,-0.072,-0.035
0.009,-0.011,-0.019,0.001,0.014,-0.015,0.055,0.039,0.061,-0.103,-0.066,-0.032
0.013,-0.004,-0.017,-0.004,0.015,-0.011,0.06,0.047,0.062,-0.099,-0.061,-0.03
0.013,0.001,-0.012,-0.007,0.012,-0.005,0.06,0.062,0.08,-0.09,-0.049,-0.03
0.02,0.01,-0.01,-0.015,0.015,0.0,0.055,0.076,0.09,-0.08,-0.04,-0.026
0.025,0.02,-0.005,-0.022,0.014,0.007,0.055,0.098,0.099,-0.064,-0.03,-0.015
0.037,0.035,-0.003,-0.036,0.02,0.016,0.054,0.128,0.119,-0.053,-0.013,-0.008
0.046,0.049,0.004,-0.048,0.021,0.026,0.05,0.157,0.142,-0.031,0.007,0.002
0.05,0.07,0.02,-0.06,0.015,0.045,0.051,0.2,0.161,-0.009,0.029,0.016
0.066,0.11,0.043,-0.088,0.011,0.076,0.048,0.252,0.194,0.017,0.057,0.035
0.079,0.145,0.066,-0.112,0.006,0.105,0.038,0.296,0.231,0.054,0.088,0.06
0.102,0.185,0.083,-0.144,0.009,0.134,0.028,0.338,0.265,0.096,0.131,0.092
0.12,0.234,0.114,-0.177,0.003,0.173,0.017,0.367,0.302,0.142,0.174,0.13
0.136,0.268,0.132,-0.202,0.001,0.2,0.004,0.359,0.329,0.183,0.213,0.159
0.145,0.295,0.15,-0.22,-0.003,0.223,-0.014,0.352,0.35,0.221,0.243,0.189
0.158,0.33,0.172,-0.244,-0.007,0.251,-0.023,0.347,0.36,0.226,0.269,0.206
0.18,0.345,0.165,-0.263,0.007,0.255,-0.017,0.304,0.356,0.223,0.277,0.197
0.154,0.314,0.16,-0.234,-0.003,0.237,-0.013,0.238,0.333,0.207,0.242,0.188
0.11,0.244,0.134,-0.178,-0.012,0.189,-0.01,0.165,0.275,0.147,0.182,0.145
0.078,0.159,0.081,-0.119,-0.002,0.12,-0.003,0.092,0.207,0.071,0.113,0.087
0.043,0.092,0.049,-0.068,-0.003,0.07,0.006,0.035,0.143,0.008,0.054,0.043
0.022,0.046,0.024,-0.034,-0.001,0.035,0.015,-0.015,0.092,-0.038,0.009,-0.001
0.017,0.019,0.002,-0.018,0.007,0.01,0.023,-0.044,0.068,-0.078,-0.013,-0.029
0.015,0.007,-0.008,-0.011,0.011,0.0,0.025,-0.067,0.057,-0.09,-0.019,-0.038
0.012,-0.001,-0.013,-0.005,0.012,-0.007,0.025,-0.087,0.053,-0.095,-0.026,-0.035
0.008,-0.01,-0.017,0.001,0.013,-0.013,0.025,-0.086,0.047,-0.101,-0.034,-0.035
0.004,-0.02,-0.024,0.008,0.014,-0.021,0.025,-0.081,0.041,-0.102,-0.041,-0.035
0.004,-0.025,-0.028,0.011,0.017,-0.026,0.026,-0.076,0.036,-0.106,-0.045,-0.035
0.009,-0.025,-0.034,0.008,0.022,-0.029,0.03,-0.074,0.037,-0.108,-0.045,-0.035
0.009,-0.026,-0.035,0.009,0.023,-0.03,0.03,-0.066,0.043,-0.111,-0.045,-0.03
0.009,-0.026,-0.035,0.009,0.023,-0.03,0.034,-0.07,0.044,-0.106,-0.045,-0.03
0.015,-0.025,-0.04,0.005,0.028,-0.032,0.035,-0.08,0.04,-0.105,-0.045,-0.029
0.014,-0.025,-0.04,0.005,0.027,-0.032,0.037,-0.072,0.04,-0.105,-0.045,-0.025
0.016,-0.025,-0.041,0.004,0.029,-0.033,0.041,-0.066,0.04,-0.105,-0.045,-0.025
0.02,-0.025,-0.045,0.003,0.033,-0.035,0.039,-0.059,0.04,-0.105,-0.045,-0.025
0.02,-0.028,-0.047,0.004,0.034,-0.038,0.044,-0.052,0.04,-0.106,-0.045,-0.025
0.02,-0.03,-0.051,0.005,0.035,-0.04,0.045,-0.048,0.036,-0.11,-0.045,-0.025
0.012,-0.04,-0.053,0.014,0.033,-0.047,0.045,-0.045,0.034,-0.11,-0.044,-0.025
0.009,-0.047,-0.056,0.02,0.033,-0.052,0.05,-0.042,0.035,-0.11,-0.048,-0.025
0.003,-0.05,-0.053,0.024,0.028,-0.051,0.05,-0.039,0.035,-0.11,-0.05,-0.026
0.005,-0.056,-0.061,0.026,0.034,-0.059,0.051,-0.036,0.035,-0.11,-0.051,-0.029
0.015,-0.062,-0.076,0.024,0.046,-0.069,0.055,-0.035,0.034,-0.11,-0.055,-0.032
0.007,-0.067,-0.073,0.03,0.041,-0.07,0.056,-0.042,0.03,-0.11,-0.055,-0.034
0.017,-0.052,-0.07,0.017,0.044,-0.061,0.052,-0.045,0.03,-0.11,-0.059,-0.038
0.01,-0.059,-0.069,0.025,0.04,-0.063,0.05,-0.045,0.03,-0.11,-0.062,-0.04
-0.015,-0.078,-0.063,0.047,0.025,-0.07,0.05,-0.045,0.03,-0.11,-0.066,-0.04
-0.007,-0.079,-0.072,0.043,0.033,-0.075,0.05,-0.045,0.03,-0.111,-0.069,-0.04
0.007,-0.084,-0.091,0.039,0.05,-0.087,0.05,-0.045,0.026,-0.117,-0.073,-0.04
0.01,-0.086,-0.096,0.038,0.054,-0.091,0.05,-0.04,0.025,-0.124,-0.075,-0.04
0.008,-0.089,-0.098,0.041,0.053,-0.093,0.062,-0.04,0.025,-0.125,-0.075,-0.04
0.012,-0.089,-0.101,0.038,0.057,-0.095,0.066,-0.039,0.025,-0.125,-0.079,-0.04
0.019,-0.085,-0.104,0.033,0.062,-0.094,0.064,-0.034,0.025,-0.125,-0.08,-0.035
0.021,-0.084,-0.106,0.032,0.064,-0.095,0.066,-0.036,0.026,-0.125,-0.08,-0.035
0.009,-0.096,-0.105,0.044,0.057,-0.1,0.064,-0.032,0.033,-0.124,-0.08,-0.035
-0.001,-0.106,-0.105,0.054,0.053,-0.106,0.066,-0.029,0.039,-0.126,-0.08,-0.035
-0.002,-0.107,-0.105,0.055,0.052,-0.105,0.069,-0.03,0.044,-0.13,-0.08,-0.034
-0.006,-0.111,-0.105,0.059,0.049,-0.107,0.07,-0.03,0.045,-0.13,-0.08,-0.039
-0.007,-0.113,-0.106,0.061,0.049,-0.109,0.07,-0.03,0.045,-0.13,-0.08,-0.056
-0.014,-0.116,-0.102,0.065,0.045,-0.109,0.07,-0.029,0.045,-0.13,-0.08,-0.065
-0.019,-0.119,-0.1,0.069,0.04,-0.109,0.07,-0.026,0.045,-0.13,-0.08,-0.072
-0.021,-0.121,-0.1,0.071,0.039,-0.11,0.07,-0.023,0.045,-0.126,-0.08,-0.087
-0.029,-0.126,-0.097,0.078,0.035,-0.111,0.07,-0.02,0.045,-0.125,-0.08,-0.096
-0.03,-0.124,-0.094,0.077,0.033,-0.109,0.07,-0.017,0.045,-0.125,-0.081,-0.099
-0.02,-0.116,-0.096,0.068,0.039,-0.106,0.071,-0.014,0.045,-0.12,-0.079,-0.104
-0.004,-0.104,-0.1,0.054,0.048,-0.102,0.069,-0.013,0.045,-0.12,-0.075,-0.103
-0.002,-0.096,-0.093,0.049,0.046,-0.094,0.084,-0.005,0.05,-0.12,-0.07,-0.096
-0.002,-0.084,-0.082,0.044,0.04,-0.083,0.095,0.0,0.055,-0.109,-0.067,-0.089
-0.006,-0.076,-0.07,0.041,0.032,-0.072,0.087,0.008,0.065,-0.101,-0.062,-0.082
-0.009,-0.063,-0.054,0.036,0.023,-0.058,0.081,0.014,0.082,-0.086,-0.052,-0.076
0.019,-0.024,-0.043,0.003,0.031,-0.033,0.074,0.019,0.096,-0.069,-0.05,-0.068
0.03,-0.009,-0.04,-0.011,0.035,-0.024,0.068,0.016,0.095,-0.064,-0.049,-0.062
0.016,-0.033,-0.049,0.009,0.033,-0.041,0.064,0.004,0.083,-0.064,-0.051,-0.052
0.017,-0.061,-0.078,0.022,0.048,-0.069,0.067,0.006,0.077,-0.077,-0.048,-0.06
0.001,-0.105,-0.106,0.052,0.054,-0.105,0.062,-0.013,0.057,-0.102,-0.057,-0.1
-0.03,-0.143,-0.113,0.087,0.042,-0.128,0.069,-0.003,0.034,-0.131,-0.082,-0.13
-0.026,-0.15,-0.124,0.088,0.049,-0.137,0.061,-0.033,0.037,-0.133,-0.086,-0.136
-0.027,-0.154,-0.128,0.091,0.05,-0.141,0.076,-0.02,0.033,-0.138,-0.088,-0.157
-0.03,-0.142,-0.113,0.086,0.041,-0.127,0.072,-0.031,0.038,-0.122,-0.08,-0.158
-0.038,-0.179,-0.141,0.108,0.052,-0.16,0.1,0.04,0.031,-0.15,-0.106,-0.189
-0.044,-0.215,-0.171,0.13,0.063,-0.192,0.204,0.302,0.087,-0.154,-0.114,-0.239
0.131,0.003,-0.127,-0.067,0.129,-0.062,-0.056,-0.122,0.227,0.064,0.079,-0.065
0.446,0.634,0.188,-0.54,0.129,0.411,-0.704,-1.157,0.427,0.615,0.671,0.472
0.48,0.986,0.506,-0.733,-0.014,0.746,-1.108,-1.645,0.563,0.972,1.022,0.79
0.162,0.424,0.261,-0.293,-0.05,0.342,-0.802,-1.172,0.182,0.347,0.44,0.328
-0.016,-0.107,-0.091,0.062,0.037,-0.099,-0.28,-0.527,-0.168,-0.213,-0.079,-0.141
-0.016,-0.156,-0.14,0.087,0.062,-0.148,-0.064,-0.203,-0.033,-0.158,-0.088,-0.184
-0.025,-0.148,-0.124,0.087,0.05,-0.136,0.019,-0.043,0.033,-0.163,-0.093,-0.185
-0.006,-0.13,-0.124,0.069,0.059,-0.127,0.05,-0.027,0.027,-0.15,-0.083,-0.191
-0.005,-0.131,-0.126,0.068,0.06,-0.128,0.07,0.008,0.033,-0.143,-0.08,-0.205
-0.003,-0.127,-0.124,0.065,0.061,-0.125,0.077,0.034,0.023,-0.141,-0.077,-0.206
-0.002,-0.123,-0.121,0.063,0.06,-0.122,0.073,0.043,0.028,-0.126,-0.069,-0.203
-0.004,-0.122,-0.118,0.063,0.057,-0.12,0.077,0.057,0.022,-0.126,-0.066,-0.207
-0.003,-0.118,-0.115,0.061,0.056,-0.116,0.073,0.06,0.032,-0.111,-0.056,-0.204
-0.003,-0.116,-0.112,0.06,0.055,-0.114,0.077,0.063,0.028,-0.108,-0.052,-0.204
0.002,-0.108,-0.11,0.053,0.056,-0.109,0.079,0.084,0.034,-0.097,-0.043,-0.198
0.005,-0.103,-0.108,0.049,0.057,-0.105,0.084,0.101,0.05,-0.091,-0.039,-0.197
0.005,-0.098,-0.102,0.047,0.054,-0.099,0.083,0.108,0.06,-0.08,-0.03,-0.194
0.007,-0.091,-0.097,0.042,0.052,-0.094,0.079,0.132,0.071,-0.068,-0.02,-0.19
0.016,-0.077,-0.093,0.031,0.055,-0.085,0.08,0.14,0.076,-0.057,-0.01,-0.19
0.026,-0.062,-0.089,0.018,0.058,-0.075,0.08,0.164,0.094,-0.043,0.001,-0.178
0.033,-0.051,-0.084,0.01,0.059,-0.067,0.08,0.191,0.109,-0.024,0.017,-0.162
0.046,-0.032,-0.079,-0.007,0.063,-0.055,0.08,0.222,0.13,0.002,0.038,-0.154
0.067,0.003,-0.064,-0.035,0.065,-0.03,0.073,0.268,0.162,0.026,0.064,-0.146
0.08,0.038,-0.042,-0.059,0.061,-0.002,0.066,0.314,0.194,0.056,0.096,-0.128
0.092,0.069,-0.023,-0.08,0.057,0.023,0.059,0.364,0.228,0.099,0.133,-0.099
0.113,0.111,-0.002,-0.112,0.057,0.054,0.051,0.396,0.259,0.142,0.176,-0.071
0.144,0.16,0.016,-0.152,0.064,0.087,0.044,0.418,0.295,0.181,0.215,-0.036
0.158,0.198,0.04,-0.178,0.058,0.119,0.036,0.418,0.325,0.219,0.249,-0.008
0.158,0.225,0.067,-0.192,0.045,0.146,0.024,0.408,0.348,0.254,0.283,0.013
0.152,0.228,0.075,-0.19,0.038,0.151,0.013,0.387,0.352,0.268,0.297,0.031
0.151,0.22,0.069,-0.185,0.041,0.144,0.015,0.333,0.334,0.254,0.285,0.019
0.134,0.195,0.062,-0.165,0.036,0.128,0.014,0.262,0.299,0.213,0.244,-0.015
0.097,0.127,0.03,-0.112,0.033,0.078,0.021,0.189,0.237,0.142,0.177,-0.061
0.075,0.049,-0.026,-0.062,0.051,0.011,0.042,0.121,0.167,0.077,0.112,-0.115
0.045,-0.019,-0.063,-0.013,0.054,-0.041,0.047,0.073,0.106,0.024,0.062,-0.163
0.033,-0.064,-0.097,0.016,0.065,-0.08,0.044,0.038,0.069,-0.017,0.026,-0.193
0.024,-0.088,-0.111,0.032,0.068,-0.099,0.047,0.008,0.054,-0.038,0.006,-0.211
0.007,-0.104,-0.112,0.049,0.06,-0.108,0.055,-0.01,0.043,-0.046,0.005,-0.22
-0.001,-0.117,-0.116,0.06,0.058,-0.116,0.055,-0.024,0.039,-0.045,0.005,-0.22
-0.01,-0.121,-0.111,0.065,0.051,-0.116,0.055,-0.027,0.04,-0.045,0.0,-0.22
-0.01,-0.119,-0.11,0.065,0.05,-0.114,0.055,-0.024,0.04,-0.045,0.0,-0.22
-0.015,-0.12,-0.105,0.068,0.045,-0.112,0.055,-0.026,0.04,-0.045,-0.001,-0.22
-0.015,-0.119,-0.104,0.068,0.045,-0.112,0.054,-0.025,0.04,-0.044,-0.005,-0.218
-0.023,-0.121,-0.098,0.072,0.038,-0.109,0.05,-0.026,0.042,-0.04,-0.004,-0.214
-0.018,-0.124,-0.106,0.071,0.044,-0.115,0.05,-0.024,0.046,-0.04,-0.008,-0.212
-0.002,-0.127,-0.125,0.065,0.062,-0.126,0.05,-0.02,0.044,-0.04,-0.01,-0.209
-0.005,-0.13,-0.125,0.068,0.06,-0.127,0.05,-0.016,0.045,-0.04,-0.01,-0.206
-0.008,-0.133,-0.125,0.071,0.059,-0.128,0.05,-0.013,0.05,-0.04,-0.014,-0.204
-0.011,-0.135,-0.125,0.073,0.058,-0.13,0.053,-0.008,0.05,-0.044,-0.016,-0.2
-0.009,-0.135,-0.126,0.073,0.059,-0.13,0.056,-0.005,0.051,-0.045,-0.015,-0.2
-0.012,-0.135,-0.123,0.074,0.056,-0.129,0.054,-0.009,0.055,-0.045,-0.015,-0.199
0.001,-0.135,-0.136,0.067,0.069,-0.135,0.055,-0.011,0.055,-0.045,-0.015,-0.195
0.017,-0.135,-0.152,0.059,0.085,-0.143,0.054,-0.01,0.053,-0.045,-0.016,-0.195
0.014,-0.135,-0.149,0.06,0.082,-0.141,0.057,-0.01,0.048,-0.044,-0.02,-0.197
0.015,-0.135,-0.15,0.06,0.083,-0.142,0.06,-0.01,0.045,-0.04,-0.019,-0.2
0.009,-0.141,-0.15,0.066,0.08,-0.145,0.062,-0.01,0.042,-0.04,-0.023,-0.2
0.003,-0.147,-0.15,0.072,0.077,-0.148,0.066,-0.01,0.037,-0.04,-0.025,-0.2
-0.005,-0.154,-0.15,0.079,0.073,-0.152,0.061,-0.01,0.035,-0.04,-0.025,-0.2
-0.008,-0.16,-0.151,0.084,0.071,-0.155,0.06,-0.01,0.04,-0.04,-0.028,-0.199
-0.005,-0.16,-0.155,0.083,0.075,-0.157,0.06,-0.01,0.04,-0.044,-0.031,-0.195
-0.004,-0.16,-0.155,0.083,0.075,-0.157,0.059,-0.01,0.041,-0.045,-0.034,-0.194
-0.006,-0.16,-0.154,0.084,0.074,-0.157,0.061,-0.014,0.045,-0.045,-0.037,-0.195
-0.001,-0.16,-0.158,0.081,0.079,-0.158,0.058,-0.015,0.045,-0.045,-0.04,-0.194
0.004,-0.162,-0.166,0.08,0.085,-0.164,0.056,-0.015,0.043,-0.045,-0.04,-0.196
-0.001,-0.166,-0.165,0.084,0.082,-0.165,0.052,-0.015,0.038,-0.044,-0.043,-0.192
0.001,-0.164,-0.165,0.082,0.083,-0.164,0.05,-0.015,0.035,-0.04,-0.046,-0.19
-0.001,-0.166,-0.165,0.084,0.083,-0.166,0.046,-0.014,0.032,-0.04,-0.049,-0.19
-0.004,-0.168,-0.164,0.087,0.08,-0.166,0.044,-0.01,0.027,-0.04,-0.052,-0.186
-0.007,-0.173,-0.166,0.091,0.08,-0.169,0.057,-0.01,0.024,-0.04,-0.054,-0.184
0.0,-0.174,-0.175,0.087,0.088,-0.174,0.061,-0.008,0.021,-0.04,-0.057,-0.185
0.008,-0.177,-0.184,0.085,0.096,-0.18,0.06,-0.004,0.02,-0.044,-0.06,-0.185
-0.012,-0.197,-0.185,0.105,0.087,-0.19,0.06,-0.005,0.02,-0.045,-0.06,-0.185
-0.016,-0.201,-0.185,0.109,0.085,-0.193,0.06,-0.005,0.02,-0.045,-0.06,-0.185
-0.01,-0.199,-0.189,0.104,0.09,-0.194,0.06,-0.005,0.02,-0.05,-0.06,-0.185
-0.01,-0.201,-0.19,0.105,0.09,-0.195,0.055,-0.005,0.022,-0.05,-0.06,-0.185
-0.011,-0.2,-0.189,0.106,0.089,-0.194,0.055,-0.004,0.025,-0.049,-0.057,-0.183
-0.017,-0.2,-0.183,0.109,0.083,-0.191,0.055,-0.005,0.025,-0.043,-0.051,-0.178
-0.017,-0.192,-0.175,0.105,0.08,-0.183,0.056,-0.003,0.025,-0.036,-0.047,-0.175
-0.017,-0.187,-0.17,0.102,0.077,-0.178,0.052,0.001,0.025,-0.029,-0.043,-0.171
-0.016,-0.177,-0.161,0.097,0.073,-0.169,0.067,0.007,0.025,-0.023,-0.037,-0.167
-0.002,-0.159,-0.158,0.081,0.078,-0.158,0.088,0.009,0.03,-0.016,-0.034,-0.164
0.002,-0.144,-0.147,0.071,0.075,-0.145,0.079,0.016,0.033,-0.01,-0.022,-0.157
0.015,-0.12,-0.134,0.052,0.075,-0.127,0.064,0.018,0.039,0.008,-0.011,-0.142
0.035,-0.082,-0.118,0.024,0.077,-0.1,0.057,0.018,0.052,0.032,0.003,-0.137
0.035,-0.076,-0.111,0.021,0.073,-0.093,0.054,0.008,0.046,0.037,0.018,-0.141
0.035,-0.109,-0.144,0.037,0.09,-0.126,0.056,0.002,0.033,0.03,0.003,-0.145
0.019,-0.147,-0.165,0.064,0.092,-0.156,0.055,-0.002,0.019,0.02,-0.017,-0.165
-0.008,-0.187,-0.179,0.097,0.086,-0.182,0.053,-0.016,-0.02,-0.013,-0.048,-0.199
-0.016,-0.213,-0.197,0.115,0.091,-0.205,0.06,-0.006,-0.037,-0.041,-0.066,-0.211
-0.022,-0.228,-0.206,0.125,0.092,-0.216,0.054,-0.021,-0.038,-0.037,-0.063,-0.21
-0.026,-0.24,-0.214,0.133,0.094,-0.227,0.069,0.013,-0.046,-0.045,-0.068,-0.219
-0.016,-0.227,-0.211,0.122,0.098,-0.219,0.046,-0.026,-0.025,-0.032,-0.06,-0.213
-0.031,-0.267,-0.236,0.15,0.103,-0.251,0.123,0.111,-0.031,-0.061,-0.093,-0.258
-0.012,-0.282,-0.27,0.148,0.129,-0.276,0.191,0.3,0.021,-0.027,-0.087,-0.279
0.213,0.051,-0.162,-0.132,0.187,-0.055,-0.19,-0.326,0.162,0.267,0.209,-0.006
0.493,0.709,0.216,-0.601,0.138,0.462,-0.83,-1.338,0.374,0.87,0.847,0.576
0.41,0.822,0.412,-0.616,-0.001,0.616,-1.075,-1.601,0.39,1.001,0.961,0.702
0.086,0.157,0.071,-0.122,0.008,0.114,-0.651,-0.989,-0.085,0.227,0.257,0.121
-0.025,-0.229,-0.205,0.127,0.09,-0.217,-0.2,-0.413,-0.299,-0.14,-0.099,-0.219
0.0,-0.208,-0.208,0.104,0.104,-0.208,-0.042,-0.141,-0.15,-0.043,-0.046,-0.213
0.0,-0.208,-0.208,0.104,0.105,-0.208,0.027,-0.02,-0.137,-0.069,-0.063,-0.223
0.002,-0.201,-0.203,0.1,0.103,-0.202,0.05,-0.006,-0.127,-0.041,-0.053,-0.211
0.0,-0.201,-0.201,0.1,0.101,-0.201,0.073,0.034,-0.125,-0.047,-0.057,-0.213
0.004,-0.195,-0.199,0.095,0.102,-0.197,0.074,0.04,-0.121,-0.035,-0.055,-0.209
0.002,-0.193,-0.195,0.096,0.099,-0.194,0.078,0.05,-0.113,-0.029,-0.055,-0.206
0.002,-0.189,-0.19,0.094,0.096,-0.189,0.084,0.051,-0.114,-0.027,-0.056,-0.199
0.0,-0.185,-0.185,0.093,0.093,-0.185,0.084,0.066,-0.105,-0.015,-0.053,-0.192
0.001,-0.181,-0.182,0.09,0.091,-0.181,0.086,0.078,-0.106,-0.014,-0.051,-0.187
0.005,-0.171,-0.176,0.084,0.091,-0.173,0.088,0.079,-0.099,-0.002,-0.041,-0.178
0.008,-0.164,-0.173,0.078,0.091,-0.168,0.091,0.096,-0.097,0.001,-0.037,-0.174
0.01,-0.156,-0.166,0.073,0.088,-0.161,0.089,0.108,-0.093,0.014,-0.028,-0.166
0.01,-0.149,-0.159,0.07,0.085,-0.154,0.086,0.126,-0.085,0.022,-0.023,-0.159
0.017,-0.135,-0.153,0.059,0.085,-0.144,0.085,0.143,-0.075,0.033,-0.016,-0.153
0.024,-0.121,-0.145,0.049,0.085,-0.133,0.084,0.166,-0.065,0.052,-0.001,-0.142
0.032,-0.108,-0.14,0.038,0.086,-0.124,0.079,0.195,-0.049,0.068,0.011,-0.122
0.045,-0.089,-0.133,0.022,0.089,-0.111,0.081,0.233,-0.026,0.093,0.032,-0.097
0.064,-0.057,-0.121,-0.003,0.092,-0.089,0.077,0.274,-0.002,0.115,0.055,-0.078
0.086,-0.019,-0.105,-0.033,0.096,-0.061,0.065,0.309,0.02,0.145,0.078,-0.056
0.094,0.019,-0.075,-0.056,0.085,-0.028,0.053,0.351,0.052,0.187,0.121,-0.021
0.105,0.069,-0.036,-0.087,0.07,0.017,0.043,0.383,0.087,0.229,0.165,0.021
0.13,0.118,-0.011,-0.124,0.07,0.053,0.032,0.393,0.112,0.271,0.195,0.058
0.145,0.152,0.006,-0.149,0.069,0.079,0.022,0.392,0.139,0.304,0.228,0.086
0.154,0.185,0.031,-0.17,0.061,0.108,0.02,0.382,0.146,0.329,0.255,0.108
0.163,0.196,0.033,-0.179,0.064,0.115,0.019,0.338,0.137,0.339,0.253,0.107
0.147,0.171,0.023,-0.159,0.062,0.097,0.015,0.285,0.128,0.324,0.243,0.092
0.112,0.118,0.006,-0.116,0.053,0.062,0.015,0.228,0.08,0.269,0.206,0.067
0.085,0.047,-0.038,-0.066,0.061,0.004,0.031,0.162,0.006,0.192,0.132,0.008
0.049,-0.027,-0.076,-0.011,0.062,-0.051,0.052,0.109,-0.058,0.12,0.062,-0.056
0.026,-0.083,-0.109,0.029,0.067,-0.096,0.062,0.062,-0.12,0.062,0.005,-0.096
0.01,-0.127,-0.137,0.059,0.074,-0.132,0.061,0.026,-0.157,0.024,-0.026,-0.123
-0.022,-0.162,-0.14,0.092,0.059,-0.151,0.06,0.005,-0.179,-0.001,-0.041,-0.147
-0.024,-0.166,-0.142,0.095,0.06,-0.154,0.059,-0.003,-0.199,-0.009,-0.054,-0.151
-0.019,-0.164,-0.145,0.092,0.064,-0.155,0.055,-0.009,-0.206,-0.014,-0.061,-0.149
-0.02,-0.166,-0.146,0.093,0.064,-0.156,0.055,-0.017,-0.211,-0.02,-0.065,-0.15
-0.014,-0.164,-0.15,0.089,0.068,-0.157,0.055,-0.025,-0.22,-0.015,-0.065,-0.15
-0.013,-0.165,-0.152,0.089,0.07,-0.158,0.055,-0.029,-0.226,-0.015,-0.065,-0.149
-0.009,-0.165,-0.155,0.088,0.073,-0.16,0.055,-0.025,-0.224,-0.014,-0.065,-0.144
-0.007,-0.165,-0.158,0.086,0.076,-0.161,0.055,-0.023,-0.227,-0.009,-0.065,-0.145
-0.005,-0.165,-0.16,0.085,0.078,-0.162,0.055,-0.02,-0.23,-0.011,-0.065,-0.143
-0.001,-0.165,-0.163,0.083,0.082,-0.164,0.055,-0.017,-0.23,-0.007,-0.065,-0.139
0.0,-0.165,-0.165,0.083,0.083,-0.165,0.05,-0.015,-0.233,-0.005,-0.065,-0.141
-0.003,-0.168,-0.165,0.086,0.081,-0.166,0.051,-0.012,-0.236,-0.005,-0.065,-0.136
-0.006,-0.171,-0.165,0.089,0.079,-0.167,0.049,-0.01,-0.241,-0.001,-0.065,-0.135
-0.008,-0.174,-0.165,0.092,0.079,-0.17,0.051,-0.01,-0.246,0.0,-0.065,-0.135
-0.013,-0.177,-0.163,0.095,0.075,-0.17,0.048,-0.01,-0.249,-0.001,-0.066,-0.131
-0.02,-0.18,-0.16,0.1,0.07,-0.17,0.055,-0.01,-0.253,-0.004,-0.07,-0.13
-0.024,-0.183,-0.159,0.103,0.068,-0.171,0.076,-0.011,-0.256,-0.009,-0.069,-0.131
-0.026,-0.187,-0.161,0.107,0.068,-0.173,0.083,-0.017,-0.259,-0.011,-0.073,-0.135
-0.03,-0.189,-0.159,0.11,0.064,-0.174,0.098,-0.02,-0.261,-0.016,-0.075,-0.134
-0.033,-0.194,-0.161,0.114,0.064,-0.177,0.099,-0.025,-0.266,-0.019,-0.075,-0.137
-0.032,-0.195,-0.163,0.114,0.066,-0.179,0.093,-0.03,-0.278,-0.023,-0.078,-0.14
-0.029,-0.195,-0.166,0.112,0.069,-0.18,0.092,-0.027,-0.288,-0.026,-0.081,-0.14
-0.032,-0.196,-0.164,0.114,0.066,-0.179,0.085,-0.023,-0.294,-0.031,-0.084,-0.144
-0.035,-0.193,-0.159,0.114,0.062,-0.175,0.086,-0.022,-0.308,-0.034,-0.087,-0.145
-0.037,-0.198,-0.161,0.118,0.062,-0.179,0.092,-0.017,-0.316,-0.036,-0.089,-0.145
-0.042,-0.189,-0.148,0.116,0.054,-0.169,0.099,-0.017,-0.314,-0.035,-0.092,-0.145
-0.032,-0.216,-0.184,0.124,0.076,-0.2,0.097,-0.007,-0.315,-0.029,-0.095,-0.145
-0.029,-0.228,-0.198,0.129,0.084,-0.213,0.093,0.012,-0.314,-0.045,-0.095,-0.144
-0.031,-0.193,-0.162,0.112,0.066,-0.177,0.089,0.008,-0.317,-0.047,-0.097,-0.14
-0.023,-0.197,-0.175,0.11,0.076,-0.185,0.086,0.005,-0.325,-0.039,-0.101,-0.138
-0.026,-0.202,-0.176,0.115,0.075,-0.189,0.08,0.003,-0.332,-0.035,-0.1,-0.135
-0.031,-0.204,-0.173,0.118,0.072,-0.189,0.082,0.0,-0.339,-0.028,-0.097,-0.132
-0.034,-0.211,-0.176,0.123,0.071,-0.193,0.099,-0.002,-0.345,-0.024,-0.092,-0.129
-0.036,-0.209,-0.173,0.123,0.069,-0.191,0.101,-0.006,-0.349,-0.02,-0.089,-0.127
-0.034,-0.211,-0.177,0.122,0.072,-0.193,0.099,-0.005,-0.35,-0.02,-0.086,-0.124
-0.029,-0.209,-0.181,0.119,0.076,-0.195,0.096,-0.005,-0.353,-0.017,-0.081,-0.121
-0.025,-0.21,-0.185,0.118,0.08,-0.197,0.095,-0.005,-0.355,-0.015,-0.081,-0.118
-0.023,-0.21,-0.187,0.117,0.082,-0.198,0.094,-0.004,-0.357,-0.015,-0.086,-0.116
-0.019,-0.21,-0.191,0.115,0.086,-0.201,0.089,0.001,-0.365,-0.023,-0.09,-0.114
-0.025,-0.21,-0.185,0.118,0.08,-0.197,0.091,0.008,-0.367,-0.031,-0.086,-0.109
-0.035,-0.21,-0.175,0.122,0.07,-0.192,0.089,0.014,-0.361,-0.02,-0.079,-0.103
-0.028,-0.193,-0.165,0.111,0.069,-0.179,0.101,0.021,-0.356,-0.013,-0.072,-0.1
-0.014,-0.165,-0.151,0.09,0.069,-0.158,0.114,0.029,-0.351,-0.004,-0.066,-0.094
-0.012,-0.151,-0.138,0.082,0.064,-0.144,0.109,0.041,-0.345,0.006,-0.058,-0.092
0.004,-0.121,-0.125,0.059,0.065,-0.123,0.103,0.041,-0.34,0.013,-0.056,-0.079
0.023,-0.095,-0.118,0.036,0.071,-0.106,0.1,0.045,-0.34,0.04,-0.061,-0.057
0.031,-0.084,-0.116,0.027,0.074,-0.1,0.095,0.048,-0.34,0.055,-0.06,-0.049
0.026,-0.082,-0.108,0.028,0.067,-0.095,0.09,0.049,-0.338,0.037,-0.065,-0.049
0.004,-0.123,-0.128,0.06,0.066,-0.125,0.088,0.049,-0.347,0.024,-0.064,-0.059
-0.014,-0.175,-0.161,0.095,0.074,-0.168,0.082,0.012,-0.39,-0.008,-0.073,-0.088
-0.033,-0.203,-0.17,0.118,0.069,-0.186,0.084,0.012,-0.43,-0.039,-0.094,-0.112
-0.04,-0.204,-0.165,0.122,0.063,-0.184,0.075,-0.004,-0.429,-0.03,-0.086,-0.113
-0.037,-0.207,-0.17,0.122,0.067,-0.188,0.08,0.016,-0.448,-0.047,-0.094,-0.122
-0.044,-0.202,-0.158,0.124,0.057,-0.18,0.07,-0.013,-0.443,-0.036,-0.092,-0.114
-0.048,-0.229,-0.182,0.139,0.067,-0.205,0.13,0.074,-0.429,-0.051,-0.129,-0.141
-0.018,-0.257,-0.239,0.138,0.111,-0.247,0.239,0.348,-0.354,-0.021,-0.149,-0.167
0.15,0.015,-0.135,-0.082,0.142,-0.06,-0.048,-0.115,-0.206,0.239,0.115,0.054
0.419,0.681,0.262,-0.551,0.079,0.471,-0.68,-1.119,-0.024,0.842,0.759,0.62
0.375,0.862,0.488,-0.619,-0.057,0.674,-0.974,-1.481,0.037,1.099,0.967,0.811
0.065,0.192,0.127,-0.128,-0.031,0.159,-0.636,-0.986,-0.437,0.306,0.24,0.241
-0.044,-0.207,-0.163,0.126,0.06,-0.185,-0.213,-0.444,-0.728,-0.169,-0.17,-0.109
-0.027,-0.168,-0.141,0.098,0.057,-0.155,-0.028,-0.171,-0.557,-0.047,-0.098,-0.094
-0.033,-0.163,-0.13,0.098,0.049,-0.146,0.063,-0.006,-0.515,-0.078,-0.122,-0.113
-0.026,-0.148,-0.122,0.088,0.048,-0.135,0.08,-0.002,-0.497,-0.048,-0.104,-0.1
-0.026,-0.152,-0.126,0.089,0.05,-0.138,0.094,0.023,-0.499,-0.052,-0.112,-0.108
-0.025,-0.145,-0.12,0.085,0.048,-0.132,0.104,0.049,-0.502,-0.044,-0.105,-0.104
-0.021,-0.141,-0.12,0.081,0.049,-0.13,0.101,0.047,-0.491,-0.033,-0.104,-0.101
-0.02,-0.14,-0.12,0.08,0.05,-0.13,0.098,0.055,-0.499,-0.035,-0.105,-0.096
-0.019,-0.131,-0.112,0.075,0.047,-0.121,0.093,0.057,-0.49,-0.02,-0.095,-0.089
-0.02,-0.128,-0.108,0.074,0.044,-0.118,0.091,0.064,-0.491,-0.021,-0.098,-0.086
-0.016,-0.116,-0.1,0.066,0.043,-0.108,0.086,0.072,-0.49,-0.008,-0.089,-0.077
-0.003,-0.1,-0.097,0.052,0.047,-0.098,0.084,0.085,-0.472,-0.006,-0.089,-0.075
0.003,-0.087,-0.089,0.042,0.046,-0.088,0.079,0.089,-0.429,0.002,-0.084,-0.062
0.005,-0.076,-0.081,0.036,0.043,-0.078,0.076,0.1,-0.389,0.012,-0.075,-0.051
0.01,-0.062,-0.072,0.026,0.041,-0.067,0.073,0.12,-0.362,0.025,-0.059,-0.038
0.02,-0.043,-0.064,0.012,0.042,-0.053,0.068,0.142,-0.341,0.035,-0.047,-0.026
0.029,-0.023,-0.052,-0.002,0.041,-0.037,0.065,0.16,-0.315,0.054,-0.033,-0.015
0.039,0.002,-0.037,-0.02,0.038,-0.017,0.061,0.181,-0.287,0.076,-0.013,0.002
0.046,0.026,-0.019,-0.036,0.032,0.004,0.055,0.218,-0.258,0.108,0.01,0.021
0.052,0.06,0.007,-0.056,0.022,0.033,0.049,0.259,-0.22,0.148,0.05,0.05
0.078,0.11,0.032,-0.094,0.023,0.071,0.044,0.291,-0.182,0.188,0.086,0.08
0.099,0.162,0.063,-0.131,0.018,0.112,0.028,0.315,-0.152,0.235,0.126,0.119
0.116,0.207,0.091,-0.162,0.012,0.149,0.008,0.324,-0.119,0.274,0.179,0.151
0.131,0.248,0.117,-0.19,0.007,0.182,-0.01,0.315,-0.091,0.316,0.208,0.182
0.138,0.287,0.149,-0.212,-0.006,0.217,-0.023,0.305,-0.076,0.344,0.231,0.218
0.143,0.3,0.158,-0.222,-0.008,0.229,-0.016,0.293,-0.056,0.344,0.224,0.223
0.137,0.282,0.145,-0.21,-0.005,0.214,-0.006,0.251,-0.064,0.328,0.208,0.211
0.114,0.244,0.13,-0.179,-0.008,0.187,0.001,0.2,-0.11,0.28,0.182,0.173
0.082,0.175,0.093,-0.128,-0.006,0.133,0.017,0.148,-0.175,0.199,0.106,0.112
0.051,0.099,0.048,-0.075,0.001,0.073,0.037,0.089,-0.243,0.124,0.037,0.056
0.016,0.044,0.028,-0.03,-0.006,0.036,0.051,0.041,-0.291,0.064,-0.017,0.015
-0.017,0.003,0.02,0.007,-0.019,0.011,0.055,0.008,-0.324,0.017,-0.056,-0.018
-0.03,-0.015,0.015,0.022,-0.022,0.0,0.058,-0.01,-0.336,-0.002,-0.075,-0.04
-0.039,-0.028,0.011,0.033,-0.024,-0.008,0.06,-0.018,-0.334,-0.008,-0.084,-0.04
-0.042,-0.035,0.006,0.038,-0.024,-0.014,0.063,-0.024,-0.335,-0.018,-0.085,-0.04
-0.029,-0.028,0.001,0.028,-0.015,-0.013,0.065,-0.032,-0.334,-0.027,-0.089,-0.045
-0.027,-0.025,0.002,0.026,-0.014,-0.011,0.061,-0.04,-0.336,-0.031,-0.09,-0.045
-0.032,-0.02,0.012,0.025,-0.022,-0.004,0.057,-0.044,-0.331,-0.03,-0.09,-0.044
-0.032,-0.016,0.017,0.024,-0.024,0.0,0.054,-0.039,-0.314,-0.03,-0.09,-0.04
-0.036,-0.011,0.025,0.023,-0.03,0.006,0.05,-0.033,-0.297,-0.03,-0.09,-0.038
-0.045,-0.01,0.035,0.027,-0.04,0.013,0.046,-0.03,-0.281,-0.03,-0.09,-0.035
-0.052,-0.01,0.042,0.031,-0.047,0.016,0.043,-0.025,-0.267,-0.031,-0.09,-0.032
-0.059,-0.006,0.053,0.032,-0.056,0.024,0.04,-0.02,-0.253,-0.035,-0.086,-0.03
-0.06,-0.005,0.056,0.032,-0.057,0.026,0.036,-0.02,-0.24,-0.035,-0.085,-0.03
-0.061,-0.007,0.055,0.033,-0.057,0.024,0.033,-0.02,-0.229,-0.038,-0.085,-0.03
-0.065,-0.01,0.055,0.037,-0.06,0.022,0.028,-0.02,-0.216,-0.041,-0.085,-0.03
-0.065,-0.01,0.055,0.037,-0.06,0.022,0.025,-0.02,-0.205,-0.04,-0.085,-0.03
-0.064,-0.01,0.054,0.037,-0.059,0.022,0.025,-0.02,-0.193,-0.044,-0.086,-0.03
-0.058,-0.01,0.048,0.034,-0.053,0.018,0.025,-0.021,-0.179,-0.045,-0.09,-0.031
-0.052,-0.01,0.042,0.031,-0.047,0.016,0.025,-0.025,-0.164,-0.047,-0.09,-0.035
-0.051,-0.014,0.037,0.032,-0.044,0.012,0.025,-0.025,-0.153,-0.05,-0.09,-0.035
-0.047,-0.015,0.031,0.031,-0.039,0.008,0.025,-0.025,-0.146,-0.051,-0.09,-0.035
-0.04,-0.015,0.026,0.027,-0.032,0.005,0.024,-0.025,-0.141,-0.056,-0.09,-0.035
-0.046,-0.015,0.031,0.03,-0.038,0.008,0.018,-0.024,-0.136,-0.06,-0.094,-0.035
-0.051,-0.015,0.036,0.032,-0.043,0.011,0.011,-0.042,-0.129,-0.063,-0.095,-0.039
-0.051,-0.016,0.034,0.033,-0.042,0.009,0.004,-0.052,-0.126,-0.072,-0.095,-0.04
-0.062,-0.024,0.039,0.043,-0.05,0.007,-0.003,-0.049,-0.113,-0.074,-0.1,-0.04
-0.073,-0.033,0.04,0.053,-0.056,0.004,-0.009,-0.051,-0.093,-0.07,-0.1,-0.04
-0.071,-0.032,0.039,0.052,-0.055,0.003,-0.007,-0.05,-0.084,-0.07,-0.1,-0.04
-0.063,-0.027,0.035,0.045,-0.049,0.004,-0.004,-0.05,-0.076,-0.069,-0.1,-0.039
-0.059,-0.024,0.035,0.041,-0.046,0.005,-0.006,-0.05,-0.064,-0.08,-0.1,-0.035
-0.055,-0.021,0.034,0.038,-0.044,0.006,-0.005,-0.05,-0.05,-0.086,-0.1,-0.035
-0.045,-0.015,0.03,0.03,-0.037,0.007,-0.006,-0.05,-0.037,-0.085,-0.1,-0.035
-0.048,-0.018,0.03,0.033,-0.038,0.005,-0.004,-0.05,-0.031,-0.09,-0.1,-0.035
-0.064,-0.031,0.032,0.047,-0.048,0.0,0.0,-0.051,-0.026,-0.09,-0.103,-0.035
-0.065,-0.029,0.036,0.047,-0.051,0.003,-0.001,-0.047,-0.02,-0.094,-0.106,-0.035
-0.067,-0.026,0.041,0.046,-0.053,0.007,0.003,-0.045,-0.013,-0.095,-0.109,-0.035
-0.068,-0.024,0.044,0.045,-0.056,0.01,0.005,-0.046,-0.003,-0.095,-0.112,-0.035
-0.065,-0.02,0.046,0.042,-0.056,0.012,0.005,-0.041,0.008,-0.095,-0.115,-0.035
-0.064,-0.02,0.044,0.041,-0.054,0.012,0.009,-0.039,0.017,-0.095,-0.114,-0.036
-0.057,-0.012,0.045,0.034,-0.051,0.016,0.014,-0.039,0.025,-0.095,-0.109,-0.034
-0.052,-0.007,0.045,0.029,-0.048,0.019,0.019,-0.034,0.034,-0.095,-0.104,-0.028
-0.041,0.002,0.043,0.019,-0.042,0.022,0.022,-0.035,0.042,-0.095,-0.1,-0.022
-0.034,0.024,0.058,0.005,-0.047,0.041,0.028,-0.034,0.057,-0.088,-0.094,-0.018
-0.032,0.047,0.079,-0.008,-0.056,0.063,0.029,-0.036,0.078,-0.079,-0.091,-0.01
-0.04,0.048,0.087,-0.004,-0.063,0.067,0.024,-0.035,0.085,-0.07,-0.085,-0.008
-0.029,0.066,0.095,-0.019,-0.062,0.08,0.019,-0.033,0.096,-0.064,-0.077,0.007
-0.002,0.116,0.117,-0.057,-0.06,0.116,0.014,-0.028,0.124,-0.065,-0.08,0.03
-0.008,0.122,0.13,-0.057,-0.069,0.126,0.011,-0.021,0.128,-0.065,-0.08,0.026
-0.015,0.09,0.105,-0.038,-0.06,0.097,0.004,-0.023,0.114,-0.064,-0.084,0.017
-0.014,0.06,0.074,-0.023,-0.044,0.066,0.004,-0.009,0.102,-0.068,-0.085,0.008
-0.035,0.026,0.061,0.004,-0.048,0.044,-0.007,-0.04,0.093,-0.087,-0.092,0.001
-0.061,-0.008,0.053,0.035,-0.057,0.022,-0.005,-0.048,0.088,-0.119,-0.12,-0.01
-0.074,-0.025,0.05,0.049,-0.062,0.012,-0.017,-0.064,0.093,-0.115,-0.127,-0.012
-0.081,-0.044,0.038,0.062,-0.059,-0.003,-0.014,-0.039,0.084,-0.125,-0.135,-0.025
-0.069,-0.036,0.032,0.052,-0.05,-0.002,-0.022,-0.051,0.087,-0.115,-0.136,-0.027
-0.074,-0.057,0.018,0.065,-0.046,-0.02,0.017,-0.009,0.083,-0.13,-0.142,-0.038
-0.069,-0.086,-0.016,0.078,-0.026,-0.051,0.126,0.253,0.139,-0.133,-0.147,-0.076
0.104,0.129,0.025,-0.117,0.039,0.077,-0.129,-0.151,0.299,0.082,0.036,0.09
0.388,0.734,0.346,-0.561,0.021,0.54,-0.79,-1.185,0.486,0.619,0.625,0.622
0.438,1.112,0.674,-0.776,-0.118,0.893,-1.249,-1.706,0.655,1.069,1.048,0.997
0.163,0.578,0.415,-0.37,-0.127,0.496,-0.947,-1.239,0.299,0.466,0.491,0.559
-0.048,0.031,0.079,0.008,-0.063,0.055,-0.388,-0.563,-0.113,-0.215,-0.109,0.054
-0.068,-0.007,0.061,0.037,-0.064,0.026,-0.155,-0.244,0.03,-0.149,-0.105,0.023
-0.06,-0.019,0.04,0.039,-0.049,0.01,-0.054,-0.068,0.102,-0.144,-0.095,0.016
-0.05,-0.014,0.036,0.031,-0.042,0.011,-0.029,-0.048,0.083,-0.139,-0.1,0.014
-0.045,-0.011,0.034,0.028,-0.039,0.011,-0.018,-0.022,0.089,-0.124,-0.104,0.013
-0.04,-0.012,0.029,0.026,-0.035,0.009,-0.011,-0.003,0.07,-0.129,-0.106,0.007
-0.037,-0.008,0.029,0.022,-0.033,0.011,-0.01,0.001,0.073,-0.11,-0.096,0.016
-0.03,-0.008,0.023,0.018,-0.026,0.007,0.001,0.018,0.061,-0.117,-0.099,0.016
-0.026,0.002,0.028,0.012,-0.027,0.015,0.002,0.022,0.067,-0.1,-0.089,0.026
-0.028,0.003,0.03,0.012,-0.03,0.016,0.01,0.042,0.064,-0.1,-0.091,0.026
-0.024,0.01,0.034,0.007,-0.029,0.022,0.015,0.049,0.065,-0.089,-0.079,0.033
-0.025,0.013,0.038,0.006,-0.032,0.025,0.023,0.061,0.065,-0.085,-0.072,0.036
-0.021,0.018,0.039,0.002,-0.031,0.028,0.03,0.075,0.064,-0.078,-0.063,0.04
-0.014,0.027,0.041,-0.007,-0.028,0.034,0.033,0.095,0.075,-0.067,-0.053,0.045
-0.001,0.038,0.039,-0.018,-0.02,0.038,0.031,0.114,0.093,-0.056,-0.04,0.047
0.006,0.048,0.041,-0.027,-0.018,0.044,0.027,0.136,0.114,-0.043,-0.023,0.062
0.003,0.061,0.058,-0.032,-0.028,0.059,0.025,0.163,0.142,-0.029,-0.007,0.072
0.017,0.082,0.065,-0.05,-0.024,0.073,0.021,0.2,0.174,-0.004,0.011,0.089
0.029,0.105,0.076,-0.067,-0.024,0.091,0.021,0.242,0.203,0.031,0.031,0.11
0.045,0.137,0.093,-0.091,-0.024,0.115,0.016,0.294,0.248,0.065,0.063,0.135
0.062,0.185,0.122,-0.124,-0.03,0.153,0.005,0.342,0.294,0.103,0.107,0.179
0.087,0.232,0.145,-0.159,-0.03,0.188,-0.005,0.382,0.334,0.151,0.155,0.217
0.105,0.275,0.17,-0.19,-0.033,0.222,-0.016,0.403,0.375,0.195,0.197,0.249
0.114,0.314,0.2,-0.214,-0.043,0.257,-0.03,0.396,0.411,0.231,0.231,0.275
0.134,0.354,0.22,-0.244,-0.044,0.287,-0.048,0.389,0.434,0.261,0.269,0.301
0.134,0.375,0.241,-0.255,-0.054,0.308,-0.051,0.367,0.444,0.259,0.275,0.304
0.133,0.367,0.234,-0.25,-0.051,0.3,-0.042,0.318,0.425,0.247,0.265,0.291
0.111,0.325,0.215,-0.218,-0.052,0.27,-0.036,0.246,0.378,0.221,0.241,0.269
0.084,0.248,0.163,-0.166,-0.04,0.205,-0.029,0.167,0.316,0.147,0.167,0.218
0.062,0.173,0.111,-0.118,-0.025,0.142,-0.024,0.099,0.244,0.066,0.102,0.167
0.016,0.105,0.089,-0.06,-0.037,0.097,-0.021,0.044,0.187,0.01,0.053,0.113
-0.011,0.055,0.066,-0.022,-0.039,0.06,-0.018,-0.001,0.144,-0.037,0.011,0.081
-0.02,0.037,0.058,-0.009,-0.039,0.047,-0.013,-0.036,0.11,-0.065,-0.017,0.067
-0.022,0.031,0.053,-0.005,-0.037,0.041,-0.01,-0.049,0.103,-0.076,-0.032,0.057
-0.02,0.026,0.047,-0.003,-0.034,0.037,-0.014,-0.046,0.1,-0.085,-0.031,0.061
-0.019,0.023,0.042,-0.002,-0.031,0.032,-0.015,-0.047,0.096,-0.086,-0.03,0.06
-0.019,0.016,0.035,0.001,-0.027,0.025,-0.015,-0.051,0.092,-0.083,-0.03,0.06
-0.023,0.017,0.039,0.003,-0.031,0.028,-0.015,-0.05,0.09,-0.08,-0.03,0.06
-0.019,0.02,0.04,-0.001,-0.03,0.03,-0.015,-0.05,0.095,-0.08,-0.03,0.059
-0.019,0.026,0.045,-0.004,-0.032,0.036,-0.014,-0.05,0.098,-0.08,-0.03,0.056
-0.016,0.029,0.045,-0.007,-0.031,0.037,-0.01,-0.05,0.102,-0.08,-0.03,0.054
-0.009,0.035,0.044,-0.013,-0.027,0.039,-0.01,-0.049,0.106,-0.08,-0.03,0.053
-0.017,0.032,0.049,-0.008,-0.034,0.04,-0.011,-0.044,0.11,-0.08,-0.029,0.047
-0.023,-0.001,0.022,0.011,-0.022,0.01,0.0,-0.041,0.129,-0.08,-0.026,0.06
-0.02,0.024,0.044,-0.003,-0.032,0.034,0.006,-0.038,0.145,-0.08,-0.023,0.075
-0.02,0.048,0.068,-0.014,-0.045,0.058,0.005,-0.033,0.137,-0.085,-0.02,0.068
-0.023,0.03,0.052,-0.004,-0.038,0.041,0.005,-0.03,0.13,-0.085,-0.018,0.064
-0.023,0.03,0.053,-0.004,-0.038,0.041,0.005,-0.03,0.124,-0.086,-0.014,0.058
-0.025,0.019,0.044,0.002,-0.034,0.031,0.005,-0.03,0.116,-0.091,-0.017,0.052
-0.024,0.016,0.04,0.004,-0.033,0.028,0.002,-0.03,0.117,-0.089,-0.024,0.048
-0.016,0.02,0.035,-0.002,-0.026,0.027,-0.001,-0.03,0.12,-0.092,-0.03,0.041
-0.015,0.019,0.035,-0.003,-0.025,0.026,-0.004,-0.03,0.12,-0.096,-0.035,0.037
-0.014,0.022,0.035,-0.005,-0.025,0.028,-0.007,-0.031,0.12,-0.094,-0.035,0.031
-0.01,0.025,0.035,-0.008,-0.023,0.03,-0.01,-0.035,0.12,-0.099,-0.035,0.025
-0.009,0.026,0.035,-0.009,-0.023,0.03,-0.009,-0.034,0.12,-0.1,-0.037,0.02
-0.014,0.022,0.036,-0.005,-0.025,0.029,-0.004,-0.037,0.124,-0.1,-0.044,0.016
-0.028,0.018,0.046,0.005,-0.037,0.031,-0.006,-0.041,0.125,-0.105,-0.05,0.013
-0.031,0.012,0.043,0.009,-0.037,0.027,-0.002,-0.04,0.125,-0.105,-0.05,0.01
-0.03,0.009,0.039,0.011,-0.035,0.024,0.0,-0.044,0.125,-0.106,-0.05,0.007
-0.033,0.003,0.036,0.014,-0.035,0.019,0.0,-0.045,0.125,-0.11,-0.05,0.005
-0.031,0.0,0.031,0.015,-0.031,0.016,0.0,-0.045,0.122,-0.11,-0.052,0.003
-0.024,0.004,0.028,0.01,-0.027,0.016,0.0,-0.045,0.119,-0.11,-0.056,-0.001
-0.02,0.005,0.025,0.007,-0.023,0.015,0.0,-0.045,0.12,-0.11,-0.055,-0.003
-0.02,0.005,0.025,0.007,-0.023,0.015,0.0,-0.044,0.117,-0.11,-0.055,-0.006
-0.02,0.005,0.025,0.007,-0.023,0.015,0.0,-0.04,0.114,-0.11,-0.055,-0.009
-0.02,0.005,0.025,0.007,-0.023,0.015,0.001,-0.041,0.116,-0.11,-0.056,-0.011
-0.022,0.003,0.025,0.009,-0.024,0.013,0.005,-0.037,0.118,-0.11,-0.059,-0.015
-0.029,0.0,0.029,0.015,-0.029,0.014,0.005,-0.035,0.122,-0.105,-0.06,-0.015
-0.033,-0.003,0.03,0.018,-0.031,0.013,0.007,-0.035,0.124,-0.105,-0.06,-0.016
-0.036,-0.006,0.031,0.021,-0.033,0.012,0.011,-0.032,0.128,-0.105,-0.06,-0.02
-0.039,-0.01,0.029,0.024,-0.034,0.01,0.01,-0.028,0.13,-0.105,-0.06,-0.021
-0.041,-0.01,0.031,0.026,-0.036,0.01,0.014,-0.026,0.128,-0.106,-0.058,-0.018
-0.03,-0.001,0.029,0.016,-0.03,0.014,0.015,-0.022,0.124,-0.102,-0.055,-0.015
-0.019,0.011,0.03,0.004,-0.025,0.02,0.015,-0.021,0.118,-0.096,-0.052,-0.015
-0.021,0.032,0.053,-0.006,-0.037,0.043,0.015,-0.018,0.139,-0.089,-0.049,-0.012
-0.019,0.056,0.075,-0.019,-0.048,0.066,0.015,-0.016,0.158,-0.083,-0.045,-0.009
-0.03,0.057,0.086,-0.014,-0.058,0.071,0.014,-0.014,0.16,-0.076,-0.046,-0.011
-0.018,0.068,0.086,-0.025,-0.053,0.077,-0.013,-0.015,0.163,-0.07,-0.032,0.002
0.007,0.116,0.109,-0.062,-0.052,0.112,-0.028,-0.016,0.18,-0.075,-0.016,0.023
0.009,0.14,0.13,-0.075,-0.061,0.135,-0.023,-0.017,0.195,-0.075,-0.014,0.024
0.01,0.121,0.111,-0.066,-0.05,0.115,-0.027,-0.03,0.185,-0.075,-0.016,0.015
0.003,0.084,0.082,-0.044,-0.04,0.083,-0.018,-0.027,0.173,-0.074,-0.031,0.009
-0.024,0.039,0.063,-0.008,-0.044,0.051,-0.023,-0.047,0.149,-0.081,-0.053,0.003
-0.056,0.002,0.058,0.027,-0.057,0.03,-0.018,-0.035,0.131,-0.114,-0.074,-0.008
-0.06,-0.004,0.056,0.032,-0.057,0.026,-0.029,-0.048,0.131,-0.113,-0.074,-0.011
-0.059,-0.014,0.045,0.036,-0.052,0.015,-0.021,-0.033,0.121,-0.116,-0.082,-0.026
-0.056,-0.01,0.046,0.033,-0.051,0.018,-0.029,-0.044,0.119,-0.115,-0.075,-0.024
-0.06,-0.033,0.027,0.046,-0.043,-0.003,-0.003,-0.012,0.115,-0.118,-0.097,-0.046
-0.054,-0.07,-0.015,0.062,-0.02,-0.042,0.13,0.275,0.173,-0.116,-0.131,-0.099
0.096,0.116,0.02,-0.106,0.038,0.068,-0.08,-0.054,0.312,0.053,0.032,0.042
0.397,0.706,0.309,-0.552,0.044,0.507,-0.709,-1.093,0.5,0.568,0.595,0.555
0.49,1.143,0.653,-0.817,-0.082,0.898,-1.197,-1.707,0.673,1.03,1.055,0.968
0.19,0.665,0.475,-0.428,-0.142,0.57,-0.961,-1.307,0.355,0.497,0.551,0.584
-0.019,0.07,0.089,-0.026,-0.054,0.079,-0.389,-0.61,-0.054,-0.172,-0.077,0.058
-0.027,-0.007,0.02,0.016,-0.023,0.006,-0.134,-0.264,0.045,-0.134,-0.097,-0.014
-0.054,-0.001,0.053,0.027,-0.053,0.026,-0.041,-0.096,0.136,-0.105,-0.073,-0.017
-0.044,0.01,0.055,0.016,-0.05,0.032,-0.012,-0.068,0.124,-0.109,-0.087,-0.02
-0.039,0.016,0.055,0.011,-0.048,0.036,-0.004,-0.032,0.135,-0.1,-0.089,-0.021
-0.041,0.013,0.055,0.014,-0.048,0.034,0.005,-0.007,0.13,-0.111,-0.089,-0.027
-0.039,0.017,0.055,0.01,-0.047,0.036,0.005,-0.005,0.138,-0.1,-0.081,-0.021
-0.042,0.013,0.055,0.014,-0.049,0.034,0.016,0.009,0.133,-0.108,-0.082,-0.019
-0.043,0.016,0.06,0.013,-0.052,0.038,0.017,0.011,0.144,-0.093,-0.074,-0.011
-0.046,0.014,0.06,0.016,-0.053,0.036,0.018,0.023,0.149,-0.09,-0.074,-0.01
-0.041,0.02,0.061,0.01,-0.051,0.041,0.014,0.029,0.161,-0.079,-0.065,-0.003
-0.03,0.035,0.066,-0.003,-0.048,0.05,0.015,0.041,0.165,-0.073,-0.06,0.0
-0.011,0.053,0.064,-0.021,-0.038,0.058,0.015,0.048,0.164,-0.065,-0.052,0.005
-0.018,0.048,0.065,-0.016,-0.042,0.056,0.014,0.065,0.176,-0.056,-0.046,0.012
-0.015,0.05,0.064,-0.018,-0.04,0.057,0.017,0.088,0.191,-0.049,-0.034,0.016
0.006,0.072,0.066,-0.039,-0.031,0.069,0.02,0.118,0.212,-0.025,-0.019,0.027
0.005,0.093,0.087,-0.049,-0.041,0.09,0.02,0.144,0.225,-0.002,-0.007,0.042
0.022,0.118,0.096,-0.07,-0.037,0.107,0.023,0.178,0.249,0.015,0.012,0.056
0.033,0.136,0.103,-0.085,-0.035,0.119,0.026,0.224,0.278,0.04,0.032,0.067
0.055,0.179,0.124,-0.117,-0.035,0.151,0.026,0.267,0.312,0.071,0.059,0.088
0.078,0.224,0.146,-0.152,-0.034,0.185,0.018,0.312,0.359,0.111,0.096,0.12
0.091,0.266,0.175,-0.178,-0.042,0.22,0.001,0.345,0.393,0.155,0.138,0.155
0.114,0.319,0.204,-0.217,-0.045,0.261,-0.015,0.371,0.43,0.198,0.184,0.189
0.125,0.352,0.227,-0.239,-0.051,0.29,-0.031,0.369,0.464,0.231,0.22,0.212
0.143,0.386,0.244,-0.265,-0.051,0.315,-0.049,0.352,0.482,0.262,0.254,0.238
0.135,0.405,0.269,-0.27,-0.067,0.337,-0.063,0.339,0.487,0.286,0.273,0.251
0.126,0.393,0.267,-0.26,-0.07,0.33,-0.059,0.287,0.471,0.273,0.266,0.234
0.13,0.359,0.228,-0.245,-0.049,0.293,-0.054,0.213,0.429,0.232,0.238,0.2
0.098,0.292,0.195,-0.195,-0.049,0.243,-0.051,0.143,0.364,0.163,0.171,0.15
0.055,0.216,0.16,-0.136,-0.053,0.188,-0.046,0.073,0.293,0.08,0.102,0.099
0.02,0.153,0.132,-0.087,-0.056,0.142,-0.044,0.022,0.235,0.021,0.054,0.057
-0.004,0.11,0.114,-0.053,-0.059,0.111,-0.041,-0.019,0.195,-0.02,0.017,0.028
-0.02,0.086,0.106,-0.034,-0.063,0.096,-0.038,-0.051,0.161,-0.056,-0.016,0.019
-0.026,0.075,0.102,-0.025,-0.065,0.088,-0.035,-0.066,0.141,-0.07,-0.03,0.016
-0.024,0.071,0.096,-0.024,-0.06,0.083,-0.035,-0.075,0.137,-0.071,-0.032,0.013
-0.021,0.069,0.09,-0.024,-0.056,0.079,-0.035,-0.085,0.131,-0.075,-0.039,0.008
-0.021,0.065,0.085,-0.022,-0.054,0.075,-0.035,-0.091,0.128,-0.078,-0.045,0.005
-0.025,0.06,0.085,-0.018,-0.055,0.072,-0.035,-0.088,0.122,-0.08,-0.045,0.001
-0.023,0.062,0.085,-0.02,-0.054,0.073,-0.035,-0.099,0.119,-0.082,-0.045,-0.001
-0.017,0.068,0.085,-0.026,-0.051,0.076,-0.035,-0.102,0.132,-0.085,-0.045,0.0
-0.013,0.072,0.085,-0.03,-0.049,0.078,-0.031,-0.089,0.136,-0.085,-0.045,0.0
-0.011,0.075,0.085,-0.033,-0.048,0.08,-0.03,-0.08,0.134,-0.085,-0.047,0.0
-0.012,0.07,0.082,-0.029,-0.047,0.076,-0.03,-0.071,0.135,-0.085,-0.05,-0.001
-0.01,0.07,0.079,-0.03,-0.044,0.075,-0.025,-0.068,0.135,-0.085,-0.053,-0.005
-0.011,0.069,0.08,-0.029,-0.046,0.074,-0.025,-0.064,0.135,-0.09,-0.056,-0.005
-0.016,0.064,0.08,-0.024,-0.048,0.071,-0.024,-0.061,0.13,-0.09,-0.06,-0.008
-0.014,0.066,0.08,-0.026,-0.048,0.072,-0.019,-0.057,0.13,-0.09,-0.06,-0.01
-0.018,0.062,0.08,-0.022,-0.049,0.071,-0.016,-0.055,0.129,-0.09,-0.055,-0.01
-0.02,0.059,0.08,-0.019,-0.05,0.07,-0.013,-0.055,0.125,-0.09,-0.055,-0.01
-0.02,0.06,0.08,-0.02,-0.05,0.07,-0.008,-0.055,0.125,-0.092,-0.055,-0.01
-0.024,0.056,0.08,-0.016,-0.052,0.068,-0.005,-0.055,0.123,-0.095,-0.055,-0.01
-0.025,0.055,0.08,-0.015,-0.053,0.067,-0.009,-0.055,0.119,-0.098,-0.055,-0.01
-0.026,0.054,0.08,-0.014,-0.054,0.067,-0.01,-0.055,0.117,-0.101,-0.058,-0.01
-0.027,0.051,0.078,-0.012,-0.052,0.064,-0.01,-0.059,0.114,-0.104,-0.067,-0.011
-0.026,0.048,0.074,-0.012,-0.05,0.061,-0.01,-0.06,0.111,-0.107,-0.072,-0.02
-0.03,0.045,0.075,-0.008,-0.053,0.06,-0.01,-0.06,0.109,-0.109,-0.075,-0.03
-0.032,0.042,0.075,-0.005,-0.054,0.058,-0.009,-0.064,0.105,-0.113,-0.079,-0.04
-0.035,0.04,0.075,-0.003,-0.055,0.057,-0.005,-0.066,0.097,-0.115,-0.082,-0.046
-0.036,0.038,0.075,-0.001,-0.056,0.056,-0.003,-0.063,0.091,-0.115,-0.086,-0.048
-0.037,0.033,0.07,0.002,-0.054,0.051,0.0,-0.061,0.084,-0.118,-0.089,-0.052
-0.036,0.03,0.067,0.003,-0.051,0.048,0.003,-0.057,0.077,-0.121,-0.093,-0.054
-0.037,0.026,0.063,0.005,-0.051,0.045,0.005,-0.055,0.075,-0.119,-0.095,-0.059
-0.037,0.022,0.06,0.008,-0.049,0.041,0.008,-0.051,0.075,-0.116,-0.098,-0.06
-0.035,0.019,0.055,0.007,-0.045,0.037,0.012,-0.049,0.075,-0.113,-0.101,-0.061
-0.043,0.014,0.057,0.014,-0.051,0.036,0.018,-0.058,0.075,-0.11,-0.105,-0.064
-0.052,0.009,0.06,0.021,-0.056,0.035,0.028,-0.061,0.075,-0.108,-0.105,-0.065
-0.056,0.003,0.06,0.027,-0.058,0.031,0.026,-0.059,0.075,-0.103,-0.101,-0.065
-0.065,-0.001,0.064,0.032,-0.064,0.031,0.02,-0.06,0.068,-0.11,-0.098,-0.065
-0.076,-0.011,0.065,0.043,-0.07,0.027,0.015,-0.06,0.061,-0.118,-0.095,-0.065
-0.061,0.004,0.065,0.028,-0.063,0.034,0.009,-0.06,0.054,-0.114,-0.092,-0.064
-0.043,0.021,0.065,0.011,-0.054,0.043,0.003,-0.056,0.046,-0.115,-0.09,-0.082
-0.054,0.011,0.065,0.021,-0.06,0.038,0.001,-0.052,0.038,-0.115,-0.088,-0.094
-0.058,0.006,0.064,0.026,-0.062,0.035,0.008,-0.049,0.037,-0.115,-0.085,-0.096
-0.067,-0.001,0.066,0.034,-0.066,0.032,0.015,-0.045,0.04,-0.115,-0.082,-0.1
-0.066,-0.002,0.064,0.034,-0.065,0.031,0.021,-0.041,0.041,-0.108,-0.079,-0.093
-0.052,0.014,0.066,0.019,-0.06,0.04,0.028,-0.038,0.046,-0.1,-0.076,-0.085
-0.06,0.027,0.087,0.017,-0.074,0.057,0.033,-0.036,0.045,-0.095,-0.075,-0.077
-0.052,0.041,0.092,0.005,-0.072,0.066,0.033,-0.029,0.051,-0.084,-0.065,-0.069
-0.017,0.082,0.099,-0.033,-0.058,0.091,0.028,-0.03,0.061,-0.061,-0.048,-0.062
-0.018,0.095,0.113,-0.038,-0.066,0.104,0.027,-0.02,0.053,-0.055,-0.042,-0.06
-0.022,0.078,0.1,-0.028,-0.061,0.089,0.022,-0.024,0.045,-0.053,-0.047,-0.056
-0.02,0.054,0.074,-0.017,-0.047,0.064,0.022,-0.016,0.036,-0.062,-0.049,-0.055
-0.044,0.01,0.054,0.017,-0.049,0.031,0.018,-0.025,0.012,-0.087,-0.069,-0.075
-0.07,-0.034,0.037,0.052,-0.053,0.001,0.021,-0.047,-0.032,-0.119,-0.111,-0.107
-0.081,-0.054,0.027,0.067,-0.054,-0.014,0.02,-0.055,-0.06,-0.12,-0.109,-0.111
-0.079,-0.065,0.014,0.072,-0.046,-0.025,0.018,-0.066,-0.072,-0.121,-0.111,-0.108
-0.079,-0.072,0.007,0.075,-0.043,-0.032,0.024,-0.04,-0.073,-0.129,-0.119,-0.107
-0.07,-0.069,0.001,0.069,-0.035,-0.034,0.014,-0.066,-0.066,-0.119,-0.108,-0.101
-0.094,-0.125,-0.031,0.11,-0.031,-0.078,0.127,0.166,-0.069,-0.156,-0.168,-0.16
-0.032,-0.077,-0.045,0.054,0.007,-0.061,0.099,0.182,0.041,-0.061,-0.105,-0.124
0.243,0.374,0.131,-0.309,0.056,0.252,-0.398,-0.677,0.198,0.327,0.317,0.259
0.467,0.995,0.528,-0.731,-0.031,0.761,-1.014,-1.572,0.407,0.923,0.922,0.802
0.291,0.833,0.542,-0.563,-0.125,0.687,-1.059,-1.522,0.304,0.775,0.769,0.7
-0.028,0.121,0.149,-0.047,-0.088,0.135,-0.531,-0.82,-0.206,-0.035,0.031,0.095
-0.098,-0.105,-0.007,0.101,-0.045,-0.056,-0.16,-0.35,-0.268,-0.189,-0.151,-0.101
-0.1,-0.095,0.004,0.098,-0.052,-0.045,-0.039,-0.121,-0.111,-0.105,-0.111,-0.082
-0.114,-0.109,0.004,0.111,-0.058,-0.053,0.017,-0.038,-0.122,-0.132,-0.128,-0.096
-0.105,-0.102,0.003,0.104,-0.054,-0.049,0.045,-0.022,-0.104,-0.101,-0.102,-0.085
-0.095,-0.114,-0.019,0.105,-0.038,-0.066,0.066,0.024,-0.11,-0.117,-0.111,-0.094
-0.071,-0.106,-0.035,0.089,-0.018,-0.07,0.06,0.03,-0.101,-0.098,-0.094,-0.087
-0.07,-0.107,-0.036,0.089,-0.017,-0.071,0.068,0.046,-0.099,-0.103,-0.094,-0.086
-0.074,-0.105,-0.03,0.089,-0.021,-0.067,0.064,0.049,-0.097,-0.092,-0.082,-0.078
-0.078,-0.103,-0.025,0.091,-0.026,-0.063,0.066,0.071,-0.093,-0.084,-0.075,-0.073
-0.066,-0.1,-0.033,0.083,-0.016,-0.066,0.065,0.08,-0.097,-0.076,-0.068,-0.068
-0.058,-0.1,-0.042,0.079,-0.008,-0.071,0.067,0.086,-0.093,-0.065,-0.059,-0.062
-0.058,-0.097,-0.039,0.078,-0.009,-0.068,0.083,0.112,-0.097,-0.059,-0.051,-0.057
-0.037,-0.093,-0.056,0.065,0.01,-0.074,0.085,0.123,-0.09,-0.046,-0.039,-0.048
-0.032,-0.09,-0.058,0.061,0.013,-0.074,0.085,0.14,-0.077,-0.039,-0.03,-0.043
-0.039,-0.087,-0.047,0.063,0.004,-0.067,0.085,0.159,-0.063,-0.016,-0.015,-0.035
-0.039,-0.083,-0.044,0.061,0.003,-0.063,0.085,0.176,-0.053,0.007,-0.002,-0.03
-0.035,-0.069,-0.034,0.052,0.0,-0.051,0.085,0.207,-0.039,0.027,0.016,-0.019
-0.013,-0.042,-0.03,0.028,0.009,-0.036,0.08,0.248,-0.017,0.049,0.039,0.006
-0.006,-0.018,-0.013,0.012,0.004,-0.015,0.073,0.282,0.007,0.081,0.066,0.033
0.002,0.021,0.019,-0.012,-0.009,0.02,0.066,0.33,0.03,0.12,0.099,0.061
0.03,0.072,0.042,-0.051,-0.007,0.057,0.06,0.37,0.055,0.153,0.138,0.086
0.044,0.114,0.069,-0.079,-0.013,0.091,0.051,0.385,0.091,0.199,0.177,0.122
0.075,0.16,0.086,-0.118,-0.006,0.123,0.04,0.399,0.127,0.246,0.215,0.162
0.093,0.201,0.109,-0.147,-0.008,0.155,0.027,0.388,0.142,0.283,0.257,0.194
0.079,0.213,0.134,-0.146,-0.028,0.174,0.018,0.368,0.136,0.292,0.273,0.205
0.081,0.211,0.13,-0.146,-0.025,0.17,0.009,0.33,0.13,0.287,0.269,0.192
0.081,0.201,0.12,-0.141,-0.02,0.16,0.008,0.281,0.104,0.275,0.25,0.177
0.037,0.137,0.1,-0.087,-0.032,0.118,0.028,0.222,0.042,0.215,0.19,0.142
0.005,0.058,0.053,-0.032,-0.024,0.055,0.051,0.15,-0.029,0.135,0.114,0.088
-0.017,-0.013,0.004,0.015,-0.011,-0.004,0.076,0.1,-0.106,0.068,0.05,0.035
-0.049,-0.081,-0.031,0.065,-0.009,-0.056,0.086,0.062,-0.166,0.012,0.0,-0.004
-0.061,-0.11,-0.049,0.086,-0.005,-0.079,0.079,0.033,-0.203,-0.018,-0.027,-0.018
-0.08,-0.13,-0.05,0.105,-0.014,-0.09,0.08,0.012,-0.231,-0.033,-0.048,-0.024
-0.09,-0.14,-0.05,0.115,-0.02,-0.095,0.08,-0.001,-0.243,-0.048,-0.06,-0.031
-0.091,-0.14,-0.049,0.115,-0.021,-0.094,0.08,-0.005,-0.252,-0.05,-0.061,-0.038
-0.096,-0.14,-0.045,0.118,-0.025,-0.092,0.08,-0.01,-0.262,-0.053,-0.066,-0.044
-0.094,-0.139,-0.045,0.117,-0.025,-0.092,0.082,-0.013,-0.269,-0.055,-0.062,-0.042
-0.094,-0.141,-0.047,0.117,-0.024,-0.093,0.085,-0.019,-0.276,-0.05,-0.059,-0.036
-0.085,-0.137,-0.052,0.112,-0.016,-0.095,0.085,-0.018,-0.282,-0.051,-0.06,-0.032
-0.078,-0.132,-0.054,0.106,-0.012,-0.093,0.089,-0.011,-0.285,-0.049,-0.06,-0.027
-0.077,-0.128,-0.051,0.102,-0.013,-0.089,0.091,-0.005,-0.288,-0.045,-0.06,-0.023
-0.074,-0.123,-0.05,0.098,-0.012,-0.086,0.089,0.003,-0.291,-0.046,-0.06,-0.018
-0.069,-0.12,-0.05,0.094,-0.009,-0.085,0.086,0.009,-0.294,-0.042,-0.065,-0.015
-0.063,-0.113,-0.05,0.088,-0.006,-0.081,0.085,0.015,-0.297,-0.04,-0.065,-0.015
-0.078,-0.128,-0.05,0.103,-0.013,-0.089,0.085,0.02,-0.3,-0.04,-0.065,-0.013
-0.101,-0.15,-0.05,0.125,-0.025,-0.1,0.085,0.02,-0.302,-0.04,-0.065,-0.009
-0.101,-0.151,-0.05,0.126,-0.025,-0.101,0.085,0.021,-0.307,-0.04,-0.065,-0.011
-0.09,-0.155,-0.065,0.122,-0.012,-0.109,0.087,0.025,-0.31,-0.041,-0.067,-0.006
-0.086,-0.158,-0.071,0.122,-0.007,-0.114,0.091,0.025,-0.317,-0.045,-0.071,-0.005
-0.091,-0.16,-0.069,0.125,-0.011,-0.114,0.089,0.022,-0.328,-0.045,-0.074,-0.005
-0.085,-0.163,-0.078,0.124,-0.003,-0.12,0.09,0.02,-0.33,-0.045,-0.078,0.0
-0.078,-0.165,-0.087,0.122,0.005,-0.126,0.09,0.017,-0.329,-0.045,-0.081,0.0
-0.076,-0.169,-0.093,0.122,0.009,-0.13,0.09,0.014,-0.331,-0.045,-0.085,0.001
-0.074,-0.17,-0.096,0.123,0.011,-0.133,0.096,0.011,-0.328,-0.043,-0.085,0.005
-0.076,-0.177,-0.101,0.127,0.012,-0.139,0.093,0.01,-0.337,-0.039,-0.086,0.004
-0.083,-0.187,-0.105,0.136,0.011,-0.146,0.106,0.018,-0.35,-0.04,-0.09,0.008
-0.087,-0.192,-0.105,0.14,0.009,-0.148,0.122,0.026,-0.354,-0.04,-0.09,0.01
-0.088,-0.196,-0.109,0.142,0.011,-0.152,0.119,0.036,-0.354,-0.04,-0.09,0.01
-0.09,-0.2,-0.11,0.145,0.01,-0.155,0.12,0.038,-0.359,-0.04,-0.09,0.013
-0.087,-0.199,-0.112,0.143,0.012,-0.155,0.12,0.034,-0.367,-0.035,-0.09,0.018
-0.087,-0.203,-0.116,0.146,0.015,-0.159,0.12,0.035,-0.377,-0.035,-0.09,0.021
-0.09,-0.209,-0.119,0.15,0.014,-0.164,0.116,0.031,-0.389,-0.035,-0.09,0.025
-0.09,-0.211,-0.121,0.15,0.015,-0.166,0.115,0.029,-0.395,-0.035,-0.09,0.028
-0.089,-0.208,-0.118,0.149,0.014,-0.163,0.115,0.031,-0.401,-0.035,-0.085,0.032
-0.09,-0.217,-0.126,0.154,0.018,-0.171,0.11,0.034,-0.405,-0.032,-0.085,0.035
-0.094,-0.23,-0.136,0.163,0.021,-0.183,0.109,0.036,-0.409,-0.029,-0.085,0.035
-0.089,-0.224,-0.135,0.157,0.023,-0.179,0.112,0.035,-0.419,-0.031,-0.085,0.034
-0.083,-0.219,-0.135,0.152,0.026,-0.177,0.115,0.036,-0.423,-0.03,-0.086,0.035
-0.078,-0.213,-0.135,0.146,0.028,-0.174,0.116,0.035,-0.431,-0.031,-0.083,0.034
-0.071,-0.207,-0.135,0.139,0.032,-0.171,0.114,0.037,-0.434,-0.029,-0.076,0.039
-0.075,-0.203,-0.128,0.139,0.027,-0.166,0.121,0.045,-0.427,-0.024,-0.069,0.046
-0.079,-0.191,-0.112,0.135,0.017,-0.152,0.128,0.049,-0.42,-0.014,-0.063,0.051
-0.083,-0.184,-0.101,0.134,0.009,-0.142,0.123,0.061,-0.414,-0.011,-0.056,0.058
-0.063,-0.155,-0.091,0.109,0.014,-0.123,0.117,0.067,-0.407,0.002,-0.05,0.063
-0.034,-0.124,-0.09,0.079,0.028,-0.107,0.112,0.063,-0.4,0.034,-0.055,0.09
-0.037,-0.127,-0.09,0.082,0.027,-0.108,0.107,0.068,-0.405,0.039,-0.057,0.111
-0.031,-0.12,-0.089,0.076,0.03,-0.104,0.099,0.061,-0.414,0.029,-0.061,0.097
-0.048,-0.141,-0.093,0.094,0.023,-0.117,0.107,0.069,-0.432,0.019,-0.064,0.082
-0.084,-0.189,-0.105,0.137,0.011,-0.147,0.11,0.055,-0.464,0.013,-0.07,0.075
-0.104,-0.229,-0.125,0.167,0.011,-0.176,0.113,0.058,-0.501,-0.006,-0.091,0.067
-0.101,-0.235,-0.134,0.168,0.016,-0.184,0.107,0.045,-0.514,-0.013,-0.092,0.065
-0.096,-0.239,-0.143,0.167,0.024,-0.191,0.112,0.042,-0.529,-0.03,-0.098,0.056
-0.094,-0.23,-0.136,0.162,0.021,-0.182,0.109,0.041,-0.537,-0.035,-0.092,0.053
-0.103,-0.249,-0.147,0.176,0.022,-0.198,0.119,0.029,-0.523,-0.039,-0.106,0.045
-0.137,-0.315,-0.178,0.226,0.021,-0.246,0.245,0.32,-0.472,-0.052,-0.131,-0.001
-0.025,-0.167,-0.141,0.096,0.058,-0.154,0.111,0.172,-0.325,0.127,0.006,0.109
0.259,0.412,0.153,-0.336,0.053,0.282,-0.463,-0.782,-0.189,0.644,0.54,0.609
0.36,0.854,0.494,-0.607,-0.067,0.673,-0.95,-1.444,-0.054,1.155,1.022,1.013
0.088,0.372,0.283,-0.23,-0.098,0.327,-0.782,-1.165,-0.338,0.638,0.516,0.623
-0.114,-0.217,-0.103,0.166,-0.006,-0.16,-0.304,-0.534,-0.79,-0.124,-0.113,0.131
-0.09,-0.26,-0.17,0.176,0.04,-0.214,-0.061,-0.193,-0.708,-0.109,-0.112,0.1
-0.096,-0.229,-0.133,0.163,0.019,-0.181,0.063,-0.016,-0.6,-0.057,-0.103,0.101
-0.09,-0.212,-0.122,0.151,0.017,-0.167,0.098,0.037,-0.589,-0.037,-0.098,0.097
-0.073,-0.211,-0.138,0.142,0.033,-0.174,0.117,0.059,-0.571,-0.021,-0.088,0.103
-0.072,-0.209,-0.137,0.141,0.033,-0.173,0.139,0.081,-0.587,-0.034,-0.092,0.096
-0.073,-0.202,-0.128,0.138,0.028,-0.164,0.132,0.079,-0.578,-0.016,-0.078,0.103
-0.079,-0.202,-0.123,0.141,0.022,-0.162,0.137,0.095,-0.589,-0.026,-0.082,0.097
-0.08,-0.195,-0.115,0.138,0.018,-0.155,0.133,0.09,-0.582,-0.015,-0.071,0.103
-0.082,-0.192,-0.11,0.137,0.014,-0.151,0.136,0.088,-0.581,-0.013,-0.07,0.125
-0.08,-0.185,-0.105,0.133,0.013,-0.145,0.131,0.103,-0.574,0.002,-0.064,0.138
-0.078,-0.183,-0.105,0.131,0.014,-0.144,0.126,0.116,-0.57,0.009,-0.06,0.133
-0.075,-0.177,-0.101,0.126,0.013,-0.139,0.122,0.122,-0.566,0.021,-0.056,0.136
-0.074,-0.174,-0.1,0.124,0.013,-0.136,0.117,0.147,-0.561,0.027,-0.05,0.141
-0.06,-0.158,-0.098,0.109,0.019,-0.128,0.113,0.158,-0.554,0.038,-0.041,0.151
-0.056,-0.145,-0.089,0.101,0.017,-0.117,0.108,0.169,-0.532,0.052,-0.029,0.168
-0.063,-0.143,-0.081,0.103,0.009,-0.112,0.103,0.19,-0.503,0.066,-0.014,0.18
-0.041,-0.115,-0.074,0.078,0.017,-0.094,0.096,0.216,-0.472,0.096,0.007,0.2
-0.023,-0.08,-0.057,0.052,0.017,-0.069,0.09,0.246,-0.453,0.115,0.033,0.222
-0.012,-0.04,-0.028,0.026,0.009,-0.034,0.082,0.282,-0.421,0.143,0.062,0.245
-0.011,-0.001,0.011,0.006,-0.011,0.005,0.077,0.314,-0.376,0.189,0.099,0.28
0.007,0.04,0.033,-0.024,-0.013,0.036,0.069,0.339,-0.332,0.229,0.142,0.315
0.036,0.094,0.058,-0.065,-0.011,0.076,0.055,0.363,-0.282,0.273,0.185,0.353
0.043,0.131,0.088,-0.088,-0.023,0.11,0.038,0.357,-0.244,0.319,0.224,0.388
0.065,0.171,0.105,-0.118,-0.02,0.138,0.025,0.341,-0.22,0.34,0.254,0.414
0.065,0.194,0.129,-0.13,-0.032,0.161,0.023,0.324,-0.209,0.355,0.275,0.414
0.066,0.188,0.122,-0.127,-0.029,0.155,0.016,0.298,-0.197,0.346,0.271,0.402
0.05,0.153,0.103,-0.101,-0.027,0.128,0.018,0.261,-0.207,0.299,0.226,0.387
0.007,0.078,0.072,-0.043,-0.033,0.075,0.041,0.214,-0.266,0.232,0.157,0.343
-0.019,0.011,0.03,0.003,-0.025,0.02,0.068,0.162,-0.323,0.148,0.083,0.287
-0.044,-0.055,-0.011,0.05,-0.016,-0.033,0.09,0.11,-0.375,0.075,0.022,0.237
-0.073,-0.115,-0.042,0.094,-0.015,-0.078,0.089,0.066,-0.404,0.028,-0.011,0.2
-0.094,-0.141,-0.047,0.117,-0.024,-0.093,0.098,0.044,-0.414,-0.002,-0.036,0.181
-0.088,-0.152,-0.064,0.12,-0.012,-0.107,0.107,0.032,-0.415,-0.022,-0.057,0.179
-0.09,-0.154,-0.064,0.122,-0.012,-0.109,0.101,0.021,-0.397,-0.031,-0.06,0.18
-0.094,-0.152,-0.057,0.123,-0.018,-0.104,0.101,0.018,-0.401,-0.041,-0.06,0.18
-0.092,-0.15,-0.058,0.121,-0.017,-0.103,0.096,0.014,-0.361,-0.038,-0.06,0.18
-0.101,-0.15,-0.049,0.126,-0.026,-0.099,0.095,0.011,-0.358,-0.042,-0.06,0.18
-0.097,-0.15,-0.053,0.123,-0.022,-0.101,0.092,0.006,-0.317,-0.044,-0.06,0.18
-0.086,-0.15,-0.064,0.119,-0.011,-0.107,0.085,0.006,-0.317,-0.044,-0.059,0.179
-0.082,-0.149,-0.066,0.116,-0.008,-0.107,0.082,0.01,-0.295,-0.045,-0.056,0.191
-0.083,-0.145,-0.062,0.114,-0.01,-0.103,0.076,0.01,-0.258,-0.034,-0.055,0.201
-0.083,-0.142,-0.06,0.112,-0.011,-0.101,0.074,0.01,-0.522,-0.049,-0.055,0.202
-0.08,-0.14,-0.06,0.11,-0.01,-0.1,0.066,0.01,-0.496,-0.026,-0.055,0.205
-0.076,-0.136,-0.06,0.106,-0.008,-0.098,0.068,0.01,-0.394,-0.058,-0.055,0.208
-0.075,-0.135,-0.06,0.105,-0.007,-0.097,0.062,0.01,-0.453,-0.015,-0.057,0.21
-0.075,-0.135,-0.06,0.105,-0.007,-0.097,0.068,0.009,-0.421,-0.12,-0.061,0.206
-0.076,-0.135,-0.06,0.105,-0.007,-0.097,0.063,0.011,-0.443,-0.468,-0.06,0.204
-0.074,-0.134,-0.061,0.104,-0.006,-0.097,0.062,0.015,-0.43,-0.538,-0.06,0.205
-0.083,-0.136,-0.053,0.11,-0.015,-0.094,0.131,0.015,-0.438,-0.496,-0.06,0.204
