-0.236,-0.574,-0.338,0.405,0.052,-0.456,0.08,0.199,0.222,0.198,0.191,0.136
-0.237,-0.557,-0.32,0.398,0.042,-0.439,0.07,0.194,0.246,0.229,0.218,0.161
-0.217,-0.519,-0.302,0.368,0.043,-0.41,0.053,0.186,0.274,0.266,0.26,0.199
-0.187,-0.481,-0.295,0.334,0.054,-0.388,0.05,0.178,0.289,0.299,0.284,0.218
-0.152,-0.444,-0.292,0.298,0.07,-0.368,0.05,0.171,0.287,0.32,0.31,0.246
-0.135,-0.43,-0.295,0.283,0.08,-0.362,0.05,0.161,0.278,0.321,0.308,0.244
-0.132,-0.428,-0.296,0.281,0.082,-0.362,0.049,0.149,0.274,0.316,0.302,0.241
-0.14,-0.44,-0.3,0.29,0.08,-0.37,0.052,0.138,0.252,0.281,0.282,0.223
-0.196,-0.496,-0.3,0.346,0.052,-0.398,0.074,0.127,0.202,0.218,0.227,0.173
-0.236,-0.543,-0.307,0.39,0.036,-0.425,0.098,0.118,0.135,0.149,0.16,0.122
-0.264,-0.591,-0.327,0.428,0.032,-0.459,0.121,0.097,0.071,0.079,0.097,0.074
-0.304,-0.644,-0.34,0.475,0.018,-0.492,0.131,0.07,0.016,0.015,0.04,0.035
-0.319,-0.67,-0.351,0.495,0.016,-0.51,0.13,0.046,-0.028,-0.024,0.005,0.006
-0.324,-0.686,-0.362,0.505,0.019,-0.523,0.13,0.035,-0.057,-0.047,0.0,-0.009
-0.317,-0.693,-0.376,0.505,0.03,-0.534,0.126,0.035,-0.066,-0.056,-0.005,-0.015
-0.311,-0.692,-0.381,0.502,0.035,-0.536,0.125,0.035,-0.065,-0.054,-0.011,-0.021
-0.308,-0.687,-0.379,0.497,0.036,-0.533,0.125,0.035,-0.065,-0.058,-0.017,-0.024
-0.305,-0.682,-0.376,0.494,0.036,-0.529,0.125,0.035,-0.065,-0.06,-0.019,-0.02
-0.304,-0.678,-0.374,0.492,0.035,-0.526,0.125,0.037,-0.065,-0.06,-0.015,-0.02
-0.298,-0.673,-0.375,0.486,0.038,-0.524,0.125,0.04,-0.062,-0.057,-0.015,-0.018
-0.299,-0.669,-0.37,0.484,0.035,-0.519,0.125,0.043,-0.058,-0.052,-0.015,-0.014
-0.295,-0.665,-0.37,0.48,0.038,-0.517,0.125,0.046,-0.054,-0.049,-0.015,-0.015
-0.293,-0.661,-0.369,0.477,0.038,-0.515,0.125,0.049,-0.051,-0.046,-0.015,-0.011
-0.292,-0.657,-0.365,0.475,0.036,-0.511,0.125,0.05,-0.045,-0.041,-0.015,-0.01
-0.286,-0.651,-0.365,0.469,0.039,-0.507,0.125,0.044,-0.047,-0.041,-0.015,-0.01
-0.278,-0.645,-0.367,0.462,0.045,-0.506,0.125,0.037,-0.051,-0.045,-0.015,-0.01
-0.27,-0.64,-0.37,0.455,0.051,-0.505,0.125,0.031,-0.058,-0.046,-0.015,-0.01
-0.265,-0.634,-0.37,0.449,0.053,-0.502,0.124,0.024,-0.079,-0.049,-0.015,-0.011
-0.261,-0.631,-0.37,0.446,0.054,-0.5,0.121,0.018,-0.081,-0.05,-0.016,-0.015
-0.257,-0.628,-0.37,0.443,0.056,-0.499,0.116,0.012,-0.08,-0.053,-0.022,-0.015
-0.256,-0.625,-0.369,0.441,0.057,-0.497,0.114,0.006,-0.086,-0.058,-0.029,-0.015
-0.256,-0.622,-0.366,0.439,0.055,-0.493,0.109,-0.001,-0.084,-0.061,-0.03,-0.015
-0.257,-0.62,-0.363,0.439,0.053,-0.491,0.105,-0.007,-0.088,-0.067,-0.031,-0.014
-0.256,-0.617,-0.361,0.437,0.052,-0.488,0.105,-0.015,-0.097,-0.074,-0.037,-0.019
-0.258,-0.614,-0.357,0.436,0.05,-0.485,0.105,-0.02,-0.1,-0.075,-0.037,-0.025
-0.26,-0.615,-0.355,0.438,0.048,-0.485,0.105,-0.015,-0.104,-0.075,-0.034,-0.025
-0.262,-0.615,-0.353,0.438,0.046,-0.483,0.105,-0.007,-0.105,-0.075,-0.032,-0.034
-0.267,-0.615,-0.348,0.441,0.041,-0.482,0.105,-0.001,-0.098,-0.076,-0.028,-0.036
-0.248,-0.594,-0.345,0.422,0.049,-0.469,0.105,0.006,-0.087,-0.074,-0.026,-0.03
-0.232,-0.559,-0.327,0.396,0.048,-0.443,0.116,0.013,-0.076,-0.066,-0.023,-0.028
-0.235,-0.537,-0.302,0.386,0.034,-0.419,0.128,0.026,-0.065,-0.06,-0.017,-0.023
-0.236,-0.518,-0.282,0.377,0.023,-0.4,0.119,0.037,-0.051,-0.052,-0.007,-0.02
-0.225,-0.504,-0.28,0.364,0.028,-0.392,0.101,0.032,-0.056,-0.047,-0.001,-0.015
-0.217,-0.496,-0.279,0.357,0.031,-0.388,0.088,0.012,-0.052,-0.044,0.001,-0.007
-0.22,-0.501,-0.281,0.36,0.03,-0.391,0.084,-0.022,-0.063,-0.046,0.005,0.0
-0.22,-0.499,-0.279,0.359,0.03,-0.389,0.086,-0.034,-0.079,-0.045,0.003,0.003
-0.237,-0.517,-0.279,0.377,0.021,-0.398,0.08,-0.026,-0.083,-0.048,-0.019,-0.01
-0.273,-0.564,-0.291,0.419,0.01,-0.428,0.08,-0.034,-0.11,-0.077,-0.042,-0.029
-0.271,-0.576,-0.305,0.424,0.017,-0.44,0.08,-0.019,-0.102,-0.079,-0.046,-0.044
-0.26,-0.589,-0.329,0.425,0.034,-0.458,0.08,-0.031,-0.132,-0.112,-0.075,-0.066
-0.272,-0.59,-0.319,0.432,0.024,-0.454,0.081,-0.022,-0.106,-0.099,-0.065,-0.056
-0.255,-0.597,-0.341,0.426,0.043,-0.469,0.078,-0.035,-0.125,-0.116,-0.076,-0.063
-0.256,-0.577,-0.321,0.417,0.033,-0.449,0.088,-0.036,-0.103,-0.111,-0.076,-0.057
-0.268,-0.616,-0.348,0.442,0.04,-0.482,0.085,0.005,-0.12,-0.117,-0.078,-0.075
-0.292,-0.767,-0.475,0.53,0.091,-0.621,0.207,0.178,-0.207,-0.268,-0.247,-0.227
-0.208,-0.628,-0.42,0.418,0.106,-0.524,0.269,0.384,-0.009,-0.126,-0.14,-0.136
0.001,0.041,0.04,-0.021,-0.019,0.041,-0.118,-0.315,0.309,0.528,0.564,0.483
0.071,0.721,0.65,-0.396,-0.29,0.685,-0.544,-1.112,0.932,1.446,1.376,1.128
-0.068,0.374,0.442,-0.153,-0.255,0.408,-0.504,-1.027,0.497,0.955,0.959,0.8
-0.265,-0.382,-0.117,0.323,-0.074,-0.249,-0.19,-0.612,-0.413,-0.178,-0.029,0.042
-0.287,-0.511,-0.223,0.399,-0.032,-0.367,-0.002,-0.176,-0.202,-0.139,-0.109,-0.089
-0.246,-0.499,-0.254,0.373,0.005,-0.376,0.066,-0.034,-0.113,-0.08,-0.057,-0.064
-0.247,-0.512,-0.265,0.379,0.01,-0.388,0.119,-0.005,-0.099,-0.099,-0.076,-0.078
-0.213,-0.503,-0.29,0.359,0.039,-0.396,0.12,0.039,-0.065,-0.061,-0.048,-0.06
-0.2,-0.509,-0.309,0.355,0.055,-0.409,0.123,0.047,-0.091,-0.087,-0.068,-0.071
-0.199,-0.494,-0.295,0.346,0.048,-0.394,0.126,0.059,-0.049,-0.051,-0.044,-0.058
-0.199,-0.498,-0.299,0.349,0.05,-0.398,0.129,0.053,-0.068,-0.069,-0.056,-0.061
-0.2,-0.487,-0.287,0.344,0.044,-0.387,0.131,0.079,-0.039,-0.046,-0.041,-0.053
-0.198,-0.487,-0.288,0.343,0.045,-0.387,0.124,0.079,-0.045,-0.051,-0.04,-0.053
-0.196,-0.479,-0.283,0.339,0.044,-0.381,0.126,0.081,-0.033,-0.041,-0.034,-0.047
-0.184,-0.47,-0.286,0.327,0.051,-0.377,0.123,0.087,-0.025,-0.036,-0.027,-0.044
-0.176,-0.46,-0.284,0.319,0.054,-0.371,0.12,0.096,-0.011,-0.033,-0.024,-0.039
-0.169,-0.444,-0.275,0.307,0.053,-0.359,0.12,0.112,0.016,-0.022,-0.015,-0.028
-0.167,-0.432,-0.266,0.3,0.05,-0.349,0.117,0.122,0.034,-0.011,0.0,-0.021
-0.159,-0.412,-0.252,0.286,0.047,-0.332,0.107,0.148,0.051,0.018,0.019,-0.01
-0.127,-0.382,-0.255,0.255,0.064,-0.318,0.099,0.163,0.073,0.042,0.033,0.001
-0.119,-0.348,-0.23,0.234,0.056,-0.289,0.09,0.168,0.104,0.071,0.062,0.024
-0.105,-0.317,-0.212,0.211,0.054,-0.264,0.081,0.185,0.139,0.102,0.092,0.047
-0.072,-0.28,-0.208,0.176,0.068,-0.243,0.069,0.194,0.178,0.148,0.133,0.077
-0.069,-0.224,-0.155,0.147,0.043,-0.189,0.051,0.186,0.221,0.206,0.186,0.123
-0.047,-0.167,-0.12,0.107,0.036,-0.143,0.037,0.179,0.26,0.254,0.231,0.161
-0.016,-0.133,-0.118,0.075,0.051,-0.125,0.025,0.171,0.281,0.291,0.269,0.197
-0.006,-0.119,-0.113,0.063,0.054,-0.116,0.013,0.165,0.295,0.311,0.289,0.22
0.015,-0.094,-0.109,0.04,0.062,-0.101,0.003,0.154,0.289,0.324,0.306,0.224
0.028,-0.083,-0.11,0.028,0.069,-0.096,-0.018,0.128,0.271,0.318,0.312,0.221
0.019,-0.091,-0.11,0.036,0.065,-0.1,-0.007,0.109,0.262,0.297,0.295,0.215
-0.005,-0.113,-0.108,0.059,0.052,-0.11,0.023,0.099,0.225,0.257,0.249,0.185
-0.037,-0.167,-0.13,0.102,0.046,-0.148,0.042,0.085,0.157,0.175,0.169,0.122
-0.066,-0.226,-0.16,0.146,0.047,-0.193,0.063,0.07,0.087,0.098,0.102,0.067
-0.088,-0.281,-0.192,0.185,0.052,-0.236,0.077,0.044,0.026,0.038,0.047,0.021
-0.115,-0.323,-0.208,0.219,0.047,-0.265,0.08,0.019,-0.019,-0.011,0.001,-0.021
-0.118,-0.339,-0.221,0.229,0.052,-0.28,0.074,0.012,-0.062,-0.048,-0.03,-0.042
-0.114,-0.351,-0.238,0.233,0.062,-0.294,0.072,0.008,-0.082,-0.072,-0.052,-0.047
-0.123,-0.355,-0.231,0.239,0.054,-0.293,0.066,0.003,-0.081,-0.071,-0.055,-0.055
-0.118,-0.348,-0.23,0.233,0.056,-0.289,0.066,-0.001,-0.08,-0.07,-0.055,-0.059
-0.118,-0.345,-0.227,0.232,0.055,-0.285,0.075,-0.006,-0.079,-0.07,-0.055,-0.055
-0.115,-0.34,-0.224,0.228,0.055,-0.282,0.075,-0.009,-0.076,-0.065,-0.055,-0.055
-0.114,-0.335,-0.222,0.225,0.054,-0.278,0.074,-0.011,-0.075,-0.066,-0.055,-0.055
-0.117,-0.331,-0.214,0.225,0.049,-0.272,0.071,-0.007,-0.074,-0.064,-0.053,-0.054
-0.116,-0.326,-0.21,0.221,0.048,-0.268,0.069,-0.005,-0.07,-0.06,-0.05,-0.056
-0.117,-0.321,-0.205,0.219,0.044,-0.263,0.07,-0.005,-0.07,-0.061,-0.047,-0.052
-0.12,-0.317,-0.197,0.219,0.039,-0.257,0.07,-0.005,-0.068,-0.057,-0.044,-0.05
-0.115,-0.312,-0.197,0.214,0.042,-0.255,0.07,-0.005,-0.064,-0.055,-0.041,-0.05
-0.109,-0.309,-0.2,0.21,0.045,-0.255,0.07,-0.006,-0.066,-0.055,-0.04,-0.047
-0.115,-0.31,-0.195,0.213,0.04,-0.252,0.07,-0.009,-0.066,-0.06,-0.04,-0.044
-0.12,-0.31,-0.189,0.215,0.034,-0.249,0.07,-0.014,-0.081,-0.069,-0.04,-0.045
-0.125,-0.31,-0.185,0.217,0.03,-0.247,0.066,-0.016,-0.096,-0.073,-0.04,-0.055
-0.132,-0.31,-0.178,0.222,0.023,-0.244,0.061,-0.021,-0.095,-0.078,-0.043,-0.056
-0.133,-0.309,-0.177,0.221,0.022,-0.242,0.056,-0.024,-0.099,-0.081,-0.053,-0.054
-0.116,-0.315,-0.198,0.216,0.041,-0.256,0.053,-0.027,-0.1,-0.087,-0.059,-0.049
-0.108,-0.318,-0.21,0.213,0.051,-0.264,0.046,-0.038,-0.103,-0.094,-0.063,-0.055
-0.114,-0.315,-0.201,0.214,0.044,-0.258,0.046,-0.04,-0.109,-0.091,-0.065,-0.071
-0.112,-0.31,-0.198,0.211,0.043,-0.253,0.058,-0.04,-0.108,-0.089,-0.065,-0.07
-0.117,-0.308,-0.191,0.213,0.038,-0.249,0.06,-0.041,-0.105,-0.086,-0.065,-0.07
-0.118,-0.303,-0.184,0.211,0.033,-0.243,0.06,-0.039,-0.1,-0.085,-0.065,-0.07
-0.104,-0.3,-0.196,0.203,0.046,-0.248,0.06,-0.048,-0.098,-0.103,-0.065,-0.071
-0.109,-0.309,-0.2,0.209,0.046,-0.254,0.06,-0.054,-0.094,-0.104,-0.066,-0.068
-0.101,-0.286,-0.185,0.194,0.042,-0.235,0.061,-0.042,-0.09,-0.088,-0.06,-0.058
-0.089,-0.262,-0.173,0.176,0.042,-0.217,0.071,-0.022,-0.094,-0.081,-0.051,-0.049
-0.089,-0.243,-0.155,0.166,0.033,-0.199,0.088,-0.008,-0.096,-0.069,-0.042,-0.042
-0.074,-0.223,-0.149,0.149,0.037,-0.185,0.089,0.007,-0.094,-0.062,-0.035,-0.043
-0.071,-0.218,-0.147,0.145,0.038,-0.182,0.059,-0.009,-0.097,-0.066,-0.041,-0.048
-0.081,-0.222,-0.14,0.152,0.03,-0.181,0.02,-0.054,-0.092,-0.064,-0.041,-0.048
-0.084,-0.225,-0.141,0.155,0.029,-0.183,0.011,-0.076,-0.098,-0.072,-0.049,-0.054
-0.09,-0.22,-0.13,0.156,0.02,-0.175,0.029,-0.073,-0.091,-0.067,-0.047,-0.054
-0.119,-0.27,-0.15,0.195,0.016,-0.21,0.039,-0.076,-0.111,-0.087,-0.06,-0.059
-0.134,-0.305,-0.172,0.219,0.019,-0.239,0.042,-0.075,-0.123,-0.101,-0.081,-0.075
-0.126,-0.322,-0.196,0.224,0.035,-0.258,0.038,-0.074,-0.128,-0.105,-0.087,-0.082
-0.126,-0.337,-0.212,0.232,0.043,-0.274,0.042,-0.078,-0.139,-0.124,-0.105,-0.091
-0.115,-0.322,-0.207,0.219,0.046,-0.265,0.038,-0.059,-0.116,-0.103,-0.098,-0.09
-0.113,-0.334,-0.222,0.224,0.055,-0.278,0.043,-0.064,-0.151,-0.131,-0.123,-0.101
-0.112,-0.313,-0.2,0.213,0.044,-0.257,0.043,-0.036,-0.103,-0.1,-0.095,-0.085
-0.13,-0.406,-0.276,0.268,0.074,-0.341,0.072,0.005,-0.209,-0.217,-0.189,-0.162
-0.146,-0.503,-0.357,0.324,0.106,-0.43,0.237,0.282,-0.16,-0.285,-0.3,-0.269
0.026,-0.121,-0.147,0.047,0.087,-0.134,0.124,0.155,0.071,0.05,0.055,0.043
0.195,0.713,0.518,-0.454,-0.162,0.615,-0.365,-0.784,0.574,0.966,0.949,0.791
0.145,0.984,0.839,-0.564,-0.347,0.911,-0.604,-1.178,0.947,1.469,1.36,1.076
-0.056,0.248,0.304,-0.096,-0.18,0.276,-0.392,-0.887,-0.019,0.349,0.428,0.384
-0.182,-0.244,-0.062,0.213,-0.06,-0.153,-0.11,-0.445,-0.436,-0.286,-0.188,-0.128
-0.129,-0.226,-0.098,0.178,-0.015,-0.162,-0.011,-0.108,-0.127,-0.088,-0.08,-0.091
-0.123,-0.256,-0.133,0.189,0.006,-0.194,0.043,-0.041,-0.156,-0.136,-0.112,-0.092
-0.126,-0.265,-0.138,0.196,0.006,-0.201,0.079,-0.006,-0.077,-0.081,-0.085,-0.082
-0.125,-0.272,-0.147,0.199,0.011,-0.21,0.079,0.013,-0.107,-0.109,-0.094,-0.081
-0.135,-0.27,-0.135,0.202,0.0,-0.202,0.081,0.03,-0.087,-0.098,-0.088,-0.08
-0.132,-0.269,-0.137,0.201,0.002,-0.202,0.079,0.035,-0.084,-0.097,-0.082,-0.073
-0.142,-0.272,-0.13,0.207,-0.006,-0.201,0.081,0.037,-0.087,-0.106,-0.087,-0.076
-0.123,-0.25,-0.127,0.187,0.002,-0.189,0.078,0.044,-0.07,-0.089,-0.072,-0.066
-0.104,-0.229,-0.125,0.167,0.011,-0.177,0.075,0.05,-0.071,-0.091,-0.074,-0.062
-0.096,-0.22,-0.124,0.159,0.014,-0.171,0.071,0.061,-0.047,-0.073,-0.062,-0.053
-0.09,-0.217,-0.127,0.154,0.019,-0.172,0.068,0.068,-0.044,-0.072,-0.062,-0.048
-0.087,-0.209,-0.121,0.148,0.017,-0.165,0.063,0.088,-0.022,-0.054,-0.052,-0.041
-0.073,-0.206,-0.132,0.14,0.03,-0.169,0.061,0.101,-0.003,-0.042,-0.043,-0.035
-0.057,-0.187,-0.13,0.122,0.037,-0.158,0.055,0.105,0.016,-0.024,-0.032,-0.026
-0.051,-0.159,-0.108,0.106,0.029,-0.133,0.045,0.122,0.042,0.0,-0.018,-0.018
-0.033,-0.137,-0.104,0.086,0.035,-0.12,0.037,0.138,0.065,0.03,0.007,-0.007
-0.016,-0.108,-0.092,0.063,0.038,-0.1,0.028,0.148,0.097,0.058,0.039,0.015
0.007,-0.074,-0.081,0.033,0.044,-0.077,0.019,0.152,0.147,0.106,0.076,0.053
0.011,-0.037,-0.048,0.013,0.029,-0.042,0.004,0.146,0.191,0.163,0.128,0.087
0.018,0.0,-0.018,-0.008,0.018,-0.009,-0.012,0.144,0.232,0.206,0.173,0.123
0.046,0.04,-0.006,-0.043,0.026,0.017,-0.032,0.139,0.265,0.256,0.216,0.17
0.046,0.077,0.031,-0.062,0.007,0.054,-0.04,0.136,0.291,0.295,0.253,0.198
0.061,0.1,0.038,-0.081,0.011,0.069,-0.051,0.131,0.296,0.308,0.268,0.214
0.051,0.102,0.051,-0.077,0.0,0.076,-0.064,0.115,0.28,0.302,0.28,0.22
0.027,0.089,0.062,-0.058,-0.018,0.075,-0.055,0.099,0.272,0.297,0.282,0.205
0.039,0.082,0.043,-0.06,-0.003,0.062,-0.051,0.087,0.247,0.277,0.249,0.189
0.026,0.055,0.028,-0.04,-0.001,0.041,-0.028,0.079,0.203,0.215,0.193,0.153
0.001,-0.008,-0.009,0.004,0.005,-0.008,0.005,0.07,0.138,0.137,0.121,0.092
-0.022,-0.062,-0.04,0.043,0.009,-0.051,0.028,0.061,0.061,0.07,0.055,0.037
-0.048,-0.109,-0.061,0.079,0.007,-0.085,0.043,0.042,0.007,0.021,0.007,-0.006
-0.054,-0.152,-0.098,0.103,0.023,-0.124,0.041,0.023,-0.032,-0.026,-0.039,-0.033
-0.056,-0.168,-0.112,0.112,0.028,-0.14,0.04,0.006,-0.057,-0.059,-0.065,-0.049
-0.061,-0.17,-0.109,0.116,0.024,-0.14,0.04,-0.003,-0.061,-0.071,-0.071,-0.063
-0.059,-0.17,-0.11,0.115,0.026,-0.14,0.04,0.0,-0.06,-0.071,-0.076,-0.065
-0.06,-0.17,-0.11,0.115,0.025,-0.14,0.04,0.0,-0.06,-0.07,-0.074,-0.065
-0.06,-0.17,-0.11,0.115,0.025,-0.14,0.042,0.003,-0.06,-0.069,-0.075,-0.069
-0.064,-0.17,-0.106,0.117,0.021,-0.138,0.046,0.006,-0.06,-0.065,-0.075,-0.071
-0.065,-0.17,-0.105,0.118,0.02,-0.137,0.045,0.004,-0.059,-0.064,-0.074,-0.069
-0.065,-0.17,-0.105,0.118,0.02,-0.137,0.045,0.001,-0.055,-0.073,-0.084,-0.066
-0.065,-0.17,-0.105,0.118,0.02,-0.137,0.045,-0.002,-0.055,-0.082,-0.092,-0.063
-0.064,-0.168,-0.104,0.116,0.02,-0.135,0.045,-0.004,-0.055,-0.077,-0.087,-0.06
-0.058,-0.157,-0.1,0.108,0.021,-0.128,0.04,-0.008,-0.055,-0.075,-0.085,-0.058
-0.047,-0.148,-0.101,0.098,0.027,-0.124,0.035,-0.01,-0.055,-0.072,-0.082,-0.054
-0.052,-0.149,-0.098,0.101,0.023,-0.123,0.031,-0.012,-0.059,-0.069,-0.079,-0.058
-0.056,-0.15,-0.094,0.103,0.019,-0.122,0.026,-0.018,-0.066,-0.074,-0.084,-0.06
-0.056,-0.151,-0.096,0.104,0.02,-0.123,0.022,-0.022,-0.071,-0.077,-0.085,-0.06
-0.064,-0.155,-0.091,0.11,0.014,-0.123,0.017,-0.026,-0.08,-0.08,-0.085,-0.064
-0.07,-0.155,-0.085,0.113,0.008,-0.12,0.015,-0.031,-0.085,-0.084,-0.085,-0.065
-0.072,-0.153,-0.08,0.113,0.004,-0.116,0.015,-0.036,-0.087,-0.085,-0.085,-0.064
-0.075,-0.149,-0.074,0.113,-0.001,-0.111,0.012,-0.04,-0.09,-0.085,-0.086,-0.06
-0.082,-0.15,-0.069,0.116,-0.006,-0.109,0.009,-0.045,-0.093,-0.085,-0.09,-0.06
-0.086,-0.15,-0.064,0.118,-0.011,-0.106,0.011,-0.049,-0.098,-0.085,-0.089,-0.059
-0.092,-0.15,-0.058,0.121,-0.017,-0.103,0.014,-0.048,-0.102,-0.085,-0.092,-0.055
-0.098,-0.15,-0.053,0.124,-0.022,-0.101,0.017,-0.042,-0.105,-0.085,-0.096,-0.056
-0.092,-0.14,-0.048,0.116,-0.022,-0.094,0.02,-0.037,-0.107,-0.081,-0.095,-0.053
-0.083,-0.125,-0.042,0.104,-0.021,-0.083,0.023,-0.034,-0.112,-0.075,-0.091,-0.046
-0.076,-0.111,-0.036,0.094,-0.02,-0.073,0.025,-0.027,-0.098,-0.069,-0.079,-0.041
-0.061,-0.093,-0.032,0.077,-0.014,-0.062,0.029,-0.026,-0.074,-0.064,-0.071,-0.036
-0.037,-0.066,-0.029,0.051,-0.004,-0.047,0.042,-0.016,-0.069,-0.058,-0.062,-0.029
-0.013,-0.044,-0.031,0.028,0.009,-0.037,0.037,-0.019,-0.071,-0.056,-0.06,-0.025
-0.015,-0.039,-0.024,0.027,0.005,-0.031,-0.01,-0.061,-0.07,-0.054,-0.061,-0.019
-0.012,-0.038,-0.026,0.026,0.007,-0.032,-0.028,-0.08,-0.069,-0.05,-0.059,-0.014
-0.008,-0.031,-0.023,0.02,0.008,-0.027,-0.017,-0.081,-0.072,-0.05,-0.062,-0.007
-0.043,-0.061,-0.018,0.052,-0.012,-0.039,-0.015,-0.078,-0.076,-0.056,-0.057,-0.01
-0.066,-0.118,-0.051,0.092,-0.007,-0.084,-0.008,-0.083,-0.104,-0.093,-0.081,-0.05
-0.067,-0.134,-0.067,0.101,0.0,-0.1,-0.002,-0.077,-0.108,-0.1,-0.099,-0.071
-0.064,-0.144,-0.08,0.104,0.008,-0.112,0.0,-0.081,-0.15,-0.127,-0.122,-0.081
-0.061,-0.136,-0.075,0.098,0.007,-0.105,-0.009,-0.072,-0.131,-0.114,-0.119,-0.079
-0.069,-0.155,-0.086,0.112,0.009,-0.12,-0.025,-0.076,-0.143,-0.123,-0.125,-0.079
-0.079,-0.151,-0.073,0.115,-0.003,-0.112,-0.012,-0.078,-0.136,-0.122,-0.133,-0.083
-0.063,-0.16,-0.097,0.111,0.017,-0.128,-0.001,-0.044,-0.125,-0.117,-0.122,-0.08
-0.09,-0.328,-0.239,0.209,0.075,-0.283,0.108,0.102,-0.221,-0.289,-0.281,-0.213
-0.033,-0.249,-0.216,0.141,0.092,-0.233,0.202,0.345,-0.037,-0.197,-0.228,-0.187
0.161,0.41,0.249,-0.285,-0.044,0.329,-0.132,-0.229,0.239,0.403,0.408,0.364
0.227,1.173,0.946,-0.7,-0.36,1.059,-0.584,-1.052,0.944,1.446,1.304,1.048
0.109,0.928,0.819,-0.518,-0.355,0.873,-0.608,-1.06,0.701,1.176,1.064,0.854
-0.072,0.12,0.192,-0.024,-0.133,0.156,-0.305,-0.68,-0.378,-0.108,0.001,0.082
-0.088,-0.073,0.016,0.08,-0.052,-0.028,-0.096,-0.243,-0.251,-0.197,-0.173,-0.112
-0.045,-0.073,-0.028,0.06,-0.008,-0.051,-0.041,-0.079,-0.113,-0.098,-0.102,-0.075
-0.046,-0.094,-0.048,0.07,0.002,-0.071,0.005,-0.044,-0.121,-0.126,-0.137,-0.097
-0.015,-0.077,-0.062,0.046,0.024,-0.069,0.013,0.002,-0.056,-0.076,-0.1,-0.075
-0.024,-0.091,-0.067,0.058,0.022,-0.079,0.016,0.002,-0.1,-0.116,-0.124,-0.087
-0.034,-0.081,-0.047,0.057,0.007,-0.063,0.015,0.021,-0.053,-0.078,-0.099,-0.075
-0.039,-0.088,-0.049,0.064,0.006,-0.068,0.014,0.017,-0.079,-0.101,-0.11,-0.075
-0.05,-0.077,-0.027,0.064,-0.011,-0.052,0.016,0.028,-0.053,-0.083,-0.096,-0.065
-0.032,-0.07,-0.039,0.051,0.004,-0.054,0.014,0.023,-0.055,-0.083,-0.088,-0.059
-0.009,-0.063,-0.054,0.036,0.023,-0.058,0.016,0.032,-0.044,-0.07,-0.079,-0.053
-0.019,-0.056,-0.036,0.038,0.009,-0.046,0.014,0.049,-0.027,-0.059,-0.066,-0.045
-0.023,-0.051,-0.028,0.037,0.003,-0.039,0.016,0.056,-0.014,-0.052,-0.061,-0.042
-0.021,-0.046,-0.025,0.034,0.002,-0.035,0.014,0.07,0.007,-0.038,-0.051,-0.034
-0.009,-0.025,-0.016,0.017,0.004,-0.021,0.01,0.08,0.021,-0.03,-0.047,-0.03
0.001,-0.013,-0.014,0.006,0.008,-0.013,0.002,0.09,0.042,-0.005,-0.027,-0.023
0.009,0.004,-0.005,-0.006,0.007,-0.001,-0.003,0.103,0.071,0.025,0.001,-0.008
0.039,0.039,0.0,-0.039,0.02,0.019,-0.012,0.121,0.104,0.062,0.022,0.016
0.056,0.073,0.016,-0.065,0.02,0.044,-0.017,0.133,0.142,0.099,0.056,0.045
0.071,0.12,0.049,-0.096,0.011,0.084,-0.021,0.128,0.188,0.145,0.102,0.078
0.09,0.162,0.072,-0.126,0.009,0.117,-0.043,0.121,0.227,0.195,0.144,0.111
0.104,0.209,0.106,-0.157,-0.001,0.157,-0.055,0.115,0.275,0.247,0.195,0.151
0.124,0.247,0.122,-0.186,0.001,0.185,-0.066,0.107,0.306,0.291,0.234,0.191
0.142,0.27,0.128,-0.207,0.007,0.199,-0.071,0.102,0.315,0.317,0.269,0.216
0.135,0.277,0.142,-0.207,-0.004,0.21,-0.077,0.093,0.306,0.334,0.285,0.222
0.135,0.273,0.138,-0.204,-0.002,0.205,-0.085,0.078,0.297,0.337,0.272,0.22
0.154,0.277,0.123,-0.216,0.015,0.2,-0.07,0.065,0.288,0.312,0.268,0.218
0.124,0.239,0.115,-0.181,0.004,0.177,-0.054,0.056,0.242,0.259,0.23,0.187
0.069,0.181,0.112,-0.126,-0.022,0.147,-0.033,0.048,0.189,0.194,0.155,0.138
0.063,0.133,0.07,-0.098,-0.004,0.101,-0.002,0.04,0.124,0.123,0.087,0.079
0.042,0.082,0.041,-0.062,0.0,0.061,0.026,0.033,0.055,0.051,0.032,0.025
0.01,0.041,0.031,-0.026,-0.01,0.036,0.04,0.025,0.011,0.0,-0.014,-0.002
0.01,0.014,0.004,-0.012,0.003,0.009,0.04,0.017,-0.021,-0.031,-0.045,-0.033
0.018,0.007,-0.011,-0.013,0.015,-0.002,0.04,0.011,-0.041,-0.051,-0.064,-0.047
0.026,0.003,-0.023,-0.014,0.024,-0.01,0.035,0.003,-0.047,-0.057,-0.07,-0.044
0.003,-0.002,-0.005,-0.001,0.005,-0.003,0.035,-0.005,-0.045,-0.055,-0.07,-0.046
0.005,-0.006,-0.012,0.0,0.009,-0.009,0.034,-0.008,-0.042,-0.055,-0.07,-0.045
0.01,-0.01,-0.02,0.0,0.015,-0.015,0.03,-0.005,-0.039,-0.055,-0.07,-0.045
0.004,-0.005,-0.01,0.001,0.007,-0.007,0.03,-0.005,-0.036,-0.055,-0.07,-0.042
0.012,-0.002,-0.014,-0.005,0.013,-0.007,0.03,-0.003,-0.034,-0.055,-0.068,-0.037
0.007,0.001,-0.006,-0.004,0.006,-0.002,0.03,0.001,-0.031,-0.051,-0.065,-0.034
0.008,0.005,-0.003,-0.007,0.005,0.001,0.03,-0.001,-0.03,-0.05,-0.062,-0.031
0.003,0.009,0.006,-0.006,-0.002,0.007,0.035,0.005,-0.03,-0.05,-0.059,-0.025
-0.003,0.01,0.013,-0.004,-0.008,0.012,0.044,0.013,-0.03,-0.046,-0.055,-0.028
-0.009,0.01,0.019,-0.001,-0.014,0.014,0.045,0.009,-0.029,-0.045,-0.055,-0.044
0.001,0.01,0.009,-0.006,-0.004,0.009,0.045,0.004,-0.033,-0.046,-0.06,-0.046
0.019,0.01,-0.009,-0.014,0.014,0.0,0.045,0.001,-0.037,-0.052,-0.06,-0.044
0.0,0.01,0.011,-0.005,-0.005,0.01,0.045,-0.004,-0.041,-0.059,-0.064,-0.046
-0.012,0.009,0.021,0.001,-0.017,0.015,0.045,-0.01,-0.047,-0.064,-0.065,-0.044
0.009,0.006,-0.003,-0.007,0.005,0.002,0.041,-0.015,-0.051,-0.067,-0.067,-0.046
0.028,0.003,-0.025,-0.015,0.026,-0.011,0.04,-0.02,-0.064,-0.072,-0.072,-0.051
0.033,0.001,-0.032,-0.017,0.032,-0.016,0.04,-0.027,-0.072,-0.075,-0.075,-0.056
0.026,-0.003,-0.029,-0.012,0.028,-0.015,0.035,-0.031,-0.068,-0.075,-0.081,-0.06
0.026,-0.005,-0.031,-0.01,0.029,-0.018,0.035,-0.037,-0.072,-0.078,-0.088,-0.056
0.024,-0.005,-0.029,-0.01,0.027,-0.016,0.035,-0.039,-0.079,-0.087,-0.088,-0.055
0.026,-0.006,-0.032,-0.01,0.029,-0.019,0.035,-0.033,-0.075,-0.089,-0.081,-0.055
0.018,-0.007,-0.025,-0.005,0.022,-0.016,0.035,-0.025,-0.067,-0.081,-0.075,-0.05
0.011,-0.003,-0.013,-0.003,0.012,-0.008,0.034,-0.019,-0.061,-0.073,-0.068,-0.051
0.02,0.025,0.005,-0.023,0.008,0.015,0.045,-0.013,-0.056,-0.065,-0.06,-0.049
0.015,0.056,0.041,-0.036,-0.013,0.048,0.059,-0.005,-0.061,-0.057,-0.055,-0.043
0.022,0.068,0.046,-0.045,-0.013,0.057,0.067,-0.012,-0.061,-0.058,-0.049,-0.037
0.032,0.08,0.048,-0.056,-0.009,0.064,0.065,-0.021,-0.066,-0.061,-0.051,-0.033
0.042,0.104,0.062,-0.073,-0.01,0.083,0.024,-0.044,-0.068,-0.06,-0.048,-0.026
0.049,0.1,0.051,-0.074,-0.002,0.075,-0.019,-0.075,-0.069,-0.064,-0.045,-0.022
0.043,0.086,0.043,-0.065,-0.001,0.064,-0.02,-0.076,-0.076,-0.067,-0.045,-0.019
0.034,0.073,0.039,-0.054,-0.003,0.055,-0.016,-0.074,-0.071,-0.063,-0.05,-0.023
0.012,0.02,0.007,-0.016,0.002,0.014,-0.012,-0.084,-0.097,-0.092,-0.089,-0.056
0.015,-0.007,-0.022,-0.004,0.018,-0.014,-0.008,-0.076,-0.095,-0.096,-0.098,-0.067
0.023,-0.031,-0.054,0.004,0.039,-0.043,-0.006,-0.082,-0.128,-0.117,-0.111,-0.079
0.026,-0.026,-0.052,0.0,0.039,-0.039,0.001,-0.07,-0.121,-0.106,-0.109,-0.083
0.032,-0.024,-0.057,-0.004,0.045,-0.04,0.0,-0.069,-0.123,-0.11,-0.109,-0.081
0.017,-0.015,-0.031,-0.001,0.024,-0.023,0.013,-0.068,-0.111,-0.115,-0.114,-0.077
0.026,-0.027,-0.053,0.001,0.04,-0.04,0.01,-0.04,-0.101,-0.105,-0.109,-0.079
0.002,-0.193,-0.195,0.096,0.099,-0.194,0.115,0.098,-0.207,-0.275,-0.274,-0.223
0.044,-0.125,-0.17,0.04,0.107,-0.147,0.222,0.343,-0.038,-0.199,-0.234,-0.198
0.239,0.496,0.257,-0.368,-0.009,0.376,-0.107,-0.23,0.233,0.386,0.384,0.341
0.308,1.26,0.952,-0.784,-0.322,1.106,-0.584,-1.096,0.912,1.416,1.279,1.036
0.193,1.054,0.862,-0.624,-0.335,0.958,-0.617,-1.115,0.705,1.195,1.081,0.87
0.018,0.242,0.224,-0.13,-0.103,0.233,-0.301,-0.707,-0.361,-0.085,0.026,0.095
-0.034,0.031,0.065,0.001,-0.05,0.048,-0.082,-0.253,-0.255,-0.201,-0.169,-0.112
0.012,0.034,0.022,-0.023,-0.005,0.028,-0.01,-0.074,-0.096,-0.089,-0.085,-0.076
0.004,0.004,0.001,-0.004,0.001,0.002,0.041,-0.044,-0.114,-0.126,-0.124,-0.101
0.02,0.022,0.002,-0.021,0.008,0.012,0.046,-0.009,-0.051,-0.072,-0.087,-0.082
0.027,0.008,-0.019,-0.018,0.023,-0.006,0.043,-0.012,-0.095,-0.11,-0.111,-0.096
0.028,0.027,-0.002,-0.027,0.015,0.013,0.041,0.01,-0.051,-0.072,-0.088,-0.085
0.055,0.036,-0.019,-0.045,0.037,0.008,0.037,0.01,-0.075,-0.091,-0.099,-0.086
0.055,0.042,-0.013,-0.048,0.034,0.014,0.036,0.019,-0.053,-0.072,-0.088,-0.078
0.055,0.039,-0.016,-0.047,0.035,0.011,0.032,0.028,-0.046,-0.073,-0.083,-0.074
0.055,0.04,-0.015,-0.047,0.035,0.012,0.027,0.042,-0.024,-0.066,-0.079,-0.071
0.061,0.047,-0.014,-0.054,0.037,0.016,0.021,0.054,-0.016,-0.058,-0.07,-0.065
0.072,0.056,-0.016,-0.064,0.044,0.02,0.016,0.067,-0.018,-0.057,-0.07,-0.061
0.069,0.063,-0.007,-0.066,0.038,0.028,0.01,0.071,-0.001,-0.044,-0.059,-0.051
0.078,0.076,-0.002,-0.077,0.04,0.037,0.005,0.09,0.016,-0.03,-0.057,-0.044
0.074,0.088,0.014,-0.082,0.03,0.051,-0.001,0.107,0.039,-0.006,-0.035,-0.036
0.084,0.108,0.024,-0.096,0.03,0.066,-0.008,0.114,0.061,0.017,-0.004,-0.027
0.107,0.145,0.038,-0.126,0.034,0.091,-0.013,0.131,0.096,0.049,0.02,-0.009
0.117,0.177,0.06,-0.147,0.028,0.118,-0.022,0.142,0.135,0.08,0.052,0.019
0.135,0.217,0.082,-0.176,0.026,0.149,-0.025,0.148,0.182,0.136,0.094,0.053
0.149,0.264,0.115,-0.207,0.017,0.189,-0.039,0.145,0.228,0.196,0.147,0.091
0.156,0.31,0.154,-0.233,0.001,0.232,-0.06,0.145,0.267,0.24,0.193,0.128
0.171,0.343,0.172,-0.257,0.0,0.257,-0.072,0.145,0.299,0.281,0.231,0.166
0.205,0.373,0.168,-0.289,0.018,0.27,-0.087,0.145,0.311,0.313,0.266,0.199
0.207,0.389,0.181,-0.298,0.012,0.285,-0.088,0.129,0.3,0.329,0.286,0.216
0.2,0.397,0.197,-0.299,0.001,0.297,-0.077,0.107,0.288,0.324,0.289,0.223
0.198,0.393,0.195,-0.296,0.001,0.294,-0.068,0.095,0.278,0.308,0.273,0.206
0.167,0.352,0.184,-0.26,-0.009,0.268,-0.058,0.083,0.243,0.261,0.23,0.162
0.138,0.294,0.156,-0.216,-0.009,0.225,-0.043,0.068,0.183,0.192,0.163,0.113
0.122,0.234,0.112,-0.178,0.005,0.172,-0.026,0.051,0.116,0.115,0.093,0.062
0.099,0.185,0.086,-0.143,0.006,0.135,-0.007,0.037,0.052,0.046,0.04,0.015
0.063,0.145,0.082,-0.104,-0.01,0.113,0.006,0.023,-0.001,-0.002,-0.009,-0.022
0.043,0.116,0.072,-0.08,-0.015,0.094,0.009,0.01,-0.037,-0.042,-0.049,-0.04
0.039,0.105,0.066,-0.072,-0.014,0.086,0.014,-0.001,-0.057,-0.061,-0.066,-0.052
0.04,0.105,0.065,-0.073,-0.013,0.085,0.013,-0.015,-0.068,-0.068,-0.074,-0.061
0.04,0.105,0.065,-0.073,-0.013,0.085,0.009,-0.025,-0.077,-0.067,-0.075,-0.06
0.04,0.104,0.065,-0.073,-0.013,0.085,0.006,-0.025,-0.074,-0.064,-0.075,-0.06
0.04,0.105,0.066,-0.073,-0.014,0.086,0.002,-0.025,-0.067,-0.065,-0.075,-0.06
0.041,0.104,0.064,-0.073,-0.012,0.084,0.0,-0.025,-0.063,-0.06,-0.075,-0.06
0.03,0.1,0.071,-0.066,-0.021,0.085,0.004,-0.025,-0.056,-0.06,-0.074,-0.058
0.014,0.1,0.086,-0.057,-0.036,0.093,0.009,-0.025,-0.052,-0.06,-0.07,-0.055
0.023,0.1,0.077,-0.062,-0.027,0.088,0.008,-0.02,-0.053,-0.06,-0.07,-0.055
0.026,0.1,0.074,-0.063,-0.024,0.087,0.002,-0.02,-0.057,-0.06,-0.068,-0.055
0.033,0.099,0.065,-0.066,-0.016,0.082,-0.003,-0.019,-0.059,-0.06,-0.065,-0.055
0.039,0.106,0.066,-0.073,-0.014,0.086,-0.006,-0.015,-0.062,-0.06,-0.065,-0.055
0.012,0.11,0.098,-0.061,-0.043,0.104,-0.012,-0.015,-0.065,-0.06,-0.069,-0.06
0.009,0.103,0.094,-0.056,-0.043,0.098,-0.015,-0.017,-0.066,-0.064,-0.07,-0.06
0.022,0.099,0.077,-0.061,-0.028,0.088,-0.01,-0.025,-0.07,-0.069,-0.07,-0.061
0.016,0.093,0.077,-0.055,-0.031,0.084,-0.01,-0.029,-0.061,-0.073,-0.07,-0.065
0.014,0.087,0.073,-0.051,-0.03,0.08,-0.01,-0.035,-0.074,-0.076,-0.071,-0.064
0.008,0.085,0.077,-0.047,-0.035,0.081,-0.01,-0.043,-0.099,-0.082,-0.077,-0.067
0.021,0.085,0.063,-0.053,-0.021,0.074,-0.011,-0.039,-0.1,-0.089,-0.085,-0.071
0.056,0.085,0.029,-0.071,0.013,0.057,-0.007,-0.053,-0.104,-0.09,-0.09,-0.07
0.051,0.084,0.033,-0.068,0.009,0.058,-0.005,-0.068,-0.106,-0.091,-0.09,-0.07
0.05,0.086,0.036,-0.068,0.006,0.061,-0.005,-0.062,-0.112,-0.097,-0.09,-0.07
0.064,0.083,0.02,-0.074,0.022,0.051,-0.005,-0.061,-0.12,-0.104,-0.09,-0.07
0.067,0.081,0.015,-0.074,0.026,0.048,-0.005,-0.057,-0.115,-0.102,-0.091,-0.07
0.072,0.074,0.002,-0.073,0.034,0.038,-0.005,-0.055,-0.106,-0.095,-0.09,-0.068
0.076,0.083,0.007,-0.079,0.034,0.044,0.006,-0.052,-0.094,-0.088,-0.08,-0.065
0.09,0.129,0.039,-0.11,0.025,0.084,0.021,-0.038,-0.079,-0.076,-0.07,-0.061
0.087,0.145,0.058,-0.116,0.014,0.101,0.03,-0.03,-0.064,-0.06,-0.059,-0.06
0.095,0.152,0.057,-0.123,0.019,0.104,0.03,-0.02,-0.066,-0.055,-0.052,-0.043
0.125,0.176,0.051,-0.151,0.037,0.113,0.0,-0.042,-0.065,-0.055,-0.048,-0.028
0.12,0.165,0.045,-0.143,0.037,0.105,-0.048,-0.081,-0.066,-0.054,-0.045,-0.032
0.12,0.157,0.037,-0.139,0.041,0.097,-0.05,-0.088,-0.087,-0.056,-0.041,-0.037
0.119,0.147,0.028,-0.133,0.045,0.088,-0.026,-0.082,-0.081,-0.056,-0.045,-0.04
0.067,0.083,0.016,-0.076,0.026,0.049,-0.025,-0.088,-0.105,-0.092,-0.088,-0.06
0.05,0.063,0.013,-0.056,0.018,0.038,-0.025,-0.083,-0.105,-0.097,-0.1,-0.069
0.065,0.066,0.001,-0.066,0.031,0.033,-0.026,-0.086,-0.13,-0.119,-0.112,-0.086
0.061,0.062,0.0,-0.061,0.03,0.031,-0.024,-0.084,-0.138,-0.128,-0.119,-0.098
0.073,0.061,-0.011,-0.067,0.042,0.025,-0.026,-0.073,-0.127,-0.12,-0.108,-0.09
0.055,0.056,0.001,-0.056,0.027,0.028,-0.023,-0.082,-0.151,-0.145,-0.126,-0.103
0.051,0.055,0.003,-0.053,0.024,0.029,-0.027,-0.058,-0.113,-0.106,-0.103,-0.085
0.043,-0.078,-0.121,0.018,0.082,-0.1,0.049,0.023,-0.228,-0.26,-0.241,-0.2
0.072,-0.088,-0.161,0.008,0.117,-0.124,0.194,0.311,-0.11,-0.264,-0.291,-0.264
0.249,0.41,0.161,-0.33,0.044,0.285,-0.034,-0.036,0.129,0.185,0.195,0.173
0.368,1.243,0.875,-0.806,-0.254,1.059,-0.537,-0.986,0.736,1.194,1.126,0.928
0.288,1.3,1.013,-0.794,-0.363,1.156,-0.675,-1.187,0.852,1.363,1.246,1.005
0.09,0.481,0.391,-0.286,-0.151,0.436,-0.392,-0.825,-0.23,0.098,0.197,0.224
0.006,0.124,0.118,-0.065,-0.056,0.121,-0.135,-0.359,-0.357,-0.252,-0.198,-0.141
0.028,0.126,0.098,-0.077,-0.035,0.112,-0.044,-0.101,-0.095,-0.089,-0.076,-0.092
0.033,0.092,0.059,-0.063,-0.013,0.075,0.0,-0.061,-0.138,-0.154,-0.121,-0.119
0.048,0.112,0.065,-0.08,-0.009,0.088,0.002,-0.016,-0.056,-0.087,-0.087,-0.097
0.058,0.107,0.049,-0.083,0.004,0.078,0.005,-0.019,-0.103,-0.125,-0.106,-0.105
0.073,0.125,0.052,-0.099,0.01,0.089,0.01,0.001,-0.068,-0.094,-0.091,-0.098
0.073,0.117,0.044,-0.095,0.015,0.08,0.013,0.003,-0.083,-0.103,-0.096,-0.095
0.081,0.121,0.04,-0.101,0.021,0.08,0.015,0.011,-0.075,-0.094,-0.092,-0.088
0.072,0.119,0.048,-0.096,0.012,0.083,0.009,0.019,-0.069,-0.086,-0.082,-0.079
0.063,0.122,0.059,-0.093,0.002,0.09,0.011,0.023,-0.061,-0.084,-0.083,-0.076
0.083,0.144,0.062,-0.113,0.01,0.103,0.01,0.032,-0.038,-0.071,-0.071,-0.066
0.08,0.145,0.065,-0.113,0.007,0.105,0.01,0.038,-0.035,-0.069,-0.071,-0.063
0.08,0.144,0.064,-0.113,0.007,0.104,0.01,0.054,-0.013,-0.049,-0.062,-0.052
0.08,0.146,0.066,-0.114,0.006,0.106,0.005,0.071,-0.001,-0.04,-0.054,-0.045
0.097,0.16,0.063,-0.129,0.017,0.111,-0.003,0.086,0.018,-0.018,-0.04,-0.036
0.108,0.184,0.075,-0.146,0.016,0.129,-0.011,0.102,0.041,0.005,-0.028,-0.025
0.109,0.205,0.096,-0.157,0.006,0.15,-0.018,0.12,0.073,0.035,-0.006,-0.01
0.135,0.238,0.103,-0.187,0.016,0.17,-0.027,0.137,0.109,0.073,0.035,0.015
0.146,0.282,0.136,-0.214,0.005,0.209,-0.033,0.155,0.149,0.112,0.072,0.048
0.16,0.311,0.152,-0.236,0.004,0.231,-0.048,0.159,0.198,0.169,0.119,0.087
0.189,0.362,0.173,-0.276,0.008,0.267,-0.062,0.15,0.244,0.228,0.179,0.13
0.21,0.402,0.193,-0.306,0.008,0.298,-0.083,0.141,0.276,0.265,0.222,0.165
0.226,0.426,0.199,-0.326,0.013,0.312,-0.105,0.132,0.285,0.294,0.246,0.191
0.238,0.452,0.213,-0.345,0.012,0.332,-0.105,0.123,0.288,0.308,0.262,0.212
0.245,0.454,0.21,-0.35,0.017,0.332,-0.106,0.113,0.279,0.312,0.271,0.212
0.254,0.457,0.203,-0.356,0.025,0.329,-0.096,0.096,0.267,0.297,0.261,0.199
0.236,0.435,0.199,-0.336,0.018,0.317,-0.081,0.081,0.241,0.254,0.227,0.182
0.193,0.378,0.185,-0.285,0.004,0.281,-0.064,0.07,0.184,0.19,0.164,0.14
0.166,0.311,0.145,-0.238,0.01,0.228,-0.037,0.061,0.121,0.114,0.091,0.075
0.146,0.264,0.118,-0.205,0.014,0.191,-0.029,0.044,0.05,0.048,0.03,0.02
0.117,0.226,0.109,-0.171,0.004,0.167,-0.03,0.017,-0.008,-0.003,-0.019,-0.02
0.082,0.185,0.103,-0.134,-0.011,0.144,-0.03,0.002,-0.044,-0.046,-0.053,-0.049
0.064,0.17,0.106,-0.117,-0.021,0.138,-0.03,-0.009,-0.068,-0.071,-0.076,-0.054
0.063,0.163,0.101,-0.113,-0.019,0.132,-0.03,-0.02,-0.077,-0.077,-0.083,-0.064
0.055,0.155,0.1,-0.105,-0.023,0.127,-0.027,-0.024,-0.076,-0.075,-0.08,-0.077
0.047,0.147,0.099,-0.097,-0.026,0.123,-0.024,-0.031,-0.075,-0.075,-0.08,-0.074
0.057,0.152,0.095,-0.105,-0.02,0.124,-0.021,-0.034,-0.074,-0.072,-0.08,-0.075
0.061,0.155,0.094,-0.109,-0.017,0.125,-0.018,-0.029,-0.07,-0.07,-0.08,-0.075
0.066,0.155,0.088,-0.111,-0.011,0.121,-0.015,-0.026,-0.07,-0.07,-0.08,-0.075
0.058,0.155,0.097,-0.107,-0.02,0.125,-0.015,-0.023,-0.068,-0.067,-0.077,-0.072
0.044,0.155,0.111,-0.099,-0.034,0.133,-0.015,-0.018,-0.064,-0.064,-0.074,-0.069
0.057,0.175,0.118,-0.116,-0.03,0.146,-0.015,-0.015,-0.065,-0.061,-0.071,-0.066
0.06,0.178,0.118,-0.119,-0.029,0.148,-0.015,-0.019,-0.065,-0.059,-0.069,-0.063
0.057,0.17,0.112,-0.114,-0.028,0.141,-0.015,-0.026,-0.065,-0.055,-0.065,-0.06
0.059,0.166,0.107,-0.113,-0.024,0.137,-0.015,-0.032,-0.066,-0.056,-0.066,-0.061
0.055,0.159,0.104,-0.108,-0.024,0.131,-0.019,-0.038,-0.069,-0.065,-0.071,-0.066
0.056,0.155,0.099,-0.106,-0.021,0.127,-0.02,-0.044,-0.074,-0.071,-0.074,-0.065
0.057,0.15,0.093,-0.104,-0.018,0.121,-0.021,-0.049,-0.077,-0.07,-0.076,-0.065
0.041,0.145,0.104,-0.093,-0.032,0.124,-0.026,-0.054,-0.085,-0.07,-0.073,-0.065
0.028,0.14,0.112,-0.084,-0.042,0.126,-0.024,-0.057,-0.089,-0.076,-0.087,-0.065
0.028,0.137,0.109,-0.082,-0.041,0.122,-0.028,-0.062,-0.094,-0.084,-0.102,-0.068
0.019,0.13,0.111,-0.075,-0.046,0.12,-0.03,-0.065,-0.107,-0.096,-0.099,-0.071
0.027,0.137,0.11,-0.082,-0.042,0.123,-0.03,-0.065,-0.111,-0.101,-0.1,-0.074
0.038,0.147,0.108,-0.093,-0.036,0.127,-0.033,-0.065,-0.109,-0.099,-0.1,-0.076
0.019,0.144,0.124,-0.082,-0.053,0.134,-0.036,-0.065,-0.11,-0.1,-0.1,-0.08
0.008,0.146,0.138,-0.077,-0.066,0.142,-0.034,-0.061,-0.104,-0.094,-0.097,-0.079
0.006,0.143,0.137,-0.075,-0.066,0.14,-0.035,-0.051,-0.098,-0.088,-0.092,-0.073
0.001,0.144,0.143,-0.073,-0.071,0.143,-0.033,-0.044,-0.091,-0.081,-0.088,-0.067
0.028,0.174,0.146,-0.102,-0.059,0.16,-0.02,-0.035,-0.083,-0.074,-0.082,-0.061
0.053,0.2,0.147,-0.127,-0.047,0.174,-0.008,-0.031,-0.083,-0.068,-0.079,-0.056
0.022,0.193,0.172,-0.108,-0.075,0.182,0.01,-0.037,-0.084,-0.061,-0.069,-0.051
0.027,0.205,0.179,-0.116,-0.076,0.192,-0.003,-0.031,-0.086,-0.061,-0.069,-0.049
0.064,0.234,0.17,-0.149,-0.053,0.202,-0.049,-0.055,-0.083,-0.057,-0.07,-0.045
0.062,0.227,0.165,-0.144,-0.052,0.196,-0.074,-0.092,-0.086,-0.057,-0.07,-0.044
0.049,0.209,0.16,-0.129,-0.055,0.184,-0.067,-0.091,-0.083,-0.052,-0.069,-0.039
0.025,0.177,0.152,-0.101,-0.064,0.164,-0.058,-0.088,-0.087,-0.068,-0.075,-0.045
0.013,0.144,0.131,-0.079,-0.059,0.137,-0.05,-0.094,-0.121,-0.104,-0.103,-0.067
0.03,0.134,0.104,-0.083,-0.038,0.119,-0.042,-0.087,-0.113,-0.103,-0.103,-0.075
0.033,0.111,0.078,-0.072,-0.023,0.094,-0.04,-0.102,-0.141,-0.143,-0.121,-0.089
0.019,0.113,0.094,-0.066,-0.038,0.103,-0.032,-0.088,-0.119,-0.127,-0.11,-0.082
0.022,0.096,0.074,-0.059,-0.027,0.085,-0.036,-0.101,-0.141,-0.134,-0.118,-0.092
0.006,0.104,0.098,-0.055,-0.046,0.1,-0.021,-0.086,-0.125,-0.126,-0.114,-0.088
0.011,0.064,0.053,-0.038,-0.021,0.059,-0.034,-0.048,-0.131,-0.123,-0.116,-0.091
0.007,-0.09,-0.098,0.042,0.053,-0.094,0.074,0.093,-0.222,-0.286,-0.295,-0.245
0.056,-0.001,-0.057,-0.028,0.056,-0.029,0.173,0.335,-0.036,-0.182,-0.22,-0.196
0.269,0.647,0.379,-0.458,-0.056,0.513,-0.191,-0.285,0.25,0.436,0.435,0.389
0.35,1.391,1.041,-0.871,-0.346,1.216,-0.629,-1.103,0.9,1.385,1.3,1.069
0.211,1.093,0.881,-0.652,-0.335,0.987,-0.622,-1.08,0.564,1.006,0.983,0.816
0.021,0.314,0.293,-0.167,-0.136,0.303,-0.31,-0.683,-0.403,-0.143,-0.029,0.044
-0.03,0.141,0.171,-0.056,-0.101,0.156,-0.119,-0.238,-0.234,-0.175,-0.151,-0.123
0.015,0.138,0.123,-0.076,-0.054,0.13,-0.062,-0.068,-0.12,-0.103,-0.095,-0.091
0.009,0.115,0.106,-0.062,-0.049,0.11,-0.01,-0.028,-0.118,-0.114,-0.117,-0.108
0.021,0.119,0.098,-0.07,-0.039,0.108,-0.012,0.002,-0.069,-0.075,-0.087,-0.088
0.029,0.111,0.082,-0.07,-0.027,0.096,-0.006,-0.001,-0.101,-0.106,-0.107,-0.097
0.035,0.118,0.083,-0.077,-0.025,0.1,-0.004,0.022,-0.06,-0.072,-0.084,-0.085
0.04,0.112,0.072,-0.077,-0.017,0.092,-0.001,0.03,-0.081,-0.091,-0.095,-0.085
0.045,0.116,0.071,-0.081,-0.014,0.093,0.001,0.041,-0.055,-0.073,-0.083,-0.076
0.056,0.118,0.062,-0.087,-0.003,0.09,-0.006,0.041,-0.059,-0.077,-0.084,-0.073
0.067,0.126,0.06,-0.097,0.003,0.093,-0.007,0.038,-0.049,-0.069,-0.081,-0.066
0.082,0.13,0.048,-0.106,0.017,0.089,-0.013,0.045,-0.039,-0.064,-0.076,-0.061
0.081,0.152,0.071,-0.117,0.004,0.111,-0.015,0.067,-0.027,-0.063,-0.077,-0.056
0.076,0.166,0.09,-0.121,-0.007,0.128,-0.019,0.071,0.001,-0.047,-0.068,-0.046
0.077,0.163,0.086,-0.12,-0.005,0.124,-0.022,0.088,0.019,-0.028,-0.049,-0.039
0.083,0.177,0.094,-0.13,-0.006,0.135,-0.026,0.108,0.03,-0.011,-0.026,-0.031
0.099,0.194,0.095,-0.147,0.002,0.144,-0.029,0.118,0.054,0.01,-0.009,-0.023
0.124,0.223,0.099,-0.174,0.012,0.16,-0.034,0.135,0.086,0.046,0.014,-0.003
0.138,0.253,0.115,-0.196,0.012,0.184,-0.048,0.15,0.123,0.081,0.042,0.023
0.168,0.305,0.137,-0.237,0.015,0.221,-0.056,0.164,0.169,0.127,0.09,0.059
0.194,0.351,0.157,-0.272,0.018,0.254,-0.066,0.159,0.211,0.183,0.136,0.099
0.206,0.377,0.171,-0.291,0.017,0.273,-0.092,0.154,0.246,0.227,0.177,0.132
0.234,0.418,0.184,-0.326,0.024,0.301,-0.102,0.148,0.273,0.265,0.221,0.171
0.241,0.437,0.197,-0.339,0.022,0.317,-0.107,0.143,0.283,0.293,0.249,0.199
0.236,0.445,0.209,-0.341,0.013,0.327,-0.119,0.136,0.273,0.301,0.263,0.205
0.244,0.451,0.207,-0.348,0.019,0.329,-0.11,0.118,0.268,0.303,0.267,0.195
0.246,0.438,0.192,-0.342,0.027,0.315,-0.1,0.105,0.26,0.29,0.26,0.185
0.223,0.406,0.183,-0.315,0.02,0.294,-0.09,0.094,0.233,0.247,0.224,0.173
0.192,0.353,0.162,-0.272,0.015,0.257,-0.058,0.082,0.175,0.18,0.159,0.131
0.159,0.296,0.137,-0.228,0.01,0.216,-0.036,0.073,0.11,0.107,0.089,0.072
0.126,0.243,0.117,-0.184,0.004,0.18,-0.033,0.053,0.057,0.04,0.027,0.024
0.084,0.188,0.104,-0.136,-0.011,0.146,-0.029,0.033,0.002,-0.008,-0.022,-0.013
0.056,0.156,0.1,-0.106,-0.023,0.128,-0.025,0.026,-0.04,-0.044,-0.053,-0.042
0.059,0.154,0.095,-0.107,-0.018,0.125,-0.022,0.021,-0.058,-0.063,-0.064,-0.051
0.063,0.155,0.092,-0.109,-0.015,0.123,-0.018,0.016,-0.06,-0.065,-0.066,-0.054
0.072,0.157,0.085,-0.115,-0.007,0.121,-0.015,0.01,-0.06,-0.07,-0.069,-0.052
0.073,0.161,0.088,-0.117,-0.007,0.124,-0.015,0.006,-0.06,-0.067,-0.07,-0.049
0.07,0.159,0.09,-0.114,-0.01,0.125,-0.015,0.01,-0.06,-0.064,-0.07,-0.05
0.071,0.157,0.086,-0.115,-0.008,0.121,-0.015,0.015,-0.06,-0.066,-0.07,-0.05
0.07,0.154,0.083,-0.112,-0.007,0.118,-0.015,0.019,-0.058,-0.064,-0.07,-0.05
0.071,0.151,0.08,-0.111,-0.005,0.116,-0.015,0.023,-0.054,-0.066,-0.07,-0.05
0.07,0.148,0.078,-0.109,-0.004,0.113,-0.015,0.029,-0.05,-0.063,-0.07,-0.05
0.071,0.145,0.074,-0.109,-0.002,0.11,-0.015,0.028,-0.047,-0.06,-0.07,-0.05
0.065,0.144,0.078,-0.105,-0.007,0.111,-0.015,0.021,-0.042,-0.06,-0.07,-0.05
0.058,0.139,0.081,-0.099,-0.011,0.11,-0.015,0.014,-0.04,-0.058,-0.07,-0.05
0.056,0.136,0.08,-0.096,-0.012,0.107,-0.016,0.007,-0.05,-0.055,-0.07,-0.05
0.053,0.132,0.08,-0.093,-0.014,0.106,-0.024,0.001,-0.062,-0.055,-0.07,-0.053
0.048,0.128,0.081,-0.088,-0.016,0.104,-0.032,-0.005,-0.065,-0.059,-0.07,-0.056
0.048,0.125,0.077,-0.086,-0.015,0.101,-0.035,-0.01,-0.066,-0.066,-0.069,-0.059
0.052,0.122,0.069,-0.087,-0.009,0.095,-0.035,-0.014,-0.08,-0.071,-0.076,-0.062
0.057,0.119,0.062,-0.088,-0.003,0.09,-0.035,-0.016,-0.086,-0.074,-0.081,-0.065
0.061,0.116,0.055,-0.088,0.002,0.085,-0.035,-0.021,-0.084,-0.078,-0.08,-0.064
0.066,0.113,0.048,-0.09,0.009,0.08,-0.035,-0.024,-0.086,-0.083,-0.08,-0.06
0.071,0.11,0.039,-0.091,0.016,0.074,-0.033,-0.028,-0.085,-0.085,-0.08,-0.06
0.06,0.11,0.05,-0.085,0.005,0.08,-0.03,-0.03,-0.085,-0.085,-0.08,-0.06
0.046,0.11,0.064,-0.078,-0.009,0.087,-0.027,-0.031,-0.085,-0.085,-0.074,-0.06
0.052,0.109,0.058,-0.081,-0.003,0.084,-0.025,-0.036,-0.085,-0.086,-0.068,-0.06
0.053,0.11,0.057,-0.082,-0.002,0.083,-0.02,-0.033,-0.087,-0.085,-0.061,-0.057
0.054,0.108,0.054,-0.082,0.0,0.081,-0.021,-0.032,-0.081,-0.086,-0.055,-0.054
0.074,0.127,0.053,-0.101,0.01,0.09,-0.013,-0.023,-0.073,-0.077,-0.046,-0.05
0.066,0.147,0.08,-0.107,-0.007,0.113,-0.001,0.001,-0.062,-0.058,-0.049,-0.047
0.058,0.155,0.097,-0.107,-0.02,0.126,0.012,0.02,-0.046,-0.046,-0.06,-0.044
0.068,0.173,0.105,-0.121,-0.018,0.139,0.02,0.018,-0.051,-0.042,-0.06,-0.045
0.072,0.184,0.111,-0.128,-0.02,0.147,-0.03,-0.021,-0.051,-0.039,-0.06,-0.045
0.088,0.173,0.085,-0.131,0.001,0.129,-0.064,-0.05,-0.048,-0.04,-0.059,-0.044
0.085,0.166,0.081,-0.125,0.002,0.123,-0.051,-0.051,-0.068,-0.041,-0.062,-0.046
0.051,0.152,0.101,-0.101,-0.025,0.126,-0.044,-0.048,-0.066,-0.04,-0.057,-0.043
0.023,0.107,0.084,-0.065,-0.031,0.095,-0.032,-0.053,-0.088,-0.078,-0.077,-0.057
0.026,0.09,0.064,-0.058,-0.019,0.077,-0.029,-0.047,-0.09,-0.098,-0.091,-0.07
0.028,0.081,0.053,-0.055,-0.013,0.067,-0.031,-0.052,-0.117,-0.114,-0.1,-0.08
0.028,0.082,0.054,-0.055,-0.013,0.068,-0.025,-0.039,-0.118,-0.097,-0.093,-0.081
0.034,0.069,0.036,-0.052,-0.001,0.053,-0.027,-0.034,-0.124,-0.096,-0.095,-0.085
0.023,0.07,0.047,-0.047,-0.013,0.059,-0.021,-0.031,-0.116,-0.09,-0.097,-0.091
0.034,0.05,0.016,-0.042,0.009,0.033,-0.025,-0.002,-0.101,-0.09,-0.097,-0.087
0.011,-0.114,-0.125,0.052,0.068,-0.119,0.08,0.118,-0.192,-0.257,-0.258,-0.214
0.066,-0.06,-0.126,-0.003,0.096,-0.093,0.194,0.381,-0.029,-0.19,-0.23,-0.208
0.258,0.542,0.284,-0.4,-0.014,0.413,-0.11,-0.139,0.231,0.355,0.358,0.327
0.371,1.306,0.936,-0.839,-0.283,1.121,-0.573,-1.009,0.862,1.34,1.255,1.048
0.26,1.123,0.863,-0.692,-0.302,0.993,-0.621,-1.065,0.68,1.151,1.084,0.902
0.039,0.32,0.281,-0.18,-0.121,0.3,-0.324,-0.695,-0.337,-0.069,0.035,0.118
0.005,0.11,0.105,-0.058,-0.05,0.107,-0.11,-0.241,-0.25,-0.196,-0.165,-0.108
0.044,0.121,0.077,-0.082,-0.017,0.098,-0.045,-0.035,-0.081,-0.084,-0.075,-0.071
0.045,0.094,0.049,-0.069,-0.002,0.071,-0.004,-0.013,-0.105,-0.119,-0.111,-0.095
0.062,0.112,0.05,-0.087,0.005,0.081,0.008,0.026,-0.043,-0.067,-0.073,-0.073
0.064,0.099,0.035,-0.082,0.014,0.067,0.026,0.032,-0.081,-0.102,-0.095,-0.085
0.075,0.111,0.036,-0.093,0.019,0.073,0.027,0.052,-0.039,-0.065,-0.071,-0.076
0.085,0.108,0.023,-0.097,0.031,0.065,0.024,0.056,-0.057,-0.081,-0.079,-0.074
0.09,0.11,0.021,-0.1,0.035,0.065,0.026,0.068,-0.036,-0.063,-0.068,-0.065
0.074,0.11,0.036,-0.092,0.019,0.073,0.024,0.085,-0.037,-0.06,-0.063,-0.059
0.062,0.109,0.047,-0.086,0.007,0.077,0.026,0.097,-0.026,-0.053,-0.06,-0.053
0.069,0.113,0.044,-0.091,0.012,0.078,0.022,0.098,-0.013,-0.044,-0.051,-0.046
0.084,0.129,0.045,-0.107,0.019,0.087,0.02,0.1,-0.008,-0.036,-0.049,-0.041
0.078,0.134,0.056,-0.107,0.011,0.095,0.017,0.111,0.015,-0.018,-0.04,-0.032
0.071,0.138,0.067,-0.105,0.002,0.102,0.014,0.123,0.031,-0.007,-0.03,-0.024
0.08,0.152,0.072,-0.116,0.004,0.112,0.011,0.133,0.053,0.011,-0.017,-0.016
0.09,0.173,0.083,-0.132,0.003,0.128,0.01,0.151,0.079,0.04,0.003,-0.008
0.123,0.215,0.092,-0.169,0.016,0.153,0.003,0.171,0.109,0.073,0.038,0.017
0.135,0.239,0.104,-0.187,0.015,0.171,-0.007,0.18,0.134,0.099,0.06,0.044
0.154,0.274,0.12,-0.214,0.017,0.197,-0.021,0.185,0.179,0.145,0.096,0.081
0.184,0.32,0.136,-0.252,0.024,0.228,-0.042,0.19,0.227,0.196,0.147,0.122
0.198,0.355,0.157,-0.277,0.02,0.256,-0.053,0.187,0.264,0.245,0.196,0.165
0.22,0.39,0.17,-0.305,0.024,0.28,-0.063,0.175,0.303,0.29,0.243,0.202
0.225,0.407,0.182,-0.316,0.021,0.294,-0.081,0.163,0.312,0.316,0.265,0.225
0.234,0.429,0.195,-0.332,0.019,0.312,-0.093,0.152,0.309,0.32,0.275,0.243
0.239,0.452,0.212,-0.346,0.013,0.332,-0.088,0.139,0.311,0.305,0.272,0.234
0.232,0.443,0.211,-0.338,0.01,0.327,-0.08,0.125,0.299,0.296,0.265,0.226
0.214,0.406,0.192,-0.31,0.011,0.299,-0.069,0.111,0.265,0.272,0.234,0.212
0.179,0.353,0.174,-0.266,0.002,0.263,-0.047,0.096,0.205,0.209,0.171,0.159
0.159,0.306,0.147,-0.233,0.006,0.226,-0.023,0.084,0.142,0.133,0.099,0.101
0.135,0.249,0.113,-0.192,0.011,0.181,-0.002,0.068,0.076,0.067,0.038,0.051
0.104,0.192,0.087,-0.148,0.008,0.139,0.013,0.051,0.014,0.017,-0.006,0.01
0.098,0.168,0.07,-0.133,0.014,0.119,0.015,0.044,-0.023,-0.026,-0.049,-0.024
0.105,0.163,0.058,-0.134,0.023,0.11,0.015,0.034,-0.041,-0.058,-0.062,-0.044
0.096,0.155,0.059,-0.126,0.018,0.107,0.015,0.026,-0.045,-0.061,-0.059,-0.045
0.086,0.149,0.063,-0.118,0.012,0.106,0.014,0.029,-0.045,-0.059,-0.06,-0.045
0.077,0.142,0.065,-0.11,0.006,0.103,0.016,0.03,-0.045,-0.06,-0.063,-0.045
0.071,0.139,0.068,-0.105,0.001,0.104,0.019,0.031,-0.045,-0.06,-0.066,-0.045
0.07,0.141,0.071,-0.105,-0.001,0.106,0.022,0.035,-0.045,-0.06,-0.065,-0.045
0.07,0.138,0.068,-0.104,0.001,0.103,0.025,0.035,-0.041,-0.056,-0.063,-0.045
0.08,0.155,0.076,-0.118,0.002,0.115,0.023,0.033,-0.04,-0.053,-0.061,-0.045
0.077,0.167,0.091,-0.122,-0.007,0.128,0.019,0.029,-0.04,-0.05,-0.059,-0.045
0.071,0.161,0.09,-0.116,-0.009,0.125,0.017,0.03,-0.035,-0.047,-0.065,-0.045
0.07,0.16,0.09,-0.115,-0.01,0.125,0.014,0.03,-0.035,-0.045,-0.072,-0.045
0.066,0.156,0.09,-0.111,-0.012,0.123,0.011,0.03,-0.036,-0.047,-0.07,-0.049
0.065,0.155,0.09,-0.11,-0.013,0.122,0.009,0.03,-0.045,-0.052,-0.07,-0.051
0.063,0.151,0.088,-0.108,-0.012,0.119,0.006,0.023,-0.054,-0.055,-0.07,-0.05
0.063,0.143,0.081,-0.103,-0.009,0.112,0.005,0.015,-0.056,-0.062,-0.07,-0.05
0.061,0.138,0.077,-0.1,-0.008,0.107,0.005,0.007,-0.06,-0.072,-0.07,-0.05
0.06,0.13,0.07,-0.095,-0.005,0.1,0.005,-0.001,-0.061,-0.077,-0.077,-0.052
0.059,0.124,0.065,-0.092,-0.003,0.095,0.004,-0.007,-0.07,-0.08,-0.087,-0.055
0.059,0.118,0.059,-0.088,0.0,0.088,0.013,-0.012,-0.079,-0.085,-0.091,-0.057
0.059,0.115,0.056,-0.087,0.001,0.086,0.022,-0.015,-0.081,-0.085,-0.094,-0.06
0.062,0.115,0.053,-0.089,0.004,0.084,0.017,-0.018,-0.084,-0.085,-0.098,-0.063
0.063,0.113,0.05,-0.088,0.006,0.081,0.015,-0.023,-0.086,-0.085,-0.1,-0.065
0.061,0.109,0.048,-0.085,0.006,0.078,0.011,-0.025,-0.091,-0.085,-0.095,-0.062
0.067,0.11,0.043,-0.089,0.012,0.076,0.009,-0.019,-0.089,-0.083,-0.087,-0.058
0.063,0.114,0.051,-0.089,0.006,0.082,0.015,-0.013,-0.081,-0.078,-0.082,-0.055
0.063,0.124,0.061,-0.094,0.0,0.093,0.023,-0.008,-0.07,-0.072,-0.074,-0.051
0.076,0.16,0.085,-0.118,-0.005,0.122,0.029,-0.001,-0.059,-0.069,-0.068,-0.046
0.078,0.176,0.098,-0.127,-0.01,0.137,0.039,0.007,-0.046,-0.064,-0.062,-0.043
0.075,0.18,0.104,-0.128,-0.014,0.142,0.065,0.018,-0.035,-0.059,-0.059,-0.033
0.09,0.201,0.111,-0.146,-0.011,0.156,0.05,0.028,-0.037,-0.066,-0.061,-0.02
0.099,0.204,0.105,-0.152,-0.003,0.154,-0.004,0.002,-0.032,-0.063,-0.059,-0.019
0.101,0.194,0.093,-0.147,0.004,0.143,-0.029,-0.034,-0.051,-0.067,-0.061,-0.03
0.102,0.192,0.09,-0.147,0.006,0.14,-0.016,-0.035,-0.061,-0.062,-0.058,-0.037
0.067,0.159,0.093,-0.114,-0.013,0.126,0.008,-0.033,-0.077,-0.08,-0.079,-0.045
0.045,0.105,0.06,-0.075,-0.008,0.082,0.025,-0.038,-0.102,-0.106,-0.101,-0.061
0.035,0.085,0.051,-0.06,-0.008,0.067,0.024,-0.03,-0.091,-0.098,-0.103,-0.065
0.022,0.074,0.052,-0.048,-0.015,0.062,0.018,-0.041,-0.112,-0.126,-0.122,-0.078
0.038,0.077,0.039,-0.057,-0.001,0.057,0.016,-0.024,-0.085,-0.107,-0.107,-0.076
0.02,0.056,0.036,-0.038,-0.008,0.046,0.008,-0.034,-0.118,-0.123,-0.124,-0.092
0.031,0.067,0.036,-0.049,-0.002,0.051,0.007,-0.023,-0.08,-0.09,-0.106,-0.087
0.053,-0.007,-0.06,-0.023,0.057,-0.034,0.018,0.007,-0.137,-0.158,-0.167,-0.126
0.011,-0.147,-0.158,0.068,0.085,-0.152,0.168,0.243,-0.153,-0.281,-0.306,-0.258
0.125,0.093,-0.033,-0.109,0.079,0.03,0.181,0.359,0.062,-0.063,-0.096,-0.077
0.318,0.854,0.536,-0.586,-0.11,0.695,-0.249,-0.46,0.442,0.7,0.675,0.596
0.33,1.395,1.065,-0.862,-0.368,1.23,-0.587,-1.087,1.011,1.507,1.378,1.101
0.154,0.839,0.685,-0.496,-0.266,0.762,-0.479,-0.909,0.316,0.705,0.708,0.598
-0.005,0.173,0.178,-0.084,-0.092,0.176,-0.194,-0.505,-0.423,-0.257,-0.17,-0.067
0.014,0.108,0.095,-0.061,-0.041,0.101,-0.042,-0.123,-0.141,-0.124,-0.134,-0.106
0.031,0.08,0.049,-0.056,-0.009,0.064,0.006,-0.02,-0.12,-0.12,-0.117,-0.098
0.024,0.079,0.055,-0.052,-0.015,0.067,0.054,0.045,-0.075,-0.095,-0.113,-0.102
0.036,0.082,0.046,-0.059,-0.005,0.064,0.055,0.062,-0.063,-0.088,-0.099,-0.088
0.033,0.073,0.04,-0.054,-0.004,0.056,0.051,0.04,-0.063,-0.1,-0.107,-0.095
0.04,0.078,0.038,-0.059,0.0,0.058,0.05,0.064,-0.037,-0.077,-0.085,-0.082
0.045,0.072,0.027,-0.059,0.008,0.049,0.045,0.068,-0.049,-0.095,-0.098,-0.082
0.057,0.084,0.027,-0.071,0.015,0.055,0.045,0.072,-0.022,-0.075,-0.091,-0.07
0.046,0.092,0.046,-0.069,0.0,0.069,0.056,0.088,-0.03,-0.081,-0.097,-0.067
0.037,0.095,0.059,-0.066,-0.011,0.077,0.056,0.104,-0.011,-0.066,-0.088,-0.059
0.046,0.099,0.053,-0.073,-0.003,0.075,0.047,0.102,-0.008,-0.063,-0.087,-0.054
0.043,0.1,0.057,-0.072,-0.007,0.078,0.041,0.106,0.002,-0.056,-0.084,-0.048
0.053,0.107,0.053,-0.081,0.0,0.08,0.032,0.111,0.014,-0.042,-0.069,-0.042
0.063,0.12,0.057,-0.092,0.003,0.089,0.026,0.123,0.031,-0.026,-0.058,-0.037
0.092,0.134,0.042,-0.114,0.025,0.088,0.019,0.135,0.054,-0.008,-0.038,-0.031
0.117,0.165,0.048,-0.142,0.035,0.106,0.013,0.152,0.079,0.026,-0.017,-0.018
0.098,0.174,0.076,-0.137,0.011,0.125,0.006,0.164,0.111,0.057,0.012,0.012
0.125,0.209,0.084,-0.167,0.02,0.147,0.0,0.172,0.154,0.098,0.053,0.042
0.15,0.246,0.096,-0.198,0.027,0.171,-0.009,0.175,0.192,0.144,0.088,0.071
0.157,0.281,0.125,-0.219,0.016,0.203,-0.026,0.17,0.234,0.192,0.138,0.108
0.205,0.353,0.148,-0.279,0.028,0.25,-0.05,0.165,0.279,0.245,0.19,0.146
0.213,0.374,0.161,-0.294,0.026,0.268,-0.063,0.161,0.298,0.271,0.222,0.178
0.186,0.377,0.19,-0.282,-0.002,0.283,-0.074,0.149,0.302,0.291,0.24,0.194
0.2,0.39,0.19,-0.295,0.005,0.29,-0.097,0.122,0.294,0.287,0.246,0.203
0.225,0.402,0.177,-0.314,0.024,0.289,-0.097,0.107,0.288,0.274,0.25,0.208
0.219,0.391,0.172,-0.305,0.023,0.281,-0.09,0.097,0.257,0.264,0.232,0.187
0.19,0.35,0.16,-0.27,0.015,0.254,-0.072,0.085,0.215,0.219,0.182,0.149
0.15,0.3,0.149,-0.225,0.0,0.224,-0.039,0.074,0.168,0.153,0.111,0.097
0.123,0.246,0.124,-0.185,-0.001,0.185,-0.014,0.061,0.099,0.085,0.047,0.041
0.108,0.198,0.091,-0.153,0.008,0.144,0.002,0.05,0.041,0.026,-0.001,-0.005
0.075,0.146,0.071,-0.111,0.002,0.109,0.006,0.042,-0.009,-0.034,-0.057,-0.042
0.059,0.122,0.063,-0.091,-0.002,0.093,0.012,0.038,-0.049,-0.08,-0.094,-0.067
0.066,0.118,0.052,-0.092,0.007,0.085,0.018,0.032,-0.066,-0.09,-0.098,-0.081
0.063,0.11,0.048,-0.087,0.007,0.079,0.02,0.026,-0.067,-0.09,-0.105,-0.081
0.062,0.105,0.042,-0.084,0.01,0.073,0.02,0.021,-0.061,-0.09,-0.107,-0.08
0.057,0.096,0.039,-0.077,0.009,0.067,0.02,0.023,-0.056,-0.09,-0.104,-0.08
0.069,0.103,0.034,-0.087,0.018,0.068,0.02,0.025,-0.053,-0.091,-0.106,-0.075
0.081,0.111,0.03,-0.096,0.026,0.07,0.019,0.025,-0.047,-0.089,-0.104,-0.075
0.055,0.102,0.047,-0.079,0.004,0.074,0.016,0.025,-0.046,-0.086,-0.106,-0.074
0.051,0.1,0.049,-0.076,0.001,0.074,0.012,0.025,-0.051,-0.085,-0.104,-0.07
0.054,0.095,0.041,-0.075,0.006,0.068,0.008,0.027,-0.05,-0.085,-0.1,-0.07
0.048,0.088,0.04,-0.068,0.004,0.064,0.005,0.026,-0.05,-0.085,-0.1,-0.07
0.074,0.106,0.032,-0.091,0.021,0.069,0.0,0.022,-0.05,-0.085,-0.1,-0.07
0.08,0.112,0.032,-0.096,0.024,0.072,0.002,0.02,-0.05,-0.087,-0.1,-0.07
0.082,0.1,0.017,-0.091,0.032,0.058,0.006,0.017,-0.053,-0.091,-0.101,-0.074
0.074,0.093,0.019,-0.084,0.027,0.056,0.011,0.014,-0.056,-0.094,-0.099,-0.075
0.038,0.082,0.045,-0.06,-0.004,0.063,0.024,0.012,-0.061,-0.098,-0.105,-0.077
0.037,0.076,0.039,-0.057,-0.001,0.057,0.022,0.009,-0.063,-0.101,-0.116,-0.08
0.049,0.075,0.026,-0.062,0.011,0.05,0.015,0.006,-0.076,-0.104,-0.115,-0.081
0.054,0.075,0.021,-0.064,0.016,0.047,0.012,0.003,-0.086,-0.105,-0.113,-0.085
0.051,0.07,0.019,-0.06,0.016,0.045,0.004,0.001,-0.085,-0.105,-0.11,-0.085
0.05,0.07,0.02,-0.06,0.015,0.045,0.002,-0.002,-0.085,-0.105,-0.109,-0.085
0.049,0.069,0.02,-0.059,0.014,0.044,0.003,-0.008,-0.082,-0.102,-0.113,-0.085
0.043,0.062,0.02,-0.053,0.011,0.041,0.009,-0.003,-0.076,-0.1,-0.117,-0.085
0.035,0.057,0.022,-0.046,0.006,0.04,0.011,0.005,-0.072,-0.101,-0.125,-0.082
0.024,0.049,0.025,-0.037,-0.001,0.037,0.016,0.01,-0.068,-0.097,-0.13,-0.079
0.043,0.068,0.025,-0.056,0.009,0.046,0.02,0.019,-0.062,-0.094,-0.12,-0.076
0.069,0.106,0.037,-0.087,0.016,0.071,0.018,0.023,-0.059,-0.097,-0.104,-0.073
0.057,0.116,0.059,-0.087,-0.001,0.087,0.037,0.032,-0.042,-0.082,-0.093,-0.07
0.051,0.119,0.068,-0.086,-0.008,0.093,0.044,0.038,-0.031,-0.07,-0.089,-0.071
0.087,0.148,0.061,-0.117,0.013,0.104,0.022,0.016,-0.03,-0.07,-0.087,-0.076
0.096,0.15,0.054,-0.123,0.021,0.102,-0.014,-0.02,-0.034,-0.07,-0.083,-0.076
0.089,0.134,0.045,-0.112,0.021,0.09,-0.026,-0.044,-0.083,-0.082,-0.082,-0.082
0.073,0.114,0.04,-0.094,0.016,0.077,-0.014,-0.037,-0.093,-0.077,-0.079,-0.082
0.033,0.063,0.03,-0.048,0.001,0.046,-0.011,-0.042,-0.098,-0.107,-0.112,-0.086
0.021,0.036,0.015,-0.029,0.003,0.025,-0.001,-0.039,-0.098,-0.121,-0.13,-0.089
0.02,0.014,-0.006,-0.017,0.013,0.004,-0.001,-0.04,-0.123,-0.138,-0.143,-0.099
0.02,0.012,-0.009,-0.016,0.014,0.002,0.005,-0.042,-0.134,-0.145,-0.152,-0.108
0.042,0.009,-0.033,-0.026,0.037,-0.011,0.004,-0.028,-0.123,-0.132,-0.137,-0.106
0.038,-0.003,-0.04,-0.017,0.039,-0.021,0.011,-0.041,-0.155,-0.163,-0.157,-0.118
0.039,0.005,-0.034,-0.022,0.037,-0.014,0.007,-0.005,-0.11,-0.117,-0.127,-0.092
0.019,-0.145,-0.163,0.063,0.091,-0.154,0.066,0.077,-0.208,-0.265,-0.267,-0.209
0.038,-0.182,-0.22,0.072,0.13,-0.201,0.225,0.371,-0.084,-0.284,-0.327,-0.264
0.198,0.299,0.101,-0.249,0.049,0.2,0.033,0.081,0.143,0.149,0.141,0.15
0.303,1.121,0.818,-0.712,-0.258,0.969,-0.452,-0.867,0.73,1.152,1.059,0.864
0.253,1.243,0.99,-0.748,-0.368,1.116,-0.629,-1.104,0.936,1.435,1.267,0.99
0.068,0.44,0.372,-0.254,-0.152,0.405,-0.38,-0.774,-0.165,0.157,0.228,0.253
-0.024,0.03,0.054,-0.003,-0.039,0.042,-0.101,-0.325,-0.373,-0.295,-0.241,-0.139
0.027,0.049,0.021,-0.038,0.003,0.035,-0.022,-0.059,-0.085,-0.105,-0.123,-0.098
0.015,0.012,-0.003,-0.014,0.009,0.004,0.021,-0.023,-0.135,-0.173,-0.17,-0.123
0.015,0.022,0.007,-0.018,0.003,0.014,0.048,0.033,-0.051,-0.107,-0.127,-0.102
0.027,0.011,-0.016,-0.018,0.021,-0.003,0.049,0.031,-0.098,-0.145,-0.142,-0.109
0.048,0.014,-0.034,-0.03,0.041,-0.01,0.052,0.036,-0.065,-0.117,-0.125,-0.103
0.067,0.008,-0.059,-0.037,0.063,-0.025,0.048,0.043,-0.077,-0.124,-0.119,-0.099
0.067,0.014,-0.053,-0.04,0.06,-0.02,0.046,0.061,-0.063,-0.12,-0.131,-0.095
0.084,0.028,-0.055,-0.056,0.069,-0.013,0.044,0.06,-0.05,-0.11,-0.131,-0.087
0.083,0.029,-0.054,-0.056,0.069,-0.012,0.044,0.06,-0.053,-0.116,-0.129,-0.084
0.071,0.031,-0.04,-0.051,0.056,-0.004,0.039,0.078,-0.036,-0.095,-0.118,-0.076
0.054,0.028,-0.026,-0.041,0.04,0.001,0.041,0.091,-0.027,-0.08,-0.112,-0.074
0.077,0.046,-0.031,-0.061,0.054,0.007,0.037,0.091,0.0,-0.06,-0.098,-0.067
0.089,0.059,-0.029,-0.074,0.059,0.015,0.029,0.089,0.007,-0.052,-0.091,-0.066
0.074,0.058,-0.016,-0.066,0.045,0.021,0.023,0.122,0.031,-0.036,-0.072,-0.046
0.083,0.073,-0.01,-0.078,0.046,0.031,0.015,0.139,0.056,-0.018,-0.049,-0.015
0.081,0.099,0.018,-0.09,0.032,0.058,0.007,0.146,0.095,0.02,-0.026,0.008
0.098,0.13,0.032,-0.114,0.033,0.081,0.001,0.161,0.136,0.062,0.001,0.035
0.104,0.163,0.059,-0.134,0.022,0.11,-0.009,0.159,0.161,0.092,0.039,0.056
0.123,0.202,0.079,-0.163,0.022,0.14,-0.021,0.163,0.205,0.14,0.09,0.09
0.162,0.262,0.1,-0.212,0.031,0.181,-0.031,0.165,0.258,0.206,0.15,0.14
0.179,0.297,0.118,-0.238,0.03,0.208,-0.049,0.157,0.285,0.247,0.192,0.173
0.196,0.327,0.132,-0.262,0.032,0.229,-0.069,0.148,0.299,0.27,0.213,0.195
0.186,0.356,0.17,-0.271,0.008,0.263,-0.079,0.125,0.307,0.278,0.232,0.217
0.193,0.356,0.163,-0.275,0.014,0.259,-0.08,0.104,0.299,0.263,0.232,0.222
0.185,0.351,0.166,-0.268,0.009,0.258,-0.076,0.096,0.28,0.256,0.218,0.213
0.156,0.318,0.162,-0.237,-0.003,0.239,-0.065,0.084,0.242,0.237,0.194,0.187
0.157,0.263,0.106,-0.21,0.025,0.184,-0.041,0.069,0.19,0.175,0.139,0.142
0.117,0.204,0.087,-0.161,0.015,0.145,-0.01,0.053,0.117,0.091,0.068,0.084
0.076,0.15,0.074,-0.114,0.001,0.112,0.019,0.038,0.054,0.025,0.014,0.031
0.052,0.099,0.047,-0.075,0.002,0.073,0.032,0.027,0.009,-0.021,-0.037,-0.007
0.035,0.064,0.029,-0.049,0.002,0.046,0.031,0.015,-0.04,-0.068,-0.082,-0.036
0.038,0.056,0.018,-0.047,0.01,0.037,0.027,0.006,-0.066,-0.093,-0.101,-0.053
0.043,0.044,0.001,-0.044,0.021,0.022,0.025,0.005,-0.075,-0.101,-0.109,-0.057
0.058,0.04,-0.019,-0.049,0.039,0.01,0.022,0.005,-0.081,-0.101,-0.11,-0.053
0.042,0.038,-0.004,-0.04,0.023,0.017,0.019,0.005,-0.084,-0.097,-0.11,-0.058
0.032,0.034,0.002,-0.033,0.014,0.018,0.026,0.005,-0.082,-0.095,-0.11,-0.066
0.037,0.032,-0.005,-0.034,0.021,0.013,0.038,0.005,-0.076,-0.092,-0.11,-0.064
0.031,0.029,-0.002,-0.03,0.017,0.013,0.04,0.009,-0.071,-0.09,-0.11,-0.061
0.027,0.028,0.001,-0.027,0.012,0.015,0.04,0.013,-0.068,-0.09,-0.107,-0.058
0.025,0.029,0.005,-0.027,0.01,0.017,0.04,0.018,-0.062,-0.102,-0.104,-0.055
0.025,0.025,0.0,-0.025,0.012,0.012,0.04,0.019,-0.061,-0.105,-0.101,-0.055
0.019,0.02,0.0,-0.02,0.009,0.01,0.04,0.012,-0.065,-0.099,-0.098,-0.055
0.019,0.017,-0.002,-0.018,0.01,0.008,0.04,0.008,-0.065,-0.098,-0.095,-0.055
0.014,0.01,-0.005,-0.011,0.01,0.002,0.04,0.002,-0.07,-0.092,-0.096,-0.055
0.02,0.015,-0.005,-0.017,0.013,0.004,0.04,-0.004,-0.07,-0.09,-0.101,-0.055
0.027,0.023,-0.004,-0.024,0.015,0.009,0.04,-0.009,-0.074,-0.095,-0.105,-0.055
0.023,0.017,-0.006,-0.02,0.015,0.006,0.041,-0.014,-0.085,-0.1,-0.105,-0.059
0.016,0.012,-0.004,-0.014,0.01,0.004,0.037,-0.02,-0.09,-0.103,-0.106,-0.065
0.016,0.009,-0.007,-0.012,0.011,0.0,0.035,-0.025,-0.098,-0.108,-0.115,-0.065
0.035,0.003,-0.031,-0.019,0.033,-0.014,0.035,-0.03,-0.104,-0.117,-0.126,-0.065
0.035,0.0,-0.036,-0.017,0.036,-0.018,0.032,-0.037,-0.109,-0.122,-0.13,-0.065
0.04,0.012,-0.028,-0.026,0.034,-0.008,0.029,-0.039,-0.116,-0.127,-0.13,-0.065
0.044,0.017,-0.028,-0.03,0.036,-0.005,0.031,-0.034,-0.119,-0.13,-0.13,-0.066
0.031,0.009,-0.022,-0.02,0.027,-0.006,0.034,-0.028,-0.113,-0.125,-0.13,-0.065
0.026,0.007,-0.018,-0.016,0.022,-0.005,0.036,-0.025,-0.107,-0.117,-0.13,-0.065
0.029,-0.001,-0.029,-0.014,0.029,-0.015,0.034,-0.019,-0.103,-0.112,-0.127,-0.062
0.036,0.005,-0.03,-0.02,0.033,-0.012,0.038,-0.016,-0.096,-0.104,-0.12,-0.06
0.049,0.036,-0.014,-0.042,0.031,0.011,0.047,-0.024,-0.092,-0.098,-0.114,-0.06
0.054,0.051,-0.003,-0.052,0.028,0.024,0.058,-0.017,-0.083,-0.092,-0.109,-0.055
0.041,0.053,0.012,-0.047,0.014,0.032,0.082,0.004,-0.064,-0.089,-0.099,-0.046
0.043,0.063,0.021,-0.053,0.011,0.042,0.067,-0.001,-0.059,-0.092,-0.099,-0.047
0.046,0.068,0.022,-0.057,0.012,0.045,0.027,-0.04,-0.069,-0.084,-0.099,-0.051
0.039,0.052,0.013,-0.046,0.013,0.032,0.024,-0.068,-0.097,-0.087,-0.103,-0.054
0.034,0.048,0.014,-0.041,0.01,0.031,0.024,-0.064,-0.091,-0.082,-0.105,-0.058
0.017,0.02,0.003,-0.018,0.007,0.011,0.018,-0.061,-0.1,-0.095,-0.107,-0.06
-0.008,-0.029,-0.021,0.019,0.007,-0.025,0.023,-0.062,-0.128,-0.127,-0.127,-0.068
-0.004,-0.044,-0.04,0.024,0.018,-0.041,0.024,-0.051,-0.121,-0.129,-0.131,-0.075
0.004,-0.066,-0.07,0.031,0.037,-0.068,0.025,-0.061,-0.144,-0.151,-0.15,-0.091
0.008,-0.067,-0.075,0.03,0.042,-0.071,0.026,-0.047,-0.114,-0.127,-0.137,-0.086
-0.004,-0.084,-0.08,0.044,0.039,-0.082,0.023,-0.064,-0.15,-0.156,-0.155,-0.096
-0.017,-0.068,-0.051,0.043,0.017,-0.059,0.03,-0.042,-0.107,-0.122,-0.132,-0.081
-0.01,-0.145,-0.135,0.078,0.063,-0.14,0.05,0.008,-0.174,-0.193,-0.19,-0.132
-0.01,-0.27,-0.26,0.14,0.126,-0.265,0.202,0.244,-0.186,-0.316,-0.341,-0.266
0.1,-0.018,-0.118,-0.041,0.109,-0.068,0.186,0.283,0.036,-0.066,-0.091,-0.057
0.26,0.744,0.485,-0.502,-0.113,0.614,-0.28,-0.598,0.43,0.74,0.724,0.644
0.28,1.266,0.986,-0.773,-0.354,1.126,-0.637,-1.197,0.987,1.525,1.382,1.129
0.105,0.657,0.553,-0.381,-0.224,0.605,-0.488,-0.966,0.226,0.64,0.65,0.59
-0.062,0.009,0.071,0.026,-0.066,0.039,-0.16,-0.504,-0.46,-0.287,-0.19,-0.054
-0.044,-0.026,0.019,0.035,-0.031,-0.003,-0.014,-0.118,-0.138,-0.12,-0.13,-0.083
-0.016,-0.067,-0.051,0.042,0.018,-0.059,0.042,-0.033,-0.134,-0.144,-0.132,-0.085
-0.022,-0.074,-0.051,0.048,0.015,-0.063,0.077,0.017,-0.078,-0.11,-0.122,-0.087
-0.008,-0.074,-0.067,0.041,0.03,-0.07,0.073,0.042,-0.078,-0.106,-0.112,-0.081
0.0,-0.077,-0.078,0.039,0.039,-0.077,0.076,0.044,-0.083,-0.114,-0.119,-0.09
-0.004,-0.072,-0.068,0.038,0.033,-0.069,0.075,0.058,-0.059,-0.091,-0.101,-0.076
-0.008,-0.078,-0.07,0.044,0.032,-0.074,0.083,0.07,-0.074,-0.106,-0.11,-0.076
-0.009,-0.07,-0.061,0.04,0.026,-0.066,0.089,0.081,-0.05,-0.084,-0.095,-0.064
-0.006,-0.068,-0.062,0.037,0.028,-0.064,0.09,0.071,-0.059,-0.089,-0.101,-0.061
-0.003,-0.058,-0.055,0.031,0.026,-0.056,0.09,0.094,-0.042,-0.07,-0.093,-0.05
0.002,-0.053,-0.056,0.026,0.029,-0.054,0.089,0.105,-0.04,-0.068,-0.089,-0.043
0.008,-0.045,-0.053,0.019,0.03,-0.048,0.091,0.116,-0.019,-0.046,-0.073,-0.035
0.009,-0.041,-0.049,0.016,0.029,-0.045,0.089,0.141,0.015,-0.022,-0.06,-0.027
0.022,-0.028,-0.049,0.003,0.036,-0.038,0.081,0.152,0.042,-0.006,-0.043,-0.018
0.025,-0.011,-0.036,-0.007,0.031,-0.023,0.073,0.168,0.061,0.006,-0.023,-0.003
0.031,0.007,-0.025,-0.019,0.028,-0.009,0.065,0.187,0.088,0.035,-0.001,0.011
0.044,0.028,-0.016,-0.036,0.03,0.006,0.058,0.2,0.113,0.067,0.027,0.031
0.067,0.064,-0.003,-0.066,0.035,0.03,0.05,0.217,0.155,0.102,0.058,0.059
0.08,0.107,0.027,-0.094,0.027,0.067,0.041,0.221,0.2,0.156,0.105,0.089
0.068,0.143,0.075,-0.106,-0.004,0.109,0.033,0.213,0.244,0.205,0.152,0.131
0.097,0.194,0.097,-0.145,0.0,0.145,0.023,0.209,0.294,0.259,0.2,0.174
0.112,0.22,0.108,-0.166,0.002,0.164,0.01,0.202,0.309,0.29,0.236,0.201
0.126,0.245,0.12,-0.186,0.003,0.182,-0.009,0.198,0.311,0.313,0.263,0.228
0.131,0.257,0.126,-0.194,0.002,0.191,-0.019,0.191,0.301,0.323,0.271,0.23
0.102,0.244,0.143,-0.173,-0.021,0.193,-0.027,0.175,0.287,0.307,0.265,0.231
0.095,0.233,0.137,-0.164,-0.021,0.185,-0.027,0.159,0.28,0.287,0.256,0.227
0.057,0.178,0.121,-0.118,-0.032,0.149,0.002,0.138,0.226,0.234,0.2,0.173
0.03,0.13,0.099,-0.08,-0.035,0.114,0.039,0.115,0.161,0.162,0.126,0.126
0.029,0.079,0.05,-0.054,-0.011,0.064,0.067,0.092,0.101,0.091,0.061,0.072
-0.012,0.013,0.025,-0.001,-0.018,0.019,0.079,0.075,0.032,0.024,0.014,0.017
-0.043,-0.032,0.012,0.037,-0.027,-0.01,0.082,0.063,-0.016,-0.029,-0.024,-0.014
-0.027,-0.066,-0.039,0.047,0.006,-0.052,0.08,0.052,-0.057,-0.061,-0.064,-0.045
-0.013,-0.072,-0.06,0.043,0.024,-0.066,0.08,0.048,-0.072,-0.075,-0.081,-0.045
-0.044,-0.08,-0.036,0.062,-0.004,-0.058,0.08,0.042,-0.066,-0.082,-0.081,-0.046
-0.055,-0.091,-0.036,0.073,-0.009,-0.064,0.08,0.039,-0.064,-0.08,-0.08,-0.051
-0.035,-0.086,-0.051,0.061,0.008,-0.068,0.08,0.033,-0.061,-0.08,-0.08,-0.049
-0.047,-0.084,-0.037,0.066,-0.005,-0.06,0.08,0.03,-0.058,-0.077,-0.08,-0.053
-0.036,-0.079,-0.043,0.058,0.003,-0.061,0.08,0.035,-0.055,-0.074,-0.08,-0.055
-0.022,-0.076,-0.054,0.049,0.017,-0.065,0.08,0.035,-0.055,-0.075,-0.079,-0.055
-0.029,-0.072,-0.043,0.051,0.007,-0.057,0.08,0.036,-0.055,-0.07,-0.075,-0.052
-0.03,-0.067,-0.036,0.049,0.003,-0.051,0.08,0.04,-0.055,-0.069,-0.073,-0.049
-0.019,-0.061,-0.041,0.04,0.011,-0.051,0.077,0.04,-0.055,-0.065,-0.069,-0.046
-0.008,-0.057,-0.049,0.033,0.021,-0.053,0.075,0.038,-0.055,-0.063,-0.067,-0.043
-0.001,-0.049,-0.048,0.025,0.024,-0.048,0.075,0.032,-0.055,-0.059,-0.064,-0.04
0.003,-0.047,-0.05,0.022,0.027,-0.048,0.075,0.027,-0.058,-0.063,-0.066,-0.041
-0.006,-0.057,-0.052,0.031,0.023,-0.054,0.075,0.024,-0.066,-0.081,-0.073,-0.045
-0.006,-0.061,-0.055,0.034,0.024,-0.058,0.075,0.019,-0.075,-0.086,-0.076,-0.049
-0.02,-0.075,-0.055,0.048,0.018,-0.065,0.075,0.015,-0.082,-0.088,-0.074,-0.05
-0.023,-0.08,-0.057,0.052,0.017,-0.068,0.075,0.01,-0.086,-0.091,-0.075,-0.053
-0.029,-0.09,-0.061,0.06,0.016,-0.076,0.075,0.01,-0.095,-0.089,-0.085,-0.055
-0.048,-0.107,-0.06,0.077,0.007,-0.083,0.075,0.009,-0.103,-0.095,-0.091,-0.056
-0.051,-0.108,-0.056,0.08,0.003,-0.082,0.075,0.005,-0.106,-0.101,-0.093,-0.06
-0.061,-0.111,-0.05,0.086,-0.006,-0.08,0.077,0.005,-0.11,-0.099,-0.095,-0.062
-0.072,-0.116,-0.045,0.094,-0.013,-0.08,0.081,0.002,-0.111,-0.101,-0.091,-0.065
-0.069,-0.11,-0.041,0.09,-0.014,-0.075,0.083,0.0,-0.109,-0.1,-0.089,-0.062
-0.081,-0.112,-0.031,0.097,-0.025,-0.071,0.087,-0.003,-0.112,-0.101,-0.086,-0.056
-0.067,-0.106,-0.039,0.087,-0.014,-0.072,0.089,-0.006,-0.104,-0.095,-0.082,-0.052
-0.031,-0.07,-0.039,0.051,0.004,-0.054,0.091,0.007,-0.079,-0.086,-0.08,-0.047
-0.044,-0.052,-0.008,0.048,-0.017,-0.03,0.1,0.026,-0.073,-0.078,-0.078,-0.043
-0.038,-0.039,0.0,0.039,-0.019,-0.019,0.112,0.045,-0.077,-0.069,-0.073,-0.038
-0.027,-0.025,0.002,0.025,-0.014,-0.011,0.1,0.04,-0.083,-0.072,-0.071,-0.036
-0.037,-0.023,0.013,0.03,-0.024,-0.004,0.057,-0.003,-0.081,-0.066,-0.065,-0.034
-0.024,-0.03,-0.006,0.027,-0.008,-0.018,0.036,-0.033,-0.095,-0.078,-0.064,-0.031
-0.02,-0.033,-0.013,0.027,-0.003,-0.023,0.048,-0.028,-0.102,-0.082,-0.058,-0.029
-0.073,-0.079,-0.007,0.076,-0.033,-0.043,0.062,-0.031,-0.111,-0.1,-0.08,-0.043
-0.109,-0.129,-0.02,0.119,-0.044,-0.074,0.069,-0.028,-0.121,-0.117,-0.109,-0.064
-0.092,-0.147,-0.055,0.12,-0.018,-0.1,0.062,-0.023,-0.133,-0.123,-0.114,-0.075
-0.083,-0.156,-0.073,0.12,-0.004,-0.115,0.061,-0.029,-0.154,-0.144,-0.125,-0.086
-0.08,-0.155,-0.075,0.118,-0.002,-0.115,0.055,-0.023,-0.132,-0.123,-0.113,-0.083
-0.105,-0.182,-0.077,0.144,-0.014,-0.13,0.054,-0.05,-0.159,-0.145,-0.13,-0.104
-0.089,-0.162,-0.073,0.126,-0.007,-0.117,0.047,-0.02,-0.118,-0.112,-0.108,-0.096
-0.086,-0.271,-0.185,0.179,0.05,-0.227,0.087,0.034,-0.215,-0.224,-0.208,-0.164
-0.089,-0.364,-0.275,0.227,0.093,-0.319,0.251,0.304,-0.167,-0.309,-0.329,-0.281
0.083,-0.006,-0.089,-0.038,0.086,-0.048,0.144,0.212,0.04,0.002,-0.003,0.006
0.245,0.799,0.554,-0.522,-0.154,0.676,-0.342,-0.725,0.52,0.893,0.877,0.761
0.217,1.127,0.909,-0.672,-0.346,1.018,-0.611,-1.174,0.924,1.429,1.338,1.095
0.011,0.403,0.392,-0.207,-0.191,0.397,-0.408,-0.889,-0.007,0.363,0.436,0.417
-0.137,-0.123,0.014,0.13,-0.075,-0.055,-0.109,-0.419,-0.447,-0.303,-0.22,-0.117
-0.094,-0.113,-0.02,0.104,-0.037,-0.067,0.008,-0.074,-0.136,-0.12,-0.107,-0.088
-0.078,-0.149,-0.071,0.114,-0.004,-0.11,0.063,-0.011,-0.169,-0.171,-0.135,-0.106
-0.09,-0.162,-0.072,0.126,-0.008,-0.117,0.096,0.034,-0.092,-0.118,-0.112,-0.095
-0.072,-0.163,-0.092,0.118,0.01,-0.127,0.094,0.042,-0.115,-0.135,-0.117,-0.094
-0.064,-0.158,-0.094,0.111,0.015,-0.126,0.096,0.056,-0.095,-0.125,-0.115,-0.097
-0.066,-0.154,-0.088,0.11,0.012,-0.121,0.094,0.064,-0.086,-0.116,-0.106,-0.087
-0.067,-0.152,-0.085,0.11,0.009,-0.118,0.096,0.074,-0.088,-0.122,-0.113,-0.09
-0.066,-0.146,-0.08,0.106,0.007,-0.113,0.094,0.097,-0.066,-0.104,-0.096,-0.081
-0.071,-0.145,-0.074,0.109,0.002,-0.11,0.09,0.096,-0.069,-0.107,-0.098,-0.081
-0.052,-0.14,-0.088,0.096,0.018,-0.114,0.09,0.106,-0.048,-0.089,-0.085,-0.075
-0.036,-0.138,-0.102,0.087,0.033,-0.12,0.09,0.114,-0.041,-0.083,-0.082,-0.073
-0.041,-0.134,-0.093,0.088,0.026,-0.114,0.09,0.125,-0.019,-0.065,-0.069,-0.063
-0.038,-0.129,-0.091,0.083,0.027,-0.11,0.09,0.139,-0.005,-0.053,-0.054,-0.052
-0.038,-0.123,-0.085,0.081,0.024,-0.104,0.087,0.157,0.013,-0.033,-0.042,-0.043
-0.034,-0.113,-0.08,0.074,0.023,-0.096,0.079,0.177,0.032,-0.014,-0.028,-0.027
-0.013,-0.086,-0.073,0.05,0.03,-0.079,0.071,0.19,0.069,0.016,-0.005,-0.008
0.011,-0.05,-0.061,0.02,0.036,-0.055,0.063,0.197,0.097,0.05,0.024,0.012
0.015,-0.012,-0.028,-0.001,0.021,-0.02,0.056,0.211,0.132,0.091,0.066,0.041
0.033,0.034,0.002,-0.033,0.015,0.018,0.044,0.211,0.183,0.146,0.112,0.08
0.045,0.066,0.021,-0.056,0.012,0.044,0.03,0.202,0.223,0.194,0.159,0.122
0.058,0.096,0.039,-0.077,0.009,0.067,0.017,0.196,0.261,0.242,0.207,0.16
0.089,0.135,0.046,-0.112,0.021,0.09,0.008,0.187,0.278,0.276,0.241,0.19
0.079,0.148,0.07,-0.114,0.004,0.109,0.0,0.181,0.282,0.29,0.268,0.213
0.086,0.161,0.074,-0.124,0.006,0.118,-0.009,0.172,0.284,0.283,0.279,0.219
0.09,0.167,0.076,-0.129,0.007,0.121,-0.003,0.163,0.269,0.279,0.274,0.207
0.05,0.132,0.082,-0.091,-0.017,0.107,0.005,0.151,0.235,0.264,0.25,0.194
0.026,0.081,0.055,-0.054,-0.014,0.068,0.016,0.136,0.193,0.206,0.188,0.155
0.01,0.029,0.019,-0.019,-0.005,0.024,0.045,0.124,0.13,0.133,0.118,0.092
-0.03,-0.032,-0.002,0.031,-0.014,-0.017,0.071,0.102,0.062,0.06,0.054,0.037
-0.067,-0.081,-0.014,0.074,-0.026,-0.047,0.079,0.077,0.004,-0.002,-0.009,-0.009
-0.081,-0.121,-0.04,0.101,-0.02,-0.08,0.076,0.06,-0.048,-0.052,-0.049,-0.037
-0.098,-0.145,-0.047,0.122,-0.026,-0.096,0.075,0.043,-0.072,-0.078,-0.069,-0.053
-0.098,-0.151,-0.053,0.125,-0.022,-0.101,0.075,0.035,-0.08,-0.084,-0.074,-0.062
-0.088,-0.158,-0.069,0.123,-0.009,-0.113,0.074,0.032,-0.079,-0.086,-0.076,-0.067
-0.103,-0.159,-0.056,0.131,-0.024,-0.107,0.076,0.028,-0.09,-0.084,-0.077,-0.069
-0.098,-0.156,-0.058,0.127,-0.019,-0.107,0.072,0.026,-0.104,-0.082,-0.075,-0.066
-0.087,-0.154,-0.067,0.121,-0.01,-0.11,0.07,0.018,-0.094,-0.079,-0.075,-0.063
-0.097,-0.156,-0.059,0.126,-0.018,-0.107,0.07,0.026,-0.087,-0.081,-0.071,-0.06
-0.095,-0.153,-0.058,0.124,-0.017,-0.105,0.066,0.041,-0.079,-0.084,-0.07,-0.057
-0.109,-0.163,-0.053,0.137,-0.028,-0.108,0.064,0.035,-0.077,-0.085,-0.07,-0.055
-0.132,-0.181,-0.049,0.157,-0.042,-0.115,0.065,0.03,-0.081,-0.085,-0.07,-0.055
-0.116,-0.175,-0.059,0.145,-0.028,-0.116,0.075,0.027,-0.079,-0.085,-0.07,-0.055
-0.104,-0.17,-0.066,0.137,-0.019,-0.117,0.077,0.02,-0.084,-0.085,-0.07,-0.055
-0.107,-0.167,-0.06,0.137,-0.023,-0.113,0.071,0.023,-0.085,-0.088,-0.07,-0.055
-0.101,-0.159,-0.058,0.131,-0.022,-0.108,0.069,0.027,-0.085,-0.09,-0.07,-0.055
-0.111,-0.164,-0.053,0.138,-0.029,-0.108,0.064,0.021,-0.091,-0.09,-0.072,-0.056
-0.115,-0.165,-0.05,0.14,-0.032,-0.107,0.061,0.016,-0.097,-0.09,-0.076,-0.059
-0.131,-0.181,-0.05,0.156,-0.04,-0.115,0.057,0.011,-0.103,-0.09,-0.081,-0.06
-0.153,-0.203,-0.05,0.178,-0.051,-0.126,0.055,0.005,-0.107,-0.095,-0.084,-0.06
-0.149,-0.198,-0.05,0.174,-0.05,-0.124,0.055,0.0,-0.11,-0.098,-0.087,-0.06
-0.152,-0.203,-0.05,0.178,-0.051,-0.126,0.055,-0.005,-0.117,-0.103,-0.089,-0.062
-0.156,-0.205,-0.049,0.181,-0.053,-0.127,0.055,-0.003,-0.116,-0.108,-0.092,-0.065
-0.151,-0.204,-0.053,0.178,-0.048,-0.128,0.056,0.003,-0.115,-0.105,-0.097,-0.068
-0.147,-0.209,-0.062,0.178,-0.043,-0.135,0.059,0.007,-0.114,-0.1,-0.102,-0.071
-0.152,-0.211,-0.058,0.181,-0.047,-0.134,0.061,0.012,-0.109,-0.096,-0.105,-0.064
-0.153,-0.209,-0.056,0.181,-0.048,-0.132,0.059,0.017,-0.111,-0.092,-0.095,-0.059
-0.123,-0.175,-0.052,0.149,-0.036,-0.113,0.064,0.02,-0.105,-0.085,-0.079,-0.054
-0.099,-0.149,-0.05,0.124,-0.024,-0.1,0.079,0.031,-0.093,-0.088,-0.068,-0.048
-0.098,-0.145,-0.047,0.122,-0.025,-0.096,0.09,0.031,-0.077,-0.09,-0.064,-0.042
-0.091,-0.136,-0.045,0.114,-0.023,-0.09,0.084,0.031,-0.076,-0.09,-0.062,-0.037
-0.087,-0.132,-0.045,0.11,-0.021,-0.088,0.05,0.021,-0.074,-0.091,-0.059,-0.035
-0.077,-0.122,-0.045,0.1,-0.016,-0.083,0.017,-0.023,-0.08,-0.088,-0.055,-0.034
-0.078,-0.124,-0.046,0.102,-0.016,-0.085,0.014,-0.039,-0.109,-0.093,-0.056,-0.037
-0.111,-0.153,-0.042,0.133,-0.034,-0.098,0.028,-0.031,-0.105,-0.091,-0.06,-0.032
-0.131,-0.198,-0.067,0.164,-0.032,-0.132,0.037,-0.038,-0.126,-0.116,-0.087,-0.055
-0.129,-0.226,-0.096,0.178,-0.016,-0.161,0.036,-0.026,-0.128,-0.124,-0.098,-0.073
-0.132,-0.246,-0.114,0.189,-0.009,-0.179,0.033,-0.034,-0.155,-0.138,-0.112,-0.08
-0.141,-0.25,-0.109,0.196,-0.015,-0.179,0.034,-0.025,-0.15,-0.134,-0.113,-0.083
-0.146,-0.262,-0.116,0.204,-0.015,-0.189,0.026,-0.017,-0.157,-0.141,-0.115,-0.087
-0.159,-0.259,-0.1,0.21,-0.03,-0.179,0.035,-0.011,-0.159,-0.135,-0.118,-0.094
-0.143,-0.264,-0.121,0.204,-0.011,-0.192,0.033,0.01,-0.143,-0.132,-0.118,-0.092
-0.171,-0.419,-0.248,0.295,0.039,-0.333,0.129,0.122,-0.24,-0.294,-0.271,-0.223
-0.126,-0.385,-0.258,0.256,0.066,-0.321,0.242,0.389,-0.089,-0.228,-0.245,-0.218
0.094,0.209,0.116,-0.152,-0.011,0.162,-0.059,-0.126,0.183,0.318,0.344,0.32
0.194,0.961,0.767,-0.578,-0.287,0.864,-0.523,-1.006,0.821,1.294,1.239,1.042
0.077,0.788,0.711,-0.433,-0.318,0.749,-0.57,-1.062,0.635,1.109,1.072,0.901
-0.135,-0.001,0.134,0.068,-0.135,0.066,-0.274,-0.683,-0.38,-0.1,0.033,0.116
-0.202,-0.232,-0.03,0.217,-0.085,-0.131,-0.062,-0.239,-0.3,-0.239,-0.172,-0.122
-0.157,-0.217,-0.06,0.187,-0.049,-0.138,0.005,-0.029,-0.128,-0.131,-0.085,-0.083
-0.154,-0.238,-0.084,0.196,-0.035,-0.161,0.055,0.01,-0.144,-0.163,-0.123,-0.101
-0.165,-0.242,-0.077,0.204,-0.044,-0.159,0.066,0.053,-0.085,-0.112,-0.088,-0.08
-0.18,-0.264,-0.084,0.222,-0.047,-0.174,0.064,0.051,-0.126,-0.143,-0.11,-0.088
-0.167,-0.243,-0.076,0.205,-0.045,-0.159,0.061,0.063,-0.088,-0.107,-0.089,-0.075
-0.163,-0.243,-0.079,0.203,-0.042,-0.161,0.058,0.062,-0.108,-0.121,-0.098,-0.076
-0.159,-0.231,-0.072,0.196,-0.043,-0.152,0.056,0.067,-0.09,-0.103,-0.088,-0.07
-0.148,-0.225,-0.077,0.187,-0.036,-0.151,0.053,0.073,-0.093,-0.103,-0.083,-0.067
-0.136,-0.215,-0.079,0.176,-0.028,-0.147,0.051,0.088,-0.082,-0.096,-0.079,-0.064
-0.126,-0.204,-0.078,0.165,-0.024,-0.141,0.047,0.097,-0.073,-0.088,-0.071,-0.059
-0.123,-0.196,-0.072,0.16,-0.025,-0.134,0.045,0.1,-0.06,-0.083,-0.068,-0.056
-0.118,-0.185,-0.067,0.152,-0.025,-0.126,0.041,0.122,-0.036,-0.067,-0.053,-0.047
-0.115,-0.179,-0.064,0.147,-0.025,-0.121,0.04,0.14,-0.026,-0.055,-0.044,-0.039
-0.115,-0.173,-0.058,0.144,-0.028,-0.115,0.035,0.143,0.003,-0.024,-0.028,-0.035
-0.101,-0.155,-0.055,0.128,-0.023,-0.105,0.027,0.161,0.027,0.004,-0.007,-0.024
-0.068,-0.117,-0.048,0.093,-0.01,-0.082,0.019,0.18,0.057,0.027,0.012,0.009
-0.05,-0.091,-0.04,0.071,-0.005,-0.065,0.011,0.191,0.095,0.064,0.045,0.03
-0.027,-0.063,-0.035,0.045,0.004,-0.049,0.004,0.2,0.138,0.115,0.093,0.063
-0.007,-0.032,-0.026,0.02,0.01,-0.029,-0.011,0.194,0.18,0.157,0.137,0.104
0.01,0.001,-0.009,-0.005,0.01,-0.004,-0.027,0.189,0.218,0.21,0.182,0.142
0.037,0.044,0.007,-0.041,0.015,0.026,-0.042,0.183,0.243,0.253,0.224,0.179
0.056,0.075,0.019,-0.065,0.018,0.047,-0.061,0.177,0.252,0.279,0.258,0.203
0.048,0.084,0.036,-0.066,0.006,0.059,-0.074,0.172,0.249,0.284,0.269,0.216
0.023,0.071,0.049,-0.047,-0.013,0.06,-0.07,0.159,0.247,0.287,0.262,0.214
0.028,0.065,0.037,-0.046,-0.005,0.05,-0.06,0.148,0.241,0.28,0.261,0.21
0.017,0.044,0.027,-0.031,-0.006,0.035,-0.049,0.133,0.199,0.222,0.226,0.18
-0.018,0.001,0.018,0.008,-0.018,0.009,-0.025,0.117,0.137,0.16,0.156,0.125
-0.045,-0.053,-0.008,0.049,-0.019,-0.03,-0.002,0.101,0.069,0.09,0.087,0.074
-0.076,-0.111,-0.035,0.094,-0.02,-0.073,0.012,0.083,0.008,0.02,0.029,0.024
-0.078,-0.155,-0.077,0.117,0.0,-0.116,0.024,0.056,-0.045,-0.029,-0.021,-0.024
-0.088,-0.191,-0.102,0.139,0.007,-0.146,0.025,0.033,-0.083,-0.068,-0.056,-0.052
-0.109,-0.208,-0.099,0.158,-0.005,-0.153,0.025,0.026,-0.092,-0.094,-0.077,-0.058
-0.118,-0.218,-0.1,0.168,-0.008,-0.159,0.025,0.021,-0.1,-0.101,-0.085,-0.067
-0.122,-0.222,-0.1,0.172,-0.011,-0.161,0.025,0.016,-0.106,-0.1,-0.085,-0.07
-0.118,-0.218,-0.1,0.168,-0.009,-0.159,0.025,0.01,-0.103,-0.098,-0.085,-0.072
-0.115,-0.216,-0.102,0.166,-0.006,-0.159,0.021,0.005,-0.097,-0.095,-0.085,-0.075
-0.106,-0.214,-0.107,0.16,0.001,-0.16,0.02,0.012,-0.094,-0.095,-0.085,-0.078
-0.107,-0.216,-0.109,0.162,0.001,-0.162,0.02,0.023,-0.089,-0.092,-0.083,-0.081
-0.107,-0.214,-0.107,0.161,0.0,-0.16,0.02,0.027,-0.085,-0.089,-0.078,-0.076
-0.114,-0.216,-0.102,0.165,-0.005,-0.159,0.021,0.032,-0.09,-0.09,-0.075,-0.075
-0.112,-0.214,-0.102,0.163,-0.005,-0.157,0.019,0.035,-0.09,-0.09,-0.072,-0.075
-0.117,-0.213,-0.096,0.165,-0.01,-0.154,0.021,0.03,-0.091,-0.09,-0.067,-0.07
-0.132,-0.228,-0.096,0.181,-0.018,-0.162,0.019,0.025,-0.096,-0.09,-0.065,-0.07
-0.14,-0.231,-0.092,0.186,-0.024,-0.161,0.022,0.021,-0.094,-0.09,-0.07,-0.07
-0.145,-0.229,-0.084,0.187,-0.03,-0.156,0.035,0.016,-0.098,-0.091,-0.074,-0.07
-0.122,-0.231,-0.109,0.176,-0.007,-0.17,0.032,0.011,-0.099,-0.089,-0.078,-0.07
-0.122,-0.229,-0.107,0.175,-0.007,-0.168,0.026,0.007,-0.102,-0.097,-0.081,-0.07
-0.111,-0.232,-0.121,0.171,0.005,-0.176,0.023,0.003,-0.122,-0.111,-0.084,-0.071
-0.103,-0.234,-0.132,0.169,0.015,-0.183,0.018,0.0,-0.127,-0.116,-0.089,-0.069
-0.115,-0.237,-0.122,0.176,0.004,-0.179,0.013,-0.003,-0.128,-0.12,-0.09,-0.077
-0.114,-0.241,-0.126,0.178,0.006,-0.183,0.01,-0.008,-0.132,-0.116,-0.09,-0.086
-0.116,-0.236,-0.119,0.176,0.002,-0.177,0.01,-0.011,-0.135,-0.114,-0.09,-0.084
-0.101,-0.232,-0.131,0.166,0.015,-0.181,0.007,-0.003,-0.134,-0.115,-0.09,-0.088
-0.103,-0.227,-0.125,0.166,0.011,-0.176,0.006,0.005,-0.125,-0.111,-0.09,-0.09
-0.099,-0.223,-0.124,0.161,0.013,-0.174,0.003,0.013,-0.116,-0.11,-0.09,-0.091
-0.114,-0.217,-0.103,0.166,-0.005,-0.16,0.017,0.021,-0.104,-0.109,-0.082,-0.085
-0.137,-0.196,-0.059,0.167,-0.039,-0.127,0.035,0.026,-0.103,-0.097,-0.073,-0.076
-0.099,-0.172,-0.073,0.135,-0.013,-0.122,0.056,0.039,-0.105,-0.085,-0.061,-0.067
-0.08,-0.158,-0.078,0.12,-0.001,-0.118,0.059,0.033,-0.109,-0.085,-0.058,-0.06
-0.088,-0.147,-0.058,0.118,-0.014,-0.102,0.022,0.011,-0.111,-0.08,-0.06,-0.06
-0.064,-0.143,-0.079,0.103,0.008,-0.111,0.003,0.007,-0.114,-0.078,-0.059,-0.059
-0.083,-0.154,-0.071,0.119,-0.006,-0.112,-0.004,-0.002,-0.115,-0.075,-0.061,-0.061
-0.12,-0.178,-0.058,0.149,-0.031,-0.118,-0.008,-0.002,-0.106,-0.08,-0.059,-0.058
-0.138,-0.24,-0.101,0.189,-0.018,-0.171,-0.002,-0.011,-0.14,-0.121,-0.084,-0.071
-0.158,-0.267,-0.109,0.213,-0.024,-0.188,0.001,-0.013,-0.138,-0.118,-0.094,-0.082
-0.134,-0.279,-0.145,0.207,0.006,-0.212,0.003,-0.014,-0.157,-0.136,-0.11,-0.091
-0.145,-0.292,-0.147,0.219,0.001,-0.219,0.011,-0.01,-0.161,-0.145,-0.118,-0.096
-0.146,-0.295,-0.149,0.221,0.002,-0.222,0.008,-0.002,-0.158,-0.14,-0.114,-0.093
-0.137,-0.304,-0.167,0.221,0.015,-0.235,0.023,-0.01,-0.179,-0.155,-0.129,-0.098
-0.142,-0.3,-0.158,0.221,0.008,-0.228,0.021,0.012,-0.146,-0.127,-0.111,-0.094
-0.173,-0.437,-0.265,0.305,0.046,-0.351,0.08,0.108,-0.235,-0.268,-0.245,-0.207
-0.154,-0.459,-0.305,0.307,0.075,-0.381,0.222,0.41,-0.12,-0.274,-0.284,-0.251
0.046,0.052,0.005,-0.049,0.02,0.029,-0.005,0.058,0.13,0.188,0.213,0.194
0.167,0.851,0.684,-0.51,-0.259,0.767,-0.47,-0.862,0.73,1.168,1.133,0.948
0.079,0.857,0.777,-0.468,-0.349,0.817,-0.601,-1.052,0.747,1.233,1.187,0.969
-0.132,0.091,0.223,0.02,-0.178,0.157,-0.338,-0.711,-0.265,0.032,0.15,0.185
-0.215,-0.224,-0.01,0.219,-0.102,-0.117,-0.103,-0.275,-0.383,-0.288,-0.221,-0.145
-0.163,-0.202,-0.039,0.183,-0.062,-0.12,-0.043,-0.013,-0.132,-0.118,-0.101,-0.086
-0.163,-0.231,-0.068,0.198,-0.048,-0.149,0.002,0.016,-0.202,-0.187,-0.165,-0.13
