-0.02,0.03,0.05,-0.005,-0.035,0.04,0.0,0.059,-0.061,-0.095,-0.081,-0.076
-0.022,0.027,0.049,-0.002,-0.036,0.038,-0.001,0.036,-0.073,-0.102,-0.087,-0.084
-0.019,0.021,0.041,-0.001,-0.03,0.031,-0.004,0.013,-0.092,-0.116,-0.096,-0.091
-0.023,0.016,0.039,0.003,-0.031,0.027,-0.008,0.016,-0.1,-0.116,-0.102,-0.097
-0.011,0.01,0.02,0.0,-0.016,0.015,-0.01,0.014,-0.096,-0.115,-0.108,-0.104
0.006,0.005,-0.001,-0.005,0.003,0.002,-0.004,0.016,-0.091,-0.115,-0.11,-0.102
-0.033,0.0,0.034,0.016,-0.034,0.017,0.001,0.014,-0.086,-0.115,-0.11,-0.099
-0.03,0.0,0.029,0.015,-0.029,0.014,0.006,0.019,-0.087,-0.114,-0.11,-0.1
-0.018,0.0,0.018,0.009,-0.018,0.009,0.012,0.032,-0.091,-0.118,-0.11,-0.1
-0.027,0.0,0.026,0.013,-0.027,0.013,0.018,0.03,-0.09,-0.123,-0.11,-0.1
0.011,0.0,-0.01,-0.005,0.011,-0.005,0.018,0.03,-0.09,-0.119,-0.105,-0.099
0.027,-0.002,-0.03,-0.012,0.029,-0.016,0.014,0.026,-0.09,-0.12,-0.105,-0.094
0.017,-0.013,-0.03,-0.002,0.024,-0.021,0.015,0.024,-0.09,-0.116,-0.105,-0.091
-0.013,-0.021,-0.008,0.017,-0.002,-0.014,0.011,0.025,-0.094,-0.115,-0.105,-0.088
-0.034,-0.03,0.003,0.032,-0.018,-0.013,0.01,0.019,-0.097,-0.115,-0.105,-0.083
0.002,-0.039,-0.041,0.018,0.022,-0.04,0.01,0.013,-0.101,-0.11,-0.102,-0.08
0.0,-0.036,-0.035,0.018,0.018,-0.035,0.005,0.005,-0.104,-0.111,-0.1,-0.084
-0.001,-0.035,-0.033,0.018,0.016,-0.034,0.005,0.0,-0.108,-0.108,-0.1,-0.085
0.005,-0.035,-0.04,0.015,0.023,-0.038,0.005,-0.009,-0.11,-0.105,-0.1,-0.086
-0.001,-0.035,-0.034,0.018,0.017,-0.034,0.004,-0.026,-0.11,-0.104,-0.1,-0.09
0.019,-0.035,-0.054,0.008,0.037,-0.044,0.008,-0.031,-0.113,-0.109,-0.1,-0.089
0.013,-0.033,-0.046,0.01,0.03,-0.039,0.01,-0.029,-0.116,-0.12,-0.1,-0.092
0.017,-0.028,-0.045,0.006,0.031,-0.036,0.01,-0.03,-0.114,-0.12,-0.1,-0.095
0.016,-0.025,-0.041,0.005,0.029,-0.033,0.014,-0.03,-0.11,-0.12,-0.099,-0.095
0.009,-0.021,-0.031,0.006,0.02,-0.026,0.015,-0.03,-0.11,-0.118,-0.103,-0.095
0.007,-0.018,-0.025,0.006,0.016,-0.021,0.015,-0.024,-0.109,-0.114,-0.106,-0.095
0.005,-0.014,-0.019,0.004,0.012,-0.016,0.009,-0.017,-0.104,-0.115,-0.099,-0.095
0.011,-0.009,-0.02,-0.001,0.016,-0.014,0.007,-0.012,-0.106,-0.115,-0.096,-0.095
0.018,0.003,-0.015,-0.01,0.016,-0.006,-0.001,-0.003,-0.101,-0.115,-0.091,-0.095
0.023,0.007,-0.016,-0.015,0.019,-0.004,0.007,0.001,-0.087,-0.115,-0.087,-0.094
0.029,0.025,-0.004,-0.027,0.016,0.011,0.044,0.011,-0.074,-0.1,-0.082,-0.079
0.017,0.053,0.035,-0.035,-0.009,0.044,0.066,0.026,-0.052,-0.076,-0.066,-0.065
0.002,0.069,0.067,-0.036,-0.033,0.067,0.101,0.057,-0.033,-0.059,-0.053,-0.059
0.021,0.129,0.108,-0.075,-0.044,0.118,0.097,0.069,-0.029,-0.027,-0.039,-0.028
0.037,0.166,0.129,-0.102,-0.047,0.147,0.037,0.036,-0.03,-0.013,-0.023,-0.009
0.055,0.144,0.089,-0.1,-0.017,0.116,0.0,0.021,-0.031,-0.022,-0.018,-0.01
0.072,0.091,0.02,-0.081,0.026,0.055,-0.006,0.013,-0.037,-0.022,-0.021,-0.012
0.039,-0.01,-0.049,-0.014,0.043,-0.029,0.002,-0.007,-0.073,-0.07,-0.058,-0.055
-0.006,-0.08,-0.074,0.043,0.034,-0.077,0.004,-0.038,-0.114,-0.118,-0.1,-0.092
-0.016,-0.091,-0.074,0.054,0.029,-0.082,0.002,-0.054,-0.133,-0.13,-0.112,-0.097
-0.009,-0.099,-0.09,0.054,0.041,-0.094,-0.002,-0.059,-0.136,-0.142,-0.117,-0.104
-0.011,-0.098,-0.086,0.055,0.037,-0.092,-0.005,-0.051,-0.134,-0.139,-0.122,-0.105
-0.016,-0.091,-0.074,0.054,0.029,-0.082,-0.009,-0.052,-0.135,-0.141,-0.129,-0.115
-0.017,-0.083,-0.066,0.05,0.025,-0.074,-0.009,-0.048,-0.135,-0.14,-0.127,-0.124
-0.017,-0.07,-0.053,0.044,0.018,-0.061,-0.002,-0.042,-0.135,-0.139,-0.122,-0.125
-0.009,-0.071,-0.062,0.04,0.027,-0.066,0.003,-0.049,-0.133,-0.142,-0.124,-0.133
-0.019,-0.054,-0.034,0.036,0.008,-0.044,0.005,-0.024,-0.119,-0.136,-0.115,-0.128
0.021,-0.108,-0.129,0.044,0.076,-0.118,0.062,0.109,-0.091,-0.162,-0.162,-0.15
0.038,-0.018,-0.056,-0.01,0.047,-0.037,0.181,0.512,0.101,-0.086,-0.133,-0.122
0.156,0.597,0.441,-0.377,-0.142,0.519,-0.125,-0.469,0.867,0.646,0.497,0.373
0.26,1.396,1.136,-0.829,-0.438,1.266,-0.674,-2.799,1.101,1.483,1.326,1.063
-0.102,1.05,1.152,-0.474,-0.627,1.1,-0.779,-3.349,-0.368,0.691,0.832,0.723
-0.277,-0.137,0.14,0.207,-0.209,0.002,-0.66,-2.17,-1.22,-0.513,-0.245,-0.132
-0.12,-0.369,-0.25,0.245,0.065,-0.31,-0.32,-0.939,-0.586,-0.429,-0.326,-0.25
-0.044,-0.135,-0.091,0.09,0.024,-0.113,-0.003,-0.198,-0.195,-0.19,-0.159,-0.148
0.018,-0.104,-0.122,0.043,0.071,-0.113,0.01,0.025,-0.096,-0.151,-0.14,-0.132
0.01,-0.069,-0.079,0.029,0.044,-0.074,0.05,0.115,-0.054,-0.104,-0.1,-0.099
0.003,-0.086,-0.089,0.042,0.046,-0.087,0.067,0.155,-0.043,-0.114,-0.118,-0.105
0.005,-0.068,-0.073,0.032,0.039,-0.071,0.069,0.184,-0.019,-0.095,-0.104,-0.091
0.0,-0.067,-0.067,0.034,0.033,-0.067,0.072,0.211,-0.021,-0.1,-0.107,-0.092
-0.005,-0.067,-0.061,0.036,0.028,-0.063,0.068,0.231,-0.004,-0.087,-0.104,-0.082
0.017,-0.053,-0.069,0.018,0.043,-0.061,0.072,0.251,-0.001,-0.087,-0.102,-0.079
0.021,-0.038,-0.058,0.009,0.04,-0.048,0.069,0.261,0.018,-0.077,-0.09,-0.073
0.029,-0.027,-0.056,-0.001,0.043,-0.041,0.079,0.285,0.033,-0.067,-0.077,-0.065
0.051,-0.018,-0.069,-0.016,0.06,-0.043,0.075,0.314,0.06,-0.058,-0.068,-0.06
0.05,-0.008,-0.057,-0.021,0.054,-0.032,0.073,0.35,0.086,-0.046,-0.058,-0.052
0.072,0.0,-0.073,-0.036,0.073,-0.036,0.07,0.403,0.116,-0.028,-0.052,-0.046
0.062,0.004,-0.058,-0.032,0.059,-0.027,0.066,0.464,0.157,0.0,-0.039,-0.041
0.084,0.028,-0.056,-0.055,0.07,-0.014,0.065,0.54,0.205,0.019,-0.026,-0.033
0.101,0.055,-0.046,-0.077,0.073,0.004,0.06,0.623,0.261,0.05,0.007,-0.011
0.119,0.075,-0.044,-0.097,0.081,0.015,0.053,0.698,0.317,0.086,0.038,0.02
0.151,0.126,-0.025,-0.138,0.088,0.05,0.046,0.751,0.38,0.137,0.079,0.059
0.162,0.165,0.003,-0.163,0.079,0.084,0.039,0.768,0.434,0.191,0.128,0.094
0.2,0.206,0.006,-0.203,0.097,0.105,0.03,0.768,0.466,0.234,0.169,0.132
0.187,0.234,0.047,-0.21,0.07,0.14,0.027,0.72,0.479,0.266,0.189,0.157
0.167,0.229,0.062,-0.198,0.052,0.146,0.03,0.619,0.452,0.262,0.182,0.153
0.129,0.198,0.069,-0.164,0.03,0.134,0.034,0.499,0.358,0.22,0.166,0.131
0.086,0.14,0.054,-0.113,0.015,0.097,0.04,0.369,0.248,0.154,0.115,0.088
0.067,0.089,0.022,-0.079,0.023,0.056,0.042,0.259,0.144,0.09,0.062,0.041
0.022,0.043,0.022,-0.033,0.0,0.032,0.038,0.169,0.056,0.025,0.017,0.001
0.001,0.013,0.012,-0.008,-0.006,0.013,0.036,0.107,0.001,-0.018,-0.031,-0.032
-0.001,0.01,0.01,-0.005,-0.006,0.01,0.033,0.067,-0.039,-0.045,-0.06,-0.049
0.006,0.01,0.005,-0.008,0.0,0.007,0.03,0.041,-0.068,-0.068,-0.074,-0.063
-0.005,0.006,0.011,-0.001,-0.008,0.009,0.029,0.04,-0.082,-0.078,-0.078,-0.075
-0.019,0.005,0.023,0.007,-0.022,0.014,0.025,0.04,-0.08,-0.084,-0.086,-0.081
-0.014,0.005,0.019,0.004,-0.017,0.012,0.025,0.04,-0.08,-0.085,-0.09,-0.084
-0.016,0.005,0.021,0.006,-0.019,0.012,0.023,0.042,-0.08,-0.085,-0.089,-0.085
-0.012,0.005,0.017,0.003,-0.015,0.011,0.019,0.049,-0.08,-0.089,-0.092,-0.085
-0.01,0.005,0.015,0.002,-0.013,0.01,0.02,0.06,-0.079,-0.09,-0.095,-0.085
-0.01,0.005,0.015,0.002,-0.013,0.01,0.016,0.061,-0.074,-0.088,-0.095,-0.085
-0.006,0.005,0.012,0.0,-0.01,0.008,0.015,0.059,-0.071,-0.085,-0.092,-0.085
-0.005,0.003,0.007,0.001,-0.006,0.004,0.015,0.06,-0.068,-0.083,-0.089,-0.084
-0.006,-0.002,0.004,0.003,-0.005,0.001,0.015,0.059,-0.063,-0.08,-0.086,-0.08
-0.006,-0.005,0.001,0.005,-0.003,-0.002,0.016,0.06,-0.06,-0.076,-0.083,-0.081
-0.004,-0.008,-0.004,0.007,0.0,-0.006,0.013,0.057,-0.063,-0.075,-0.081,-0.078
-0.007,-0.013,-0.006,0.01,0.0,-0.009,0.01,0.047,-0.067,-0.071,-0.078,-0.074
0.003,-0.016,-0.019,0.007,0.012,-0.017,0.01,0.039,-0.069,-0.07,-0.075,-0.076
0.006,-0.019,-0.025,0.007,0.016,-0.022,0.01,0.03,-0.072,-0.07,-0.075,-0.071
0.004,-0.021,-0.025,0.009,0.015,-0.022,0.01,0.02,-0.077,-0.066,-0.075,-0.07
0.006,-0.019,-0.025,0.007,0.016,-0.021,0.01,0.015,-0.076,-0.064,-0.075,-0.07
-0.004,-0.028,-0.025,0.017,0.01,-0.026,0.014,0.012,-0.075,-0.067,-0.075,-0.066
0.003,-0.043,-0.046,0.02,0.024,-0.044,0.015,0.008,-0.075,-0.07,-0.079,-0.064
0.007,-0.044,-0.051,0.018,0.03,-0.047,0.015,0.004,-0.075,-0.07,-0.08,-0.066
0.004,-0.046,-0.049,0.021,0.027,-0.047,0.015,0.001,-0.075,-0.07,-0.08,-0.07
0.011,-0.044,-0.055,0.017,0.033,-0.05,0.015,-0.003,-0.079,-0.07,-0.084,-0.07
0.006,-0.049,-0.055,0.022,0.031,-0.052,0.014,-0.005,-0.088,-0.07,-0.085,-0.072
-0.01,-0.064,-0.054,0.037,0.022,-0.058,0.009,-0.005,-0.094,-0.066,-0.084,-0.075
-0.014,-0.063,-0.05,0.038,0.018,-0.056,0.006,-0.005,-0.095,-0.065,-0.08,-0.075
-0.01,-0.058,-0.048,0.035,0.019,-0.053,0.003,-0.005,-0.095,-0.065,-0.08,-0.071
-0.013,-0.057,-0.044,0.035,0.016,-0.05,-0.002,-0.004,-0.095,-0.06,-0.08,-0.07
-0.007,-0.05,-0.043,0.029,0.018,-0.047,-0.005,-0.002,-0.095,-0.06,-0.08,-0.07
-0.016,-0.053,-0.037,0.035,0.011,-0.045,-0.001,0.003,-0.095,-0.061,-0.08,-0.065
-0.021,-0.074,-0.053,0.048,0.016,-0.063,0.004,0.003,-0.096,-0.065,-0.077,-0.065
0.004,-0.071,-0.075,0.033,0.04,-0.073,0.007,0.009,-0.094,-0.064,-0.074,-0.064
0.019,-0.063,-0.082,0.022,0.051,-0.072,0.013,0.008,-0.098,-0.066,-0.071,-0.055
0.011,-0.06,-0.071,0.024,0.041,-0.065,0.018,0.021,-0.077,-0.052,-0.068,-0.046
0.017,-0.006,-0.023,-0.005,0.02,-0.015,0.048,0.061,-0.031,-0.009,-0.036,-0.033
0.018,0.017,-0.001,-0.018,0.009,0.008,0.085,0.085,-0.01,0.008,-0.006,-0.018
0.019,0.045,0.026,-0.032,-0.004,0.035,0.091,0.102,0.0,0.028,0.006,-0.005
0.039,0.085,0.045,-0.062,-0.003,0.064,0.059,0.097,0.016,0.05,0.019,0.005
0.068,0.049,-0.019,-0.058,0.043,0.015,0.013,0.084,0.02,0.04,0.01,0.017
0.095,-0.008,-0.103,-0.043,0.099,-0.055,-0.008,0.074,0.001,0.011,0.001,0.008
0.045,-0.082,-0.127,0.019,0.086,-0.104,-0.013,0.029,-0.048,-0.03,-0.023,-0.022
-0.005,-0.137,-0.131,0.071,0.063,-0.134,-0.007,-0.006,-0.082,-0.049,-0.065,-0.049
-0.014,-0.157,-0.143,0.086,0.065,-0.15,-0.007,-0.006,-0.092,-0.063,-0.077,-0.061
-0.007,-0.167,-0.16,0.087,0.077,-0.163,-0.027,-0.012,-0.104,-0.066,-0.08,-0.068
0.007,-0.148,-0.155,0.071,0.081,-0.152,-0.031,-0.009,-0.102,-0.064,-0.085,-0.077
-0.005,-0.139,-0.134,0.072,0.064,-0.136,-0.031,-0.01,-0.096,-0.091,-0.084,-0.085
-0.005,-0.143,-0.138,0.074,0.067,-0.14,-0.037,-0.012,-0.093,-0.096,-0.087,-0.089
-0.028,-0.135,-0.107,0.082,0.04,-0.121,-0.033,-0.007,-0.087,-0.096,-0.094,-0.087
-0.032,-0.147,-0.115,0.09,0.042,-0.131,-0.027,-0.014,-0.084,-0.104,-0.106,-0.086
-0.049,-0.131,-0.082,0.09,0.016,-0.106,-0.025,0.003,-0.078,-0.1,-0.091,-0.082
0.0,-0.151,-0.151,0.076,0.076,-0.151,0.021,0.116,-0.052,-0.112,-0.122,-0.111
0.043,-0.086,-0.128,0.022,0.085,-0.107,0.13,0.487,0.091,-0.057,-0.11,-0.109
0.129,0.45,0.321,-0.29,-0.096,0.385,-0.104,-0.217,0.8,0.576,0.425,0.317
0.269,1.271,1.003,-0.77,-0.367,1.137,-0.632,-2.474,1.199,1.498,1.322,1.072
-0.077,1.086,1.163,-0.505,-0.62,1.124,-0.777,-3.395,-0.139,0.915,1.024,0.882
-0.311,-0.08,0.231,0.195,-0.271,0.075,-0.672,-2.309,-1.174,-0.385,-0.138,-0.036
-0.149,-0.395,-0.246,0.272,0.049,-0.32,-0.386,-1.01,-0.628,-0.419,-0.327,-0.244
-0.086,-0.154,-0.068,0.12,-0.009,-0.111,-0.067,-0.209,-0.191,-0.15,-0.139,-0.122
-0.038,-0.125,-0.087,0.082,0.025,-0.106,-0.034,0.042,-0.088,-0.12,-0.133,-0.106
-0.011,-0.079,-0.068,0.045,0.029,-0.073,-0.012,0.122,-0.035,-0.064,-0.084,-0.076
0.005,-0.089,-0.094,0.042,0.05,-0.091,-0.003,0.177,-0.038,-0.078,-0.097,-0.091
0.008,-0.073,-0.081,0.032,0.045,-0.077,-0.001,0.196,-0.007,-0.057,-0.078,-0.079
0.014,-0.069,-0.084,0.028,0.049,-0.076,0.013,0.225,0.002,-0.059,-0.078,-0.081
0.018,-0.064,-0.082,0.023,0.05,-0.073,0.013,0.239,0.029,-0.047,-0.069,-0.08
0.021,-0.054,-0.075,0.016,0.048,-0.064,0.036,0.253,0.035,-0.044,-0.063,-0.076
0.032,-0.052,-0.084,0.01,0.058,-0.068,0.034,0.273,0.053,-0.036,-0.059,-0.07
0.033,-0.039,-0.072,0.003,0.052,-0.055,0.036,0.303,0.075,-0.024,-0.049,-0.061
0.042,-0.034,-0.076,-0.004,0.06,-0.055,0.035,0.33,0.095,-0.016,-0.045,-0.057
0.045,-0.023,-0.068,-0.011,0.057,-0.045,0.035,0.37,0.121,-0.004,-0.037,-0.048
0.058,-0.01,-0.068,-0.024,0.063,-0.039,0.034,0.413,0.146,0.005,-0.03,-0.045
0.067,0.002,-0.065,-0.034,0.066,-0.031,0.025,0.47,0.182,0.031,-0.02,-0.034
0.085,0.023,-0.062,-0.054,0.074,-0.019,0.02,0.54,0.223,0.043,-0.009,-0.026
0.105,0.046,-0.059,-0.075,0.082,-0.007,0.012,0.625,0.278,0.077,0.02,-0.006
0.127,0.073,-0.054,-0.1,0.09,0.009,0.004,0.703,0.336,0.114,0.047,0.026
0.171,0.125,-0.046,-0.148,0.108,0.04,-0.002,0.758,0.394,0.157,0.087,0.057
0.186,0.168,-0.018,-0.177,0.102,0.075,-0.009,0.789,0.462,0.212,0.136,0.097
0.192,0.205,0.013,-0.199,0.09,0.109,-0.014,0.776,0.506,0.258,0.179,0.139
0.202,0.237,0.035,-0.219,0.083,0.136,-0.017,0.752,0.506,0.296,0.212,0.161
0.19,0.246,0.056,-0.218,0.067,0.151,-0.023,0.674,0.479,0.291,0.214,0.154
0.167,0.219,0.052,-0.193,0.057,0.135,-0.024,0.547,0.41,0.255,0.19,0.146
0.122,0.161,0.039,-0.142,0.041,0.099,-0.009,0.425,0.297,0.198,0.151,0.116
0.067,0.091,0.024,-0.079,0.021,0.057,0.014,0.304,0.198,0.139,0.105,0.067
0.025,0.032,0.006,-0.029,0.009,0.019,0.03,0.214,0.121,0.084,0.056,0.025
0.003,-0.005,-0.009,0.001,0.006,-0.007,0.031,0.147,0.051,0.031,0.015,-0.008
-0.009,-0.032,-0.023,0.02,0.008,-0.027,0.029,0.096,0.003,-0.006,-0.022,-0.029
-0.016,-0.035,-0.019,0.026,0.002,-0.027,0.031,0.077,-0.024,-0.033,-0.046,-0.046
-0.023,-0.036,-0.013,0.03,-0.004,-0.025,0.029,0.074,-0.038,-0.04,-0.051,-0.054
-0.031,-0.041,-0.01,0.036,-0.01,-0.025,0.03,0.071,-0.041,-0.042,-0.05,-0.055
-0.035,-0.04,-0.004,0.038,-0.015,-0.022,0.033,0.068,-0.037,-0.046,-0.05,-0.055
-0.039,-0.04,-0.001,0.04,-0.019,-0.02,0.037,0.065,-0.035,-0.048,-0.058,-0.055
-0.037,-0.04,-0.003,0.039,-0.017,-0.021,0.044,0.066,-0.032,-0.051,-0.061,-0.054
-0.024,-0.04,-0.016,0.032,-0.004,-0.028,0.045,0.073,-0.03,-0.046,-0.055,-0.05
-0.025,-0.04,-0.015,0.032,-0.005,-0.027,0.052,0.071,-0.027,-0.04,-0.053,-0.05
-0.016,-0.04,-0.024,0.028,0.004,-0.032,0.061,0.069,-0.024,-0.035,-0.048,-0.05
0.005,-0.04,-0.045,0.018,0.025,-0.042,0.06,0.07,-0.021,-0.029,-0.045,-0.05
0.006,-0.04,-0.047,0.017,0.027,-0.043,0.056,0.065,-0.018,-0.023,-0.049,-0.05
-0.005,-0.047,-0.042,0.026,0.019,-0.044,0.055,0.065,-0.015,-0.021,-0.05,-0.05
-0.003,-0.055,-0.052,0.03,0.024,-0.053,0.055,0.064,-0.016,-0.025,-0.05,-0.05
0.005,-0.059,-0.065,0.027,0.035,-0.062,0.05,0.056,-0.023,-0.027,-0.055,-0.05
-0.014,-0.063,-0.049,0.039,0.018,-0.056,0.05,0.048,-0.029,-0.03,-0.055,-0.05
-0.024,-0.066,-0.042,0.046,0.009,-0.054,0.05,0.04,-0.033,-0.033,-0.056,-0.05
-0.017,-0.063,-0.046,0.041,0.015,-0.054,0.05,0.032,-0.036,-0.036,-0.06,-0.05
-0.016,-0.06,-0.044,0.039,0.014,-0.052,0.05,0.026,-0.042,-0.038,-0.059,-0.05
-0.009,-0.058,-0.049,0.033,0.02,-0.053,0.05,0.022,-0.049,-0.041,-0.063,-0.05
-0.004,-0.054,-0.05,0.029,0.024,-0.052,0.05,0.019,-0.047,-0.044,-0.065,-0.05
-0.008,-0.058,-0.05,0.033,0.021,-0.054,0.05,0.015,-0.045,-0.047,-0.065,-0.05
-0.01,-0.06,-0.05,0.035,0.02,-0.055,0.046,0.012,-0.045,-0.05,-0.065,-0.05
-0.009,-0.06,-0.05,0.034,0.021,-0.055,0.044,0.008,-0.045,-0.049,-0.065,-0.046
-0.015,-0.064,-0.049,0.039,0.017,-0.056,0.045,0.005,-0.045,-0.045,-0.065,-0.045
-0.014,-0.065,-0.052,0.039,0.02,-0.058,0.045,0.005,-0.046,-0.045,-0.065,-0.045
-0.018,-0.065,-0.047,0.042,0.015,-0.056,0.046,0.003,-0.05,-0.045,-0.065,-0.045
-0.014,-0.069,-0.055,0.042,0.02,-0.062,0.043,-0.001,-0.05,-0.045,-0.065,-0.045
-0.021,-0.072,-0.051,0.046,0.015,-0.061,0.04,0.0,-0.049,-0.045,-0.065,-0.046
-0.032,-0.074,-0.043,0.053,0.006,-0.058,0.04,0.003,-0.055,-0.042,-0.065,-0.051
-0.012,-0.078,-0.066,0.046,0.027,-0.072,0.038,0.005,-0.063,-0.037,-0.065,-0.054
-0.015,-0.079,-0.065,0.047,0.025,-0.071,0.034,0.005,-0.058,-0.034,-0.065,-0.052
-0.018,-0.083,-0.065,0.051,0.024,-0.074,0.035,0.005,-0.054,-0.031,-0.065,-0.047
-0.02,-0.084,-0.064,0.052,0.023,-0.074,0.038,0.005,-0.049,-0.026,-0.06,-0.044
-0.024,-0.09,-0.066,0.058,0.021,-0.077,0.041,0.005,-0.045,-0.025,-0.052,-0.04
-0.026,-0.088,-0.062,0.057,0.018,-0.075,0.045,0.011,-0.041,-0.018,-0.044,-0.037
-0.029,-0.087,-0.058,0.058,0.015,-0.072,0.046,0.008,-0.034,-0.023,-0.036,-0.034
-0.01,-0.067,-0.057,0.039,0.024,-0.061,0.062,0.026,-0.021,-0.006,-0.029,-0.027
-0.002,-0.011,-0.008,0.007,0.003,-0.009,0.098,0.066,0.01,0.034,-0.018,-0.019
0.003,0.027,0.024,-0.015,-0.011,0.025,0.119,0.077,0.019,0.039,-0.005,-0.013
0.014,0.083,0.069,-0.049,-0.028,0.076,0.103,0.083,0.042,0.062,0.006,-0.005
0.031,0.112,0.081,-0.072,-0.025,0.096,0.052,0.076,0.056,0.085,0.02,-0.001
0.067,0.082,0.016,-0.074,0.025,0.048,0.01,0.062,0.037,0.07,0.027,0.007
0.071,0.027,-0.044,-0.049,0.057,-0.008,0.004,0.035,0.016,0.036,0.007,0.008
0.026,-0.045,-0.071,0.01,0.049,-0.058,0.005,-0.007,-0.037,-0.003,-0.025,-0.024
-0.02,-0.089,-0.069,0.054,0.025,-0.079,0.005,-0.028,-0.067,-0.033,-0.056,-0.058
-0.03,-0.105,-0.075,0.068,0.023,-0.09,0.005,-0.045,-0.082,-0.051,-0.067,-0.067
-0.03,-0.112,-0.082,0.071,0.026,-0.097,0.005,-0.053,-0.092,-0.05,-0.07,-0.071
-0.032,-0.109,-0.077,0.071,0.022,-0.092,0.002,-0.045,-0.089,-0.049,-0.07,-0.069
-0.034,-0.105,-0.071,0.07,0.019,-0.088,0.0,-0.045,-0.09,-0.051,-0.07,-0.07
-0.03,-0.105,-0.075,0.067,0.022,-0.089,-0.004,-0.039,-0.09,-0.049,-0.071,-0.07
-0.038,-0.095,-0.057,0.067,0.01,-0.076,-0.005,-0.036,-0.09,-0.052,-0.068,-0.069
-0.027,-0.101,-0.074,0.064,0.024,-0.088,-0.009,-0.033,-0.087,-0.057,-0.07,-0.072
-0.015,-0.09,-0.075,0.053,0.03,-0.082,-0.013,-0.031,-0.076,-0.052,-0.059,-0.059
0.012,-0.136,-0.148,0.062,0.08,-0.141,0.042,0.1,-0.034,-0.071,-0.098,-0.09
0.016,-0.078,-0.094,0.031,0.055,-0.086,0.156,0.474,0.132,-0.009,-0.068,-0.081
0.145,0.499,0.354,-0.322,-0.105,0.426,-0.102,-0.326,0.879,0.678,0.515,0.387
0.262,1.31,1.048,-0.786,-0.393,1.178,-0.605,-2.537,1.184,1.55,1.376,1.118
-0.115,1.03,1.145,-0.457,-0.63,1.087,-0.713,-3.346,-0.218,0.866,0.977,0.853
-0.318,-0.153,0.165,0.235,-0.241,0.006,-0.628,-2.233,-1.126,-0.366,-0.14,-0.049
-0.148,-0.428,-0.28,0.288,0.067,-0.354,-0.329,-0.957,-0.548,-0.339,-0.268,-0.214
-0.08,-0.195,-0.115,0.138,0.018,-0.155,-0.012,-0.198,-0.144,-0.088,-0.092,-0.095
-0.02,-0.174,-0.154,0.097,0.067,-0.163,-0.005,0.038,-0.049,-0.053,-0.077,-0.073
-0.008,-0.125,-0.117,0.067,0.054,-0.12,0.031,0.115,-0.001,0.0,-0.034,-0.04
-0.005,-0.136,-0.131,0.071,0.063,-0.133,0.058,0.178,0.01,-0.018,-0.053,-0.057
-0.001,-0.119,-0.119,0.06,0.059,-0.119,0.059,0.191,0.034,-0.004,-0.04,-0.043
-0.002,-0.116,-0.114,0.06,0.056,-0.115,0.072,0.219,0.033,-0.009,-0.047,-0.047
0.001,-0.11,-0.112,0.055,0.057,-0.111,0.067,0.228,0.049,-0.003,-0.045,-0.044
-0.01,-0.093,-0.082,0.052,0.036,-0.087,0.072,0.236,0.058,-0.005,-0.042,-0.041
-0.004,-0.084,-0.08,0.044,0.039,-0.082,0.073,0.258,0.075,0.005,-0.034,-0.037
-0.003,-0.066,-0.063,0.035,0.031,-0.064,0.076,0.273,0.084,0.016,-0.023,-0.03
0.021,-0.059,-0.079,0.019,0.05,-0.069,0.075,0.306,0.105,0.024,-0.018,-0.029
0.048,-0.042,-0.09,-0.003,0.069,-0.066,0.075,0.352,0.134,0.038,-0.006,-0.021
0.049,-0.012,-0.061,-0.018,0.055,-0.036,0.075,0.385,0.15,0.038,0.001,-0.019
0.066,0.02,-0.046,-0.043,0.056,-0.013,0.089,0.437,0.183,0.059,0.013,-0.01
0.089,0.034,-0.054,-0.062,0.071,-0.01,0.084,0.506,0.23,0.079,0.02,0.0
0.093,0.059,-0.034,-0.076,0.063,0.012,0.067,0.586,0.28,0.106,0.036,0.009
0.13,0.107,-0.023,-0.118,0.076,0.042,0.059,0.667,0.333,0.144,0.072,0.028
0.171,0.15,-0.021,-0.161,0.096,0.064,0.051,0.723,0.388,0.188,0.113,0.062
0.185,0.19,0.004,-0.188,0.09,0.097,0.044,0.75,0.436,0.238,0.153,0.102
0.212,0.241,0.028,-0.227,0.092,0.134,0.042,0.737,0.465,0.278,0.196,0.136
0.207,0.266,0.06,-0.237,0.073,0.163,0.046,0.709,0.472,0.313,0.232,0.157
0.164,0.257,0.094,-0.211,0.035,0.175,0.045,0.636,0.454,0.319,0.239,0.155
0.153,0.244,0.091,-0.199,0.031,0.167,0.048,0.512,0.388,0.283,0.211,0.146
0.12,0.197,0.077,-0.159,0.022,0.137,0.051,0.389,0.289,0.22,0.162,0.116
0.052,0.132,0.08,-0.093,-0.014,0.106,0.049,0.266,0.195,0.149,0.111,0.066
0.028,0.084,0.056,-0.056,-0.014,0.069,0.058,0.171,0.116,0.085,0.07,0.021
0.004,0.041,0.037,-0.023,-0.017,0.039,0.065,0.115,0.051,0.042,0.033,-0.014
-0.031,0.003,0.034,0.014,-0.033,0.019,0.065,0.074,0.01,0.016,0.007,-0.031
-0.037,-0.024,0.013,0.03,-0.024,-0.005,0.068,0.036,-0.009,0.002,-0.007,-0.043
-0.042,-0.026,0.017,0.034,-0.029,-0.005,0.076,0.022,-0.019,-0.003,-0.019,-0.052
-0.016,-0.024,-0.008,0.02,-0.004,-0.016,0.083,0.03,-0.025,-0.006,-0.02,-0.051
0.01,-0.027,-0.037,0.008,0.024,-0.031,0.083,0.027,-0.035,-0.01,-0.019,-0.05
0.0,-0.023,-0.023,0.011,0.012,-0.023,0.079,0.024,-0.039,-0.013,-0.029,-0.05
0.006,-0.03,-0.037,0.012,0.022,-0.033,0.077,0.042,-0.034,-0.017,-0.031,-0.05
-0.001,-0.044,-0.043,0.022,0.022,-0.043,0.074,0.061,-0.028,-0.02,-0.03,-0.05
0.006,-0.047,-0.053,0.021,0.029,-0.049,0.071,0.057,-0.025,-0.02,-0.03,-0.048
0.0,-0.049,-0.049,0.025,0.024,-0.049,0.069,0.054,-0.02,-0.02,-0.03,-0.045
-0.037,-0.053,-0.016,0.045,-0.011,-0.034,0.066,0.051,-0.015,-0.02,-0.03,-0.042
-0.015,-0.055,-0.04,0.035,0.013,-0.047,0.063,0.046,-0.02,-0.02,-0.027,-0.039
0.028,-0.057,-0.085,0.015,0.057,-0.071,0.06,0.044,-0.028,-0.017,-0.024,-0.036
0.023,-0.062,-0.085,0.02,0.054,-0.073,0.057,0.036,-0.036,-0.012,-0.021,-0.035
0.019,-0.066,-0.085,0.024,0.053,-0.075,0.055,0.029,-0.041,-0.009,-0.018,-0.04
0.021,-0.069,-0.091,0.024,0.056,-0.08,0.053,0.022,-0.039,-0.006,-0.015,-0.04
0.014,-0.074,-0.088,0.03,0.052,-0.081,0.047,0.014,-0.043,-0.001,-0.016,-0.04
0.02,-0.073,-0.093,0.026,0.057,-0.083,0.042,0.007,-0.045,-0.001,-0.023,-0.041
0.008,-0.068,-0.076,0.03,0.042,-0.072,0.039,0.001,-0.045,-0.006,-0.029,-0.039
-0.006,-0.065,-0.059,0.036,0.027,-0.062,0.034,-0.004,-0.049,-0.011,-0.034,-0.044
-0.002,-0.062,-0.06,0.032,0.029,-0.061,0.03,-0.008,-0.056,-0.015,-0.035,-0.05
-0.006,-0.057,-0.051,0.032,0.023,-0.054,0.025,-0.013,-0.06,-0.02,-0.036,-0.052
-0.007,-0.055,-0.048,0.031,0.021,-0.051,0.025,-0.017,-0.06,-0.025,-0.039,-0.055
-0.018,-0.06,-0.042,0.039,0.012,-0.051,0.024,-0.022,-0.063,-0.029,-0.041,-0.058
-0.026,-0.06,-0.035,0.043,0.005,-0.047,0.02,-0.025,-0.065,-0.03,-0.038,-0.061
-0.004,-0.06,-0.056,0.032,0.026,-0.057,0.02,-0.025,-0.065,-0.03,-0.035,-0.056
0.006,-0.06,-0.067,0.027,0.037,-0.063,0.018,-0.025,-0.065,-0.03,-0.035,-0.055
0.005,-0.059,-0.065,0.028,0.035,-0.062,0.012,-0.025,-0.065,-0.03,-0.033,-0.055
0.002,-0.063,-0.064,0.031,0.033,-0.063,0.007,-0.025,-0.065,-0.03,-0.029,-0.05
0.002,-0.065,-0.068,0.032,0.035,-0.066,0.004,-0.021,-0.065,-0.03,-0.03,-0.05
0.019,-0.065,-0.084,0.024,0.052,-0.074,-0.002,-0.02,-0.065,-0.03,-0.033,-0.05
0.022,-0.065,-0.086,0.022,0.055,-0.076,-0.005,-0.019,-0.063,-0.03,-0.035,-0.05
0.018,-0.065,-0.083,0.024,0.051,-0.074,0.001,-0.016,-0.06,-0.03,-0.035,-0.05
0.017,-0.064,-0.082,0.024,0.05,-0.073,0.008,-0.014,-0.057,-0.03,-0.035,-0.05
0.006,-0.071,-0.078,0.032,0.042,-0.075,0.014,-0.017,-0.055,-0.026,-0.035,-0.05
0.009,-0.073,-0.082,0.032,0.046,-0.077,0.021,-0.019,-0.051,-0.025,-0.035,-0.05
0.022,-0.065,-0.087,0.022,0.055,-0.076,0.026,-0.023,-0.05,-0.025,-0.034,-0.046
0.001,-0.06,-0.061,0.03,0.032,-0.061,0.024,-0.025,-0.046,-0.021,-0.03,-0.04
0.001,-0.051,-0.052,0.025,0.027,-0.051,0.026,-0.025,-0.034,-0.02,-0.027,-0.035
0.011,-0.049,-0.06,0.02,0.035,-0.054,0.024,-0.023,-0.026,-0.019,-0.026,-0.029
0.018,-0.012,-0.03,-0.003,0.024,-0.02,0.043,0.011,-0.014,0.005,-0.015,-0.024
0.034,0.029,-0.005,-0.032,0.02,0.012,0.08,0.046,-0.003,0.037,0.009,-0.019
0.023,0.063,0.04,-0.044,-0.009,0.052,0.085,0.063,0.019,0.056,0.036,-0.004
0.039,0.124,0.085,-0.082,-0.023,0.105,0.065,0.051,0.05,0.064,0.045,0.011
0.071,0.129,0.059,-0.1,0.005,0.094,0.012,0.014,0.04,0.06,0.032,0.012
0.078,0.077,-0.001,-0.078,0.039,0.038,-0.026,-0.002,0.029,0.052,0.021,0.012
0.045,-0.007,-0.052,-0.019,0.049,-0.029,-0.018,-0.011,-0.002,0.021,0.009,-0.008
0.006,-0.075,-0.081,0.035,0.044,-0.078,-0.02,-0.033,-0.051,-0.018,-0.017,-0.05
-0.008,-0.107,-0.099,0.058,0.046,-0.103,-0.02,-0.053,-0.071,-0.042,-0.044,-0.061
-0.02,-0.126,-0.106,0.073,0.043,-0.116,-0.02,-0.056,-0.081,-0.052,-0.045,-0.061
-0.026,-0.134,-0.108,0.081,0.041,-0.12,-0.019,-0.056,-0.078,-0.049,-0.046,-0.066
-0.034,-0.117,-0.082,0.076,0.024,-0.099,-0.021,-0.053,-0.086,-0.054,-0.059,-0.067
-0.018,-0.103,-0.085,0.06,0.034,-0.093,-0.017,-0.058,-0.096,-0.056,-0.068,-0.073
-0.027,-0.098,-0.071,0.063,0.022,-0.084,-0.014,-0.051,-0.093,-0.053,-0.066,-0.074
-0.028,-0.101,-0.073,0.065,0.023,-0.087,-0.033,-0.061,-0.088,-0.058,-0.075,-0.08
-0.033,-0.101,-0.068,0.067,0.017,-0.084,-0.028,-0.057,-0.089,-0.059,-0.074,-0.081
-0.029,-0.096,-0.067,0.063,0.019,-0.081,-0.019,-0.02,-0.068,-0.065,-0.079,-0.088
0.043,-0.119,-0.162,0.038,0.103,-0.14,0.086,0.253,-0.018,-0.074,-0.118,-0.13
0.05,0.134,0.084,-0.092,-0.017,0.109,0.096,0.349,0.392,0.196,0.094,0.03
0.246,0.93,0.684,-0.588,-0.219,0.807,-0.377,-1.248,1.218,1.152,0.961,0.746
0.151,1.416,1.266,-0.783,-0.558,1.341,-0.729,-3.172,0.723,1.478,1.427,1.16
-0.284,0.526,0.81,-0.121,-0.547,0.667,-0.676,-2.969,-0.841,0.21,0.427,0.402
-0.241,-0.383,-0.142,0.312,-0.049,-0.262,-0.538,-1.641,-0.956,-0.501,-0.335,-0.239
-0.116,-0.274,-0.158,0.196,0.021,-0.216,-0.171,-0.586,-0.313,-0.207,-0.18,-0.168
-0.062,-0.134,-0.072,0.099,0.005,-0.103,0.022,-0.079,-0.115,-0.098,-0.105,-0.099
-0.008,-0.11,-0.101,0.059,0.047,-0.105,0.0,0.04,-0.028,-0.043,-0.068,-0.077
-0.029,-0.098,-0.069,0.064,0.02,-0.083,0.042,0.118,-0.013,-0.041,-0.055,-0.076
-0.001,-0.103,-0.102,0.053,0.05,-0.102,0.043,0.146,0.012,-0.04,-0.056,-0.074
0.005,-0.086,-0.09,0.041,0.048,-0.088,0.053,0.172,0.02,-0.028,-0.043,-0.066
0.004,-0.091,-0.095,0.044,0.05,-0.093,0.049,0.19,0.028,-0.032,-0.045,-0.068
0.008,-0.077,-0.085,0.034,0.047,-0.081,0.052,0.203,0.046,-0.019,-0.033,-0.059
0.014,-0.074,-0.087,0.03,0.051,-0.08,0.057,0.23,0.062,-0.019,-0.034,-0.056
0.016,-0.063,-0.08,0.023,0.048,-0.071,0.053,0.239,0.073,-0.002,-0.023,-0.049
0.02,-0.056,-0.076,0.018,0.049,-0.066,0.057,0.266,0.084,0.003,-0.021,-0.045
0.023,-0.049,-0.071,0.013,0.047,-0.06,0.053,0.299,0.116,0.018,-0.014,-0.038
0.03,-0.041,-0.071,0.005,0.051,-0.056,0.058,0.338,0.139,0.035,-0.008,-0.034
0.043,-0.029,-0.072,-0.007,0.057,-0.05,0.072,0.39,0.176,0.046,-0.003,-0.025
0.047,-0.023,-0.069,-0.012,0.058,-0.046,0.069,0.453,0.22,0.071,0.018,-0.013
0.072,0.002,-0.07,-0.036,0.071,-0.034,0.058,0.529,0.27,0.103,0.034,0.007
0.098,0.027,-0.071,-0.062,0.084,-0.022,0.051,0.607,0.319,0.126,0.057,0.028
0.126,0.063,-0.063,-0.094,0.094,0.0,0.04,0.678,0.38,0.176,0.099,0.061
0.161,0.134,-0.027,-0.147,0.093,0.053,0.032,0.721,0.422,0.21,0.126,0.09
0.184,0.188,0.004,-0.186,0.09,0.096,0.018,0.728,0.457,0.244,0.161,0.118
0.199,0.231,0.032,-0.215,0.083,0.131,0.01,0.717,0.485,0.297,0.206,0.163
0.185,0.257,0.072,-0.221,0.056,0.164,0.01,0.677,0.474,0.312,0.228,0.164
0.17,0.255,0.085,-0.213,0.042,0.17,0.01,0.585,0.442,0.306,0.221,0.145
0.136,0.211,0.075,-0.174,0.031,0.142,0.021,0.457,0.359,0.26,0.185,0.13
0.087,0.153,0.066,-0.12,0.01,0.109,0.04,0.335,0.255,0.197,0.135,0.096
0.051,0.108,0.058,-0.08,-0.004,0.083,0.058,0.227,0.165,0.129,0.08,0.051
0.018,0.066,0.048,-0.043,-0.015,0.057,0.061,0.134,0.087,0.059,0.029,0.006
-0.001,0.039,0.04,-0.019,-0.021,0.039,0.062,0.072,0.031,0.014,-0.013,-0.037
-0.014,0.019,0.033,-0.002,-0.024,0.025,0.066,0.034,-0.003,-0.01,-0.042,-0.061
-0.023,0.003,0.025,0.01,-0.024,0.014,0.065,0.019,-0.022,-0.015,-0.051,-0.059
-0.028,-0.009,0.019,0.018,-0.023,0.004,0.074,0.02,-0.037,-0.023,-0.053,-0.061
-0.025,-0.016,0.009,0.021,-0.017,-0.003,0.088,0.02,-0.05,-0.029,-0.056,-0.059
-0.03,-0.02,0.01,0.024,-0.02,-0.004,0.097,0.02,-0.048,-0.036,-0.055,-0.063
-0.044,-0.023,0.021,0.033,-0.032,-0.001,0.099,0.02,-0.044,-0.039,-0.055,-0.071
-0.041,-0.025,0.016,0.033,-0.028,-0.004,0.095,0.02,-0.041,-0.034,-0.055,-0.07
-0.039,-0.025,0.014,0.031,-0.026,-0.006,0.095,0.02,-0.036,-0.036,-0.055,-0.069
-0.034,-0.025,0.009,0.03,-0.021,-0.007,0.095,0.02,-0.036,-0.032,-0.055,-0.066
-0.031,-0.025,0.006,0.027,-0.018,-0.01,0.095,0.02,-0.04,-0.03,-0.055,-0.064
-0.028,-0.025,0.003,0.026,-0.015,-0.011,0.095,0.02,-0.04,-0.03,-0.055,-0.067
-0.017,-0.025,-0.008,0.021,-0.004,-0.016,0.092,0.02,-0.043,-0.034,-0.055,-0.07
-0.009,-0.025,-0.016,0.017,0.004,-0.02,0.087,0.013,-0.046,-0.035,-0.055,-0.07
0.007,-0.025,-0.032,0.009,0.02,-0.028,0.084,0.005,-0.045,-0.035,-0.055,-0.072
0.01,-0.025,-0.036,0.008,0.024,-0.031,0.081,-0.004,-0.049,-0.04,-0.055,-0.076
0.01,-0.025,-0.035,0.008,0.023,-0.03,0.076,-0.01,-0.056,-0.04,-0.055,-0.075
0.002,-0.03,-0.032,0.014,0.017,-0.031,0.076,-0.019,-0.06,-0.041,-0.055,-0.079
-0.009,-0.038,-0.029,0.023,0.01,-0.033,0.077,-0.034,-0.06,-0.045,-0.055,-0.08
-0.013,-0.045,-0.031,0.029,0.009,-0.038,0.072,-0.035,-0.06,-0.045,-0.055,-0.08
-0.036,-0.056,-0.02,0.046,-0.007,-0.038,0.069,-0.035,-0.061,-0.045,-0.055,-0.08
-0.032,-0.06,-0.028,0.046,-0.002,-0.044,0.066,-0.035,-0.061,-0.049,-0.051,-0.08
-0.023,-0.063,-0.04,0.043,0.009,-0.051,0.06,-0.035,-0.06,-0.05,-0.05,-0.079
-0.021,-0.065,-0.044,0.043,0.012,-0.054,0.065,-0.035,-0.06,-0.05,-0.05,-0.075
-0.016,-0.072,-0.056,0.044,0.02,-0.064,0.076,-0.03,-0.06,-0.05,-0.05,-0.075
-0.029,-0.086,-0.057,0.058,0.014,-0.071,0.075,-0.03,-0.06,-0.049,-0.05,-0.073
-0.042,-0.092,-0.05,0.068,0.004,-0.071,0.075,-0.028,-0.059,-0.052,-0.051,-0.069
-0.023,-0.09,-0.067,0.057,0.022,-0.078,0.075,-0.025,-0.056,-0.055,-0.055,-0.071
-0.028,-0.088,-0.059,0.058,0.016,-0.073,0.075,-0.024,-0.049,-0.058,-0.058,-0.066
-0.043,-0.085,-0.042,0.064,0.0,-0.063,0.073,-0.034,-0.061,-0.06,-0.06,-0.065
-0.027,-0.081,-0.054,0.054,0.014,-0.068,0.067,-0.042,-0.072,-0.063,-0.064,-0.065
-0.039,-0.08,-0.041,0.06,0.001,-0.06,0.063,-0.037,-0.069,-0.066,-0.065,-0.06
-0.022,-0.076,-0.054,0.049,0.017,-0.064,0.058,-0.035,-0.068,-0.061,-0.065,-0.06
-0.013,-0.076,-0.063,0.045,0.025,-0.069,0.054,-0.031,-0.064,-0.06,-0.065,-0.059
-0.016,-0.073,-0.057,0.045,0.021,-0.065,0.05,-0.03,-0.066,-0.06,-0.065,-0.055
-0.008,-0.072,-0.064,0.04,0.028,-0.068,0.055,-0.026,-0.06,-0.055,-0.065,-0.053
-0.013,-0.068,-0.054,0.041,0.02,-0.061,0.06,-0.016,-0.052,-0.055,-0.065,-0.05
-0.002,-0.071,-0.069,0.036,0.034,-0.07,0.062,-0.007,-0.045,-0.054,-0.065,-0.047
-0.027,-0.038,-0.011,0.032,-0.008,-0.024,0.074,0.002,-0.036,-0.03,-0.05,-0.045
-0.016,0.042,0.058,-0.014,-0.037,0.05,0.097,0.018,-0.029,-0.014,-0.038,-0.049
-0.011,0.066,0.077,-0.028,-0.044,0.072,0.118,0.037,-0.013,-0.015,-0.014,-0.049
-0.016,0.113,0.129,-0.048,-0.073,0.121,0.111,0.036,0.001,0.021,0.02,-0.018
0.017,0.155,0.139,-0.086,-0.061,0.147,0.074,0.025,0.01,0.035,0.013,-0.003
0.036,0.121,0.085,-0.078,-0.025,0.103,0.036,0.015,0.017,0.017,0.001,-0.012
0.026,0.056,0.03,-0.041,-0.002,0.043,0.023,0.003,-0.012,0.005,-0.023,-0.017
-0.024,-0.012,0.012,0.018,-0.018,0.0,0.021,-0.028,-0.066,-0.041,-0.065,-0.06
-0.054,-0.064,-0.011,0.059,-0.021,-0.037,0.017,-0.061,-0.087,-0.076,-0.078,-0.096
-0.051,-0.096,-0.044,0.074,-0.003,-0.07,0.014,-0.068,-0.092,-0.085,-0.085,-0.094
-0.029,-0.104,-0.075,0.066,0.023,-0.089,0.009,-0.075,-0.096,-0.091,-0.093,-0.096
-0.034,-0.1,-0.066,0.067,0.016,-0.083,0.015,-0.057,-0.09,-0.089,-0.089,-0.094
-0.032,-0.11,-0.078,0.072,0.024,-0.094,0.022,-0.067,-0.089,-0.091,-0.091,-0.096
-0.043,-0.116,-0.073,0.08,0.015,-0.095,0.03,-0.049,-0.082,-0.089,-0.089,-0.094
-0.056,-0.127,-0.071,0.092,0.008,-0.099,0.023,-0.054,-0.08,-0.091,-0.09,-0.095
-0.054,-0.128,-0.074,0.091,0.01,-0.101,0.023,-0.046,-0.084,-0.093,-0.091,-0.096
-0.06,-0.124,-0.064,0.092,0.002,-0.094,0.021,-0.02,-0.076,-0.092,-0.086,-0.092
-0.002,-0.158,-0.156,0.08,0.077,-0.156,0.12,0.206,-0.012,-0.091,-0.128,-0.127
0.001,0.073,0.072,-0.037,-0.035,0.072,0.185,0.535,0.365,0.117,0.021,-0.021
0.178,0.833,0.655,-0.506,-0.239,0.744,-0.266,-0.852,1.241,1.049,0.842,0.638
0.136,1.433,1.297,-0.785,-0.581,1.365,-0.678,-2.874,0.971,1.55,1.393,1.115
-0.281,0.7,0.981,-0.21,-0.631,0.841,-0.638,-2.9,-0.715,0.346,0.511,0.447
-0.282,-0.317,-0.034,0.299,-0.124,-0.176,-0.523,-1.756,-1.049,-0.501,-0.306,-0.211
-0.144,-0.343,-0.199,0.244,0.028,-0.271,-0.204,-0.713,-0.389,-0.261,-0.226,-0.186
-0.074,-0.186,-0.112,0.131,0.019,-0.149,0.017,-0.156,-0.162,-0.154,-0.13,-0.122
-0.015,-0.136,-0.121,0.076,0.053,-0.128,0.017,0.032,-0.033,-0.096,-0.09,-0.082
-0.029,-0.117,-0.088,0.074,0.03,-0.103,0.064,0.11,-0.022,-0.076,-0.08,-0.083
0.0,-0.123,-0.123,0.061,0.062,-0.123,0.069,0.136,0.01,-0.071,-0.079,-0.083
-0.014,-0.098,-0.083,0.056,0.035,-0.09,0.071,0.162,0.022,-0.053,-0.068,-0.072
-0.019,-0.087,-0.068,0.053,0.025,-0.077,0.068,0.166,0.025,-0.055,-0.071,-0.074
0.006,-0.065,-0.072,0.03,0.039,-0.068,0.079,0.183,0.051,-0.04,-0.06,-0.064
0.007,-0.065,-0.072,0.029,0.04,-0.068,0.093,0.209,0.044,-0.04,-0.061,-0.064
0.016,-0.055,-0.071,0.02,0.044,-0.063,0.087,0.217,0.069,-0.029,-0.051,-0.055
0.027,-0.049,-0.076,0.011,0.052,-0.062,0.092,0.23,0.082,-0.026,-0.046,-0.051
0.03,-0.043,-0.073,0.007,0.052,-0.058,0.088,0.256,0.098,-0.016,-0.039,-0.045
0.039,-0.036,-0.076,-0.001,0.058,-0.056,0.098,0.289,0.132,-0.002,-0.033,-0.04
0.047,-0.028,-0.075,-0.009,0.061,-0.051,0.104,0.336,0.165,0.008,-0.023,-0.029
0.058,-0.017,-0.075,-0.02,0.067,-0.046,0.095,0.382,0.199,0.028,-0.008,-0.015
0.077,0.005,-0.072,-0.04,0.075,-0.034,0.089,0.445,0.242,0.053,0.006,-0.001
0.096,0.033,-0.063,-0.065,0.079,-0.015,0.081,0.519,0.294,0.079,0.028,0.016
0.122,0.07,-0.052,-0.096,0.087,0.009,0.074,0.586,0.356,0.125,0.067,0.047
0.156,0.11,-0.047,-0.133,0.101,0.031,0.073,0.634,0.404,0.166,0.112,0.085
0.184,0.146,-0.038,-0.164,0.111,0.054,0.075,0.651,0.441,0.209,0.147,0.114
0.194,0.188,-0.006,-0.191,0.1,0.091,0.075,0.637,0.477,0.253,0.184,0.151
0.184,0.216,0.032,-0.201,0.076,0.124,0.075,0.609,0.471,0.279,0.21,0.173
0.152,0.221,0.068,-0.187,0.042,0.144,0.075,0.54,0.427,0.271,0.205,0.159
0.129,0.193,0.065,-0.161,0.032,0.129,0.075,0.426,0.349,0.228,0.17,0.136
0.097,0.143,0.046,-0.12,0.025,0.094,0.081,0.315,0.251,0.164,0.121,0.101
0.029,0.084,0.055,-0.057,-0.013,0.069,0.094,0.208,0.163,0.093,0.069,0.049
-0.016,0.038,0.054,-0.012,-0.035,0.046,0.098,0.122,0.08,0.043,0.018,0.004
-0.028,0.013,0.041,0.007,-0.034,0.026,0.11,0.066,0.018,-0.004,-0.024,-0.03
-0.011,-0.003,0.008,0.007,-0.009,0.002,0.121,0.039,-0.018,-0.033,-0.042,-0.052
-0.028,-0.019,0.01,0.023,-0.018,-0.004,0.12,0.018,-0.036,-0.041,-0.046,-0.055
-0.072,-0.037,0.035,0.054,-0.053,-0.001,0.12,0.014,-0.047,-0.056,-0.056,-0.055
-0.058,-0.045,0.013,0.052,-0.035,-0.016,0.12,0.023,-0.053,-0.061,-0.061,-0.054
-0.06,-0.044,0.015,0.052,-0.037,-0.014,0.132,0.026,-0.046,-0.057,-0.058,-0.058
-0.064,-0.046,0.017,0.055,-0.04,-0.014,0.136,0.034,-0.042,-0.055,-0.055,-0.061
-0.055,-0.05,0.005,0.052,-0.03,-0.022,0.134,0.032,-0.038,-0.051,-0.053,-0.059
-0.052,-0.05,0.002,0.051,-0.027,-0.023,0.132,0.029,-0.032,-0.05,-0.049,-0.06
-0.043,-0.052,-0.01,0.048,-0.016,-0.031,0.13,0.03,-0.031,-0.05,-0.053,-0.06
-0.044,-0.056,-0.012,0.05,-0.015,-0.034,0.129,0.03,-0.035,-0.05,-0.055,-0.061
-0.026,-0.054,-0.028,0.04,0.002,-0.041,0.126,0.03,-0.035,-0.05,-0.054,-0.058
-0.015,-0.059,-0.044,0.038,0.014,-0.051,0.123,0.029,-0.037,-0.05,-0.059,-0.054
-0.014,-0.06,-0.046,0.038,0.016,-0.052,0.12,0.024,-0.041,-0.05,-0.06,-0.056
-0.002,-0.06,-0.058,0.031,0.028,-0.059,0.118,0.017,-0.039,-0.05,-0.061,-0.051
-0.006,-0.067,-0.061,0.036,0.027,-0.064,0.112,0.011,-0.042,-0.05,-0.064,-0.05
-0.012,-0.072,-0.06,0.042,0.024,-0.066,0.127,0.004,-0.038,-0.05,-0.066,-0.05
-0.016,-0.075,-0.059,0.045,0.022,-0.067,0.132,-0.003,-0.049,-0.05,-0.065,-0.051
-0.022,-0.068,-0.046,0.045,0.013,-0.057,0.12,-0.008,-0.062,-0.049,-0.071,-0.049
-0.024,-0.058,-0.033,0.041,0.005,-0.045,0.113,-0.014,-0.059,-0.061,-0.07,-0.053
-0.03,-0.047,-0.017,0.039,-0.006,-0.032,0.102,-0.021,-0.072,-0.071,-0.066,-0.061
-0.034,-0.042,-0.008,0.039,-0.013,-0.025,0.112,-0.027,-0.076,-0.073,-0.053,-0.061
-0.036,-0.046,-0.01,0.041,-0.012,-0.027,0.115,-0.034,-0.074,-0.077,-0.033,-0.078
-0.038,-0.044,-0.006,0.042,-0.015,-0.025,0.109,-0.04,-0.076,-0.08,-0.085,-0.057
-0.041,-0.046,-0.005,0.044,-0.018,-0.025,0.107,-0.045,-0.075,-0.076,-0.092,-0.031
-0.04,-0.044,-0.005,0.042,-0.017,-0.025,0.102,-0.045,-0.075,-0.075,-0.058,-0.053
-0.039,-0.046,-0.006,0.043,-0.016,-0.026,0.099,-0.045,-0.07,-0.075,-0.068,-0.061
-0.039,-0.049,-0.01,0.044,-0.015,-0.03,0.096,-0.045,-0.066,-0.07,-0.064,-0.059
-0.037,-0.05,-0.014,0.044,-0.012,-0.031,0.094,-0.045,-0.064,-0.07,-0.065,-0.063
-0.034,-0.05,-0.016,0.042,-0.009,-0.033,0.096,-0.042,-0.059,-0.069,-0.066,-0.065
-0.029,-0.049,-0.02,0.039,-0.004,-0.035,0.095,-0.034,-0.056,-0.065,-0.063,-0.065
-0.035,-0.052,-0.017,0.044,-0.009,-0.034,0.094,-0.027,-0.052,-0.062,-0.057,-0.06
-0.03,-0.044,-0.014,0.038,-0.008,-0.029,0.098,-0.017,-0.044,-0.061,-0.048,-0.05
-0.017,-0.033,-0.016,0.025,0.0,-0.024,0.101,-0.011,-0.037,-0.05,-0.044,-0.041
-0.013,0.009,0.023,0.002,-0.018,0.016,0.133,0.011,-0.017,-0.027,-0.032,-0.03
-0.012,0.038,0.05,-0.014,-0.031,0.044,0.164,0.038,0.007,-0.007,-0.012,-0.023
-0.008,0.063,0.072,-0.028,-0.04,0.068,0.167,0.042,0.018,0.007,0.014,-0.008
0.03,0.117,0.087,-0.073,-0.029,0.102,0.127,0.035,0.027,0.024,0.019,0.016
0.055,0.099,0.044,-0.077,0.005,0.071,0.075,0.025,0.038,0.03,0.007,0.012
0.056,0.046,-0.01,-0.051,0.033,0.018,0.074,0.015,0.019,0.015,-0.004,0.007
0.035,-0.022,-0.057,-0.006,0.046,-0.039,0.072,-0.003,-0.016,-0.017,-0.016,-0.009
-0.02,-0.088,-0.068,0.054,0.024,-0.078,0.067,-0.038,-0.044,-0.049,-0.04,-0.05
-0.033,-0.104,-0.071,0.069,0.019,-0.088,0.066,-0.057,-0.076,-0.061,-0.063,-0.062
-0.022,-0.118,-0.096,0.07,0.037,-0.107,0.065,-0.067,-0.086,-0.07,-0.07,-0.065
-0.024,-0.128,-0.104,0.076,0.04,-0.116,0.072,-0.066,-0.084,-0.07,-0.07,-0.065
-0.029,-0.128,-0.099,0.079,0.035,-0.113,0.074,-0.061,-0.086,-0.068,-0.069,-0.067
-0.025,-0.139,-0.113,0.082,0.045,-0.126,0.072,-0.065,-0.084,-0.065,-0.071,-0.072
-0.028,-0.129,-0.101,0.078,0.037,-0.115,0.069,-0.053,-0.086,-0.064,-0.068,-0.068
-0.023,-0.142,-0.119,0.083,0.048,-0.13,0.065,-0.067,-0.082,-0.069,-0.076,-0.076
-0.032,-0.126,-0.094,0.08,0.031,-0.11,0.064,-0.042,-0.074,-0.071,-0.072,-0.072
-0.018,-0.151,-0.134,0.085,0.059,-0.142,0.093,0.019,-0.035,-0.085,-0.083,-0.083
-0.01,-0.145,-0.136,0.078,0.063,-0.14,0.222,0.437,0.081,-0.058,-0.105,-0.107
0.072,0.327,0.255,-0.2,-0.091,0.291,0.062,0.078,0.723,0.471,0.332,0.234
0.235,1.17,0.935,-0.703,-0.35,1.052,-0.485,-2.055,1.319,1.469,1.251,0.983
-0.03,1.234,1.264,-0.602,-0.647,1.249,-0.686,-3.282,0.151,1.134,1.154,0.956
-0.316,0.113,0.429,0.102,-0.373,0.271,-0.618,-2.493,-1.143,-0.242,0.018,0.076
-0.202,-0.436,-0.234,0.319,0.017,-0.335,-0.385,-1.249,-0.748,-0.457,-0.334,-0.245
-0.108,-0.211,-0.103,0.159,-0.002,-0.157,-0.027,-0.364,-0.23,-0.157,-0.138,-0.125
-0.066,-0.163,-0.097,0.114,0.016,-0.129,0.047,-0.03,-0.093,-0.102,-0.092,-0.089
-0.031,-0.109,-0.079,0.07,0.024,-0.094,0.07,0.079,-0.023,-0.042,-0.055,-0.053
-0.02,-0.104,-0.084,0.062,0.032,-0.094,0.105,0.131,-0.019,-0.05,-0.068,-0.064
-0.016,-0.077,-0.061,0.047,0.022,-0.069,0.102,0.15,0.008,-0.033,-0.057,-0.058
0.008,-0.039,-0.047,0.016,0.027,-0.043,0.108,0.179,0.01,-0.035,-0.057,-0.06
0.024,-0.04,-0.064,0.008,0.045,-0.052,0.102,0.185,0.027,-0.026,-0.055,-0.061
0.009,-0.025,-0.034,0.009,0.022,-0.029,0.106,0.204,0.037,-0.02,-0.05,-0.057
0.008,-0.026,-0.033,0.009,0.021,-0.029,0.096,0.227,0.065,-0.034,-0.046,-0.054
0.01,-0.014,-0.024,0.002,0.017,-0.019,0.093,0.242,0.079,-0.03,-0.036,-0.046
-0.012,-0.009,0.003,0.011,-0.007,-0.003,0.087,0.259,0.09,-0.026,-0.032,-0.045
-0.012,0.0,0.012,0.005,-0.012,0.006,0.081,0.293,0.113,-0.012,-0.023,-0.038
0.02,0.005,-0.015,-0.012,0.017,-0.005,0.076,0.33,0.135,0.004,-0.019,-0.036
0.055,0.016,-0.038,-0.035,0.046,-0.011,0.078,0.372,0.17,0.021,-0.003,-0.023
0.075,0.038,-0.037,-0.056,0.055,0.0,0.086,0.452,0.226,0.056,0.016,-0.002
0.082,0.057,-0.024,-0.069,0.053,0.016,0.081,0.534,0.272,0.09,0.043,0.012
0.113,0.085,-0.027,-0.098,0.07,0.029,0.076,0.612,0.315,0.12,0.072,0.036
0.148,0.127,-0.021,-0.137,0.085,0.053,0.07,0.667,0.38,0.168,0.11,0.074
0.181,0.176,-0.004,-0.178,0.092,0.086,0.06,0.7,0.424,0.21,0.151,0.107
0.183,0.223,0.04,-0.203,0.071,0.131,0.045,0.712,0.455,0.254,0.189,0.141
0.175,0.256,0.081,-0.216,0.047,0.168,0.033,0.674,0.468,0.284,0.226,0.177
0.18,0.275,0.095,-0.228,0.043,0.185,0.03,0.599,0.438,0.282,0.232,0.181
0.146,0.254,0.108,-0.2,0.019,0.181,0.029,0.49,0.37,0.265,0.206,0.164
0.093,0.186,0.093,-0.139,0.0,0.139,0.044,0.369,0.274,0.207,0.165,0.131
0.047,0.122,0.075,-0.085,-0.014,0.098,0.066,0.255,0.172,0.141,0.115,0.085
0.006,0.065,0.059,-0.036,-0.027,0.062,0.07,0.162,0.089,0.081,0.064,0.049
-0.012,0.014,0.027,-0.001,-0.02,0.02,0.07,0.098,0.032,0.024,0.022,0.018
-0.011,-0.018,-0.007,0.015,-0.002,-0.012,0.07,0.054,-0.006,-0.004,-0.006,-0.007
-0.025,-0.036,-0.011,0.031,-0.007,-0.023,0.07,0.039,-0.035,-0.013,-0.02,-0.016
-0.053,-0.045,0.008,0.049,-0.03,-0.018,0.07,0.04,-0.057,-0.019,-0.025,-0.019
-0.041,-0.044,-0.002,0.043,-0.019,-0.023,0.067,0.04,-0.063,-0.027,-0.033,-0.022
-0.018,-0.05,-0.032,0.034,0.007,-0.04,0.063,0.04,-0.061,-0.035,-0.032,-0.027
-0.027,-0.068,-0.042,0.047,0.008,-0.055,0.059,0.04,-0.058,-0.038,-0.03,-0.03
-0.036,-0.071,-0.035,0.054,0.0,-0.053,0.057,0.04,-0.055,-0.035,-0.03,-0.03
-0.033,-0.069,-0.036,0.051,0.002,-0.052,0.049,0.048,-0.052,-0.03,-0.025,-0.03
-0.038,-0.071,-0.033,0.055,-0.003,-0.051,0.055,0.053,-0.05,-0.028,-0.025,-0.03
-0.027,-0.069,-0.043,0.048,0.008,-0.056,0.065,0.049,-0.052,-0.023,-0.026,-0.03
-0.004,-0.071,-0.067,0.038,0.031,-0.069,0.058,0.047,-0.056,-0.02,-0.03,-0.031
-0.015,-0.078,-0.063,0.047,0.024,-0.07,0.054,0.044,-0.055,-0.024,-0.03,-0.029
-0.001,-0.076,-0.076,0.039,0.038,-0.076,0.048,0.041,-0.056,-0.025,-0.03,-0.025
0.009,-0.075,-0.084,0.034,0.047,-0.08,0.043,0.039,-0.055,-0.025,-0.031,-0.026
-0.007,-0.074,-0.067,0.04,0.031,-0.07,0.037,0.035,-0.055,-0.024,-0.029,-0.022
-0.001,-0.072,-0.071,0.037,0.035,-0.071,0.035,0.03,-0.06,-0.026,-0.034,-0.02
-0.012,-0.068,-0.056,0.04,0.022,-0.062,0.034,0.027,-0.059,-0.022,-0.035,-0.019
0.001,-0.073,-0.074,0.036,0.037,-0.073,0.03,0.022,-0.066,-0.026,-0.037,-0.027
0.012,-0.082,-0.094,0.035,0.053,-0.087,0.03,0.013,-0.071,-0.045,-0.048,-0.036
-0.018,-0.054,-0.036,0.036,0.01,-0.045,0.023,0.005,-0.075,-0.045,-0.051,-0.034
-0.031,-0.041,-0.011,0.036,-0.01,-0.026,0.016,-0.005,-0.092,-0.044,-0.05,-0.038
-0.017,-0.047,-0.03,0.033,0.007,-0.038,0.009,-0.009,-0.098,-0.046,-0.05,-0.04
-0.008,-0.044,-0.036,0.026,0.015,-0.04,0.001,-0.013,-0.101,-0.044,-0.05,-0.04
-0.013,-0.046,-0.033,0.03,0.011,-0.039,-0.006,-0.015,-0.104,-0.048,-0.05,-0.044
-0.005,-0.045,-0.04,0.025,0.018,-0.042,-0.008,-0.01,-0.106,-0.055,-0.05,-0.045
0.006,-0.045,-0.05,0.02,0.028,-0.047,-0.004,-0.01,-0.11,-0.055,-0.05,-0.045
-0.001,-0.046,-0.045,0.024,0.023,-0.045,-0.006,-0.009,-0.108,-0.055,-0.05,-0.045
-0.007,-0.044,-0.037,0.026,0.015,-0.04,-0.005,-0.005,-0.105,-0.055,-0.05,-0.044
0.009,-0.046,-0.055,0.019,0.032,-0.05,-0.005,-0.004,-0.102,-0.055,-0.05,-0.04
0.008,-0.051,-0.059,0.022,0.034,-0.055,-0.012,-0.009,-0.1,-0.055,-0.046,-0.04
0.002,-0.049,-0.051,0.024,0.027,-0.05,-0.019,-0.012,-0.096,-0.05,-0.039,-0.04
0.012,-0.047,-0.059,0.018,0.036,-0.053,-0.027,-0.011,-0.095,-0.046,-0.033,-0.04
0.002,-0.04,-0.042,0.019,0.022,-0.041,-0.027,-0.008,-0.089,-0.041,-0.025,-0.041
-0.005,-0.043,-0.039,0.024,0.017,-0.041,-0.019,-0.012,-0.077,-0.038,-0.02,-0.033
0.001,-0.006,-0.008,0.003,0.005,-0.007,0.018,0.023,-0.064,-0.028,-0.013,-0.013
-0.013,0.03,0.043,-0.009,-0.028,0.036,0.061,0.061,-0.039,-0.005,-0.003,0.001
-0.013,0.054,0.067,-0.021,-0.041,0.06,0.067,0.068,-0.02,0.029,0.019,0.009
0.029,0.113,0.084,-0.071,-0.028,0.098,0.033,0.085,-0.015,0.051,0.044,0.031
0.057,0.107,0.05,-0.082,0.003,0.078,-0.011,0.059,-0.01,0.039,0.039,0.032
0.085,0.068,-0.018,-0.076,0.051,0.025,-0.021,0.032,-0.004,0.028,0.025,0.02
0.075,0.002,-0.074,-0.038,0.074,-0.036,-0.03,0.021,-0.045,-0.004,0.009,0.003
0.02,-0.066,-0.087,0.023,0.054,-0.076,-0.046,-0.021,-0.098,-0.042,-0.025,-0.027
0.0,-0.087,-0.087,0.044,0.044,-0.087,-0.045,-0.045,-0.11,-0.063,-0.052,-0.041
-0.003,-0.104,-0.101,0.054,0.05,-0.102,-0.045,-0.046,-0.115,-0.072,-0.06,-0.045
0.019,-0.114,-0.133,0.048,0.076,-0.124,-0.045,-0.047,-0.115,-0.069,-0.06,-0.046
0.018,-0.107,-0.126,0.044,0.072,-0.116,-0.045,-0.042,-0.116,-0.071,-0.059,-0.048
0.027,-0.108,-0.135,0.041,0.081,-0.121,-0.045,-0.049,-0.114,-0.069,-0.061,-0.052
0.02,-0.1,-0.12,0.04,0.07,-0.11,-0.045,-0.041,-0.116,-0.071,-0.058,-0.044
-0.013,-0.1,-0.087,0.056,0.037,-0.093,-0.045,-0.048,-0.113,-0.072,-0.064,-0.047
-0.008,-0.096,-0.088,0.052,0.04,-0.091,-0.045,-0.039,-0.114,-0.08,-0.065,-0.038
0.006,-0.093,-0.099,0.043,0.053,-0.096,-0.033,-0.011,-0.095,-0.073,-0.063,-0.045
0.056,-0.126,-0.182,0.035,0.119,-0.154,0.074,0.292,-0.034,-0.063,-0.099,-0.09
0.07,0.132,0.062,-0.101,0.004,0.097,0.056,0.403,0.389,0.191,0.117,0.078
0.246,0.931,0.685,-0.589,-0.22,0.808,-0.424,-1.31,1.213,1.155,0.976,0.78
0.151,1.396,1.244,-0.774,-0.547,1.32,-0.812,-3.236,0.682,1.442,1.401,1.174
-0.258,0.493,0.751,-0.118,-0.505,0.622,-0.777,-2.941,-0.9,0.157,0.405,0.414
-0.217,-0.385,-0.168,0.301,-0.024,-0.276,-0.604,-1.62,-0.992,-0.521,-0.326,-0.201
-0.08,-0.246,-0.165,0.164,0.043,-0.205,-0.256,-0.575,-0.336,-0.225,-0.167,-0.128
-0.015,-0.104,-0.089,0.06,0.037,-0.096,-0.062,-0.072,-0.139,-0.119,-0.102,-0.081
0.029,-0.078,-0.107,0.025,0.068,-0.092,-0.069,0.057,-0.05,-0.065,-0.079,-0.051
0.004,-0.061,-0.065,0.029,0.035,-0.063,-0.041,0.125,-0.035,-0.052,-0.07,-0.048
0.02,-0.064,-0.085,0.022,0.053,-0.074,-0.043,0.149,-0.018,-0.054,-0.067,-0.049
0.013,-0.045,-0.058,0.016,0.036,-0.051,-0.032,0.184,-0.009,-0.044,-0.051,-0.04
0.017,-0.052,-0.069,0.018,0.043,-0.06,-0.029,0.202,0.0,-0.047,-0.054,-0.044
0.015,-0.039,-0.053,0.012,0.034,-0.046,-0.023,0.212,0.018,-0.037,-0.041,-0.036
0.011,-0.04,-0.051,0.015,0.031,-0.045,-0.017,0.231,0.026,-0.038,-0.041,-0.035
0.023,-0.032,-0.055,0.005,0.039,-0.043,-0.013,0.25,0.042,-0.023,-0.032,-0.024
0.038,-0.026,-0.065,-0.006,0.052,-0.045,-0.009,0.273,0.065,-0.016,-0.028,-0.021
0.041,-0.018,-0.059,-0.011,0.05,-0.039,-0.011,0.302,0.085,-0.004,-0.021,-0.011
0.044,-0.009,-0.053,-0.017,0.049,-0.031,-0.006,0.347,0.115,0.012,-0.013,-0.007
0.048,-0.003,-0.051,-0.022,0.05,-0.027,-0.005,0.404,0.155,0.031,0.006,0.0
0.055,0.011,-0.044,-0.033,0.05,-0.016,-0.005,0.469,0.194,0.057,0.03,0.01
0.083,0.033,-0.05,-0.057,0.066,-0.009,-0.012,0.545,0.243,0.081,0.048,0.021
0.102,0.058,-0.044,-0.08,0.073,0.007,-0.021,0.629,0.3,0.114,0.071,0.05
0.136,0.098,-0.037,-0.117,0.086,0.03,-0.03,0.702,0.361,0.161,0.105,0.083
0.173,0.141,-0.032,-0.157,0.102,0.054,-0.037,0.746,0.416,0.209,0.152,0.119
0.196,0.188,-0.008,-0.192,0.101,0.089,-0.045,0.749,0.459,0.252,0.197,0.152
0.217,0.241,0.023,-0.229,0.097,0.132,-0.058,0.734,0.476,0.292,0.234,0.185
0.184,0.24,0.056,-0.212,0.064,0.147,-0.074,0.681,0.478,0.31,0.252,0.207
0.156,0.225,0.069,-0.191,0.043,0.147,-0.072,0.572,0.428,0.294,0.243,0.198
0.143,0.205,0.062,-0.174,0.04,0.134,-0.048,0.448,0.333,0.249,0.206,0.164
0.093,0.151,0.057,-0.122,0.017,0.104,-0.044,0.316,0.229,0.177,0.148,0.112
0.059,0.11,0.051,-0.085,0.003,0.081,-0.042,0.208,0.13,0.101,0.089,0.066
0.017,0.062,0.045,-0.04,-0.014,0.053,-0.039,0.135,0.054,0.049,0.038,0.031
-0.016,0.019,0.035,-0.002,-0.026,0.027,-0.036,0.078,-0.003,0.015,0.009,0.007
-0.018,0.007,0.025,0.005,-0.022,0.016,-0.035,0.038,-0.039,-0.015,-0.003,-0.008
-0.016,-0.001,0.015,0.008,-0.016,0.007,-0.041,0.015,-0.061,-0.038,-0.012,-0.022
-0.015,-0.01,0.005,0.012,-0.01,-0.002,-0.04,0.016,-0.066,-0.046,-0.023,-0.029
-0.019,-0.019,0.0,0.019,-0.009,-0.01,-0.04,0.022,-0.064,-0.044,-0.03,-0.032
-0.016,-0.025,-0.008,0.021,-0.004,-0.016,-0.037,0.025,-0.065,-0.048,-0.03,-0.035
-0.01,-0.025,-0.015,0.018,0.003,-0.02,-0.034,0.03,-0.065,-0.05,-0.031,-0.038
-0.001,-0.024,-0.023,0.013,0.011,-0.023,-0.036,0.034,-0.065,-0.05,-0.035,-0.041
0.002,-0.026,-0.028,0.012,0.016,-0.027,-0.034,0.035,-0.06,-0.046,-0.035,-0.038
0.007,-0.023,-0.031,0.008,0.02,-0.027,-0.035,0.035,-0.057,-0.045,-0.033,-0.033
0.0,-0.029,-0.029,0.014,0.015,-0.029,-0.035,0.035,-0.054,-0.045,-0.03,-0.03
-0.002,-0.032,-0.03,0.017,0.014,-0.031,-0.035,0.035,-0.05,-0.041,-0.027,-0.027
0.008,-0.034,-0.042,0.014,0.025,-0.038,-0.035,0.035,-0.045,-0.04,-0.024,-0.022
0.0,-0.047,-0.047,0.024,0.023,-0.047,-0.037,0.034,-0.048,-0.042,-0.021,-0.02
-0.011,-0.054,-0.043,0.033,0.016,-0.048,-0.041,0.027,-0.057,-0.045,-0.02,-0.02
-0.027,-0.068,-0.042,0.048,0.008,-0.055,-0.038,0.021,-0.065,-0.045,-0.025,-0.02
-0.03,-0.069,-0.039,0.05,0.005,-0.054,-0.049,0.014,-0.069,-0.045,-0.025,-0.02
-0.024,-0.063,-0.039,0.044,0.008,-0.051,-0.061,0.007,-0.072,-0.045,-0.025,-0.02
-0.01,-0.061,-0.051,0.036,0.021,-0.056,-0.062,0.001,-0.075,-0.045,-0.025,-0.02
-0.005,-0.056,-0.051,0.031,0.023,-0.053,-0.065,-0.004,-0.077,-0.049,-0.025,-0.022
-0.012,-0.054,-0.042,0.033,0.015,-0.047,-0.068,-0.009,-0.081,-0.053,-0.028,-0.028
-0.014,-0.05,-0.036,0.033,0.011,-0.043,-0.071,-0.013,-0.086,-0.058,-0.03,-0.031
-0.017,-0.047,-0.03,0.033,0.007,-0.038,-0.066,-0.016,-0.089,-0.059,-0.03,-0.036
-0.026,-0.045,-0.019,0.036,-0.003,-0.032,-0.065,-0.025,-0.094,-0.055,-0.03,-0.039
-0.009,-0.042,-0.033,0.025,0.012,-0.037,-0.065,-0.027,-0.092,-0.055,-0.03,-0.04
0.019,-0.039,-0.058,0.01,0.039,-0.048,-0.061,-0.022,-0.09,-0.055,-0.03,-0.04
0.003,-0.051,-0.054,0.025,0.028,-0.052,-0.059,-0.019,-0.09,-0.055,-0.03,-0.04
0.002,-0.061,-0.063,0.03,0.032,-0.062,-0.062,-0.016,-0.086,-0.055,-0.03,-0.04
-0.009,-0.063,-0.054,0.036,0.023,-0.058,-0.067,-0.011,-0.084,-0.052,-0.03,-0.038
-0.025,-0.066,-0.042,0.046,0.009,-0.054,-0.066,-0.011,-0.086,-0.049,-0.03,-0.034
-0.004,-0.071,-0.067,0.037,0.031,-0.069,-0.064,-0.017,-0.091,-0.046,-0.03,-0.032
0.005,-0.065,-0.071,0.03,0.038,-0.068,-0.066,-0.015,-0.087,-0.044,-0.028,-0.029
0.008,-0.067,-0.075,0.029,0.042,-0.07,-0.064,-0.01,-0.081,-0.039,-0.021,-0.026
0.002,-0.088,-0.089,0.043,0.046,-0.088,-0.066,-0.009,-0.077,-0.041,-0.017,-0.025
-0.008,-0.091,-0.083,0.05,0.037,-0.087,-0.058,-0.002,-0.069,-0.039,-0.011,-0.018
0.006,-0.087,-0.093,0.04,0.05,-0.09,-0.046,-0.001,-0.067,-0.043,-0.005,-0.008
0.026,-0.048,-0.074,0.011,0.05,-0.061,-0.034,0.014,-0.045,-0.025,-0.001,0.002
-0.01,0.001,0.012,0.004,-0.011,0.006,-0.007,0.049,-0.029,0.013,0.007,0.012
-0.025,0.015,0.039,0.005,-0.032,0.026,0.028,0.07,-0.029,0.011,0.014,0.023
0.005,0.066,0.061,-0.036,-0.028,0.063,0.041,0.07,-0.022,0.03,0.029,0.032
0.038,0.098,0.06,-0.068,-0.011,0.078,-0.037,0.054,-0.006,0.043,0.032,0.027
0.081,0.052,-0.029,-0.066,0.054,0.012,-0.098,0.045,-0.01,0.012,0.019,0.013
0.079,0.003,-0.076,-0.041,0.078,-0.037,-0.087,0.003,-0.063,-0.023,0.006,0.004
0.052,-0.04,-0.092,-0.005,0.072,-0.066,-0.092,-0.045,-0.087,-0.047,-0.023,-0.012
0.017,-0.073,-0.09,0.028,0.054,-0.081,-0.09,-0.049,-0.097,-0.06,-0.048,-0.039
0.0,-0.089,-0.089,0.045,0.044,-0.088,-0.09,-0.061,-0.118,-0.076,-0.057,-0.052
-0.009,-0.102,-0.093,0.056,0.042,-0.097,-0.091,-0.061,-0.116,-0.077,-0.061,-0.049
-0.02,-0.106,-0.086,0.063,0.033,-0.096,-0.088,-0.058,-0.115,-0.074,-0.059,-0.05
-0.019,-0.115,-0.095,0.067,0.038,-0.105,-0.092,-0.063,-0.114,-0.072,-0.062,-0.051
-0.026,-0.11,-0.084,0.068,0.03,-0.096,-0.088,-0.057,-0.11,-0.067,-0.057,-0.047
-0.025,-0.121,-0.096,0.073,0.036,-0.108,-0.091,-0.06,-0.11,-0.066,-0.064,-0.057
-0.057,-0.116,-0.059,0.087,0.001,-0.087,-0.089,-0.056,-0.107,-0.064,-0.06,-0.049
-0.02,-0.119,-0.099,0.07,0.04,-0.109,-0.05,0.004,-0.069,-0.081,-0.077,-0.069
0.017,-0.096,-0.113,0.04,0.065,-0.104,0.069,0.381,0.012,-0.083,-0.105,-0.108
0.071,0.322,0.252,-0.197,-0.09,0.287,-0.067,0.103,0.599,0.378,0.284,0.195
0.265,1.174,0.909,-0.719,-0.322,1.041,-0.593,-1.943,1.254,1.369,1.196,0.962
0.006,1.297,1.291,-0.652,-0.643,1.294,-0.827,-3.377,0.225,1.166,1.215,1.037
-0.329,0.18,0.508,0.074,-0.419,0.344,-0.768,-2.62,-1.108,-0.181,0.081,0.134
-0.194,-0.409,-0.216,0.302,0.012,-0.313,-0.542,-1.306,-0.797,-0.476,-0.335,-0.244
-0.096,-0.186,-0.09,0.141,-0.003,-0.138,-0.162,-0.398,-0.256,-0.169,-0.133,-0.12
-0.036,-0.113,-0.077,0.075,0.021,-0.095,-0.069,-0.035,-0.119,-0.115,-0.105,-0.092
-0.007,-0.068,-0.061,0.037,0.028,-0.065,-0.059,0.056,-0.044,-0.067,-0.057,-0.056
-0.017,-0.068,-0.051,0.043,0.017,-0.059,-0.037,0.118,-0.038,-0.074,-0.061,-0.07
-0.012,-0.074,-0.061,0.043,0.025,-0.067,-0.044,0.135,-0.013,-0.054,-0.055,-0.063
-0.022,-0.063,-0.041,0.043,0.01,-0.052,-0.025,0.172,-0.011,-0.049,-0.05,-0.065
-0.004,-0.057,-0.053,0.031,0.025,-0.055,-0.028,0.184,0.004,-0.042,-0.05,-0.067
-0.01,-0.046,-0.036,0.029,0.013,-0.041,-0.016,0.204,0.013,-0.032,-0.041,-0.06
-0.015,-0.048,-0.033,0.032,0.009,-0.04,-0.016,0.22,0.025,-0.03,-0.044,-0.055
0.004,-0.041,-0.044,0.019,0.024,-0.042,-0.014,0.242,0.038,-0.018,-0.035,-0.043
0.028,-0.04,-0.068,0.006,0.048,-0.053,-0.015,0.27,0.055,-0.017,-0.038,-0.038
0.03,-0.034,-0.064,0.002,0.047,-0.049,-0.015,0.298,0.08,-0.004,-0.028,-0.024
0.028,-0.03,-0.057,0.001,0.043,-0.043,-0.014,0.358,0.106,0.008,-0.004,-0.015
0.06,-0.01,-0.07,-0.025,0.065,-0.039,-0.019,0.41,0.148,0.026,0.014,0.0
0.075,-0.009,-0.084,-0.033,0.08,-0.046,-0.02,0.473,0.189,0.045,0.021,0.013
0.08,0.005,-0.075,-0.042,0.078,-0.035,-0.02,0.559,0.241,0.075,0.037,0.027
0.112,0.042,-0.07,-0.077,0.091,-0.014,-0.02,0.64,0.305,0.117,0.071,0.056
0.14,0.079,-0.062,-0.109,0.101,0.008,-0.02,0.708,0.359,0.158,0.106,0.089
0.166,0.12,-0.046,-0.143,0.106,0.037,-0.019,0.739,0.408,0.206,0.149,0.123
0.197,0.163,-0.034,-0.18,0.115,0.064,-0.031,0.75,0.452,0.251,0.196,0.16
0.216,0.208,-0.008,-0.212,0.112,0.1,-0.05,0.723,0.461,0.289,0.23,0.189
0.185,0.213,0.029,-0.199,0.078,0.121,-0.055,0.647,0.441,0.304,0.251,0.184
0.132,0.204,0.072,-0.168,0.029,0.138,-0.05,0.536,0.382,0.267,0.228,0.167
0.093,0.166,0.073,-0.13,0.01,0.12,-0.042,0.401,0.278,0.209,0.163,0.138
0.057,0.106,0.049,-0.082,0.003,0.077,-0.036,0.281,0.174,0.139,0.104,0.091
0.02,0.066,0.046,-0.044,-0.013,0.056,-0.029,0.176,0.086,0.07,0.043,0.043
-0.009,0.024,0.033,-0.008,-0.021,0.028,-0.026,0.106,0.023,0.025,0.004,0.005
-0.026,-0.01,0.016,0.017,-0.021,0.003,-0.035,0.058,-0.027,-0.012,-0.014,-0.016
-0.043,-0.031,0.013,0.037,-0.028,-0.009,-0.04,0.02,-0.06,-0.038,-0.026,-0.026
-0.057,-0.044,0.013,0.05,-0.035,-0.015,-0.04,0.009,-0.07,-0.049,-0.036,-0.032
-0.048,-0.05,-0.002,0.049,-0.023,-0.026,-0.04,0.011,-0.079,-0.058,-0.051,-0.04
-0.035,-0.058,-0.023,0.047,-0.005,-0.04,-0.04,0.014,-0.081,-0.066,-0.063,-0.048
-0.038,-0.069,-0.031,0.054,-0.003,-0.05,-0.04,0.016,-0.08,-0.064,-0.069,-0.054
-0.042,-0.069,-0.027,0.056,-0.008,-0.048,-0.037,0.02,-0.079,-0.059,-0.067,-0.055
-0.039,-0.062,-0.023,0.051,-0.008,-0.043,-0.034,0.019,-0.075,-0.066,-0.064,-0.055
-0.04,-0.061,-0.021,0.051,-0.01,-0.041,-0.031,0.015,-0.075,-0.072,-0.065,-0.055
-0.044,-0.057,-0.013,0.051,-0.015,-0.035,-0.029,0.012,-0.078,-0.068,-0.065,-0.055
-0.03,-0.055,-0.025,0.043,-0.002,-0.04,-0.024,0.009,-0.08,-0.065,-0.065,-0.055
-0.014,-0.051,-0.037,0.033,0.012,-0.044,-0.028,0.006,-0.08,-0.063,-0.065,-0.055
-0.016,-0.049,-0.034,0.033,0.009,-0.041,-0.044,0.005,-0.08,-0.059,-0.065,-0.055
-0.018,-0.054,-0.036,0.037,0.009,-0.045,-0.045,0.0,-0.08,-0.065,-0.065,-0.055
-0.02,-0.054,-0.034,0.038,0.007,-0.044,-0.045,-0.008,-0.086,-0.073,-0.065,-0.055
-0.022,-0.058,-0.036,0.041,0.007,-0.047,-0.045,-0.014,-0.092,-0.07,-0.065,-0.055
-0.028,-0.059,-0.031,0.044,0.002,-0.045,-0.045,-0.022,-0.098,-0.067,-0.065,-0.055
-0.033,-0.065,-0.032,0.049,-0.001,-0.048,-0.044,-0.029,-0.1,-0.065,-0.061,-0.05
-0.023,-0.076,-0.053,0.05,0.015,-0.065,-0.037,-0.036,-0.101,-0.06,-0.06,-0.05
-0.019,-0.075,-0.056,0.047,0.019,-0.065,-0.031,-0.041,-0.105,-0.061,-0.06,-0.05
-0.021,-0.075,-0.054,0.048,0.017,-0.065,-0.024,-0.044,-0.106,-0.064,-0.06,-0.05
-0.02,-0.075,-0.055,0.048,0.018,-0.065,-0.018,-0.049,-0.109,-0.067,-0.06,-0.05
-0.02,-0.075,-0.055,0.048,0.018,-0.065,-0.01,-0.05,-0.112,-0.069,-0.061,-0.053
-0.019,-0.073,-0.054,0.046,0.018,-0.063,-0.016,-0.051,-0.115,-0.074,-0.065,-0.055
-0.02,-0.069,-0.049,0.045,0.015,-0.059,-0.028,-0.054,-0.115,-0.085,-0.068,-0.055
-0.02,-0.07,-0.05,0.045,0.015,-0.06,-0.024,-0.056,-0.115,-0.085,-0.07,-0.059
-0.022,-0.07,-0.048,0.046,0.013,-0.059,-0.018,-0.053,-0.115,-0.085,-0.073,-0.061
-0.026,-0.07,-0.044,0.048,0.009,-0.056,-0.015,-0.05,-0.115,-0.085,-0.075,-0.059
-0.024,-0.07,-0.046,0.048,0.011,-0.058,-0.01,-0.05,-0.115,-0.085,-0.071,-0.055
-0.031,-0.075,-0.044,0.053,0.007,-0.059,-0.005,-0.05,-0.114,-0.085,-0.066,-0.055
-0.028,-0.075,-0.046,0.052,0.01,-0.06,-0.009,-0.05,-0.111,-0.08,-0.061,-0.054
-0.018,-0.077,-0.058,0.047,0.02,-0.067,-0.019,-0.05,-0.108,-0.081,-0.057,-0.049
-0.018,-0.08,-0.061,0.049,0.022,-0.071,-0.023,-0.054,-0.105,-0.078,-0.053,-0.05
-0.022,-0.08,-0.058,0.051,0.018,-0.069,-0.019,-0.055,-0.102,-0.075,-0.048,-0.048
-0.024,-0.081,-0.057,0.053,0.017,-0.069,-0.013,-0.055,-0.1,-0.075,-0.045,-0.044
-0.038,-0.09,-0.052,0.065,0.007,-0.071,-0.01,-0.055,-0.098,-0.072,-0.042,-0.046
-0.033,-0.094,-0.061,0.064,0.015,-0.078,-0.004,-0.056,-0.095,-0.07,-0.04,-0.041
-0.014,-0.09,-0.076,0.053,0.031,-0.083,-0.002,-0.052,-0.091,-0.066,-0.037,-0.04
-0.012,-0.079,-0.067,0.046,0.028,-0.073,0.014,-0.033,-0.091,-0.066,-0.035,-0.04
-0.011,-0.039,-0.028,0.025,0.009,-0.034,0.046,-0.011,-0.065,-0.042,-0.031,-0.029
-0.015,-0.025,-0.01,0.02,-0.002,-0.017,0.065,0.001,-0.032,-0.018,-0.022,-0.015
0.009,0.003,-0.006,-0.006,0.008,-0.002,0.079,0.018,-0.024,-0.021,-0.014,-0.001
0.014,0.05,0.035,-0.032,-0.011,0.042,0.046,0.03,-0.018,-0.002,-0.006,0.01
0.035,0.035,0.0,-0.035,0.017,0.018,-0.023,0.022,-0.011,0.009,0.006,0.023
0.073,-0.024,-0.097,-0.024,0.085,-0.061,-0.041,0.012,-0.03,-0.02,0.0,0.013
0.052,-0.077,-0.129,0.013,0.091,-0.103,-0.035,-0.029,-0.072,-0.053,-0.025,-0.009
0.029,-0.102,-0.131,0.037,0.08,-0.117,-0.03,-0.069,-0.106,-0.074,-0.059,-0.035
-0.003,-0.131,-0.128,0.067,0.063,-0.129,-0.024,-0.071,-0.125,-0.097,-0.085,-0.065
-0.016,-0.148,-0.132,0.082,0.059,-0.14,-0.019,-0.082,-0.124,-0.101,-0.082,-0.06
-0.019,-0.147,-0.127,0.083,0.054,-0.137,-0.015,-0.067,-0.128,-0.1,-0.076,-0.055
-0.026,-0.158,-0.133,0.092,0.054,-0.145,-0.034,-0.075,-0.13,-0.106,-0.074,-0.05
-0.019,-0.162,-0.143,0.091,0.062,-0.152,-0.034,-0.062,-0.127,-0.104,-0.066,-0.042
-0.037,-0.176,-0.139,0.107,0.051,-0.157,-0.008,-0.063,-0.122,-0.106,-0.066,-0.043
-0.07,-0.176,-0.106,0.123,0.019,-0.141,0.004,-0.062,-0.119,-0.105,-0.064,-0.043
-0.048,-0.17,-0.122,0.109,0.037,-0.145,-0.02,-0.044,-0.107,-0.103,-0.073,-0.054
0.017,-0.178,-0.195,0.081,0.106,-0.186,0.086,0.197,-0.04,-0.117,-0.116,-0.072
0.024,0.085,0.062,-0.055,-0.019,0.073,0.141,0.519,0.316,0.092,0.027,0.027
0.208,0.853,0.645,-0.531,-0.219,0.749,-0.341,-0.892,1.212,1.024,0.838,0.655
0.168,1.441,1.273,-0.805,-0.553,1.357,-0.759,-2.944,0.942,1.487,1.399,1.132
-0.242,0.703,0.945,-0.231,-0.594,0.824,-0.746,-2.953,-0.757,0.294,0.501,0.47
-0.258,-0.301,-0.044,0.28,-0.107,-0.172,-0.639,-1.789,-1.084,-0.542,-0.321,-0.188
-0.132,-0.316,-0.184,0.224,0.027,-0.25,-0.28,-0.746,-0.435,-0.306,-0.224,-0.167
-0.081,-0.159,-0.079,0.12,-0.001,-0.119,-0.03,-0.177,-0.203,-0.17,-0.127,-0.093
-0.032,-0.113,-0.081,0.073,0.025,-0.097,-0.023,0.008,-0.076,-0.116,-0.087,-0.062
-0.027,-0.096,-0.069,0.062,0.021,-0.082,0.02,0.085,-0.06,-0.107,-0.079,-0.058
-0.005,-0.104,-0.099,0.055,0.047,-0.101,0.032,0.11,-0.038,-0.104,-0.081,-0.052
-0.016,-0.082,-0.066,0.049,0.025,-0.074,0.042,0.14,-0.029,-0.09,-0.069,-0.042
-0.005,-0.085,-0.079,0.045,0.037,-0.082,0.034,0.15,-0.021,-0.092,-0.073,-0.039
0.008,-0.067,-0.076,0.03,0.042,-0.071,0.032,0.167,0.005,-0.077,-0.061,-0.033
0.019,-0.066,-0.085,0.024,0.052,-0.076,0.028,0.185,0.005,-0.076,-0.062,-0.037
0.017,-0.056,-0.073,0.02,0.045,-0.064,0.024,0.197,0.024,-0.063,-0.054,-0.03
0.033,-0.051,-0.084,0.009,0.059,-0.067,0.031,0.217,0.042,-0.061,-0.051,-0.031
0.05,-0.044,-0.094,-0.003,0.072,-0.069,0.025,0.243,0.07,-0.051,-0.039,-0.029
0.049,-0.038,-0.087,-0.006,0.068,-0.062,0.025,0.278,0.096,-0.043,-0.03,-0.023
0.061,-0.031,-0.092,-0.015,0.077,-0.061,0.025,0.317,0.124,-0.032,-0.02,-0.012
0.073,-0.016,-0.089,-0.028,0.081,-0.052,0.024,0.377,0.161,-0.014,-0.007,-0.003
0.085,-0.004,-0.089,-0.04,0.087,-0.046,0.026,0.445,0.203,0.011,0.011,0.004
0.11,0.025,-0.085,-0.067,0.097,-0.029,0.021,0.516,0.258,0.05,0.045,0.029
0.142,0.056,-0.086,-0.098,0.114,-0.015,0.004,0.584,0.315,0.085,0.076,0.065
0.173,0.099,-0.074,-0.136,0.123,0.013,-0.008,0.63,0.366,0.13,0.114,0.104
0.189,0.147,-0.042,-0.168,0.115,0.053,-0.016,0.638,0.408,0.17,0.157,0.136
0.171,0.178,0.007,-0.174,0.082,0.092,-0.028,0.616,0.432,0.207,0.197,0.174
0.171,0.199,0.028,-0.185,0.071,0.113,-0.032,0.595,0.447,0.242,0.223,0.195
0.157,0.201,0.043,-0.179,0.057,0.122,-0.026,0.521,0.402,0.23,0.215,0.19
0.114,0.166,0.052,-0.14,0.031,0.109,-0.019,0.409,0.321,0.188,0.186,0.173
0.075,0.111,0.037,-0.093,0.019,0.074,-0.013,0.296,0.227,0.125,0.139,0.128
0.033,0.065,0.031,-0.049,0.001,0.048,-0.006,0.177,0.126,0.058,0.071,0.076
0.007,0.027,0.02,-0.017,-0.007,0.023,0.0,0.096,0.051,0.008,0.024,0.032
-0.015,-0.011,0.004,0.013,-0.009,-0.003,0.005,0.044,-0.002,-0.043,0.004,0.003
-0.027,-0.045,-0.018,0.036,-0.004,-0.031,0.005,0.01,-0.036,-0.069,-0.018,-0.005
-0.025,-0.055,-0.03,0.04,0.003,-0.042,0.005,0.0,-0.061,-0.08,-0.036,-0.007
-0.03,-0.059,-0.029,0.045,0.0,-0.044,0.008,-0.005,-0.066,-0.094,-0.042,-0.01
-0.035,-0.065,-0.03,0.05,-0.002,-0.047,0.01,-0.013,-0.064,-0.094,-0.044,-0.013
-0.035,-0.064,-0.03,0.049,-0.002,-0.046,0.013,-0.018,-0.066,-0.095,-0.048,-0.015
-0.036,-0.067,-0.03,0.052,-0.003,-0.048,0.016,-0.016,-0.064,-0.095,-0.05,-0.018
-0.04,-0.07,-0.029,0.055,-0.006,-0.049,0.019,-0.011,-0.065,-0.095,-0.045,-0.024
-0.045,-0.07,-0.026,0.058,-0.01,-0.048,0.02,-0.009,-0.065,-0.095,-0.045,-0.029
-0.046,-0.067,-0.021,0.057,-0.012,-0.044,0.014,-0.005,-0.065,-0.093,-0.045,-0.032
-0.043,-0.061,-0.019,0.052,-0.012,-0.04,0.008,0.0,-0.065,-0.106,-0.045,-0.038
-0.042,-0.056,-0.014,0.049,-0.013,-0.035,0.001,-0.002,-0.065,-0.112,-0.044,-0.039
-0.041,-0.051,-0.01,0.046,-0.015,-0.031,-0.006,-0.01,-0.065,-0.109,-0.049,-0.034
-0.033,-0.044,-0.012,0.039,-0.01,-0.028,-0.013,-0.016,-0.068,-0.111,-0.06,-0.031
-0.021,-0.041,-0.02,0.032,-0.001,-0.03,-0.013,-0.023,-0.078,-0.109,-0.06,-0.028
-0.02,-0.044,-0.024,0.032,0.003,-0.034,-0.009,-0.03,-0.085,-0.111,-0.06,-0.023
-0.027,-0.047,-0.02,0.037,-0.003,-0.033,-0.01,-0.035,-0.09,-0.114,-0.06,-0.02
-0.029,-0.05,-0.02,0.039,-0.005,-0.035,-0.01,-0.041,-0.093,-0.115,-0.06,-0.023
-0.034,-0.053,-0.018,0.044,-0.008,-0.035,-0.01,-0.048,-0.098,-0.115,-0.06,-0.027
-0.04,-0.055,-0.015,0.048,-0.012,-0.035,-0.01,-0.052,-0.1,-0.115,-0.055,-0.032
-0.045,-0.058,-0.014,0.052,-0.015,-0.036,-0.011,-0.058,-0.1,-0.115,-0.055,-0.03
-0.038,-0.061,-0.023,0.05,-0.008,-0.041,-0.009,-0.06,-0.1,-0.117,-0.055,-0.03
-0.017,-0.064,-0.048,0.041,0.016,-0.056,-0.014,-0.06,-0.101,-0.12,-0.055,-0.03
-0.023,-0.065,-0.042,0.044,0.01,-0.054,-0.03,-0.06,-0.104,-0.12,-0.056,-0.03
-0.025,-0.067,-0.042,0.046,0.009,-0.054,-0.03,-0.06,-0.106,-0.12,-0.052,-0.03
-0.001,-0.072,-0.071,0.037,0.035,-0.071,-0.025,-0.06,-0.11,-0.12,-0.05,-0.026
0.001,-0.075,-0.076,0.037,0.039,-0.075,-0.024,-0.064,-0.108,-0.119,-0.05,-0.025
-0.007,-0.081,-0.074,0.044,0.034,-0.077,-0.02,-0.069,-0.104,-0.115,-0.046,-0.025
-0.012,-0.088,-0.076,0.05,0.032,-0.081,-0.02,-0.068,-0.106,-0.111,-0.045,-0.02
-0.016,-0.09,-0.074,0.054,0.029,-0.082,-0.02,-0.064,-0.101,-0.109,-0.045,-0.02
-0.021,-0.097,-0.076,0.059,0.028,-0.086,-0.02,-0.065,-0.1,-0.104,-0.04,-0.02
-0.019,-0.107,-0.089,0.063,0.035,-0.098,-0.021,-0.065,-0.099,-0.101,-0.04,-0.02
-0.022,-0.111,-0.089,0.067,0.033,-0.099,-0.019,-0.065,-0.095,-0.097,-0.04,-0.02
-0.03,-0.108,-0.079,0.069,0.025,-0.093,-0.021,-0.065,-0.095,-0.091,-0.039,-0.02
-0.019,-0.108,-0.089,0.064,0.035,-0.098,-0.013,-0.055,-0.092,-0.084,-0.041,-0.02
-0.022,-0.091,-0.069,0.057,0.024,-0.08,-0.002,-0.042,-0.09,-0.078,-0.037,-0.021
-0.014,-0.033,-0.019,0.023,0.003,-0.026,0.013,-0.031,-0.086,-0.071,-0.028,-0.013
-0.012,0.012,0.024,0.0,-0.018,0.018,0.05,-0.023,-0.075,-0.06,-0.02,0.002
-0.019,0.017,0.036,0.001,-0.027,0.026,0.074,-0.016,-0.061,-0.044,-0.01,0.015
0.004,0.055,0.051,-0.03,-0.024,0.053,0.058,-0.004,-0.052,-0.034,-0.003,0.029
0.03,0.059,0.028,-0.045,0.001,0.043,0.006,0.003,-0.036,-0.028,0.009,0.045
0.051,0.0,-0.052,-0.025,0.052,-0.026,-0.03,-0.01,-0.04,-0.039,0.008,0.043
0.04,-0.042,-0.082,0.001,0.061,-0.062,-0.03,-0.053,-0.083,-0.073,-0.011,0.022
0.007,-0.085,-0.092,0.039,0.05,-0.089,-0.026,-0.079,-0.111,-0.09,-0.035,-0.012
-0.024,-0.112,-0.088,0.068,0.032,-0.1,-0.023,-0.074,-0.128,-0.107,-0.056,-0.03
-0.028,-0.122,-0.094,0.075,0.033,-0.108,-0.019,-0.086,-0.137,-0.123,-0.063,-0.03
-0.027,-0.121,-0.094,0.074,0.034,-0.107,-0.014,-0.075,-0.134,-0.12,-0.064,-0.029
-0.023,-0.118,-0.094,0.071,0.036,-0.106,-0.016,-0.084,-0.137,-0.117,-0.066,-0.031
-0.022,-0.116,-0.094,0.069,0.037,-0.105,-0.013,-0.078,-0.13,-0.113,-0.064,-0.029
-0.03,-0.11,-0.08,0.07,0.025,-0.095,-0.021,-0.08,-0.131,-0.11,-0.065,-0.031
-0.021,-0.113,-0.092,0.067,0.036,-0.103,-0.027,-0.082,-0.13,-0.104,-0.066,-0.031
-0.046,-0.113,-0.067,0.08,0.011,-0.09,-0.031,-0.048,-0.106,-0.112,-0.067,-0.026
-0.011,-0.168,-0.158,0.09,0.074,-0.163,0.058,0.119,-0.065,-0.13,-0.102,-0.066
0.005,-0.022,-0.027,0.009,0.016,-0.024,0.158,0.518,0.194,0.006,-0.01,-0.012
0.141,0.66,0.519,-0.401,-0.189,0.59,-0.232,-0.632,1.028,0.815,0.677,0.536
0.176,1.364,1.188,-0.77,-0.507,1.276,-0.748,-2.841,1.056,1.492,1.393,1.128
-0.217,0.848,1.065,-0.316,-0.641,0.956,-0.809,-3.141,-0.57,0.514,0.724,0.653
-0.301,-0.256,0.045,0.279,-0.173,-0.105,-0.677,-2.005,-1.206,-0.527,-0.248,-0.104
-0.153,-0.389,-0.236,0.271,0.041,-0.312,-0.319,-0.879,-0.536,-0.368,-0.237,-0.152
-0.111,-0.199,-0.088,0.155,-0.011,-0.143,-0.017,-0.209,-0.225,-0.183,-0.114,-0.071
-0.064,-0.178,-0.114,0.122,0.025,-0.146,0.009,0.013,-0.091,-0.132,-0.077,-0.047
-0.056,-0.115,-0.058,0.086,0.001,-0.086,0.037,0.089,-0.065,-0.096,-0.042,-0.034
-0.025,-0.095,-0.07,0.06,0.023,-0.082,0.036,0.12,-0.057,-0.103,-0.057,-0.035
-0.026,-0.075,-0.049,0.051,0.011,-0.061,0.055,0.152,-0.037,-0.089,-0.044,-0.02
-0.027,-0.08,-0.053,0.054,0.013,-0.066,0.07,0.161,-0.037,-0.095,-0.054,-0.021
-0.026,-0.074,-0.048,0.05,0.012,-0.061,0.067,0.184,-0.011,-0.083,-0.048,-0.01
-0.03,-0.071,-0.041,0.051,0.006,-0.056,0.069,0.199,-0.008,-0.085,-0.049,-0.011
-0.028,-0.071,-0.043,0.05,0.007,-0.057,0.081,0.218,0.016,-0.075,-0.04,-0.006
-0.027,-0.064,-0.037,0.046,0.005,-0.05,0.1,0.239,0.026,-0.069,-0.036,-0.004
-0.013,-0.056,-0.042,0.035,0.015,-0.049,0.093,0.27,0.048,-0.064,-0.031,-0.001
-0.006,-0.044,-0.038,0.025,0.016,-0.041,0.094,0.3,0.07,-0.052,-0.024,0.001
0.006,-0.035,-0.041,0.014,0.024,-0.038,0.089,0.343,0.103,-0.033,-0.021,0.004
0.014,-0.026,-0.04,0.006,0.027,-0.033,0.09,0.413,0.147,-0.012,-0.002,0.017
0.032,-0.007,-0.039,-0.013,0.035,-0.022,0.086,0.481,0.189,0.011,0.022,0.037
0.051,0.019,-0.032,-0.035,0.041,-0.006,0.077,0.561,0.246,0.039,0.048,0.058
0.078,0.055,-0.023,-0.066,0.05,0.016,0.072,0.636,0.302,0.076,0.081,0.079
0.124,0.102,-0.021,-0.113,0.072,0.04,0.063,0.689,0.36,0.129,0.129,0.125
0.134,0.136,0.002,-0.135,0.066,0.069,0.056,0.703,0.415,0.18,0.176,0.16
0.146,0.173,0.026,-0.16,0.06,0.099,0.05,0.687,0.423,0.216,0.214,0.186
0.157,0.228,0.071,-0.193,0.043,0.149,0.05,0.641,0.405,0.237,0.224,0.2
0.129,0.251,0.122,-0.19,0.003,0.186,0.05,0.548,0.389,0.23,0.216,0.193
0.098,0.211,0.113,-0.155,-0.008,0.162,0.05,0.427,0.309,0.18,0.199,0.18
0.066,0.162,0.097,-0.114,-0.016,0.129,0.05,0.305,0.197,0.115,0.143,0.134
0.017,0.108,0.091,-0.063,-0.037,0.099,0.056,0.196,0.11,0.053,0.083,0.082
-0.021,0.056,0.077,-0.018,-0.05,0.066,0.062,0.111,0.031,-0.006,0.033,0.042
-0.031,0.015,0.046,0.008,-0.039,0.031,0.063,0.054,-0.031,-0.052,0.001,0.008
-0.054,-0.027,0.027,0.04,-0.04,0.0,0.068,0.016,-0.067,-0.079,-0.012,-0.005
-0.064,-0.041,0.024,0.052,-0.044,-0.008,0.07,0.002,-0.087,-0.093,-0.03,-0.01
-0.059,-0.044,0.015,0.051,-0.036,-0.015,0.065,0.0,-0.096,-0.104,-0.042,-0.014
-0.061,-0.05,0.011,0.055,-0.036,-0.02,0.065,-0.006,-0.095,-0.109,-0.046,-0.019
-0.049,-0.049,0.0,0.049,-0.025,-0.024,0.065,-0.01,-0.095,-0.11,-0.049,-0.024
-0.064,-0.053,0.011,0.058,-0.037,-0.021,0.065,-0.007,-0.095,-0.11,-0.053,-0.025
-0.076,-0.055,0.021,0.065,-0.048,-0.017,0.065,-0.002,-0.095,-0.11,-0.055,-0.025
-0.068,-0.055,0.013,0.061,-0.04,-0.021,0.068,0.001,-0.095,-0.111,-0.05,-0.025
-0.065,-0.055,0.01,0.06,-0.037,-0.022,0.072,0.004,-0.095,-0.109,-0.05,-0.025
-0.061,-0.055,0.005,0.058,-0.032,-0.025,0.069,0.009,-0.095,-0.105,-0.049,-0.025
-0.06,-0.059,0.0,0.06,-0.03,-0.03,0.066,0.009,-0.095,-0.105,-0.045,-0.025
-0.045,-0.06,-0.015,0.053,-0.015,-0.038,0.063,0.002,-0.095,-0.103,-0.045,-0.02
-0.037,-0.059,-0.022,0.048,-0.008,-0.041,0.06,-0.004,-0.095,-0.1,-0.045,-0.02
-0.044,-0.063,-0.019,0.053,-0.013,-0.04,0.06,-0.011,-0.099,-0.1,-0.045,-0.019
-0.044,-0.065,-0.021,0.055,-0.011,-0.043,0.06,-0.018,-0.106,-0.1,-0.045,-0.015
-0.046,-0.065,-0.02,0.055,-0.013,-0.042,0.06,-0.024,-0.112,-0.1,-0.045,-0.016
-0.051,-0.071,-0.019,0.061,-0.016,-0.045,0.06,-0.029,-0.115,-0.1,-0.045,-0.012
-0.043,-0.077,-0.034,0.061,-0.004,-0.056,0.06,-0.03,-0.115,-0.1,-0.045,-0.01
-0.041,-0.083,-0.042,0.062,0.001,-0.062,0.06,-0.03,-0.115,-0.1,-0.045,-0.01
-0.05,-0.085,-0.035,0.068,-0.007,-0.06,0.056,-0.031,-0.119,-0.101,-0.045,-0.01
-0.05,-0.085,-0.035,0.068,-0.007,-0.06,0.051,-0.037,-0.13,-0.105,-0.045,-0.01
-0.055,-0.085,-0.03,0.07,-0.012,-0.057,0.046,-0.044,-0.135,-0.105,-0.045,-0.01
-0.055,-0.085,-0.03,0.07,-0.012,-0.057,0.043,-0.045,-0.135,-0.105,-0.044,-0.015
-0.04,-0.085,-0.046,0.063,0.003,-0.065,0.036,-0.045,-0.135,-0.105,-0.048,-0.015
-0.039,-0.09,-0.052,0.065,0.007,-0.071,0.038,-0.05,-0.135,-0.105,-0.05,-0.015
-0.053,-0.098,-0.046,0.076,-0.003,-0.071,0.051,-0.05,-0.135,-0.108,-0.05,-0.015
-0.053,-0.098,-0.045,0.076,-0.004,-0.071,0.054,-0.051,-0.138,-0.111,-0.054,-0.015
-0.05,-0.091,-0.04,0.071,-0.005,-0.065,0.059,-0.055,-0.142,-0.114,-0.055,-0.018
-0.045,-0.084,-0.039,0.065,-0.003,-0.061,0.061,-0.055,-0.145,-0.117,-0.055,-0.02
-0.033,-0.078,-0.044,0.056,0.006,-0.061,0.071,-0.055,-0.149,-0.12,-0.055,-0.023
-0.046,-0.07,-0.024,0.058,-0.011,-0.047,0.079,-0.055,-0.149,-0.119,-0.055,-0.026
-0.072,-0.066,0.006,0.069,-0.039,-0.03,0.071,-0.055,-0.145,-0.115,-0.055,-0.029
-0.073,-0.063,0.01,0.068,-0.041,-0.027,0.064,-0.052,-0.143,-0.113,-0.055,-0.03
-0.067,-0.072,-0.004,0.07,-0.031,-0.038,0.056,-0.047,-0.139,-0.11,-0.055,-0.025
-0.061,-0.086,-0.024,0.074,-0.018,-0.055,0.048,-0.045,-0.137,-0.106,-0.053,-0.025
-0.054,-0.088,-0.034,0.071,-0.01,-0.061,0.047,-0.04,-0.134,-0.105,-0.048,-0.024
-0.055,-0.091,-0.036,0.073,-0.01,-0.063,0.051,-0.037,-0.132,-0.102,-0.045,-0.02
-0.055,-0.089,-0.034,0.073,-0.01,-0.062,0.054,-0.033,-0.129,-0.096,-0.042,-0.021
-0.055,-0.091,-0.036,0.074,-0.01,-0.063,0.058,-0.028,-0.127,-0.093,-0.038,-0.018
-0.049,-0.046,0.003,0.048,-0.026,-0.022,0.06,-0.013,-0.123,-0.088,-0.035,-0.008
-0.051,0.035,0.085,0.008,-0.068,0.06,0.076,0.014,-0.115,-0.081,-0.028,0.003
-0.051,0.048,0.099,0.001,-0.075,0.073,0.094,0.02,-0.104,-0.069,-0.017,0.011
-0.049,0.069,0.119,-0.01,-0.084,0.094,0.098,0.025,-0.095,-0.061,-0.008,0.029
-0.032,0.101,0.133,-0.035,-0.083,0.117,0.069,0.016,-0.087,-0.05,-0.003,0.037
0.012,0.069,0.057,-0.041,-0.023,0.063,0.017,0.002,-0.079,-0.048,0.0,0.021
-0.007,0.023,0.03,-0.008,-0.019,0.026,0.004,-0.024,-0.117,-0.083,-0.017,0.009
-0.049,-0.026,0.023,0.037,-0.036,-0.002,0.016,-0.073,-0.157,-0.109,-0.046,-0.012
-0.069,-0.062,0.007,0.065,-0.038,-0.027,0.022,-0.069,-0.167,-0.123,-0.067,-0.032
-0.076,-0.073,0.004,0.074,-0.04,-0.034,0.02,-0.077,-0.184,-0.135,-0.083,-0.035
-0.056,-0.071,-0.015,0.063,-0.02,-0.042,0.015,-0.08,-0.185,-0.135,-0.085,-0.039
-0.066,-0.078,-0.012,0.072,-0.027,-0.045,0.013,-0.07,-0.186,-0.135,-0.084,-0.04
-0.074,-0.095,-0.022,0.085,-0.026,-0.058,0.008,-0.073,-0.18,-0.135,-0.086,-0.036
-0.077,-0.084,-0.007,0.081,-0.035,-0.045,0.004,-0.058,-0.181,-0.134,-0.083,-0.033
-0.073,-0.096,-0.023,0.085,-0.025,-0.059,0.01,-0.068,-0.179,-0.136,-0.089,-0.034
-0.076,-0.084,-0.008,0.081,-0.034,-0.046,0.013,-0.033,-0.172,-0.139,-0.073,-0.024
-0.066,-0.098,-0.032,0.082,-0.016,-0.065,0.062,0.031,-0.147,-0.15,-0.093,-0.05
-0.053,-0.079,-0.026,0.067,-0.014,-0.052,0.183,0.429,-0.024,-0.128,-0.115,-0.07
0.042,0.386,0.344,-0.214,-0.151,0.365,-0.014,-0.082,0.613,0.405,0.337,0.282
0.201,1.217,1.016,-0.709,-0.408,1.116,-0.568,-2.357,1.151,1.36,1.24,1.026
-0.089,1.201,1.29,-0.556,-0.69,1.245,-0.783,-3.472,-0.032,0.983,1.111,0.984
-0.358,0.06,0.418,0.149,-0.388,0.239,-0.69,-2.509,-1.237,-0.342,-0.017,0.103
-0.221,-0.415,-0.194,0.318,-0.013,-0.304,-0.42,-1.212,-0.791,-0.511,-0.323,-0.192
-0.144,-0.177,-0.033,0.161,-0.055,-0.105,-0.049,-0.33,-0.285,-0.201,-0.121,-0.075
-0.096,-0.135,-0.039,0.116,-0.029,-0.087,0.015,-0.019,-0.159,-0.156,-0.095,-0.053
-0.07,-0.084,-0.014,0.077,-0.027,-0.049,0.036,0.079,-0.103,-0.101,-0.052,-0.018
-0.066,-0.086,-0.02,0.076,-0.023,-0.052,0.077,0.136,-0.094,-0.107,-0.06,-0.024
-0.063,-0.087,-0.024,0.075,-0.019,-0.055,0.072,0.161,-0.056,-0.093,-0.048,-0.013
-0.064,-0.078,-0.014,0.071,-0.025,-0.046,0.101,0.188,-0.057,-0.092,-0.045,-0.012
-0.057,-0.083,-0.026,0.07,-0.016,-0.055,0.098,0.207,-0.036,-0.085,-0.04,-0.007
-0.05,-0.077,-0.027,0.064,-0.012,-0.051,0.101,0.227,-0.026,-0.079,-0.032,-0.001
-0.04,-0.077,-0.037,0.059,-0.001,-0.057,0.1,0.242,-0.012,-0.074,-0.031,0.001
-0.046,-0.066,-0.02,0.056,-0.013,-0.042,0.106,0.265,0.005,-0.063,-0.024,0.009
-0.041,-0.062,-0.021,0.052,-0.01,-0.041,0.102,0.284,0.019,-0.058,-0.024,0.01
-0.046,-0.054,-0.008,0.05,-0.019,-0.031,0.095,0.324,0.048,-0.048,-0.017,0.018
-0.035,-0.043,-0.007,0.039,-0.014,-0.025,0.092,0.366,0.07,-0.043,-0.016,0.019
-0.01,-0.006,0.003,0.008,-0.007,-0.001,0.084,0.415,0.093,-0.031,-0.008,0.026
-0.006,0.03,0.035,-0.012,-0.021,0.032,0.081,0.478,0.128,-0.025,0.003,0.032
0.015,0.071,0.056,-0.043,-0.021,0.063,0.074,0.558,0.172,0.006,0.017,0.038
0.039,0.107,0.068,-0.073,-0.015,0.088,0.068,0.639,0.235,0.037,0.044,0.062
0.066,0.148,0.082,-0.107,-0.009,0.115,0.061,0.7,0.292,0.077,0.082,0.097
0.098,0.2,0.102,-0.149,-0.002,0.151,0.054,0.743,0.344,0.131,0.128,0.129
0.116,0.246,0.131,-0.181,-0.008,0.188,0.047,0.734,0.387,0.173,0.173,0.165
0.129,0.283,0.154,-0.206,-0.013,0.218,0.045,0.701,0.392,0.211,0.208,0.197
0.1,0.276,0.175,-0.188,-0.038,0.225,0.045,0.63,0.373,0.199,0.218,0.203
0.078,0.258,0.18,-0.168,-0.051,0.219,0.041,0.506,0.317,0.184,0.205,0.196
0.065,0.23,0.165,-0.148,-0.05,0.197,0.04,0.376,0.218,0.146,0.164,0.166
0.015,0.164,0.149,-0.089,-0.068,0.156,0.04,0.252,0.113,0.071,0.103,0.116
-0.028,0.099,0.127,-0.036,-0.078,0.113,0.036,0.152,0.031,0.014,0.052,0.075
-0.055,0.052,0.107,0.002,-0.081,0.079,0.034,0.086,-0.03,-0.037,0.019,0.039
-0.072,0.018,0.09,0.027,-0.082,0.054,0.041,0.04,-0.082,-0.07,-0.002,0.014
-0.08,0.001,0.082,0.039,-0.081,0.041,0.046,0.011,-0.107,-0.088,-0.023,0.006
-0.08,-0.006,0.074,0.043,-0.077,0.034,0.044,-0.004,-0.122,-0.106,-0.04,-0.001
-0.078,-0.012,0.066,0.045,-0.071,0.026,0.045,-0.008,-0.131,-0.11,-0.045,-0.007
-0.078,-0.019,0.059,0.049,-0.069,0.02,0.045,-0.013,-0.129,-0.111,-0.045,-0.015
-0.08,-0.026,0.054,0.053,-0.067,0.014,0.045,-0.014,-0.13,-0.115,-0.045,-0.019
-0.082,-0.031,0.051,0.056,-0.066,0.01,0.045,-0.009,-0.13,-0.115,-0.045,-0.016
-0.088,-0.04,0.047,0.064,-0.067,0.003,0.045,-0.006,-0.13,-0.119,-0.045,-0.011
-0.092,-0.049,0.044,0.07,-0.068,-0.002,0.045,-0.003,-0.126,-0.12,-0.042,-0.009
-0.091,-0.051,0.04,0.071,-0.065,-0.005,0.045,0.001,-0.125,-0.12,-0.039,-0.005
-0.091,-0.054,0.037,0.072,-0.063,-0.009,0.045,0.005,-0.125,-0.12,-0.036,0.0
-0.09,-0.057,0.034,0.073,-0.062,-0.011,0.045,0.001,-0.125,-0.12,-0.033,-0.002
-0.091,-0.06,0.031,0.076,-0.061,-0.014,0.051,-0.006,-0.125,-0.118,-0.03,-0.006
-0.088,-0.06,0.028,0.074,-0.058,-0.016,0.053,-0.012,-0.126,-0.115,-0.031,-0.004
-0.088,-0.062,0.026,0.075,-0.057,-0.018,0.046,-0.02,-0.132,-0.115,-0.036,-0.009
-0.089,-0.066,0.023,0.077,-0.056,-0.021,0.041,-0.026,-0.14,-0.111,-0.034,-0.01
-0.085,-0.065,0.02,0.075,-0.052,-0.022,0.036,-0.032,-0.151,-0.11,-0.038,-0.01
-0.089,-0.069,0.02,0.079,-0.054,-0.024,0.029,-0.037,-0.155,-0.11,-0.04,-0.015
-0.094,-0.077,0.017,0.085,-0.055,-0.029,0.026,-0.044,-0.158,-0.115,-0.04,-0.015
-0.097,-0.082,0.015,0.089,-0.056,-0.033,0.029,-0.048,-0.16,-0.115,-0.044,-0.015
-0.095,-0.081,0.014,0.087,-0.054,-0.033,0.03,-0.052,-0.165,-0.117,-0.046,-0.015
-0.1,-0.077,0.023,0.088,-0.061,-0.027,0.03,-0.065,-0.174,-0.127,-0.049,-0.015
-0.107,-0.075,0.032,0.091,-0.069,-0.021,0.03,-0.07,-0.175,-0.13,-0.05,-0.013
-0.101,-0.071,0.029,0.086,-0.065,-0.021,0.03,-0.072,-0.175,-0.133,-0.05,-0.01
-0.1,-0.07,0.03,0.085,-0.065,-0.02,0.028,-0.076,-0.175,-0.136,-0.05,-0.007
-0.092,-0.067,0.026,0.079,-0.058,-0.02,0.025,-0.078,-0.175,-0.139,-0.05,-0.004
-0.086,-0.061,0.024,0.073,-0.055,-0.018,0.025,-0.08,-0.175,-0.14,-0.05,-0.001
-0.083,-0.058,0.025,0.07,-0.054,-0.016,0.025,-0.08,-0.178,-0.14,-0.049,0.0
-0.07,-0.052,0.017,0.061,-0.043,-0.017,0.025,-0.08,-0.18,-0.14,-0.055,-0.006
-0.082,-0.049,0.034,0.065,-0.058,-0.008,0.02,-0.08,-0.182,-0.14,-0.064,-0.011
-0.097,-0.044,0.053,0.071,-0.075,0.004,0.015,-0.079,-0.186,-0.14,-0.065,-0.016
-0.085,-0.041,0.044,0.062,-0.064,0.001,0.011,-0.082,-0.183,-0.14,-0.065,-0.022
-0.088,-0.038,0.05,0.062,-0.069,0.006,0.006,-0.093,-0.18,-0.14,-0.065,-0.028
-0.094,-0.033,0.061,0.064,-0.077,0.014,0.002,-0.095,-0.18,-0.14,-0.065,-0.03
-0.086,-0.03,0.056,0.058,-0.071,0.013,-0.003,-0.095,-0.18,-0.14,-0.064,-0.03
-0.083,-0.03,0.054,0.056,-0.068,0.012,-0.005,-0.095,-0.18,-0.14,-0.06,-0.03
-0.08,-0.031,0.05,0.056,-0.065,0.009,-0.005,-0.096,-0.18,-0.14,-0.058,-0.03
-0.074,-0.029,0.045,0.051,-0.059,0.008,-0.005,-0.1,-0.176,-0.14,-0.055,-0.03
-0.078,-0.032,0.047,0.055,-0.063,0.007,-0.005,-0.099,-0.175,-0.134,-0.052,-0.03
-0.089,-0.027,0.062,0.058,-0.075,0.017,-0.005,-0.103,-0.175,-0.128,-0.05,-0.024
-0.096,-0.037,0.059,0.066,-0.077,0.011,0.001,-0.105,-0.17,-0.124,-0.047,-0.017
-0.096,-0.039,0.057,0.067,-0.076,0.009,0.01,-0.106,-0.17,-0.118,-0.041,-0.011
-0.08,-0.026,0.054,0.052,-0.067,0.014,0.014,-0.094,-0.168,-0.112,-0.037,-0.004
-0.07,-0.007,0.063,0.038,-0.066,0.028,0.032,-0.066,-0.148,-0.107,-0.034,0.003
-0.069,0.045,0.114,0.012,-0.092,0.079,0.058,-0.037,-0.127,-0.097,-0.025,0.003
-0.055,0.064,0.119,-0.005,-0.087,0.091,0.08,-0.026,-0.113,-0.088,-0.016,-0.001
-0.058,0.09,0.148,-0.016,-0.103,0.118,0.061,-0.043,-0.101,-0.089,-0.002,-0.002
-0.037,0.1,0.136,-0.032,-0.086,0.117,0.036,-0.029,-0.109,-0.092,0.015,-0.009
-0.021,0.053,0.074,-0.017,-0.048,0.064,0.066,-0.034,-0.111,-0.094,0.005,-0.007
-0.092,-0.024,0.069,0.058,-0.08,0.022,0.075,-0.065,-0.134,-0.099,-0.019,0.002
-0.1,-0.053,0.047,0.076,-0.073,-0.003,0.033,-0.063,-0.174,-0.099,-0.035,-0.001
