-0.047,0.172,0.219,-0.063,-0.134,0.195,-0.02,-0.064,-0.166,-0.219,-0.185,-0.16
-0.07,0.151,0.221,-0.041,-0.146,0.186,-0.02,-0.07,-0.181,-0.226,-0.189,-0.168
-0.067,0.123,0.19,-0.029,-0.129,0.157,-0.021,-0.082,-0.193,-0.245,-0.196,-0.181
-0.077,0.122,0.199,-0.023,-0.138,0.16,-0.025,-0.079,-0.202,-0.236,-0.193,-0.18
-0.055,0.14,0.195,-0.042,-0.125,0.167,-0.025,-0.079,-0.216,-0.249,-0.212,-0.19
-0.073,0.113,0.186,-0.02,-0.13,0.15,-0.03,-0.072,-0.221,-0.267,-0.228,-0.21
-0.053,0.129,0.182,-0.038,-0.117,0.155,-0.03,-0.066,-0.219,-0.268,-0.225,-0.22
-0.029,0.144,0.173,-0.058,-0.101,0.158,-0.03,-0.061,-0.22,-0.266,-0.222,-0.213
-0.027,0.142,0.169,-0.057,-0.098,0.155,-0.03,-0.06,-0.22,-0.259,-0.218,-0.209
-0.024,0.141,0.165,-0.059,-0.094,0.152,-0.03,-0.06,-0.22,-0.256,-0.214,-0.205
-0.024,0.139,0.163,-0.058,-0.093,0.151,-0.028,-0.06,-0.216,-0.251,-0.211,-0.2
-0.024,0.135,0.16,-0.055,-0.092,0.147,-0.024,-0.06,-0.211,-0.246,-0.207,-0.197
-0.021,0.135,0.156,-0.057,-0.089,0.145,-0.026,-0.06,-0.206,-0.243,-0.205,-0.192
0.001,0.156,0.155,-0.079,-0.077,0.156,-0.024,-0.06,-0.202,-0.238,-0.205,-0.189
-0.017,0.14,0.157,-0.062,-0.087,0.149,-0.026,-0.059,-0.197,-0.235,-0.202,-0.186
-0.051,0.12,0.17,-0.035,-0.111,0.145,-0.032,-0.075,-0.195,-0.232,-0.199,-0.18
-0.051,0.129,0.179,-0.039,-0.116,0.154,-0.041,-0.081,-0.195,-0.227,-0.201,-0.185
-0.048,0.125,0.173,-0.039,-0.111,0.149,-0.05,-0.08,-0.195,-0.225,-0.204,-0.196
-0.035,0.13,0.165,-0.048,-0.1,0.147,-0.043,-0.079,-0.195,-0.225,-0.205,-0.195
-0.034,0.125,0.16,-0.046,-0.097,0.142,-0.039,-0.082,-0.195,-0.225,-0.205,-0.195
-0.064,0.087,0.152,-0.012,-0.108,0.119,-0.029,-0.103,-0.194,-0.225,-0.205,-0.195
-0.027,0.126,0.153,-0.049,-0.09,0.139,-0.042,-0.106,-0.2,-0.224,-0.205,-0.194
-0.021,0.154,0.175,-0.066,-0.098,0.164,-0.071,-0.104,-0.208,-0.231,-0.202,-0.197
-0.053,0.127,0.18,-0.037,-0.116,0.153,-0.065,-0.106,-0.203,-0.236,-0.198,-0.204
-0.042,0.133,0.175,-0.046,-0.109,0.154,-0.059,-0.105,-0.197,-0.229,-0.195,-0.205
-0.076,0.095,0.171,-0.009,-0.124,0.133,-0.056,-0.104,-0.192,-0.226,-0.192,-0.204
-0.09,0.078,0.168,0.006,-0.13,0.123,-0.046,-0.1,-0.187,-0.221,-0.187,-0.205
-0.053,0.11,0.163,-0.029,-0.108,0.136,-0.047,-0.097,-0.18,-0.217,-0.183,-0.205
-0.052,0.11,0.162,-0.029,-0.107,0.135,-0.043,-0.095,-0.188,-0.212,-0.195,-0.206
-0.078,0.109,0.187,-0.015,-0.133,0.147,-0.046,-0.09,-0.194,-0.204,-0.197,-0.202
-0.089,0.102,0.192,-0.006,-0.141,0.147,-0.06,-0.091,-0.183,-0.198,-0.189,-0.193
-0.061,0.127,0.188,-0.033,-0.125,0.157,-0.042,-0.083,-0.175,-0.19,-0.181,-0.182
-0.017,0.169,0.187,-0.076,-0.102,0.178,-0.024,-0.073,-0.167,-0.185,-0.166,-0.173
-0.017,0.166,0.184,-0.075,-0.101,0.175,-0.02,-0.074,-0.153,-0.176,-0.148,-0.163
-0.028,0.157,0.185,-0.065,-0.107,0.171,-0.037,-0.079,-0.143,-0.178,-0.139,-0.162
-0.02,0.156,0.176,-0.068,-0.099,0.166,-0.059,-0.081,-0.133,-0.18,-0.141,-0.166
-0.026,0.146,0.172,-0.06,-0.099,0.159,-0.051,-0.086,-0.141,-0.18,-0.137,-0.164
-0.018,0.146,0.163,-0.064,-0.091,0.154,-0.05,-0.103,-0.172,-0.181,-0.138,-0.167
-0.031,0.127,0.158,-0.048,-0.095,0.142,-0.047,-0.113,-0.173,-0.177,-0.13,-0.163
-0.043,0.107,0.15,-0.033,-0.097,0.129,-0.044,-0.102,-0.178,-0.192,-0.146,-0.178
-0.056,0.1,0.156,-0.022,-0.106,0.128,-0.042,-0.104,-0.17,-0.188,-0.156,-0.179
-0.117,0.053,0.17,0.031,-0.143,0.111,-0.034,-0.097,-0.181,-0.204,-0.166,-0.187
-0.052,0.081,0.133,-0.015,-0.093,0.107,-0.028,-0.092,-0.18,-0.191,-0.174,-0.2
-0.066,0.075,0.142,-0.005,-0.105,0.108,-0.032,-0.093,-0.178,-0.209,-0.185,-0.187
-0.128,0.01,0.137,0.059,-0.133,0.073,0.01,-0.003,-0.176,-0.232,-0.201,-0.217
-0.142,0.008,0.151,0.067,-0.146,0.079,0.163,0.218,-0.059,-0.277,-0.262,-0.294
0.013,0.212,0.199,-0.113,-0.093,0.205,0.033,0.291,0.435,0.155,0.066,-0.115
0.426,0.62,0.194,-0.523,0.116,0.407,-0.502,-0.433,0.818,0.887,0.786,0.415
0.185,0.553,0.368,-0.369,-0.092,0.461,-0.631,-1.337,-0.121,0.289,0.436,0.388
-0.272,0.108,0.38,0.082,-0.326,0.244,-0.4,-1.27,-0.926,-0.545,-0.341,-0.134
-0.235,-0.068,0.167,0.151,-0.201,0.049,-0.327,-0.738,-0.641,-0.47,-0.367,-0.288
-0.153,-0.042,0.11,0.097,-0.131,0.034,-0.221,-0.35,-0.405,-0.344,-0.272,-0.248
-0.076,0.031,0.106,0.022,-0.091,0.068,-0.098,-0.106,-0.229,-0.237,-0.19,-0.222
-0.095,0.027,0.122,0.034,-0.109,0.074,-0.058,-0.039,-0.168,-0.2,-0.162,-0.211
-0.117,0.002,0.12,0.058,-0.119,0.061,-0.054,-0.022,-0.173,-0.186,-0.176,-0.204
-0.06,0.059,0.12,0.001,-0.09,0.089,-0.049,-0.009,-0.146,-0.172,-0.16,-0.19
-0.046,0.073,0.119,-0.014,-0.083,0.096,-0.033,-0.004,-0.145,-0.172,-0.147,-0.185
-0.043,0.081,0.124,-0.019,-0.084,0.102,-0.028,0.008,-0.128,-0.154,-0.122,-0.174
-0.064,0.082,0.146,-0.009,-0.105,0.114,-0.022,0.011,-0.132,-0.154,-0.129,-0.17
-0.068,0.066,0.135,0.001,-0.102,0.1,-0.016,0.019,-0.119,-0.139,-0.126,-0.162
-0.048,0.081,0.129,-0.016,-0.089,0.105,-0.012,0.022,-0.114,-0.134,-0.114,-0.158
-0.047,0.074,0.121,-0.014,-0.085,0.097,-0.005,0.032,-0.102,-0.125,-0.1,-0.153
-0.043,0.071,0.113,-0.014,-0.078,0.091,-0.008,0.045,-0.093,-0.12,-0.091,-0.148
-0.047,0.061,0.108,-0.008,-0.078,0.084,-0.04,0.045,-0.086,-0.115,-0.084,-0.145
-0.038,0.066,0.105,-0.015,-0.072,0.085,-0.054,0.045,-0.079,-0.108,-0.078,-0.134
-0.007,0.096,0.103,-0.045,-0.055,0.099,-0.048,0.045,-0.071,-0.102,-0.067,-0.12
-0.01,0.106,0.116,-0.048,-0.063,0.111,-0.052,0.046,-0.054,-0.08,-0.049,-0.104
-0.005,0.126,0.131,-0.061,-0.068,0.129,-0.049,0.06,-0.03,-0.042,-0.024,-0.083
0.026,0.15,0.124,-0.088,-0.05,0.137,-0.049,0.06,-0.002,-0.017,0.014,-0.051
0.051,0.168,0.118,-0.109,-0.034,0.143,-0.073,0.056,0.018,0.012,0.054,-0.008
0.058,0.215,0.158,-0.137,-0.05,0.186,-0.1,0.053,0.049,0.071,0.114,0.043
0.066,0.254,0.187,-0.16,-0.061,0.22,-0.133,0.029,0.06,0.11,0.156,0.077
0.107,0.281,0.174,-0.194,-0.033,0.227,-0.143,-0.005,0.047,0.117,0.164,0.091
0.118,0.288,0.17,-0.203,-0.026,0.229,-0.147,-0.036,0.041,0.115,0.171,0.11
0.116,0.277,0.161,-0.197,-0.022,0.218,-0.15,-0.049,0.03,0.1,0.166,0.101
0.119,0.273,0.154,-0.196,-0.017,0.213,-0.109,-0.042,0.02,0.093,0.148,0.07
0.07,0.217,0.147,-0.144,-0.039,0.181,-0.082,-0.038,-0.003,0.066,0.103,0.034
0.037,0.166,0.129,-0.102,-0.046,0.147,-0.059,-0.033,-0.021,0.02,0.067,-0.004
0.02,0.135,0.115,-0.078,-0.048,0.125,-0.031,-0.025,-0.034,-0.028,0.018,-0.041
-0.016,0.085,0.101,-0.034,-0.059,0.093,-0.005,-0.023,-0.057,-0.071,-0.033,-0.078
-0.022,0.072,0.094,-0.025,-0.058,0.083,0.008,-0.01,-0.065,-0.086,-0.05,-0.089
-0.014,0.067,0.081,-0.027,-0.047,0.073,0.004,-0.017,-0.099,-0.116,-0.086,-0.108
-0.039,0.038,0.078,0.0,-0.059,0.058,0.006,-0.033,-0.12,-0.134,-0.105,-0.124
-0.071,0.023,0.094,0.023,-0.083,0.059,0.005,-0.027,-0.112,-0.127,-0.102,-0.122
-0.08,0.014,0.093,0.033,-0.087,0.054,0.016,-0.024,-0.124,-0.131,-0.109,-0.129
-0.09,-0.002,0.088,0.046,-0.089,0.043,0.023,-0.021,-0.126,-0.146,-0.109,-0.13
-0.092,-0.005,0.086,0.048,-0.089,0.04,0.03,-0.016,-0.124,-0.153,-0.106,-0.13
-0.075,0.006,0.081,0.034,-0.078,0.043,0.041,-0.014,-0.121,-0.146,-0.104,-0.13
-0.079,0.0,0.079,0.039,-0.079,0.039,0.035,-0.009,-0.118,-0.145,-0.105,-0.13
-0.085,-0.01,0.075,0.047,-0.08,0.032,0.03,-0.006,-0.116,-0.141,-0.105,-0.13
-0.07,0.002,0.072,0.034,-0.071,0.037,0.027,-0.002,-0.113,-0.136,-0.105,-0.13
-0.078,-0.008,0.07,0.043,-0.074,0.03,0.021,0.002,-0.11,-0.134,-0.103,-0.128
-0.087,-0.021,0.066,0.053,-0.076,0.023,0.02,0.004,-0.11,-0.129,-0.096,-0.122
-0.079,-0.015,0.065,0.046,-0.072,0.025,0.02,0.016,-0.108,-0.124,-0.091,-0.118
-0.068,0.0,0.068,0.034,-0.068,0.034,0.02,0.017,-0.104,-0.12,-0.086,-0.114
-0.071,0.003,0.073,0.034,-0.072,0.038,0.02,0.005,-0.105,-0.115,-0.08,-0.109
-0.058,0.016,0.074,0.02,-0.066,0.044,0.02,-0.002,-0.101,-0.111,-0.076,-0.104
-0.055,0.014,0.07,0.02,-0.063,0.042,0.02,-0.012,-0.096,-0.106,-0.075,-0.1
-0.113,-0.048,0.065,0.08,-0.089,0.008,0.015,-0.026,-0.091,-0.105,-0.075,-0.1
-0.097,-0.034,0.064,0.065,-0.08,0.015,0.016,-0.031,-0.088,-0.104,-0.075,-0.1
-0.075,-0.017,0.057,0.046,-0.066,0.02,0.013,-0.027,-0.082,-0.101,-0.075,-0.1
-0.099,-0.043,0.056,0.07,-0.077,0.006,0.01,-0.025,-0.081,-0.099,-0.075,-0.101
-0.092,-0.038,0.054,0.064,-0.073,0.008,0.01,-0.022,-0.094,-0.101,-0.072,-0.097
-0.097,-0.042,0.055,0.069,-0.076,0.006,0.009,-0.02,-0.099,-0.105,-0.07,-0.095
-0.089,-0.033,0.055,0.06,-0.071,0.011,0.018,-0.017,-0.092,-0.105,-0.07,-0.095
-0.09,-0.037,0.053,0.063,-0.071,0.008,0.021,-0.011,-0.088,-0.108,-0.067,-0.095
-0.113,-0.033,0.08,0.072,-0.096,0.023,0.019,-0.005,-0.082,-0.111,-0.064,-0.095
-0.12,-0.038,0.082,0.079,-0.101,0.022,0.021,-0.004,-0.076,-0.11,-0.067,-0.096
-0.125,-0.044,0.081,0.085,-0.103,0.018,0.019,0.005,-0.07,-0.105,-0.069,-0.1
-0.073,-0.005,0.068,0.038,-0.07,0.031,0.021,-0.001,-0.072,-0.095,-0.061,-0.09
-0.049,0.028,0.077,0.01,-0.064,0.052,0.024,-0.008,-0.071,-0.085,-0.049,-0.08
-0.065,0.051,0.116,0.007,-0.091,0.083,0.023,0.015,-0.058,-0.072,-0.036,-0.07
-0.03,0.055,0.084,-0.013,-0.057,0.069,0.019,0.016,-0.049,-0.063,-0.02,-0.06
-0.025,0.046,0.07,-0.011,-0.048,0.058,0.017,0.011,-0.051,-0.067,-0.02,-0.054
-0.025,0.044,0.069,-0.01,-0.048,0.056,0.014,0.011,-0.048,-0.063,-0.025,-0.047
-0.023,0.037,0.061,-0.007,-0.042,0.049,-0.007,0.005,-0.051,-0.067,-0.034,-0.041
-0.05,0.008,0.058,0.02,-0.054,0.033,-0.018,0.006,-0.05,-0.063,-0.038,-0.036
-0.073,-0.023,0.05,0.048,-0.061,0.013,-0.012,0.0,-0.048,-0.067,-0.046,-0.064
-0.103,-0.055,0.048,0.079,-0.075,-0.004,-0.003,-0.004,-0.068,-0.072,-0.052,-0.084
-0.116,-0.076,0.04,0.096,-0.077,-0.018,0.002,-0.012,-0.065,-0.071,-0.046,-0.076
-0.118,-0.078,0.04,0.097,-0.078,-0.019,0.019,-0.016,-0.079,-0.084,-0.056,-0.084
-0.098,-0.07,0.029,0.084,-0.063,-0.02,0.018,-0.019,-0.082,-0.074,-0.041,-0.075
-0.126,-0.091,0.035,0.108,-0.08,-0.028,0.02,0.006,-0.11,-0.097,-0.067,-0.094
-0.161,-0.13,0.031,0.145,-0.096,-0.049,0.136,0.151,-0.085,-0.13,-0.107,-0.146
-0.142,-0.082,0.06,0.112,-0.101,-0.011,0.24,0.368,0.104,-0.123,-0.119,-0.167
0.164,0.238,0.075,-0.202,0.044,0.156,-0.062,0.257,0.796,0.553,0.408,0.154
0.469,0.616,0.147,-0.543,0.161,0.381,-0.575,-0.636,0.97,1.088,1.0,0.651
0.081,0.4,0.319,-0.241,-0.119,0.359,-0.608,-1.435,-0.294,0.228,0.423,0.491
-0.256,-0.069,0.186,0.162,-0.221,0.058,-0.394,-1.121,-0.813,-0.405,-0.23,-0.008
-0.188,-0.202,-0.014,0.195,-0.087,-0.108,-0.263,-0.493,-0.425,-0.288,-0.223,-0.144
-0.122,-0.141,-0.019,0.132,-0.052,-0.08,-0.083,-0.125,-0.23,-0.171,-0.133,-0.092
-0.072,-0.115,-0.043,0.094,-0.015,-0.079,0.005,0.072,-0.06,-0.08,-0.064,-0.066
-0.083,-0.179,-0.096,0.131,0.007,-0.137,0.036,0.112,-0.044,-0.07,-0.038,-0.052
-0.08,-0.193,-0.113,0.136,0.017,-0.153,0.075,0.15,0.0,-0.041,-0.008,-0.043
-0.09,-0.18,-0.09,0.135,0.0,-0.135,0.08,0.152,0.005,-0.039,-0.002,-0.038
-0.071,-0.182,-0.111,0.127,0.02,-0.146,0.088,0.158,0.007,-0.032,0.001,-0.031
-0.054,-0.172,-0.118,0.113,0.032,-0.145,0.094,0.162,0.023,-0.022,0.009,-0.024
-0.066,-0.171,-0.105,0.119,0.02,-0.138,0.095,0.16,0.019,-0.02,0.009,-0.018
-0.058,-0.161,-0.103,0.11,0.023,-0.132,0.095,0.167,0.034,-0.009,0.017,-0.011
-0.061,-0.155,-0.094,0.108,0.017,-0.124,0.095,0.165,0.028,-0.007,0.019,-0.004
-0.053,-0.146,-0.093,0.099,0.02,-0.119,0.095,0.179,0.031,0.006,0.027,0.003
-0.05,-0.137,-0.087,0.094,0.019,-0.112,0.095,0.181,0.036,0.015,0.033,0.008
-0.046,-0.132,-0.086,0.089,0.021,-0.109,0.094,0.201,0.055,0.025,0.031,0.017
-0.034,-0.111,-0.078,0.072,0.022,-0.094,0.087,0.218,0.065,0.034,0.039,0.028
-0.015,-0.104,-0.089,0.06,0.037,-0.096,0.077,0.214,0.077,0.036,0.044,0.025
0.018,-0.085,-0.104,0.034,0.061,-0.094,0.071,0.233,0.093,0.057,0.065,0.041
0.036,-0.06,-0.096,0.012,0.066,-0.078,0.061,0.253,0.11,0.086,0.108,0.073
0.034,-0.048,-0.083,0.007,0.059,-0.065,0.057,0.264,0.136,0.114,0.137,0.105
0.052,0.001,-0.052,-0.026,0.052,-0.025,0.052,0.26,0.175,0.168,0.186,0.16
0.065,0.045,-0.021,-0.055,0.043,0.012,0.013,0.227,0.193,0.208,0.233,0.192
0.077,0.082,0.004,-0.08,0.036,0.043,-0.021,0.209,0.203,0.239,0.267,0.223
0.112,0.123,0.011,-0.118,0.05,0.067,-0.039,0.184,0.22,0.257,0.292,0.252
0.097,0.124,0.027,-0.11,0.035,0.075,-0.046,0.148,0.213,0.241,0.291,0.247
0.09,0.133,0.043,-0.112,0.023,0.088,-0.046,0.137,0.203,0.238,0.286,0.242
0.078,0.103,0.025,-0.091,0.026,0.064,-0.021,0.131,0.18,0.219,0.252,0.204
0.036,0.046,0.01,-0.041,0.013,0.028,0.02,0.124,0.139,0.169,0.194,0.158
0.015,0.009,-0.006,-0.012,0.01,0.002,0.052,0.117,0.105,0.119,0.149,0.123
-0.033,-0.056,-0.023,0.045,-0.005,-0.039,0.079,0.111,0.092,0.074,0.1,0.07
-0.044,-0.079,-0.035,0.062,-0.005,-0.057,0.086,0.105,0.067,0.037,0.058,0.034
-0.054,-0.099,-0.046,0.077,-0.004,-0.072,0.091,0.096,0.03,0.011,0.034,0.025
-0.063,-0.116,-0.053,0.09,-0.004,-0.084,0.089,0.088,0.018,0.0,0.022,0.015
-0.054,-0.112,-0.058,0.084,0.002,-0.085,0.085,0.079,0.002,-0.027,0.013,0.005
-0.055,-0.116,-0.061,0.085,0.003,-0.088,0.083,0.075,-0.032,-0.055,0.002,-0.001
-0.044,-0.115,-0.07,0.08,0.013,-0.092,0.079,0.075,-0.043,-0.056,-0.006,-0.006
-0.071,-0.149,-0.079,0.11,0.004,-0.114,0.083,0.075,-0.038,-0.051,-0.012,-0.01
-0.066,-0.147,-0.081,0.106,0.008,-0.113,0.085,0.075,-0.042,-0.051,-0.016,-0.015
-0.054,-0.138,-0.084,0.096,0.015,-0.11,0.088,0.075,-0.045,-0.067,-0.023,-0.02
-0.053,-0.14,-0.087,0.097,0.017,-0.113,0.091,0.078,-0.046,-0.071,-0.027,-0.02
-0.037,-0.127,-0.09,0.082,0.027,-0.108,0.094,0.087,-0.044,-0.068,-0.029,-0.02
-0.056,-0.146,-0.089,0.101,0.016,-0.117,0.095,0.092,-0.041,-0.065,-0.019,-0.02
-0.064,-0.144,-0.08,0.104,0.008,-0.112,0.091,0.091,-0.04,-0.059,-0.017,-0.02
-0.056,-0.125,-0.07,0.091,0.008,-0.097,0.088,0.087,-0.04,-0.079,-0.041,-0.021
-0.064,-0.125,-0.061,0.094,-0.001,-0.093,0.085,0.085,-0.04,-0.08,-0.043,-0.018
-0.069,-0.125,-0.056,0.098,-0.006,-0.091,0.082,0.081,-0.04,-0.067,-0.035,-0.015
-0.068,-0.12,-0.052,0.094,-0.008,-0.086,0.08,0.079,-0.04,-0.07,-0.032,-0.013
-0.074,-0.121,-0.047,0.098,-0.013,-0.084,0.078,0.084,-0.04,-0.07,-0.024,-0.01
-0.075,-0.119,-0.043,0.097,-0.016,-0.081,0.074,0.081,-0.04,-0.07,-0.021,-0.007
-0.076,-0.112,-0.036,0.094,-0.02,-0.074,0.069,0.072,-0.043,-0.07,-0.025,-0.004
-0.059,-0.108,-0.049,0.084,-0.005,-0.078,0.067,0.066,-0.046,-0.07,-0.033,-0.01
-0.026,-0.088,-0.062,0.057,0.019,-0.075,0.061,0.058,-0.043,-0.07,-0.037,-0.017
-0.049,-0.108,-0.059,0.078,0.006,-0.083,0.062,0.05,-0.052,-0.07,-0.041,-0.025
-0.072,-0.13,-0.058,0.101,-0.006,-0.094,0.075,0.047,-0.066,-0.07,-0.039,-0.029
-0.068,-0.122,-0.054,0.096,-0.006,-0.088,0.075,0.05,-0.065,-0.07,-0.041,-0.025
-0.071,-0.126,-0.055,0.099,-0.007,-0.09,0.07,0.05,-0.063,-0.07,-0.039,-0.025
-0.062,-0.12,-0.058,0.091,-0.002,-0.089,0.069,0.049,-0.06,-0.07,-0.036,-0.023
-0.056,-0.116,-0.061,0.086,0.003,-0.088,0.065,0.051,-0.059,-0.07,-0.03,-0.019
-0.05,-0.114,-0.064,0.082,0.008,-0.089,0.065,0.05,-0.063,-0.07,-0.031,-0.02
-0.043,-0.109,-0.066,0.076,0.012,-0.087,0.065,0.047,-0.065,-0.07,-0.056,-0.02
-0.035,-0.105,-0.07,0.07,0.018,-0.087,0.065,0.044,-0.065,-0.07,-0.06,-0.02
-0.039,-0.108,-0.069,0.073,0.015,-0.088,0.065,0.041,-0.065,-0.07,-0.054,-0.02
-0.047,-0.11,-0.063,0.079,0.008,-0.086,0.065,0.039,-0.071,-0.072,-0.053,-0.02
-0.042,-0.1,-0.057,0.071,0.008,-0.078,0.065,0.034,-0.074,-0.077,-0.047,-0.021
-0.043,-0.095,-0.051,0.069,0.004,-0.073,0.069,0.038,-0.079,-0.08,-0.045,-0.019
-0.04,-0.086,-0.046,0.064,0.003,-0.066,0.072,0.039,-0.076,-0.073,-0.038,-0.015
-0.019,-0.067,-0.048,0.043,0.015,-0.057,0.077,0.049,-0.064,-0.063,-0.03,-0.012
-0.014,-0.065,-0.05,0.04,0.019,-0.057,0.089,0.069,-0.047,-0.056,-0.023,-0.009
-0.014,-0.064,-0.05,0.039,0.018,-0.056,0.08,0.061,-0.032,-0.046,-0.013,-0.005
-0.017,-0.067,-0.05,0.042,0.017,-0.058,0.048,0.052,-0.036,-0.045,-0.013,0.0
-0.019,-0.069,-0.05,0.044,0.015,-0.059,0.033,0.044,-0.037,-0.038,-0.017,0.015
-0.02,-0.071,-0.051,0.045,0.016,-0.061,0.035,0.039,-0.042,-0.038,-0.022,0.023
-0.013,-0.068,-0.055,0.041,0.021,-0.061,0.036,0.039,-0.043,-0.031,-0.025,0.018
-0.001,-0.056,-0.055,0.029,0.027,-0.056,0.038,0.033,-0.049,-0.031,-0.03,0.013
-0.033,-0.087,-0.054,0.06,0.011,-0.07,0.042,0.034,-0.061,-0.06,-0.039,0.005
-0.024,-0.08,-0.056,0.053,0.016,-0.068,0.035,0.027,-0.05,-0.069,-0.038,0.004
-0.056,-0.109,-0.054,0.083,-0.001,-0.081,0.039,0.03,-0.073,-0.083,-0.048,-0.015
-0.074,-0.126,-0.052,0.1,-0.011,-0.089,0.025,0.019,-0.055,-0.089,-0.056,-0.043
-0.055,-0.094,-0.039,0.075,-0.008,-0.066,0.043,0.024,-0.068,-0.096,-0.073,-0.046
-0.127,-0.174,-0.047,0.151,-0.04,-0.11,0.143,0.146,-0.083,-0.139,-0.117,-0.078
-0.15,-0.146,0.004,0.148,-0.077,-0.071,0.248,0.369,0.06,-0.154,-0.15,-0.121
0.17,0.182,0.012,-0.176,0.079,0.097,-0.004,0.305,0.713,0.45,0.332,0.159
0.552,0.549,-0.003,-0.55,0.277,0.273,-0.557,-0.577,0.981,1.018,0.946,0.655
0.184,0.436,0.253,-0.31,-0.035,0.344,-0.658,-1.465,-0.182,0.32,0.51,0.598
-0.232,-0.035,0.197,0.133,-0.215,0.081,-0.434,-1.224,-0.806,-0.351,-0.158,0.109
-0.145,-0.23,-0.085,0.188,-0.03,-0.157,-0.256,-0.534,-0.451,-0.305,-0.237,-0.09
-0.089,-0.151,-0.062,0.12,-0.013,-0.106,-0.075,-0.126,-0.236,-0.198,-0.141,-0.055
-0.046,-0.1,-0.054,0.073,0.004,-0.076,0.015,0.07,-0.091,-0.121,-0.079,-0.048
-0.048,-0.1,-0.052,0.074,0.003,-0.075,0.05,0.105,-0.079,-0.1,-0.085,-0.041
-0.072,-0.117,-0.045,0.094,-0.013,-0.081,0.057,0.122,-0.056,-0.078,-0.075,-0.034
-0.058,-0.123,-0.065,0.09,0.004,-0.094,0.052,0.114,-0.05,-0.078,-0.072,-0.028
-0.059,-0.118,-0.059,0.089,0.0,-0.088,0.062,0.126,-0.048,-0.077,-0.069,-0.021
-0.072,-0.121,-0.048,0.097,-0.012,-0.084,0.074,0.159,-0.033,-0.07,-0.062,-0.016
-0.055,-0.092,-0.037,0.074,-0.009,-0.065,0.076,0.153,-0.035,-0.073,-0.059,-0.009
-0.036,-0.078,-0.042,0.057,0.003,-0.06,0.074,0.156,-0.021,-0.065,-0.051,-0.003
-0.064,-0.102,-0.039,0.083,-0.013,-0.07,0.076,0.156,-0.02,-0.059,-0.048,0.004
-0.056,-0.097,-0.041,0.076,-0.007,-0.069,0.073,0.153,-0.011,-0.046,-0.04,0.011
-0.057,-0.097,-0.04,0.077,-0.008,-0.068,0.087,0.166,-0.008,-0.04,-0.037,0.015
-0.028,-0.085,-0.057,0.057,0.014,-0.071,0.093,0.167,-0.003,-0.049,-0.028,0.015
0.033,-0.042,-0.076,0.005,0.055,-0.059,0.082,0.168,0.0,-0.043,-0.013,0.014
0.004,-0.06,-0.064,0.028,0.034,-0.061,0.075,0.199,0.012,-0.023,0.0,0.017
-0.01,-0.059,-0.049,0.034,0.02,-0.054,0.067,0.214,0.029,0.002,0.013,0.037
0.041,0.005,-0.036,-0.023,0.038,-0.015,0.059,0.226,0.056,0.031,0.043,0.055
0.053,0.032,-0.021,-0.042,0.037,0.005,0.044,0.226,0.07,0.051,0.074,0.079
0.057,0.048,-0.009,-0.052,0.032,0.019,0.022,0.214,0.1,0.097,0.118,0.127
0.093,0.107,0.015,-0.1,0.039,0.061,-0.011,0.207,0.135,0.148,0.173,0.172
0.103,0.142,0.039,-0.122,0.032,0.09,-0.046,0.187,0.128,0.179,0.211,0.214
0.122,0.159,0.037,-0.141,0.042,0.098,-0.057,0.16,0.121,0.203,0.24,0.24
0.149,0.177,0.028,-0.163,0.06,0.102,-0.049,0.133,0.115,0.203,0.245,0.245
0.158,0.181,0.023,-0.169,0.067,0.101,-0.041,0.117,0.105,0.197,0.242,0.247
0.159,0.172,0.014,-0.166,0.072,0.093,-0.029,0.111,0.1,0.177,0.22,0.227
0.088,0.096,0.008,-0.092,0.04,0.052,0.001,0.104,0.091,0.128,0.164,0.178
0.04,0.039,-0.001,-0.039,0.02,0.019,0.028,0.096,0.073,0.077,0.112,0.133
0.042,0.028,-0.014,-0.035,0.028,0.007,0.057,0.09,0.046,0.029,0.06,0.085
0.016,-0.009,-0.024,-0.003,0.02,-0.016,0.066,0.079,0.013,-0.007,0.016,0.037
-0.014,-0.048,-0.034,0.031,0.01,-0.041,0.066,0.053,-0.017,-0.035,-0.007,0.021
-0.02,-0.056,-0.036,0.038,0.008,-0.046,0.08,0.039,-0.048,-0.068,-0.021,0.017
0.004,-0.045,-0.05,0.021,0.027,-0.047,0.075,0.041,-0.062,-0.08,-0.037,0.01
0.011,-0.056,-0.066,0.023,0.039,-0.061,0.07,0.038,-0.061,-0.08,-0.054,0.005
0.018,-0.047,-0.065,0.015,0.041,-0.055,0.065,0.035,-0.088,-0.088,-0.069,-0.003
0.011,-0.054,-0.065,0.022,0.038,-0.059,0.058,0.034,-0.097,-0.091,-0.077,-0.009
-0.018,-0.083,-0.065,0.051,0.024,-0.074,0.056,0.037,-0.093,-0.097,-0.074,-0.016
-0.035,-0.1,-0.065,0.068,0.015,-0.082,0.054,0.042,-0.096,-0.109,-0.076,-0.031
-0.056,-0.117,-0.061,0.087,0.003,-0.089,0.056,0.045,-0.094,-0.11,-0.074,-0.036
-0.05,-0.104,-0.055,0.077,0.003,-0.079,0.055,0.051,-0.095,-0.111,-0.076,-0.034
-0.046,-0.096,-0.05,0.071,0.003,-0.073,0.055,0.048,-0.09,-0.12,-0.096,-0.036
-0.038,-0.083,-0.045,0.061,0.003,-0.064,0.055,0.058,-0.09,-0.119,-0.099,-0.033
-0.049,-0.087,-0.038,0.068,-0.006,-0.062,0.051,0.072,-0.09,-0.116,-0.091,-0.041
-0.076,-0.113,-0.037,0.095,-0.02,-0.074,0.049,0.067,-0.09,-0.114,-0.089,-0.049
-0.054,-0.098,-0.044,0.077,-0.005,-0.071,0.045,0.064,-0.09,-0.11,-0.083,-0.04
-0.039,-0.086,-0.047,0.062,0.004,-0.066,0.044,0.061,-0.09,-0.11,-0.08,-0.031
-0.058,-0.085,-0.028,0.072,-0.015,-0.056,0.039,0.056,-0.09,-0.11,-0.075,-0.026
-0.031,-0.06,-0.029,0.046,-0.001,-0.045,0.044,0.038,-0.09,-0.11,-0.075,-0.014
-0.019,-0.079,-0.06,0.049,0.02,-0.069,0.061,0.022,-0.09,-0.11,-0.074,-0.022
-0.066,-0.11,-0.044,0.088,-0.01,-0.077,0.058,0.016,-0.09,-0.11,-0.07,-0.037
-0.063,-0.092,-0.029,0.078,-0.017,-0.061,0.054,0.009,-0.09,-0.11,-0.07,-0.035
-0.035,-0.088,-0.053,0.061,0.009,-0.07,0.051,0.001,-0.097,-0.106,-0.072,-0.033
-0.025,-0.086,-0.061,0.056,0.019,-0.073,0.046,-0.007,-0.105,-0.105,-0.079,-0.03
-0.024,-0.083,-0.06,0.054,0.018,-0.071,0.044,-0.008,-0.105,-0.105,-0.08,-0.03
-0.026,-0.086,-0.06,0.056,0.017,-0.073,0.039,0.003,-0.105,-0.105,-0.08,-0.028
-0.024,-0.084,-0.06,0.054,0.018,-0.071,0.034,0.012,-0.104,-0.106,-0.08,-0.024
-0.025,-0.085,-0.06,0.055,0.018,-0.072,0.029,0.011,-0.106,-0.105,-0.08,-0.022
-0.031,-0.086,-0.055,0.059,0.013,-0.07,0.026,0.005,-0.11,-0.125,-0.08,-0.019
-0.031,-0.081,-0.05,0.056,0.01,-0.065,0.018,0.001,-0.11,-0.14,-0.082,-0.016
-0.037,-0.082,-0.045,0.06,0.004,-0.063,0.026,-0.003,-0.11,-0.132,-0.086,-0.015
-0.032,-0.075,-0.042,0.054,0.005,-0.058,0.035,-0.009,-0.107,-0.126,-0.085,-0.019
-0.048,-0.083,-0.035,0.066,-0.006,-0.059,0.027,-0.008,-0.104,-0.12,-0.085,-0.028
-0.054,-0.093,-0.039,0.074,-0.008,-0.065,0.02,-0.005,-0.106,-0.112,-0.085,-0.037
-0.018,-0.075,-0.057,0.046,0.02,-0.066,0.015,-0.005,-0.109,-0.111,-0.085,-0.032
-0.026,-0.088,-0.061,0.057,0.018,-0.074,0.006,-0.002,-0.113,-0.123,-0.09,-0.03
-0.028,-0.087,-0.059,0.057,0.016,-0.073,0.009,0.001,-0.118,-0.126,-0.09,-0.027
-0.021,-0.082,-0.061,0.051,0.02,-0.071,0.026,-0.001,-0.12,-0.124,-0.09,-0.023
-0.028,-0.087,-0.059,0.058,0.016,-0.073,0.025,-0.004,-0.12,-0.125,-0.09,-0.033
-0.028,-0.083,-0.055,0.056,0.014,-0.069,0.018,-0.007,-0.123,-0.125,-0.09,-0.037
-0.038,-0.087,-0.048,0.063,0.005,-0.067,0.014,-0.009,-0.126,-0.124,-0.087,-0.035
-0.039,-0.083,-0.044,0.061,0.003,-0.063,0.008,-0.013,-0.124,-0.119,-0.085,-0.035
-0.056,-0.094,-0.038,0.075,-0.008,-0.066,0.002,-0.016,-0.12,-0.12,-0.085,-0.03
-0.069,-0.1,-0.03,0.085,-0.019,-0.064,0.002,-0.012,-0.12,-0.117,-0.082,-0.03
-0.049,-0.091,-0.041,0.07,-0.004,-0.066,0.007,-0.01,-0.12,-0.114,-0.079,-0.029
-0.039,-0.088,-0.05,0.064,0.006,-0.069,0.01,-0.006,-0.12,-0.115,-0.081,-0.024
-0.036,-0.078,-0.042,0.057,0.003,-0.06,0.014,-0.005,-0.12,-0.112,-0.084,-0.025
-0.038,-0.075,-0.037,0.057,0.0,-0.056,0.018,0.001,-0.12,-0.106,-0.081,-0.037
-0.027,-0.058,-0.032,0.043,0.003,-0.045,0.021,-0.001,-0.12,-0.101,-0.074,-0.038
-0.027,-0.053,-0.026,0.04,0.0,-0.039,0.018,-0.003,-0.119,-0.098,-0.071,-0.03
-0.032,-0.052,-0.02,0.043,-0.006,-0.036,0.031,-0.006,-0.121,-0.092,-0.066,-0.025
-0.019,-0.024,-0.005,0.022,-0.007,-0.014,0.05,0.002,-0.09,-0.09,-0.062,-0.02
-0.02,-0.018,0.002,0.019,-0.011,-0.008,0.044,0.039,-0.061,-0.09,-0.057,-0.015
0.004,-0.017,-0.021,0.007,0.013,-0.018,0.031,0.044,-0.069,-0.09,-0.054,-0.012
0.02,-0.011,-0.031,-0.004,0.026,-0.021,0.02,0.033,-0.072,-0.09,-0.056,-0.009
0.02,-0.01,-0.03,-0.005,0.025,-0.02,0.014,0.019,-0.065,-0.089,-0.054,-0.004
0.012,-0.018,-0.03,0.003,0.021,-0.024,0.012,-0.003,-0.084,-0.093,-0.057,-0.001
0.005,-0.025,-0.031,0.01,0.018,-0.028,0.006,-0.018,-0.086,-0.082,-0.068,-0.001
-0.02,-0.049,-0.029,0.035,0.005,-0.039,0.005,-0.025,-0.094,-0.094,-0.079,-0.019
-0.034,-0.061,-0.027,0.048,-0.004,-0.043,-0.002,-0.027,-0.117,-0.103,-0.072,-0.017
-0.033,-0.053,-0.021,0.043,-0.006,-0.037,0.006,-0.027,-0.122,-0.107,-0.078,-0.024
-0.015,-0.051,-0.036,0.033,0.01,-0.044,0.014,-0.017,-0.12,-0.103,-0.074,-0.027
-0.003,-0.058,-0.055,0.031,0.026,-0.056,0.02,-0.031,-0.123,-0.108,-0.078,-0.027
-0.084,-0.117,-0.033,0.101,-0.025,-0.075,0.043,0.016,-0.131,-0.136,-0.117,-0.069
-0.088,-0.136,-0.048,0.112,-0.02,-0.091,0.158,0.206,-0.094,-0.202,-0.189,-0.117
0.028,0.011,-0.016,-0.019,0.022,-0.002,0.175,0.399,0.254,-0.004,-0.053,-0.067
0.443,0.405,-0.039,-0.424,0.241,0.183,-0.312,-0.062,0.931,0.775,0.645,0.39
0.502,0.607,0.105,-0.555,0.198,0.356,-0.715,-1.156,0.478,0.775,0.828,0.728
-0.065,0.252,0.317,-0.093,-0.192,0.284,-0.58,-1.5,-0.63,-0.111,0.099,0.362
-0.191,-0.127,0.064,0.159,-0.127,-0.031,-0.387,-0.896,-0.637,-0.381,-0.268,-0.048
-0.073,-0.152,-0.079,0.113,0.003,-0.115,-0.212,-0.323,-0.324,-0.257,-0.207,-0.093
-0.049,-0.085,-0.036,0.067,-0.006,-0.06,-0.055,-0.023,-0.174,-0.165,-0.132,-0.046
-0.024,-0.083,-0.059,0.054,0.017,-0.07,-0.01,0.077,-0.093,-0.125,-0.09,-0.046
-0.042,-0.077,-0.036,0.06,-0.003,-0.056,0.0,0.087,-0.093,-0.126,-0.087,-0.045
-0.016,-0.061,-0.045,0.038,0.015,-0.052,0.01,0.102,-0.066,-0.11,-0.083,-0.041
-0.012,-0.049,-0.037,0.03,0.013,-0.043,0.019,0.104,-0.074,-0.111,-0.084,-0.041
-0.02,-0.061,-0.041,0.041,0.01,-0.051,0.02,0.113,-0.055,-0.098,-0.078,-0.039
-0.009,-0.049,-0.04,0.029,0.016,-0.045,0.02,0.114,-0.055,-0.096,-0.081,-0.049
-0.018,-0.057,-0.039,0.038,0.011,-0.048,0.02,0.118,-0.045,-0.09,-0.075,-0.052
-0.014,-0.056,-0.041,0.035,0.014,-0.048,0.035,0.121,-0.039,-0.086,-0.087,-0.044
0.018,-0.02,-0.038,0.001,0.029,-0.029,0.038,0.123,-0.034,-0.084,-0.093,-0.035
0.009,-0.032,-0.041,0.011,0.025,-0.037,0.03,0.126,-0.024,-0.079,-0.078,-0.029
-0.005,-0.044,-0.039,0.024,0.017,-0.041,0.027,0.128,-0.021,-0.076,-0.071,-0.02
-0.01,-0.051,-0.041,0.03,0.015,-0.046,0.019,0.141,-0.013,-0.071,-0.059,-0.013
0.005,-0.034,-0.039,0.015,0.022,-0.036,0.016,0.144,-0.009,-0.059,-0.051,-0.003
0.029,-0.002,-0.031,-0.014,0.03,-0.016,0.007,0.155,0.0,-0.042,-0.038,0.005
0.035,0.013,-0.023,-0.024,0.029,-0.005,-0.002,0.175,0.015,-0.021,-0.017,0.015
0.052,0.037,-0.015,-0.044,0.033,0.011,-0.01,0.188,0.039,0.012,0.014,0.044
0.068,0.061,-0.008,-0.064,0.038,0.026,-0.019,0.187,0.06,0.035,0.039,0.056
0.102,0.107,0.005,-0.104,0.048,0.056,-0.03,0.175,0.09,0.077,0.09,0.107
0.129,0.158,0.029,-0.144,0.05,0.093,-0.06,0.163,0.114,0.131,0.151,0.157
0.134,0.17,0.035,-0.153,0.049,0.102,-0.089,0.136,0.11,0.149,0.173,0.177
0.166,0.2,0.034,-0.184,0.066,0.117,-0.09,0.098,0.107,0.158,0.196,0.21
0.182,0.239,0.058,-0.211,0.062,0.148,-0.102,0.061,0.103,0.151,0.192,0.203
0.164,0.224,0.061,-0.194,0.051,0.142,-0.105,0.044,0.101,0.14,0.176,0.191
0.127,0.173,0.046,-0.15,0.04,0.109,-0.073,0.044,0.093,0.128,0.152,0.155
0.105,0.14,0.035,-0.122,0.035,0.087,-0.045,0.04,0.072,0.092,0.1,0.104
0.093,0.105,0.012,-0.099,0.041,0.059,-0.022,0.037,0.053,0.042,0.05,0.067
0.045,0.037,-0.008,-0.041,0.027,0.014,-0.005,0.036,0.025,-0.009,0.005,0.023
0.037,0.01,-0.027,-0.023,0.032,-0.008,0.001,0.031,-0.013,-0.054,-0.036,-0.007
0.061,0.02,-0.042,-0.041,0.051,-0.011,0.004,0.02,-0.04,-0.076,-0.066,-0.024
0.043,0.007,-0.036,-0.025,0.039,-0.014,0.007,0.008,-0.047,-0.082,-0.072,-0.04
0.025,-0.008,-0.033,-0.008,0.03,-0.02,0.012,-0.002,-0.063,-0.102,-0.086,-0.054
0.002,-0.029,-0.03,0.014,0.016,-0.029,0.015,0.001,-0.065,-0.106,-0.094,-0.055
-0.007,-0.031,-0.023,0.019,0.008,-0.026,0.015,0.006,-0.065,-0.106,-0.094,-0.054
0.016,-0.021,-0.037,0.003,0.027,-0.029,0.015,0.008,-0.082,-0.126,-0.097,-0.056
-0.017,-0.054,-0.037,0.036,0.01,-0.045,0.015,0.011,-0.084,-0.132,-0.098,-0.059
-0.035,-0.074,-0.039,0.054,0.002,-0.056,0.016,0.014,-0.099,-0.13,-0.118,-0.079
-0.015,-0.068,-0.053,0.041,0.019,-0.061,0.022,0.015,-0.106,-0.128,-0.127,-0.087
-0.02,-0.066,-0.046,0.043,0.014,-0.056,0.025,0.018,-0.098,-0.125,-0.124,-0.084
-0.02,-0.065,-0.045,0.043,0.013,-0.055,0.03,0.021,-0.098,-0.122,-0.126,-0.086
-0.019,-0.059,-0.04,0.039,0.011,-0.049,0.035,0.018,-0.092,-0.12,-0.125,-0.083
-0.02,-0.045,-0.025,0.033,0.002,-0.035,0.029,0.012,-0.09,-0.116,-0.125,-0.088
-0.02,-0.039,-0.019,0.03,0.0,-0.029,0.017,0.008,-0.085,-0.115,-0.119,-0.071
-0.019,-0.036,-0.017,0.027,-0.001,-0.026,0.006,0.003,-0.082,-0.115,-0.114,-0.078
-0.001,-0.033,-0.032,0.017,0.016,-0.032,-0.006,-0.001,-0.078,-0.116,-0.109,-0.102
0.019,-0.027,-0.046,0.005,0.033,-0.037,-0.01,-0.006,-0.075,-0.114,-0.103,-0.085
0.013,-0.027,-0.04,0.007,0.027,-0.033,-0.01,-0.009,-0.069,-0.117,-0.097,-0.084
0.02,-0.018,-0.038,-0.001,0.029,-0.027,-0.013,-0.012,-0.074,-0.129,-0.097,-0.085
0.016,-0.018,-0.034,0.001,0.025,-0.025,-0.015,-0.015,-0.076,-0.13,-0.1,-0.087
-0.004,-0.034,-0.029,0.019,0.013,-0.031,-0.015,-0.017,-0.077,-0.13,-0.1,-0.091
-0.005,-0.032,-0.028,0.019,0.012,-0.03,-0.011,-0.021,-0.101,-0.13,-0.1,-0.09
0.001,-0.021,-0.022,0.01,0.012,-0.022,-0.005,-0.018,-0.107,-0.13,-0.105,-0.093
-0.007,-0.028,-0.021,0.017,0.007,-0.024,0.004,-0.014,-0.104,-0.128,-0.117,-0.1
-0.038,-0.053,-0.015,0.046,-0.011,-0.034,0.018,-0.015,-0.106,-0.125,-0.118,-0.111
-0.023,-0.041,-0.018,0.033,-0.003,-0.029,0.022,-0.011,-0.104,-0.122,-0.11,-0.106
0.013,-0.032,-0.045,0.01,0.03,-0.039,-0.011,-0.01,-0.105,-0.12,-0.107,-0.103
0.013,-0.036,-0.049,0.012,0.031,-0.042,-0.042,-0.01,-0.099,-0.117,-0.099,-0.1
0.013,-0.026,-0.039,0.007,0.026,-0.032,-0.034,-0.003,-0.093,-0.114,-0.096,-0.096
0.017,-0.021,-0.038,0.002,0.027,-0.029,-0.028,-0.009,-0.09,-0.124,-0.102,-0.092
0.005,-0.009,-0.014,0.002,0.009,-0.011,-0.017,-0.02,-0.084,-0.122,-0.099,-0.084
-0.014,-0.006,0.008,0.01,-0.011,0.001,-0.006,-0.014,-0.081,-0.112,-0.088,-0.075
-0.005,0.024,0.029,-0.01,-0.017,0.026,0.013,0.009,-0.072,-0.106,-0.08,-0.071
-0.014,0.025,0.04,-0.006,-0.027,0.032,0.019,0.027,-0.059,-0.096,-0.076,-0.068
-0.011,0.016,0.027,-0.003,-0.02,0.021,-0.003,0.018,-0.044,-0.099,-0.081,-0.065
0.031,0.044,0.013,-0.038,0.009,0.028,-0.022,0.011,-0.04,-0.1,-0.08,-0.065
0.053,0.051,-0.001,-0.052,0.027,0.025,-0.047,0.004,-0.067,-0.099,-0.079,-0.065
0.063,0.058,-0.005,-0.06,0.034,0.026,-0.048,0.002,-0.083,-0.102,-0.082,-0.065
0.036,0.023,-0.013,-0.029,0.024,0.005,-0.043,-0.002,-0.084,-0.097,-0.077,-0.065
0.0,-0.016,-0.016,0.009,0.008,-0.016,-0.037,-0.006,-0.103,-0.104,-0.094,-0.085
-0.012,-0.026,-0.015,0.02,0.002,-0.02,-0.032,-0.008,-0.097,-0.107,-0.093,-0.101
-0.03,-0.042,-0.011,0.036,-0.009,-0.026,-0.026,-0.017,-0.102,-0.134,-0.118,-0.11
-0.04,-0.05,-0.01,0.045,-0.015,-0.03,-0.02,-0.02,-0.1,-0.129,-0.125,-0.112
-0.041,-0.051,-0.01,0.046,-0.015,-0.03,-0.011,-0.038,-0.097,-0.139,-0.123,-0.105
-0.046,-0.073,-0.027,0.06,-0.009,-0.05,0.043,0.041,-0.109,-0.149,-0.141,-0.127
-0.095,-0.117,-0.021,0.106,-0.037,-0.069,0.176,0.247,-0.027,-0.194,-0.198,-0.202
0.025,0.03,0.005,-0.028,0.01,0.018,0.151,0.396,0.364,0.064,-0.018,-0.121
0.465,0.439,-0.026,-0.452,0.245,0.206,-0.355,-0.126,0.877,0.848,0.717,0.382
0.37,0.512,0.142,-0.442,0.114,0.326,-0.633,-1.14,0.204,0.568,0.654,0.561
-0.149,0.096,0.245,0.026,-0.197,0.17,-0.409,-1.323,-0.778,-0.362,-0.169,0.073
-0.216,-0.177,0.039,0.197,-0.127,-0.069,-0.325,-0.807,-0.655,-0.437,-0.337,-0.198
-0.138,-0.177,-0.039,0.158,-0.049,-0.108,-0.245,-0.369,-0.383,-0.302,-0.233,-0.163
-0.053,-0.099,-0.046,0.077,-0.003,-0.072,-0.094,-0.077,-0.197,-0.188,-0.154,-0.131
-0.01,-0.064,-0.054,0.037,0.022,-0.059,-0.044,0.012,-0.103,-0.126,-0.109,-0.102
-0.045,-0.074,-0.029,0.059,-0.008,-0.051,-0.032,0.041,-0.101,-0.135,-0.115,-0.101
-0.057,-0.066,-0.009,0.061,-0.024,-0.037,-0.035,0.067,-0.062,-0.116,-0.092,-0.099
-0.057,-0.065,-0.008,0.061,-0.024,-0.036,-0.032,0.066,-0.069,-0.121,-0.092,-0.097
-0.036,-0.067,-0.031,0.052,-0.002,-0.049,-0.026,0.076,-0.047,-0.101,-0.08,-0.095
-0.028,-0.046,-0.019,0.037,-0.004,-0.033,-0.022,0.076,-0.051,-0.095,-0.08,-0.095
0.011,-0.009,-0.02,-0.001,0.015,-0.014,-0.014,0.082,-0.041,-0.071,-0.074,-0.089
-0.01,-0.024,-0.014,0.018,0.002,-0.019,-0.011,0.085,-0.036,-0.062,-0.068,-0.083
-0.051,-0.063,-0.011,0.057,-0.02,-0.037,-0.015,0.084,-0.033,-0.058,-0.061,-0.078
-0.02,-0.024,-0.004,0.022,-0.008,-0.013,-0.02,0.088,-0.024,-0.051,-0.051,-0.071
-0.019,-0.002,0.017,0.01,-0.018,0.008,-0.025,0.09,-0.022,-0.047,-0.045,-0.069
-0.011,-0.005,0.007,0.008,-0.009,0.001,-0.028,0.091,-0.013,-0.04,-0.04,-0.059
0.042,0.04,-0.002,-0.041,0.022,0.019,-0.035,0.093,-0.01,-0.035,-0.03,-0.057
0.054,0.054,0.0,-0.054,0.027,0.027,-0.036,0.102,0.007,-0.009,-0.006,-0.036
0.046,0.054,0.008,-0.05,0.019,0.031,-0.043,0.112,0.035,0.011,0.021,-0.011
0.054,0.072,0.018,-0.063,0.018,0.045,-0.037,0.106,0.055,0.038,0.055,0.015
0.076,0.101,0.026,-0.089,0.025,0.063,-0.048,0.095,0.066,0.079,0.086,0.066
0.105,0.149,0.043,-0.127,0.031,0.096,-0.102,0.083,0.076,0.113,0.135,0.097
0.145,0.201,0.056,-0.173,0.045,0.128,-0.118,0.062,0.104,0.162,0.188,0.138
0.151,0.219,0.069,-0.185,0.041,0.144,-0.135,0.026,0.112,0.19,0.208,0.17
0.142,0.239,0.097,-0.191,0.022,0.168,-0.15,-0.004,0.108,0.203,0.231,0.166
0.151,0.253,0.102,-0.202,0.024,0.177,-0.162,-0.02,0.112,0.205,0.232,0.16
0.137,0.22,0.084,-0.179,0.026,0.152,-0.163,-0.042,0.091,0.174,0.203,0.143
0.11,0.188,0.079,-0.149,0.015,0.133,-0.11,-0.047,0.066,0.137,0.165,0.117
0.086,0.133,0.047,-0.11,0.019,0.09,-0.081,-0.036,0.037,0.084,0.098,0.069
0.05,0.079,0.029,-0.065,0.01,0.054,-0.06,-0.028,0.024,0.037,0.049,0.021
0.012,0.051,0.039,-0.032,-0.014,0.045,-0.036,-0.028,0.007,-0.002,0.012,-0.007
-0.016,0.009,0.025,0.003,-0.021,0.017,-0.03,-0.03,-0.027,-0.039,-0.024,-0.034
-0.003,0.016,0.019,-0.007,-0.011,0.017,-0.027,-0.031,-0.039,-0.057,-0.037,-0.062
0.026,0.03,0.004,-0.028,0.01,0.017,-0.025,-0.044,-0.06,-0.079,-0.063,-0.086
0.005,-0.013,-0.019,0.004,0.012,-0.016,-0.021,-0.053,-0.073,-0.092,-0.089,-0.092
0.013,-0.013,-0.026,0.0,0.02,-0.019,-0.02,-0.051,-0.09,-0.095,-0.097,-0.093
0.011,-0.017,-0.028,0.003,0.02,-0.023,-0.016,-0.047,-0.107,-0.102,-0.101,-0.097
-0.001,-0.056,-0.054,0.029,0.027,-0.055,-0.011,-0.042,-0.108,-0.118,-0.103,-0.102
0.015,-0.053,-0.068,0.02,0.041,-0.06,-0.006,-0.039,-0.111,-0.128,-0.105,-0.11
0.017,-0.046,-0.063,0.015,0.04,-0.054,-0.004,-0.033,-0.109,-0.124,-0.1,-0.106
0.025,-0.045,-0.07,0.01,0.048,-0.057,0.005,-0.026,-0.11,-0.124,-0.1,-0.105
0.032,-0.038,-0.07,0.003,0.051,-0.054,-0.001,-0.019,-0.11,-0.119,-0.1,-0.105
0.036,-0.035,-0.07,0.0,0.053,-0.052,-0.023,-0.012,-0.11,-0.12,-0.099,-0.105
0.012,-0.052,-0.064,0.02,0.038,-0.058,-0.026,-0.006,-0.108,-0.118,-0.101,-0.106
-0.002,-0.06,-0.059,0.031,0.029,-0.06,-0.023,-0.001,-0.101,-0.111,-0.097,-0.104
-0.002,-0.05,-0.048,0.026,0.023,-0.048,-0.026,0.0,-0.094,-0.107,-0.095,-0.098
-0.028,-0.044,-0.017,0.036,-0.005,-0.03,-0.037,0.0,-0.088,-0.1,-0.095,-0.092
-0.055,-0.038,0.017,0.046,-0.036,-0.01,-0.037,0.0,-0.081,-0.095,-0.095,-0.087
-0.065,-0.029,0.036,0.046,-0.05,0.004,-0.029,0.0,-0.075,-0.09,-0.095,-0.081
-0.058,-0.024,0.034,0.04,-0.046,0.005,-0.025,0.001,-0.075,-0.086,-0.084,-0.08
-0.063,-0.034,0.029,0.048,-0.046,-0.002,-0.018,0.005,-0.075,-0.083,-0.07,-0.079
-0.08,-0.053,0.027,0.066,-0.053,-0.012,-0.014,0.005,-0.074,-0.08,-0.059,-0.076
-0.078,-0.056,0.022,0.067,-0.05,-0.017,-0.01,0.008,-0.076,-0.078,-0.062,-0.074
-0.068,-0.048,0.02,0.058,-0.044,-0.014,-0.008,0.01,-0.074,-0.074,-0.075,-0.077
-0.086,-0.05,0.036,0.068,-0.061,-0.006,-0.005,0.01,-0.078,-0.078,-0.073,-0.08
-0.101,-0.051,0.05,0.075,-0.075,0.0,-0.002,0.006,-0.087,-0.085,-0.068,-0.08
-0.105,-0.049,0.056,0.077,-0.081,0.003,0.001,0.0,-0.085,-0.085,-0.067,-0.08
-0.11,-0.05,0.059,0.08,-0.084,0.004,-0.004,0.0,-0.078,-0.085,-0.06,-0.08
-0.105,-0.05,0.054,0.077,-0.079,0.002,-0.01,0.0,-0.074,-0.085,-0.063,-0.08
-0.104,-0.049,0.055,0.076,-0.08,0.003,-0.015,0.0,-0.068,-0.085,-0.078,-0.076
-0.113,-0.059,0.055,0.086,-0.084,-0.002,-0.022,0.0,-0.06,-0.085,-0.081,-0.075
-0.117,-0.062,0.055,0.089,-0.086,-0.003,-0.023,-0.001,-0.071,-0.085,-0.079,-0.075
-0.104,-0.049,0.055,0.076,-0.079,0.002,-0.021,0.004,-0.081,-0.085,-0.081,-0.07
-0.098,-0.046,0.052,0.072,-0.075,0.003,-0.016,0.006,-0.073,-0.086,-0.08,-0.07
-0.083,-0.035,0.047,0.059,-0.065,0.006,-0.016,0.006,-0.07,-0.084,-0.08,-0.069
-0.069,-0.025,0.044,0.047,-0.057,0.01,-0.01,0.021,-0.065,-0.087,-0.079,-0.062
-0.095,-0.031,0.063,0.063,-0.079,0.016,-0.011,0.029,-0.06,-0.078,-0.07,-0.058
-0.101,-0.012,0.088,0.057,-0.095,0.038,0.002,0.045,-0.054,-0.046,-0.062,-0.052
-0.044,0.045,0.089,0.0,-0.067,0.066,0.03,0.067,-0.037,-0.038,-0.053,-0.046
-0.01,0.063,0.074,-0.027,-0.042,0.068,0.004,0.058,-0.027,-0.042,-0.045,-0.041
-0.02,0.048,0.068,-0.014,-0.044,0.058,-0.024,0.05,-0.031,-0.045,-0.047,-0.037
-0.031,0.038,0.069,-0.004,-0.05,0.053,-0.041,0.041,-0.027,-0.046,-0.042,-0.034
-0.045,0.03,0.076,0.007,-0.061,0.053,-0.049,0.034,-0.039,-0.052,-0.044,-0.036
-0.03,0.042,0.072,-0.007,-0.051,0.057,-0.042,0.029,-0.048,-0.05,-0.036,-0.033
-0.067,0.014,0.081,0.027,-0.074,0.047,-0.038,0.022,-0.052,-0.058,-0.047,-0.038
-0.106,-0.018,0.088,0.062,-0.097,0.035,-0.029,0.02,-0.049,-0.058,-0.059,-0.056
-0.113,-0.039,0.074,0.076,-0.093,0.018,-0.03,0.008,-0.052,-0.064,-0.059,-0.062
-0.097,-0.025,0.072,0.06,-0.084,0.023,-0.006,0.017,-0.064,-0.072,-0.055,-0.058
-0.053,0.002,0.055,0.026,-0.054,0.028,-0.004,0.002,-0.053,-0.06,-0.045,-0.069
-0.119,-0.051,0.068,0.085,-0.093,0.009,-0.009,0.028,-0.073,-0.088,-0.089,-0.1
-0.136,-0.086,0.05,0.111,-0.093,-0.018,0.112,0.2,-0.039,-0.149,-0.144,-0.156
-0.091,-0.014,0.076,0.052,-0.083,0.031,0.184,0.414,0.221,-0.043,-0.088,-0.145
0.296,0.381,0.085,-0.339,0.106,0.232,-0.22,0.123,0.921,0.738,0.567,0.278
0.511,0.694,0.183,-0.603,0.163,0.439,-0.685,-0.905,0.724,0.965,0.944,0.698
0.0,0.377,0.377,-0.189,-0.189,0.377,-0.609,-1.459,-0.504,0.016,0.22,0.403
-0.218,-0.045,0.172,0.131,-0.195,0.063,-0.416,-0.98,-0.706,-0.384,-0.258,-0.057
-0.137,-0.109,0.029,0.123,-0.083,-0.04,-0.276,-0.404,-0.358,-0.241,-0.202,-0.129
-0.104,-0.038,0.066,0.071,-0.085,0.014,-0.102,-0.079,-0.173,-0.144,-0.124,-0.084
-0.05,-0.014,0.035,0.032,-0.042,0.01,-0.046,0.082,-0.051,-0.077,-0.08,-0.07
-0.041,0.007,0.047,0.017,-0.044,0.027,-0.036,0.094,-0.064,-0.072,-0.086,-0.059
-0.044,-0.011,0.033,0.027,-0.038,0.011,-0.022,0.105,-0.016,-0.047,-0.073,-0.061
-0.048,-0.015,0.033,0.031,-0.04,0.009,-0.018,0.112,-0.021,-0.053,-0.075,-0.056
-0.015,-0.002,0.013,0.008,-0.013,0.005,-0.012,0.107,-0.01,-0.042,-0.067,-0.055
-0.045,-0.005,0.039,0.025,-0.042,0.017,-0.009,0.114,-0.008,-0.041,-0.063,-0.053
-0.022,0.036,0.059,-0.007,-0.041,0.048,-0.004,0.123,-0.007,-0.036,-0.057,-0.045
-0.023,0.022,0.044,0.0,-0.034,0.033,0.001,0.123,0.003,-0.03,-0.048,-0.04
-0.023,0.02,0.043,0.001,-0.033,0.031,0.003,0.112,-0.001,-0.025,-0.044,-0.035
0.039,0.072,0.033,-0.056,0.003,0.052,-0.006,0.127,0.024,-0.016,-0.034,-0.03
0.03,0.06,0.03,-0.045,0.0,0.044,0.004,0.153,0.026,-0.012,-0.026,-0.027
0.051,0.059,0.008,-0.055,0.022,0.033,0.031,0.159,0.034,-0.003,-0.017,-0.021
0.042,0.053,0.012,-0.047,0.015,0.032,0.007,0.155,0.043,0.001,-0.009,-0.007
0.031,0.05,0.019,-0.041,0.006,0.034,-0.005,0.172,0.053,0.029,0.018,0.007
0.038,0.085,0.047,-0.062,-0.005,0.066,0.017,0.182,0.079,0.048,0.038,0.026
0.013,0.091,0.077,-0.052,-0.032,0.084,-0.007,0.184,0.083,0.059,0.056,0.049
0.067,0.137,0.07,-0.102,-0.002,0.103,-0.029,0.199,0.123,0.102,0.095,0.083
0.099,0.189,0.09,-0.144,0.004,0.14,-0.056,0.187,0.156,0.146,0.14,0.123
0.118,0.203,0.086,-0.16,0.016,0.144,-0.08,0.166,0.167,0.189,0.194,0.164
0.146,0.243,0.096,-0.195,0.025,0.169,-0.104,0.134,0.192,0.224,0.234,0.207
0.132,0.277,0.145,-0.205,-0.007,0.211,-0.123,0.096,0.193,0.246,0.244,0.233
0.156,0.292,0.137,-0.224,0.009,0.214,-0.111,0.081,0.189,0.254,0.26,0.237
0.146,0.279,0.133,-0.213,0.006,0.206,-0.114,0.077,0.177,0.232,0.249,0.231
0.101,0.229,0.128,-0.165,-0.014,0.178,-0.091,0.073,0.163,0.202,0.208,0.204
0.086,0.189,0.102,-0.138,-0.008,0.145,-0.046,0.067,0.14,0.164,0.171,0.15
0.071,0.163,0.092,-0.118,-0.011,0.128,-0.026,0.061,0.099,0.109,0.111,0.097
0.043,0.111,0.068,-0.077,-0.013,0.089,-0.017,0.056,0.068,0.057,0.052,0.067
0.015,0.081,0.066,-0.048,-0.026,0.074,0.002,0.051,0.045,0.026,0.015,0.04
0.006,0.061,0.055,-0.034,-0.025,0.058,0.021,0.049,0.022,-0.002,-0.01,0.019
0.001,0.022,0.021,-0.012,-0.01,0.021,0.018,0.043,0.005,-0.035,-0.03,0.013
-0.033,0.026,0.059,0.004,-0.046,0.042,0.012,0.037,-0.006,-0.043,-0.037,0.003
-0.033,0.041,0.075,-0.005,-0.054,0.058,0.008,0.033,-0.021,-0.036,-0.034,-0.003
0.006,0.032,0.026,-0.019,-0.011,0.029,0.001,0.025,-0.042,-0.035,-0.036,-0.012
-0.002,0.03,0.032,-0.015,-0.017,0.031,-0.004,0.023,-0.048,-0.045,-0.039,-0.024
-0.037,0.016,0.053,0.01,-0.046,0.034,-0.001,0.013,-0.054,-0.064,-0.052,-0.026
-0.059,-0.007,0.052,0.033,-0.055,0.022,0.011,0.025,-0.065,-0.075,-0.066,-0.024
-0.033,-0.003,0.03,0.018,-0.031,0.013,0.017,0.051,-0.059,-0.071,-0.063,-0.026
-0.042,-0.019,0.023,0.03,-0.032,0.002,0.016,0.051,-0.054,-0.065,-0.06,-0.033
-0.029,-0.006,0.023,0.018,-0.026,0.008,0.014,0.049,-0.048,-0.062,-0.058,-0.033
0.008,0.022,0.014,-0.015,-0.003,0.017,0.016,0.052,-0.042,-0.056,-0.055,-0.023
-0.025,0.009,0.034,0.008,-0.03,0.021,0.014,0.047,-0.038,-0.056,-0.053,-0.018
-0.008,0.006,0.014,0.001,-0.012,0.01,0.011,0.057,-0.034,-0.072,-0.048,-0.01
-0.047,-0.014,0.033,0.03,-0.04,0.01,0.031,0.074,-0.032,-0.077,-0.045,-0.005
-0.078,-0.02,0.058,0.048,-0.067,0.019,0.037,0.061,-0.029,-0.066,-0.042,-0.016
0.009,0.024,0.015,-0.016,-0.003,0.019,0.033,0.064,-0.026,-0.058,-0.037,-0.022
0.007,0.041,0.034,-0.024,-0.013,0.037,0.03,0.067,-0.024,-0.051,-0.035,-0.016
-0.043,0.03,0.073,0.006,-0.058,0.052,0.024,0.054,-0.031,-0.049,-0.043,-0.014
-0.055,0.017,0.072,0.019,-0.064,0.044,0.021,0.046,-0.037,-0.046,-0.05,-0.009
-0.064,0.002,0.066,0.031,-0.065,0.034,0.016,0.035,-0.045,-0.043,-0.05,-0.005
-0.067,-0.008,0.06,0.037,-0.063,0.026,0.013,0.029,-0.055,-0.04,-0.05,-0.008
-0.075,-0.004,0.071,0.04,-0.073,0.033,0.008,0.022,-0.055,-0.041,-0.05,-0.021
-0.071,-0.001,0.07,0.035,-0.07,0.034,0.003,0.016,-0.055,-0.041,-0.05,-0.032
-0.071,-0.014,0.057,0.042,-0.064,0.021,-0.005,0.009,-0.055,-0.04,-0.047,-0.03
-0.078,-0.011,0.067,0.044,-0.072,0.028,0.002,0.005,-0.055,-0.039,-0.045,-0.023
-0.072,-0.002,0.07,0.037,-0.071,0.034,0.013,0.013,-0.053,-0.035,-0.045,-0.018
-0.058,0.012,0.07,0.023,-0.064,0.04,0.008,0.019,-0.049,-0.034,-0.045,-0.012
-0.087,-0.017,0.07,0.052,-0.079,0.026,0.002,0.017,-0.047,-0.044,-0.045,-0.006
-0.111,-0.041,0.07,0.076,-0.09,0.014,-0.002,0.012,-0.044,-0.052,-0.045,0.001
-0.091,-0.024,0.067,0.057,-0.079,0.021,-0.009,0.009,-0.041,-0.047,-0.049,0.007
-0.083,-0.021,0.062,0.051,-0.072,0.02,-0.013,0.006,-0.039,-0.045,-0.05,0.015
-0.06,0.0,0.059,0.03,-0.059,0.029,-0.019,0.001,-0.042,-0.042,-0.05,0.019
-0.061,0.0,0.061,0.03,-0.061,0.03,-0.031,0.001,-0.05,-0.039,-0.05,0.015
-0.05,0.013,0.063,0.018,-0.056,0.037,-0.025,0.005,-0.046,-0.04,-0.05,0.015
-0.033,0.034,0.067,-0.001,-0.05,0.05,-0.013,0.005,-0.039,-0.052,-0.048,0.014
-0.043,0.02,0.063,0.011,-0.053,0.041,-0.014,0.009,-0.036,-0.055,-0.043,0.009
-0.046,0.014,0.06,0.016,-0.053,0.037,-0.006,0.011,-0.027,-0.049,-0.041,0.01
-0.053,0.007,0.06,0.023,-0.057,0.034,-0.007,0.006,-0.03,-0.048,-0.037,0.009
-0.065,-0.008,0.057,0.037,-0.061,0.024,0.004,0.003,-0.032,-0.041,-0.032,0.011
-0.093,-0.013,0.08,0.053,-0.086,0.033,-0.013,-0.004,-0.037,-0.04,-0.03,0.02
-0.091,-0.004,0.087,0.047,-0.089,0.041,-0.038,-0.002,-0.038,-0.033,-0.024,0.016
-0.069,0.033,0.102,0.017,-0.086,0.068,0.007,0.021,-0.031,-0.028,-0.018,0.009
-0.045,0.068,0.112,-0.012,-0.079,0.09,0.021,0.044,-0.018,-0.019,-0.01,0.013
-0.033,0.06,0.093,-0.014,-0.063,0.076,0.005,0.05,0.014,0.007,-0.006,0.033
-0.041,0.056,0.097,-0.008,-0.069,0.076,0.001,0.039,0.018,0.009,0.01,0.051
-0.04,0.053,0.093,-0.007,-0.067,0.072,-0.01,0.027,0.004,0.001,0.02,0.05
-0.041,0.045,0.086,-0.002,-0.064,0.065,-0.016,0.024,-0.008,-0.007,0.006,0.043
-0.045,0.037,0.081,0.004,-0.063,0.059,-0.025,0.019,-0.014,-0.012,0.002,0.039
-0.068,0.022,0.089,0.023,-0.079,0.055,-0.008,0.017,-0.016,-0.024,-0.012,0.032
-0.074,0.015,0.088,0.03,-0.081,0.051,0.008,0.012,-0.015,-0.025,-0.017,0.028
-0.096,-0.013,0.083,0.054,-0.089,0.034,-0.001,0.009,-0.046,-0.039,-0.026,0.023
-0.117,-0.041,0.076,0.079,-0.096,0.017,-0.002,0.017,-0.06,-0.041,-0.035,0.017
-0.112,-0.049,0.063,0.08,-0.087,0.006,-0.002,0.01,-0.047,-0.035,-0.025,0.018
-0.119,-0.062,0.057,0.09,-0.088,-0.002,0.027,0.04,-0.066,-0.059,-0.048,-0.018
-0.111,-0.086,0.025,0.098,-0.068,-0.03,0.156,0.22,-0.024,-0.111,-0.124,-0.093
-0.09,0.03,0.121,0.03,-0.106,0.075,0.183,0.419,0.279,0.035,-0.029,-0.049
0.326,0.447,0.121,-0.387,0.102,0.284,-0.267,0.038,0.997,0.825,0.663,0.404
0.488,0.67,0.182,-0.579,0.152,0.426,-0.704,-1.038,0.671,0.939,0.934,0.774
-0.046,0.336,0.382,-0.146,-0.214,0.359,-0.608,-1.516,-0.548,0.017,0.225,0.449
-0.205,-0.061,0.144,0.133,-0.174,0.041,-0.404,-0.932,-0.629,-0.307,-0.196,0.027
-0.134,-0.137,-0.003,0.135,-0.065,-0.07,-0.225,-0.334,-0.283,-0.195,-0.159,-0.029
-0.138,-0.082,0.056,0.11,-0.097,-0.013,-0.063,-0.024,-0.117,-0.103,-0.085,0.012
-0.117,-0.087,0.03,0.102,-0.073,-0.028,-0.021,0.099,-0.014,-0.046,-0.041,0.007
-0.13,-0.072,0.059,0.101,-0.094,-0.006,0.001,0.1,-0.032,-0.053,-0.04,0.0
-0.098,-0.054,0.043,0.076,-0.07,-0.005,0.011,0.128,0.002,-0.029,-0.026,-0.004
-0.102,-0.062,0.039,0.082,-0.07,-0.011,0.026,0.131,-0.01,-0.029,-0.025,0.0
-0.098,-0.066,0.032,0.082,-0.064,-0.017,0.042,0.137,0.009,-0.015,-0.015,0.008
-0.087,-0.063,0.024,0.074,-0.055,-0.019,0.043,0.132,0.008,-0.013,-0.011,0.014
-0.04,-0.031,0.009,0.035,-0.024,-0.01,0.049,0.14,0.021,-0.008,-0.004,0.021
-0.029,-0.013,0.016,0.021,-0.022,0.001,0.05,0.165,0.041,0.0,0.003,0.028
-0.072,-0.031,0.041,0.051,-0.056,0.005,0.05,0.167,0.04,0.003,0.009,0.03
-0.059,-0.037,0.022,0.048,-0.041,-0.007,0.05,0.17,0.046,0.011,0.016,0.03
-0.048,-0.026,0.023,0.037,-0.035,-0.001,0.05,0.175,0.047,0.018,0.022,0.038
-0.02,-0.012,0.008,0.016,-0.013,-0.002,0.05,0.172,0.058,0.024,0.028,0.046
0.0,0.011,0.011,-0.006,-0.005,0.011,0.05,0.175,0.068,0.033,0.034,0.064
-0.018,0.03,0.048,-0.006,-0.033,0.039,0.045,0.192,0.077,0.05,0.05,0.086
-0.016,0.041,0.057,-0.013,-0.037,0.049,0.046,0.211,0.092,0.072,0.074,0.1
0.009,0.057,0.048,-0.033,-0.02,0.052,0.039,0.235,0.115,0.098,0.108,0.121
0.046,0.097,0.051,-0.071,-0.003,0.074,0.006,0.237,0.134,0.128,0.137,0.152
0.026,0.121,0.094,-0.074,-0.034,0.107,-0.018,0.225,0.162,0.172,0.175,0.191
0.049,0.159,0.11,-0.104,-0.031,0.135,-0.033,0.209,0.192,0.225,0.24,0.236
0.1,0.22,0.121,-0.16,-0.011,0.171,-0.056,0.182,0.206,0.26,0.271,0.265
0.087,0.23,0.143,-0.159,-0.028,0.186,-0.073,0.152,0.206,0.273,0.28,0.288
0.108,0.237,0.129,-0.173,-0.011,0.183,-0.075,0.13,0.196,0.273,0.289,0.304
0.087,0.215,0.128,-0.152,-0.021,0.171,-0.07,0.125,0.188,0.259,0.283,0.282
0.059,0.178,0.119,-0.118,-0.031,0.148,-0.057,0.119,0.178,0.234,0.258,0.247
0.036,0.159,0.122,-0.097,-0.043,0.14,-0.009,0.113,0.168,0.189,0.205,0.204
-0.013,0.1,0.113,-0.044,-0.063,0.106,0.023,0.109,0.142,0.133,0.154,0.16
-0.018,0.059,0.077,-0.021,-0.048,0.068,0.038,0.093,0.099,0.089,0.109,0.135
-0.02,0.05,0.069,-0.015,-0.045,0.059,0.06,0.077,0.07,0.067,0.063,0.099
-0.036,0.029,0.065,0.003,-0.051,0.047,0.054,0.06,0.047,0.04,0.041,0.065
-0.047,0.011,0.058,0.018,-0.053,0.034,0.048,0.048,0.027,0.013,0.038,0.059
-0.041,0.002,0.043,0.019,-0.042,0.022,0.044,0.05,0.018,0.006,0.025,0.057
-0.064,-0.022,0.042,0.043,-0.052,0.01,0.036,0.05,0.014,-0.001,0.012,0.053
-0.073,-0.027,0.047,0.05,-0.06,0.01,0.038,0.05,0.01,-0.007,0.005,0.051
-0.045,-0.005,0.04,0.025,-0.042,0.018,0.041,0.05,0.004,-0.015,-0.003,0.049
-0.081,-0.041,0.04,0.061,-0.06,0.0,0.045,0.05,0.001,-0.02,-0.01,0.046
-0.108,-0.073,0.035,0.09,-0.071,-0.019,0.052,0.046,-0.008,-0.028,-0.018,0.041
-0.093,-0.058,0.034,0.075,-0.063,-0.012,0.056,0.044,-0.025,-0.033,-0.023,0.038
-0.084,-0.055,0.029,0.07,-0.056,-0.013,0.054,0.045,-0.026,-0.029,-0.021,0.035
-0.077,-0.047,0.029,0.062,-0.053,-0.009,0.056,0.046,-0.022,-0.031,-0.017,0.028
-0.062,-0.04,0.022,0.051,-0.042,-0.009,0.059,0.063,-0.021,-0.026,-0.014,0.038
-0.066,-0.038,0.028,0.051,-0.047,-0.005,0.06,0.073,-0.016,-0.025,-0.01,0.057
-0.087,-0.029,0.058,0.058,-0.072,0.014,0.06,0.063,-0.016,-0.025,-0.006,0.053
-0.077,-0.027,0.05,0.052,-0.064,0.011,0.06,0.058,-0.01,-0.02,-0.003,0.05
-0.058,-0.017,0.042,0.037,-0.05,0.012,0.061,0.048,-0.003,-0.015,0.001,0.048
-0.062,-0.029,0.033,0.045,-0.047,0.002,0.057,0.043,0.008,-0.01,0.013,0.042
-0.087,-0.043,0.043,0.065,-0.065,0.0,0.049,0.046,0.025,-0.007,0.005,0.057
-0.075,-0.019,0.056,0.046,-0.065,0.018,0.04,0.036,0.022,-0.001,-0.007,0.065
-0.058,-0.038,0.02,0.048,-0.038,-0.009,0.036,0.034,0.014,-0.003,0.009,0.054
-0.077,-0.053,0.024,0.064,-0.05,-0.014,0.034,0.036,0.008,-0.019,0.011,0.05
-0.089,-0.031,0.058,0.06,-0.073,0.013,0.03,0.032,-0.001,-0.031,0.006,0.041
-0.091,-0.031,0.06,0.06,-0.075,0.014,0.029,0.03,-0.007,-0.031,0.005,0.038
-0.068,-0.024,0.044,0.046,-0.056,0.01,0.022,0.029,-0.015,-0.025,0.0,0.027
-0.068,-0.008,0.06,0.038,-0.064,0.026,0.035,0.025,-0.02,-0.02,0.001,0.019
-0.093,-0.04,0.053,0.066,-0.073,0.007,0.056,0.023,-0.026,-0.018,-0.013,0.045
-0.113,-0.075,0.038,0.094,-0.075,-0.018,0.048,0.02,-0.029,-0.009,-0.023,0.051
-0.127,-0.06,0.068,0.093,-0.097,0.004,0.044,0.016,-0.025,-0.017,-0.019,0.042
-0.116,-0.053,0.063,0.084,-0.089,0.005,0.038,0.015,-0.025,-0.036,-0.021,0.041
-0.089,-0.049,0.04,0.069,-0.064,-0.005,0.031,0.011,-0.025,-0.023,-0.016,0.034
-0.051,-0.044,0.007,0.047,-0.029,-0.018,0.033,0.011,-0.025,-0.014,-0.015,0.031
-0.052,-0.04,0.012,0.046,-0.032,-0.014,0.025,0.008,-0.025,-0.016,-0.015,0.033
-0.085,-0.035,0.05,0.06,-0.067,0.007,0.035,0.017,-0.021,-0.014,-0.01,0.05
-0.097,-0.031,0.066,0.064,-0.081,0.017,0.05,0.029,-0.02,-0.01,-0.011,0.054
-0.089,-0.031,0.058,0.059,-0.074,0.014,0.043,0.021,-0.02,-0.011,-0.008,0.047
-0.098,-0.029,0.069,0.063,-0.083,0.02,0.038,0.014,-0.016,-0.007,-0.006,0.043
-0.114,-0.034,0.081,0.074,-0.097,0.023,0.034,0.006,-0.015,0.012,-0.003,0.036
-0.102,-0.043,0.059,0.072,-0.08,0.008,0.024,-0.001,-0.015,0.006,-0.01,0.031
-0.1,-0.034,0.066,0.067,-0.082,0.016,0.034,-0.005,0.0,-0.006,-0.009,0.033
-0.118,-0.054,0.064,0.085,-0.091,0.005,0.051,0.014,-0.002,-0.021,-0.004,0.044
-0.132,-0.066,0.067,0.098,-0.099,0.0,0.047,0.027,-0.019,-0.039,-0.021,0.045
-0.11,-0.051,0.058,0.08,-0.084,0.003,0.042,0.022,-0.012,-0.033,-0.017,0.038
-0.102,-0.049,0.053,0.076,-0.077,0.001,0.042,0.02,-0.008,-0.022,-0.01,0.037
-0.074,-0.04,0.034,0.057,-0.054,-0.003,0.032,0.017,-0.001,-0.019,-0.006,0.026
-0.04,-0.028,0.011,0.034,-0.025,-0.008,0.044,0.015,0.003,0.001,0.002,0.05
-0.083,-0.005,0.078,0.044,-0.08,0.036,0.077,0.024,0.016,0.026,0.006,0.087
-0.05,0.04,0.09,0.005,-0.07,0.065,0.077,0.065,0.048,0.024,0.015,0.087
-0.011,0.048,0.058,-0.019,-0.035,0.053,0.06,0.063,0.048,0.018,0.02,0.091
-0.019,0.044,0.064,-0.013,-0.042,0.054,0.05,0.05,0.054,0.027,0.032,0.095
-0.03,0.009,0.039,0.01,-0.034,0.024,0.037,0.031,0.04,0.029,0.034,0.092
-0.065,-0.032,0.033,0.048,-0.049,0.0,0.036,-0.012,0.006,0.021,0.024,0.079
-0.069,-0.005,0.064,0.036,-0.066,0.029,0.025,-0.006,0.025,0.018,0.022,0.068
-0.109,-0.042,0.068,0.075,-0.088,0.013,0.031,0.002,0.015,0.009,0.009,0.059
-0.144,-0.088,0.057,0.116,-0.1,-0.015,0.06,0.007,0.017,0.009,0.025,0.053
-0.124,-0.084,0.04,0.103,-0.081,-0.022,0.062,0.014,0.01,-0.008,0.007,0.05
-0.106,-0.086,0.02,0.096,-0.063,-0.033,0.054,0.012,0.006,-0.013,-0.019,0.04
-0.111,-0.082,0.029,0.096,-0.069,-0.026,0.04,0.004,0.009,-0.024,-0.025,0.044
-0.095,-0.096,0.0,0.096,-0.047,-0.048,0.074,0.049,-0.027,-0.048,-0.05,0.005
-0.131,-0.118,0.013,0.125,-0.072,-0.053,0.218,0.249,0.013,-0.111,-0.105,-0.078
-0.025,0.042,0.067,-0.009,-0.046,0.055,0.176,0.415,0.418,0.148,0.07,0.031
0.445,0.473,0.028,-0.459,0.208,0.25,-0.321,-0.119,1.058,0.933,0.784,0.523
0.424,0.596,0.172,-0.51,0.126,0.384,-0.672,-1.223,0.448,0.789,0.861,0.777
-0.089,0.217,0.306,-0.064,-0.197,0.261,-0.529,-1.476,-0.611,-0.085,0.11,0.385
-0.181,-0.11,0.071,0.145,-0.126,-0.02,-0.325,-0.818,-0.516,-0.281,-0.188,0.029
-0.079,-0.148,-0.069,0.114,-0.005,-0.108,-0.145,-0.286,-0.231,-0.172,-0.129,-0.019
-0.061,-0.089,-0.029,0.075,-0.016,-0.059,0.0,-0.007,-0.077,-0.077,-0.062,0.005
-0.033,-0.071,-0.038,0.053,0.003,-0.055,0.039,0.082,-0.005,-0.041,-0.033,0.029
-0.045,-0.066,-0.021,0.056,-0.012,-0.044,0.049,0.097,-0.002,-0.039,-0.033,0.04
-0.03,-0.056,-0.026,0.043,-0.001,-0.041,0.055,0.117,0.031,-0.023,-0.019,0.04
-0.022,-0.063,-0.041,0.043,0.009,-0.052,0.062,0.121,0.034,-0.025,-0.019,0.039
-0.066,-0.085,-0.02,0.075,-0.023,-0.052,0.067,0.124,0.052,-0.011,-0.007,0.04
-0.059,-0.075,-0.016,0.067,-0.021,-0.045,0.075,0.112,0.04,-0.01,-0.002,0.04
-0.027,-0.058,-0.031,0.043,0.002,-0.045,0.075,0.115,0.048,-0.001,0.007,0.04
-0.013,-0.051,-0.038,0.033,0.013,-0.044,0.078,0.103,0.059,0.003,0.018,0.045
-0.009,-0.04,-0.031,0.025,0.011,-0.035,0.082,0.112,0.067,0.009,0.025,0.057
0.005,-0.026,-0.031,0.01,0.018,-0.028,0.077,0.148,0.068,0.016,0.025,0.065
-0.02,-0.046,-0.026,0.033,0.004,-0.036,0.075,0.153,0.074,0.019,0.025,0.066
-0.016,-0.039,-0.023,0.028,0.004,-0.031,0.071,0.158,0.072,0.03,0.029,0.063
0.053,0.018,-0.036,-0.035,0.044,-0.009,0.071,0.159,0.084,0.051,0.043,0.073
0.026,-0.003,-0.029,-0.011,0.027,-0.016,0.063,0.156,0.1,0.065,0.059,0.084
0.031,0.003,-0.028,-0.017,0.029,-0.012,0.049,0.176,0.105,0.082,0.076,0.104
0.106,0.072,-0.034,-0.089,0.07,0.019,0.034,0.181,0.129,0.105,0.111,0.131
0.092,0.08,-0.012,-0.086,0.052,0.034,0.03,0.173,0.152,0.149,0.153,0.161
0.099,0.116,0.017,-0.108,0.041,0.066,0.009,0.17,0.177,0.195,0.192,0.209
0.149,0.176,0.027,-0.163,0.061,0.101,-0.027,0.158,0.204,0.231,0.242,0.245
0.164,0.206,0.041,-0.185,0.061,0.123,-0.042,0.135,0.216,0.276,0.275,0.272
0.17,0.225,0.056,-0.198,0.057,0.141,-0.063,0.101,0.215,0.287,0.288,0.296
0.17,0.217,0.047,-0.194,0.061,0.132,-0.062,0.074,0.211,0.277,0.3,0.297
0.17,0.211,0.041,-0.191,0.064,0.126,-0.046,0.069,0.204,0.26,0.282,0.276
0.159,0.193,0.034,-0.176,0.062,0.113,-0.029,0.067,0.198,0.226,0.247,0.252
0.123,0.15,0.027,-0.137,0.048,0.088,0.002,0.063,0.17,0.19,0.201,0.203
0.073,0.096,0.023,-0.085,0.025,0.059,0.033,0.061,0.141,0.149,0.147,0.147
0.034,0.053,0.019,-0.044,0.007,0.036,0.058,0.059,0.122,0.102,0.101,0.116
0.012,0.033,0.021,-0.022,-0.004,0.026,0.069,0.05,0.088,0.063,0.061,0.091
-0.006,0.014,0.02,-0.004,-0.013,0.016,0.071,0.034,0.064,0.038,0.034,0.079
-0.019,0.001,0.02,0.009,-0.02,0.01,0.067,0.023,0.055,0.027,0.026,0.073
-0.041,-0.026,0.015,0.033,-0.028,-0.005,0.065,0.017,0.047,0.021,0.022,0.066
-0.026,-0.014,0.012,0.02,-0.019,-0.001,0.062,0.012,0.038,0.014,0.016,0.059
-0.013,-0.004,0.009,0.009,-0.011,0.002,0.059,0.009,0.029,0.008,0.01,0.052
-0.04,-0.036,0.004,0.038,-0.022,-0.016,0.064,0.004,0.024,0.001,0.005,0.048
-0.022,-0.02,0.002,0.021,-0.012,-0.008,0.068,0.0,0.021,-0.004,0.0,0.043
-0.034,-0.041,-0.008,0.038,-0.013,-0.024,0.07,0.007,0.017,-0.006,-0.005,0.04
-0.075,-0.084,-0.009,0.08,-0.033,-0.046,0.07,0.018,0.014,-0.004,-0.01,0.037
-0.06,-0.078,-0.019,0.069,-0.021,-0.049,0.07,0.027,0.009,-0.008,-0.014,0.032
-0.055,-0.079,-0.023,0.067,-0.016,-0.051,0.07,0.031,0.018,-0.017,-0.019,0.03
-0.048,-0.073,-0.025,0.06,-0.011,-0.048,0.07,0.03,0.027,-0.014,-0.018,0.036
-0.019,-0.067,-0.049,0.043,0.015,-0.058,0.071,0.03,0.024,-0.011,-0.013,0.035
-0.021,-0.067,-0.046,0.044,0.013,-0.056,0.066,0.03,0.025,-0.009,-0.01,0.035
-0.017,-0.053,-0.036,0.035,0.01,-0.044,0.06,0.03,0.025,-0.005,-0.007,0.035
-0.018,-0.05,-0.032,0.034,0.007,-0.041,0.054,0.024,0.025,-0.005,-0.002,0.035
-0.033,-0.056,-0.023,0.044,-0.004,-0.039,0.051,0.018,0.024,-0.005,0.0,0.035
-0.025,-0.044,-0.018,0.035,-0.003,-0.031,0.041,0.014,0.019,-0.005,-0.005,0.035
-0.016,-0.032,-0.016,0.024,0.0,-0.024,0.045,0.007,0.021,-0.005,-0.005,0.035
-0.019,-0.03,-0.011,0.025,-0.004,-0.02,0.064,0.004,0.017,-0.005,-0.009,0.035
0.003,-0.03,-0.033,0.014,0.018,-0.032,0.066,-0.011,0.015,-0.005,-0.01,0.035
0.027,-0.029,-0.056,0.001,0.042,-0.043,0.064,-0.027,0.015,-0.008,-0.012,0.035
-0.009,-0.031,-0.023,0.02,0.007,-0.027,0.061,-0.023,0.011,-0.011,-0.016,0.032
-0.039,-0.028,0.011,0.033,-0.025,-0.008,0.059,-0.02,0.01,-0.009,-0.015,0.03
-0.015,-0.029,-0.013,0.022,-0.001,-0.021,0.059,-0.018,0.01,-0.011,-0.015,0.03
-0.007,-0.043,-0.036,0.025,0.015,-0.039,0.054,-0.013,0.01,-0.009,-0.015,0.026
-0.013,-0.036,-0.023,0.025,0.005,-0.029,0.051,-0.02,0.01,-0.005,-0.015,0.025
-0.008,-0.027,-0.019,0.018,0.006,-0.023,0.048,-0.03,0.011,-0.005,-0.015,0.025
-0.044,-0.05,-0.006,0.047,-0.018,-0.028,0.043,-0.03,0.015,-0.003,-0.015,0.025
-0.06,-0.069,-0.009,0.065,-0.025,-0.039,0.041,-0.03,0.015,0.0,-0.015,0.025
-0.03,-0.057,-0.027,0.044,-0.001,-0.042,0.038,-0.03,0.015,0.0,-0.015,0.025
-0.021,-0.053,-0.033,0.037,0.007,-0.043,0.045,-0.03,0.015,-0.004,-0.015,0.025
-0.031,-0.057,-0.027,0.044,-0.001,-0.042,0.056,-0.028,0.015,-0.009,-0.015,0.025
-0.019,-0.051,-0.033,0.035,0.008,-0.042,0.052,-0.024,0.011,-0.013,-0.014,0.023
-0.018,-0.063,-0.045,0.04,0.014,-0.054,0.048,-0.025,0.01,-0.014,-0.016,0.018
-0.035,-0.064,-0.03,0.05,-0.002,-0.046,0.045,-0.025,0.01,-0.008,-0.014,0.016
-0.013,-0.056,-0.043,0.034,0.015,-0.049,0.04,-0.025,0.01,-0.004,-0.017,0.011
0.001,-0.037,-0.038,0.018,0.02,-0.037,0.038,-0.025,0.01,0.0,-0.03,0.008
0.013,-0.017,-0.03,0.002,0.021,-0.023,0.031,-0.019,0.01,0.006,-0.03,0.003
-0.012,-0.054,-0.042,0.034,0.015,-0.048,0.026,-0.017,0.01,-0.001,-0.03,-0.014
-0.048,-0.066,-0.018,0.058,-0.015,-0.042,0.022,-0.008,0.009,-0.008,-0.03,-0.013
-0.032,-0.051,-0.019,0.042,-0.006,-0.035,0.013,-0.021,0.027,-0.003,-0.03,-0.006
-0.008,-0.052,-0.043,0.03,0.018,-0.047,0.014,-0.037,0.037,0.005,-0.029,-0.001
-0.007,-0.031,-0.024,0.019,0.009,-0.027,0.021,-0.025,0.034,0.01,-0.016,0.006
-0.032,-0.003,0.029,0.017,-0.03,0.012,0.045,-0.02,0.035,0.019,-0.001,0.01
-0.023,0.026,0.048,-0.002,-0.036,0.037,0.064,0.007,0.051,0.023,0.008,0.026
0.004,0.033,0.03,-0.019,-0.014,0.031,0.05,0.016,0.063,0.025,0.005,0.032
0.014,0.036,0.022,-0.025,-0.004,0.028,0.04,0.005,0.056,0.037,0.005,0.024
0.017,0.048,0.031,-0.033,-0.007,0.039,0.034,-0.006,0.056,0.032,0.004,0.022
0.03,0.039,0.009,-0.035,0.01,0.024,0.024,-0.04,0.05,0.02,-0.002,0.015
0.013,0.016,0.003,-0.014,0.005,0.009,0.025,-0.059,0.052,0.014,0.002,0.012
-0.048,-0.003,0.045,0.026,-0.046,0.021,0.043,-0.054,0.039,0.007,-0.006,0.007
-0.018,-0.021,-0.003,0.019,-0.007,-0.012,0.048,-0.054,0.017,0.022,-0.015,-0.003
-0.031,-0.055,-0.024,0.043,-0.003,-0.039,0.04,-0.058,0.006,0.005,-0.024,-0.01
-0.035,-0.055,-0.02,0.045,-0.008,-0.037,0.047,-0.05,-0.003,0.001,-0.038,-0.022
0.029,-0.03,-0.059,0.001,0.044,-0.044,0.03,-0.064,-0.004,-0.007,-0.044,-0.025
-0.025,-0.058,-0.032,0.042,0.004,-0.045,0.061,-0.002,-0.01,-0.033,-0.054,-0.04
-0.059,-0.112,-0.053,0.086,-0.003,-0.082,0.183,0.17,0.028,-0.092,-0.126,-0.122
0.007,-0.025,-0.032,0.009,0.02,-0.028,0.222,0.375,0.313,0.031,-0.057,-0.108
0.412,0.371,-0.042,-0.391,0.227,0.164,-0.191,0.034,0.95,0.805,0.627,0.339
0.518,0.609,0.091,-0.564,0.214,0.35,-0.645,-1.045,0.642,0.921,0.904,0.714
-0.006,0.29,0.296,-0.142,-0.151,0.293,-0.512,-1.505,-0.473,0.012,0.17,0.374
-0.188,-0.084,0.104,0.136,-0.146,0.01,-0.324,-0.986,-0.605,-0.328,-0.252,-0.058
-0.099,-0.158,-0.059,0.129,-0.019,-0.109,-0.223,-0.453,-0.288,-0.206,-0.186,-0.114
-0.037,-0.098,-0.061,0.068,0.012,-0.079,-0.051,-0.135,-0.117,-0.108,-0.11,-0.086
-0.005,-0.066,-0.061,0.036,0.028,-0.063,0.006,0.0,-0.013,-0.052,-0.067,-0.079
-0.005,-0.059,-0.054,0.033,0.025,-0.057,0.018,0.017,-0.003,-0.04,-0.061,-0.067
-0.002,-0.055,-0.054,0.029,0.026,-0.054,0.039,0.052,0.04,-0.021,-0.049,-0.058
0.007,-0.047,-0.055,0.02,0.031,-0.051,0.048,0.056,0.032,-0.025,-0.047,-0.049
0.011,-0.042,-0.053,0.016,0.032,-0.047,0.04,0.059,0.042,-0.012,-0.04,-0.05
0.019,-0.032,-0.051,0.007,0.035,-0.042,0.048,0.06,0.048,-0.012,-0.033,-0.044
0.076,-0.012,-0.088,-0.032,0.082,-0.049,0.057,0.053,0.051,0.012,-0.023,-0.045
0.038,-0.04,-0.077,0.001,0.058,-0.058,0.05,0.057,0.052,0.022,-0.044,-0.066
0.033,-0.04,-0.073,0.004,0.053,-0.057,0.049,0.053,0.043,0.003,-0.043,-0.064
0.072,0.006,-0.066,-0.039,0.069,-0.03,0.047,0.059,0.049,0.01,-0.029,-0.052
0.08,0.03,-0.049,-0.055,0.064,-0.009,0.042,0.078,0.069,0.038,-0.038,-0.042
0.098,0.03,-0.069,-0.064,0.083,-0.019,0.052,0.082,0.08,0.048,-0.02,-0.024
0.094,0.007,-0.086,-0.05,0.09,-0.039,0.056,0.073,0.082,0.042,0.011,-0.026
0.091,0.017,-0.074,-0.054,0.082,-0.028,0.046,0.078,0.089,0.048,0.026,-0.026
0.085,0.037,-0.048,-0.061,0.066,-0.006,0.034,0.094,0.104,0.063,0.041,-0.006
0.123,0.047,-0.076,-0.085,0.099,-0.015,0.027,0.095,0.127,0.093,0.065,0.036
0.176,0.086,-0.09,-0.131,0.133,-0.002,0.012,0.089,0.125,0.123,0.097,0.072
0.159,0.119,-0.04,-0.139,0.099,0.039,-0.023,0.088,0.151,0.164,0.154,0.096
0.143,0.162,0.018,-0.152,0.062,0.09,-0.036,0.082,0.2,0.225,0.203,0.148
0.185,0.209,0.023,-0.197,0.081,0.116,-0.071,0.051,0.198,0.254,0.237,0.176
0.199,0.236,0.037,-0.218,0.081,0.136,-0.091,0.018,0.191,0.266,0.259,0.198
0.171,0.243,0.072,-0.207,0.049,0.157,-0.078,-0.011,0.189,0.271,0.272,0.212
0.173,0.229,0.056,-0.201,0.058,0.143,-0.084,-0.033,0.182,0.261,0.263,0.191
0.163,0.211,0.048,-0.188,0.057,0.13,-0.06,-0.028,0.173,0.233,0.218,0.167
0.125,0.168,0.043,-0.147,0.041,0.105,-0.014,-0.025,0.156,0.19,0.178,0.121
0.09,0.117,0.026,-0.104,0.032,0.071,0.021,-0.023,0.138,0.144,0.122,0.074
0.062,0.07,0.009,-0.066,0.026,0.039,0.036,-0.018,0.1,0.098,0.061,0.036
0.076,0.039,-0.037,-0.058,0.057,0.001,0.046,-0.025,0.066,0.053,0.029,-0.003
0.103,0.036,-0.067,-0.069,0.084,-0.015,0.062,-0.031,0.051,0.033,0.006,-0.022
0.08,0.017,-0.063,-0.048,0.071,-0.023,0.066,-0.047,0.039,0.025,-0.026,-0.037
0.038,-0.027,-0.066,-0.005,0.052,-0.046,0.059,-0.063,0.031,-0.001,-0.038,-0.053
0.049,-0.022,-0.071,-0.013,0.06,-0.047,0.06,-0.06,0.026,-0.01,-0.032,-0.065
0.071,-0.002,-0.073,-0.034,0.072,-0.037,0.054,-0.06,0.023,-0.015,-0.038,-0.075
0.043,-0.034,-0.077,-0.004,0.06,-0.056,0.054,-0.06,0.017,-0.023,-0.032,-0.08
0.033,-0.047,-0.08,0.007,0.056,-0.063,0.083,-0.06,0.013,-0.029,-0.04,-0.085
0.022,-0.057,-0.078,0.018,0.05,-0.067,0.089,-0.055,0.009,-0.037,-0.065,-0.085
0.0,-0.073,-0.073,0.037,0.036,-0.072,0.079,-0.047,0.003,-0.034,-0.062,-0.085
0.0,-0.071,-0.071,0.036,0.035,-0.071,0.077,-0.041,0.0,-0.031,-0.057,-0.085
0.02,-0.054,-0.075,0.017,0.048,-0.064,0.069,-0.036,-0.005,-0.028,-0.053,-0.085
0.056,-0.023,-0.08,-0.016,0.068,-0.051,0.065,-0.04,-0.01,-0.025,-0.048,-0.083
0.052,-0.032,-0.084,-0.01,0.069,-0.058,0.068,-0.04,-0.006,-0.024,-0.045,-0.071
0.038,-0.044,-0.083,0.003,0.061,-0.063,0.071,-0.04,-0.005,-0.018,-0.045,-0.084
0.034,-0.046,-0.08,0.006,0.057,-0.062,0.067,-0.04,-0.005,-0.012,-0.043,-0.097
0.039,-0.041,-0.08,0.001,0.059,-0.06,0.065,-0.04,-0.005,-0.008,-0.039,-0.078
0.046,-0.03,-0.075,-0.008,0.061,-0.052,0.061,-0.038,-0.005,-0.001,-0.04,-0.069
0.032,-0.038,-0.069,0.003,0.051,-0.053,0.06,-0.031,-0.006,0.004,-0.04,-0.063
0.035,-0.031,-0.066,-0.002,0.051,-0.048,0.057,-0.049,-0.014,0.001,-0.04,-0.06
0.014,-0.046,-0.06,0.016,0.038,-0.053,0.054,-0.056,-0.021,-0.005,-0.04,-0.072
-0.006,-0.063,-0.057,0.035,0.026,-0.06,0.055,-0.056,-0.028,-0.01,-0.04,-0.076
0.01,-0.041,-0.052,0.016,0.031,-0.046,0.05,-0.075,-0.027,-0.015,-0.04,-0.075
-0.018,-0.061,-0.043,0.039,0.013,-0.051,0.05,-0.075,-0.025,-0.022,-0.039,-0.075
-0.01,-0.064,-0.054,0.037,0.022,-0.059,0.049,-0.074,-0.025,-0.023,-0.035,-0.076
0.007,-0.055,-0.062,0.024,0.035,-0.059,0.045,-0.076,-0.025,-0.02,-0.035,-0.074
0.002,-0.057,-0.058,0.028,0.03,-0.057,0.045,-0.074,-0.025,-0.018,-0.03,-0.077
0.014,-0.043,-0.058,0.015,0.036,-0.05,0.045,-0.077,-0.025,-0.014,-0.03,-0.094
-0.002,-0.056,-0.054,0.03,0.026,-0.055,0.045,-0.08,-0.034,-0.012,-0.039,-0.093
0.027,-0.029,-0.056,0.002,0.042,-0.043,0.045,-0.08,-0.035,-0.008,-0.041,-0.089
0.038,-0.048,-0.086,0.006,0.062,-0.067,0.048,-0.08,-0.029,-0.019,-0.04,-0.086
0.019,-0.091,-0.11,0.036,0.065,-0.1,0.051,-0.08,-0.028,-0.027,-0.041,-0.081
0.024,-0.073,-0.098,0.024,0.061,-0.085,0.05,-0.079,-0.022,-0.021,-0.04,-0.079
0.021,-0.069,-0.09,0.024,0.056,-0.08,0.05,-0.077,-0.02,-0.018,-0.04,-0.073
0.033,-0.053,-0.086,0.01,0.06,-0.069,0.05,-0.072,-0.011,-0.012,-0.033,-0.066
0.021,-0.039,-0.059,0.009,0.04,-0.049,0.048,-0.069,0.003,-0.008,-0.023,-0.059
0.046,-0.007,-0.054,-0.019,0.05,-0.03,0.064,-0.06,0.007,-0.001,-0.016,-0.053
0.086,0.028,-0.057,-0.057,0.071,-0.014,0.06,-0.054,0.016,0.011,-0.006,-0.044
0.083,0.029,-0.054,-0.055,0.068,-0.012,0.038,-0.048,0.015,0.019,-0.006,-0.053
0.081,0.027,-0.054,-0.054,0.068,-0.013,0.017,-0.054,0.01,0.023,-0.003,-0.057
0.073,0.013,-0.06,-0.043,0.067,-0.023,-0.001,-0.076,0.006,0.012,-0.006,-0.05
0.081,0.006,-0.075,-0.043,0.078,-0.034,0.0,-0.081,0.001,0.012,-0.004,-0.041
0.06,-0.012,-0.072,-0.024,0.066,-0.042,0.006,-0.08,-0.002,0.003,-0.005,-0.055
0.023,-0.039,-0.062,0.008,0.043,-0.05,0.012,-0.079,-0.019,-0.002,-0.032,-0.086
0.044,-0.035,-0.08,-0.004,0.062,-0.057,0.015,-0.081,-0.022,-0.005,-0.032,-0.083
0.041,-0.068,-0.11,0.013,0.076,-0.089,0.027,-0.08,-0.032,-0.028,-0.042,-0.087
0.044,-0.069,-0.113,0.013,0.079,-0.091,0.02,-0.105,-0.013,-0.007,-0.039,-0.084
0.042,-0.069,-0.111,0.014,0.077,-0.09,0.037,-0.077,-0.022,-0.03,-0.04,-0.097
0.01,-0.118,-0.127,0.055,0.069,-0.122,0.13,0.062,-0.015,-0.071,-0.085,-0.146
0.02,-0.083,-0.103,0.032,0.062,-0.093,0.233,0.3,0.189,-0.051,-0.123,-0.198
0.313,0.226,-0.087,-0.269,0.199,0.07,-0.044,0.188,0.801,0.604,0.422,0.122
0.57,0.575,0.005,-0.573,0.282,0.29,-0.549,-0.742,0.851,1.078,0.982,0.619
0.126,0.328,0.202,-0.227,-0.038,0.264,-0.527,-1.426,-0.3,0.178,0.324,0.367
-0.182,-0.092,0.089,0.137,-0.135,-0.001,-0.309,-1.135,-0.756,-0.396,-0.278,-0.104
-0.033,-0.165,-0.133,0.099,0.05,-0.149,-0.233,-0.622,-0.408,-0.239,-0.203,-0.16
-0.013,-0.139,-0.126,0.076,0.057,-0.133,-0.091,-0.255,-0.206,-0.145,-0.131,-0.137
0.037,-0.084,-0.12,0.024,0.079,-0.102,-0.012,-0.067,-0.045,-0.039,-0.066,-0.12
0.051,-0.067,-0.117,0.008,0.084,-0.092,0.016,-0.021,-0.032,-0.043,-0.053,-0.112
0.029,-0.083,-0.112,0.027,0.071,-0.097,0.047,0.017,0.007,-0.021,-0.026,-0.098
0.04,-0.068,-0.108,0.014,0.074,-0.088,0.042,0.022,0.018,-0.017,-0.012,-0.087
0.033,-0.058,-0.09,0.013,0.062,-0.074,0.04,0.017,0.025,0.004,-0.008,-0.086
0.054,-0.054,-0.108,0.0,0.081,-0.08,0.032,0.015,0.041,0.038,0.003,-0.084
0.062,-0.05,-0.112,-0.006,0.087,-0.081,0.032,0.038,0.043,0.031,0.005,-0.086
0.051,-0.047,-0.098,-0.002,0.075,-0.072,0.061,0.054,0.061,0.039,0.016,-0.085
0.056,-0.043,-0.099,-0.006,0.078,-0.07,0.066,0.051,0.057,0.031,0.014,-0.085
0.088,-0.038,-0.126,-0.025,0.107,-0.082,0.064,0.058,0.062,0.042,0.015,-0.075
0.078,-0.033,-0.111,-0.022,0.094,-0.072,0.066,0.059,0.058,0.054,0.021,-0.059
0.089,-0.008,-0.097,-0.04,0.094,-0.052,0.064,0.07,0.072,0.062,0.037,-0.048
0.082,-0.021,-0.103,-0.03,0.093,-0.062,0.065,0.07,0.079,0.076,0.041,-0.037
0.079,-0.003,-0.081,-0.038,0.08,-0.042,0.06,0.083,0.101,0.088,0.057,-0.026
0.122,0.034,-0.088,-0.078,0.105,-0.027,0.05,0.106,0.133,0.119,0.093,-0.008
0.101,0.01,-0.09,-0.055,0.095,-0.04,0.043,0.1,0.127,0.136,0.104,0.029
0.103,0.058,-0.045,-0.08,0.074,0.006,0.032,0.097,0.15,0.156,0.131,0.057
0.146,0.103,-0.043,-0.125,0.095,0.03,0.006,0.092,0.184,0.216,0.191,0.104
0.202,0.141,-0.061,-0.171,0.131,0.04,-0.026,0.086,0.198,0.263,0.236,0.147
0.184,0.19,0.005,-0.187,0.089,0.097,-0.06,0.069,0.225,0.3,0.285,0.169
0.167,0.197,0.03,-0.182,0.068,0.113,-0.067,0.029,0.232,0.321,0.307,0.205
0.196,0.22,0.024,-0.208,0.085,0.122,-0.06,0.0,0.218,0.305,0.305,0.216
0.181,0.216,0.035,-0.199,0.072,0.126,-0.061,-0.007,0.208,0.3,0.297,0.2
0.159,0.17,0.012,-0.165,0.073,0.091,-0.037,-0.005,0.201,0.278,0.251,0.165
0.158,0.133,-0.025,-0.145,0.091,0.054,0.005,-0.009,0.172,0.227,0.204,0.126
0.145,0.097,-0.049,-0.121,0.097,0.024,0.044,0.011,0.13,0.191,0.157,0.084
0.109,0.051,-0.058,-0.08,0.083,-0.004,0.057,0.013,0.107,0.137,0.102,0.032
0.092,0.011,-0.081,-0.051,0.086,-0.035,0.053,-0.014,0.089,0.087,0.067,-0.001
0.031,-0.033,-0.065,0.001,0.048,-0.049,0.082,-0.008,0.075,0.065,0.048,-0.014
0.021,-0.047,-0.068,0.013,0.045,-0.057,0.096,-0.004,0.063,0.053,0.039,-0.026
0.06,-0.043,-0.103,-0.008,0.082,-0.073,0.068,-0.028,0.052,0.047,0.031,-0.055
0.066,-0.038,-0.105,-0.014,0.085,-0.071,0.073,-0.041,0.044,0.038,0.023,-0.062
0.034,-0.05,-0.084,0.009,0.059,-0.067,0.076,-0.04,0.035,0.03,0.016,-0.059
0.009,-0.069,-0.077,0.03,0.043,-0.073,0.069,-0.04,0.026,0.026,0.01,-0.066
0.056,-0.059,-0.116,0.002,0.086,-0.087,0.07,-0.041,0.02,0.023,0.007,-0.065
0.037,-0.083,-0.12,0.023,0.079,-0.102,0.063,-0.036,0.017,0.021,0.003,-0.064
0.024,-0.088,-0.112,0.033,0.068,-0.1,0.068,-0.022,0.013,0.017,0.0,-0.06
0.046,-0.071,-0.117,0.013,0.082,-0.094,0.068,-0.008,0.01,0.015,-0.005,-0.057
0.039,-0.075,-0.114,0.018,0.077,-0.094,0.082,0.005,0.005,0.012,-0.003,-0.055
0.035,-0.081,-0.116,0.024,0.076,-0.098,0.101,0.007,0.007,0.01,0.003,-0.051
0.031,-0.084,-0.115,0.027,0.073,-0.099,0.096,0.003,0.012,0.006,0.007,-0.05
0.038,-0.077,-0.115,0.02,0.077,-0.096,0.091,0.0,0.017,0.004,0.012,-0.055
0.04,-0.071,-0.111,0.016,0.075,-0.091,0.088,-0.002,0.021,0.016,0.016,-0.055
0.033,-0.066,-0.099,0.017,0.066,-0.082,0.082,-0.005,0.026,0.035,0.021,-0.05
0.024,-0.068,-0.092,0.023,0.058,-0.08,0.079,-0.007,0.035,0.042,0.024,-0.047
0.03,-0.07,-0.1,0.02,0.065,-0.085,0.071,-0.011,0.032,0.039,0.025,-0.041
0.031,-0.071,-0.102,0.02,0.067,-0.087,0.063,-0.034,0.026,0.034,0.025,-0.036
0.03,-0.067,-0.097,0.018,0.064,-0.082,0.055,-0.042,0.022,0.032,0.025,-0.034
0.013,-0.081,-0.094,0.035,0.054,-0.087,0.047,-0.039,0.014,0.027,0.025,-0.025
0.009,-0.082,-0.091,0.037,0.05,-0.087,0.048,-0.041,0.011,0.025,0.022,-0.03
0.024,-0.062,-0.086,0.019,0.055,-0.074,0.052,-0.04,0.014,0.029,0.02,-0.04
0.019,-0.066,-0.084,0.024,0.052,-0.075,0.055,-0.04,0.02,0.03,0.02,-0.035
0.037,-0.065,-0.102,0.014,0.07,-0.083,0.055,-0.035,0.025,0.03,0.02,-0.03
0.05,-0.057,-0.107,0.004,0.078,-0.081,0.055,-0.031,0.028,0.029,0.02,-0.026
0.034,-0.067,-0.101,0.017,0.068,-0.084,0.055,-0.029,0.035,0.037,0.021,-0.022
0.013,-0.088,-0.101,0.037,0.057,-0.094,0.051,-0.024,0.032,0.042,0.024,-0.014
0.014,-0.083,-0.098,0.035,0.056,-0.09,0.05,-0.021,0.03,0.04,0.026,-0.032
0.021,-0.075,-0.096,0.028,0.058,-0.085,0.049,-0.022,0.029,0.04,0.024,-0.048
0.021,-0.071,-0.092,0.025,0.057,-0.081,0.051,-0.027,0.027,0.04,0.025,-0.039
0.021,-0.07,-0.09,0.024,0.055,-0.08,0.049,-0.029,0.024,0.039,0.024,-0.035
0.015,-0.071,-0.086,0.028,0.051,-0.078,0.053,-0.034,0.026,0.043,0.023,-0.028
0.017,-0.069,-0.086,0.027,0.051,-0.077,0.062,-0.037,0.03,0.059,0.016,-0.021
0.005,-0.067,-0.072,0.032,0.039,-0.07,0.057,-0.041,0.026,0.066,0.009,-0.013
0.011,-0.026,-0.037,0.008,0.025,-0.031,0.072,-0.017,0.056,0.074,0.045,-0.005
0.047,0.007,-0.039,-0.027,0.043,-0.016,0.072,0.03,0.078,0.087,0.069,0.003
0.053,-0.016,-0.07,-0.018,0.061,-0.043,0.056,0.03,0.066,0.082,0.063,0.01
0.056,-0.019,-0.075,-0.018,0.066,-0.047,0.061,0.009,0.061,0.081,0.065,0.02
0.062,-0.008,-0.07,-0.027,0.066,-0.038,0.059,0.0,0.056,0.078,0.06,0.029
0.047,-0.02,-0.066,-0.013,0.057,-0.043,0.062,-0.006,0.043,0.073,0.059,0.019
0.029,-0.035,-0.063,0.003,0.046,-0.049,0.064,-0.01,0.059,0.076,0.06,0.011
0.002,-0.056,-0.058,0.027,0.03,-0.057,0.066,-0.012,0.059,0.063,0.045,-0.002
0.008,-0.061,-0.069,0.027,0.039,-0.065,0.062,-0.017,0.057,0.068,0.047,-0.008
-0.013,-0.088,-0.075,0.051,0.031,-0.081,0.055,-0.02,0.045,0.053,0.03,-0.019
-0.003,-0.097,-0.094,0.05,0.046,-0.095,0.053,-0.024,0.038,0.059,0.032,-0.024
0.022,-0.087,-0.108,0.033,0.065,-0.097,0.039,-0.035,0.038,0.046,0.018,-0.016
-0.013,-0.11,-0.097,0.061,0.042,-0.103,0.095,0.037,0.005,0.01,-0.021,-0.053
-0.035,-0.127,-0.092,0.081,0.028,-0.11,0.245,0.247,0.056,-0.053,-0.073,-0.122
0.075,0.033,-0.042,-0.054,0.059,-0.005,0.182,0.391,0.501,0.24,0.127,-0.012
0.511,0.47,-0.041,-0.491,0.276,0.214,-0.331,-0.148,1.186,1.079,0.875,0.499
0.465,0.598,0.134,-0.532,0.165,0.366,-0.658,-1.212,0.495,0.872,0.908,0.734
-0.062,0.169,0.23,-0.054,-0.146,0.199,-0.493,-1.446,-0.659,-0.09,0.101,0.289
-0.115,-0.177,-0.062,0.146,-0.027,-0.119,-0.316,-0.815,-0.52,-0.255,-0.183,-0.06
-0.029,-0.18,-0.15,0.105,0.061,-0.165,-0.145,-0.296,-0.213,-0.115,-0.102,-0.07
0.002,-0.117,-0.119,0.058,0.06,-0.118,0.0,-0.034,-0.059,-0.025,-0.042,-0.044
0.03,-0.104,-0.135,0.038,0.083,-0.119,0.04,0.047,0.009,0.015,-0.014,-0.04
0.025,-0.089,-0.114,0.032,0.07,-0.101,0.062,0.077,0.012,0.027,-0.007,-0.035
0.035,-0.087,-0.122,0.026,0.079,-0.104,0.074,0.104,0.062,0.051,0.005,-0.028
0.012,-0.097,-0.109,0.043,0.061,-0.102,0.088,0.107,0.055,0.05,0.007,-0.025
0.029,-0.08,-0.109,0.026,0.069,-0.094,0.085,0.118,0.082,0.064,0.017,-0.022
0.013,-0.087,-0.1,0.037,0.057,-0.093,0.084,0.114,0.072,0.063,0.025,-0.018
-0.001,-0.098,-0.097,0.05,0.048,-0.097,0.101,0.12,0.08,0.065,0.032,-0.016
0.004,-0.085,-0.089,0.04,0.047,-0.086,0.104,0.121,0.082,0.066,0.028,-0.01
0.014,-0.074,-0.088,0.03,0.051,-0.081,0.096,0.118,0.073,0.063,0.04,-0.001
0.051,-0.062,-0.113,0.006,0.082,-0.087,0.095,0.124,0.08,0.07,0.042,0.008
0.054,-0.054,-0.108,0.0,0.081,-0.081,0.087,0.138,0.092,0.082,0.05,0.016
0.053,-0.045,-0.098,-0.004,0.076,-0.071,0.087,0.152,0.108,0.099,0.078,0.022
0.052,-0.039,-0.092,-0.006,0.072,-0.065,0.098,0.161,0.121,0.109,0.082,0.036
0.055,-0.028,-0.083,-0.013,0.069,-0.055,0.091,0.17,0.129,0.111,0.093,0.049
0.05,-0.029,-0.079,-0.01,0.064,-0.053,0.082,0.2,0.149,0.146,0.125,0.055
0.062,-0.006,-0.068,-0.028,0.065,-0.037,0.073,0.211,0.175,0.178,0.149,0.086
0.08,0.024,-0.057,-0.052,0.068,-0.016,0.063,0.198,0.19,0.208,0.183,0.13
0.132,0.088,-0.044,-0.11,0.088,0.022,0.031,0.187,0.219,0.255,0.235,0.173
0.193,0.154,-0.04,-0.174,0.117,0.057,-0.004,0.176,0.25,0.307,0.294,0.218
0.176,0.149,-0.027,-0.162,0.101,0.06,-0.018,0.155,0.254,0.344,0.336,0.244
0.172,0.188,0.015,-0.18,0.078,0.101,-0.037,0.118,0.244,0.338,0.338,0.271
0.185,0.193,0.008,-0.189,0.089,0.1,-0.034,0.105,0.234,0.337,0.343,0.277
0.192,0.187,-0.006,-0.189,0.099,0.09,-0.007,0.1,0.237,0.331,0.321,0.245
0.163,0.159,-0.004,-0.161,0.083,0.077,0.02,0.092,0.229,0.292,0.27,0.202
0.13,0.082,-0.048,-0.106,0.089,0.017,0.045,0.084,0.193,0.236,0.222,0.159
0.096,0.049,-0.047,-0.072,0.072,0.001,0.072,0.071,0.158,0.185,0.156,0.114
0.064,0.008,-0.057,-0.036,0.06,-0.024,0.095,0.06,0.12,0.145,0.108,0.071
0.065,-0.022,-0.086,-0.021,0.076,-0.054,0.09,0.047,0.091,0.104,0.079,0.046
0.039,-0.05,-0.089,0.006,0.065,-0.07,0.093,0.037,0.076,0.079,0.056,0.031
0.05,-0.059,-0.109,0.004,0.08,-0.084,0.102,0.024,0.059,0.07,0.046,0.018
0.062,-0.049,-0.111,-0.007,0.087,-0.079,0.097,0.016,0.045,0.06,0.038,0.008
0.02,-0.089,-0.109,0.035,0.065,-0.099,0.094,0.014,0.031,0.05,0.03,0.004
0.002,-0.104,-0.106,0.051,0.054,-0.105,0.091,0.016,0.021,0.042,0.022,0.002
0.007,-0.097,-0.104,0.046,0.055,-0.1,0.086,0.014,0.016,0.038,0.017,-0.001
0.008,-0.097,-0.105,0.045,0.057,-0.101,0.084,0.017,0.011,0.032,0.012,-0.004
0.002,-0.093,-0.095,0.046,0.049,-0.094,0.096,0.041,0.008,0.026,0.009,-0.006
0.006,-0.097,-0.102,0.046,0.054,-0.099,0.101,0.051,0.002,0.021,0.006,-0.011
0.024,-0.094,-0.118,0.035,0.071,-0.105,0.099,0.05,0.001,0.017,0.0,-0.01
0.011,-0.096,-0.108,0.043,0.06,-0.102,0.1,0.055,0.007,0.011,0.002,-0.006
-0.003,-0.094,-0.091,0.049,0.045,-0.092,0.1,0.055,0.013,0.012,0.004,-0.004
0.006,-0.096,-0.102,0.045,0.055,-0.099,0.1,0.05,0.019,0.03,0.016,-0.001
0.011,-0.094,-0.105,0.042,0.059,-0.099,0.096,0.043,0.024,0.031,0.026,0.001
-0.001,-0.092,-0.091,0.047,0.045,-0.091,0.091,0.035,0.025,0.029,0.024,0.004
-0.012,-0.097,-0.085,0.054,0.037,-0.091,0.088,0.029,0.025,0.046,0.028,0.009
0.007,-0.07,-0.077,0.032,0.042,-0.073,0.085,0.019,0.025,0.051,0.03,0.011
-0.011,-0.086,-0.075,0.049,0.032,-0.08,0.079,0.018,0.025,0.046,0.03,0.015
-0.031,-0.106,-0.075,0.069,0.022,-0.091,0.086,0.038,0.025,0.044,0.026,0.02
-0.019,-0.09,-0.071,0.055,0.026,-0.08,0.091,0.041,0.024,0.041,0.024,0.018
-0.025,-0.094,-0.07,0.059,0.023,-0.082,0.084,0.035,0.018,0.039,0.025,0.011
-0.024,-0.095,-0.07,0.06,0.024,-0.082,0.081,0.033,0.011,0.036,0.02,0.006
-0.022,-0.097,-0.075,0.06,0.026,-0.086,0.076,0.028,0.004,0.035,0.02,0.001
-0.02,-0.101,-0.08,0.061,0.03,-0.09,0.071,0.025,-0.003,0.035,0.019,-0.005
-0.022,-0.099,-0.077,0.06,0.028,-0.088,0.072,0.021,-0.009,0.034,0.013,-0.01
-0.008,-0.082,-0.075,0.046,0.034,-0.078,0.078,0.016,-0.007,0.036,0.007,-0.004
0.006,-0.066,-0.072,0.03,0.039,-0.069,0.08,0.011,-0.002,0.032,0.002,0.001
0.014,-0.055,-0.068,0.02,0.041,-0.061,0.08,0.008,0.001,0.03,-0.004,0.009
0.009,-0.058,-0.067,0.025,0.038,-0.062,0.08,0.002,0.004,0.03,-0.009,0.004
-0.02,-0.081,-0.06,0.051,0.02,-0.07,0.08,0.001,0.009,0.03,-0.007,-0.012
-0.009,-0.081,-0.072,0.045,0.032,-0.076,0.079,0.005,0.009,0.03,-0.001,-0.01
0.003,-0.078,-0.081,0.037,0.042,-0.079,0.074,0.008,0.004,0.03,0.003,-0.01
0.004,-0.078,-0.082,0.037,0.044,-0.08,0.065,0.012,0.001,0.035,0.007,-0.01
0.031,-0.07,-0.101,0.02,0.067,-0.085,0.059,0.015,-0.002,0.035,0.013,-0.01
0.002,-0.089,-0.092,0.044,0.047,-0.09,0.052,0.015,-0.007,0.036,0.014,-0.01
-0.06,-0.121,-0.061,0.091,0.001,-0.091,0.042,0.015,-0.009,0.04,0.01,-0.005
-0.041,-0.12,-0.08,0.081,0.019,-0.1,0.056,0.015,-0.008,0.04,0.004,-0.001
-0.007,-0.117,-0.11,0.062,0.051,-0.113,0.068,0.015,-0.003,0.038,0.013,0.004
-0.008,-0.109,-0.101,0.059,0.047,-0.105,0.056,0.015,-0.011,0.034,0.022,0.002
-0.002,-0.101,-0.099,0.052,0.048,-0.1,0.046,0.014,-0.026,0.035,0.017,-0.003
-0.003,-0.105,-0.102,0.054,0.05,-0.103,0.063,0.009,-0.025,0.031,0.014,0.002
-0.005,-0.103,-0.098,0.054,0.047,-0.1,0.077,0.004,-0.024,0.03,0.011,0.005
0.003,-0.099,-0.102,0.048,0.053,-0.101,0.068,0.0,-0.021,0.03,0.006,-0.003
-0.004,-0.097,-0.093,0.051,0.045,-0.095,0.064,-0.005,-0.02,0.025,0.005,-0.008
-0.006,-0.093,-0.087,0.05,0.041,-0.09,0.061,-0.01,-0.019,0.025,0.005,-0.002
0.004,-0.09,-0.093,0.043,0.049,-0.091,0.054,-0.006,-0.012,0.023,0.005,0.001
0.011,-0.079,-0.09,0.034,0.051,-0.084,0.061,0.001,-0.007,0.019,0.005,0.007
-0.001,-0.071,-0.07,0.036,0.035,-0.07,0.067,0.006,-0.001,0.02,0.005,0.01
