0.017,0.095,0.078,-0.056,-0.031,0.086,-0.06,-0.181,-0.126,-0.05,-0.075,0.02
0.019,0.094,0.075,-0.056,-0.028,0.084,-0.063,-0.187,-0.128,-0.05,-0.075,0.02
-0.008,0.09,0.098,-0.041,-0.053,0.093,-0.065,-0.186,-0.124,-0.05,-0.075,0.02
-0.019,0.087,0.106,-0.034,-0.063,0.096,-0.065,-0.185,-0.126,-0.05,-0.075,0.02
-0.017,0.081,0.099,-0.032,-0.058,0.09,-0.065,-0.185,-0.125,-0.05,-0.075,0.02
-0.017,0.08,0.097,-0.032,-0.057,0.088,-0.065,-0.184,-0.126,-0.05,-0.075,0.02
-0.014,0.078,0.092,-0.032,-0.053,0.084,-0.065,-0.185,-0.126,-0.051,-0.083,0.02
0.0,0.089,0.089,-0.045,-0.044,0.089,-0.062,-0.181,-0.119,-0.051,-0.088,0.024
0.009,0.095,0.086,-0.053,-0.039,0.09,-0.056,-0.176,-0.114,-0.049,-0.084,0.025
0.005,0.088,0.083,-0.047,-0.039,0.085,-0.05,-0.171,-0.106,-0.051,-0.082,0.025
0.005,0.085,0.08,-0.045,-0.038,0.082,-0.046,-0.164,-0.105,-0.049,-0.079,0.025
-0.005,0.08,0.085,-0.037,-0.045,0.082,-0.025,-0.15,-0.091,-0.05,-0.076,0.024
-0.009,0.076,0.085,-0.034,-0.047,0.08,0.002,-0.128,-0.101,-0.05,-0.075,0.027
0.014,0.079,0.065,-0.047,-0.026,0.072,0.018,-0.133,-0.135,-0.045,-0.074,0.031
0.052,0.106,0.055,-0.079,-0.002,0.08,-0.02,-0.126,-0.133,-0.046,-0.076,0.029
0.045,0.085,0.04,-0.065,0.002,0.062,-0.089,-0.15,-0.12,-0.036,-0.073,0.032
0.022,0.054,0.032,-0.038,-0.005,0.043,-0.076,-0.163,-0.129,-0.043,-0.078,0.028
0.019,0.069,0.051,-0.045,-0.016,0.06,-0.079,-0.164,-0.107,-0.028,-0.072,0.032
-0.005,0.053,0.059,-0.024,-0.032,0.056,-0.066,-0.169,-0.124,-0.045,-0.076,0.021
-0.008,0.054,0.062,-0.023,-0.035,0.057,-0.069,-0.16,-0.118,-0.052,-0.08,0.016
-0.01,0.035,0.045,-0.013,-0.028,0.04,-0.062,-0.186,-0.134,-0.056,-0.09,0.008
-0.025,0.035,0.06,-0.005,-0.043,0.048,-0.05,-0.146,-0.133,-0.059,-0.085,-0.004
-0.024,0.008,0.032,0.008,-0.028,0.019,-0.022,-0.136,-0.118,-0.055,-0.093,-0.005
-0.041,-0.002,0.039,0.021,-0.04,0.018,0.149,0.28,-0.13,-0.134,-0.175,-0.072
0.177,0.191,0.014,-0.185,0.082,0.102,-0.031,0.189,0.286,0.162,0.022,0.077
0.373,0.842,0.468,-0.608,-0.048,0.655,-0.304,-1.534,1.051,0.967,0.683,0.645
0.278,1.734,1.455,-1.006,-0.589,1.594,-0.78,-3.128,2.063,2.0,1.546,1.386
0.09,1.289,1.199,-0.69,-0.555,1.243,-1.336,-2.992,1.365,1.511,1.271,1.2
-0.158,0.146,0.304,0.006,-0.231,0.225,-0.968,-1.672,-0.375,-0.11,0.111,0.246
-0.103,-0.022,0.08,0.062,-0.091,0.029,-0.383,-0.611,-0.342,-0.31,-0.15,-0.01
0.013,0.065,0.052,-0.039,-0.02,0.058,-0.135,-0.166,-0.141,-0.121,-0.082,0.054
-0.022,0.036,0.057,-0.007,-0.04,0.046,-0.052,-0.037,-0.2,-0.158,-0.117,0.024
0.003,0.044,0.042,-0.024,-0.02,0.043,-0.031,0.004,-0.13,-0.094,-0.081,0.039
0.003,0.035,0.032,-0.019,-0.014,0.033,0.004,0.068,-0.167,-0.126,-0.101,0.015
0.015,0.046,0.031,-0.031,-0.008,0.039,0.002,0.08,-0.107,-0.075,-0.078,0.019
0.025,0.042,0.017,-0.034,0.004,0.029,0.014,0.114,-0.136,-0.07,-0.081,0.004
0.034,0.047,0.012,-0.041,0.011,0.029,0.014,0.122,-0.087,-0.05,-0.067,0.009
0.029,0.048,0.019,-0.039,0.005,0.033,0.02,0.124,-0.072,-0.038,-0.061,0.016
0.036,0.056,0.02,-0.047,0.008,0.038,0.025,0.144,-0.061,-0.02,-0.055,0.021
0.025,0.061,0.036,-0.043,-0.006,0.048,0.028,0.155,-0.041,-0.009,-0.044,0.031
0.013,0.058,0.045,-0.036,-0.016,0.051,0.031,0.172,-0.026,0.006,-0.037,0.034
0.026,0.072,0.046,-0.049,-0.01,0.059,0.029,0.198,0.006,0.033,-0.024,0.041
0.02,0.083,0.063,-0.052,-0.022,0.073,0.031,0.221,0.03,0.04,-0.016,0.044
0.038,0.097,0.059,-0.068,-0.011,0.078,0.029,0.246,0.06,0.063,-0.005,0.051
0.04,0.119,0.08,-0.079,-0.02,0.099,0.032,0.276,0.083,0.08,0.006,0.062
0.034,0.131,0.096,-0.083,-0.031,0.113,0.036,0.323,0.132,0.109,0.021,0.079
0.056,0.15,0.095,-0.103,-0.02,0.122,0.029,0.372,0.178,0.145,0.056,0.11
0.087,0.2,0.113,-0.143,-0.013,0.156,0.027,0.417,0.217,0.175,0.076,0.126
0.102,0.25,0.148,-0.176,-0.024,0.199,0.021,0.475,0.285,0.221,0.098,0.141
0.112,0.293,0.181,-0.203,-0.035,0.237,0.017,0.528,0.373,0.287,0.151,0.174
0.144,0.355,0.211,-0.25,-0.034,0.283,0.011,0.577,0.457,0.35,0.186,0.21
0.185,0.432,0.248,-0.309,-0.032,0.34,-0.007,0.603,0.552,0.434,0.246,0.261
0.21,0.502,0.293,-0.356,-0.042,0.397,-0.036,0.595,0.662,0.524,0.311,0.318
0.234,0.565,0.331,-0.399,-0.049,0.447,-0.077,0.567,0.73,0.6,0.379,0.374
0.249,0.602,0.353,-0.426,-0.052,0.478,-0.106,0.513,0.763,0.66,0.445,0.42
0.255,0.594,0.339,-0.424,-0.042,0.467,-0.126,0.397,0.759,0.659,0.444,0.436
0.237,0.524,0.287,-0.381,-0.025,0.405,-0.112,0.256,0.66,0.603,0.394,0.397
0.176,0.402,0.226,-0.29,-0.025,0.314,-0.08,0.119,0.487,0.469,0.313,0.327
0.111,0.255,0.144,-0.183,-0.017,0.199,-0.066,0.006,0.3,0.307,0.204,0.244
0.058,0.133,0.075,-0.096,-0.008,0.104,-0.056,-0.057,0.139,0.176,0.101,0.151
0.016,0.066,0.051,-0.041,-0.018,0.058,-0.037,-0.113,0.026,0.076,0.045,0.093
-0.026,0.011,0.037,0.007,-0.032,0.024,-0.01,-0.135,-0.047,0.025,0.006,0.062
-0.043,-0.024,0.019,0.034,-0.031,-0.002,-0.01,-0.145,-0.076,-0.012,-0.023,0.038
-0.028,-0.043,-0.015,0.035,-0.006,-0.029,-0.016,-0.154,-0.094,-0.031,-0.038,0.031
-0.024,-0.063,-0.038,0.044,0.007,-0.05,-0.014,-0.142,-0.102,-0.035,-0.048,0.026
-0.039,-0.066,-0.027,0.052,-0.005,-0.046,-0.016,-0.139,-0.099,-0.036,-0.043,0.021
-0.036,-0.064,-0.028,0.051,-0.004,-0.046,-0.014,-0.13,-0.101,-0.042,-0.039,0.015
-0.058,-0.066,-0.009,0.062,-0.024,-0.037,-0.017,-0.12,-0.099,-0.037,-0.038,0.009
-0.067,-0.063,0.004,0.065,-0.035,-0.029,-0.009,-0.11,-0.101,-0.04,-0.031,0.023
-0.032,-0.068,-0.037,0.05,0.003,-0.052,-0.008,-0.102,-0.105,-0.054,-0.032,0.036
-0.015,-0.068,-0.053,0.041,0.019,-0.06,-0.033,-0.098,-0.105,-0.042,-0.056,0.029
-0.01,-0.069,-0.059,0.04,0.025,-0.064,-0.035,-0.091,-0.105,-0.035,-0.062,0.022
-0.035,-0.089,-0.054,0.062,0.01,-0.072,-0.028,-0.094,-0.105,-0.036,-0.059,0.015
-0.052,-0.091,-0.039,0.072,-0.007,-0.065,-0.026,-0.095,-0.105,-0.041,-0.066,0.007
-0.034,-0.089,-0.056,0.061,0.011,-0.072,-0.021,-0.096,-0.108,-0.048,-0.064,0.001
-0.028,-0.091,-0.063,0.06,0.017,-0.077,-0.02,-0.1,-0.111,-0.05,-0.067,-0.001
-0.032,-0.089,-0.057,0.061,0.013,-0.073,-0.02,-0.104,-0.115,-0.056,-0.07,0.0
-0.035,-0.093,-0.058,0.064,0.012,-0.075,-0.02,-0.105,-0.114,-0.06,-0.07,0.0
-0.047,-0.1,-0.052,0.074,0.003,-0.076,-0.02,-0.105,-0.119,-0.063,-0.07,0.0
-0.046,-0.104,-0.059,0.075,0.007,-0.081,-0.019,-0.105,-0.13,-0.068,-0.07,0.0
-0.033,-0.101,-0.068,0.067,0.018,-0.084,-0.015,-0.105,-0.133,-0.07,-0.07,-0.002
-0.033,-0.099,-0.066,0.066,0.016,-0.082,-0.015,-0.106,-0.14,-0.07,-0.073,-0.005
-0.042,-0.101,-0.06,0.072,0.009,-0.08,-0.012,-0.11,-0.14,-0.07,-0.076,-0.008
-0.048,-0.097,-0.05,0.073,0.001,-0.073,-0.01,-0.113,-0.146,-0.07,-0.075,-0.011
-0.041,-0.107,-0.067,0.074,0.013,-0.087,-0.01,-0.117,-0.16,-0.069,-0.075,-0.015
-0.057,-0.13,-0.073,0.094,0.008,-0.101,-0.014,-0.12,-0.158,-0.065,-0.074,-0.015
-0.046,-0.13,-0.083,0.089,0.018,-0.106,-0.019,-0.116,-0.154,-0.065,-0.07,-0.011
-0.034,-0.131,-0.097,0.082,0.032,-0.114,-0.015,-0.115,-0.151,-0.063,-0.07,-0.008
-0.053,-0.136,-0.083,0.095,0.015,-0.109,-0.016,-0.115,-0.145,-0.061,-0.07,-0.005
-0.049,-0.134,-0.085,0.091,0.019,-0.109,-0.013,-0.111,-0.146,-0.058,-0.07,-0.003
-0.063,-0.138,-0.075,0.101,0.006,-0.106,-0.009,-0.109,-0.146,-0.071,-0.07,0.001
-0.063,-0.14,-0.077,0.102,0.007,-0.108,-0.011,-0.112,-0.143,-0.087,-0.066,-0.003
-0.036,-0.14,-0.104,0.088,0.034,-0.122,-0.005,-0.115,-0.14,-0.084,-0.064,-0.005
-0.031,-0.14,-0.109,0.086,0.039,-0.124,0.003,-0.116,-0.137,-0.088,-0.065,-0.005
-0.044,-0.14,-0.096,0.092,0.026,-0.118,-0.003,-0.119,-0.136,-0.091,-0.065,-0.013
-0.042,-0.14,-0.098,0.091,0.028,-0.119,-0.014,-0.12,-0.13,-0.09,-0.065,-0.015
-0.055,-0.14,-0.085,0.097,0.015,-0.112,-0.01,-0.116,-0.146,-0.087,-0.065,-0.015
-0.057,-0.14,-0.084,0.099,0.013,-0.112,-0.007,-0.112,-0.163,-0.082,-0.065,-0.015
-0.032,-0.139,-0.107,0.086,0.037,-0.123,0.005,-0.109,-0.159,-0.079,-0.065,-0.015
-0.037,-0.14,-0.103,0.089,0.033,-0.122,-0.005,-0.105,-0.16,-0.076,-0.065,-0.015
-0.033,-0.139,-0.106,0.086,0.036,-0.123,-0.032,-0.102,-0.156,-0.071,-0.076,-0.01
-0.033,-0.141,-0.108,0.087,0.037,-0.124,-0.023,-0.098,-0.151,-0.071,-0.081,-0.01
-0.036,-0.157,-0.121,0.097,0.043,-0.139,-0.008,-0.095,-0.146,-0.077,-0.079,-0.008
-0.052,-0.161,-0.109,0.107,0.028,-0.135,-0.004,-0.095,-0.143,-0.075,-0.08,-0.005
-0.026,-0.159,-0.134,0.093,0.054,-0.146,-0.014,-0.093,-0.137,-0.075,-0.08,-0.004
-0.007,-0.16,-0.154,0.084,0.074,-0.157,-0.016,-0.089,-0.138,-0.075,-0.08,-0.008
-0.027,-0.16,-0.133,0.094,0.053,-0.146,-0.015,-0.09,-0.147,-0.075,-0.08,-0.021
-0.021,-0.16,-0.139,0.091,0.059,-0.149,-0.013,-0.094,-0.144,-0.076,-0.08,-0.022
-0.024,-0.15,-0.126,0.087,0.051,-0.138,-0.022,-0.093,-0.141,-0.072,-0.081,-0.016
0.004,-0.142,-0.146,0.069,0.075,-0.144,-0.029,-0.084,-0.138,-0.067,-0.08,-0.014
-0.004,-0.133,-0.129,0.069,0.063,-0.131,0.002,-0.08,-0.135,-0.064,-0.078,-0.009
-0.013,-0.126,-0.112,0.07,0.05,-0.119,0.028,-0.072,-0.134,-0.061,-0.07,-0.006
-0.019,-0.122,-0.103,0.071,0.042,-0.112,0.057,-0.067,-0.127,-0.055,-0.065,-0.002
-0.012,-0.116,-0.104,0.064,0.046,-0.11,0.083,-0.058,-0.121,-0.057,-0.058,0.006
0.015,-0.116,-0.131,0.051,0.074,-0.124,0.076,-0.035,-0.122,-0.058,-0.05,0.016
0.0,-0.112,-0.112,0.056,0.057,-0.112,0.012,-0.041,-0.135,-0.063,-0.056,0.022
0.037,-0.129,-0.165,0.046,0.101,-0.146,-0.052,-0.102,-0.131,-0.056,-0.052,0.022
0.033,-0.149,-0.183,0.058,0.108,-0.166,-0.032,-0.103,-0.146,-0.065,-0.062,0.011
0.003,-0.153,-0.156,0.075,0.08,-0.154,-0.03,-0.106,-0.135,-0.054,-0.056,0.011
-0.011,-0.151,-0.141,0.081,0.065,-0.146,-0.019,-0.116,-0.152,-0.072,-0.067,-0.002
-0.005,-0.15,-0.145,0.078,0.07,-0.147,-0.018,-0.102,-0.135,-0.094,-0.077,-0.014
0.013,-0.179,-0.192,0.083,0.103,-0.185,-0.014,-0.135,-0.123,-0.095,-0.08,-0.022
-0.025,-0.171,-0.147,0.098,0.062,-0.159,-0.007,-0.075,-0.154,-0.112,-0.083,-0.02
-0.005,-0.187,-0.182,0.096,0.089,-0.185,0.007,-0.073,-0.142,-0.092,-0.083,-0.028
-0.004,-0.186,-0.182,0.095,0.09,-0.184,0.181,0.301,-0.144,-0.158,-0.183,-0.101
0.161,-0.03,-0.191,-0.065,0.176,-0.11,0.019,0.309,0.27,0.101,0.002,0.036
0.326,0.594,0.268,-0.461,0.029,0.431,-0.271,-1.275,1.042,0.889,0.644,0.559
0.22,1.545,1.325,-0.883,-0.553,1.435,-0.715,-2.978,2.075,1.944,1.51,1.297
0.056,1.192,1.137,-0.624,-0.541,1.164,-1.271,-3.013,1.473,1.579,1.356,1.201
-0.157,0.014,0.171,0.071,-0.164,0.092,-0.941,-1.68,-0.379,-0.105,0.168,0.273
-0.109,-0.236,-0.127,0.173,0.01,-0.181,-0.355,-0.585,-0.406,-0.401,-0.16,-0.013
0.003,-0.136,-0.138,0.067,0.07,-0.137,-0.08,-0.121,-0.102,-0.156,-0.041,0.054
-0.011,-0.14,-0.129,0.076,0.059,-0.134,0.016,0.035,-0.189,-0.217,-0.088,-0.009
0.005,-0.155,-0.16,0.076,0.083,-0.157,0.019,0.07,-0.124,-0.137,-0.057,-0.004
0.006,-0.172,-0.178,0.083,0.092,-0.175,0.072,0.123,-0.174,-0.15,-0.079,-0.014
0.033,-0.16,-0.193,0.064,0.114,-0.176,0.076,0.136,-0.116,-0.102,-0.065,-0.002
0.014,-0.169,-0.184,0.078,0.099,-0.176,0.082,0.164,-0.117,-0.1,-0.073,-0.004
-0.008,-0.154,-0.147,0.081,0.07,-0.15,0.084,0.171,-0.087,-0.082,-0.07,0.0
0.006,-0.152,-0.157,0.073,0.082,-0.154,0.085,0.187,-0.079,-0.066,-0.06,0.003
0.015,-0.127,-0.142,0.056,0.079,-0.134,0.092,0.204,-0.058,-0.058,-0.05,0.006
0.025,-0.131,-0.156,0.053,0.091,-0.144,0.088,0.23,-0.021,-0.023,-0.035,0.014
0.056,-0.119,-0.175,0.032,0.116,-0.147,0.085,0.251,0.0,-0.007,-0.031,0.012
0.05,-0.092,-0.142,0.021,0.097,-0.117,0.08,0.27,0.038,0.014,-0.02,0.036
0.039,-0.091,-0.13,0.027,0.085,-0.11,0.077,0.292,0.054,0.034,-0.011,0.05
0.054,-0.065,-0.119,0.006,0.087,-0.092,0.074,0.318,0.079,0.052,0.005,0.046
0.092,-0.033,-0.126,-0.029,0.109,-0.079,0.068,0.357,0.113,0.071,0.014,0.056
0.106,0.004,-0.103,-0.055,0.104,-0.049,0.082,0.399,0.146,0.095,0.03,0.063
0.084,0.016,-0.068,-0.05,0.075,-0.025,0.098,0.453,0.198,0.128,0.063,0.082
0.096,0.036,-0.06,-0.066,0.078,-0.012,0.091,0.511,0.254,0.163,0.094,0.101
0.11,0.095,-0.015,-0.103,0.062,0.04,0.083,0.57,0.313,0.2,0.112,0.114
0.149,0.152,0.003,-0.151,0.073,0.077,0.075,0.624,0.411,0.268,0.154,0.152
0.178,0.209,0.031,-0.193,0.073,0.12,0.068,0.68,0.504,0.342,0.205,0.199
0.181,0.285,0.104,-0.234,0.039,0.194,0.053,0.706,0.585,0.417,0.255,0.245
0.224,0.358,0.134,-0.291,0.045,0.245,0.023,0.7,0.691,0.506,0.317,0.291
0.249,0.421,0.172,-0.336,0.039,0.296,-0.016,0.671,0.78,0.588,0.38,0.346
0.275,0.458,0.183,-0.367,0.046,0.32,-0.044,0.611,0.818,0.645,0.432,0.394
0.29,0.454,0.164,-0.372,0.063,0.309,-0.053,0.504,0.808,0.649,0.443,0.403
0.245,0.388,0.143,-0.317,0.051,0.265,-0.054,0.354,0.716,0.587,0.412,0.367
0.186,0.251,0.065,-0.219,0.06,0.157,-0.039,0.229,0.517,0.446,0.308,0.29
0.106,0.123,0.018,-0.115,0.044,0.07,-0.016,0.123,0.318,0.277,0.189,0.2
0.096,0.029,-0.067,-0.062,0.081,-0.018,0.01,0.04,0.163,0.15,0.112,0.125
0.078,-0.062,-0.14,-0.007,0.109,-0.1,0.03,-0.004,0.049,0.07,0.05,0.076
0.022,-0.119,-0.141,0.049,0.081,-0.129,0.032,-0.038,-0.008,0.011,0.007,0.034
0.029,-0.139,-0.168,0.056,0.099,-0.153,0.037,-0.057,-0.051,-0.034,-0.026,0.003
0.01,-0.154,-0.164,0.073,0.087,-0.159,0.044,-0.053,-0.071,-0.049,-0.036,-0.002
0.004,-0.161,-0.164,0.079,0.084,-0.162,0.045,-0.051,-0.07,-0.053,-0.035,-0.008
0.012,-0.155,-0.166,0.072,0.089,-0.16,0.045,-0.047,-0.07,-0.059,-0.035,-0.011
0.013,-0.15,-0.163,0.069,0.088,-0.156,0.044,-0.045,-0.067,-0.06,-0.038,-0.016
0.02,-0.147,-0.167,0.064,0.094,-0.157,0.052,-0.042,-0.064,-0.06,-0.041,-0.02
0.023,-0.139,-0.163,0.058,0.093,-0.151,0.06,-0.027,-0.066,-0.06,-0.04,-0.015
0.019,-0.149,-0.168,0.066,0.093,-0.158,0.051,-0.013,-0.069,-0.06,-0.04,-0.015
-0.005,-0.155,-0.15,0.08,0.073,-0.152,0.048,-0.003,-0.071,-0.062,-0.04,-0.015
-0.005,-0.15,-0.145,0.077,0.07,-0.147,0.041,0.005,-0.07,-0.065,-0.041,-0.015
0.022,-0.145,-0.166,0.062,0.094,-0.155,0.036,0.012,-0.07,-0.068,-0.036,-0.015
0.017,-0.147,-0.164,0.066,0.091,-0.155,0.047,0.022,-0.072,-0.07,-0.043,-0.017
-0.014,-0.173,-0.159,0.093,0.073,-0.166,0.051,0.022,-0.08,-0.074,-0.052,-0.021
-0.015,-0.174,-0.159,0.095,0.073,-0.166,0.05,0.009,-0.095,-0.075,-0.049,-0.02
-0.016,-0.168,-0.152,0.093,0.068,-0.159,0.047,-0.003,-0.102,-0.078,-0.05,-0.024
-0.004,-0.167,-0.163,0.086,0.08,-0.164,0.045,-0.014,-0.104,-0.081,-0.05,-0.025
0.018,-0.16,-0.178,0.071,0.098,-0.169,0.045,-0.027,-0.108,-0.08,-0.05,-0.025
0.008,-0.159,-0.167,0.076,0.088,-0.163,0.041,-0.037,-0.111,-0.08,-0.054,-0.03
0.007,-0.154,-0.161,0.074,0.085,-0.157,0.038,-0.045,-0.116,-0.08,-0.058,-0.03
-0.002,-0.156,-0.154,0.079,0.076,-0.155,0.035,-0.049,-0.123,-0.081,-0.062,-0.03
-0.007,-0.154,-0.147,0.081,0.071,-0.15,0.032,-0.054,-0.126,-0.086,-0.064,-0.03
-0.018,-0.159,-0.141,0.089,0.062,-0.15,0.03,-0.055,-0.124,-0.091,-0.068,-0.029
-0.047,-0.182,-0.134,0.115,0.044,-0.158,0.028,-0.056,-0.125,-0.095,-0.07,-0.032
-0.023,-0.186,-0.164,0.105,0.071,-0.174,0.021,-0.057,-0.125,-0.092,-0.066,-0.038
-0.012,-0.184,-0.172,0.098,0.08,-0.178,0.014,-0.055,-0.125,-0.089,-0.065,-0.04
-0.013,-0.185,-0.173,0.099,0.08,-0.179,0.008,-0.051,-0.13,-0.09,-0.065,-0.04
-0.002,-0.185,-0.182,0.094,0.09,-0.183,0.0,-0.05,-0.129,-0.09,-0.065,-0.034
-0.011,-0.184,-0.173,0.098,0.081,-0.178,-0.004,-0.064,-0.135,-0.09,-0.064,-0.042
-0.004,-0.179,-0.176,0.092,0.086,-0.177,-0.001,-0.071,-0.146,-0.091,-0.067,-0.056
0.0,-0.176,-0.175,0.088,0.088,-0.175,0.002,-0.069,-0.143,-0.095,-0.069,-0.05
0.001,-0.173,-0.174,0.086,0.088,-0.173,0.004,-0.07,-0.14,-0.095,-0.065,-0.045
0.009,-0.168,-0.177,0.08,0.093,-0.172,0.008,-0.07,-0.137,-0.095,-0.065,-0.043
-0.003,-0.165,-0.162,0.084,0.08,-0.163,0.01,-0.07,-0.135,-0.095,-0.065,-0.034
-0.006,-0.168,-0.162,0.088,0.078,-0.165,0.008,-0.067,-0.134,-0.095,-0.066,-0.043
0.01,-0.17,-0.181,0.08,0.095,-0.175,0.003,-0.064,-0.137,-0.098,-0.064,-0.057
0.009,-0.17,-0.178,0.081,0.094,-0.174,0.0,-0.066,-0.132,-0.1,-0.074,-0.051
0.002,-0.17,-0.172,0.084,0.087,-0.171,0.017,-0.063,-0.14,-0.1,-0.086,-0.049
0.004,-0.17,-0.174,0.083,0.089,-0.172,0.031,-0.071,-0.147,-0.1,-0.085,-0.044
-0.01,-0.169,-0.159,0.089,0.075,-0.164,0.029,-0.087,-0.142,-0.1,-0.084,-0.041
-0.011,-0.165,-0.153,0.088,0.072,-0.159,0.032,-0.083,-0.17,-0.101,-0.08,-0.037
0.017,-0.165,-0.182,0.074,0.1,-0.173,0.035,-0.08,-0.173,-0.108,-0.079,-0.033
0.006,-0.163,-0.169,0.078,0.088,-0.165,0.036,-0.078,-0.163,-0.107,-0.083,-0.052
-0.01,-0.159,-0.149,0.085,0.07,-0.154,0.032,-0.075,-0.161,-0.105,-0.085,-0.056
0.017,-0.161,-0.178,0.072,0.097,-0.169,0.029,-0.073,-0.152,-0.105,-0.085,-0.054
0.011,-0.156,-0.167,0.073,0.089,-0.161,0.025,-0.069,-0.15,-0.1,-0.085,-0.056
0.011,-0.152,-0.163,0.071,0.088,-0.157,0.022,-0.07,-0.145,-0.101,-0.086,-0.055
0.015,-0.147,-0.162,0.066,0.089,-0.154,0.017,-0.069,-0.146,-0.099,-0.085,-0.055
0.01,-0.143,-0.153,0.066,0.082,-0.147,0.015,-0.069,-0.145,-0.094,-0.081,-0.049
0.02,-0.138,-0.158,0.059,0.089,-0.148,0.023,-0.07,-0.144,-0.088,-0.076,-0.046
-0.001,-0.133,-0.132,0.067,0.066,-0.132,0.031,-0.059,-0.146,-0.086,-0.074,-0.043
0.009,-0.121,-0.13,0.056,0.07,-0.125,0.061,-0.045,-0.14,-0.078,-0.069,-0.038
0.024,-0.097,-0.121,0.037,0.073,-0.109,0.104,-0.037,-0.135,-0.077,-0.066,-0.036
0.022,-0.122,-0.145,0.05,0.084,-0.133,0.105,-0.045,-0.129,-0.067,-0.066,-0.038
0.026,-0.156,-0.182,0.066,0.104,-0.169,0.063,-0.05,-0.139,-0.057,-0.072,-0.042
0.023,-0.146,-0.169,0.062,0.096,-0.157,0.025,-0.076,-0.143,-0.08,-0.073,-0.045
0.027,-0.152,-0.18,0.063,0.104,-0.166,0.024,-0.11,-0.148,-0.097,-0.078,-0.048
-0.005,-0.149,-0.144,0.077,0.069,-0.146,0.017,-0.089,-0.154,-0.097,-0.082,-0.053
-0.016,-0.15,-0.134,0.083,0.059,-0.141,0.005,-0.117,-0.142,-0.089,-0.082,-0.053
-0.014,-0.149,-0.135,0.082,0.061,-0.142,0.01,-0.093,-0.164,-0.109,-0.097,-0.059
-0.011,-0.136,-0.126,0.074,0.058,-0.131,-0.013,-0.115,-0.149,-0.11,-0.091,-0.055
-0.014,-0.154,-0.139,0.084,0.063,-0.146,0.006,-0.1,-0.185,-0.131,-0.11,-0.066
-0.03,-0.158,-0.127,0.094,0.049,-0.142,-0.025,-0.096,-0.143,-0.101,-0.088,-0.059
-0.033,-0.204,-0.171,0.119,0.069,-0.187,0.117,0.043,-0.185,-0.163,-0.147,-0.11
0.04,-0.132,-0.172,0.046,0.106,-0.152,0.192,0.493,-0.037,-0.134,-0.159,-0.124
0.274,0.22,-0.055,-0.247,0.164,0.083,-0.1,-0.503,0.528,0.366,0.221,0.187
0.347,1.118,0.772,-0.733,-0.213,0.945,-0.436,-2.562,1.5,1.366,1.053,0.896
0.237,1.599,1.362,-0.918,-0.563,1.48,-1.183,-3.376,2.142,2.031,1.635,1.397
0.001,0.562,0.561,-0.282,-0.28,0.561,-1.376,-2.5,0.533,0.75,0.771,0.735
-0.159,-0.217,-0.058,0.188,-0.05,-0.138,-0.645,-1.074,-0.622,-0.431,-0.136,-0.021
-0.061,-0.144,-0.083,0.103,0.011,-0.113,-0.179,-0.28,-0.168,-0.239,-0.113,-0.049
-0.052,-0.145,-0.093,0.098,0.021,-0.119,-0.014,-0.021,-0.2,-0.218,-0.123,-0.056
-0.044,-0.133,-0.089,0.089,0.023,-0.111,0.032,0.048,-0.172,-0.185,-0.109,-0.051
-0.015,-0.132,-0.117,0.074,0.051,-0.124,0.06,0.101,-0.17,-0.166,-0.099,-0.045
-0.012,-0.134,-0.122,0.074,0.055,-0.128,0.075,0.131,-0.176,-0.168,-0.102,-0.048
-0.011,-0.134,-0.123,0.073,0.057,-0.128,0.085,0.152,-0.142,-0.133,-0.083,-0.047
-0.002,-0.125,-0.123,0.064,0.061,-0.123,0.107,0.174,-0.156,-0.13,-0.088,-0.06
0.017,-0.109,-0.126,0.047,0.072,-0.117,0.102,0.192,-0.111,-0.082,-0.071,-0.045
0.01,-0.097,-0.107,0.043,0.059,-0.102,0.112,0.223,-0.103,-0.077,-0.074,-0.045
0.027,-0.079,-0.107,0.026,0.067,-0.093,0.112,0.229,-0.059,-0.06,-0.058,-0.037
0.026,-0.075,-0.101,0.025,0.063,-0.088,0.114,0.258,-0.047,-0.05,-0.051,-0.028
0.053,-0.049,-0.102,-0.002,0.078,-0.075,0.121,0.289,-0.029,-0.027,-0.041,0.003
0.044,-0.04,-0.085,-0.002,0.065,-0.062,0.13,0.308,-0.007,-0.008,-0.03,0.031
0.012,-0.036,-0.048,0.012,0.031,-0.042,0.131,0.332,0.033,-0.001,-0.025,0.037
0.052,-0.006,-0.058,-0.023,0.055,-0.032,0.128,0.373,0.062,0.019,-0.011,0.044
0.05,0.017,-0.034,-0.033,0.042,-0.009,0.125,0.418,0.084,0.048,-0.005,0.065
0.049,0.054,0.005,-0.051,0.022,0.029,0.126,0.463,0.13,0.069,0.016,0.085
0.059,0.089,0.03,-0.074,0.014,0.06,0.118,0.517,0.17,0.097,0.041,0.095
0.066,0.117,0.051,-0.092,0.008,0.083,0.136,0.59,0.232,0.138,0.053,0.122
0.112,0.181,0.069,-0.147,0.021,0.124,0.145,0.66,0.308,0.194,0.095,0.168
0.135,0.238,0.103,-0.187,0.016,0.17,0.134,0.72,0.381,0.255,0.144,0.205
0.161,0.306,0.145,-0.234,0.007,0.225,0.131,0.773,0.474,0.323,0.194,0.25
0.201,0.389,0.188,-0.295,0.006,0.288,0.119,0.802,0.571,0.41,0.246,0.301
0.222,0.455,0.233,-0.339,-0.006,0.343,0.091,0.79,0.662,0.492,0.308,0.35
0.249,0.515,0.267,-0.383,-0.009,0.391,0.046,0.74,0.731,0.563,0.371,0.406
0.277,0.543,0.266,-0.411,0.005,0.404,0.023,0.645,0.754,0.607,0.405,0.441
0.257,0.51,0.253,-0.384,0.002,0.381,0.022,0.484,0.713,0.597,0.403,0.443
0.214,0.402,0.188,-0.308,0.013,0.295,0.019,0.317,0.571,0.501,0.333,0.389
0.148,0.267,0.119,-0.208,0.015,0.193,0.012,0.17,0.39,0.352,0.236,0.306
0.078,0.148,0.07,-0.113,0.004,0.108,0.015,0.055,0.212,0.205,0.135,0.226
0.053,0.05,-0.002,-0.052,0.028,0.024,-0.011,-0.007,0.072,0.092,0.046,0.152
0.051,-0.013,-0.063,-0.019,0.057,-0.037,-0.01,-0.041,-0.006,0.026,0.004,0.117
0.015,-0.055,-0.07,0.021,0.042,-0.062,0.032,-0.062,-0.062,-0.023,-0.03,0.09
-0.021,-0.079,-0.058,0.051,0.018,-0.068,0.029,-0.078,-0.089,-0.055,-0.057,0.069
0.002,-0.081,-0.082,0.04,0.042,-0.081,0.03,-0.081,-0.098,-0.067,-0.066,0.066
0.004,-0.079,-0.082,0.038,0.043,-0.08,0.03,-0.08,-0.101,-0.066,-0.065,0.059
-0.007,-0.077,-0.071,0.042,0.032,-0.074,0.03,-0.077,-0.095,-0.064,-0.065,0.055
-0.016,-0.071,-0.056,0.044,0.021,-0.063,0.029,-0.075,-0.094,-0.065,-0.065,0.048
-0.018,-0.085,-0.067,0.052,0.025,-0.076,0.027,-0.075,-0.091,-0.065,-0.065,0.046
-0.01,-0.084,-0.073,0.047,0.032,-0.078,0.049,-0.071,-0.089,-0.064,-0.065,0.05
-0.014,-0.075,-0.06,0.045,0.023,-0.067,0.047,-0.068,-0.114,-0.07,-0.065,0.05
0.002,-0.085,-0.086,0.042,0.044,-0.085,0.04,-0.066,-0.141,-0.081,-0.065,0.05
0.002,-0.077,-0.079,0.038,0.041,-0.078,0.039,-0.063,-0.133,-0.08,-0.065,0.05
0.0,-0.072,-0.072,0.036,0.036,-0.072,0.03,-0.06,-0.127,-0.08,-0.065,0.05
0.003,-0.068,-0.07,0.033,0.037,-0.069,0.031,-0.063,-0.127,-0.081,-0.067,0.048
0.0,-0.059,-0.059,0.03,0.029,-0.059,0.02,-0.066,-0.13,-0.079,-0.071,0.045
-0.004,-0.072,-0.068,0.038,0.032,-0.07,0.02,-0.069,-0.134,-0.083,-0.074,0.042
-0.014,-0.094,-0.08,0.054,0.033,-0.087,0.043,-0.071,-0.136,-0.089,-0.078,0.04
-0.015,-0.095,-0.081,0.055,0.034,-0.088,0.041,-0.077,-0.14,-0.095,-0.081,0.036
-0.017,-0.095,-0.078,0.056,0.031,-0.086,0.034,-0.088,-0.145,-0.1,-0.084,0.035
-0.02,-0.095,-0.075,0.058,0.028,-0.085,0.03,-0.09,-0.149,-0.1,-0.085,0.038
-0.021,-0.095,-0.074,0.058,0.027,-0.085,0.023,-0.09,-0.15,-0.101,-0.085,0.043
-0.015,-0.094,-0.079,0.055,0.032,-0.087,0.019,-0.09,-0.151,-0.105,-0.085,0.044
-0.009,-0.089,-0.08,0.049,0.036,-0.085,0.015,-0.09,-0.148,-0.105,-0.085,0.039
-0.011,-0.091,-0.08,0.051,0.035,-0.086,0.012,-0.089,-0.152,-0.102,-0.082,0.036
-0.009,-0.087,-0.077,0.048,0.034,-0.082,0.011,-0.086,-0.145,-0.1,-0.079,0.033
-0.011,-0.086,-0.075,0.049,0.032,-0.08,0.005,-0.083,-0.158,-0.1,-0.074,0.028
-0.008,-0.083,-0.075,0.046,0.034,-0.079,0.008,-0.08,-0.186,-0.1,-0.072,0.025
-0.022,-0.093,-0.072,0.057,0.025,-0.082,-0.003,-0.078,-0.18,-0.1,-0.066,0.022
-0.043,-0.111,-0.067,0.077,0.012,-0.089,-0.021,-0.074,-0.175,-0.101,-0.066,0.019
-0.031,-0.095,-0.064,0.064,0.017,-0.08,-0.009,-0.077,-0.172,-0.104,-0.087,0.016
-0.028,-0.089,-0.061,0.058,0.016,-0.075,0.005,-0.083,-0.166,-0.107,-0.091,0.013
-0.035,-0.091,-0.056,0.064,0.01,-0.073,0.012,-0.086,-0.163,-0.109,-0.09,0.01
-0.031,-0.087,-0.056,0.059,0.013,-0.071,0.01,-0.09,-0.159,-0.113,-0.095,0.011
-0.025,-0.086,-0.061,0.055,0.019,-0.073,0.006,-0.09,-0.16,-0.115,-0.095,0.016
-0.019,-0.084,-0.064,0.052,0.023,-0.074,0.005,-0.09,-0.16,-0.117,-0.094,0.02
-0.024,-0.093,-0.069,0.059,0.023,-0.081,0.0,-0.09,-0.16,-0.12,-0.09,0.016
-0.027,-0.097,-0.07,0.062,0.022,-0.083,0.0,-0.09,-0.161,-0.12,-0.09,0.015
-0.024,-0.095,-0.07,0.06,0.023,-0.082,0.005,-0.09,-0.166,-0.12,-0.088,0.013
-0.025,-0.095,-0.07,0.06,0.023,-0.082,0.004,-0.087,-0.165,-0.12,-0.084,0.021
-0.02,-0.09,-0.07,0.055,0.025,-0.08,0.006,-0.085,-0.166,-0.12,-0.085,0.036
-0.021,-0.09,-0.069,0.055,0.024,-0.079,0.0,-0.085,-0.161,-0.125,-0.089,0.031
-0.025,-0.089,-0.064,0.058,0.019,-0.076,-0.011,-0.085,-0.161,-0.125,-0.09,0.028
-0.022,-0.084,-0.061,0.053,0.02,-0.072,-0.006,-0.085,-0.158,-0.125,-0.09,0.025
-0.024,-0.081,-0.056,0.053,0.016,-0.068,-0.001,-0.085,-0.164,-0.125,-0.094,0.02
-0.023,-0.078,-0.055,0.051,0.016,-0.066,0.004,-0.08,-0.193,-0.125,-0.096,0.018
-0.025,-0.073,-0.048,0.049,0.012,-0.06,0.011,-0.08,-0.193,-0.125,-0.093,0.014
-0.021,-0.071,-0.05,0.046,0.015,-0.061,0.015,-0.079,-0.185,-0.125,-0.088,0.016
-0.003,-0.065,-0.061,0.034,0.029,-0.063,0.02,-0.074,-0.184,-0.125,-0.082,0.011
-0.004,-0.064,-0.06,0.034,0.028,-0.062,0.02,-0.076,-0.177,-0.125,-0.078,0.01
-0.01,-0.054,-0.044,0.032,0.018,-0.049,0.02,-0.074,-0.174,-0.125,-0.071,0.01
-0.03,-0.063,-0.033,0.046,0.002,-0.048,0.02,-0.084,-0.17,-0.124,-0.065,0.006
-0.038,-0.1,-0.062,0.069,0.012,-0.081,0.02,-0.091,-0.168,-0.121,-0.078,0.004
-0.038,-0.093,-0.055,0.066,0.008,-0.073,0.018,-0.083,-0.165,-0.115,-0.087,0.005
-0.043,-0.082,-0.04,0.063,-0.001,-0.061,0.007,-0.083,-0.162,-0.111,-0.08,0.003
-0.027,-0.083,-0.055,0.055,0.014,-0.069,-0.001,-0.076,-0.159,-0.106,-0.077,0.009
-0.031,-0.072,-0.041,0.052,0.005,-0.057,-0.014,-0.077,-0.156,-0.101,-0.073,0.022
-0.026,-0.061,-0.035,0.044,0.005,-0.048,0.022,-0.066,-0.155,-0.1,-0.07,0.025
-0.016,-0.052,-0.036,0.034,0.01,-0.044,0.076,-0.055,-0.154,-0.1,-0.065,0.029
-0.013,-0.046,-0.033,0.03,0.01,-0.039,0.07,-0.038,-0.152,-0.101,-0.068,0.029
-0.003,-0.048,-0.045,0.026,0.021,-0.046,0.061,-0.027,-0.147,-0.098,-0.07,0.032
-0.012,-0.053,-0.04,0.033,0.014,-0.046,0.029,-0.05,-0.155,-0.103,-0.071,0.033
0.019,-0.058,-0.077,0.02,0.048,-0.067,-0.018,-0.091,-0.152,-0.095,-0.068,0.028
0.017,-0.078,-0.095,0.031,0.057,-0.086,-0.004,-0.089,-0.166,-0.1,-0.072,0.02
-0.023,-0.072,-0.049,0.048,0.013,-0.06,-0.015,-0.087,-0.154,-0.089,-0.068,0.018
-0.011,-0.078,-0.067,0.045,0.028,-0.072,-0.007,-0.099,-0.166,-0.104,-0.079,0.01
-0.031,-0.087,-0.056,0.059,0.013,-0.071,-0.014,-0.078,-0.179,-0.126,-0.087,0.004
-0.04,-0.107,-0.067,0.073,0.013,-0.087,-0.041,-0.12,-0.174,-0.121,-0.088,-0.001
-0.048,-0.098,-0.05,0.074,0.001,-0.074,-0.017,-0.059,-0.194,-0.126,-0.095,-0.013
-0.05,-0.111,-0.061,0.081,0.006,-0.086,-0.002,-0.083,-0.157,-0.105,-0.094,-0.011
-0.041,-0.132,-0.091,0.087,0.025,-0.111,0.161,0.277,-0.202,-0.204,-0.165,-0.081
0.1,0.035,-0.065,-0.067,0.082,-0.016,0.082,0.3,0.121,-0.01,-0.042,0.014
0.335,0.575,0.24,-0.455,0.047,0.407,-0.192,-1.451,0.773,0.667,0.492,0.493
0.358,1.541,1.183,-0.95,-0.413,1.362,-0.737,-3.168,1.832,1.739,1.404,1.277
0.207,1.36,1.153,-0.784,-0.473,1.256,-1.49,-3.211,1.682,1.704,1.444,1.352
-0.086,0.154,0.239,-0.034,-0.163,0.196,-1.172,-1.919,-0.175,0.115,0.304,0.415
-0.169,-0.125,0.044,0.147,-0.106,-0.041,-0.41,-0.648,-0.469,-0.38,-0.143,0.002
-0.043,-0.019,0.024,0.03,-0.033,0.003,-0.093,-0.13,-0.109,-0.158,-0.064,0.072
-0.037,-0.063,-0.026,0.05,-0.005,-0.045,0.023,0.024,-0.232,-0.22,-0.11,0.018
-0.036,-0.056,-0.02,0.047,-0.008,-0.038,0.037,0.068,-0.159,-0.159,-0.083,0.022
-0.029,-0.066,-0.037,0.047,0.004,-0.051,0.066,0.123,-0.208,-0.18,-0.101,0.011
0.005,-0.049,-0.054,0.022,0.03,-0.051,0.068,0.14,-0.16,-0.146,-0.081,0.017
0.008,-0.051,-0.059,0.022,0.034,-0.055,0.073,0.165,-0.16,-0.134,-0.081,0.015
-0.006,-0.041,-0.035,0.024,0.015,-0.038,0.077,0.178,-0.143,-0.116,-0.073,0.014
0.01,-0.035,-0.045,0.013,0.027,-0.04,0.096,0.197,-0.12,-0.099,-0.064,0.014
0.021,-0.012,-0.032,-0.004,0.027,-0.022,0.111,0.227,-0.108,-0.091,-0.063,0.007
0.03,0.001,-0.029,-0.015,0.029,-0.014,0.105,0.25,-0.077,-0.066,-0.05,0.012
0.029,0.012,-0.018,-0.02,0.023,-0.003,0.114,0.28,-0.068,-0.056,-0.046,0.032
0.049,0.043,-0.006,-0.046,0.027,0.018,0.107,0.301,-0.033,-0.037,-0.034,0.042
0.035,0.044,0.009,-0.04,0.013,0.026,0.109,0.329,-0.012,-0.031,-0.028,0.04
0.017,0.052,0.036,-0.035,-0.01,0.044,0.131,0.368,0.018,-0.013,-0.025,0.055
0.031,0.08,0.049,-0.056,-0.009,0.064,0.136,0.411,0.048,0.014,-0.013,0.07
0.032,0.102,0.07,-0.067,-0.019,0.086,0.135,0.451,0.067,0.039,0.007,0.072
0.041,0.134,0.092,-0.088,-0.026,0.113,0.136,0.511,0.109,0.064,0.028,0.08
0.065,0.167,0.102,-0.116,-0.019,0.134,0.145,0.579,0.158,0.095,0.051,0.104
0.088,0.208,0.12,-0.148,-0.016,0.163,0.157,0.65,0.217,0.142,0.082,0.131
0.102,0.263,0.161,-0.183,-0.03,0.211,0.142,0.723,0.293,0.192,0.116,0.153
0.135,0.335,0.199,-0.235,-0.032,0.267,0.153,0.788,0.37,0.249,0.155,0.182
0.168,0.417,0.249,-0.293,-0.041,0.333,0.158,0.85,0.468,0.34,0.22,0.238
0.183,0.483,0.3,-0.333,-0.059,0.391,0.137,0.86,0.551,0.414,0.278,0.286
0.239,0.559,0.32,-0.399,-0.041,0.439,0.112,0.829,0.627,0.489,0.334,0.33
0.248,0.597,0.349,-0.422,-0.051,0.473,0.069,0.776,0.683,0.566,0.4,0.389
0.22,0.584,0.364,-0.402,-0.072,0.474,0.032,0.642,0.684,0.578,0.417,0.412
0.228,0.543,0.315,-0.386,-0.043,0.429,0.027,0.461,0.622,0.544,0.396,0.39
0.182,0.438,0.256,-0.31,-0.037,0.347,0.03,0.288,0.477,0.442,0.328,0.329
0.125,0.3,0.175,-0.213,-0.025,0.237,0.024,0.14,0.303,0.29,0.214,0.247
0.074,0.164,0.09,-0.119,-0.008,0.127,0.022,0.047,0.15,0.165,0.131,0.171
0.022,0.086,0.064,-0.054,-0.021,0.075,0.017,-0.017,0.044,0.065,0.06,0.105
0.001,0.043,0.041,-0.022,-0.02,0.042,0.015,-0.055,-0.023,-0.005,-0.005,0.062
-0.038,-0.009,0.029,0.023,-0.034,0.01,-0.002,-0.069,-0.072,-0.043,-0.044,0.038
-0.051,-0.026,0.025,0.038,-0.038,0.0,-0.016,-0.081,-0.092,-0.061,-0.057,0.023
-0.045,-0.025,0.02,0.035,-0.032,-0.002,-0.002,-0.084,-0.098,-0.067,-0.054,0.011
-0.042,-0.025,0.017,0.033,-0.029,-0.004,0.012,-0.08,-0.103,-0.075,-0.06,0.004
-0.031,-0.02,0.011,0.025,-0.02,-0.005,0.02,-0.073,-0.106,-0.081,-0.06,0.001
-0.033,-0.021,0.012,0.027,-0.023,-0.004,0.02,-0.068,-0.11,-0.087,-0.064,-0.002
-0.026,-0.018,0.008,0.022,-0.017,-0.005,0.02,-0.063,-0.11,-0.09,-0.065,-0.007
-0.019,-0.015,0.004,0.017,-0.011,-0.005,0.02,-0.058,-0.111,-0.09,-0.065,-0.01
-0.004,-0.015,-0.012,0.01,0.005,-0.013,0.022,-0.051,-0.109,-0.09,-0.065,-0.014
0.003,-0.013,-0.016,0.005,0.01,-0.014,0.026,-0.044,-0.111,-0.09,-0.066,-0.021
0.0,-0.01,-0.01,0.005,0.005,-0.01,0.025,-0.038,-0.113,-0.09,-0.079,-0.026
-0.001,-0.01,-0.009,0.005,0.004,-0.009,0.025,-0.031,-0.117,-0.094,-0.08,-0.03
-0.018,-0.022,-0.005,0.021,-0.006,-0.013,0.025,-0.025,-0.118,-0.099,-0.08,-0.03
-0.023,-0.026,-0.003,0.025,-0.009,-0.014,0.025,-0.032,-0.123,-0.106,-0.08,-0.032
-0.03,-0.025,0.004,0.027,-0.017,-0.01,0.02,-0.041,-0.141,-0.112,-0.081,-0.036
-0.035,-0.024,0.01,0.029,-0.022,-0.007,0.015,-0.044,-0.148,-0.116,-0.089,-0.034
-0.03,-0.027,0.002,0.028,-0.016,-0.012,0.011,-0.051,-0.158,-0.121,-0.093,-0.036
-0.027,-0.048,-0.021,0.037,-0.003,-0.034,0.006,-0.056,-0.16,-0.124,-0.098,-0.033
-0.021,-0.051,-0.03,0.037,0.004,-0.04,0.002,-0.055,-0.168,-0.129,-0.099,-0.042
-0.03,-0.049,-0.019,0.04,-0.006,-0.034,-0.003,-0.053,-0.182,-0.13,-0.094,-0.056
-0.033,-0.051,-0.018,0.042,-0.008,-0.034,-0.005,-0.051,-0.179,-0.131,-0.095,-0.05
-0.04,-0.049,-0.009,0.045,-0.016,-0.029,-0.008,-0.048,-0.18,-0.134,-0.094,-0.045
-0.045,-0.052,-0.007,0.049,-0.019,-0.029,-0.011,-0.057,-0.18,-0.136,-0.095,-0.043
-0.021,-0.055,-0.034,0.038,0.007,-0.044,0.001,-0.057,-0.18,-0.133,-0.094,-0.034
-0.014,-0.055,-0.041,0.034,0.014,-0.048,0.008,-0.057,-0.176,-0.129,-0.1,-0.042
-0.015,-0.055,-0.04,0.035,0.013,-0.047,0.004,-0.078,-0.19,-0.124,-0.118,-0.071
-0.015,-0.055,-0.04,0.035,0.013,-0.047,0.005,-0.081,-0.197,-0.12,-0.121,-0.075
-0.015,-0.055,-0.04,0.035,0.013,-0.047,-0.001,-0.079,-0.193,-0.13,-0.12,-0.066
-0.019,-0.059,-0.04,0.039,0.011,-0.049,0.002,-0.08,-0.196,-0.137,-0.117,-0.065
-0.029,-0.06,-0.032,0.045,0.001,-0.046,0.002,-0.08,-0.194,-0.134,-0.114,-0.058
-0.006,-0.06,-0.053,0.033,0.023,-0.056,-0.014,-0.08,-0.196,-0.135,-0.115,-0.056
-0.011,-0.06,-0.05,0.036,0.019,-0.055,-0.016,-0.074,-0.199,-0.138,-0.11,-0.059
-0.017,-0.06,-0.042,0.039,0.012,-0.051,-0.014,-0.068,-0.2,-0.146,-0.11,-0.06
-0.025,-0.061,-0.037,0.043,0.006,-0.049,-0.015,-0.06,-0.2,-0.145,-0.109,-0.064
-0.042,-0.066,-0.024,0.054,-0.009,-0.044,-0.015,-0.055,-0.199,-0.145,-0.111,-0.065
-0.032,-0.069,-0.038,0.051,0.003,-0.053,-0.014,-0.045,-0.203,-0.145,-0.109,-0.067
-0.041,-0.07,-0.029,0.056,-0.006,-0.049,-0.01,-0.059,-0.205,-0.144,-0.113,-0.07
-0.019,-0.07,-0.051,0.045,0.016,-0.06,-0.01,-0.077,-0.205,-0.148,-0.126,-0.07
-0.009,-0.07,-0.061,0.04,0.026,-0.065,-0.013,-0.074,-0.208,-0.15,-0.122,-0.07
-0.03,-0.07,-0.04,0.05,0.005,-0.055,-0.006,-0.075,-0.21,-0.15,-0.118,-0.07
-0.014,-0.071,-0.056,0.043,0.021,-0.063,0.006,-0.075,-0.209,-0.153,-0.115,-0.07
-0.019,-0.068,-0.049,0.044,0.015,-0.058,0.007,-0.075,-0.205,-0.155,-0.109,-0.07
-0.043,-0.065,-0.022,0.054,-0.01,-0.043,0.003,-0.072,-0.205,-0.154,-0.114,-0.07
-0.021,-0.065,-0.044,0.043,0.012,-0.054,0.0,-0.068,-0.204,-0.15,-0.116,-0.07
-0.02,-0.065,-0.045,0.042,0.013,-0.055,-0.004,-0.067,-0.2,-0.147,-0.112,-0.07
-0.029,-0.065,-0.036,0.047,0.004,-0.05,-0.006,-0.062,-0.2,-0.143,-0.108,-0.069
-0.02,-0.064,-0.044,0.042,0.013,-0.054,-0.014,-0.061,-0.202,-0.14,-0.105,-0.073
-0.036,-0.069,-0.033,0.053,-0.001,-0.051,-0.022,-0.058,-0.207,-0.134,-0.099,-0.075
-0.016,-0.07,-0.054,0.043,0.019,-0.061,-0.022,-0.055,-0.21,-0.141,-0.104,-0.076
-0.014,-0.071,-0.057,0.043,0.021,-0.064,-0.014,-0.048,-0.206,-0.164,-0.123,-0.081
-0.027,-0.07,-0.043,0.049,0.008,-0.056,-0.009,-0.048,-0.202,-0.163,-0.123,-0.08
-0.027,-0.07,-0.044,0.049,0.009,-0.057,-0.004,-0.041,-0.198,-0.153,-0.115,-0.075
-0.03,-0.069,-0.039,0.049,0.005,-0.054,0.003,-0.041,-0.194,-0.148,-0.11,-0.061
0.004,-0.034,-0.038,0.015,0.021,-0.036,0.006,-0.052,-0.191,-0.141,-0.105,-0.079
0.003,-0.021,-0.024,0.009,0.013,-0.022,0.051,-0.019,-0.187,-0.134,-0.1,-0.094
-0.016,-0.031,-0.016,0.024,0.0,-0.023,0.112,0.001,-0.186,-0.131,-0.101,-0.079
0.014,-0.045,-0.058,0.016,0.036,-0.051,0.089,0.014,-0.178,-0.128,-0.098,-0.07
0.008,-0.051,-0.059,0.021,0.034,-0.055,0.032,0.02,-0.183,-0.132,-0.096,-0.061
0.008,-0.041,-0.049,0.017,0.029,-0.045,-0.003,-0.028,-0.176,-0.128,-0.093,-0.059
0.023,-0.041,-0.064,0.009,0.044,-0.053,-0.007,-0.061,-0.184,-0.131,-0.099,-0.056
-0.011,-0.033,-0.021,0.022,0.006,-0.027,-0.014,-0.06,-0.177,-0.132,-0.108,-0.054
-0.017,-0.063,-0.047,0.04,0.015,-0.055,-0.008,-0.075,-0.185,-0.14,-0.112,-0.076
-0.022,-0.069,-0.048,0.045,0.013,-0.058,0.0,-0.051,-0.21,-0.159,-0.123,-0.09
-0.008,-0.063,-0.055,0.035,0.024,-0.058,-0.009,-0.092,-0.194,-0.15,-0.116,-0.079
-0.016,-0.075,-0.059,0.045,0.022,-0.066,0.017,-0.059,-0.222,-0.178,-0.135,-0.092
-0.033,-0.091,-0.058,0.062,0.013,-0.074,-0.008,-0.05,-0.181,-0.148,-0.125,-0.091
-0.028,-0.127,-0.099,0.078,0.035,-0.113,0.155,0.201,-0.23,-0.231,-0.187,-0.15
0.081,-0.004,-0.085,-0.038,0.083,-0.044,0.131,0.527,0.023,-0.122,-0.14,-0.115
0.316,0.425,0.109,-0.371,0.104,0.267,-0.169,-0.666,0.666,0.506,0.357,0.302
0.322,1.386,1.064,-0.854,-0.371,1.224,-0.504,-2.575,1.729,1.589,1.257,1.065
0.155,1.555,1.4,-0.855,-0.623,1.478,-1.143,-3.096,1.867,1.843,1.519,1.314
-0.102,0.387,0.489,-0.143,-0.296,0.437,-1.125,-2.051,0.04,0.281,0.44,0.461
-0.168,-0.147,0.02,0.158,-0.094,-0.063,-0.499,-0.784,-0.58,-0.492,-0.21,-0.098
-0.002,-0.024,-0.022,0.014,0.01,-0.022,-0.146,-0.153,-0.18,-0.228,-0.115,-0.031
-0.019,-0.04,-0.02,0.03,0.001,-0.03,0.005,0.068,-0.265,-0.279,-0.156,-0.067
-0.006,-0.047,-0.042,0.027,0.018,-0.044,0.048,0.122,-0.188,-0.228,-0.125,-0.081
0.043,-0.054,-0.097,0.005,0.07,-0.076,0.062,0.163,-0.221,-0.235,-0.131,-0.093
0.038,-0.045,-0.083,0.004,0.061,-0.064,0.057,0.18,-0.189,-0.209,-0.123,-0.087
0.049,-0.046,-0.095,-0.002,0.073,-0.07,0.074,0.197,-0.179,-0.183,-0.115,-0.083
0.042,-0.044,-0.086,0.001,0.064,-0.065,0.09,0.21,-0.171,-0.169,-0.117,-0.083
0.051,-0.035,-0.086,-0.007,0.069,-0.06,0.088,0.221,-0.143,-0.136,-0.103,-0.077
0.065,-0.02,-0.085,-0.022,0.076,-0.052,0.09,0.243,-0.126,-0.129,-0.107,-0.077
0.081,0.007,-0.074,-0.043,0.078,-0.034,0.099,0.269,-0.087,-0.11,-0.096,-0.066
0.09,0.038,-0.052,-0.064,0.07,-0.007,0.107,0.287,-0.104,-0.109,-0.096,-0.063
0.075,0.03,-0.045,-0.052,0.06,-0.007,0.101,0.306,-0.077,-0.09,-0.085,-0.058
0.078,0.033,-0.045,-0.055,0.061,-0.006,0.099,0.335,-0.044,-0.078,-0.071,-0.055
0.11,0.07,-0.04,-0.09,0.074,0.015,0.096,0.361,-0.016,-0.064,-0.057,-0.044
0.106,0.082,-0.024,-0.094,0.065,0.029,0.094,0.398,0.021,-0.039,-0.043,-0.019
0.118,0.103,-0.016,-0.11,0.067,0.043,0.09,0.445,0.055,-0.001,-0.023,0.006
0.147,0.136,-0.011,-0.141,0.079,0.062,0.082,0.493,0.094,0.037,-0.003,0.025
0.14,0.171,0.031,-0.155,0.054,0.101,0.077,0.55,0.142,0.06,0.019,0.041
0.154,0.214,0.061,-0.184,0.046,0.137,0.069,0.611,0.2,0.088,0.039,0.048
0.152,0.262,0.111,-0.207,0.02,0.186,0.063,0.665,0.28,0.147,0.076,0.086
0.178,0.322,0.144,-0.251,0.017,0.233,0.057,0.718,0.369,0.219,0.126,0.123
0.219,0.394,0.175,-0.307,0.021,0.284,0.043,0.749,0.472,0.299,0.179,0.164
0.249,0.469,0.22,-0.359,0.014,0.344,0.023,0.747,0.56,0.382,0.246,0.222
0.291,0.542,0.251,-0.417,0.02,0.396,-0.008,0.739,0.656,0.464,0.302,0.268
0.306,0.597,0.29,-0.452,0.008,0.443,-0.042,0.702,0.725,0.541,0.363,0.324
0.33,0.602,0.272,-0.466,0.029,0.437,-0.076,0.605,0.716,0.57,0.397,0.346
0.306,0.565,0.259,-0.435,0.023,0.412,-0.082,0.473,0.669,0.532,0.375,0.329
0.241,0.472,0.231,-0.357,0.005,0.351,-0.052,0.322,0.522,0.422,0.304,0.276
0.192,0.326,0.134,-0.259,0.029,0.23,-0.033,0.205,0.328,0.269,0.198,0.188
0.123,0.206,0.082,-0.165,0.02,0.144,-0.017,0.12,0.161,0.119,0.101,0.108
0.082,0.129,0.047,-0.106,0.017,0.088,-0.007,0.061,0.024,-0.007,0.007,0.036
0.072,0.067,-0.005,-0.069,0.038,0.031,0.008,0.039,-0.067,-0.077,-0.058,-0.015
0.041,0.018,-0.023,-0.029,0.032,-0.003,0.033,0.017,-0.115,-0.112,-0.081,-0.042
0.041,-0.001,-0.043,-0.02,0.042,-0.022,0.036,0.01,-0.138,-0.131,-0.094,-0.057
0.041,-0.005,-0.046,-0.018,0.044,-0.025,0.034,0.009,-0.144,-0.138,-0.106,-0.068
0.018,-0.014,-0.031,-0.002,0.025,-0.022,0.035,0.004,-0.136,-0.142,-0.11,-0.063
0.007,-0.021,-0.028,0.007,0.018,-0.024,0.036,0.008,-0.132,-0.145,-0.11,-0.08
-0.009,-0.028,-0.019,0.018,0.006,-0.023,0.041,0.016,-0.123,-0.145,-0.11,-0.102
-0.004,-0.031,-0.027,0.017,0.012,-0.029,0.044,0.029,-0.152,-0.145,-0.11,-0.091
0.019,-0.03,-0.049,0.005,0.034,-0.039,0.041,0.034,-0.174,-0.145,-0.111,-0.088
0.02,-0.031,-0.051,0.005,0.035,-0.041,0.04,0.046,-0.163,-0.145,-0.106,-0.081
0.015,-0.029,-0.045,0.008,0.03,-0.037,0.039,0.061,-0.164,-0.149,-0.12,-0.076
0.014,-0.031,-0.045,0.009,0.029,-0.037,0.036,0.054,-0.158,-0.156,-0.133,-0.072
0.01,-0.029,-0.039,0.009,0.025,-0.034,0.033,0.05,-0.155,-0.162,-0.128,-0.068
0.017,-0.025,-0.042,0.004,0.03,-0.033,0.041,0.047,-0.159,-0.165,-0.132,-0.074
0.028,-0.026,-0.053,-0.001,0.041,-0.039,0.05,0.041,-0.166,-0.166,-0.129,-0.085
0.034,-0.022,-0.057,-0.005,0.046,-0.039,0.044,0.038,-0.17,-0.169,-0.131,-0.092
0.033,-0.02,-0.053,-0.006,0.043,-0.036,0.038,0.034,-0.175,-0.171,-0.123,-0.088
0.033,-0.019,-0.052,-0.007,0.042,-0.035,0.033,0.032,-0.18,-0.172,-0.123,-0.094
0.023,-0.026,-0.049,0.002,0.036,-0.037,0.026,0.029,-0.183,-0.17,-0.142,-0.107
0.019,-0.032,-0.051,0.006,0.035,-0.041,0.027,0.026,-0.191,-0.17,-0.13,-0.097
0.04,-0.031,-0.071,-0.004,0.056,-0.051,0.034,0.024,-0.19,-0.168,-0.124,-0.094
0.052,-0.023,-0.075,-0.015,0.064,-0.048,0.03,0.021,-0.189,-0.164,-0.123,-0.096
0.039,-0.028,-0.067,-0.005,0.053,-0.048,0.03,0.017,-0.196,-0.165,-0.119,-0.094
0.008,-0.059,-0.067,0.026,0.038,-0.063,0.028,0.013,-0.197,-0.174,-0.117,-0.096
0.002,-0.057,-0.06,0.028,0.031,-0.058,0.025,0.01,-0.19,-0.181,-0.113,-0.094
0.011,-0.05,-0.061,0.02,0.036,-0.055,0.025,0.005,-0.179,-0.179,-0.125,-0.101
0.029,-0.049,-0.077,0.01,0.053,-0.063,0.025,0.008,-0.202,-0.18,-0.13,-0.106
0.041,-0.041,-0.083,0.0,0.062,-0.062,0.039,0.017,-0.223,-0.18,-0.131,-0.104
0.043,-0.041,-0.084,0.0,0.063,-0.062,0.038,0.015,-0.214,-0.18,-0.135,-0.105
0.039,-0.047,-0.086,0.005,0.063,-0.067,0.03,0.009,-0.213,-0.18,-0.135,-0.105
0.014,-0.066,-0.08,0.026,0.047,-0.072,0.029,0.002,-0.208,-0.18,-0.14,-0.105
0.004,-0.072,-0.076,0.034,0.04,-0.074,0.02,0.002,-0.204,-0.18,-0.14,-0.105
0.001,-0.068,-0.069,0.034,0.035,-0.069,0.025,0.009,-0.206,-0.18,-0.141,-0.105
-0.006,-0.071,-0.065,0.039,0.03,-0.068,0.036,0.016,-0.204,-0.18,-0.145,-0.105
-0.011,-0.069,-0.057,0.04,0.023,-0.063,0.035,0.022,-0.206,-0.178,-0.145,-0.104
-0.01,-0.066,-0.056,0.039,0.023,-0.061,0.035,0.03,-0.204,-0.175,-0.142,-0.111
0.017,-0.065,-0.081,0.024,0.05,-0.073,0.036,0.034,-0.205,-0.169,-0.139,-0.116
0.024,-0.062,-0.086,0.02,0.055,-0.074,0.034,0.031,-0.204,-0.177,-0.14,-0.114
0.001,-0.078,-0.08,0.039,0.041,-0.079,0.038,0.029,-0.194,-0.186,-0.136,-0.115
-0.001,-0.08,-0.079,0.041,0.039,-0.08,0.04,0.025,-0.189,-0.184,-0.134,-0.115
0.009,-0.065,-0.075,0.029,0.042,-0.07,0.039,0.023,-0.174,-0.185,-0.135,-0.115
0.015,-0.061,-0.076,0.024,0.045,-0.068,0.044,0.019,-0.195,-0.185,-0.135,-0.115
0.022,-0.06,-0.081,0.019,0.052,-0.07,0.045,0.022,-0.223,-0.185,-0.135,-0.115
0.021,-0.061,-0.082,0.02,0.052,-0.071,0.046,0.043,-0.204,-0.183,-0.135,-0.116
0.029,-0.06,-0.088,0.016,0.058,-0.073,0.04,0.046,-0.194,-0.178,-0.135,-0.115
0.029,-0.061,-0.09,0.016,0.059,-0.076,0.041,0.048,-0.185,-0.172,-0.135,-0.115
0.025,-0.054,-0.079,0.015,0.052,-0.066,0.033,0.05,-0.182,-0.169,-0.132,-0.115
0.015,-0.032,-0.047,0.009,0.032,-0.039,0.045,0.05,-0.176,-0.163,-0.126,-0.109
0.001,-0.017,-0.018,0.008,0.01,-0.017,0.107,0.067,-0.169,-0.16,-0.12,-0.102
0.046,-0.012,-0.058,-0.017,0.052,-0.034,0.12,0.073,-0.167,-0.161,-0.117,-0.096
0.065,-0.003,-0.068,-0.031,0.067,-0.035,0.107,0.055,-0.157,-0.159,-0.108,-0.089
0.054,-0.007,-0.061,-0.024,0.058,-0.034,0.068,0.055,-0.165,-0.162,-0.109,-0.083
0.042,-0.044,-0.085,0.001,0.063,-0.064,0.019,0.04,-0.152,-0.16,-0.124,-0.084
0.017,-0.063,-0.079,0.023,0.048,-0.071,0.032,0.036,-0.163,-0.181,-0.134,-0.104
0.02,-0.057,-0.077,0.019,0.048,-0.067,0.012,0.029,-0.145,-0.18,-0.127,-0.105
0.024,-0.062,-0.086,0.019,0.055,-0.074,0.018,0.013,-0.177,-0.187,-0.133,-0.114
0.009,-0.062,-0.071,0.027,0.04,-0.066,0.004,0.026,-0.207,-0.192,-0.139,-0.12
0.003,-0.085,-0.088,0.041,0.046,-0.086,0.008,-0.002,-0.193,-0.187,-0.147,-0.122
0.017,-0.068,-0.084,0.026,0.051,-0.076,0.023,0.038,-0.212,-0.209,-0.161,-0.134
0.012,-0.083,-0.095,0.035,0.054,-0.089,0.009,0.02,-0.159,-0.191,-0.156,-0.128
0.003,-0.112,-0.115,0.055,0.059,-0.113,0.202,0.388,-0.184,-0.282,-0.235,-0.219
0.175,0.06,-0.116,-0.117,0.145,-0.028,0.065,0.476,0.172,-0.051,-0.087,-0.1
0.355,0.647,0.292,-0.501,0.031,0.47,-0.24,-1.089,0.928,0.727,0.522,0.422
0.281,1.596,1.316,-0.939,-0.518,1.456,-0.67,-2.868,2.003,1.795,1.397,1.17
0.106,1.371,1.266,-0.739,-0.58,1.318,-1.25,-2.971,1.567,1.564,1.334,1.161
-0.129,0.167,0.296,-0.019,-0.213,0.231,-0.968,-1.676,-0.352,-0.107,0.17,0.212
-0.126,-0.147,-0.021,0.136,-0.052,-0.083,-0.36,-0.543,-0.501,-0.509,-0.244,-0.153
0.013,-0.026,-0.039,0.007,0.026,-0.032,-0.074,-0.046,-0.16,-0.252,-0.124,-0.098
-0.01,-0.038,-0.027,0.024,0.009,-0.032,0.024,0.123,-0.246,-0.305,-0.16,-0.141
0.021,-0.03,-0.05,0.005,0.036,-0.04,0.047,0.164,-0.161,-0.242,-0.134,-0.114
0.046,-0.037,-0.083,-0.004,0.065,-0.059,0.095,0.228,-0.216,-0.269,-0.147,-0.138
0.048,-0.02,-0.069,-0.013,0.059,-0.044,0.091,0.237,-0.166,-0.218,-0.128,-0.124
0.061,-0.02,-0.081,-0.02,0.071,-0.05,0.104,0.264,-0.182,-0.205,-0.127,-0.122
0.049,-0.011,-0.06,-0.019,0.055,-0.035,0.113,0.278,-0.155,-0.184,-0.12,-0.11
0.052,0.003,-0.05,-0.027,0.051,-0.023,0.108,0.29,-0.125,-0.159,-0.112,-0.098
0.066,0.012,-0.054,-0.039,0.06,-0.021,0.109,0.315,-0.107,-0.147,-0.108,-0.107
0.066,-0.001,-0.067,-0.032,0.067,-0.034,0.103,0.334,-0.091,-0.123,-0.096,-0.097
0.056,0.003,-0.053,-0.029,0.055,-0.025,0.107,0.356,-0.081,-0.116,-0.091,-0.083
0.069,0.022,-0.047,-0.046,0.058,-0.012,0.109,0.37,-0.039,-0.098,-0.082,-0.07
0.092,0.046,-0.046,-0.068,0.069,-0.001,0.111,0.4,-0.01,-0.084,-0.073,-0.058
0.089,0.074,-0.014,-0.081,0.051,0.03,0.127,0.427,0.02,-0.059,-0.055,-0.048
0.079,0.073,-0.007,-0.076,0.043,0.033,0.129,0.464,0.05,-0.035,-0.038,-0.04
0.115,0.099,-0.016,-0.107,0.065,0.041,0.122,0.511,0.087,-0.006,-0.023,-0.03
0.112,0.139,0.027,-0.126,0.042,0.083,0.119,0.555,0.131,0.03,-0.001,-0.006
0.11,0.163,0.053,-0.137,0.028,0.108,0.114,0.615,0.193,0.07,0.024,0.008
0.141,0.216,0.075,-0.179,0.033,0.145,0.11,0.673,0.249,0.101,0.052,0.021
0.151,0.273,0.122,-0.212,0.014,0.197,0.101,0.729,0.326,0.155,0.088,0.062
0.192,0.332,0.14,-0.262,0.026,0.236,0.088,0.785,0.426,0.235,0.142,0.103
0.214,0.404,0.19,-0.31,0.012,0.297,0.076,0.81,0.527,0.317,0.211,0.16
0.239,0.479,0.24,-0.359,-0.001,0.359,0.058,0.807,0.628,0.4,0.261,0.201
0.267,0.541,0.274,-0.404,-0.003,0.407,0.025,0.791,0.729,0.486,0.328,0.255
0.279,0.574,0.294,-0.426,-0.008,0.434,-0.01,0.733,0.777,0.551,0.387,0.311
0.293,0.578,0.285,-0.436,0.004,0.431,-0.016,0.613,0.752,0.563,0.381,0.306
0.263,0.509,0.246,-0.386,0.008,0.378,-0.006,0.466,0.656,0.497,0.345,0.282
0.204,0.376,0.171,-0.29,0.016,0.273,-0.006,0.334,0.485,0.364,0.273,0.224
0.139,0.25,0.112,-0.195,0.013,0.181,0.013,0.221,0.29,0.212,0.16,0.14
0.081,0.144,0.063,-0.113,0.009,0.103,0.039,0.136,0.114,0.071,0.065,0.052
0.051,0.07,0.019,-0.061,0.016,0.044,0.041,0.086,0.012,-0.024,0.003,-0.013
0.021,0.027,0.005,-0.024,0.008,0.016,0.039,0.06,-0.048,-0.077,-0.053,-0.046
0.019,-0.002,-0.021,-0.009,0.02,-0.011,0.041,0.051,-0.103,-0.114,-0.082,-0.071
0.046,-0.013,-0.058,-0.016,0.052,-0.035,0.059,0.048,-0.123,-0.131,-0.085,-0.077
0.036,-0.022,-0.058,-0.007,0.047,-0.04,0.067,0.045,-0.119,-0.13,-0.085,-0.08
0.028,-0.025,-0.054,-0.001,0.042,-0.04,0.063,0.042,-0.12,-0.13,-0.087,-0.08
0.025,-0.025,-0.051,0.0,0.038,-0.037,0.066,0.04,-0.12,-0.13,-0.091,-0.079
0.023,-0.024,-0.047,0.001,0.035,-0.035,0.064,0.042,-0.12,-0.13,-0.09,-0.082
0.01,-0.033,-0.043,0.012,0.027,-0.038,0.066,0.053,-0.12,-0.13,-0.09,-0.081
-0.005,-0.042,-0.036,0.024,0.016,-0.039,0.069,0.059,-0.12,-0.13,-0.09,-0.08
-0.01,-0.039,-0.029,0.025,0.009,-0.034,0.07,0.06,-0.12,-0.13,-0.09,-0.08
-0.019,-0.041,-0.021,0.03,0.001,-0.031,0.07,0.067,-0.12,-0.13,-0.09,-0.08
0.013,-0.04,-0.053,0.014,0.033,-0.046,0.07,0.065,-0.121,-0.13,-0.09,-0.08
0.027,-0.04,-0.067,0.007,0.047,-0.053,0.07,0.065,-0.119,-0.129,-0.092,-0.08
0.011,-0.043,-0.055,0.016,0.033,-0.049,0.068,0.063,-0.125,-0.135,-0.095,-0.08
0.007,-0.048,-0.056,0.021,0.032,-0.052,0.065,0.059,-0.135,-0.144,-0.095,-0.08
-0.002,-0.049,-0.048,0.026,0.023,-0.048,0.062,0.061,-0.145,-0.145,-0.098,-0.08
0.001,-0.045,-0.046,0.022,0.024,-0.045,0.059,0.056,-0.144,-0.145,-0.1,-0.08
0.015,-0.046,-0.06,0.016,0.038,-0.053,0.056,0.055,-0.139,-0.145,-0.1,-0.08
0.028,-0.042,-0.071,0.007,0.05,-0.056,0.054,0.055,-0.139,-0.145,-0.097,-0.08
0.03,-0.04,-0.069,0.005,0.049,-0.055,0.05,0.05,-0.131,-0.145,-0.094,-0.08
0.031,-0.04,-0.071,0.005,0.051,-0.056,0.05,0.05,-0.159,-0.148,-0.095,-0.08
0.031,-0.044,-0.075,0.007,0.053,-0.059,0.049,0.048,-0.183,-0.15,-0.094,-0.08
0.014,-0.062,-0.075,0.025,0.045,-0.068,0.044,0.045,-0.172,-0.149,-0.096,-0.08
0.001,-0.071,-0.072,0.035,0.037,-0.072,0.046,0.042,-0.17,-0.15,-0.093,-0.08
0.001,-0.069,-0.07,0.034,0.035,-0.069,0.042,0.04,-0.165,-0.149,-0.091,-0.08
-0.003,-0.073,-0.07,0.038,0.034,-0.071,0.037,0.037,-0.16,-0.151,-0.087,-0.079
-0.005,-0.075,-0.07,0.04,0.033,-0.072,0.031,0.034,-0.157,-0.155,-0.085,-0.086
-0.005,-0.075,-0.069,0.04,0.032,-0.071,0.027,0.039,-0.154,-0.155,-0.082,-0.092
-0.004,-0.075,-0.071,0.04,0.034,-0.073,0.019,0.04,-0.156,-0.155,-0.079,-0.087
-0.001,-0.075,-0.074,0.038,0.037,-0.074,0.016,0.04,-0.154,-0.155,-0.096,-0.085
0.008,-0.075,-0.083,0.034,0.046,-0.079,0.05,0.04,-0.156,-0.155,-0.101,-0.081
0.018,-0.075,-0.093,0.029,0.056,-0.084,0.063,0.039,-0.153,-0.155,-0.096,-0.079
0.016,-0.074,-0.09,0.029,0.053,-0.081,0.058,0.035,-0.15,-0.155,-0.094,-0.084
0.005,-0.077,-0.081,0.036,0.044,-0.079,0.061,0.035,-0.15,-0.155,-0.091,-0.085
0.01,-0.072,-0.082,0.031,0.047,-0.077,0.059,0.035,-0.15,-0.155,-0.089,-0.085
0.012,-0.081,-0.092,0.035,0.052,-0.086,0.061,0.035,-0.15,-0.155,-0.086,-0.085
0.002,-0.088,-0.089,0.043,0.046,-0.088,0.054,0.035,-0.15,-0.154,-0.083,-0.085
0.007,-0.076,-0.084,0.035,0.046,-0.08,0.052,0.031,-0.153,-0.149,-0.08,-0.084
-0.003,-0.082,-0.079,0.043,0.038,-0.08,0.045,0.03,-0.155,-0.143,-0.078,-0.08
-0.012,-0.085,-0.073,0.048,0.031,-0.079,0.046,0.03,-0.155,-0.14,-0.073,-0.08
-0.013,-0.08,-0.067,0.047,0.027,-0.073,0.071,0.03,-0.155,-0.135,-0.081,-0.08
-0.014,-0.077,-0.063,0.046,0.025,-0.07,0.069,0.03,-0.155,-0.13,-0.096,-0.08
0.011,-0.074,-0.086,0.032,0.049,-0.08,0.059,0.031,-0.155,-0.138,-0.09,-0.08
0.021,-0.07,-0.09,0.024,0.056,-0.08,0.055,0.035,-0.155,-0.141,-0.085,-0.076
0.009,-0.074,-0.084,0.033,0.046,-0.079,0.042,0.034,-0.155,-0.139,-0.082,-0.075
-0.004,-0.087,-0.083,0.045,0.04,-0.084,0.047,0.038,-0.155,-0.14,-0.075,-0.075
-0.005,-0.081,-0.077,0.043,0.036,-0.079,0.064,0.041,-0.155,-0.14,-0.08,-0.07
-0.001,-0.077,-0.076,0.039,0.038,-0.076,0.067,0.041,-0.156,-0.141,-0.088,-0.071
-0.005,-0.073,-0.067,0.039,0.031,-0.07,0.064,0.044,-0.152,-0.137,-0.083,-0.069
0.012,-0.067,-0.079,0.028,0.046,-0.073,0.067,0.047,-0.146,-0.134,-0.078,-0.064
0.024,-0.065,-0.089,0.021,0.057,-0.077,0.068,0.047,-0.143,-0.136,-0.075,-0.061
-0.012,-0.064,-0.052,0.038,0.02,-0.058,0.1,0.058,-0.137,-0.133,-0.07,-0.057
-0.025,-0.066,-0.041,0.046,0.008,-0.053,0.137,0.076,-0.136,-0.129,-0.067,-0.054
0.012,-0.063,-0.075,0.026,0.044,-0.069,0.13,0.087,-0.132,-0.123,-0.063,-0.049
0.016,-0.067,-0.083,0.026,0.05,-0.075,0.127,0.081,-0.129,-0.119,-0.06,-0.054
0.015,-0.062,-0.077,0.023,0.046,-0.069,0.078,0.066,-0.129,-0.116,-0.055,-0.055
0.035,-0.076,-0.111,0.02,0.073,-0.093,0.032,0.038,-0.12,-0.108,-0.056,-0.056
0.022,-0.087,-0.109,0.033,0.066,-0.098,0.046,0.05,-0.137,-0.113,-0.067,-0.062
0.004,-0.082,-0.086,0.04,0.046,-0.084,0.037,0.026,-0.128,-0.121,-0.067,-0.058
-0.005,-0.089,-0.085,0.047,0.041,-0.087,0.065,0.033,-0.149,-0.144,-0.079,-0.072
-0.011,-0.077,-0.066,0.044,0.028,-0.071,0.041,0.02,-0.141,-0.126,-0.071,-0.07
-0.012,-0.107,-0.095,0.06,0.041,-0.101,0.054,0.0,-0.163,-0.143,-0.086,-0.086
0.014,-0.096,-0.11,0.041,0.062,-0.103,0.038,0.026,-0.143,-0.128,-0.076,-0.08
-0.004,-0.129,-0.124,0.067,0.06,-0.126,0.095,0.049,-0.141,-0.159,-0.112,-0.111
-0.001,-0.117,-0.116,0.06,0.058,-0.116,0.261,0.542,-0.099,-0.209,-0.168,-0.175
0.222,0.125,-0.098,-0.174,0.16,0.014,0.025,0.008,0.362,0.162,0.099,0.048
0.357,0.886,0.529,-0.622,-0.086,0.707,-0.287,-2.038,1.195,1.04,0.815,0.674
0.303,1.667,1.364,-0.985,-0.53,1.515,-0.969,-3.307,2.177,2.005,1.627,1.354
0.09,0.921,0.831,-0.506,-0.371,0.876,-1.434,-2.779,1.123,1.217,1.125,0.986
-0.155,-0.107,0.049,0.131,-0.102,-0.029,-0.802,-1.314,-0.521,-0.291,0.015,0.086
-0.076,-0.107,-0.031,0.091,-0.022,-0.068,-0.218,-0.327,-0.258,-0.314,-0.112,-0.082
-0.004,-0.06,-0.057,0.032,0.027,-0.058,-0.003,0.035,-0.128,-0.191,-0.066,-0.061
-0.024,-0.079,-0.054,0.052,0.015,-0.066,0.063,0.132,-0.167,-0.225,-0.092,-0.079
0.015,-0.065,-0.08,0.025,0.048,-0.072,0.084,0.179,-0.115,-0.172,-0.074,-0.062
0.021,-0.075,-0.096,0.027,0.059,-0.085,0.12,0.239,-0.155,-0.191,-0.095,-0.078
0.009,-0.077,-0.087,0.034,0.048,-0.082,0.116,0.264,-0.11,-0.145,-0.073,-0.063
0.002,-0.085,-0.087,0.041,0.045,-0.085,0.136,0.287,-0.131,-0.146,-0.08,-0.069
0.009,-0.069,-0.078,0.03,0.044,-0.073,0.135,0.288,-0.075,-0.114,-0.056,-0.062
0.009,-0.068,-0.077,0.03,0.044,-0.073,0.144,0.312,-0.098,-0.097,-0.053,-0.062
0.013,-0.057,-0.07,0.022,0.042,-0.063,0.162,0.332,-0.079,-0.086,-0.043,-0.06
0.018,-0.051,-0.069,0.017,0.044,-0.06,0.171,0.349,-0.044,-0.074,-0.034,-0.054
0.024,-0.039,-0.062,0.008,0.044,-0.051,0.17,0.373,-0.011,-0.047,-0.026,-0.04
0.041,-0.01,-0.051,-0.015,0.046,-0.03,0.169,0.407,0.021,-0.029,-0.014,-0.031
0.049,0.013,-0.036,-0.03,0.042,-0.011,0.171,0.437,0.033,-0.015,-0.005,-0.024
0.052,0.023,-0.029,-0.038,0.04,-0.003,0.175,0.468,0.068,0.008,0.019,-0.012
0.075,0.045,-0.029,-0.06,0.052,0.008,0.174,0.499,0.09,0.028,0.033,0.007
0.076,0.071,-0.005,-0.073,0.04,0.033,0.183,0.552,0.135,0.058,0.05,0.029
0.07,0.091,0.021,-0.081,0.024,0.056,0.192,0.613,0.179,0.083,0.068,0.028
0.08,0.132,0.052,-0.106,0.014,0.092,0.189,0.671,0.229,0.119,0.089,0.049
0.095,0.189,0.094,-0.143,0.0,0.142,0.191,0.747,0.303,0.173,0.122,0.082
0.123,0.243,0.12,-0.183,0.001,0.181,0.189,0.814,0.379,0.232,0.162,0.111
0.153,0.304,0.15,-0.229,0.001,0.227,0.191,0.871,0.47,0.306,0.216,0.158
0.18,0.387,0.207,-0.284,-0.013,0.297,0.178,0.908,0.562,0.386,0.274,0.207
0.204,0.452,0.248,-0.328,-0.022,0.35,0.147,0.918,0.652,0.468,0.34,0.257
0.242,0.514,0.272,-0.378,-0.016,0.393,0.122,0.876,0.729,0.553,0.4,0.312
0.266,0.549,0.284,-0.408,-0.009,0.416,0.099,0.776,0.765,0.602,0.449,0.36
0.246,0.512,0.267,-0.379,-0.011,0.389,0.076,0.639,0.743,0.609,0.462,0.384
0.226,0.454,0.228,-0.34,-0.001,0.341,0.07,0.465,0.629,0.536,0.408,0.338
0.17,0.335,0.165,-0.252,0.002,0.249,0.07,0.312,0.458,0.394,0.316,0.246
0.108,0.181,0.073,-0.145,0.017,0.127,0.068,0.189,0.278,0.252,0.215,0.169
0.079,0.084,0.005,-0.082,0.036,0.045,0.064,0.111,0.138,0.127,0.125,0.097
0.005,0.004,-0.001,-0.004,0.003,0.001,0.065,0.065,0.049,0.048,0.051,0.041
-0.031,-0.052,-0.021,0.042,-0.005,-0.037,0.062,0.029,-0.018,-0.001,0.016,-0.003
-0.01,-0.066,-0.056,0.039,0.023,-0.06,0.058,0.028,-0.05,-0.041,0.014,-0.029
0.003,-0.069,-0.072,0.033,0.037,-0.07,0.058,0.024,-0.068,-0.059,0.008,-0.03
-0.014,-0.081,-0.067,0.048,0.027,-0.073,0.046,0.021,-0.076,-0.056,0.005,-0.03
-0.011,-0.092,-0.081,0.052,0.035,-0.086,0.065,0.016,-0.079,-0.055,0.002,-0.03
-0.016,-0.087,-0.071,0.052,0.028,-0.079,0.088,0.016,-0.081,-0.054,-0.003,-0.03
-0.04,-0.085,-0.045,0.063,0.003,-0.065,0.077,0.038,-0.079,-0.051,-0.004,-0.03
-0.016,-0.082,-0.065,0.049,0.025,-0.073,0.075,0.045,-0.081,-0.048,-0.014,-0.03
-0.024,-0.079,-0.056,0.052,0.016,-0.067,0.071,0.045,-0.079,-0.057,-0.015,-0.03
-0.027,-0.084,-0.057,0.055,0.016,-0.07,0.063,0.05,-0.084,-0.076,-0.028,-0.031
-0.032,-0.086,-0.053,0.059,0.011,-0.069,0.073,0.05,-0.086,-0.075,-0.043,-0.028
-0.025,-0.089,-0.064,0.057,0.02,-0.077,0.081,0.047,-0.084,-0.074,-0.036,-0.034
-0.015,-0.092,-0.077,0.054,0.031,-0.084,0.08,0.043,-0.087,-0.076,-0.036,-0.047
-0.041,-0.095,-0.053,0.068,0.007,-0.074,0.075,0.041,-0.081,-0.074,-0.031,-0.044
-0.028,-0.097,-0.069,0.063,0.02,-0.082,0.075,0.038,-0.102,-0.078,-0.03,-0.047
-0.023,-0.1,-0.077,0.062,0.027,-0.088,0.094,0.035,-0.124,-0.08,-0.026,-0.051
-0.021,-0.103,-0.082,0.062,0.031,-0.092,0.096,0.034,-0.117,-0.08,-0.02,-0.048
-0.029,-0.105,-0.076,0.067,0.024,-0.09,0.086,0.025,-0.13,-0.093,-0.036,-0.057
-0.029,-0.109,-0.08,0.069,0.026,-0.094,0.081,0.016,-0.141,-0.102,-0.045,-0.065
-0.034,-0.11,-0.077,0.072,0.021,-0.093,0.072,0.008,-0.133,-0.097,-0.037,-0.055
-0.03,-0.106,-0.076,0.069,0.024,-0.091,0.066,-0.002,-0.13,-0.095,-0.032,-0.049
-0.014,-0.104,-0.09,0.059,0.038,-0.097,0.06,-0.016,-0.126,-0.092,-0.027,-0.043
-0.021,-0.101,-0.08,0.061,0.029,-0.09,0.059,-0.021,-0.118,-0.087,-0.019,-0.034
-0.026,-0.098,-0.072,0.062,0.023,-0.085,0.055,-0.02,-0.133,-0.099,-0.038,-0.058
-0.034,-0.095,-0.061,0.065,0.014,-0.078,0.053,-0.017,-0.148,-0.111,-0.058,-0.073
-0.028,-0.095,-0.067,0.062,0.02,-0.081,0.049,-0.015,-0.141,-0.11,-0.054,-0.064
-0.038,-0.107,-0.069,0.073,0.015,-0.087,0.049,-0.015,-0.14,-0.108,-0.055,-0.064
-0.041,-0.11,-0.07,0.076,0.015,-0.09,0.063,-0.019,-0.136,-0.104,-0.055,-0.058
-0.04,-0.11,-0.07,0.075,0.015,-0.09,0.066,-0.031,-0.135,-0.105,-0.055,-0.055
-0.032,-0.118,-0.087,0.075,0.028,-0.102,0.064,-0.036,-0.131,-0.101,-0.052,-0.055
-0.045,-0.12,-0.075,0.083,0.015,-0.098,0.065,-0.056,-0.132,-0.101,-0.049,-0.055
-0.057,-0.12,-0.064,0.089,0.004,-0.092,0.065,-0.067,-0.142,-0.107,-0.05,-0.055
-0.04,-0.125,-0.085,0.082,0.023,-0.104,0.064,-0.064,-0.139,-0.104,-0.045,-0.055
-0.058,-0.125,-0.068,0.092,0.006,-0.096,0.059,-0.066,-0.136,-0.101,-0.045,-0.055
-0.047,-0.123,-0.077,0.085,0.015,-0.1,0.056,-0.064,-0.133,-0.098,-0.046,-0.056
-0.038,-0.12,-0.082,0.079,0.022,-0.101,0.052,-0.066,-0.13,-0.095,-0.05,-0.06
-0.039,-0.117,-0.078,0.078,0.02,-0.098,0.049,-0.058,-0.131,-0.096,-0.052,-0.062
-0.034,-0.115,-0.081,0.074,0.024,-0.098,0.044,-0.074,-0.137,-0.11,-0.055,-0.065
-0.037,-0.111,-0.074,0.075,0.019,-0.092,0.043,-0.093,-0.146,-0.116,-0.059,-0.068
-0.034,-0.11,-0.076,0.073,0.021,-0.092,0.058,-0.088,-0.146,-0.114,-0.06,-0.07
-0.034,-0.106,-0.072,0.071,0.019,-0.089,0.061,-0.093,-0.145,-0.119,-0.064,-0.074
-0.042,-0.105,-0.063,0.073,0.011,-0.084,0.059,-0.095,-0.145,-0.12,-0.065,-0.075
-0.032,-0.105,-0.073,0.068,0.021,-0.088,0.056,-0.095,-0.14,-0.12,-0.065,-0.075
-0.014,-0.1,-0.086,0.057,0.036,-0.093,0.055,-0.092,-0.139,-0.12,-0.065,-0.075
-0.045,-0.1,-0.055,0.073,0.005,-0.078,0.054,-0.089,-0.141,-0.12,-0.065,-0.075
-0.051,-0.098,-0.048,0.075,-0.001,-0.073,0.05,-0.09,-0.141,-0.119,-0.064,-0.074
-0.022,-0.093,-0.072,0.058,0.025,-0.082,0.047,-0.09,-0.139,-0.115,-0.06,-0.07
-0.028,-0.084,-0.056,0.056,0.014,-0.07,0.045,-0.09,-0.14,-0.115,-0.06,-0.07
-0.057,-0.097,-0.04,0.077,-0.008,-0.068,0.042,-0.091,-0.14,-0.112,-0.058,-0.067
-0.065,-0.117,-0.052,0.091,-0.006,-0.084,0.038,-0.095,-0.14,-0.109,-0.054,-0.065
-0.071,-0.109,-0.038,0.09,-0.017,-0.073,0.05,-0.095,-0.14,-0.111,-0.056,-0.065
-0.063,-0.106,-0.043,0.085,-0.01,-0.074,0.062,-0.096,-0.14,-0.107,-0.052,-0.062
-0.012,-0.102,-0.09,0.057,0.039,-0.095,0.06,-0.099,-0.142,-0.105,-0.05,-0.059
-0.022,-0.097,-0.074,0.06,0.026,-0.085,0.06,-0.099,-0.138,-0.11,-0.059,-0.057
-0.033,-0.092,-0.059,0.062,0.013,-0.075,0.062,-0.094,-0.145,-0.109,-0.06,-0.053
-0.009,-0.076,-0.066,0.042,0.029,-0.071,0.056,-0.079,-0.145,-0.104,-0.057,-0.051
-0.044,-0.065,-0.02,0.055,-0.012,-0.042,0.078,-0.048,-0.135,-0.099,-0.054,-0.049
-0.041,-0.051,-0.01,0.046,-0.016,-0.03,0.128,-0.026,-0.143,-0.089,-0.051,-0.051
-0.038,-0.063,-0.025,0.05,-0.006,-0.043,0.142,-0.012,-0.143,-0.083,-0.049,-0.049
-0.065,-0.092,-0.027,0.079,-0.019,-0.059,0.095,-0.012,-0.146,-0.076,-0.05,-0.05
-0.033,-0.089,-0.056,0.061,0.012,-0.073,0.03,-0.042,-0.152,-0.079,-0.051,-0.051
-0.01,-0.089,-0.079,0.05,0.034,-0.084,0.016,-0.08,-0.147,-0.093,-0.048,-0.048
-0.022,-0.092,-0.071,0.057,0.025,-0.081,0.025,-0.061,-0.162,-0.107,-0.053,-0.07
-0.029,-0.083,-0.054,0.056,0.013,-0.068,0.013,-0.078,-0.145,-0.097,-0.046,-0.073
-0.042,-0.092,-0.05,0.067,0.005,-0.071,0.028,-0.065,-0.166,-0.114,-0.054,-0.083
-0.065,-0.105,-0.041,0.085,-0.011,-0.073,0.011,-0.07,-0.143,-0.103,-0.048,-0.075
-0.079,-0.126,-0.047,0.103,-0.016,-0.086,0.029,-0.077,-0.165,-0.114,-0.068,-0.09
-0.075,-0.101,-0.026,0.088,-0.024,-0.063,0.01,-0.044,-0.148,-0.116,-0.065,-0.08
-0.069,-0.143,-0.074,0.106,0.003,-0.108,0.073,-0.023,-0.14,-0.133,-0.085,-0.099
-0.034,-0.118,-0.084,0.076,0.025,-0.1,0.221,0.47,-0.106,-0.169,-0.148,-0.165
0.174,0.136,-0.038,-0.155,0.106,0.049,0.015,-0.08,0.35,0.17,0.105,0.054
0.345,0.88,0.535,-0.613,-0.095,0.707,-0.281,-2.125,1.126,1.022,0.823,0.676
0.302,1.662,1.359,-0.982,-0.529,1.511,-0.99,-3.346,2.085,1.987,1.631,1.39
0.085,0.928,0.843,-0.507,-0.379,0.886,-1.478,-2.842,1.11,1.238,1.139,1.005
-0.174,-0.077,0.096,0.125,-0.135,0.01,-0.844,-1.388,-0.495,-0.238,0.043,0.109
-0.13,-0.098,0.032,0.114,-0.081,-0.033,-0.231,-0.372,-0.25,-0.265,-0.085,-0.021
-0.059,-0.08,-0.021,0.07,-0.019,-0.05,-0.008,-0.035,-0.135,-0.155,-0.053,-0.03
-0.081,-0.082,-0.001,0.082,-0.04,-0.041,0.054,0.058,-0.193,-0.191,-0.074,-0.06
-0.024,-0.081,-0.057,0.053,0.016,-0.068,0.077,0.107,-0.141,-0.143,-0.047,-0.059
-0.023,-0.085,-0.062,0.054,0.019,-0.073,0.117,0.154,-0.178,-0.171,-0.066,-0.067
-0.021,-0.066,-0.044,0.044,0.012,-0.055,0.108,0.17,-0.124,-0.131,-0.046,-0.049
-0.016,-0.068,-0.052,0.042,0.018,-0.06,0.122,0.209,-0.144,-0.131,-0.057,-0.058
-0.019,-0.052,-0.033,0.036,0.007,-0.042,0.12,0.229,-0.098,-0.1,-0.041,-0.04
-0.012,-0.051,-0.038,0.032,0.013,-0.044,0.125,0.24,-0.093,-0.096,-0.044,-0.056
-0.014,-0.037,-0.023,0.026,0.004,-0.03,0.125,0.252,-0.073,-0.081,-0.037,-0.041
-0.003,-0.032,-0.029,0.018,0.013,-0.03,0.14,0.281,-0.046,-0.063,-0.027,-0.04
-0.026,-0.02,0.006,0.023,-0.016,-0.007,0.148,0.305,-0.025,-0.041,-0.019,-0.045
-0.043,-0.008,0.036,0.025,-0.039,0.014,0.142,0.338,-0.008,-0.012,-0.006,-0.016
-0.019,0.009,0.028,0.005,-0.023,0.018,0.141,0.37,0.024,-0.003,0.005,-0.015
-0.029,0.02,0.049,0.005,-0.04,0.034,0.141,0.41,0.055,0.006,0.03,-0.009
-0.025,0.041,0.066,-0.008,-0.046,0.053,0.163,0.459,0.072,0.036,0.041,0.006
0.007,0.074,0.067,-0.041,-0.03,0.071,0.171,0.501,0.105,0.067,0.048,0.026
0.021,0.101,0.08,-0.061,-0.03,0.09,0.177,0.561,0.15,0.09,0.066,0.039
0.038,0.14,0.103,-0.089,-0.033,0.121,0.181,0.632,0.204,0.127,0.082,0.052
0.056,0.193,0.137,-0.125,-0.04,0.165,0.172,0.694,0.261,0.165,0.117,0.084
0.089,0.253,0.164,-0.171,-0.038,0.208,0.167,0.76,0.332,0.22,0.155,0.113
0.116,0.312,0.196,-0.214,-0.041,0.254,0.157,0.827,0.419,0.294,0.21,0.165
0.137,0.384,0.247,-0.261,-0.055,0.315,0.151,0.864,0.508,0.378,0.273,0.217
0.18,0.467,0.287,-0.323,-0.054,0.377,0.143,0.869,0.591,0.457,0.33,0.266
0.193,0.529,0.336,-0.361,-0.072,0.432,0.112,0.834,0.665,0.538,0.396,0.323
0.206,0.555,0.35,-0.381,-0.072,0.452,0.075,0.746,0.692,0.589,0.445,0.362
0.244,0.551,0.307,-0.398,-0.032,0.429,0.052,0.6,0.674,0.594,0.456,0.377
0.211,0.478,0.267,-0.345,-0.028,0.372,0.048,0.428,0.594,0.547,0.415,0.345
0.131,0.34,0.209,-0.236,-0.039,0.274,0.053,0.266,0.434,0.414,0.324,0.27
0.067,0.205,0.138,-0.136,-0.035,0.171,0.055,0.137,0.254,0.271,0.215,0.181
0.017,0.088,0.071,-0.052,-0.027,0.079,0.059,0.064,0.136,0.149,0.134,0.111
-0.018,0.007,0.026,0.005,-0.022,0.016,0.06,0.018,0.05,0.061,0.072,0.064
-0.014,-0.028,-0.013,0.021,0.0,-0.02,0.056,-0.01,-0.018,0.014,0.041,0.032
-0.05,-0.066,-0.016,0.059,-0.017,-0.041,0.053,-0.023,-0.054,-0.018,0.024,0.013
-0.094,-0.089,0.005,0.091,-0.049,-0.042,0.049,-0.038,-0.076,-0.034,-0.008,0.003
-0.061,-0.083,-0.022,0.072,-0.019,-0.052,0.046,-0.042,-0.075,-0.048,-0.016,-0.001
-0.055,-0.086,-0.031,0.071,-0.012,-0.058,0.041,-0.034,-0.075,-0.051,-0.015,-0.006
-0.049,-0.094,-0.045,0.072,-0.002,-0.069,0.04,-0.028,-0.075,-0.049,-0.015,-0.01
-0.046,-0.102,-0.056,0.074,0.005,-0.079,0.04,-0.021,-0.075,-0.05,-0.015,-0.014
-0.055,-0.099,-0.043,0.077,-0.006,-0.071,0.039,-0.014,-0.073,-0.05,-0.015,-0.019
-0.056,-0.096,-0.039,0.076,-0.008,-0.067,0.06,-0.009,-0.069,-0.05,-0.012,-0.02
-0.047,-0.092,-0.045,0.07,-0.001,-0.068,0.059,0.004,-0.067,-0.051,-0.009,-0.02
-0.045,-0.088,-0.043,0.067,-0.001,-0.065,0.048,0.009,-0.064,-0.048,-0.011,-0.025
-0.061,-0.086,-0.025,0.074,-0.017,-0.055,0.059,0.002,-0.061,-0.057,-0.009,-0.025
-0.039,-0.078,-0.039,0.059,0.0,-0.058,0.055,-0.003,-0.061,-0.081,-0.013,-0.026
-0.04,-0.091,-0.052,0.066,0.006,-0.071,0.05,-0.009,-0.078,-0.08,-0.029,-0.033
-0.057,-0.099,-0.042,0.079,-0.008,-0.07,0.045,-0.014,-0.087,-0.081,-0.03,-0.039
-0.063,-0.104,-0.04,0.084,-0.011,-0.072,0.038,-0.02,-0.09,-0.086,-0.03,-0.044
-0.081,-0.117,-0.035,0.1,-0.023,-0.076,0.034,-0.035,-0.091,-0.084,-0.03,-0.046
-0.087,-0.115,-0.028,0.101,-0.029,-0.071,0.029,-0.043,-0.089,-0.088,-0.03,-0.049
-0.065,-0.115,-0.05,0.09,-0.007,-0.082,0.03,-0.037,-0.105,-0.09,-0.03,-0.052
-0.048,-0.115,-0.068,0.082,0.011,-0.092,0.028,-0.055,-0.112,-0.09,-0.029,-0.055
-0.052,-0.114,-0.062,0.083,0.006,-0.088,0.023,-0.068,-0.109,-0.09,-0.047,-0.054
-0.062,-0.12,-0.058,0.091,-0.002,-0.089,0.028,-0.063,-0.111,-0.09,-0.057,-0.05
-0.054,-0.117,-0.063,0.085,0.005,-0.09,0.016,-0.066,-0.109,-0.09,-0.054,-0.048
-0.053,-0.11,-0.056,0.082,0.002,-0.083,0.014,-0.064,-0.111,-0.096,-0.056,-0.044
-0.043,-0.107,-0.064,0.075,0.011,-0.085,0.035,-0.065,-0.114,-0.098,-0.054,-0.042
-0.042,-0.095,-0.054,0.069,0.006,-0.074,0.036,-0.076,-0.116,-0.094,-0.056,-0.039
-0.093,-0.12,-0.028,0.106,-0.032,-0.074,0.034,-0.081,-0.117,-0.095,-0.06,-0.045
-0.081,-0.149,-0.068,0.115,-0.006,-0.108,0.031,-0.08,-0.122,-0.095,-0.06,-0.054
-0.066,-0.143,-0.078,0.105,0.006,-0.11,0.029,-0.08,-0.116,-0.095,-0.061,-0.056
-0.082,-0.146,-0.063,0.114,-0.009,-0.104,0.029,-0.08,-0.104,-0.095,-0.065,-0.059
-0.078,-0.145,-0.067,0.112,-0.005,-0.106,0.024,-0.079,-0.123,-0.1,-0.065,-0.061
-0.089,-0.145,-0.056,0.117,-0.016,-0.1,0.021,-0.083,-0.133,-0.105,-0.067,-0.065
-0.086,-0.141,-0.055,0.114,-0.015,-0.098,0.017,-0.085,-0.128,-0.104,-0.071,-0.064
-0.075,-0.139,-0.064,0.108,-0.006,-0.101,0.014,-0.085,-0.131,-0.106,-0.069,-0.059
-0.068,-0.14,-0.072,0.104,0.002,-0.106,0.009,-0.085,-0.13,-0.11,-0.071,-0.061
-0.066,-0.135,-0.069,0.1,0.002,-0.102,0.016,-0.085,-0.13,-0.11,-0.069,-0.057
-0.066,-0.135,-0.07,0.101,0.002,-0.102,0.021,-0.085,-0.131,-0.11,-0.067,-0.055
-0.063,-0.134,-0.072,0.098,0.005,-0.103,0.019,-0.079,-0.128,-0.11,-0.059,-0.054
-0.071,-0.136,-0.064,0.104,-0.003,-0.099,0.02,-0.073,-0.135,-0.11,-0.066,-0.057
-0.06,-0.134,-0.074,0.097,0.007,-0.104,0.02,-0.069,-0.15,-0.11,-0.085,-0.077
-0.052,-0.136,-0.084,0.094,0.017,-0.11,0.02,-0.063,-0.15,-0.11,-0.085,-0.081
-0.058,-0.133,-0.075,0.096,0.009,-0.104,0.024,-0.055,-0.15,-0.11,-0.085,-0.079
-0.059,-0.13,-0.071,0.095,0.007,-0.101,0.025,-0.066,-0.15,-0.111,-0.085,-0.08
-0.08,-0.144,-0.065,0.112,-0.007,-0.104,0.025,-0.076,-0.15,-0.109,-0.085,-0.08
-0.087,-0.146,-0.059,0.116,-0.013,-0.102,0.025,-0.068,-0.149,-0.119,-0.084,-0.079
-0.072,-0.143,-0.071,0.108,0.0,-0.107,0.025,-0.065,-0.145,-0.127,-0.08,-0.075
-0.067,-0.14,-0.073,0.104,0.003,-0.107,0.025,-0.06,-0.143,-0.122,-0.078,-0.075
-0.075,-0.14,-0.065,0.107,-0.005,-0.102,0.024,-0.055,-0.139,-0.12,-0.074,-0.075
-0.076,-0.138,-0.062,0.107,-0.007,-0.1,0.02,-0.052,-0.137,-0.117,-0.072,-0.075
-0.081,-0.134,-0.053,0.108,-0.013,-0.093,0.018,-0.049,-0.133,-0.114,-0.068,-0.074
-0.083,-0.136,-0.053,0.109,-0.014,-0.094,0.015,-0.046,-0.143,-0.118,-0.078,-0.081
-0.07,-0.134,-0.064,0.102,-0.002,-0.099,0.011,-0.043,-0.151,-0.132,-0.087,-0.086
-0.06,-0.136,-0.076,0.098,0.008,-0.106,0.01,-0.04,-0.15,-0.135,-0.084,-0.085
-0.052,-0.134,-0.082,0.093,0.016,-0.108,0.006,-0.04,-0.151,-0.13,-0.085,-0.086
-0.065,-0.139,-0.074,0.102,0.005,-0.106,0.001,-0.047,-0.151,-0.127,-0.081,-0.085
-0.094,-0.158,-0.065,0.126,-0.014,-0.111,-0.006,-0.053,-0.15,-0.123,-0.081,-0.085
-0.098,-0.156,-0.057,0.127,-0.02,-0.106,-0.009,-0.049,-0.146,-0.119,-0.079,-0.081
-0.078,-0.147,-0.07,0.113,-0.004,-0.108,0.006,-0.036,-0.143,-0.115,-0.074,-0.074
-0.068,-0.142,-0.074,0.105,0.003,-0.108,0.039,-0.024,-0.138,-0.108,-0.068,-0.067
-0.066,-0.128,-0.062,0.097,-0.002,-0.095,0.089,-0.014,-0.142,-0.104,-0.065,-0.062
-0.062,-0.122,-0.059,0.092,-0.001,-0.09,0.094,0.004,-0.138,-0.098,-0.06,-0.053
-0.059,-0.107,-0.048,0.084,-0.006,-0.077,0.046,-0.016,-0.141,-0.09,-0.053,-0.052
-0.047,-0.109,-0.062,0.078,0.008,-0.085,-0.007,-0.049,-0.14,-0.101,-0.066,-0.068
-0.052,-0.156,-0.104,0.104,0.026,-0.13,-0.026,-0.067,-0.138,-0.099,-0.081,-0.093
-0.073,-0.165,-0.091,0.119,0.009,-0.128,-0.014,-0.052,-0.15,-0.115,-0.082,-0.103
-0.073,-0.163,-0.09,0.118,0.009,-0.126,-0.026,-0.068,-0.136,-0.119,-0.075,-0.097
-0.093,-0.178,-0.085,0.136,-0.004,-0.131,-0.004,-0.053,-0.166,-0.13,-0.097,-0.112
-0.103,-0.178,-0.075,0.141,-0.014,-0.126,-0.023,-0.075,-0.146,-0.145,-0.095,-0.11
-0.11,-0.194,-0.084,0.152,-0.012,-0.139,0.001,-0.076,-0.189,-0.16,-0.111,-0.126
-0.119,-0.173,-0.054,0.146,-0.033,-0.113,-0.007,-0.049,-0.173,-0.138,-0.109,-0.12
-0.119,-0.232,-0.113,0.175,-0.003,-0.172,0.066,0.012,-0.179,-0.172,-0.144,-0.153
-0.076,-0.201,-0.124,0.139,0.024,-0.162,0.189,0.5,-0.101,-0.181,-0.19,-0.202
0.173,0.083,-0.091,-0.128,0.132,-0.004,-0.052,-0.085,0.376,0.205,0.108,0.049
0.291,0.893,0.601,-0.592,-0.155,0.746,-0.322,-2.065,1.231,1.121,0.881,0.72
0.205,1.58,1.376,-0.893,-0.586,1.478,-0.973,-3.213,2.08,1.98,1.604,1.35
-0.036,0.72,0.756,-0.343,-0.396,0.738,-1.358,-2.633,0.861,1.011,0.963,0.85
-0.272,-0.198,0.073,0.235,-0.172,-0.062,-0.777,-1.247,-0.55,-0.345,-0.071,-0.022
-0.173,-0.201,-0.028,0.187,-0.072,-0.114,-0.252,-0.327,-0.235,-0.281,-0.14,-0.136
-0.136,-0.208,-0.072,0.172,-0.032,-0.14,-0.033,-0.004,-0.19,-0.219,-0.117,-0.125
-0.148,-0.191,-0.044,0.17,-0.052,-0.117,0.002,0.081,-0.212,-0.237,-0.13,-0.136
-0.105,-0.187,-0.082,0.147,-0.012,-0.134,0.027,0.132,-0.181,-0.199,-0.11,-0.124
-0.1,-0.184,-0.084,0.143,-0.008,-0.133,0.062,0.175,-0.208,-0.215,-0.124,-0.136
-0.088,-0.171,-0.083,0.129,-0.002,-0.126,0.056,0.19,-0.158,-0.177,-0.107,-0.123
-0.094,-0.175,-0.081,0.135,-0.007,-0.128,0.068,0.226,-0.171,-0.174,-0.116,-0.129
-0.09,-0.164,-0.074,0.127,-0.008,-0.119,0.064,0.271,-0.128,-0.138,-0.104,-0.119
-0.092,-0.169,-0.077,0.131,-0.007,-0.123,0.084,0.313,-0.128,-0.139,-0.106,-0.12
-0.083,-0.159,-0.076,0.121,-0.003,-0.118,0.097,0.334,-0.112,-0.123,-0.101,-0.115
-0.068,-0.151,-0.083,0.109,0.007,-0.116,0.1,0.359,-0.103,-0.115,-0.094,-0.114
-0.06,-0.137,-0.077,0.099,0.009,-0.107,0.1,0.388,-0.073,-0.099,-0.069,-0.11
-0.057,-0.123,-0.066,0.091,0.005,-0.094,0.099,0.422,-0.048,-0.075,-0.051,-0.102
-0.048,-0.1,-0.051,0.075,0.002,-0.075,0.101,0.452,-0.047,-0.061,-0.045,-0.099
-0.044,-0.077,-0.033,0.061,-0.005,-0.054,0.099,0.482,-0.023,-0.042,-0.035,-0.091
-0.055,-0.058,-0.003,0.057,-0.025,-0.031,0.096,0.525,0.02,-0.024,-0.027,-0.084
-0.055,-0.038,0.017,0.046,-0.035,-0.011,0.095,0.567,0.064,0.003,-0.018,-0.076
-0.037,-0.012,0.025,0.024,-0.031,0.006,0.094,0.61,0.112,0.032,-0.007,-0.058
-0.015,0.034,0.048,-0.01,-0.032,0.041,0.09,0.64,0.164,0.062,0.017,-0.036
0.011,0.071,0.06,-0.041,-0.025,0.065,0.091,0.688,0.235,0.115,0.057,-0.004
0.021,0.115,0.094,-0.069,-0.036,0.104,0.087,0.746,0.311,0.178,0.102,0.026
0.057,0.202,0.145,-0.13,-0.044,0.173,0.071,0.781,0.395,0.244,0.144,0.062
0.095,0.284,0.189,-0.189,-0.048,0.236,0.06,0.807,0.495,0.329,0.217,0.124
0.113,0.345,0.232,-0.229,-0.06,0.288,0.03,0.805,0.578,0.407,0.273,0.17
0.147,0.395,0.249,-0.271,-0.051,0.322,-0.008,0.771,0.659,0.492,0.329,0.228
0.155,0.431,0.276,-0.293,-0.061,0.353,-0.036,0.692,0.685,0.546,0.385,0.274
0.171,0.438,0.266,-0.305,-0.047,0.352,-0.054,0.57,0.67,0.544,0.383,0.268
0.138,0.36,0.222,-0.249,-0.043,0.291,-0.046,0.432,0.581,0.486,0.347,0.236
0.061,0.225,0.164,-0.143,-0.051,0.194,-0.034,0.286,0.412,0.344,0.251,0.16
0.002,0.092,0.09,-0.047,-0.044,0.091,-0.025,0.171,0.233,0.184,0.136,0.066
-0.063,-0.026,0.037,0.044,-0.05,0.006,-0.01,0.103,0.076,0.055,0.044,-0.011
-0.097,-0.106,-0.008,0.101,-0.044,-0.057,0.003,0.058,-0.017,-0.032,-0.021,-0.068
-0.116,-0.144,-0.028,0.131,-0.044,-0.086,0.014,0.039,-0.089,-0.095,-0.069,-0.106
-0.13,-0.172,-0.042,0.151,-0.044,-0.106,0.017,0.041,-0.116,-0.121,-0.095,-0.128
-0.129,-0.197,-0.068,0.164,-0.03,-0.132,0.019,0.038,-0.124,-0.129,-0.101,-0.134
-0.131,-0.193,-0.062,0.162,-0.034,-0.127,0.014,0.035,-0.138,-0.145,-0.108,-0.141
-0.137,-0.201,-0.064,0.169,-0.036,-0.132,0.01,0.034,-0.141,-0.149,-0.112,-0.146
-0.135,-0.22,-0.085,0.178,-0.025,-0.152,0.032,0.037,-0.144,-0.151,-0.115,-0.145
-0.146,-0.215,-0.068,0.181,-0.039,-0.141,0.042,0.04,-0.132,-0.149,-0.11,-0.143
-0.152,-0.21,-0.058,0.181,-0.047,-0.134,0.039,0.043,-0.129,-0.151,-0.11,-0.14
-0.143,-0.204,-0.061,0.173,-0.04,-0.132,0.041,0.046,-0.119,-0.149,-0.11,-0.139
-0.14,-0.199,-0.059,0.169,-0.04,-0.129,0.04,0.049,-0.117,-0.153,-0.11,-0.143
-0.133,-0.194,-0.06,0.164,-0.036,-0.127,0.04,0.05,-0.142,-0.153,-0.109,-0.156
-0.124,-0.198,-0.075,0.161,-0.024,-0.136,0.035,0.044,-0.146,-0.15,-0.114,-0.162
-0.127,-0.21,-0.083,0.169,-0.022,-0.146,0.035,0.038,-0.147,-0.165,-0.126,-0.165
-0.137,-0.215,-0.078,0.176,-0.029,-0.146,0.035,0.034,-0.151,-0.173,-0.133,-0.17
-0.136,-0.219,-0.083,0.177,-0.026,-0.151,0.034,0.027,-0.151,-0.175,-0.138,-0.17
-0.143,-0.218,-0.075,0.181,-0.034,-0.146,0.036,0.022,-0.155,-0.181,-0.142,-0.174
-0.128,-0.214,-0.085,0.171,-0.021,-0.149,0.032,0.017,-0.162,-0.187,-0.146,-0.175
-0.106,-0.208,-0.101,0.157,-0.003,-0.155,0.026,0.013,-0.171,-0.193,-0.149,-0.177
-0.133,-0.225,-0.092,0.179,-0.02,-0.158,0.021,0.007,-0.169,-0.195,-0.152,-0.181
-0.147,-0.237,-0.09,0.192,-0.028,-0.163,0.016,0.004,-0.171,-0.195,-0.154,-0.179
-0.15,-0.234,-0.084,0.192,-0.032,-0.159,0.01,-0.002,-0.169,-0.195,-0.164,-0.175
-0.154,-0.235,-0.082,0.195,-0.035,-0.158,0.005,-0.004,-0.174,-0.195,-0.171,-0.175
-0.161,-0.235,-0.073,0.198,-0.044,-0.154,0.001,-0.001,-0.187,-0.195,-0.165,-0.173
-0.166,-0.245,-0.079,0.206,-0.043,-0.162,-0.002,-0.004,-0.184,-0.2,-0.163,-0.17
-0.145,-0.246,-0.101,0.196,-0.022,-0.173,-0.005,-0.006,-0.185,-0.2,-0.158,-0.169
-0.149,-0.244,-0.095,0.197,-0.026,-0.169,-0.008,-0.004,-0.185,-0.201,-0.155,-0.176
-0.156,-0.245,-0.089,0.201,-0.033,-0.167,-0.011,-0.008,-0.186,-0.206,-0.152,-0.189
-0.157,-0.245,-0.088,0.201,-0.034,-0.166,-0.008,-0.01,-0.205,-0.204,-0.149,-0.19
-0.166,-0.245,-0.079,0.205,-0.043,-0.162,-0.002,-0.01,-0.21,-0.208,-0.15,-0.195
-0.165,-0.246,-0.08,0.206,-0.042,-0.162,0.002,-0.01,-0.204,-0.21,-0.15,-0.194
-0.16,-0.254,-0.094,0.208,-0.033,-0.174,0.006,-0.01,-0.202,-0.21,-0.149,-0.189
-0.159,-0.255,-0.097,0.208,-0.031,-0.176,0.011,-0.01,-0.197,-0.214,-0.152,-0.191
-0.162,-0.254,-0.092,0.209,-0.035,-0.173,0.015,-0.015,-0.195,-0.215,-0.154,-0.189
-0.164,-0.255,-0.092,0.21,-0.036,-0.173,0.015,-0.015,-0.195,-0.214,-0.158,-0.191
-0.166,-0.254,-0.088,0.21,-0.039,-0.17,0.015,-0.015,-0.194,-0.209,-0.16,-0.189
-0.163,-0.256,-0.094,0.21,-0.034,-0.175,0.015,-0.015,-0.195,-0.203,-0.164,-0.194
-0.155,-0.26,-0.105,0.208,-0.025,-0.182,0.015,-0.015,-0.194,-0.198,-0.171,-0.195
-0.154,-0.26,-0.105,0.207,-0.024,-0.182,0.015,-0.013,-0.195,-0.192,-0.176,-0.207
-0.158,-0.262,-0.104,0.21,-0.026,-0.183,0.013,-0.009,-0.197,-0.187,-0.185,-0.272
-0.16,-0.265,-0.105,0.213,-0.027,-0.185,0.008,-0.01,-0.198,-0.177,-0.187,-0.335
-0.16,-0.265,-0.105,0.213,-0.027,-0.185,0.005,-0.006,-0.194,-0.167,-0.184,-0.362
-0.157,-0.262,-0.105,0.21,-0.026,-0.183,0.002,-0.005,-0.188,-0.157,-0.186,-0.369
-0.152,-0.258,-0.106,0.206,-0.023,-0.182,-0.003,-0.004,-0.215,-0.149,-0.185,-0.383
-0.153,-0.256,-0.103,0.205,-0.025,-0.179,-0.004,0.001,-0.225,-0.144,-0.186,-0.398
-0.137,-0.251,-0.114,0.194,-0.011,-0.182,0.005,0.006,-0.205,-0.138,-0.183,-0.394
-0.129,-0.249,-0.12,0.189,-0.004,-0.185,0.022,0.008,-0.195,-0.132,-0.18,-0.392
-0.139,-0.242,-0.103,0.191,-0.017,-0.173,0.031,0.017,-0.185,-0.128,-0.178,-0.39
-0.132,-0.236,-0.104,0.184,-0.014,-0.17,0.058,0.036,-0.179,-0.122,-0.174,-0.389
-0.118,-0.23,-0.111,0.174,-0.003,-0.171,0.093,0.055,-0.179,-0.119,-0.172,-0.396
-0.104,-0.221,-0.117,0.163,0.007,-0.168,0.083,0.054,-0.172,-0.114,-0.168,-0.403
-0.13,-0.225,-0.095,0.178,-0.017,-0.16,0.053,0.045,-0.173,-0.12,-0.175,-0.406
-0.141,-0.228,-0.086,0.185,-0.027,-0.157,-0.024,0.021,-0.168,-0.122,-0.174,-0.409
-0.118,-0.253,-0.135,0.186,0.009,-0.194,-0.041,-0.031,-0.166,-0.122,-0.177,-0.41
-0.148,-0.264,-0.116,0.206,-0.015,-0.19,-0.007,-0.028,-0.168,-0.132,-0.182,-0.41
-0.168,-0.266,-0.099,0.217,-0.034,-0.183,-0.028,-0.044,-0.157,-0.122,-0.179,-0.415
-0.171,-0.263,-0.092,0.218,-0.039,-0.178,-0.021,-0.027,-0.182,-0.147,-0.21,-0.444
-0.171,-0.266,-0.095,0.219,-0.037,-0.181,-0.033,-0.041,-0.171,-0.15,-0.212,-0.449
-0.192,-0.29,-0.099,0.242,-0.046,-0.194,-0.005,-0.035,-0.198,-0.173,-0.227,-0.459
-0.189,-0.27,-0.081,0.23,-0.053,-0.176,-0.011,-0.015,-0.156,-0.146,-0.217,-0.455
-0.165,-0.317,-0.153,0.241,-0.006,-0.235,0.102,0.116,-0.194,-0.186,-0.254,-0.484
-0.117,-0.273,-0.156,0.195,0.02,-0.214,0.149,0.56,-0.057,-0.175,-0.274,-0.505
0.129,0.064,-0.065,-0.097,0.097,-0.001,-0.135,-0.17,0.513,0.327,0.104,-0.195
0.185,0.974,0.789,-0.58,-0.302,0.881,-0.405,-2.12,1.526,1.371,0.954,0.527
0.025,1.495,1.47,-0.76,-0.723,1.482,-0.999,-3.153,2.119,2.028,1.51,1.002
-0.187,0.503,0.69,-0.158,-0.439,0.596,-1.213,-2.398,0.512,0.733,0.662,0.344
-0.343,-0.329,0.014,0.336,-0.179,-0.157,-0.634,-1.035,-0.613,-0.458,-0.249,-0.414
-0.179,-0.262,-0.084,0.221,-0.047,-0.173,-0.208,-0.266,-0.206,-0.259,-0.233,-0.425
-0.126,-0.22,-0.093,0.173,-0.016,-0.156,-0.037,0.037,-0.228,-0.242,-0.237,-0.428
-0.159,-0.257,-0.098,0.208,-0.03,-0.177,0.006,0.11,-0.188,-0.221,-0.23,-0.439
-0.128,-0.262,-0.134,0.195,0.003,-0.197,0.032,0.162,-0.187,-0.19,-0.215,-0.435
-0.14,-0.246,-0.105,0.193,-0.017,-0.175,0.059,0.204,-0.187,-0.187,-0.221,-0.454
-0.123,-0.238,-0.114,0.181,-0.004,-0.176,0.066,0.219,-0.155,-0.15,-0.201,-0.443
-0.138,-0.23,-0.092,0.185,-0.023,-0.161,0.077,0.253,-0.166,-0.159,-0.208,-0.446
-0.131,-0.224,-0.093,0.178,-0.018,-0.159,0.066,0.263,-0.113,-0.117,-0.191,-0.434
-0.112,-0.223,-0.111,0.168,-0.001,-0.167,0.06,0.285,-0.123,-0.111,-0.195,-0.435
-0.128,-0.216,-0.087,0.172,-0.02,-0.151,0.079,0.302,-0.099,-0.096,-0.183,-0.427
-0.13,-0.212,-0.083,0.171,-0.023,-0.147,0.098,0.312,-0.085,-0.094,-0.177,-0.425
-0.108,-0.191,-0.083,0.15,-0.013,-0.137,0.089,0.329,-0.059,-0.068,-0.167,-0.418
-0.105,-0.168,-0.063,0.137,-0.021,-0.115,0.088,0.35,-0.024,-0.041,-0.159,-0.409
-0.098,-0.158,-0.059,0.128,-0.019,-0.108,0.083,0.375,0.002,-0.023,-0.143,-0.403
-0.094,-0.135,-0.042,0.115,-0.026,-0.088,0.08,0.407,0.034,-0.005,-0.125,-0.395
-0.077,-0.104,-0.027,0.091,-0.025,-0.066,0.077,0.435,0.061,0.006,-0.12,-0.39
-0.051,-0.07,-0.019,0.061,-0.015,-0.044,0.069,0.475,0.101,0.033,-0.112,-0.373
-0.064,-0.049,0.015,0.057,-0.039,-0.017,0.063,0.537,0.158,0.077,-0.075,-0.346
-0.032,-0.017,0.016,0.024,-0.024,0.0,0.056,0.589,0.212,0.122,-0.028,-0.33
0.003,0.046,0.043,-0.025,-0.02,0.045,0.049,0.65,0.29,0.163,-0.004,-0.296
0.01,0.1,0.091,-0.055,-0.041,0.095,0.044,0.702,0.385,0.237,0.037,-0.255
0.025,0.166,0.141,-0.096,-0.059,0.153,0.028,0.723,0.479,0.316,0.092,-0.226
0.059,0.244,0.185,-0.152,-0.063,0.214,0.008,0.748,0.595,0.403,0.159,-0.166
0.113,0.303,0.19,-0.208,-0.039,0.246,-0.015,0.75,0.681,0.494,0.224,-0.095
0.128,0.364,0.236,-0.246,-0.054,0.3,-0.056,0.71,0.735,0.564,0.28,-0.059
0.121,0.388,0.267,-0.255,-0.074,0.327,-0.094,0.611,0.766,0.601,0.319,-0.044
0.115,0.343,0.228,-0.229,-0.057,0.285,-0.102,0.492,0.714,0.579,0.306,-0.031
0.069,0.264,0.195,-0.167,-0.063,0.229,-0.069,0.359,0.566,0.475,0.236,-0.079
-0.008,0.121,0.129,-0.056,-0.069,0.124,-0.03,0.229,0.359,0.309,0.123,-0.18
-0.062,-0.016,0.046,0.039,-0.054,0.015,-0.009,0.156,0.175,0.16,0.021,-0.271
-0.111,-0.101,0.01,0.106,-0.06,-0.045,0.016,0.11,0.046,0.049,-0.059,-0.337
-0.126,-0.171,-0.045,0.149,-0.04,-0.108,0.02,0.064,-0.048,-0.024,-0.12,-0.386
-0.147,-0.212,-0.065,0.18,-0.041,-0.139,0.025,0.039,-0.113,-0.072,-0.148,-0.414
-0.166,-0.239,-0.073,0.203,-0.046,-0.156,0.048,0.025,-0.143,-0.097,-0.165,-0.422
-0.167,-0.245,-0.078,0.206,-0.044,-0.161,0.05,0.01,-0.14,-0.107,-0.178,-0.432
-0.171,-0.238,-0.067,0.205,-0.052,-0.152,0.05,0.022,-0.129,-0.11,-0.182,-0.442
-0.163,-0.234,-0.071,0.199,-0.045,-0.153,0.053,0.011,-0.167,-0.099,-0.189,-0.452
-0.172,-0.231,-0.058,0.201,-0.057,-0.144,0.057,0.043,-0.178,-0.106,-0.191,-0.455
-0.14,-0.223,-0.083,0.182,-0.028,-0.153,0.053,0.006,-0.151,-0.125,-0.188,-0.455
-0.147,-0.235,-0.088,0.192,-0.029,-0.161,0.052,0.06,-0.157,-0.125,-0.191,-0.458
-0.168,-0.246,-0.078,0.207,-0.045,-0.161,0.048,0.14,-0.154,-0.128,-0.188,-0.461
-0.144,-0.228,-0.084,0.186,-0.03,-0.156,0.052,0.006,-0.155,-0.131,-0.191,-0.459
-0.156,-0.22,-0.064,0.189,-0.046,-0.142,0.047,-0.053,-0.153,-0.122,-0.194,-0.443
