0.012,0.049,0.037,-0.031,-0.013,0.043,-0.003,-0.163,-0.139,-0.124,-0.12,-0.09
0.02,0.045,0.024,-0.033,-0.003,0.034,0.003,-0.161,-0.139,-0.124,-0.118,-0.089
0.08,0.046,-0.034,-0.063,0.056,0.006,-0.022,-0.184,-0.155,-0.136,-0.112,-0.085
0.068,0.043,-0.025,-0.055,0.046,0.009,-0.018,-0.186,-0.156,-0.137,-0.109,-0.082
0.023,0.041,0.018,-0.032,0.002,0.029,0.012,-0.159,-0.131,-0.121,-0.103,-0.077
0.022,0.038,0.016,-0.03,0.003,0.027,0.014,-0.146,-0.117,-0.107,-0.099,-0.074
0.031,0.054,0.023,-0.043,0.004,0.038,0.022,-0.134,-0.106,-0.09,-0.09,-0.066
0.031,0.085,0.054,-0.058,-0.012,0.069,0.022,-0.125,-0.086,-0.074,-0.064,-0.05
0.022,0.054,0.032,-0.038,-0.006,0.043,-0.013,-0.114,-0.072,-0.063,-0.053,-0.035
0.093,0.079,-0.015,-0.086,0.054,0.032,-0.069,-0.114,-0.068,-0.048,-0.021,-0.004
0.142,0.126,-0.016,-0.133,0.078,0.055,-0.079,-0.127,-0.072,-0.042,-0.022,0.0
0.117,0.086,-0.032,-0.101,0.075,0.027,-0.062,-0.149,-0.103,-0.075,-0.069,-0.033
0.097,0.027,-0.069,-0.062,0.083,-0.02,-0.053,-0.185,-0.159,-0.129,-0.107,-0.067
0.084,0.007,-0.077,-0.045,0.08,-0.035,-0.034,-0.198,-0.18,-0.144,-0.12,-0.078
0.101,0.017,-0.084,-0.059,0.093,-0.033,-0.027,-0.207,-0.183,-0.149,-0.123,-0.085
0.056,-0.015,-0.071,-0.02,0.063,-0.043,-0.008,-0.188,-0.177,-0.148,-0.149,-0.102
0.015,-0.036,-0.051,0.011,0.033,-0.043,-0.008,-0.192,-0.167,-0.135,-0.14,-0.085
0.0,-0.028,-0.028,0.015,0.014,-0.028,0.014,-0.178,-0.173,-0.149,-0.151,-0.107
0.0,-0.018,-0.018,0.009,0.01,-0.018,0.009,-0.174,-0.147,-0.118,-0.115,-0.072
-0.008,-0.018,-0.01,0.013,0.001,-0.014,0.019,-0.178,-0.153,-0.147,-0.148,-0.111
-0.071,0.038,0.108,0.016,-0.09,0.073,0.076,-0.036,-0.023,-0.051,-0.078,-0.117
-0.129,0.05,0.179,0.039,-0.154,0.115,0.155,0.141,0.121,0.052,-0.033,-0.106
0.278,0.124,-0.154,-0.201,0.216,-0.015,-0.057,0.157,0.271,0.381,0.451,0.375
1.132,0.318,-0.814,-0.725,0.972,-0.248,-0.722,-0.704,-0.112,0.608,1.122,1.29
1.029,0.07,-0.96,-0.549,0.995,-0.445,-0.739,-1.767,-1.39,-0.508,0.11,0.746
0.319,-0.246,-0.565,-0.036,0.442,-0.405,-0.29,-1.702,-1.845,-1.321,-0.884,-0.193
0.072,-0.195,-0.267,0.062,0.17,-0.231,-0.132,-0.929,-1.2,-0.929,-0.677,-0.257
-0.005,-0.104,-0.099,0.055,0.047,-0.102,0.038,-0.18,-0.493,-0.443,-0.384,-0.228
-0.012,-0.039,-0.028,0.026,0.008,-0.033,0.096,0.021,-0.151,-0.164,-0.172,-0.14
-0.027,-0.006,0.021,0.016,-0.024,0.008,0.084,-0.052,-0.119,-0.128,-0.154,-0.124
-0.039,0.013,0.052,0.012,-0.046,0.032,0.09,-0.033,-0.058,-0.083,-0.112,-0.111
-0.041,0.019,0.06,0.011,-0.051,0.039,0.079,-0.036,-0.039,-0.06,-0.099,-0.096
-0.048,0.013,0.061,0.017,-0.055,0.036,0.083,-0.013,-0.018,-0.054,-0.101,-0.095
-0.031,0.017,0.048,0.007,-0.04,0.032,0.076,-0.007,0.005,-0.036,-0.081,-0.077
-0.035,0.013,0.048,0.01,-0.042,0.031,0.072,0.016,0.017,-0.032,-0.084,-0.08
-0.046,0.017,0.063,0.014,-0.055,0.04,0.064,0.054,0.046,-0.003,-0.05,-0.066
-0.016,0.042,0.058,-0.013,-0.037,0.049,0.058,0.067,0.072,0.016,-0.035,-0.063
-0.002,0.046,0.048,-0.022,-0.025,0.047,0.051,0.098,0.104,0.038,-0.016,-0.057
-0.001,0.044,0.045,-0.022,-0.023,0.044,0.046,0.134,0.143,0.063,-0.006,-0.046
0.027,0.046,0.019,-0.037,0.003,0.032,0.037,0.179,0.191,0.092,0.005,-0.033
-0.023,0.043,0.066,-0.01,-0.045,0.054,0.048,0.248,0.26,0.144,0.048,-0.005
-0.006,0.069,0.075,-0.031,-0.041,0.071,0.047,0.325,0.35,0.213,0.099,0.03
0.047,0.083,0.036,-0.065,0.005,0.06,0.021,0.412,0.433,0.269,0.137,0.047
0.083,0.119,0.036,-0.101,0.024,0.077,0.002,0.508,0.54,0.341,0.188,0.077
0.13,0.152,0.022,-0.141,0.054,0.086,-0.031,0.615,0.662,0.438,0.265,0.138
0.158,0.17,0.012,-0.164,0.073,0.09,-0.05,0.721,0.782,0.543,0.355,0.217
0.213,0.218,0.004,-0.216,0.104,0.111,-0.072,0.803,0.881,0.629,0.429,0.282
0.261,0.25,-0.011,-0.256,0.136,0.119,-0.112,0.824,0.91,0.666,0.482,0.334
0.31,0.265,-0.045,-0.287,0.177,0.11,-0.141,0.796,0.896,0.67,0.5,0.374
0.306,0.253,-0.053,-0.279,0.179,0.1,-0.163,0.697,0.81,0.621,0.474,0.379
0.28,0.232,-0.048,-0.256,0.163,0.092,-0.167,0.529,0.637,0.507,0.406,0.342
0.239,0.192,-0.046,-0.215,0.142,0.073,-0.149,0.364,0.452,0.367,0.306,0.261
0.188,0.143,-0.045,-0.165,0.117,0.048,-0.108,0.207,0.273,0.227,0.19,0.168
0.14,0.106,-0.034,-0.123,0.087,0.036,-0.051,0.093,0.136,0.124,0.093,0.089
0.055,0.055,0.0,-0.055,0.027,0.027,-0.012,0.017,0.048,0.048,0.039,0.024
-0.004,0.026,0.03,-0.011,-0.017,0.027,0.009,-0.039,-0.01,0.0,0.001,-0.014
-0.009,0.021,0.03,-0.006,-0.02,0.026,0.038,-0.055,-0.049,-0.015,-0.015,-0.029
-0.009,0.018,0.027,-0.004,-0.018,0.022,0.05,-0.071,-0.07,-0.04,-0.042,-0.053
-0.031,0.013,0.044,0.009,-0.038,0.028,0.051,-0.094,-0.08,-0.061,-0.066,-0.065
-0.047,0.0,0.046,0.024,-0.047,0.023,0.055,-0.108,-0.095,-0.063,-0.07,-0.076
-0.083,-0.023,0.06,0.053,-0.071,0.018,0.057,-0.124,-0.099,-0.076,-0.087,-0.092
-0.081,-0.04,0.041,0.06,-0.061,0.001,0.061,-0.127,-0.1,-0.095,-0.1,-0.09
-0.08,-0.034,0.047,0.057,-0.063,0.006,0.058,-0.117,-0.1,-0.096,-0.101,-0.094
-0.063,-0.02,0.043,0.041,-0.053,0.011,0.052,-0.108,-0.104,-0.093,-0.098,-0.096
-0.05,-0.011,0.039,0.03,-0.044,0.014,0.048,-0.107,-0.107,-0.105,-0.108,-0.095
-0.098,-0.01,0.088,0.054,-0.093,0.038,0.044,-0.103,-0.102,-0.098,-0.099,-0.096
-0.066,-0.007,0.06,0.036,-0.063,0.026,0.039,-0.098,-0.101,-0.081,-0.08,-0.091
-0.053,-0.006,0.046,0.029,-0.049,0.02,0.034,-0.094,-0.096,-0.08,-0.08,-0.09
-0.044,0.0,0.044,0.022,-0.044,0.021,0.031,-0.089,-0.095,-0.078,-0.078,-0.085
-0.04,-0.003,0.037,0.022,-0.038,0.017,0.026,-0.085,-0.091,-0.074,-0.074,-0.085
-0.061,-0.018,0.043,0.039,-0.051,0.012,0.024,-0.084,-0.091,-0.076,-0.076,-0.093
-0.049,-0.012,0.037,0.031,-0.043,0.013,0.019,-0.102,-0.104,-0.101,-0.102,-0.097
-0.052,-0.009,0.043,0.031,-0.047,0.017,0.016,-0.114,-0.111,-0.113,-0.112,-0.095
-0.043,-0.006,0.037,0.024,-0.039,0.015,0.012,-0.116,-0.117,-0.108,-0.11,-0.091
-0.044,-0.001,0.042,0.022,-0.043,0.02,0.01,-0.121,-0.121,-0.111,-0.116,-0.09
-0.017,0.001,0.018,0.007,-0.018,0.01,0.01,-0.125,-0.133,-0.109,-0.115,-0.085
-0.016,0.015,0.03,0.0,-0.023,0.022,0.006,-0.133,-0.149,-0.116,-0.12,-0.087
-0.054,0.005,0.059,0.024,-0.057,0.032,0.005,-0.137,-0.151,-0.113,-0.124,-0.098
-0.054,-0.019,0.035,0.036,-0.044,0.008,0.005,-0.141,-0.154,-0.121,-0.129,-0.102
-0.059,-0.026,0.033,0.042,-0.046,0.004,-0.001,-0.145,-0.157,-0.136,-0.128,-0.114
-0.063,-0.025,0.038,0.044,-0.05,0.006,-0.008,-0.149,-0.16,-0.13,-0.124,-0.117
-0.054,-0.024,0.03,0.039,-0.041,0.003,-0.014,-0.15,-0.16,-0.125,-0.125,-0.111
-0.068,-0.026,0.042,0.047,-0.054,0.008,-0.022,-0.15,-0.16,-0.122,-0.125,-0.11
-0.077,-0.024,0.053,0.05,-0.064,0.014,-0.022,-0.15,-0.16,-0.114,-0.125,-0.106
-0.074,-0.027,0.046,0.051,-0.059,0.009,-0.014,-0.15,-0.16,-0.119,-0.126,-0.105
-0.095,-0.039,0.056,0.067,-0.076,0.008,-0.006,-0.152,-0.159,-0.125,-0.129,-0.105
-0.072,-0.035,0.037,0.053,-0.054,0.001,0.002,-0.156,-0.162,-0.128,-0.133,-0.107
-0.086,-0.027,0.059,0.056,-0.072,0.016,0.01,-0.159,-0.166,-0.147,-0.135,-0.111
-0.099,-0.021,0.078,0.06,-0.088,0.028,0.02,-0.16,-0.165,-0.149,-0.135,-0.109
-0.041,-0.014,0.027,0.027,-0.034,0.006,0.018,-0.16,-0.165,-0.141,-0.135,-0.106
-0.051,0.002,0.053,0.024,-0.052,0.027,0.012,-0.16,-0.166,-0.14,-0.135,-0.104
-0.061,0.008,0.069,0.026,-0.066,0.038,0.009,-0.16,-0.164,-0.133,-0.135,-0.099
-0.063,0.002,0.065,0.031,-0.064,0.033,0.003,-0.158,-0.167,-0.131,-0.135,-0.102
-0.074,0.0,0.074,0.037,-0.074,0.037,0.0,-0.154,-0.172,-0.134,-0.135,-0.112
-0.066,-0.004,0.062,0.035,-0.063,0.029,0.005,-0.155,-0.171,-0.131,-0.135,-0.111
-0.072,-0.009,0.063,0.04,-0.067,0.027,0.009,-0.155,-0.167,-0.129,-0.135,-0.107
-0.062,-0.009,0.053,0.035,-0.057,0.022,0.012,-0.155,-0.165,-0.13,-0.135,-0.105
-0.057,-0.004,0.053,0.03,-0.055,0.025,0.015,-0.155,-0.162,-0.13,-0.133,-0.101
-0.043,0.001,0.045,0.021,-0.044,0.023,0.017,-0.154,-0.158,-0.13,-0.128,-0.1
-0.033,0.005,0.038,0.013,-0.036,0.022,0.021,-0.163,-0.172,-0.128,-0.125,-0.097
-0.068,0.01,0.078,0.029,-0.073,0.044,0.018,-0.169,-0.178,-0.121,-0.122,-0.089
-0.052,0.014,0.066,0.019,-0.06,0.04,0.012,-0.16,-0.167,-0.116,-0.117,-0.083
-0.028,0.026,0.054,0.001,-0.041,0.039,0.009,-0.149,-0.157,-0.109,-0.115,-0.076
-0.027,0.055,0.083,-0.014,-0.055,0.069,0.004,-0.127,-0.137,-0.105,-0.106,-0.069
-0.009,0.085,0.094,-0.039,-0.052,0.09,0.0,-0.111,-0.116,-0.097,-0.093,-0.063
-0.012,0.084,0.095,-0.036,-0.054,0.089,-0.022,-0.104,-0.108,-0.09,-0.083,-0.06
0.014,0.087,0.073,-0.051,-0.03,0.08,-0.066,-0.073,-0.112,-0.09,-0.078,-0.062
0.034,0.079,0.045,-0.057,-0.006,0.062,-0.072,-0.104,-0.119,-0.09,-0.083,-0.067
-0.012,0.029,0.042,-0.009,-0.027,0.035,-0.054,-0.17,-0.147,-0.112,-0.096,-0.063
-0.023,0.002,0.025,0.01,-0.024,0.013,-0.038,-0.172,-0.182,-0.151,-0.139,-0.082
-0.023,0.005,0.028,0.009,-0.025,0.016,-0.031,-0.168,-0.181,-0.149,-0.131,-0.093
-0.053,0.0,0.053,0.026,-0.053,0.026,-0.021,-0.174,-0.189,-0.164,-0.143,-0.109
-0.029,0.008,0.037,0.011,-0.034,0.022,-0.008,-0.163,-0.186,-0.164,-0.156,-0.112
-0.051,0.009,0.06,0.021,-0.055,0.034,-0.01,-0.171,-0.193,-0.162,-0.149,-0.104
-0.09,0.01,0.099,0.04,-0.095,0.054,0.009,-0.158,-0.189,-0.172,-0.167,-0.121
-0.057,0.02,0.076,0.018,-0.067,0.048,-0.005,-0.169,-0.188,-0.153,-0.135,-0.092
-0.078,0.01,0.088,0.034,-0.084,0.049,0.029,-0.135,-0.176,-0.169,-0.186,-0.14
-0.132,0.073,0.205,0.029,-0.168,0.138,0.069,0.0,-0.003,-0.035,-0.096,-0.126
-0.14,0.054,0.194,0.043,-0.167,0.124,0.115,0.171,0.11,0.062,-0.023,-0.101
0.416,0.215,-0.201,-0.316,0.308,0.007,-0.23,0.027,0.261,0.541,0.707,0.652
1.109,0.381,-0.728,-0.745,0.919,-0.173,-0.834,-0.942,-0.327,0.543,1.139,1.404
0.764,-0.005,-0.768,-0.379,0.766,-0.387,-0.656,-1.707,-1.582,-0.796,-0.207,0.516
0.185,-0.219,-0.405,0.017,0.295,-0.312,-0.284,-1.42,-1.694,-1.276,-0.891,-0.213
0.024,-0.131,-0.155,0.054,0.09,-0.142,-0.155,-0.668,-0.987,-0.778,-0.595,-0.206
-0.077,-0.066,0.01,0.072,-0.043,-0.028,0.018,-0.066,-0.383,-0.366,-0.356,-0.186
-0.114,-0.001,0.113,0.058,-0.113,0.056,0.06,0.029,-0.122,-0.134,-0.16,-0.096
-0.114,-0.006,0.108,0.06,-0.111,0.051,0.064,-0.028,-0.103,-0.13,-0.171,-0.121
-0.104,0.002,0.105,0.05,-0.104,0.053,0.054,-0.004,-0.043,-0.092,-0.126,-0.1
-0.098,0.005,0.103,0.046,-0.101,0.054,0.047,-0.005,-0.028,-0.086,-0.129,-0.102
-0.084,0.014,0.098,0.035,-0.091,0.056,0.042,0.015,0.005,-0.054,-0.115,-0.098
-0.088,0.018,0.107,0.035,-0.098,0.062,0.033,0.02,0.005,-0.038,-0.102,-0.088
-0.087,0.024,0.111,0.031,-0.099,0.067,0.03,0.034,0.021,-0.037,-0.098,-0.083
-0.062,0.047,0.109,0.007,-0.085,0.078,0.019,0.067,0.072,-0.015,-0.066,-0.064
-0.052,0.052,0.104,-0.001,-0.078,0.078,0.015,0.081,0.084,0.005,-0.051,-0.06
-0.057,0.047,0.104,0.005,-0.08,0.075,0.007,0.113,0.125,0.038,-0.034,-0.046
-0.044,0.054,0.098,-0.005,-0.071,0.076,0.001,0.151,0.16,0.059,-0.025,-0.039
-0.037,0.063,0.099,-0.013,-0.068,0.081,-0.006,0.198,0.209,0.094,0.002,-0.024
-0.011,0.067,0.079,-0.028,-0.045,0.073,-0.012,0.266,0.282,0.141,0.035,-0.002
0.015,0.086,0.071,-0.051,-0.029,0.078,-0.021,0.339,0.355,0.196,0.068,0.029
0.004,0.117,0.113,-0.061,-0.054,0.115,-0.023,0.44,0.466,0.275,0.131,0.063
0.047,0.153,0.106,-0.1,-0.03,0.129,-0.038,0.548,0.582,0.363,0.194,0.103
0.102,0.197,0.095,-0.15,0.003,0.145,-0.051,0.655,0.694,0.45,0.264,0.16
0.155,0.243,0.088,-0.199,0.033,0.165,-0.064,0.768,0.814,0.544,0.349,0.229
0.193,0.26,0.067,-0.227,0.062,0.164,-0.108,0.836,0.891,0.618,0.408,0.287
0.223,0.293,0.071,-0.258,0.076,0.182,-0.141,0.832,0.895,0.638,0.453,0.339
0.26,0.311,0.05,-0.286,0.105,0.18,-0.178,0.785,0.862,0.624,0.449,0.372
0.273,0.296,0.023,-0.285,0.125,0.159,-0.203,0.667,0.755,0.563,0.431,0.37
0.244,0.277,0.032,-0.261,0.106,0.154,-0.186,0.505,0.582,0.443,0.36,0.334
0.177,0.217,0.04,-0.197,0.068,0.128,-0.144,0.346,0.409,0.314,0.245,0.256
0.127,0.151,0.024,-0.139,0.051,0.088,-0.102,0.189,0.237,0.179,0.146,0.163
0.068,0.103,0.034,-0.086,0.017,0.068,-0.072,0.086,0.115,0.086,0.053,0.08
0.028,0.073,0.045,-0.051,-0.009,0.059,-0.038,0.001,0.021,0.021,0.0,0.013
-0.003,0.052,0.055,-0.025,-0.03,0.054,-0.026,-0.054,-0.04,-0.03,-0.048,-0.031
-0.055,0.037,0.092,0.008,-0.074,0.064,-0.018,-0.076,-0.064,-0.058,-0.076,-0.053
-0.066,0.027,0.093,0.019,-0.08,0.06,-0.011,-0.104,-0.092,-0.089,-0.094,-0.064
-0.074,0.014,0.089,0.03,-0.082,0.051,-0.01,-0.105,-0.096,-0.09,-0.103,-0.065
-0.08,0.006,0.086,0.036,-0.083,0.046,-0.005,-0.105,-0.095,-0.09,-0.099,-0.065
-0.076,0.005,0.081,0.036,-0.079,0.042,-0.004,-0.11,-0.1,-0.095,-0.105,-0.065
-0.074,0.005,0.08,0.035,-0.078,0.042,0.001,-0.11,-0.1,-0.095,-0.105,-0.065
-0.056,0.005,0.061,0.025,-0.059,0.033,-0.003,-0.109,-0.099,-0.094,-0.104,-0.064
-0.078,0.005,0.083,0.036,-0.081,0.044,0.002,-0.104,-0.093,-0.088,-0.098,-0.06
-0.087,0.006,0.093,0.04,-0.09,0.049,0.012,-0.1,-0.088,-0.083,-0.092,-0.068
-0.068,0.012,0.079,0.028,-0.074,0.045,0.006,-0.095,-0.082,-0.078,-0.088,-0.069
-0.07,0.015,0.085,0.027,-0.078,0.05,0.001,-0.09,-0.076,-0.071,-0.081,-0.061
-0.066,0.02,0.086,0.023,-0.076,0.053,-0.002,-0.087,-0.075,-0.066,-0.076,-0.058
-0.064,0.025,0.09,0.02,-0.077,0.057,-0.008,-0.084,-0.075,-0.077,-0.094,-0.051
-0.076,0.018,0.094,0.029,-0.085,0.056,-0.009,-0.082,-0.075,-0.082,-0.102,-0.046
-0.091,0.0,0.091,0.045,-0.091,0.046,-0.001,-0.078,-0.075,-0.079,-0.099,-0.063
-0.089,-0.013,0.077,0.051,-0.083,0.032,0.008,-0.075,-0.075,-0.081,-0.098,-0.072
-0.084,-0.01,0.074,0.046,-0.079,0.032,0.007,-0.074,-0.076,-0.079,-0.094,-0.069
-0.08,-0.011,0.069,0.045,-0.074,0.029,0.003,-0.069,-0.081,-0.081,-0.096,-0.071
-0.075,-0.008,0.067,0.041,-0.071,0.03,0.0,-0.081,-0.084,-0.078,-0.093,-0.07
-0.066,-0.004,0.062,0.035,-0.064,0.029,-0.004,-0.09,-0.089,-0.089,-0.1,-0.069
-0.064,-0.007,0.057,0.035,-0.06,0.025,-0.004,-0.097,-0.096,-0.101,-0.112,-0.066
-0.065,0.01,0.076,0.027,-0.07,0.043,0.002,-0.107,-0.1,-0.099,-0.108,-0.061
-0.053,0.004,0.057,0.024,-0.055,0.031,0.008,-0.104,-0.099,-0.1,-0.105,-0.059
-0.061,-0.008,0.053,0.034,-0.056,0.022,0.014,-0.108,-0.103,-0.1,-0.103,-0.054
-0.066,-0.004,0.062,0.035,-0.063,0.029,0.012,-0.11,-0.105,-0.103,-0.099,-0.05
-0.066,-0.005,0.06,0.036,-0.062,0.027,0.003,-0.11,-0.105,-0.105,-0.103,-0.052
-0.055,0.0,0.055,0.027,-0.055,0.027,-0.001,-0.113,-0.11,-0.106,-0.112,-0.055
-0.056,0.0,0.056,0.028,-0.056,0.027,-0.011,-0.116,-0.117,-0.117,-0.116,-0.059
-0.053,0.001,0.054,0.025,-0.053,0.027,-0.014,-0.113,-0.113,-0.121,-0.114,-0.06
-0.04,0.005,0.045,0.017,-0.043,0.025,-0.026,-0.119,-0.115,-0.13,-0.119,-0.07
-0.069,0.005,0.074,0.032,-0.072,0.039,-0.034,-0.139,-0.134,-0.145,-0.125,-0.077
-0.048,0.01,0.058,0.019,-0.053,0.034,-0.004,-0.137,-0.132,-0.14,-0.125,-0.071
-0.034,0.01,0.044,0.012,-0.039,0.027,0.007,-0.13,-0.125,-0.132,-0.125,-0.069
-0.049,0.006,0.054,0.021,-0.052,0.03,0.008,-0.129,-0.124,-0.127,-0.125,-0.064
-0.046,0.0,0.046,0.023,-0.046,0.023,0.013,-0.121,-0.116,-0.118,-0.125,-0.061
-0.058,-0.005,0.053,0.032,-0.055,0.023,0.016,-0.122,-0.117,-0.117,-0.122,-0.057
-0.06,-0.01,0.05,0.035,-0.055,0.019,0.021,-0.125,-0.12,-0.119,-0.119,-0.055
-0.075,-0.017,0.058,0.046,-0.066,0.02,0.02,-0.126,-0.122,-0.123,-0.12,-0.055
-0.076,-0.019,0.057,0.047,-0.067,0.019,0.02,-0.129,-0.125,-0.125,-0.116,-0.055
-0.078,-0.015,0.064,0.046,-0.071,0.024,0.02,-0.13,-0.128,-0.128,-0.114,-0.055
-0.08,-0.015,0.065,0.047,-0.072,0.025,0.02,-0.133,-0.131,-0.131,-0.116,-0.055
-0.071,-0.013,0.058,0.042,-0.065,0.023,0.02,-0.136,-0.126,-0.126,-0.119,-0.06
-0.074,-0.009,0.065,0.042,-0.07,0.028,0.019,-0.134,-0.125,-0.125,-0.124,-0.059
-0.051,-0.011,0.04,0.03,-0.045,0.015,0.013,-0.137,-0.125,-0.124,-0.123,-0.063
-0.072,-0.009,0.062,0.04,-0.067,0.026,0.007,-0.136,-0.12,-0.118,-0.119,-0.066
-0.081,-0.011,0.071,0.046,-0.076,0.03,0.003,-0.129,-0.121,-0.114,-0.121,-0.061
-0.058,-0.009,0.049,0.033,-0.054,0.019,-0.004,-0.122,-0.118,-0.109,-0.117,-0.059
-0.069,-0.011,0.059,0.04,-0.064,0.023,-0.008,-0.116,-0.111,-0.105,-0.114,-0.054
-0.061,-0.007,0.054,0.034,-0.057,0.023,-0.014,-0.107,-0.1,-0.1,-0.116,-0.051
-0.043,0.012,0.055,0.015,-0.05,0.033,-0.02,-0.104,-0.094,-0.093,-0.091,-0.047
-0.025,0.033,0.058,-0.005,-0.041,0.045,-0.025,-0.081,-0.077,-0.073,-0.056,-0.034
-0.015,0.05,0.065,-0.018,-0.04,0.057,-0.031,-0.064,-0.053,-0.06,-0.049,-0.023
0.009,0.059,0.05,-0.034,-0.021,0.054,-0.035,-0.041,-0.043,-0.041,-0.039,-0.012
0.032,0.072,0.04,-0.052,-0.005,0.056,-0.046,-0.028,-0.032,-0.027,-0.029,-0.005
0.052,0.056,0.004,-0.054,0.024,0.03,-0.057,-0.101,-0.081,-0.076,-0.056,-0.005
0.045,0.006,-0.039,-0.026,0.042,-0.016,-0.039,-0.136,-0.139,-0.128,-0.106,-0.035
-0.004,-0.012,-0.008,0.008,0.002,-0.009,-0.013,-0.117,-0.134,-0.125,-0.115,-0.049
-0.019,-0.018,0.001,0.018,-0.009,-0.008,-0.012,-0.119,-0.145,-0.122,-0.11,-0.039
-0.065,-0.033,0.032,0.049,-0.048,-0.001,-0.018,-0.131,-0.152,-0.133,-0.126,-0.059
-0.083,-0.039,0.044,0.061,-0.063,0.003,-0.026,-0.15,-0.139,-0.13,-0.114,-0.051
-0.069,-0.029,0.04,0.049,-0.054,0.005,-0.009,-0.142,-0.149,-0.15,-0.141,-0.072
-0.056,-0.002,0.054,0.028,-0.055,0.026,-0.009,-0.145,-0.125,-0.116,-0.105,-0.046
-0.07,-0.032,0.038,0.051,-0.054,0.003,0.006,-0.133,-0.14,-0.147,-0.147,-0.074
-0.108,0.033,0.141,0.037,-0.125,0.086,0.055,-0.018,-0.019,-0.053,-0.098,-0.073
-0.153,0.068,0.221,0.042,-0.187,0.145,0.148,0.15,0.131,0.047,-0.042,-0.079
0.19,0.116,-0.074,-0.153,0.132,0.021,-0.038,0.126,0.22,0.311,0.373,0.333
1.06,0.342,-0.718,-0.7,0.889,-0.188,-0.698,-0.668,-0.065,0.645,1.145,1.298
1.073,0.084,-0.989,-0.578,1.031,-0.453,-0.777,-1.715,-1.277,-0.4,0.238,0.882
0.399,-0.29,-0.688,-0.054,0.544,-0.489,-0.378,-1.744,-1.854,-1.324,-0.865,-0.091
0.072,-0.246,-0.319,0.087,0.196,-0.282,-0.203,-0.947,-1.196,-0.925,-0.662,-0.178
-0.039,-0.114,-0.075,0.077,0.019,-0.095,-0.014,-0.185,-0.478,-0.432,-0.374,-0.166
-0.018,-0.018,0.0,0.018,-0.009,-0.009,0.063,0.066,-0.121,-0.14,-0.161,-0.1
-0.098,-0.018,0.08,0.058,-0.089,0.031,0.072,0.006,-0.063,-0.094,-0.14,-0.082
-0.113,-0.002,0.111,0.058,-0.112,0.054,0.077,0.015,-0.014,-0.07,-0.115,-0.082
-0.061,0.019,0.08,0.02,-0.071,0.049,0.065,0.03,0.002,-0.049,-0.088,-0.065
-0.092,-0.002,0.09,0.047,-0.091,0.043,0.07,0.038,0.019,-0.046,-0.093,-0.071
-0.102,-0.02,0.082,0.06,-0.092,0.031,0.059,0.04,0.046,-0.021,-0.067,-0.052
-0.104,-0.018,0.086,0.061,-0.095,0.034,0.06,0.05,0.053,-0.023,-0.071,-0.053
-0.092,-0.007,0.085,0.049,-0.088,0.038,0.052,0.08,0.085,0.001,-0.044,-0.038
-0.088,-0.004,0.085,0.045,-0.086,0.04,0.047,0.101,0.105,0.014,-0.035,-0.034
-0.079,0.005,0.084,0.037,-0.082,0.044,0.042,0.138,0.142,0.039,-0.019,-0.026
-0.036,0.04,0.076,-0.003,-0.056,0.057,0.036,0.182,0.191,0.078,0.008,-0.014
-0.018,0.057,0.074,-0.02,-0.046,0.065,0.031,0.239,0.243,0.105,0.03,0.008
-0.02,0.047,0.067,-0.014,-0.043,0.057,0.019,0.304,0.302,0.148,0.055,0.025
0.002,0.067,0.065,-0.035,-0.032,0.066,0.01,0.387,0.385,0.212,0.096,0.048
0.028,0.088,0.059,-0.058,-0.016,0.073,0.0,0.492,0.486,0.279,0.142,0.078
0.035,0.1,0.065,-0.068,-0.015,0.082,-0.027,0.607,0.6,0.36,0.208,0.119
0.062,0.131,0.068,-0.097,-0.004,0.099,-0.043,0.725,0.716,0.448,0.276,0.171
0.129,0.178,0.049,-0.154,0.04,0.113,-0.065,0.833,0.824,0.527,0.34,0.219
0.158,0.22,0.062,-0.189,0.047,0.141,-0.096,0.917,0.917,0.596,0.407,0.282
0.217,0.257,0.04,-0.237,0.088,0.148,-0.113,0.952,0.954,0.651,0.46,0.343
0.279,0.261,-0.017,-0.27,0.148,0.122,-0.137,0.92,0.942,0.655,0.481,0.385
0.305,0.245,-0.059,-0.275,0.182,0.093,-0.164,0.813,0.846,0.598,0.46,0.4
0.307,0.225,-0.082,-0.266,0.194,0.071,-0.184,0.641,0.676,0.493,0.401,0.373
0.241,0.185,-0.056,-0.213,0.149,0.064,-0.158,0.446,0.494,0.357,0.297,0.3
0.154,0.133,-0.021,-0.143,0.087,0.056,-0.108,0.28,0.308,0.227,0.189,0.214
0.098,0.084,-0.014,-0.091,0.056,0.035,-0.071,0.145,0.177,0.126,0.104,0.136
0.034,0.04,0.005,-0.037,0.014,0.022,-0.039,0.062,0.088,0.05,0.038,0.067
0.003,0.012,0.009,-0.008,-0.003,0.01,-0.017,0.006,0.023,0.003,-0.006,0.018
0.024,0.008,-0.016,-0.016,0.02,-0.004,-0.004,-0.042,-0.011,-0.019,-0.037,-0.004
-0.022,-0.022,0.0,0.022,-0.011,-0.011,0.013,-0.062,-0.034,-0.044,-0.053,-0.013
-0.034,-0.038,-0.004,0.036,-0.014,-0.021,0.026,-0.078,-0.047,-0.066,-0.065,-0.025
-0.053,-0.033,0.02,0.043,-0.036,-0.006,0.025,-0.085,-0.058,-0.071,-0.075,-0.033
-0.069,-0.037,0.033,0.052,-0.051,-0.002,0.024,-0.09,-0.062,-0.07,-0.08,-0.035
-0.065,-0.034,0.031,0.049,-0.047,-0.001,0.021,-0.092,-0.059,-0.07,-0.08,-0.035
-0.099,-0.036,0.063,0.067,-0.081,0.013,0.02,-0.086,-0.056,-0.071,-0.08,-0.033
-0.078,-0.032,0.046,0.055,-0.062,0.007,0.02,-0.082,-0.053,-0.069,-0.08,-0.03
-0.073,-0.03,0.043,0.051,-0.058,0.006,0.031,-0.076,-0.051,-0.066,-0.08,-0.029
-0.077,-0.03,0.047,0.053,-0.062,0.008,0.042,-0.07,-0.049,-0.063,-0.084,-0.034
-0.073,-0.03,0.043,0.051,-0.058,0.006,0.039,-0.066,-0.045,-0.061,-0.085,-0.041
-0.083,-0.036,0.047,0.059,-0.065,0.005,0.04,-0.07,-0.046,-0.058,-0.085,-0.04
-0.075,-0.032,0.043,0.053,-0.059,0.006,0.04,-0.07,-0.043,-0.055,-0.085,-0.04
-0.065,-0.026,0.039,0.045,-0.051,0.006,0.04,-0.071,-0.04,-0.058,-0.086,-0.04
-0.05,-0.021,0.029,0.036,-0.04,0.004,0.043,-0.076,-0.04,-0.06,-0.084,-0.04
-0.032,-0.014,0.018,0.023,-0.025,0.001,0.048,-0.074,-0.037,-0.056,-0.08,-0.043
-0.042,-0.011,0.031,0.026,-0.036,0.01,0.049,-0.078,-0.034,-0.053,-0.08,-0.045
-0.066,-0.02,0.046,0.043,-0.056,0.012,0.045,-0.08,-0.051,-0.066,-0.08,-0.049
-0.081,-0.046,0.035,0.064,-0.058,-0.006,0.043,-0.08,-0.067,-0.077,-0.08,-0.051
-0.085,-0.056,0.029,0.07,-0.056,-0.013,0.04,-0.085,-0.064,-0.074,-0.079,-0.055
-0.078,-0.054,0.024,0.066,-0.051,-0.015,0.037,-0.085,-0.065,-0.075,-0.087,-0.055
-0.069,-0.056,0.013,0.062,-0.041,-0.021,0.034,-0.088,-0.065,-0.076,-0.096,-0.05
-0.081,-0.053,0.028,0.067,-0.054,-0.013,0.036,-0.097,-0.068,-0.073,-0.094,-0.05
-0.095,-0.065,0.03,0.08,-0.062,-0.017,0.035,-0.101,-0.083,-0.087,-0.095,-0.048
-0.106,-0.076,0.03,0.091,-0.068,-0.022,0.035,-0.098,-0.091,-0.103,-0.095,-0.045
-0.107,-0.075,0.032,0.091,-0.069,-0.021,0.035,-0.107,-0.089,-0.098,-0.095,-0.044
-0.088,-0.074,0.014,0.081,-0.05,-0.029,0.034,-0.116,-0.09,-0.105,-0.099,-0.05
-0.135,-0.077,0.058,0.106,-0.096,-0.01,0.048,-0.115,-0.09,-0.117,-0.1,-0.056
-0.124,-0.071,0.053,0.098,-0.088,-0.009,0.051,-0.115,-0.09,-0.113,-0.1,-0.055
-0.093,-0.074,0.018,0.083,-0.055,-0.028,0.045,-0.115,-0.094,-0.111,-0.1,-0.055
-0.096,-0.071,0.026,0.083,-0.061,-0.022,0.044,-0.115,-0.095,-0.107,-0.1,-0.055
-0.06,-0.045,0.015,0.053,-0.038,-0.015,0.039,-0.111,-0.098,-0.105,-0.1,-0.055
-0.073,-0.057,0.017,0.065,-0.045,-0.02,0.041,-0.109,-0.1,-0.102,-0.097,-0.052
-0.066,-0.058,0.008,0.062,-0.037,-0.024,0.045,-0.11,-0.101,-0.1,-0.092,-0.047
-0.065,-0.047,0.017,0.056,-0.041,-0.015,0.045,-0.11,-0.105,-0.1,-0.089,-0.044
-0.083,-0.047,0.037,0.065,-0.06,-0.005,0.045,-0.11,-0.105,-0.097,-0.086,-0.041
-0.071,-0.036,0.035,0.053,-0.052,0.0,0.045,-0.111,-0.105,-0.094,-0.08,-0.036
-0.074,-0.039,0.035,0.056,-0.054,-0.002,0.045,-0.118,-0.105,-0.095,-0.082,-0.037
-0.081,-0.046,0.035,0.063,-0.058,-0.005,0.048,-0.117,-0.105,-0.112,-0.09,-0.041
-0.078,-0.043,0.035,0.06,-0.056,-0.004,0.05,-0.114,-0.105,-0.115,-0.09,-0.038
-0.089,-0.054,0.035,0.071,-0.062,-0.009,0.05,-0.116,-0.105,-0.109,-0.09,-0.035
-0.093,-0.063,0.03,0.078,-0.062,-0.016,0.05,-0.114,-0.104,-0.107,-0.089,-0.033
-0.086,-0.059,0.027,0.072,-0.056,-0.016,0.05,-0.117,-0.106,-0.102,-0.091,-0.028
-0.082,-0.056,0.026,0.068,-0.053,-0.015,0.05,-0.111,-0.102,-0.099,-0.088,-0.035
-0.07,-0.053,0.017,0.062,-0.043,-0.018,0.049,-0.115,-0.103,-0.102,-0.094,-0.044
-0.091,-0.05,0.041,0.07,-0.066,-0.005,0.044,-0.138,-0.12,-0.113,-0.108,-0.041
-0.093,-0.048,0.045,0.07,-0.069,-0.001,0.046,-0.133,-0.115,-0.107,-0.101,-0.038
-0.085,-0.059,0.026,0.072,-0.055,-0.016,0.045,-0.122,-0.107,-0.094,-0.089,-0.036
-0.084,-0.06,0.023,0.072,-0.053,-0.018,0.045,-0.116,-0.101,-0.089,-0.081,-0.032
-0.067,-0.045,0.021,0.056,-0.044,-0.012,0.045,-0.102,-0.093,-0.08,-0.071,-0.03
-0.054,-0.039,0.015,0.046,-0.035,-0.012,0.041,-0.095,-0.079,-0.078,-0.064,-0.027
-0.041,-0.024,0.017,0.032,-0.029,-0.003,0.035,-0.07,-0.056,-0.063,-0.048,-0.014
-0.054,-0.015,0.039,0.034,-0.046,0.012,0.029,-0.055,-0.039,-0.038,-0.028,-0.003
-0.017,-0.001,0.016,0.009,-0.017,0.007,0.022,-0.031,0.004,-0.029,-0.018,0.008
0.023,0.012,-0.012,-0.018,0.017,0.0,-0.036,-0.018,0.0,-0.029,-0.02,0.015
0.012,-0.014,-0.026,0.001,0.019,-0.02,-0.065,-0.093,-0.069,-0.059,-0.037,0.015
0.0,-0.058,-0.058,0.029,0.029,-0.057,-0.019,-0.14,-0.119,-0.107,-0.083,-0.019
-0.015,-0.091,-0.075,0.053,0.03,-0.083,-0.008,-0.137,-0.123,-0.11,-0.079,-0.034
-0.065,-0.084,-0.019,0.074,-0.023,-0.052,0.008,-0.132,-0.117,-0.119,-0.06,-0.023
-0.103,-0.063,0.04,0.083,-0.072,-0.011,0.043,-0.133,-0.127,-0.128,-0.091,-0.054
-0.065,-0.055,0.01,0.06,-0.037,-0.022,0.039,-0.165,-0.131,-0.109,-0.094,-0.057
-0.083,-0.079,0.004,0.081,-0.043,-0.037,0.053,-0.144,-0.134,-0.126,-0.11,-0.077
-0.045,-0.068,-0.023,0.057,-0.011,-0.045,0.047,-0.139,-0.109,-0.087,-0.075,-0.05
-0.048,-0.056,-0.009,0.052,-0.019,-0.032,0.061,-0.137,-0.129,-0.127,-0.114,-0.081
-0.167,-0.037,0.131,0.102,-0.149,0.047,0.101,0.003,0.0,-0.031,-0.04,-0.068
-0.208,-0.021,0.187,0.114,-0.197,0.082,0.174,0.176,0.142,0.073,0.0,-0.065
0.208,0.073,-0.136,-0.141,0.172,-0.031,-0.047,0.153,0.257,0.367,0.447,0.389
1.102,0.264,-0.838,-0.683,0.969,-0.286,-0.697,-0.708,-0.107,0.612,1.128,1.31
1.07,-0.003,-1.073,-0.533,1.071,-0.538,-0.725,-1.785,-1.378,-0.5,0.138,0.795
0.342,-0.346,-0.689,0.002,0.516,-0.517,-0.324,-1.736,-1.846,-1.313,-0.862,-0.126
0.066,-0.27,-0.336,0.102,0.201,-0.303,-0.156,-0.92,-1.157,-0.885,-0.626,-0.174
-0.062,-0.159,-0.097,0.111,0.018,-0.128,0.039,-0.156,-0.451,-0.393,-0.334,-0.158
-0.11,-0.093,0.017,0.101,-0.063,-0.038,0.113,0.066,-0.103,-0.117,-0.132,-0.087
-0.076,-0.044,0.032,0.06,-0.054,-0.006,0.115,-0.002,-0.069,-0.093,-0.111,-0.086
-0.1,-0.047,0.053,0.073,-0.077,0.003,0.116,0.031,-0.018,-0.059,-0.079,-0.079
-0.103,-0.057,0.046,0.08,-0.074,-0.006,0.104,0.041,0.006,-0.033,-0.065,-0.05
-0.064,-0.052,0.013,0.058,-0.038,-0.019,0.105,0.05,0.018,-0.025,-0.063,-0.063
-0.106,-0.05,0.056,0.078,-0.081,0.003,0.094,0.074,0.057,-0.009,-0.042,-0.053
-0.123,-0.047,0.076,0.085,-0.099,0.015,0.093,0.088,0.066,-0.001,-0.045,-0.037
-0.091,-0.045,0.047,0.068,-0.069,0.001,0.084,0.09,0.088,0.02,-0.027,-0.023
-0.091,-0.042,0.049,0.066,-0.069,0.003,0.08,0.114,0.11,0.028,-0.021,-0.023
-0.075,-0.033,0.042,0.054,-0.058,0.004,0.073,0.16,0.145,0.059,0.003,-0.014
-0.07,-0.029,0.041,0.05,-0.056,0.006,0.069,0.202,0.19,0.083,0.022,-0.006
-0.061,-0.024,0.038,0.042,-0.049,0.007,0.053,0.259,0.237,0.117,0.048,0.009
-0.061,-0.027,0.034,0.044,-0.047,0.003,0.033,0.331,0.304,0.167,0.078,0.027
-0.04,-0.006,0.034,0.023,-0.037,0.014,0.021,0.419,0.388,0.226,0.118,0.055
0.01,0.035,0.025,-0.023,-0.007,0.03,0.01,0.522,0.485,0.293,0.17,0.084
0.047,0.07,0.023,-0.059,0.012,0.047,-0.007,0.636,0.591,0.366,0.221,0.119
0.097,0.112,0.015,-0.105,0.041,0.063,-0.023,0.752,0.705,0.458,0.293,0.171
0.133,0.143,0.01,-0.138,0.061,0.076,-0.042,0.864,0.821,0.542,0.363,0.227
0.16,0.166,0.007,-0.163,0.076,0.086,-0.074,0.951,0.911,0.618,0.425,0.286
0.226,0.199,-0.027,-0.213,0.126,0.086,-0.098,0.977,0.945,0.661,0.477,0.347
0.282,0.223,-0.059,-0.252,0.17,0.082,-0.13,0.943,0.928,0.654,0.493,0.383
0.289,0.211,-0.078,-0.25,0.183,0.066,-0.146,0.839,0.841,0.608,0.476,0.395
0.272,0.177,-0.095,-0.224,0.183,0.04,-0.146,0.656,0.669,0.498,0.411,0.374
0.243,0.13,-0.113,-0.186,0.178,0.008,-0.136,0.467,0.478,0.363,0.3,0.303
0.16,0.084,-0.076,-0.122,0.118,0.004,-0.088,0.303,0.315,0.248,0.194,0.215
0.063,0.047,-0.016,-0.055,0.039,0.015,-0.039,0.162,0.177,0.141,0.122,0.132
0.01,0.011,0.001,-0.01,0.004,0.006,-0.005,0.068,0.09,0.066,0.062,0.068
-0.046,-0.028,0.018,0.037,-0.032,-0.005,0.005,0.011,0.034,0.019,0.021,0.024
-0.068,-0.055,0.013,0.061,-0.041,-0.02,0.01,-0.016,-0.004,-0.01,-0.003,0.003
-0.058,-0.049,0.009,0.054,-0.033,-0.02,0.018,-0.042,-0.018,-0.018,-0.021,-0.007
-0.087,-0.057,0.03,0.072,-0.058,-0.013,0.024,-0.065,-0.037,-0.024,-0.035,-0.018
-0.108,-0.073,0.035,0.09,-0.072,-0.018,0.031,-0.065,-0.053,-0.032,-0.048,-0.024
-0.096,-0.069,0.028,0.082,-0.062,-0.02,0.037,-0.065,-0.058,-0.039,-0.05,-0.036
-0.09,-0.07,0.02,0.08,-0.055,-0.025,0.044,-0.063,-0.059,-0.045,-0.05,-0.038
-0.086,-0.071,0.015,0.078,-0.051,-0.027,0.05,-0.059,-0.055,-0.057,-0.05,-0.034
-0.074,-0.068,0.006,0.071,-0.04,-0.031,0.054,-0.061,-0.053,-0.06,-0.05,-0.035
-0.089,-0.08,0.008,0.084,-0.048,-0.036,0.055,-0.056,-0.05,-0.054,-0.05,-0.035
-0.105,-0.089,0.015,0.097,-0.06,-0.037,0.054,-0.055,-0.047,-0.053,-0.045,-0.035
-0.102,-0.079,0.023,0.091,-0.062,-0.028,0.058,-0.055,-0.045,-0.047,-0.045,-0.035
-0.101,-0.073,0.029,0.087,-0.065,-0.022,0.06,-0.05,-0.045,-0.045,-0.044,-0.04
-0.094,-0.069,0.025,0.081,-0.059,-0.022,0.06,-0.051,-0.045,-0.05,-0.04,-0.04
-0.096,-0.07,0.026,0.083,-0.061,-0.021,0.06,-0.049,-0.045,-0.05,-0.04,-0.04
-0.078,-0.063,0.014,0.071,-0.046,-0.024,0.06,-0.045,-0.045,-0.052,-0.04,-0.04
-0.101,-0.068,0.033,0.085,-0.066,-0.017,0.06,-0.046,-0.045,-0.055,-0.04,-0.04
-0.106,-0.087,0.018,0.096,-0.062,-0.034,0.053,-0.043,-0.046,-0.056,-0.04,-0.043
-0.093,-0.084,0.01,0.089,-0.051,-0.037,0.046,-0.04,-0.051,-0.052,-0.04,-0.045
-0.132,-0.074,0.058,0.103,-0.095,-0.008,0.039,-0.039,-0.056,-0.05,-0.04,-0.045
-0.123,-0.072,0.05,0.097,-0.086,-0.011,0.031,-0.051,-0.059,-0.05,-0.04,-0.045
-0.12,-0.075,0.045,0.097,-0.082,-0.015,0.024,-0.066,-0.061,-0.047,-0.051,-0.045
-0.121,-0.078,0.043,0.1,-0.082,-0.018,0.022,-0.074,-0.059,-0.044,-0.056,-0.044
-0.118,-0.082,0.036,0.1,-0.077,-0.023,0.033,-0.075,-0.062,-0.047,-0.054,-0.041
-0.118,-0.083,0.035,0.1,-0.076,-0.024,0.042,-0.076,-0.073,-0.062,-0.055,-0.038
-0.123,-0.094,0.029,0.109,-0.075,-0.032,0.039,-0.084,-0.079,-0.066,-0.055,-0.036
-0.13,-0.102,0.028,0.116,-0.079,-0.037,0.03,-0.086,-0.083,-0.067,-0.055,-0.032
-0.111,-0.089,0.022,0.1,-0.066,-0.034,0.024,-0.084,-0.088,-0.071,-0.06,-0.03
-0.1,-0.079,0.02,0.089,-0.06,-0.029,0.016,-0.086,-0.091,-0.071,-0.064,-0.032
-0.092,-0.079,0.014,0.085,-0.053,-0.032,0.009,-0.094,-0.1,-0.079,-0.069,-0.043
-0.089,-0.08,0.009,0.084,-0.049,-0.035,0.005,-0.105,-0.105,-0.093,-0.07,-0.055
-0.083,-0.08,0.003,0.081,-0.043,-0.038,0.004,-0.114,-0.105,-0.097,-0.07,-0.057
-0.079,-0.079,-0.001,0.079,-0.039,-0.04,0.006,-0.115,-0.104,-0.09,-0.07,-0.054
-0.071,-0.08,-0.01,0.076,-0.03,-0.045,0.004,-0.115,-0.106,-0.085,-0.071,-0.053
-0.074,-0.08,-0.005,0.077,-0.034,-0.042,0.006,-0.114,-0.104,-0.08,-0.069,-0.048
-0.073,-0.08,-0.007,0.077,-0.033,-0.043,0.002,-0.117,-0.109,-0.073,-0.072,-0.056
-0.058,-0.092,-0.034,0.075,-0.012,-0.063,-0.002,-0.13,-0.124,-0.071,-0.085,-0.075
-0.074,-0.094,-0.02,0.084,-0.027,-0.057,0.027,-0.13,-0.126,-0.075,-0.085,-0.072
-0.085,-0.087,-0.002,0.086,-0.041,-0.044,0.044,-0.125,-0.124,-0.075,-0.08,-0.066
-0.085,-0.083,0.001,0.084,-0.043,-0.041,0.038,-0.124,-0.121,-0.077,-0.079,-0.063
-0.105,-0.079,0.025,0.092,-0.065,-0.027,0.034,-0.12,-0.119,-0.08,-0.075,-0.057
-0.109,-0.073,0.036,0.091,-0.072,-0.019,0.029,-0.119,-0.119,-0.08,-0.074,-0.054
-0.117,-0.083,0.033,0.1,-0.075,-0.025,0.025,-0.114,-0.114,-0.076,-0.069,-0.049
-0.136,-0.108,0.028,0.122,-0.082,-0.039,0.02,-0.115,-0.111,-0.069,-0.066,-0.051
-0.132,-0.106,0.026,0.119,-0.079,-0.04,0.023,-0.113,-0.107,-0.062,-0.063,-0.047
-0.12,-0.098,0.022,0.109,-0.071,-0.038,0.026,-0.109,-0.104,-0.056,-0.058,-0.044
-0.112,-0.094,0.018,0.103,-0.064,-0.038,0.029,-0.111,-0.1,-0.049,-0.056,-0.046
-0.118,-0.09,0.028,0.104,-0.073,-0.031,0.033,-0.104,-0.096,-0.043,-0.051,-0.041
-0.118,-0.087,0.031,0.102,-0.074,-0.028,0.034,-0.097,-0.089,-0.041,-0.046,-0.036
-0.117,-0.086,0.031,0.101,-0.074,-0.027,0.04,-0.09,-0.083,-0.036,-0.038,-0.028
-0.073,-0.07,0.003,0.072,-0.037,-0.034,0.051,-0.084,-0.078,-0.037,-0.035,-0.025
-0.045,-0.033,0.012,0.039,-0.028,-0.011,0.049,-0.059,-0.051,-0.025,-0.016,-0.017
-0.043,-0.019,0.024,0.031,-0.033,0.002,0.043,-0.04,-0.045,-0.018,-0.005,-0.013
-0.009,-0.011,-0.003,0.01,-0.003,-0.007,0.052,-0.036,-0.033,0.017,-0.003,0.009
0.015,0.003,-0.011,-0.009,0.013,-0.004,0.048,-0.014,-0.001,0.05,0.027,0.023
0.028,-0.016,-0.044,-0.005,0.036,-0.03,0.031,-0.057,-0.042,0.001,0.017,0.001
-0.001,-0.065,-0.064,0.033,0.032,-0.064,0.031,-0.126,-0.109,-0.062,-0.047,-0.026
-0.003,-0.074,-0.071,0.039,0.034,-0.072,0.029,-0.115,-0.114,-0.056,-0.059,-0.036
-0.039,-0.064,-0.025,0.051,-0.007,-0.044,0.022,-0.104,-0.104,-0.04,-0.045,-0.029
-0.095,-0.093,0.002,0.094,-0.048,-0.045,0.03,-0.117,-0.123,-0.071,-0.069,-0.057
-0.065,-0.102,-0.037,0.083,-0.013,-0.069,0.019,-0.135,-0.14,-0.073,-0.068,-0.062
-0.087,-0.111,-0.024,0.099,-0.031,-0.067,0.032,-0.122,-0.144,-0.083,-0.087,-0.081
-0.088,-0.097,-0.01,0.093,-0.038,-0.053,0.018,-0.108,-0.116,-0.051,-0.059,-0.058
-0.118,-0.114,0.004,0.116,-0.06,-0.055,0.033,-0.116,-0.13,-0.082,-0.094,-0.081
-0.177,-0.075,0.102,0.126,-0.139,0.013,0.092,0.003,-0.012,-0.002,-0.034,-0.084
-0.168,0.008,0.176,0.08,-0.172,0.092,0.166,0.18,0.151,0.112,0.019,-0.077
0.166,0.064,-0.103,-0.115,0.134,-0.019,0.003,0.211,0.297,0.394,0.419,0.322
1.025,0.264,-0.761,-0.644,0.892,-0.248,-0.659,-0.57,-0.013,0.687,1.144,1.269
1.048,0.061,-0.988,-0.554,1.018,-0.463,-0.751,-1.704,-1.273,-0.343,0.269,0.864
0.317,-0.303,-0.62,-0.007,0.469,-0.461,-0.309,-1.754,-1.851,-1.255,-0.818,-0.131
0.023,-0.258,-0.281,0.118,0.153,-0.269,-0.125,-0.968,-1.236,-0.906,-0.655,-0.212
-0.083,-0.177,-0.094,0.131,0.006,-0.135,0.05,-0.193,-0.515,-0.411,-0.359,-0.186
-0.085,-0.126,-0.042,0.106,-0.021,-0.084,0.105,0.076,-0.127,-0.112,-0.138,-0.117
-0.128,-0.114,0.014,0.121,-0.07,-0.05,0.089,0.016,-0.084,-0.071,-0.104,-0.094
-0.149,-0.102,0.047,0.126,-0.097,-0.027,0.093,0.026,-0.039,-0.043,-0.075,-0.094
-0.112,-0.073,0.039,0.092,-0.075,-0.017,0.078,0.032,-0.008,-0.018,-0.049,-0.073
-0.137,-0.068,0.069,0.102,-0.102,0.0,0.08,0.044,0.016,-0.012,-0.052,-0.082
-0.115,-0.059,0.056,0.087,-0.086,-0.001,0.066,0.05,0.049,0.015,-0.028,-0.061
-0.114,-0.06,0.053,0.087,-0.083,-0.003,0.065,0.071,0.051,0.015,-0.031,-0.066
-0.102,-0.053,0.048,0.077,-0.074,-0.002,0.054,0.093,0.082,0.045,-0.008,-0.052
-0.091,-0.051,0.04,0.071,-0.066,-0.005,0.052,0.114,0.104,0.06,-0.004,-0.042
-0.09,-0.047,0.043,0.069,-0.066,-0.002,0.061,0.155,0.141,0.088,0.018,-0.031
-0.069,-0.038,0.031,0.053,-0.05,-0.003,0.058,0.188,0.188,0.118,0.041,-0.018
-0.07,-0.032,0.038,0.051,-0.054,0.003,0.067,0.24,0.227,0.138,0.055,-0.013
-0.024,-0.011,0.014,0.018,-0.019,0.001,0.074,0.301,0.285,0.187,0.084,0.011
-0.004,0.019,0.023,-0.008,-0.014,0.02,0.057,0.382,0.367,0.241,0.128,0.047
-0.019,0.035,0.054,-0.008,-0.037,0.044,0.041,0.476,0.463,0.303,0.177,0.064
0.04,0.05,0.01,-0.045,0.015,0.03,0.03,0.574,0.572,0.389,0.235,0.1
0.063,0.09,0.026,-0.077,0.018,0.058,0.001,0.685,0.686,0.472,0.302,0.144
0.112,0.136,0.024,-0.124,0.044,0.08,-0.041,0.792,0.802,0.56,0.381,0.219
0.177,0.166,-0.011,-0.171,0.094,0.077,-0.08,0.882,0.899,0.645,0.453,0.284
0.218,0.21,-0.008,-0.214,0.113,0.1,-0.113,0.912,0.952,0.69,0.505,0.335
0.271,0.233,-0.038,-0.252,0.154,0.097,-0.138,0.893,0.949,0.697,0.533,0.382
0.28,0.221,-0.059,-0.25,0.169,0.081,-0.168,0.798,0.863,0.659,0.516,0.38
0.285,0.212,-0.073,-0.248,0.179,0.069,-0.161,0.64,0.712,0.563,0.466,0.376
0.241,0.158,-0.083,-0.199,0.162,0.037,-0.12,0.473,0.526,0.436,0.371,0.321
0.162,0.082,-0.08,-0.122,0.121,0.0,-0.077,0.29,0.333,0.294,0.244,0.229
0.098,0.038,-0.06,-0.067,0.078,-0.011,-0.033,0.163,0.197,0.181,0.15,0.139
0.03,0.003,-0.027,-0.016,0.028,-0.011,0.01,0.086,0.1,0.108,0.086,0.059
-0.038,-0.042,-0.004,0.04,-0.017,-0.023,0.044,0.022,0.032,0.047,0.035,0.022
-0.046,-0.042,0.004,0.043,-0.025,-0.019,0.053,-0.023,-0.01,0.015,0.009,-0.014
-0.059,-0.031,0.027,0.045,-0.043,-0.002,0.068,-0.051,-0.045,0.003,-0.002,-0.051
-0.102,-0.063,0.039,0.082,-0.071,-0.011,0.072,-0.052,-0.053,-0.002,-0.007,-0.062
-0.101,-0.076,0.025,0.088,-0.063,-0.025,0.051,-0.067,-0.056,-0.009,-0.015,-0.063
-0.095,-0.093,0.002,0.094,-0.048,-0.045,0.041,-0.077,-0.061,-0.028,-0.023,-0.066
-0.065,-0.097,-0.032,0.081,-0.016,-0.064,0.04,-0.075,-0.059,-0.042,-0.029,-0.07
-0.075,-0.084,-0.01,0.079,-0.032,-0.047,0.04,-0.073,-0.061,-0.04,-0.037,-0.07
-0.092,-0.079,0.012,0.085,-0.052,-0.033,0.036,-0.069,-0.06,-0.037,-0.036,-0.066
-0.086,-0.07,0.016,0.078,-0.051,-0.027,0.034,-0.07,-0.061,-0.035,-0.035,-0.063
-0.108,-0.071,0.037,0.089,-0.073,-0.017,0.036,-0.067,-0.06,-0.03,-0.034,-0.06
-0.106,-0.069,0.038,0.087,-0.072,-0.015,0.04,-0.064,-0.058,-0.031,-0.03,-0.058
-0.105,-0.075,0.03,0.09,-0.068,-0.022,0.043,-0.062,-0.055,-0.035,-0.03,-0.054
-0.111,-0.084,0.027,0.097,-0.069,-0.028,0.047,-0.058,-0.052,-0.035,-0.032,-0.058
-0.09,-0.072,0.019,0.081,-0.054,-0.026,0.05,-0.056,-0.05,-0.035,-0.04,-0.061
-0.08,-0.063,0.017,0.071,-0.048,-0.023,0.054,-0.053,-0.045,-0.036,-0.045,-0.06
-0.097,-0.06,0.037,0.078,-0.067,-0.011,0.067,-0.051,-0.046,-0.035,-0.045,-0.06
-0.097,-0.059,0.038,0.078,-0.067,-0.01,0.068,-0.05,-0.043,-0.038,-0.045,-0.06
-0.105,-0.077,0.028,0.091,-0.066,-0.024,0.06,-0.05,-0.059,-0.04,-0.045,-0.06
-0.108,-0.085,0.024,0.096,-0.066,-0.031,0.057,-0.05,-0.077,-0.04,-0.045,-0.059
-0.09,-0.075,0.015,0.082,-0.052,-0.03,0.049,-0.049,-0.074,-0.044,-0.047,-0.063
-0.08,-0.069,0.011,0.075,-0.045,-0.029,0.045,-0.067,-0.08,-0.045,-0.051,-0.065
-0.079,-0.063,0.015,0.071,-0.047,-0.024,0.057,-0.079,-0.08,-0.045,-0.053,-0.065
-0.081,-0.054,0.027,0.067,-0.054,-0.013,0.061,-0.081,-0.084,-0.05,-0.056,-0.065
-0.095,-0.07,0.025,0.083,-0.06,-0.022,0.056,-0.085,-0.096,-0.052,-0.061,-0.06
-0.124,-0.097,0.028,0.11,-0.076,-0.034,0.055,-0.085,-0.1,-0.057,-0.061,-0.06
-0.127,-0.094,0.033,0.11,-0.079,-0.03,0.05,-0.085,-0.1,-0.06,-0.06,-0.059
-0.121,-0.097,0.024,0.108,-0.072,-0.036,0.05,-0.085,-0.1,-0.055,-0.059,-0.055
-0.118,-0.1,0.018,0.109,-0.068,-0.041,0.055,-0.085,-0.101,-0.055,-0.055,-0.055
-0.108,-0.099,0.009,0.104,-0.059,-0.045,0.059,-0.084,-0.099,-0.054,-0.053,-0.057
-0.103,-0.103,0.0,0.103,-0.051,-0.051,0.064,-0.094,-0.109,-0.05,-0.066,-0.068
-0.085,-0.088,-0.003,0.087,-0.04,-0.045,0.063,-0.102,-0.116,-0.05,-0.077,-0.07
-0.085,-0.077,0.008,0.081,-0.047,-0.034,0.057,-0.099,-0.114,-0.052,-0.074,-0.07
-0.104,-0.083,0.021,0.094,-0.063,-0.031,0.052,-0.1,-0.115,-0.066,-0.075,-0.074
-0.104,-0.085,0.018,0.094,-0.061,-0.033,0.049,-0.1,-0.115,-0.071,-0.075,-0.075
-0.1,-0.085,0.015,0.092,-0.057,-0.035,0.043,-0.1,-0.115,-0.069,-0.075,-0.074
-0.096,-0.085,0.011,0.09,-0.053,-0.036,0.041,-0.096,-0.111,-0.074,-0.072,-0.071
-0.088,-0.08,0.008,0.084,-0.048,-0.036,0.044,-0.095,-0.106,-0.075,-0.066,-0.07
-0.084,-0.081,0.004,0.082,-0.044,-0.038,0.047,-0.094,-0.101,-0.075,-0.062,-0.07
-0.085,-0.078,0.006,0.081,-0.045,-0.036,0.05,-0.091,-0.098,-0.07,-0.057,-0.07
-0.087,-0.085,0.002,0.086,-0.045,-0.041,0.052,-0.089,-0.091,-0.07,-0.052,-0.07
-0.101,-0.094,0.006,0.097,-0.053,-0.044,0.056,-0.095,-0.095,-0.069,-0.05,-0.072
-0.103,-0.084,0.019,0.093,-0.061,-0.033,0.052,-0.106,-0.107,-0.065,-0.058,-0.076
-0.078,-0.078,0.0,0.078,-0.039,-0.039,0.046,-0.1,-0.101,-0.065,-0.057,-0.075
-0.079,-0.071,0.009,0.075,-0.044,-0.031,0.039,-0.095,-0.098,-0.065,-0.049,-0.076
-0.09,-0.064,0.026,0.077,-0.058,-0.019,0.033,-0.091,-0.094,-0.064,-0.046,-0.075
-0.084,-0.057,0.027,0.07,-0.055,-0.015,0.026,-0.086,-0.09,-0.065,-0.038,-0.075
-0.079,-0.051,0.028,0.065,-0.053,-0.011,0.019,-0.079,-0.085,-0.065,-0.034,-0.063
-0.078,-0.044,0.034,0.061,-0.056,-0.005,0.038,-0.056,-0.057,-0.041,-0.028,-0.045
-0.064,-0.038,0.027,0.051,-0.045,-0.005,0.045,-0.031,-0.033,-0.005,-0.019,-0.036
-0.01,-0.029,-0.019,0.02,0.005,-0.024,0.017,0.002,-0.005,0.022,0.004,-0.004
0.044,0.006,-0.038,-0.024,0.041,-0.016,-0.032,-0.013,-0.014,0.0,0.026,0.01
0.026,-0.015,-0.041,-0.005,0.033,-0.028,-0.046,-0.104,-0.093,-0.058,-0.009,-0.021
-0.019,-0.06,-0.04,0.04,0.011,-0.05,0.0,-0.129,-0.128,-0.086,-0.057,-0.057
-0.036,-0.062,-0.026,0.049,-0.005,-0.043,0.01,-0.114,-0.113,-0.076,-0.048,-0.057
-0.099,-0.081,0.018,0.09,-0.058,-0.031,0.021,-0.12,-0.127,-0.091,-0.072,-0.076
-0.105,-0.08,0.025,0.092,-0.065,-0.027,0.026,-0.104,-0.124,-0.088,-0.072,-0.079
-0.088,-0.104,-0.016,0.096,-0.035,-0.06,0.024,-0.114,-0.14,-0.1,-0.085,-0.088
-0.103,-0.094,0.009,0.099,-0.055,-0.042,0.042,-0.091,-0.119,-0.087,-0.078,-0.094
-0.09,-0.09,0.001,0.09,-0.045,-0.044,0.019,-0.106,-0.124,-0.078,-0.063,-0.082
-0.131,-0.091,0.039,0.111,-0.085,-0.026,0.061,-0.066,-0.088,-0.087,-0.086,-0.12
-0.161,0.024,0.185,0.068,-0.173,0.104,0.126,0.089,0.087,0.047,0.004,-0.09
-0.099,0.012,0.111,0.043,-0.105,0.062,0.144,0.262,0.229,0.19,0.114,-0.009
0.566,0.211,-0.355,-0.388,0.461,-0.072,-0.314,-0.012,0.328,0.703,0.962,0.884
1.114,0.307,-0.807,-0.71,0.96,-0.249,-0.819,-1.075,-0.518,0.389,1.033,1.355
0.604,-0.111,-0.715,-0.246,0.659,-0.413,-0.526,-1.651,-1.651,-0.945,-0.394,0.303
0.081,-0.28,-0.361,0.1,0.222,-0.32,-0.206,-1.231,-1.531,-1.162,-0.798,-0.251
-0.068,-0.207,-0.139,0.138,0.036,-0.173,-0.073,-0.467,-0.811,-0.64,-0.481,-0.223
-0.088,-0.117,-0.029,0.103,-0.029,-0.072,0.078,0.064,-0.235,-0.231,-0.224,-0.168
-0.068,-0.06,0.008,0.064,-0.037,-0.026,0.083,0.072,-0.057,-0.075,-0.076,-0.082
-0.108,-0.067,0.041,0.087,-0.075,-0.013,0.067,0.032,-0.045,-0.084,-0.092,-0.109
-0.118,-0.052,0.065,0.085,-0.092,0.006,0.055,0.053,0.0,-0.027,-0.038,-0.08
-0.114,-0.051,0.063,0.082,-0.088,0.006,0.054,0.064,0.024,-0.007,-0.044,-0.089
-0.094,-0.035,0.059,0.065,-0.076,0.012,0.047,0.07,0.056,0.014,-0.02,-0.074
-0.087,-0.031,0.056,0.058,-0.071,0.012,0.045,0.072,0.069,0.007,-0.018,-0.069
-0.081,-0.028,0.053,0.054,-0.066,0.012,0.037,0.095,0.1,0.026,-0.009,-0.064
-0.072,-0.023,0.049,0.047,-0.06,0.013,0.043,0.115,0.114,0.052,0.005,-0.053
-0.068,-0.022,0.046,0.045,-0.057,0.011,0.061,0.147,0.141,0.075,0.019,-0.047
-0.058,-0.013,0.045,0.035,-0.051,0.015,0.051,0.166,0.173,0.095,0.04,-0.033
-0.036,0.008,0.044,0.014,-0.04,0.026,0.046,0.208,0.221,0.124,0.054,-0.02
-0.008,0.032,0.04,-0.012,-0.024,0.035,0.039,0.261,0.279,0.17,0.092,0.008
0.013,0.053,0.04,-0.033,-0.014,0.046,0.032,0.327,0.344,0.215,0.125,0.025
0.022,0.06,0.038,-0.041,-0.009,0.049,0.023,0.398,0.43,0.277,0.165,0.05
0.055,0.081,0.026,-0.069,0.014,0.053,0.014,0.48,0.527,0.352,0.219,0.085
0.073,0.112,0.038,-0.093,0.017,0.075,0.008,0.586,0.643,0.434,0.281,0.126
0.107,0.148,0.041,-0.128,0.033,0.095,-0.016,0.683,0.754,0.521,0.356,0.185
0.178,0.194,0.016,-0.186,0.081,0.105,-0.036,0.779,0.865,0.616,0.438,0.256
0.212,0.225,0.014,-0.219,0.099,0.119,-0.075,0.833,0.936,0.682,0.503,0.318
0.248,0.265,0.017,-0.257,0.115,0.141,-0.121,0.818,0.936,0.702,0.535,0.366
0.279,0.268,-0.011,-0.274,0.145,0.129,-0.152,0.769,0.895,0.685,0.541,0.396
0.287,0.25,-0.037,-0.268,0.161,0.106,-0.165,0.656,0.777,0.615,0.506,0.393
0.253,0.224,-0.029,-0.239,0.141,0.097,-0.151,0.494,0.597,0.485,0.416,0.343
0.197,0.175,-0.022,-0.185,0.109,0.076,-0.13,0.346,0.412,0.346,0.308,0.258
0.135,0.119,-0.016,-0.127,0.076,0.051,-0.091,0.218,0.26,0.223,0.205,0.17
0.07,0.063,-0.007,-0.066,0.038,0.028,-0.048,0.129,0.154,0.127,0.122,0.092
0.017,0.019,0.002,-0.018,0.007,0.01,-0.016,0.071,0.077,0.07,0.066,0.038
-0.025,-0.011,0.013,0.018,-0.019,0.001,-0.004,0.027,0.028,0.031,0.022,-0.001
-0.051,-0.023,0.027,0.037,-0.039,0.002,0.0,-0.001,-0.002,0.0,-0.004,-0.021
-0.071,-0.03,0.041,0.051,-0.056,0.005,0.008,-0.023,-0.017,-0.023,-0.017,-0.035
-0.077,-0.041,0.036,0.058,-0.056,-0.002,0.014,-0.026,-0.03,-0.038,-0.028,-0.042
-0.079,-0.049,0.031,0.064,-0.055,-0.009,0.02,-0.024,-0.036,-0.04,-0.03,-0.038
-0.077,-0.051,0.027,0.064,-0.052,-0.012,0.028,-0.026,-0.035,-0.04,-0.03,-0.047
-0.068,-0.049,0.019,0.059,-0.043,-0.015,0.036,-0.025,-0.035,-0.04,-0.033,-0.055
-0.067,-0.05,0.017,0.058,-0.042,-0.016,0.035,-0.024,-0.035,-0.04,-0.036,-0.055
-0.051,-0.05,0.001,0.05,-0.026,-0.024,0.035,-0.019,-0.035,-0.04,-0.034,-0.059
-0.045,-0.05,-0.005,0.048,-0.02,-0.027,0.035,-0.016,-0.032,-0.036,-0.031,-0.061
-0.071,-0.052,0.019,0.061,-0.044,-0.016,0.034,-0.013,-0.026,-0.032,-0.03,-0.056
-0.081,-0.051,0.031,0.066,-0.056,-0.01,0.037,-0.008,-0.022,-0.029,-0.029,-0.055
-0.08,-0.045,0.034,0.062,-0.056,-0.006,0.04,-0.005,-0.018,-0.025,-0.025,-0.055
-0.08,-0.041,0.039,0.06,-0.059,-0.001,0.04,-0.008,-0.012,-0.02,-0.025,-0.051
-0.082,-0.042,0.04,0.062,-0.061,-0.001,0.04,-0.013,-0.011,-0.022,-0.028,-0.049
-0.086,-0.045,0.04,0.065,-0.062,-0.002,0.04,-0.015,-0.017,-0.026,-0.03,-0.052
-0.088,-0.048,0.04,0.068,-0.064,-0.004,0.04,-0.02,-0.021,-0.028,-0.034,-0.055
-0.091,-0.051,0.04,0.071,-0.066,-0.005,0.037,-0.023,-0.025,-0.031,-0.036,-0.055
-0.094,-0.054,0.04,0.074,-0.066,-0.007,0.031,-0.027,-0.03,-0.034,-0.04,-0.055
-0.095,-0.055,0.04,0.075,-0.067,-0.007,0.027,-0.03,-0.034,-0.036,-0.04,-0.055
-0.072,-0.037,0.035,0.054,-0.053,-0.001,0.023,-0.03,-0.039,-0.039,-0.035,-0.055
-0.046,-0.014,0.032,0.03,-0.039,0.008,0.017,-0.035,-0.04,-0.04,-0.035,-0.051
-0.045,-0.017,0.028,0.031,-0.036,0.005,0.016,-0.035,-0.04,-0.041,-0.035,-0.049
-0.058,-0.033,0.025,0.045,-0.041,-0.004,0.02,-0.038,-0.04,-0.045,-0.035,-0.05
-0.057,-0.036,0.021,0.047,-0.039,-0.007,0.02,-0.04,-0.041,-0.045,-0.035,-0.05
-0.045,-0.034,0.01,0.039,-0.027,-0.012,0.019,-0.04,-0.046,-0.045,-0.037,-0.05
-0.058,-0.035,0.023,0.047,-0.04,-0.006,0.029,-0.045,-0.049,-0.045,-0.04,-0.05
-0.067,-0.035,0.032,0.051,-0.049,-0.001,0.03,-0.045,-0.051,-0.045,-0.04,-0.05
-0.059,-0.035,0.024,0.046,-0.041,-0.005,0.023,-0.046,-0.049,-0.046,-0.04,-0.05
-0.069,-0.046,0.023,0.057,-0.046,-0.011,0.02,-0.054,-0.06,-0.044,-0.04,-0.05
-0.076,-0.058,0.018,0.067,-0.047,-0.02,0.015,-0.066,-0.073,-0.047,-0.045,-0.05
-0.068,-0.054,0.014,0.061,-0.041,-0.02,0.01,-0.075,-0.07,-0.051,-0.045,-0.05
-0.072,-0.049,0.023,0.06,-0.047,-0.012,0.007,-0.068,-0.066,-0.05,-0.045,-0.054
-0.075,-0.044,0.032,0.059,-0.053,-0.006,0.004,-0.06,-0.064,-0.05,-0.045,-0.055
-0.068,-0.038,0.03,0.053,-0.048,-0.004,0.001,-0.055,-0.06,-0.05,-0.045,-0.055
-0.061,-0.032,0.03,0.047,-0.045,-0.001,-0.002,-0.045,-0.055,-0.05,-0.048,-0.055
-0.063,-0.032,0.03,0.047,-0.046,-0.001,-0.005,-0.054,-0.057,-0.054,-0.05,-0.054
-0.066,-0.036,0.029,0.051,-0.047,-0.003,-0.004,-0.066,-0.065,-0.06,-0.053,-0.057
-0.07,-0.038,0.032,0.054,-0.051,-0.003,0.001,-0.064,-0.07,-0.06,-0.056,-0.06
-0.097,-0.062,0.035,0.079,-0.066,-0.013,-0.001,-0.067,-0.07,-0.06,-0.059,-0.06
-0.105,-0.07,0.035,0.087,-0.07,-0.017,0.003,-0.071,-0.07,-0.06,-0.06,-0.06
-0.1,-0.06,0.04,0.08,-0.07,-0.01,0.006,-0.07,-0.072,-0.06,-0.055,-0.06
-0.094,-0.055,0.039,0.074,-0.066,-0.008,0.004,-0.067,-0.075,-0.061,-0.056,-0.06
-0.088,-0.047,0.042,0.067,-0.065,-0.002,0.006,-0.062,-0.078,-0.056,-0.053,-0.057
-0.104,-0.05,0.055,0.077,-0.079,0.002,0.004,-0.059,-0.081,-0.055,-0.05,-0.054
-0.099,-0.05,0.049,0.074,-0.074,0.0,0.007,-0.057,-0.084,-0.055,-0.05,-0.051
-0.09,-0.047,0.043,0.068,-0.066,-0.002,-0.001,-0.05,-0.085,-0.055,-0.048,-0.048
-0.083,-0.044,0.039,0.063,-0.061,-0.002,-0.01,-0.053,-0.08,-0.056,-0.043,-0.045
-0.071,-0.042,0.03,0.056,-0.051,-0.006,-0.003,-0.067,-0.075,-0.053,-0.037,-0.046
-0.075,-0.038,0.037,0.057,-0.056,-0.001,0.002,-0.063,-0.071,-0.067,-0.035,-0.054
-0.079,-0.036,0.043,0.057,-0.061,0.004,0.009,-0.05,-0.065,-0.071,-0.026,-0.054
-0.057,-0.02,0.037,0.038,-0.047,0.008,0.011,-0.046,-0.059,-0.061,-0.029,-0.048
-0.031,0.027,0.058,0.002,-0.045,0.043,0.023,-0.033,-0.024,-0.04,-0.026,-0.037
-0.015,0.04,0.055,-0.013,-0.035,0.048,0.036,-0.028,-0.009,-0.011,0.003,-0.025
0.003,0.026,0.024,-0.015,-0.011,0.025,0.017,-0.005,0.0,0.017,0.034,-0.008
0.023,0.018,-0.005,-0.02,0.013,0.007,-0.03,0.031,0.025,0.006,0.022,0.001
0.034,0.005,-0.029,-0.019,0.032,-0.012,-0.056,-0.043,-0.034,-0.036,-0.002,0.007
0.007,-0.026,-0.033,0.01,0.02,-0.029,-0.024,-0.099,-0.089,-0.062,-0.032,-0.023
-0.009,-0.04,-0.031,0.025,0.011,-0.035,-0.011,-0.084,-0.076,-0.073,-0.034,-0.041
-0.058,-0.039,0.019,0.049,-0.038,-0.01,-0.011,-0.087,-0.079,-0.076,-0.022,-0.03
-0.065,-0.042,0.023,0.054,-0.044,-0.009,0.004,-0.092,-0.097,-0.08,-0.054,-0.055
-0.034,-0.039,-0.005,0.037,-0.014,-0.022,-0.004,-0.118,-0.117,-0.09,-0.065,-0.06
-0.095,-0.053,0.043,0.074,-0.068,-0.005,0.001,-0.101,-0.115,-0.1,-0.081,-0.076
-0.059,-0.033,0.027,0.046,-0.043,-0.003,-0.014,-0.096,-0.088,-0.065,-0.043,-0.049
-0.066,-0.053,0.013,0.059,-0.04,-0.02,0.031,-0.087,-0.11,-0.1,-0.09,-0.091
-0.149,0.0,0.149,0.075,-0.149,0.074,0.078,0.052,0.049,0.023,-0.008,-0.075
-0.156,0.03,0.187,0.063,-0.172,0.108,0.131,0.22,0.184,0.11,0.041,-0.066
0.328,0.169,-0.16,-0.248,0.244,0.004,-0.147,0.098,0.278,0.503,0.653,0.545
1.123,0.393,-0.73,-0.757,0.926,-0.168,-0.782,-0.759,-0.118,0.73,1.326,1.468
0.939,0.031,-0.908,-0.485,0.923,-0.438,-0.723,-1.637,-1.397,-0.558,0.102,0.752
0.316,-0.285,-0.601,-0.016,0.459,-0.443,-0.348,-1.485,-1.741,-1.279,-0.823,-0.137
0.068,-0.188,-0.256,0.06,0.162,-0.221,-0.183,-0.675,-0.983,-0.758,-0.514,-0.141
-0.039,-0.087,-0.048,0.063,0.004,-0.067,0.018,-0.02,-0.337,-0.317,-0.275,-0.158
-0.021,-0.023,-0.003,0.022,-0.009,-0.013,0.074,0.122,-0.047,-0.073,-0.091,-0.088
-0.064,-0.031,0.033,0.047,-0.049,0.001,0.073,0.075,-0.037,-0.067,-0.081,-0.083
-0.081,-0.013,0.068,0.047,-0.075,0.027,0.07,0.089,0.011,-0.029,-0.034,-0.073
-0.068,-0.005,0.063,0.036,-0.066,0.029,0.064,0.079,0.046,-0.011,-0.027,-0.063
-0.072,-0.002,0.07,0.036,-0.071,0.034,0.064,0.078,0.066,-0.003,-0.025,-0.064
-0.064,0.011,0.075,0.027,-0.07,0.042,0.056,0.093,0.084,0.023,-0.005,-0.047
-0.085,0.011,0.096,0.037,-0.091,0.053,0.057,0.124,0.102,0.033,-0.005,-0.051
-0.055,0.023,0.078,0.016,-0.067,0.05,0.051,0.134,0.133,0.055,0.025,-0.037
-0.063,0.018,0.082,0.023,-0.072,0.05,0.051,0.15,0.147,0.056,0.022,-0.037
-0.08,0.013,0.093,0.033,-0.087,0.053,0.046,0.187,0.181,0.09,0.044,-0.029
-0.038,0.043,0.08,-0.003,-0.059,0.061,0.045,0.225,0.223,0.126,0.069,-0.022
-0.037,0.046,0.084,-0.005,-0.061,0.065,0.041,0.274,0.273,0.16,0.092,-0.003
-0.023,0.051,0.074,-0.014,-0.049,0.062,0.035,0.332,0.334,0.206,0.117,0.021
0.008,0.083,0.075,-0.046,-0.034,0.079,0.029,0.41,0.417,0.263,0.154,0.043
0.016,0.103,0.087,-0.06,-0.036,0.095,0.024,0.501,0.514,0.33,0.205,0.071
0.041,0.128,0.087,-0.085,-0.023,0.107,0.018,0.616,0.628,0.416,0.261,0.11
0.082,0.16,0.078,-0.121,0.001,0.119,-0.01,0.733,0.743,0.513,0.337,0.163
0.146,0.221,0.075,-0.184,0.035,0.148,-0.036,0.845,0.857,0.595,0.41,0.223
0.191,0.258,0.067,-0.225,0.062,0.162,-0.062,0.93,0.95,0.678,0.483,0.29
0.221,0.271,0.049,-0.246,0.086,0.16,-0.109,0.948,0.987,0.717,0.533,0.347
0.263,0.284,0.021,-0.274,0.121,0.153,-0.143,0.912,0.958,0.694,0.539,0.384
0.295,0.279,-0.017,-0.287,0.156,0.131,-0.164,0.787,0.841,0.642,0.521,0.393
0.312,0.265,-0.048,-0.288,0.18,0.108,-0.184,0.619,0.681,0.536,0.458,0.371
0.262,0.208,-0.054,-0.235,0.158,0.077,-0.163,0.441,0.49,0.395,0.351,0.305
0.157,0.134,-0.024,-0.145,0.091,0.054,-0.11,0.271,0.307,0.257,0.232,0.201
0.062,0.078,0.016,-0.07,0.022,0.047,-0.07,0.16,0.174,0.158,0.148,0.119
0.006,0.038,0.033,-0.023,-0.013,0.035,-0.039,0.089,0.085,0.09,0.09,0.06
-0.02,0.013,0.033,0.003,-0.027,0.023,-0.018,0.042,0.042,0.044,0.04,0.012
-0.05,-0.001,0.049,0.026,-0.05,0.024,-0.003,0.009,0.01,0.022,0.016,-0.014
-0.064,-0.011,0.053,0.038,-0.058,0.02,0.01,-0.008,-0.014,0.008,0.004,-0.035
-0.082,-0.038,0.044,0.06,-0.062,0.003,0.016,-0.014,-0.026,-0.001,-0.002,-0.043
-0.085,-0.045,0.04,0.065,-0.062,-0.002,0.014,-0.021,-0.032,-0.009,-0.006,-0.046
-0.068,-0.034,0.034,0.05,-0.051,0.0,0.016,-0.029,-0.038,-0.02,-0.013,-0.05
-0.057,-0.028,0.028,0.042,-0.042,0.0,0.013,-0.031,-0.038,-0.035,-0.018,-0.045
-0.063,-0.017,0.046,0.04,-0.054,0.014,0.018,-0.025,-0.034,-0.037,-0.018,-0.045
-0.09,-0.018,0.071,0.054,-0.08,0.026,0.031,-0.02,-0.036,-0.031,-0.014,-0.045
-0.092,-0.025,0.066,0.058,-0.079,0.02,0.028,-0.017,-0.031,-0.029,-0.016,-0.045
-0.1,-0.037,0.063,0.068,-0.081,0.013,0.025,-0.01,-0.03,-0.024,-0.021,-0.045
-0.106,-0.046,0.06,0.076,-0.083,0.006,0.022,-0.014,-0.03,-0.022,-0.02,-0.045
-0.095,-0.04,0.055,0.067,-0.075,0.007,0.02,-0.027,-0.025,-0.017,-0.02,-0.045
-0.091,-0.038,0.053,0.065,-0.072,0.007,0.018,-0.026,-0.025,-0.015,-0.017,-0.045
-0.081,-0.033,0.048,0.057,-0.064,0.007,0.015,-0.025,-0.025,-0.015,-0.014,-0.045
-0.075,-0.03,0.045,0.052,-0.06,0.007,0.012,-0.024,-0.026,-0.015,-0.016,-0.045
-0.081,-0.039,0.042,0.06,-0.062,0.002,0.009,-0.02,-0.025,-0.015,-0.019,-0.045
-0.075,-0.038,0.036,0.056,-0.055,-0.001,0.033,-0.019,-0.028,-0.014,-0.024,-0.051
-0.07,-0.033,0.037,0.051,-0.053,0.002,0.042,-0.024,-0.037,-0.035,-0.028,-0.058
-0.084,-0.03,0.054,0.056,-0.069,0.012,0.031,-0.03,-0.041,-0.051,-0.03,-0.06
-0.081,-0.026,0.055,0.053,-0.068,0.015,0.027,-0.03,-0.04,-0.051,-0.03,-0.06
-0.077,-0.023,0.054,0.05,-0.065,0.015,0.019,-0.035,-0.045,-0.055,-0.03,-0.06
-0.071,-0.02,0.051,0.046,-0.061,0.015,0.012,-0.035,-0.06,-0.057,-0.031,-0.06
-0.066,-0.017,0.049,0.042,-0.057,0.015,0.012,-0.044,-0.066,-0.06,-0.034,-0.06
-0.066,-0.015,0.052,0.04,-0.058,0.018,0.023,-0.044,-0.07,-0.062,-0.037,-0.065
-0.048,-0.017,0.031,0.033,-0.04,0.007,0.032,-0.039,-0.078,-0.065,-0.04,-0.065
-0.076,-0.024,0.051,0.05,-0.063,0.013,0.03,-0.056,-0.081,-0.065,-0.041,-0.065
-0.107,-0.031,0.077,0.069,-0.092,0.023,0.025,-0.06,-0.078,-0.065,-0.038,-0.064
-0.102,-0.038,0.065,0.07,-0.083,0.013,0.021,-0.069,-0.087,-0.072,-0.049,-0.073
-0.105,-0.044,0.061,0.074,-0.083,0.008,0.016,-0.078,-0.097,-0.073,-0.056,-0.082
-0.092,-0.038,0.054,0.065,-0.073,0.008,0.011,-0.074,-0.094,-0.07,-0.055,-0.077
-0.077,-0.03,0.047,0.053,-0.062,0.008,0.008,-0.075,-0.095,-0.07,-0.053,-0.075
-0.063,-0.022,0.041,0.042,-0.052,0.01,0.003,-0.072,-0.095,-0.07,-0.049,-0.071
-0.05,-0.016,0.033,0.033,-0.041,0.008,0.0,-0.069,-0.095,-0.07,-0.05,-0.07
-0.039,-0.009,0.03,0.024,-0.034,0.011,-0.003,-0.071,-0.098,-0.07,-0.046,-0.067
-0.051,-0.003,0.048,0.027,-0.049,0.022,-0.008,-0.068,-0.102,-0.074,-0.045,-0.065
-0.063,0.004,0.067,0.029,-0.065,0.035,-0.01,-0.074,-0.105,-0.075,-0.045,-0.065
-0.054,0.011,0.065,0.021,-0.059,0.037,-0.005,-0.085,-0.109,-0.075,-0.041,-0.06
-0.084,-0.02,0.064,0.051,-0.073,0.022,-0.002,-0.085,-0.109,-0.075,-0.039,-0.06
-0.086,-0.019,0.067,0.052,-0.076,0.024,0.001,-0.083,-0.105,-0.074,-0.042,-0.06
-0.058,0.003,0.062,0.027,-0.06,0.032,0.005,-0.08,-0.103,-0.078,-0.046,-0.06
-0.078,-0.008,0.07,0.043,-0.074,0.031,0.009,-0.08,-0.099,-0.08,-0.045,-0.06
-0.081,-0.017,0.063,0.049,-0.072,0.022,0.012,-0.078,-0.097,-0.08,-0.045,-0.06
-0.078,-0.027,0.051,0.052,-0.064,0.012,0.016,-0.074,-0.095,-0.08,-0.045,-0.06
-0.085,-0.024,0.061,0.054,-0.073,0.018,0.018,-0.075,-0.091,-0.081,-0.045,-0.06
-0.085,-0.014,0.071,0.05,-0.078,0.028,0.021,-0.075,-0.085,-0.079,-0.044,-0.057
-0.094,-0.008,0.086,0.051,-0.09,0.039,0.024,-0.074,-0.08,-0.076,-0.038,-0.049
-0.082,-0.003,0.08,0.042,-0.081,0.038,0.026,-0.074,-0.074,-0.073,-0.031,-0.043
-0.074,0.002,0.076,0.035,-0.075,0.039,0.03,-0.069,-0.067,-0.07,-0.023,-0.036
-0.067,0.004,0.071,0.032,-0.069,0.037,0.033,-0.061,-0.064,-0.065,-0.019,-0.029
-0.037,0.03,0.067,0.003,-0.053,0.048,0.039,-0.044,-0.033,-0.037,-0.002,-0.023
0.003,0.065,0.062,-0.034,-0.03,0.064,0.036,-0.016,-0.01,-0.013,0.015,-0.019
0.015,0.073,0.058,-0.044,-0.022,0.065,0.019,0.016,-0.001,0.019,0.036,-0.002
0.018,0.074,0.057,-0.047,-0.02,0.065,-0.01,0.007,0.001,0.02,0.023,0.013
0.021,0.049,0.028,-0.035,-0.003,0.038,-0.039,-0.073,-0.071,-0.045,-0.016,-0.007
0.01,0.023,0.013,-0.016,-0.002,0.018,-0.032,-0.106,-0.115,-0.086,-0.052,-0.042
0.038,0.023,-0.015,-0.031,0.026,0.004,-0.031,-0.095,-0.11,-0.093,-0.049,-0.051
-0.039,0.006,0.045,0.016,-0.042,0.025,-0.014,-0.105,-0.137,-0.123,-0.058,-0.076
-0.081,0.005,0.086,0.038,-0.084,0.045,0.01,-0.104,-0.117,-0.102,-0.072,-0.067
-0.055,-0.017,0.038,0.036,-0.046,0.01,0.022,-0.126,-0.124,-0.107,-0.09,-0.068
-0.102,-0.03,0.072,0.066,-0.087,0.02,0.038,-0.117,-0.11,-0.099,-0.087,-0.071
-0.069,-0.025,0.044,0.047,-0.056,0.01,0.018,-0.118,-0.107,-0.085,-0.074,-0.05
-0.089,-0.01,0.079,0.049,-0.084,0.034,0.053,-0.056,-0.1,-0.102,-0.108,-0.097
-0.144,0.084,0.228,0.03,-0.187,0.155,0.098,0.106,0.076,0.031,-0.014,-0.071
-0.108,0.07,0.178,0.019,-0.143,0.123,0.125,0.237,0.196,0.138,0.077,-0.017
0.574,0.251,-0.324,-0.412,0.449,-0.037,-0.335,-0.052,0.257,0.615,0.871,0.824
1.212,0.333,-0.879,-0.772,1.046,-0.273,-0.875,-1.135,-0.535,0.36,1.005,1.342
0.701,-0.112,-0.813,-0.294,0.757,-0.462,-0.604,-1.821,-1.733,-0.983,-0.415,0.319
0.157,-0.296,-0.453,0.07,0.305,-0.374,-0.295,-1.372,-1.628,-1.216,-0.845,-0.236
-0.013,-0.166,-0.153,0.09,0.07,-0.159,-0.128,-0.511,-0.825,-0.655,-0.484,-0.186
-0.086,-0.071,0.015,0.078,-0.05,-0.028,0.048,0.04,-0.254,-0.253,-0.239,-0.156
-0.082,-0.026,0.056,0.054,-0.069,0.015,0.05,0.045,-0.076,-0.087,-0.098,-0.083
-0.116,-0.011,0.105,0.063,-0.11,0.047,0.056,0.022,-0.052,-0.086,-0.109,-0.11
-0.094,0.01,0.103,0.042,-0.099,0.056,0.048,0.053,0.006,-0.04,-0.064,-0.08
-0.116,-0.004,0.113,0.06,-0.115,0.054,0.047,0.039,0.009,-0.046,-0.076,-0.087
-0.127,-0.007,0.119,0.067,-0.123,0.055,0.046,0.076,0.04,-0.021,-0.053,-0.071
-0.107,0.0,0.107,0.053,-0.107,0.053,0.044,0.078,0.049,-0.01,-0.046,-0.062
-0.08,0.024,0.104,0.028,-0.092,0.063,0.046,0.092,0.076,0.001,-0.034,-0.055
-0.056,0.037,0.093,0.009,-0.075,0.065,0.061,0.122,0.107,0.027,-0.02,-0.04
-0.047,0.04,0.087,0.003,-0.067,0.063,0.059,0.151,0.127,0.05,-0.006,-0.037
-0.049,0.04,0.089,0.004,-0.069,0.065,0.036,0.188,0.165,0.072,0.021,-0.023
-0.05,0.039,0.089,0.006,-0.069,0.064,0.029,0.229,0.203,0.096,0.034,-0.018
-0.026,0.08,0.105,-0.027,-0.066,0.092,0.02,0.293,0.267,0.143,0.069,0.002
-0.008,0.104,0.112,-0.048,-0.06,0.108,0.015,0.355,0.336,0.189,0.098,0.022
0.026,0.108,0.081,-0.067,-0.028,0.094,0.005,0.436,0.417,0.244,0.136,0.043
0.035,0.134,0.099,-0.085,-0.032,0.116,0.0,0.544,0.521,0.322,0.193,0.08
0.055,0.162,0.107,-0.109,-0.027,0.135,-0.009,0.663,0.635,0.408,0.255,0.123
0.113,0.199,0.086,-0.157,0.014,0.142,-0.019,0.791,0.758,0.5,0.335,0.183
0.162,0.237,0.076,-0.2,0.043,0.156,-0.048,0.898,0.867,0.579,0.405,0.242
0.216,0.276,0.06,-0.246,0.078,0.167,-0.097,0.954,0.929,0.634,0.461,0.294
0.267,0.31,0.044,-0.289,0.111,0.177,-0.131,0.953,0.939,0.665,0.497,0.345
0.287,0.304,0.017,-0.296,0.134,0.161,-0.16,0.894,0.894,0.645,0.495,0.366
0.295,0.276,-0.02,-0.285,0.157,0.128,-0.173,0.745,0.768,0.569,0.463,0.357
0.281,0.251,-0.031,-0.266,0.156,0.11,-0.152,0.563,0.585,0.447,0.382,0.329
0.201,0.186,-0.014,-0.193,0.107,0.086,-0.109,0.394,0.403,0.309,0.275,0.26
0.113,0.115,0.002,-0.114,0.055,0.058,-0.064,0.236,0.247,0.189,0.173,0.157
0.044,0.083,0.039,-0.064,0.002,0.061,-0.028,0.125,0.129,0.096,0.085,0.078
0.004,0.064,0.06,-0.034,-0.029,0.062,-0.003,0.056,0.057,0.036,0.036,0.029
-0.019,0.053,0.072,-0.017,-0.046,0.062,0.007,0.008,0.014,0.008,0.006,-0.002
-0.052,0.042,0.094,0.005,-0.074,0.068,0.01,-0.031,-0.013,-0.015,-0.023,-0.023
-0.06,0.029,0.089,0.015,-0.075,0.059,0.015,-0.045,-0.027,-0.038,-0.036,-0.04
-0.062,0.022,0.083,0.02,-0.072,0.052,0.02,-0.051,-0.047,-0.053,-0.044,-0.05
-0.061,0.017,0.078,0.022,-0.07,0.048,0.017,-0.057,-0.056,-0.06,-0.055,-0.059
-0.057,0.014,0.071,0.021,-0.065,0.043,0.011,-0.054,-0.055,-0.06,-0.055,-0.06
-0.06,0.01,0.07,0.025,-0.065,0.04,0.006,-0.055,-0.055,-0.062,-0.055,-0.06
-0.063,0.007,0.07,0.028,-0.067,0.038,0.003,-0.055,-0.055,-0.065,-0.055,-0.065
-0.067,0.003,0.07,0.032,-0.069,0.036,-0.003,-0.055,-0.055,-0.066,-0.055,-0.065
-0.069,0.0,0.07,0.034,-0.069,0.035,-0.004,-0.053,-0.055,-0.062,-0.055,-0.066
-0.073,-0.003,0.07,0.038,-0.071,0.033,0.001,-0.047,-0.055,-0.06,-0.05,-0.07
-0.075,-0.005,0.07,0.04,-0.072,0.032,0.004,-0.043,-0.055,-0.06,-0.05,-0.07
-0.084,-0.009,0.075,0.046,-0.079,0.033,0.007,-0.039,-0.055,-0.057,-0.05,-0.07
-0.088,-0.011,0.078,0.049,-0.083,0.033,0.012,-0.034,-0.055,-0.054,-0.05,-0.07
-0.09,-0.006,0.084,0.048,-0.087,0.039,0.015,-0.03,-0.055,-0.056,-0.05,-0.07
-0.1,-0.005,0.096,0.052,-0.097,0.045,0.011,-0.036,-0.055,-0.06,-0.052,-0.074
-0.1,-0.005,0.095,0.053,-0.097,0.045,0.01,-0.041,-0.056,-0.06,-0.058,-0.075
-0.1,-0.005,0.095,0.052,-0.097,0.045,0.01,-0.04,-0.054,-0.06,-0.062,-0.076
-0.101,-0.006,0.095,0.053,-0.098,0.044,0.006,-0.047,-0.06,-0.059,-0.065,-0.079
-0.11,-0.015,0.095,0.062,-0.102,0.04,0.004,-0.044,-0.07,-0.067,-0.065,-0.081
-0.115,-0.021,0.095,0.068,-0.105,0.037,0.01,-0.047,-0.071,-0.081,-0.065,-0.078
-0.11,-0.02,0.09,0.064,-0.1,0.035,0.021,-0.071,-0.069,-0.08,-0.065,-0.075
-0.105,-0.02,0.085,0.062,-0.095,0.032,0.02,-0.078,-0.073,-0.08,-0.065,-0.075
-0.099,-0.02,0.08,0.059,-0.09,0.03,0.018,-0.079,-0.077,-0.08,-0.064,-0.075
-0.098,-0.02,0.078,0.059,-0.088,0.028,0.016,-0.084,-0.081,-0.079,-0.068,-0.075
-0.087,-0.019,0.068,0.052,-0.077,0.025,0.013,-0.085,-0.09,-0.083,-0.077,-0.075
-0.097,-0.015,0.082,0.056,-0.089,0.033,0.023,-0.085,-0.091,-0.093,-0.076,-0.078
-0.115,-0.013,0.102,0.064,-0.108,0.044,0.03,-0.085,-0.09,-0.102,-0.075,-0.08
-0.108,-0.009,0.099,0.059,-0.104,0.045,0.022,-0.085,-0.088,-0.103,-0.074,-0.08
-0.113,-0.017,0.097,0.065,-0.105,0.04,0.016,-0.085,-0.104,-0.1,-0.086,-0.08
-0.123,-0.028,0.095,0.075,-0.108,0.033,0.01,-0.085,-0.122,-0.097,-0.098,-0.08
-0.118,-0.024,0.093,0.071,-0.105,0.034,0.002,-0.089,-0.119,-0.095,-0.091,-0.08
-0.109,-0.021,0.089,0.065,-0.099,0.034,0.002,-0.092,-0.12,-0.091,-0.09,-0.08
-0.109,-0.018,0.091,0.063,-0.099,0.036,0.005,-0.097,-0.12,-0.09,-0.086,-0.08
-0.095,-0.013,0.082,0.053,-0.088,0.034,0.005,-0.102,-0.12,-0.093,-0.084,-0.08
-0.101,-0.011,0.09,0.056,-0.096,0.039,0.009,-0.1,-0.117,-0.096,-0.089,-0.08
-0.102,-0.005,0.097,0.053,-0.099,0.046,0.01,-0.1,-0.114,-0.099,-0.09,-0.08
-0.078,-0.003,0.075,0.04,-0.077,0.036,0.01,-0.1,-0.116,-0.102,-0.09,-0.08
-0.074,0.009,0.083,0.032,-0.079,0.046,0.015,-0.1,-0.114,-0.105,-0.09,-0.08
-0.079,0.003,0.082,0.038,-0.08,0.042,0.02,-0.1,-0.116,-0.105,-0.09,-0.08
-0.098,-0.025,0.073,0.061,-0.086,0.024,0.024,-0.096,-0.113,-0.105,-0.088,-0.08
-0.091,-0.02,0.072,0.055,-0.081,0.026,0.026,-0.095,-0.11,-0.105,-0.085,-0.08
-0.077,-0.012,0.065,0.044,-0.071,0.026,0.024,-0.095,-0.105,-0.105,-0.082,-0.078
-0.068,-0.007,0.062,0.037,-0.065,0.027,0.026,-0.095,-0.103,-0.105,-0.08,-0.074
-0.06,0.002,0.062,0.029,-0.061,0.032,0.024,-0.095,-0.098,-0.104,-0.076,-0.068
-0.085,0.005,0.09,0.04,-0.088,0.047,0.025,-0.096,-0.095,-0.106,-0.075,-0.066
-0.097,0.006,0.103,0.046,-0.101,0.054,0.025,-0.115,-0.11,-0.104,-0.078,-0.06
-0.104,-0.005,0.098,0.054,-0.101,0.046,0.02,-0.116,-0.111,-0.106,-0.073,-0.056
-0.107,-0.005,0.102,0.056,-0.104,0.048,0.02,-0.104,-0.098,-0.102,-0.079,-0.063
-0.073,0.025,0.098,0.024,-0.086,0.061,0.012,-0.089,-0.086,-0.081,-0.076,-0.049
-0.038,0.064,0.102,-0.013,-0.07,0.083,0.024,-0.059,-0.056,-0.053,-0.048,-0.03
-0.012,0.077,0.089,-0.033,-0.051,0.082,0.039,-0.052,-0.041,-0.032,-0.026,-0.025
-0.005,0.076,0.081,-0.036,-0.043,0.078,0.025,-0.01,0.005,-0.021,-0.01,-0.009
0.022,0.082,0.06,-0.052,-0.019,0.071,-0.024,0.009,0.024,-0.01,-0.005,0.004
0.048,0.066,0.018,-0.058,0.015,0.041,-0.066,-0.079,-0.06,-0.05,-0.026,-0.009
0.003,0.024,0.021,-0.014,-0.009,0.022,-0.031,-0.129,-0.119,-0.115,-0.085,-0.053
-0.014,-0.003,0.011,0.009,-0.013,0.004,-0.006,-0.117,-0.121,-0.118,-0.091,-0.056
-0.072,-0.027,0.045,0.049,-0.058,0.009,-0.011,-0.105,-0.128,-0.131,-0.075,-0.046
-0.123,-0.032,0.091,0.078,-0.107,0.029,0.003,-0.117,-0.127,-0.138,-0.098,-0.075
-0.094,-0.026,0.068,0.059,-0.081,0.021,0.001,-0.146,-0.139,-0.143,-0.106,-0.083
-0.117,-0.029,0.088,0.073,-0.102,0.029,0.007,-0.118,-0.129,-0.146,-0.114,-0.093
-0.093,-0.018,0.075,0.055,-0.084,0.028,-0.012,-0.119,-0.111,-0.109,-0.08,-0.064
-0.097,-0.018,0.079,0.057,-0.088,0.03,0.026,-0.095,-0.119,-0.136,-0.118,-0.105
-0.14,0.055,0.195,0.042,-0.168,0.125,0.089,0.042,0.03,-0.022,-0.042,-0.085
-0.181,0.053,0.234,0.064,-0.208,0.143,0.157,0.197,0.165,0.065,0.003,-0.087
0.32,0.16,-0.16,-0.24,0.239,0.0,-0.139,0.105,0.289,0.434,0.576,0.503
1.179,0.349,-0.831,-0.764,1.005,-0.241,-0.786,-0.875,-0.257,0.495,1.072,1.305
0.935,0.012,-0.923,-0.474,0.929,-0.455,-0.697,-1.849,-1.547,-0.727,-0.107,0.567
0.252,-0.28,-0.532,0.014,0.392,-0.405,-0.305,-1.643,-1.798,-1.319,-0.894,-0.229
0.02,-0.179,-0.199,0.08,0.11,-0.189,-0.16,-0.801,-1.06,-0.83,-0.594,-0.222
-0.096,-0.094,0.002,0.095,-0.049,-0.046,0.024,-0.097,-0.388,-0.37,-0.32,-0.2
-0.098,-0.043,0.055,0.07,-0.076,0.006,0.07,0.069,-0.106,-0.142,-0.133,-0.107
-0.091,-0.005,0.086,0.048,-0.088,0.04,0.076,0.045,-0.074,-0.118,-0.122,-0.105
-0.098,0.016,0.115,0.041,-0.107,0.065,0.073,0.062,-0.015,-0.061,-0.069,-0.092
-0.102,0.016,0.118,0.043,-0.11,0.067,0.067,0.049,0.007,-0.051,-0.064,-0.087
-0.089,0.022,0.111,0.033,-0.1,0.066,0.069,0.06,0.033,-0.046,-0.06,-0.086
-0.076,0.03,0.106,0.023,-0.091,0.067,0.062,0.052,0.047,-0.026,-0.047,-0.073
-0.071,0.029,0.1,0.021,-0.085,0.065,0.063,0.087,0.069,-0.01,-0.045,-0.073
-0.065,0.031,0.095,0.017,-0.08,0.063,0.058,0.119,0.089,0.011,-0.022,-0.058
-0.071,0.03,0.1,0.02,-0.086,0.065,0.061,0.137,0.118,0.025,-0.017,-0.055
-0.077,0.031,0.108,0.023,-0.093,0.069,0.059,0.173,0.151,0.038,0.005,-0.041
-0.062,0.046,0.108,0.008,-0.085,0.077,0.061,0.206,0.185,0.057,0.021,-0.032
-0.034,0.067,0.101,-0.016,-0.068,0.084,0.056,0.26,0.247,0.104,0.045,-0.012
-0.026,0.07,0.096,-0.022,-0.061,0.083,0.042,0.332,0.303,0.148,0.077,0.013
-0.002,0.088,0.091,-0.043,-0.047,0.089,0.028,0.422,0.387,0.203,0.119,0.031
0.039,0.124,0.085,-0.082,-0.023,0.105,0.016,0.53,0.483,0.275,0.172,0.065
0.065,0.145,0.08,-0.105,-0.008,0.112,-0.001,0.651,0.6,0.362,0.234,0.114
0.09,0.166,0.076,-0.128,0.007,0.121,-0.026,0.768,0.716,0.443,0.302,0.161
0.15,0.216,0.066,-0.183,0.042,0.14,-0.053,0.876,0.822,0.523,0.372,0.216
0.202,0.264,0.063,-0.233,0.069,0.163,-0.085,0.956,0.905,0.6,0.438,0.277
0.259,0.282,0.023,-0.271,0.118,0.152,-0.125,0.976,0.933,0.629,0.476,0.323
0.301,0.284,-0.017,-0.292,0.159,0.133,-0.164,0.939,0.911,0.62,0.484,0.361
0.307,0.284,-0.024,-0.295,0.165,0.13,-0.173,0.823,0.808,0.576,0.461,0.372
0.294,0.245,-0.049,-0.269,0.171,0.098,-0.162,0.644,0.643,0.468,0.396,0.336
0.242,0.195,-0.047,-0.218,0.145,0.074,-0.14,0.453,0.456,0.331,0.29,0.265
0.183,0.155,-0.028,-0.169,0.105,0.064,-0.101,0.286,0.288,0.206,0.191,0.179
0.091,0.097,0.006,-0.094,0.042,0.051,-0.058,0.161,0.167,0.112,0.11,0.104
0.024,0.064,0.041,-0.044,-0.009,0.052,-0.015,0.082,0.091,0.055,0.046,0.048
-0.019,0.045,0.063,-0.013,-0.041,0.054,0.025,0.026,0.039,0.005,0.007,0.007
-0.06,0.022,0.082,0.019,-0.072,0.052,0.042,-0.015,-0.002,-0.038,-0.027,-0.023
-0.057,0.02,0.077,0.018,-0.067,0.049,0.04,-0.033,-0.026,-0.058,-0.04,-0.035
-0.056,0.02,0.076,0.017,-0.066,0.047,0.039,-0.046,-0.032,-0.061,-0.041,-0.037
-0.056,0.016,0.072,0.019,-0.064,0.044,0.035,-0.051,-0.035,-0.06,-0.045,-0.04
-0.055,0.015,0.07,0.02,-0.063,0.042,0.034,-0.046,-0.04,-0.06,-0.045,-0.04
-0.053,0.014,0.068,0.019,-0.061,0.041,0.041,-0.043,-0.04,-0.06,-0.045,-0.04
-0.054,0.011,0.065,0.021,-0.059,0.037,0.046,-0.04,-0.041,-0.059,-0.045,-0.041
-0.057,0.008,0.065,0.024,-0.061,0.036,0.04,-0.034,-0.045,-0.056,-0.045,-0.038
-0.059,0.006,0.065,0.026,-0.063,0.035,0.035,-0.04,-0.045,-0.053,-0.045,-0.047
-0.063,0.002,0.065,0.03,-0.064,0.033,0.032,-0.05,-0.043,-0.051,-0.045,-0.06
-0.064,0.0,0.065,0.031,-0.064,0.032,0.025,-0.045,-0.04,-0.047,-0.041,-0.06
-0.076,-0.003,0.073,0.039,-0.074,0.035,0.029,-0.04,-0.037,-0.046,-0.04,-0.06
-0.071,-0.005,0.066,0.038,-0.068,0.03,0.031,-0.035,-0.035,-0.046,-0.04,-0.061
-0.073,-0.006,0.067,0.039,-0.07,0.031,0.03,-0.032,-0.031,-0.053,-0.04,-0.057
-0.085,-0.004,0.08,0.044,-0.082,0.038,0.03,-0.026,-0.03,-0.076,-0.04,-0.055
-0.08,-0.006,0.074,0.042,-0.076,0.034,0.031,-0.025,-0.035,-0.082,-0.04,-0.051
-0.071,-0.004,0.068,0.037,-0.069,0.032,0.029,-0.043,-0.035,-0.079,-0.04,-0.049
-0.051,0.013,0.064,0.019,-0.058,0.038,0.034,-0.047,-0.039,-0.08,-0.04,-0.046
-0.042,0.013,0.054,0.014,-0.048,0.033,0.056,-0.043,-0.04,-0.08,-0.04,-0.044
-0.056,0.005,0.061,0.025,-0.059,0.033,0.058,-0.047,-0.042,-0.079,-0.046,-0.058
-0.072,0.002,0.074,0.035,-0.073,0.038,0.048,-0.043,-0.049,-0.075,-0.055,-0.067
-0.075,-0.006,0.069,0.04,-0.072,0.031,0.043,-0.05,-0.057,-0.075,-0.059,-0.064
-0.072,-0.009,0.063,0.04,-0.067,0.027,0.035,-0.069,-0.066,-0.073,-0.055,-0.063
-0.08,-0.022,0.058,0.05,-0.069,0.018,0.03,-0.071,-0.069,-0.069,-0.055,-0.059
-0.082,-0.03,0.052,0.056,-0.067,0.011,0.041,-0.069,-0.074,-0.07,-0.054,-0.061
-0.078,-0.03,0.048,0.054,-0.063,0.009,0.046,-0.066,-0.073,-0.084,-0.05,-0.062
-0.092,-0.03,0.062,0.061,-0.077,0.016,0.041,-0.065,-0.069,-0.092,-0.05,-0.06
-0.101,-0.03,0.071,0.065,-0.086,0.02,0.04,-0.065,-0.07,-0.089,-0.052,-0.06
-0.09,-0.03,0.06,0.06,-0.075,0.015,0.035,-0.064,-0.07,-0.091,-0.056,-0.06
-0.092,-0.032,0.06,0.062,-0.076,0.014,0.034,-0.074,-0.07,-0.089,-0.055,-0.06
-0.09,-0.037,0.053,0.063,-0.071,0.008,0.031,-0.076,-0.07,-0.091,-0.055,-0.059
-0.089,-0.04,0.05,0.064,-0.069,0.005,0.03,-0.073,-0.075,-0.095,-0.055,-0.064
-0.094,-0.051,0.043,0.072,-0.068,-0.004,0.03,-0.068,-0.08,-0.095,-0.055,-0.07
-0.064,-0.043,0.021,0.053,-0.042,-0.01,0.033,-0.085,-0.087,-0.097,-0.065,-0.077
-0.082,-0.028,0.054,0.055,-0.067,0.013,0.054,-0.105,-0.1,-0.096,-0.067,-0.09
-0.106,-0.032,0.074,0.069,-0.09,0.021,0.06,-0.1,-0.097,-0.094,-0.063,-0.087
-0.093,-0.04,0.053,0.066,-0.073,0.007,0.051,-0.095,-0.091,-0.095,-0.061,-0.081
-0.107,-0.054,0.053,0.08,-0.079,0.0,0.05,-0.09,-0.088,-0.095,-0.057,-0.078
-0.101,-0.055,0.046,0.078,-0.073,-0.004,0.043,-0.083,-0.082,-0.095,-0.055,-0.072
-0.092,-0.05,0.042,0.071,-0.067,-0.004,0.041,-0.081,-0.078,-0.092,-0.053,-0.069
-0.085,-0.049,0.036,0.066,-0.06,-0.006,0.039,-0.089,-0.075,-0.089,-0.049,-0.065
-0.076,-0.045,0.031,0.06,-0.053,-0.007,0.043,-0.09,-0.075,-0.09,-0.051,-0.065
-0.069,-0.044,0.026,0.056,-0.047,-0.009,0.064,-0.09,-0.076,-0.086,-0.046,-0.065
-0.058,-0.04,0.018,0.049,-0.038,-0.011,0.071,-0.09,-0.075,-0.085,-0.045,-0.065
-0.077,-0.04,0.037,0.058,-0.057,-0.001,0.07,-0.089,-0.075,-0.085,-0.045,-0.066
-0.082,-0.038,0.043,0.06,-0.062,0.002,0.07,-0.09,-0.071,-0.079,-0.037,-0.061
-0.068,-0.033,0.035,0.05,-0.051,0.001,0.07,-0.083,-0.066,-0.08,-0.029,-0.058
-0.065,-0.036,0.029,0.051,-0.047,-0.003,0.07,-0.07,-0.064,-0.074,-0.02,-0.054
-0.068,-0.03,0.039,0.049,-0.053,0.005,0.076,-0.056,-0.021,-0.044,-0.012,-0.045
-0.071,-0.02,0.051,0.045,-0.06,0.015,0.087,-0.049,-0.01,-0.029,-0.002,-0.035
-0.02,-0.01,0.01,0.015,-0.015,0.0,0.066,-0.005,-0.002,-0.022,0.009,-0.024
0.037,0.028,-0.009,-0.032,0.023,0.009,0.032,0.032,0.035,-0.013,0.024,-0.018
0.031,0.014,-0.017,-0.023,0.024,-0.001,0.009,-0.04,-0.021,-0.042,0.016,-0.01
0.005,-0.053,-0.058,0.024,0.032,-0.055,0.015,-0.096,-0.089,-0.106,-0.045,-0.037
-0.014,-0.072,-0.058,0.043,0.022,-0.065,0.039,-0.082,-0.076,-0.114,-0.042,-0.055
-0.02,-0.066,-0.046,0.043,0.013,-0.056,0.048,-0.083,-0.073,-0.117,-0.03,-0.058
-0.05,-0.082,-0.032,0.066,-0.009,-0.057,0.063,-0.093,-0.092,-0.124,-0.064,-0.072
-0.071,-0.095,-0.024,0.083,-0.023,-0.059,0.055,-0.128,-0.109,-0.109,-0.071,-0.058
-0.079,-0.096,-0.017,0.087,-0.031,-0.056,0.069,-0.112,-0.101,-0.116,-0.084,-0.074
-0.057,-0.071,-0.014,0.065,-0.021,-0.043,0.058,-0.102,-0.078,-0.083,-0.04,-0.04
-0.064,-0.066,-0.002,0.065,-0.031,-0.034,0.074,-0.09,-0.091,-0.107,-0.072,-0.077
-0.138,-0.016,0.122,0.077,-0.13,0.053,0.141,0.063,0.062,0.003,-0.002,-0.071
-0.171,0.003,0.173,0.084,-0.172,0.088,0.215,0.237,0.216,0.104,0.05,-0.078
0.309,0.096,-0.212,-0.202,0.26,-0.058,-0.065,0.192,0.357,0.46,0.599,0.48
1.138,0.277,-0.86,-0.707,0.999,-0.291,-0.716,-0.741,-0.134,0.575,1.148,1.322
0.934,-0.017,-0.951,-0.458,0.942,-0.484,-0.651,-1.769,-1.434,-0.615,0.025,0.635
0.208,-0.325,-0.533,0.059,0.371,-0.429,-0.236,-1.614,-1.752,-1.271,-0.826,-0.213
-0.023,-0.252,-0.229,0.137,0.103,-0.24,-0.092,-0.796,-1.055,-0.829,-0.57,-0.236
-0.09,-0.172,-0.082,0.131,-0.004,-0.127,0.081,-0.077,-0.384,-0.373,-0.299,-0.208
-0.077,-0.115,-0.038,0.096,-0.019,-0.076,0.112,0.095,-0.067,-0.112,-0.086,-0.106
-0.079,-0.087,-0.008,0.083,-0.035,-0.047,0.107,0.037,-0.034,-0.093,-0.074,-0.106
-0.095,-0.075,0.021,0.085,-0.058,-0.027,0.114,0.059,0.021,-0.049,-0.038,-0.093
-0.088,-0.069,0.019,0.079,-0.053,-0.025,0.106,0.055,0.035,-0.032,-0.027,-0.083
-0.084,-0.063,0.021,0.074,-0.052,-0.021,0.114,0.072,0.056,-0.017,-0.018,-0.082
-0.074,-0.055,0.019,0.065,-0.046,-0.018,0.105,0.085,0.077,-0.002,-0.001,-0.066
-0.071,-0.05,0.02,0.061,-0.046,-0.015,0.107,0.104,0.092,0.002,0.001,-0.065
-0.065,-0.045,0.02,0.055,-0.042,-0.012,0.1,0.123,0.117,0.025,0.018,-0.05
-0.055,-0.042,0.013,0.048,-0.034,-0.014,0.1,0.159,0.144,0.046,0.023,-0.046
-0.036,-0.038,-0.002,0.037,-0.017,-0.02,0.095,0.186,0.178,0.075,0.047,-0.034
-0.021,-0.035,-0.014,0.029,-0.003,-0.025,0.095,0.219,0.214,0.096,0.066,-0.025
-0.015,-0.028,-0.014,0.022,-0.001,-0.021,0.088,0.279,0.272,0.13,0.098,-0.009
-0.01,-0.038,-0.028,0.024,0.009,-0.033,0.077,0.343,0.338,0.177,0.131,0.012
0.011,-0.035,-0.046,0.012,0.029,-0.04,0.07,0.431,0.422,0.245,0.175,0.047
0.046,0.001,-0.045,-0.023,0.045,-0.022,0.06,0.512,0.507,0.3,0.21,0.063
0.074,0.03,-0.044,-0.051,0.059,-0.007,0.049,0.621,0.624,0.383,0.274,0.106
0.094,0.049,-0.046,-0.071,0.07,0.002,0.02,0.732,0.742,0.48,0.355,0.167
0.14,0.097,-0.043,-0.118,0.092,0.026,-0.008,0.823,0.844,0.555,0.418,0.214
0.188,0.141,-0.048,-0.164,0.118,0.046,-0.038,0.911,0.938,0.646,0.492,0.286
0.213,0.16,-0.053,-0.186,0.133,0.053,-0.072,0.919,0.974,0.689,0.548,0.344
0.267,0.19,-0.077,-0.228,0.172,0.056,-0.099,0.898,0.965,0.693,0.572,0.391
0.308,0.193,-0.115,-0.25,0.211,0.039,-0.114,0.814,0.881,0.657,0.559,0.408
0.292,0.165,-0.127,-0.228,0.21,0.019,-0.102,0.647,0.72,0.549,0.494,0.371
0.248,0.114,-0.133,-0.181,0.19,-0.009,-0.081,0.478,0.522,0.411,0.384,0.294
0.15,0.044,-0.106,-0.097,0.128,-0.031,-0.041,0.316,0.356,0.278,0.282,0.208
0.062,0.001,-0.061,-0.031,0.061,-0.029,0.0,0.198,0.211,0.163,0.183,0.117
0.016,-0.041,-0.057,0.013,0.037,-0.049,0.027,0.115,0.111,0.082,0.104,0.045
-0.004,-0.064,-0.059,0.034,0.028,-0.061,0.068,0.065,0.073,0.043,0.066,0.011
-0.015,-0.071,-0.056,0.044,0.021,-0.063,0.088,0.034,0.034,0.024,0.045,-0.011
-0.051,-0.104,-0.053,0.077,0.001,-0.078,0.099,0.015,0.017,0.011,0.039,-0.02
-0.06,-0.108,-0.048,0.084,-0.005,-0.078,0.112,0.013,0.008,0.0,0.034,-0.032
-0.054,-0.1,-0.046,0.078,-0.004,-0.072,0.109,0.009,0.0,-0.013,0.029,-0.043
-0.057,-0.097,-0.041,0.077,-0.008,-0.068,0.11,0.006,-0.003,-0.025,0.023,-0.045
-0.051,-0.092,-0.041,0.071,-0.005,-0.066,0.11,0.001,-0.009,-0.027,0.02,-0.045
-0.05,-0.088,-0.038,0.069,-0.005,-0.063,0.11,-0.002,-0.016,-0.025,0.015,-0.044
-0.048,-0.085,-0.037,0.067,-0.005,-0.061,0.106,-0.005,-0.017,-0.025,0.01,-0.046
-0.064,-0.096,-0.032,0.08,-0.016,-0.063,0.1,-0.008,-0.024,-0.026,0.006,-0.049
-0.058,-0.1,-0.042,0.08,-0.008,-0.071,0.095,-0.011,-0.035,-0.024,0.003,-0.051
-0.02,-0.105,-0.085,0.062,0.033,-0.095,0.09,-0.006,-0.025,-0.029,0.019,-0.056
-0.033,-0.124,-0.092,0.079,0.03,-0.108,0.081,0.0,-0.019,-0.036,0.024,-0.053
-0.044,-0.123,-0.079,0.084,0.017,-0.101,0.088,0.005,-0.013,-0.031,0.014,-0.05
-0.036,-0.111,-0.075,0.074,0.019,-0.093,0.106,0.01,-0.005,-0.024,0.012,-0.051
-0.06,-0.099,-0.039,0.079,-0.01,-0.069,0.105,0.017,-0.019,-0.021,0.004,-0.046
-0.053,-0.098,-0.046,0.076,-0.003,-0.072,0.105,0.019,-0.032,-0.012,0.001,-0.045
-0.047,-0.125,-0.077,0.086,0.015,-0.101,0.105,0.011,-0.029,-0.014,0.016,-0.045
-0.062,-0.126,-0.064,0.095,0.001,-0.095,0.105,0.004,-0.031,-0.027,0.021,-0.051
-0.048,-0.112,-0.064,0.08,0.009,-0.088,0.103,-0.003,-0.029,-0.034,0.013,-0.058
-0.043,-0.108,-0.066,0.076,0.012,-0.087,0.098,-0.011,-0.032,-0.041,0.009,-0.062
-0.031,-0.095,-0.065,0.064,0.017,-0.08,0.092,-0.017,-0.052,-0.04,0.002,-0.067
-0.027,-0.091,-0.065,0.06,0.019,-0.078,0.089,-0.024,-0.056,-0.038,-0.003,-0.07
-0.048,-0.114,-0.066,0.081,0.009,-0.089,0.083,-0.025,-0.054,-0.033,-0.007,-0.075
-0.059,-0.122,-0.064,0.091,0.002,-0.092,0.081,-0.025,-0.056,-0.043,-0.014,-0.075
-0.052,-0.118,-0.067,0.086,0.008,-0.092,0.105,-0.025,-0.054,-0.066,-0.019,-0.076
-0.057,-0.118,-0.061,0.088,0.002,-0.089,0.111,-0.026,-0.056,-0.065,-0.026,-0.08
-0.07,-0.113,-0.043,0.092,-0.013,-0.078,0.103,-0.03,-0.07,-0.065,-0.029,-0.08
-0.042,-0.117,-0.075,0.079,0.017,-0.095,0.103,-0.029,-0.076,-0.066,-0.026,-0.08
-0.05,-0.128,-0.078,0.09,0.014,-0.103,0.097,-0.032,-0.075,-0.064,-0.025,-0.08
-0.074,-0.148,-0.073,0.111,0.0,-0.11,0.094,-0.036,-0.081,-0.068,-0.025,-0.08
-0.086,-0.152,-0.066,0.119,-0.01,-0.109,0.11,-0.034,-0.079,-0.07,-0.025,-0.08
-0.098,-0.143,-0.045,0.121,-0.026,-0.094,0.117,-0.039,-0.075,-0.07,-0.025,-0.08
-0.091,-0.138,-0.046,0.115,-0.022,-0.092,0.111,-0.04,-0.075,-0.07,-0.027,-0.08
-0.101,-0.138,-0.036,0.12,-0.032,-0.087,0.109,-0.04,-0.073,-0.07,-0.031,-0.075
-0.105,-0.141,-0.035,0.123,-0.035,-0.088,0.105,-0.045,-0.07,-0.07,-0.03,-0.075
-0.116,-0.139,-0.023,0.128,-0.047,-0.081,0.105,-0.045,-0.069,-0.07,-0.03,-0.074
-0.097,-0.141,-0.045,0.12,-0.026,-0.092,0.098,-0.044,-0.076,-0.07,-0.03,-0.07
-0.087,-0.145,-0.058,0.116,-0.014,-0.101,0.091,-0.04,-0.081,-0.07,-0.03,-0.07
-0.102,-0.145,-0.043,0.124,-0.029,-0.094,0.084,-0.04,-0.076,-0.07,-0.035,-0.068
-0.083,-0.15,-0.067,0.117,-0.008,-0.108,0.077,-0.04,-0.074,-0.07,-0.035,-0.064
-0.09,-0.15,-0.061,0.12,-0.015,-0.105,0.067,-0.04,-0.07,-0.066,-0.035,-0.062
-0.089,-0.15,-0.06,0.12,-0.014,-0.105,0.075,-0.041,-0.065,-0.064,-0.035,-0.059
-0.075,-0.151,-0.076,0.113,0.0,-0.113,0.103,-0.035,-0.071,-0.061,-0.036,-0.056
-0.087,-0.149,-0.062,0.118,-0.012,-0.105,0.102,-0.028,-0.077,-0.056,-0.032,-0.054
-0.083,-0.152,-0.069,0.118,-0.007,-0.11,0.095,-0.018,-0.071,-0.058,-0.019,-0.05
-0.044,-0.127,-0.083,0.085,0.02,-0.105,0.092,-0.013,-0.065,-0.048,-0.008,-0.043
-0.041,-0.101,-0.06,0.071,0.01,-0.08,0.083,-0.002,-0.039,-0.045,0.008,-0.039
-0.061,-0.099,-0.038,0.081,-0.012,-0.068,0.084,0.0,-0.016,-0.007,0.023,-0.03
-0.036,-0.101,-0.065,0.069,0.014,-0.083,0.08,0.02,0.0,-0.005,0.049,-0.015
0.016,-0.098,-0.114,0.041,0.065,-0.105,0.069,0.047,0.028,0.02,0.055,0.002
0.026,-0.104,-0.13,0.04,0.078,-0.116,0.067,-0.013,-0.019,-0.01,0.024,0.003
0.002,-0.139,-0.141,0.069,0.072,-0.14,0.087,-0.044,-0.08,-0.081,0.005,-0.034
-0.002,-0.149,-0.147,0.076,0.073,-0.147,0.103,-0.037,-0.065,-0.05,-0.006,-0.047
-0.058,-0.148,-0.09,0.103,0.016,-0.119,0.09,-0.053,-0.06,-0.095,-0.016,-0.041
-0.1,-0.155,-0.055,0.128,-0.022,-0.105,0.093,-0.059,-0.091,-0.023,-0.034,-0.067
-0.076,-0.153,-0.077,0.115,0.001,-0.115,0.081,-0.077,-0.103,-0.156,-0.041,-0.077
-0.094,-0.15,-0.056,0.122,-0.019,-0.102,0.084,-0.056,-0.091,-0.007,-0.04,-0.072
-0.091,-0.143,-0.052,0.118,-0.019,-0.097,0.079,-0.058,-0.084,-0.16,-0.039,-0.069
-0.105,-0.142,-0.038,0.124,-0.033,-0.09,0.091,-0.039,-0.058,0.012,-0.042,-0.078
-0.188,-0.12,0.069,0.154,-0.128,-0.026,0.167,0.118,0.068,-0.145,-0.02,-0.134
