-0.001,-0.075,-0.074,0.038,0.037,-0.074,0.04,0.025,-0.059,-0.155,-0.105,-0.095
-0.003,-0.073,-0.07,0.038,0.034,-0.071,0.04,0.023,-0.061,-0.155,-0.105,-0.095
0.003,-0.067,-0.07,0.032,0.037,-0.069,0.04,0.017,-0.074,-0.159,-0.105,-0.093
0.005,-0.063,-0.069,0.029,0.037,-0.065,0.036,0.014,-0.085,-0.16,-0.104,-0.089
0.006,-0.059,-0.065,0.027,0.035,-0.062,0.035,0.009,-0.096,-0.165,-0.106,-0.087
0.011,-0.054,-0.065,0.022,0.038,-0.059,0.034,0.005,-0.098,-0.164,-0.103,-0.082
0.003,-0.064,-0.067,0.031,0.036,-0.066,0.031,-0.002,-0.115,-0.173,-0.114,-0.101
-0.014,-0.084,-0.07,0.049,0.029,-0.077,0.028,-0.01,-0.14,-0.197,-0.131,-0.117
-0.005,-0.075,-0.07,0.04,0.033,-0.072,0.025,-0.015,-0.139,-0.201,-0.13,-0.117
0.007,-0.066,-0.073,0.03,0.04,-0.07,0.022,-0.028,-0.147,-0.199,-0.13,-0.121
0.005,-0.071,-0.076,0.033,0.041,-0.073,0.02,-0.036,-0.156,-0.201,-0.13,-0.123
0.003,-0.07,-0.073,0.034,0.038,-0.071,0.018,-0.034,-0.16,-0.199,-0.129,-0.126
-0.006,-0.078,-0.073,0.042,0.034,-0.075,0.015,-0.036,-0.167,-0.2,-0.133,-0.121
-0.004,-0.067,-0.063,0.036,0.03,-0.065,0.012,-0.034,-0.163,-0.19,-0.135,-0.119
0.001,-0.071,-0.073,0.035,0.037,-0.072,0.009,-0.038,-0.169,-0.197,-0.136,-0.12
-0.003,-0.093,-0.09,0.048,0.044,-0.091,0.005,-0.05,-0.185,-0.215,-0.14,-0.119
-0.013,-0.091,-0.078,0.052,0.033,-0.084,0.005,-0.048,-0.183,-0.209,-0.139,-0.121
0.012,-0.069,-0.081,0.029,0.047,-0.075,0.009,-0.044,-0.178,-0.202,-0.136,-0.119
0.032,-0.058,-0.09,0.013,0.061,-0.074,0.01,-0.046,-0.176,-0.196,-0.133,-0.115
-0.003,-0.089,-0.086,0.047,0.042,-0.087,0.011,-0.04,-0.17,-0.189,-0.13,-0.115
-0.013,-0.098,-0.085,0.056,0.036,-0.091,0.018,-0.041,-0.17,-0.184,-0.127,-0.112
-0.008,-0.094,-0.085,0.052,0.039,-0.089,0.018,-0.039,-0.169,-0.18,-0.125,-0.109
-0.015,-0.095,-0.08,0.055,0.033,-0.087,0.017,-0.042,-0.172,-0.177,-0.123,-0.111
-0.018,-0.099,-0.082,0.058,0.032,-0.09,0.013,-0.052,-0.177,-0.174,-0.119,-0.106
-0.017,-0.095,-0.079,0.056,0.031,-0.087,0.024,-0.046,-0.158,-0.172,-0.114,-0.098
-0.002,-0.075,-0.073,0.039,0.036,-0.073,0.05,-0.033,-0.128,-0.158,-0.11,-0.088
0.021,-0.047,-0.069,0.013,0.046,-0.058,0.047,-0.019,-0.118,-0.14,-0.094,-0.079
0.037,-0.021,-0.058,-0.008,0.047,-0.039,0.039,0.004,-0.121,-0.138,-0.076,-0.064
0.081,-0.017,-0.098,-0.032,0.089,-0.057,0.019,0.018,-0.123,-0.143,-0.084,-0.064
0.098,-0.013,-0.111,-0.042,0.105,-0.062,-0.03,-0.016,-0.129,-0.145,-0.083,-0.071
0.06,-0.074,-0.134,0.008,0.097,-0.104,-0.03,-0.048,-0.149,-0.169,-0.095,-0.076
0.067,-0.101,-0.169,0.017,0.118,-0.134,-0.02,-0.06,-0.17,-0.194,-0.104,-0.084
0.046,-0.089,-0.135,0.022,0.09,-0.112,-0.011,-0.049,-0.148,-0.177,-0.095,-0.085
-0.009,-0.135,-0.126,0.072,0.059,-0.13,0.002,-0.061,-0.188,-0.204,-0.138,-0.107
-0.026,-0.137,-0.111,0.082,0.042,-0.124,0.003,-0.051,-0.182,-0.18,-0.133,-0.111
-0.022,-0.145,-0.124,0.084,0.051,-0.134,0.024,-0.056,-0.197,-0.209,-0.15,-0.122
-0.005,-0.127,-0.123,0.066,0.059,-0.125,0.012,-0.065,-0.189,-0.189,-0.13,-0.105
-0.013,-0.153,-0.14,0.083,0.064,-0.146,0.047,-0.046,-0.176,-0.202,-0.148,-0.117
-0.031,-0.133,-0.101,0.082,0.035,-0.117,0.016,-0.082,-0.208,-0.209,-0.136,-0.106
-0.089,-0.206,-0.117,0.148,0.014,-0.161,0.152,0.103,-0.146,-0.23,-0.206,-0.189
-0.149,-0.335,-0.185,0.242,0.018,-0.26,0.427,0.291,-0.289,-0.568,-0.484,-0.412
-0.033,-0.146,-0.113,0.089,0.04,-0.13,0.342,0.509,-0.01,-0.326,-0.298,-0.274
0.307,0.654,0.346,-0.481,-0.02,0.5,-0.442,-0.317,0.19,0.543,0.686,0.595
0.617,2.034,1.417,-1.326,-0.4,1.726,-1.666,-1.856,0.987,2.793,2.528,1.976
0.403,1.659,1.256,-1.031,-0.427,1.457,-1.624,-1.852,1.006,2.849,2.214,1.648
-0.026,0.198,0.224,-0.086,-0.125,0.211,-0.706,-1.154,-0.762,-0.052,0.106,0.158
-0.033,-0.029,0.003,0.031,-0.018,-0.013,-0.234,-0.403,-0.435,-0.233,-0.137,-0.074
0.034,-0.06,-0.094,0.013,0.065,-0.077,0.013,0.039,0.126,0.114,-0.039,-0.031
-0.026,-0.121,-0.096,0.074,0.035,-0.108,0.056,0.033,-0.081,-0.143,-0.124,-0.093
-0.044,-0.123,-0.079,0.084,0.018,-0.1,0.095,0.135,0.094,-0.01,-0.057,-0.091
-0.043,-0.15,-0.106,0.097,0.032,-0.128,0.119,0.127,0.0,-0.131,-0.119,-0.132
-0.02,-0.121,-0.101,0.07,0.041,-0.111,0.113,0.159,0.094,-0.038,-0.061,-0.101
-0.024,-0.135,-0.111,0.08,0.044,-0.123,0.144,0.172,0.082,-0.092,-0.094,-0.114
-0.048,-0.13,-0.082,0.089,0.017,-0.106,0.142,0.183,0.118,-0.051,-0.064,-0.092
-0.044,-0.13,-0.086,0.087,0.021,-0.107,0.147,0.215,0.145,-0.036,-0.071,-0.092
-0.034,-0.103,-0.069,0.069,0.018,-0.085,0.159,0.234,0.169,-0.016,-0.062,-0.082
-0.033,-0.098,-0.065,0.066,0.016,-0.081,0.168,0.271,0.225,0.025,-0.046,-0.077
-0.018,-0.079,-0.061,0.049,0.021,-0.07,0.168,0.3,0.245,0.029,-0.042,-0.078
0.011,-0.049,-0.06,0.019,0.036,-0.055,0.194,0.367,0.326,0.09,-0.002,-0.049
0.026,-0.012,-0.039,-0.007,0.033,-0.025,0.216,0.428,0.373,0.122,0.03,-0.016
0.048,0.032,-0.016,-0.04,0.032,0.008,0.221,0.496,0.438,0.172,0.069,0.009
0.077,0.064,-0.012,-0.071,0.044,0.026,0.219,0.56,0.501,0.224,0.105,0.036
0.086,0.102,0.016,-0.094,0.035,0.059,0.208,0.61,0.558,0.287,0.152,0.072
0.093,0.147,0.054,-0.12,0.019,0.1,0.202,0.647,0.614,0.35,0.201,0.108
0.113,0.192,0.079,-0.153,0.017,0.135,0.194,0.64,0.623,0.4,0.242,0.146
0.115,0.21,0.095,-0.163,0.01,0.152,0.18,0.604,0.622,0.434,0.273,0.166
0.09,0.19,0.1,-0.14,-0.005,0.144,0.147,0.55,0.607,0.441,0.269,0.165
0.095,0.18,0.085,-0.138,0.004,0.133,0.105,0.462,0.529,0.416,0.257,0.165
0.085,0.153,0.068,-0.119,0.008,0.11,0.084,0.343,0.412,0.322,0.217,0.133
0.074,0.105,0.031,-0.09,0.021,0.068,0.068,0.244,0.284,0.211,0.138,0.078
0.074,0.069,-0.005,-0.071,0.039,0.032,0.055,0.162,0.178,0.126,0.08,0.042
0.019,-0.011,-0.03,-0.003,0.024,-0.021,0.055,0.092,0.082,0.026,0.016,-0.001
0.016,-0.046,-0.061,0.015,0.038,-0.053,0.055,0.05,0.008,-0.044,-0.039,-0.045
0.04,-0.04,-0.08,0.0,0.061,-0.06,0.055,0.039,-0.035,-0.073,-0.055,-0.062
0.03,-0.049,-0.08,0.01,0.055,-0.064,0.055,0.041,-0.06,-0.09,-0.069,-0.067
0.025,-0.05,-0.075,0.013,0.05,-0.062,0.056,0.04,-0.066,-0.1,-0.073,-0.07
0.005,-0.069,-0.074,0.032,0.04,-0.071,0.06,0.04,-0.069,-0.11,-0.077,-0.07
-0.002,-0.071,-0.069,0.036,0.034,-0.07,0.059,0.039,-0.065,-0.119,-0.093,-0.074
0.003,-0.069,-0.072,0.033,0.037,-0.07,0.062,0.042,-0.063,-0.12,-0.096,-0.079
0.006,-0.071,-0.077,0.033,0.042,-0.074,0.065,0.045,-0.06,-0.12,-0.095,-0.08
0.004,-0.069,-0.073,0.033,0.039,-0.071,0.065,0.045,-0.057,-0.12,-0.095,-0.08
-0.003,-0.07,-0.067,0.037,0.032,-0.068,0.061,0.045,-0.055,-0.12,-0.095,-0.08
0.007,-0.056,-0.063,0.025,0.035,-0.059,0.06,0.045,-0.054,-0.121,-0.094,-0.08
0.009,-0.047,-0.056,0.019,0.033,-0.051,0.06,0.045,-0.065,-0.125,-0.09,-0.08
0.017,-0.034,-0.051,0.009,0.034,-0.042,0.055,0.038,-0.07,-0.127,-0.089,-0.079
0.034,-0.033,-0.068,0.0,0.051,-0.05,0.055,0.03,-0.082,-0.13,-0.086,-0.076
0.024,-0.054,-0.077,0.016,0.051,-0.065,0.054,0.024,-0.089,-0.134,-0.084,-0.07
0.018,-0.056,-0.074,0.019,0.046,-0.065,0.05,0.017,-0.099,-0.141,-0.093,-0.078
0.021,-0.055,-0.076,0.017,0.049,-0.065,0.05,0.011,-0.116,-0.155,-0.111,-0.087
0.024,-0.05,-0.075,0.013,0.05,-0.062,0.05,0.006,-0.116,-0.16,-0.11,-0.085
0.025,-0.05,-0.075,0.013,0.05,-0.062,0.05,0.001,-0.132,-0.162,-0.105,-0.083
0.037,-0.049,-0.086,0.006,0.062,-0.067,0.05,-0.005,-0.142,-0.165,-0.104,-0.08
0.053,-0.042,-0.096,-0.005,0.075,-0.069,0.053,-0.01,-0.144,-0.168,-0.099,-0.079
0.056,-0.038,-0.094,-0.008,0.075,-0.066,0.052,-0.018,-0.149,-0.17,-0.102,-0.082
0.068,-0.028,-0.096,-0.02,0.083,-0.062,0.049,-0.027,-0.148,-0.17,-0.11,-0.094
0.037,-0.062,-0.1,0.012,0.069,-0.081,0.046,-0.044,-0.162,-0.17,-0.124,-0.096
0.01,-0.09,-0.101,0.04,0.056,-0.095,0.043,-0.051,-0.172,-0.17,-0.13,-0.094
0.01,-0.087,-0.097,0.039,0.054,-0.092,0.04,-0.045,-0.166,-0.17,-0.123,-0.091
-0.002,-0.095,-0.093,0.049,0.046,-0.094,0.04,-0.043,-0.165,-0.169,-0.12,-0.089
-0.007,-0.093,-0.086,0.05,0.04,-0.089,0.04,-0.038,-0.161,-0.171,-0.115,-0.093
-0.005,-0.09,-0.085,0.048,0.04,-0.087,0.04,-0.035,-0.159,-0.175,-0.11,-0.095
-0.013,-0.09,-0.078,0.051,0.033,-0.084,0.04,-0.032,-0.17,-0.175,-0.111,-0.095
-0.013,-0.088,-0.075,0.051,0.031,-0.081,0.04,-0.029,-0.176,-0.175,-0.108,-0.093
0.008,-0.084,-0.092,0.038,0.051,-0.088,0.04,-0.031,-0.174,-0.174,-0.102,-0.09
0.016,-0.087,-0.103,0.036,0.06,-0.094,0.044,-0.029,-0.17,-0.177,-0.099,-0.091
0.033,-0.074,-0.106,0.021,0.07,-0.09,0.047,-0.029,-0.172,-0.168,-0.095,-0.089
0.04,-0.043,-0.083,0.002,0.062,-0.063,0.044,-0.03,-0.152,-0.152,-0.09,-0.08
0.046,-0.027,-0.072,-0.009,0.059,-0.049,0.062,-0.018,-0.112,-0.155,-0.095,-0.075
0.059,-0.017,-0.076,-0.021,0.068,-0.046,0.06,-0.017,-0.11,-0.156,-0.095,-0.067
0.081,0.003,-0.078,-0.042,0.08,-0.037,0.031,0.007,-0.112,-0.155,-0.095,-0.061
0.102,0.021,-0.08,-0.061,0.091,-0.029,-0.002,0.0,-0.115,-0.165,-0.102,-0.06
0.055,-0.027,-0.082,-0.014,0.069,-0.054,-0.028,-0.047,-0.142,-0.154,-0.097,-0.064
0.043,-0.088,-0.131,0.022,0.087,-0.109,-0.02,-0.055,-0.179,-0.175,-0.104,-0.085
0.064,-0.072,-0.136,0.004,0.1,-0.103,-0.021,-0.058,-0.18,-0.185,-0.096,-0.083
0.018,-0.108,-0.126,0.045,0.073,-0.117,-0.007,-0.048,-0.183,-0.188,-0.119,-0.101
-0.027,-0.148,-0.121,0.088,0.047,-0.134,-0.011,-0.069,-0.202,-0.2,-0.133,-0.115
-0.04,-0.157,-0.117,0.098,0.039,-0.136,0.004,-0.065,-0.174,-0.182,-0.125,-0.113
-0.024,-0.139,-0.115,0.082,0.046,-0.127,0.007,-0.082,-0.207,-0.216,-0.137,-0.119
0.008,-0.096,-0.104,0.044,0.057,-0.1,0.016,-0.038,-0.156,-0.171,-0.111,-0.108
0.037,-0.091,-0.128,0.027,0.083,-0.109,0.032,-0.073,-0.208,-0.235,-0.143,-0.126
0.012,-0.095,-0.107,0.042,0.06,-0.101,0.028,-0.024,-0.145,-0.166,-0.119,-0.112
-0.099,-0.28,-0.181,0.19,0.041,-0.231,0.301,0.2,-0.202,-0.394,-0.355,-0.308
-0.081,-0.262,-0.182,0.172,0.051,-0.222,0.449,0.428,-0.173,-0.523,-0.472,-0.416
0.144,0.171,0.027,-0.157,0.059,0.098,0.089,0.325,0.126,-0.017,0.044,0.036
0.496,1.412,0.916,-0.954,-0.21,1.164,-1.037,-1.191,0.337,1.521,1.6,1.304
0.559,2.172,1.614,-1.366,-0.527,1.893,-1.814,-2.086,1.062,3.393,2.8,2.079
0.16,0.897,0.738,-0.529,-0.289,0.817,-1.11,-1.471,-0.027,1.401,1.1,0.824
-0.026,0.025,0.05,0.0,-0.038,0.037,-0.408,-0.796,-0.948,-0.553,-0.259,-0.126
0.023,0.046,0.022,-0.034,0.001,0.034,-0.13,-0.137,-0.021,0.077,-0.028,-0.052
0.012,-0.056,-0.068,0.023,0.04,-0.062,0.024,0.003,-0.022,-0.092,-0.139,-0.112
0.003,-0.039,-0.042,0.018,0.023,-0.04,0.042,0.048,0.02,-0.059,-0.082,-0.091
-0.004,-0.074,-0.07,0.039,0.033,-0.072,0.098,0.122,0.057,-0.063,-0.104,-0.128
0.002,-0.054,-0.056,0.026,0.029,-0.055,0.086,0.11,0.03,-0.093,-0.105,-0.115
-0.001,-0.061,-0.061,0.031,0.03,-0.061,0.112,0.166,0.112,-0.036,-0.087,-0.106
0.0,-0.062,-0.062,0.031,0.031,-0.062,0.126,0.157,0.065,-0.089,-0.1,-0.111
-0.002,-0.055,-0.053,0.029,0.026,-0.054,0.123,0.181,0.138,-0.025,-0.065,-0.093
-0.003,-0.048,-0.045,0.025,0.022,-0.046,0.127,0.186,0.138,-0.039,-0.078,-0.1
0.005,-0.02,-0.025,0.008,0.015,-0.022,0.127,0.219,0.193,0.017,-0.045,-0.084
0.026,-0.003,-0.028,-0.011,0.027,-0.015,0.15,0.259,0.229,0.022,-0.038,-0.085
0.071,0.052,-0.019,-0.061,0.045,0.016,0.149,0.302,0.278,0.057,-0.013,-0.071
0.08,0.064,-0.016,-0.072,0.048,0.023,0.144,0.339,0.317,0.085,-0.005,-0.07
0.036,0.061,0.025,-0.049,0.005,0.043,0.162,0.398,0.378,0.131,0.024,-0.05
0.03,0.091,0.062,-0.061,-0.016,0.076,0.169,0.472,0.456,0.194,0.068,-0.01
0.037,0.112,0.075,-0.075,-0.019,0.093,0.162,0.513,0.5,0.235,0.092,0.011
0.06,0.159,0.099,-0.11,-0.02,0.129,0.156,0.552,0.557,0.306,0.151,0.045
0.082,0.197,0.116,-0.14,-0.017,0.156,0.153,0.566,0.591,0.36,0.196,0.073
0.06,0.206,0.146,-0.133,-0.043,0.176,0.138,0.546,0.605,0.4,0.233,0.105
0.075,0.221,0.147,-0.148,-0.036,0.184,0.108,0.5,0.585,0.409,0.246,0.124
0.076,0.211,0.135,-0.144,-0.03,0.173,0.079,0.418,0.524,0.393,0.227,0.116
0.07,0.203,0.134,-0.137,-0.032,0.168,0.059,0.332,0.444,0.353,0.214,0.113
0.08,0.18,0.099,-0.131,-0.01,0.139,0.044,0.24,0.321,0.25,0.163,0.074
0.042,0.114,0.073,-0.078,-0.016,0.093,0.033,0.134,0.196,0.139,0.085,0.009
0.0,0.053,0.053,-0.027,-0.027,0.053,0.021,0.079,0.096,0.053,0.017,-0.043
-0.007,0.019,0.026,-0.006,-0.017,0.022,0.01,0.03,0.025,-0.009,-0.023,-0.07
0.008,-0.007,-0.015,-0.001,0.012,-0.011,0.008,-0.005,-0.031,-0.069,-0.064,-0.095
0.017,-0.037,-0.054,0.01,0.036,-0.045,0.011,-0.012,-0.081,-0.117,-0.099,-0.122
-0.017,-0.054,-0.038,0.036,0.011,-0.046,0.009,-0.033,-0.1,-0.133,-0.11,-0.132
-0.038,-0.055,-0.017,0.047,-0.01,-0.035,0.01,-0.033,-0.109,-0.141,-0.122,-0.141
-0.031,-0.055,-0.024,0.043,-0.003,-0.039,0.01,-0.025,-0.101,-0.14,-0.12,-0.14
-0.016,-0.056,-0.039,0.036,0.012,-0.047,0.01,-0.02,-0.094,-0.138,-0.117,-0.138
-0.01,-0.054,-0.044,0.032,0.018,-0.049,0.022,-0.012,-0.088,-0.134,-0.115,-0.148
-0.022,-0.057,-0.034,0.04,0.006,-0.045,0.025,-0.014,-0.081,-0.135,-0.115,-0.157
-0.016,-0.049,-0.032,0.033,0.008,-0.04,0.019,-0.015,-0.08,-0.138,-0.115,-0.152
-0.019,-0.043,-0.024,0.031,0.002,-0.033,0.017,-0.016,-0.08,-0.141,-0.115,-0.15
-0.008,-0.03,-0.021,0.019,0.007,-0.025,0.012,-0.02,-0.08,-0.139,-0.115,-0.147
0.011,-0.03,-0.041,0.01,0.026,-0.035,0.009,-0.02,-0.082,-0.142,-0.115,-0.144
-0.021,-0.067,-0.046,0.044,0.012,-0.056,0.006,-0.021,-0.099,-0.153,-0.116,-0.149
-0.033,-0.072,-0.039,0.052,0.003,-0.055,0.001,-0.018,-0.106,-0.148,-0.115,-0.15
-0.031,-0.069,-0.038,0.05,0.003,-0.053,-0.001,-0.029,-0.123,-0.16,-0.127,-0.15
-0.039,-0.071,-0.032,0.055,-0.003,-0.051,-0.005,-0.035,-0.122,-0.162,-0.118,-0.15
-0.041,-0.07,-0.029,0.055,-0.006,-0.049,-0.01,-0.038,-0.135,-0.163,-0.118,-0.15
-0.024,-0.069,-0.046,0.047,0.011,-0.057,-0.008,-0.061,-0.175,-0.19,-0.146,-0.149
-0.003,-0.064,-0.061,0.034,0.03,-0.062,-0.004,-0.069,-0.177,-0.191,-0.145,-0.145
0.003,-0.061,-0.064,0.029,0.034,-0.062,-0.006,-0.068,-0.181,-0.188,-0.14,-0.145
0.008,-0.057,-0.065,0.025,0.037,-0.061,-0.001,-0.065,-0.186,-0.187,-0.139,-0.142
0.011,-0.054,-0.065,0.022,0.038,-0.06,0.0,-0.065,-0.184,-0.183,-0.134,-0.14
0.017,-0.047,-0.064,0.015,0.04,-0.055,0.0,-0.065,-0.186,-0.188,-0.137,-0.14
-0.007,-0.076,-0.069,0.042,0.032,-0.072,0.005,-0.072,-0.188,-0.196,-0.148,-0.145
-0.023,-0.099,-0.076,0.062,0.027,-0.087,0.005,-0.081,-0.191,-0.196,-0.151,-0.147
-0.018,-0.093,-0.075,0.056,0.029,-0.084,0.006,-0.08,-0.189,-0.194,-0.149,-0.144
-0.021,-0.096,-0.076,0.059,0.028,-0.086,0.01,-0.08,-0.19,-0.196,-0.15,-0.141
-0.017,-0.091,-0.074,0.054,0.029,-0.082,0.01,-0.08,-0.19,-0.194,-0.149,-0.138
-0.013,-0.089,-0.076,0.051,0.032,-0.082,0.008,-0.08,-0.188,-0.196,-0.15,-0.135
-0.013,-0.085,-0.071,0.049,0.03,-0.078,0.005,-0.076,-0.185,-0.19,-0.146,-0.136
-0.017,-0.083,-0.066,0.05,0.024,-0.074,0.004,-0.066,-0.184,-0.186,-0.141,-0.146
-0.022,-0.078,-0.055,0.05,0.017,-0.066,0.001,-0.059,-0.187,-0.18,-0.135,-0.145
-0.008,-0.054,-0.046,0.032,0.019,-0.05,-0.002,-0.051,-0.172,-0.174,-0.128,-0.13
0.015,-0.015,-0.03,0.001,0.022,-0.022,0.021,-0.042,-0.145,-0.16,-0.118,-0.121
0.039,0.034,-0.005,-0.036,0.022,0.015,0.021,-0.04,-0.146,-0.147,-0.106,-0.105
0.072,0.04,-0.033,-0.056,0.052,0.004,0.003,-0.021,-0.15,-0.149,-0.092,-0.1
0.054,0.015,-0.039,-0.034,0.046,-0.012,-0.019,-0.053,-0.155,-0.143,-0.084,-0.1
0.034,-0.042,-0.076,0.004,0.055,-0.058,-0.05,-0.085,-0.163,-0.158,-0.107,-0.099
0.062,-0.069,-0.132,0.004,0.097,-0.1,-0.045,-0.088,-0.172,-0.192,-0.133,-0.102
0.066,-0.048,-0.114,-0.008,0.09,-0.081,-0.037,-0.079,-0.166,-0.173,-0.121,-0.099
0.021,-0.098,-0.118,0.039,0.07,-0.108,-0.022,-0.08,-0.205,-0.202,-0.147,-0.132
-0.002,-0.105,-0.103,0.054,0.05,-0.104,-0.025,-0.11,-0.212,-0.202,-0.15,-0.139
-0.008,-0.115,-0.107,0.062,0.049,-0.111,-0.006,-0.099,-0.202,-0.204,-0.158,-0.142
-0.014,-0.106,-0.092,0.06,0.039,-0.099,-0.013,-0.115,-0.225,-0.214,-0.155,-0.139
-0.011,-0.111,-0.1,0.061,0.045,-0.105,0.007,-0.074,-0.186,-0.185,-0.149,-0.139
-0.01,-0.113,-0.103,0.061,0.046,-0.108,0.003,-0.12,-0.244,-0.237,-0.17,-0.146
-0.018,-0.11,-0.092,0.065,0.037,-0.101,0.06,0.011,-0.166,-0.179,-0.172,-0.173
-0.142,-0.297,-0.154,0.22,0.006,-0.225,0.346,0.217,-0.265,-0.502,-0.461,-0.4
-0.104,-0.213,-0.109,0.158,0.003,-0.161,0.38,0.448,-0.087,-0.46,-0.457,-0.405
0.192,0.394,0.203,-0.293,-0.006,0.298,-0.167,-0.006,0.082,0.185,0.272,0.234
0.493,1.757,1.264,-1.125,-0.386,1.51,-1.39,-1.657,0.389,2.113,2.04,1.597
0.418,1.971,1.553,-1.195,-0.568,1.762,-1.755,-2.025,0.824,3.232,2.554,1.839
0.018,0.514,0.496,-0.267,-0.239,0.505,-0.858,-1.284,-0.578,0.543,0.48,0.396
-0.061,0.003,0.064,0.029,-0.062,0.033,-0.326,-0.624,-0.79,-0.498,-0.286,-0.162
-0.042,-0.023,0.018,0.033,-0.03,-0.002,-0.087,-0.079,0.054,0.135,-0.049,-0.074
-0.05,-0.093,-0.043,0.071,-0.003,-0.068,0.01,-0.038,-0.093,-0.153,-0.185,-0.137
-0.009,-0.039,-0.03,0.024,0.011,-0.034,0.03,0.047,0.056,-0.023,-0.093,-0.106
-0.012,-0.071,-0.059,0.042,0.023,-0.065,0.099,0.079,0.027,-0.105,-0.153,-0.143
-0.008,-0.041,-0.032,0.025,0.012,-0.036,0.099,0.101,0.067,-0.06,-0.118,-0.119
-0.055,-0.102,-0.047,0.078,-0.004,-0.074,0.11,0.125,0.09,-0.058,-0.129,-0.142
-0.049,-0.081,-0.033,0.065,-0.008,-0.057,0.102,0.106,0.083,-0.069,-0.118,-0.132
-0.026,-0.062,-0.036,0.044,0.005,-0.049,0.106,0.147,0.136,-0.027,-0.102,-0.122
-0.015,-0.046,-0.031,0.031,0.008,-0.039,0.11,0.153,0.133,-0.037,-0.105,-0.119
0.0,-0.02,-0.02,0.01,0.01,-0.019,0.125,0.188,0.201,0.01,-0.068,-0.105
0.019,0.002,-0.017,-0.01,0.018,-0.007,0.135,0.214,0.226,0.019,-0.06,-0.103
0.029,0.034,0.005,-0.031,0.012,0.019,0.145,0.263,0.279,0.062,-0.04,-0.087
0.024,0.042,0.018,-0.033,0.002,0.03,0.15,0.318,0.328,0.087,-0.018,-0.08
0.016,0.065,0.049,-0.041,-0.017,0.056,0.156,0.372,0.389,0.14,0.021,-0.054
-0.008,0.077,0.085,-0.035,-0.047,0.081,0.173,0.432,0.45,0.19,0.043,-0.03
0.022,0.122,0.1,-0.072,-0.04,0.111,0.162,0.489,0.514,0.262,0.1,0.014
0.062,0.166,0.104,-0.114,-0.021,0.135,0.151,0.515,0.562,0.318,0.148,0.058
0.074,0.197,0.123,-0.136,-0.025,0.16,0.139,0.502,0.578,0.357,0.176,0.086
0.063,0.229,0.166,-0.147,-0.051,0.197,0.117,0.489,0.573,0.402,0.226,0.116
0.065,0.231,0.165,-0.148,-0.05,0.198,0.084,0.439,0.553,0.406,0.227,0.119
0.077,0.227,0.15,-0.153,-0.036,0.188,0.049,0.351,0.496,0.383,0.21,0.11
0.052,0.198,0.146,-0.125,-0.047,0.171,0.034,0.262,0.381,0.303,0.169,0.09
0.041,0.147,0.107,-0.094,-0.033,0.127,0.026,0.177,0.261,0.196,0.096,0.05
0.033,0.097,0.064,-0.065,-0.016,0.08,0.014,0.093,0.145,0.1,0.032,0.004
0.011,0.054,0.043,-0.033,-0.016,0.049,0.006,0.035,0.049,0.019,-0.025,-0.039
-0.015,0.016,0.031,0.0,-0.023,0.023,0.005,-0.006,-0.012,-0.046,-0.064,-0.068
-0.023,-0.024,-0.001,0.024,-0.011,-0.013,0.005,-0.042,-0.066,-0.107,-0.104,-0.097
-0.01,-0.037,-0.027,0.024,0.009,-0.032,0.0,-0.046,-0.114,-0.132,-0.127,-0.114
-0.014,-0.039,-0.025,0.027,0.005,-0.031,0.0,-0.045,-0.131,-0.143,-0.134,-0.118
-0.013,-0.037,-0.025,0.026,0.006,-0.031,0.001,-0.043,-0.122,-0.148,-0.139,-0.117
-0.008,-0.034,-0.025,0.021,0.009,-0.03,0.005,-0.039,-0.116,-0.144,-0.134,-0.113
-0.012,-0.036,-0.024,0.024,0.007,-0.03,0.008,-0.041,-0.11,-0.145,-0.135,-0.111
-0.003,-0.029,-0.026,0.017,0.011,-0.027,0.01,-0.036,-0.102,-0.14,-0.135,-0.108
-0.002,-0.031,-0.029,0.016,0.013,-0.03,0.014,-0.031,-0.102,-0.14,-0.135,-0.105
0.004,-0.029,-0.033,0.013,0.019,-0.031,0.014,-0.027,-0.106,-0.143,-0.135,-0.105
0.012,-0.024,-0.036,0.006,0.024,-0.03,0.023,-0.023,-0.105,-0.145,-0.131,-0.105
-0.009,-0.049,-0.039,0.029,0.016,-0.044,0.031,-0.018,-0.105,-0.147,-0.13,-0.105
-0.016,-0.056,-0.04,0.036,0.013,-0.048,0.022,-0.015,-0.105,-0.15,-0.13,-0.105
-0.012,-0.052,-0.04,0.032,0.014,-0.046,0.016,-0.024,-0.106,-0.15,-0.13,-0.105
-0.008,-0.048,-0.04,0.028,0.016,-0.044,0.008,-0.027,-0.118,-0.157,-0.13,-0.105
-0.008,-0.048,-0.04,0.028,0.016,-0.043,0.0,-0.034,-0.134,-0.168,-0.131,-0.108
-0.001,-0.041,-0.04,0.021,0.02,-0.04,-0.004,-0.044,-0.144,-0.174,-0.136,-0.112
-0.007,-0.047,-0.04,0.027,0.016,-0.043,0.002,-0.049,-0.153,-0.181,-0.139,-0.115
-0.042,-0.077,-0.035,0.06,-0.003,-0.056,0.009,-0.063,-0.168,-0.184,-0.144,-0.118
-0.032,-0.068,-0.036,0.05,0.002,-0.051,0.01,-0.069,-0.173,-0.185,-0.145,-0.122
-0.022,-0.055,-0.033,0.039,0.006,-0.044,0.01,-0.072,-0.176,-0.184,-0.145,-0.125
-0.023,-0.054,-0.031,0.038,0.004,-0.042,0.01,-0.077,-0.182,-0.186,-0.15,-0.125
-0.017,-0.046,-0.029,0.032,0.006,-0.037,0.01,-0.079,-0.185,-0.184,-0.15,-0.127
-0.004,-0.04,-0.035,0.022,0.016,-0.037,0.008,-0.08,-0.189,-0.188,-0.151,-0.13
-0.007,-0.052,-0.045,0.03,0.019,-0.048,0.005,-0.081,-0.189,-0.197,-0.158,-0.13
-0.021,-0.059,-0.038,0.04,0.009,-0.048,0.002,-0.081,-0.19,-0.196,-0.157,-0.126
0.0,-0.034,-0.034,0.017,0.018,-0.034,0.0,-0.08,-0.19,-0.195,-0.154,-0.125
-0.015,-0.042,-0.027,0.029,0.007,-0.034,-0.004,-0.078,-0.188,-0.193,-0.155,-0.125
-0.023,-0.046,-0.023,0.034,0.0,-0.034,-0.005,-0.076,-0.186,-0.19,-0.155,-0.12
-0.001,-0.019,-0.018,0.01,0.008,-0.018,-0.006,-0.073,-0.183,-0.188,-0.155,-0.12
-0.03,-0.042,-0.012,0.036,-0.008,-0.027,-0.004,-0.084,-0.197,-0.2,-0.155,-0.12
-0.046,-0.056,-0.01,0.051,-0.018,-0.033,-0.006,-0.086,-0.202,-0.204,-0.149,-0.111
-0.017,-0.019,-0.002,0.018,-0.007,-0.011,-0.018,-0.078,-0.19,-0.193,-0.147,-0.1
0.023,0.02,-0.002,-0.021,0.012,0.009,-0.009,-0.069,-0.177,-0.183,-0.137,-0.089
0.005,0.036,0.031,-0.021,-0.013,0.034,-0.001,-0.06,-0.163,-0.168,-0.12,-0.082
0.011,0.033,0.022,-0.023,-0.005,0.027,0.013,-0.052,-0.15,-0.156,-0.119,-0.079
0.067,0.058,-0.008,-0.062,0.037,0.025,-0.007,-0.054,-0.14,-0.136,-0.127,-0.081
0.044,0.039,-0.005,-0.042,0.025,0.017,-0.057,-0.074,-0.159,-0.144,-0.128,-0.078
0.039,-0.034,-0.073,-0.003,0.056,-0.053,-0.051,-0.075,-0.184,-0.185,-0.131,-0.081
0.038,-0.056,-0.094,0.009,0.066,-0.075,-0.052,-0.074,-0.179,-0.188,-0.131,-0.079
0.035,-0.042,-0.077,0.003,0.056,-0.059,-0.042,-0.054,-0.162,-0.176,-0.126,-0.08
0.017,-0.065,-0.082,0.024,0.049,-0.073,-0.033,-0.08,-0.206,-0.203,-0.142,-0.106
-0.026,-0.105,-0.08,0.066,0.027,-0.092,-0.024,-0.082,-0.205,-0.198,-0.162,-0.131
-0.009,-0.091,-0.083,0.05,0.037,-0.087,-0.01,-0.092,-0.232,-0.236,-0.181,-0.142
-0.019,-0.078,-0.058,0.049,0.02,-0.068,-0.016,-0.072,-0.19,-0.185,-0.148,-0.124
-0.027,-0.104,-0.077,0.066,0.025,-0.091,0.012,-0.073,-0.214,-0.231,-0.181,-0.149
-0.006,-0.054,-0.048,0.031,0.021,-0.051,0.001,-0.074,-0.19,-0.183,-0.139,-0.116
-0.102,-0.197,-0.095,0.15,-0.003,-0.146,0.217,0.132,-0.183,-0.307,-0.292,-0.254
-0.168,-0.277,-0.109,0.223,-0.029,-0.193,0.435,0.335,-0.267,-0.563,-0.51,-0.434
0.029,0.026,-0.003,-0.027,0.016,0.011,0.217,0.428,0.056,-0.194,-0.177,-0.158
0.389,1.075,0.685,-0.732,-0.148,0.88,-0.769,-0.784,0.226,0.979,1.106,0.94
0.594,2.246,1.652,-1.42,-0.529,1.949,-1.84,-2.077,1.025,3.177,2.737,2.094
0.25,1.33,1.08,-0.79,-0.415,1.204,-1.412,-1.718,0.437,2.121,1.645,1.226
-0.061,0.118,0.179,-0.029,-0.12,0.148,-0.547,-0.99,-0.971,-0.432,-0.163,-0.04
0.012,0.101,0.089,-0.057,-0.039,0.095,-0.193,-0.266,-0.203,-0.052,-0.088,-0.083
0.0,0.017,0.017,-0.009,-0.009,0.017,0.021,0.009,0.035,0.008,-0.113,-0.095
-0.017,0.013,0.03,0.002,-0.024,0.021,0.041,0.009,-0.067,-0.116,-0.121,-0.098
-0.033,-0.017,0.015,0.025,-0.024,-0.001,0.082,0.105,0.058,-0.05,-0.103,-0.113
-0.049,-0.038,0.011,0.043,-0.029,-0.013,0.097,0.094,-0.004,-0.137,-0.141,-0.121
-0.04,-0.031,0.01,0.035,-0.025,-0.01,0.099,0.142,0.096,-0.043,-0.095,-0.103
-0.048,-0.051,-0.003,0.05,-0.023,-0.027,0.116,0.144,0.055,-0.104,-0.126,-0.116
-0.022,-0.025,-0.003,0.023,-0.009,-0.014,0.132,0.172,0.124,-0.038,-0.091,-0.098
0.002,-0.017,-0.019,0.007,0.01,-0.017,0.143,0.187,0.118,-0.049,-0.1,-0.109
-0.003,0.025,0.028,-0.012,-0.015,0.026,0.141,0.205,0.162,-0.008,-0.073,-0.093
-0.005,0.033,0.038,-0.014,-0.022,0.035,0.15,0.251,0.212,0.004,-0.058,-0.09
-0.001,0.024,0.025,-0.012,-0.013,0.024,0.149,0.276,0.238,0.02,-0.04,-0.083
-0.01,0.042,0.053,-0.016,-0.032,0.047,0.164,0.33,0.3,0.074,-0.015,-0.068
0.005,0.074,0.069,-0.04,-0.032,0.071,0.179,0.391,0.346,0.108,0.01,-0.047
0.007,0.101,0.095,-0.054,-0.044,0.098,0.187,0.456,0.416,0.166,0.048,-0.013
0.016,0.143,0.127,-0.079,-0.056,0.135,0.183,0.521,0.48,0.22,0.089,0.016
0.04,0.175,0.135,-0.108,-0.048,0.155,0.173,0.56,0.528,0.28,0.125,0.04
0.052,0.207,0.155,-0.13,-0.052,0.18,0.167,0.597,0.568,0.337,0.171,0.076
0.096,0.269,0.173,-0.182,-0.039,0.221,0.158,0.58,0.589,0.394,0.218,0.108
0.099,0.294,0.195,-0.196,-0.048,0.244,0.126,0.521,0.569,0.418,0.231,0.12
0.08,0.29,0.21,-0.185,-0.065,0.25,0.088,0.46,0.533,0.4,0.23,0.13
0.066,0.27,0.204,-0.168,-0.069,0.237,0.063,0.359,0.456,0.349,0.207,0.119
0.043,0.213,0.17,-0.128,-0.064,0.191,0.044,0.261,0.328,0.257,0.145,0.076
0.037,0.166,0.129,-0.102,-0.046,0.148,0.028,0.173,0.208,0.156,0.077,0.026
0.032,0.135,0.103,-0.084,-0.036,0.119,0.015,0.094,0.108,0.067,0.018,-0.016
0.019,0.101,0.082,-0.06,-0.032,0.091,0.015,0.033,0.022,-0.015,-0.041,-0.052
-0.002,0.061,0.062,-0.03,-0.032,0.061,0.015,-0.006,-0.051,-0.076,-0.08,-0.083
-0.031,0.018,0.05,0.007,-0.041,0.033,0.01,-0.026,-0.096,-0.119,-0.105,-0.101
-0.045,0.004,0.049,0.02,-0.047,0.026,0.01,-0.05,-0.112,-0.139,-0.12,-0.104
-0.03,0.015,0.045,0.007,-0.038,0.03,0.01,-0.054,-0.118,-0.146,-0.119,-0.107
-0.017,0.026,0.043,-0.004,-0.03,0.034,0.01,-0.047,-0.121,-0.149,-0.122,-0.113
-0.006,0.032,0.039,-0.013,-0.023,0.035,0.01,-0.042,-0.12,-0.155,-0.132,-0.118
-0.015,0.03,0.046,-0.008,-0.031,0.038,0.01,-0.036,-0.116,-0.166,-0.135,-0.125
-0.034,0.029,0.063,0.002,-0.048,0.046,0.01,-0.033,-0.114,-0.165,-0.135,-0.125
-0.036,0.026,0.061,0.005,-0.049,0.043,0.01,-0.029,-0.11,-0.163,-0.135,-0.125
-0.031,0.024,0.055,0.003,-0.043,0.039,0.007,-0.025,-0.111,-0.16,-0.135,-0.125
-0.013,0.034,0.047,-0.011,-0.03,0.04,0.002,-0.022,-0.117,-0.159,-0.135,-0.125
-0.007,0.034,0.041,-0.013,-0.024,0.037,-0.001,-0.018,-0.118,-0.162,-0.137,-0.123
-0.005,0.027,0.031,-0.011,-0.018,0.029,-0.004,-0.029,-0.131,-0.169,-0.141,-0.119
-0.006,0.021,0.027,-0.008,-0.017,0.024,-0.009,-0.042,-0.152,-0.175,-0.14,-0.117
-0.035,0.016,0.05,0.009,-0.043,0.033,-0.009,-0.046,-0.151,-0.176,-0.14,-0.114
-0.043,0.011,0.054,0.016,-0.049,0.033,0.004,-0.05,-0.152,-0.174,-0.14,-0.111
-0.041,0.006,0.047,0.018,-0.045,0.026,0.014,-0.058,-0.169,-0.178,-0.14,-0.11
-0.041,0.003,0.044,0.019,-0.043,0.023,0.015,-0.081,-0.176,-0.184,-0.147,-0.115
-0.043,-0.003,0.04,0.023,-0.041,0.018,0.015,-0.089,-0.179,-0.188,-0.152,-0.118
-0.049,-0.004,0.044,0.026,-0.046,0.02,0.015,-0.091,-0.195,-0.2,-0.155,-0.123
-0.044,0.002,0.046,0.02,-0.045,0.024,0.015,-0.096,-0.201,-0.202,-0.155,-0.125
-0.04,0.009,0.05,0.016,-0.045,0.029,0.014,-0.094,-0.206,-0.199,-0.154,-0.125
-0.037,0.016,0.052,0.01,-0.045,0.034,0.009,-0.095,-0.203,-0.201,-0.156,-0.129
-0.033,0.023,0.056,0.005,-0.045,0.039,0.004,-0.095,-0.201,-0.198,-0.153,-0.13
-0.03,0.023,0.052,0.003,-0.041,0.037,-0.001,-0.098,-0.222,-0.206,-0.162,-0.13
-0.033,0.016,0.05,0.009,-0.042,0.033,-0.005,-0.102,-0.227,-0.22,-0.175,-0.13
-0.035,0.015,0.05,0.01,-0.043,0.032,-0.01,-0.107,-0.229,-0.225,-0.175,-0.13
-0.054,-0.004,0.05,0.029,-0.052,0.023,-0.01,-0.115,-0.23,-0.224,-0.175,-0.13
-0.056,-0.005,0.05,0.031,-0.053,0.022,-0.01,-0.114,-0.223,-0.225,-0.175,-0.13
-0.045,0.004,0.05,0.02,-0.048,0.027,-0.01,-0.118,-0.219,-0.225,-0.175,-0.13
-0.04,0.016,0.056,0.012,-0.048,0.036,-0.009,-0.126,-0.214,-0.226,-0.174,-0.128
0.003,0.061,0.058,-0.032,-0.028,0.059,-0.01,-0.122,-0.211,-0.225,-0.168,-0.122
-0.009,0.083,0.092,-0.037,-0.051,0.087,-0.008,-0.119,-0.205,-0.207,-0.163,-0.115
-0.023,0.111,0.134,-0.044,-0.079,0.122,-0.006,-0.12,-0.201,-0.203,-0.16,-0.112
0.013,0.141,0.128,-0.077,-0.058,0.134,-0.003,-0.121,-0.2,-0.205,-0.153,-0.103
0.023,0.14,0.117,-0.082,-0.047,0.128,-0.024,-0.118,-0.194,-0.207,-0.15,-0.103
0.039,0.148,0.108,-0.094,-0.035,0.128,-0.072,-0.123,-0.199,-0.212,-0.134,-0.089
0.045,0.127,0.082,-0.086,-0.019,0.104,-0.072,-0.116,-0.219,-0.207,-0.144,-0.095
0.033,0.088,0.055,-0.061,-0.011,0.071,-0.06,-0.128,-0.248,-0.223,-0.176,-0.128
0.01,0.066,0.056,-0.039,-0.023,0.061,-0.056,-0.137,-0.225,-0.204,-0.163,-0.12
-0.039,0.045,0.084,-0.003,-0.062,0.064,-0.041,-0.149,-0.249,-0.237,-0.187,-0.145
-0.046,0.052,0.097,-0.003,-0.072,0.074,-0.047,-0.151,-0.264,-0.237,-0.192,-0.158
-0.044,0.034,0.078,0.004,-0.061,0.056,-0.027,-0.139,-0.271,-0.25,-0.206,-0.164
-0.035,0.048,0.083,-0.007,-0.059,0.065,-0.04,-0.15,-0.286,-0.246,-0.195,-0.155
-0.038,0.029,0.066,0.004,-0.052,0.047,-0.012,-0.114,-0.259,-0.234,-0.201,-0.165
-0.026,0.042,0.068,-0.008,-0.047,0.055,-0.03,-0.151,-0.314,-0.267,-0.202,-0.155
-0.055,-0.011,0.043,0.032,-0.049,0.016,0.073,-0.008,-0.239,-0.248,-0.235,-0.198
-0.182,-0.187,-0.006,0.184,-0.088,-0.096,0.358,0.181,-0.346,-0.583,-0.518,-0.423
-0.068,-0.044,0.024,0.056,-0.046,-0.01,0.336,0.436,-0.121,-0.451,-0.428,-0.363
0.233,0.641,0.408,-0.437,-0.087,0.524,-0.299,-0.162,0.088,0.292,0.413,0.38
0.56,2.038,1.478,-1.3,-0.459,1.758,-1.563,-1.784,0.73,2.399,2.244,1.787
0.458,2.016,1.559,-1.237,-0.551,1.787,-1.765,-2.007,1.046,3.052,2.386,1.78
-0.01,0.525,0.535,-0.258,-0.272,0.529,-0.84,-1.314,-0.67,0.213,0.254,0.267
-0.061,0.14,0.2,-0.04,-0.131,0.17,-0.329,-0.603,-0.685,-0.429,-0.259,-0.165
-0.014,0.139,0.153,-0.063,-0.084,0.146,-0.069,-0.077,0.066,0.072,-0.061,-0.097
-0.043,0.081,0.124,-0.019,-0.084,0.102,-0.01,-0.073,-0.147,-0.224,-0.186,-0.148
-0.029,0.113,0.143,-0.042,-0.086,0.128,0.02,0.023,0.013,-0.084,-0.122,-0.119
-0.048,0.069,0.116,-0.011,-0.082,0.092,0.068,0.049,-0.053,-0.193,-0.193,-0.161
-0.037,0.091,0.128,-0.027,-0.083,0.11,0.054,0.067,0.015,-0.119,-0.144,-0.128
-0.037,0.073,0.109,-0.018,-0.073,0.091,0.079,0.079,0.019,-0.14,-0.167,-0.14
-0.03,0.083,0.113,-0.026,-0.072,0.098,0.088,0.085,0.028,-0.126,-0.153,-0.126
-0.028,0.081,0.109,-0.027,-0.069,0.095,0.105,0.122,0.078,-0.098,-0.145,-0.122
-0.035,0.104,0.139,-0.035,-0.087,0.122,0.101,0.129,0.079,-0.107,-0.135,-0.119
-0.031,0.117,0.148,-0.043,-0.089,0.132,0.107,0.171,0.143,-0.048,-0.107,-0.109
-0.028,0.112,0.14,-0.042,-0.084,0.126,0.114,0.208,0.17,-0.033,-0.099,-0.102
-0.002,0.137,0.139,-0.067,-0.071,0.138,0.136,0.26,0.228,0.006,-0.074,-0.085
-0.003,0.168,0.171,-0.083,-0.087,0.169,0.152,0.313,0.276,0.039,-0.053,-0.075
-0.039,0.172,0.211,-0.067,-0.125,0.191,0.153,0.379,0.337,0.083,-0.012,-0.048
0.023,0.224,0.2,-0.124,-0.089,0.212,0.167,0.445,0.406,0.133,0.021,-0.016
0.042,0.264,0.221,-0.153,-0.09,0.242,0.164,0.496,0.466,0.202,0.064,0.017
0.019,0.268,0.249,-0.144,-0.115,0.258,0.147,0.528,0.518,0.259,0.114,0.051
0.061,0.32,0.259,-0.191,-0.099,0.289,0.132,0.525,0.534,0.311,0.153,0.078
0.05,0.336,0.286,-0.193,-0.119,0.311,0.12,0.491,0.514,0.346,0.19,0.106
0.047,0.351,0.305,-0.199,-0.129,0.328,0.085,0.437,0.507,0.353,0.198,0.12
0.05,0.346,0.296,-0.198,-0.123,0.321,0.043,0.351,0.455,0.325,0.178,0.104
0.037,0.317,0.28,-0.177,-0.121,0.298,0.029,0.245,0.34,0.244,0.135,0.071
0.027,0.291,0.264,-0.159,-0.119,0.277,0.018,0.152,0.224,0.138,0.068,0.026
-0.008,0.23,0.238,-0.111,-0.123,0.234,0.005,0.063,0.105,0.042,-0.003,-0.019
-0.021,0.183,0.205,-0.081,-0.113,0.194,-0.005,-0.002,0.002,-0.047,-0.071,-0.064
-0.022,0.153,0.175,-0.065,-0.099,0.164,-0.018,-0.037,-0.071,-0.117,-0.117,-0.093
-0.024,0.134,0.158,-0.055,-0.092,0.146,-0.023,-0.067,-0.12,-0.158,-0.136,-0.114
-0.026,0.13,0.156,-0.052,-0.091,0.142,-0.019,-0.082,-0.15,-0.186,-0.161,-0.133
-0.027,0.123,0.15,-0.048,-0.089,0.136,-0.021,-0.09,-0.161,-0.198,-0.18,-0.136
-0.026,0.12,0.147,-0.047,-0.086,0.133,-0.019,-0.095,-0.161,-0.203,-0.179,-0.14
-0.027,0.114,0.142,-0.044,-0.085,0.127,-0.022,-0.089,-0.176,-0.222,-0.196,-0.161
-0.025,0.111,0.135,-0.043,-0.08,0.123,-0.035,-0.084,-0.182,-0.232,-0.207,-0.172
-0.041,0.118,0.159,-0.038,-0.1,0.138,-0.033,-0.077,-0.175,-0.229,-0.203,-0.169
-0.052,0.121,0.173,-0.035,-0.112,0.147,-0.029,-0.075,-0.175,-0.234,-0.206,-0.17
-0.049,0.119,0.169,-0.035,-0.109,0.144,-0.026,-0.075,-0.17,-0.235,-0.204,-0.17
-0.051,0.119,0.17,-0.034,-0.111,0.145,-0.021,-0.075,-0.171,-0.235,-0.205,-0.169
-0.034,0.136,0.17,-0.051,-0.102,0.153,-0.02,-0.075,-0.175,-0.235,-0.21,-0.166
-0.024,0.145,0.169,-0.061,-0.097,0.157,-0.019,-0.074,-0.178,-0.234,-0.21,-0.164
-0.042,0.134,0.176,-0.046,-0.11,0.155,-0.034,-0.077,-0.184,-0.236,-0.21,-0.166
-0.048,0.13,0.178,-0.041,-0.113,0.153,-0.042,-0.078,-0.183,-0.233,-0.21,-0.165
-0.045,0.122,0.167,-0.039,-0.106,0.144,-0.039,-0.104,-0.206,-0.246,-0.21,-0.165
-0.071,0.115,0.186,-0.023,-0.128,0.15,-0.041,-0.128,-0.228,-0.257,-0.21,-0.165
-0.075,0.122,0.197,-0.023,-0.136,0.159,-0.04,-0.126,-0.233,-0.253,-0.209,-0.165
-0.063,0.124,0.187,-0.031,-0.125,0.155,-0.04,-0.131,-0.243,-0.257,-0.211,-0.176
-0.048,0.138,0.186,-0.046,-0.117,0.162,-0.044,-0.132,-0.237,-0.252,-0.207,-0.181
-0.027,0.152,0.179,-0.063,-0.103,0.166,-0.045,-0.139,-0.252,-0.267,-0.223,-0.179
-0.032,0.144,0.175,-0.056,-0.104,0.159,-0.047,-0.146,-0.276,-0.291,-0.242,-0.184
-0.037,0.141,0.178,-0.052,-0.108,0.159,-0.05,-0.145,-0.275,-0.29,-0.24,-0.185
-0.044,0.136,0.18,-0.046,-0.113,0.158,-0.05,-0.145,-0.275,-0.29,-0.238,-0.185
-0.049,0.131,0.18,-0.041,-0.115,0.155,-0.05,-0.145,-0.275,-0.291,-0.235,-0.18
-0.048,0.132,0.18,-0.042,-0.114,0.156,-0.05,-0.145,-0.274,-0.289,-0.234,-0.18
-0.037,0.144,0.18,-0.054,-0.109,0.162,-0.049,-0.146,-0.278,-0.293,-0.238,-0.178
-0.017,0.161,0.178,-0.072,-0.098,0.169,-0.051,-0.151,-0.28,-0.294,-0.24,-0.175
-0.019,0.156,0.175,-0.069,-0.098,0.165,-0.048,-0.149,-0.28,-0.295,-0.24,-0.174
-0.021,0.153,0.174,-0.066,-0.097,0.163,-0.051,-0.151,-0.284,-0.295,-0.244,-0.177
-0.025,0.146,0.171,-0.06,-0.098,0.158,-0.067,-0.16,-0.285,-0.295,-0.246,-0.189
-0.021,0.146,0.167,-0.062,-0.094,0.156,-0.063,-0.152,-0.286,-0.298,-0.246,-0.183
-0.007,0.191,0.198,-0.092,-0.103,0.194,-0.052,-0.139,-0.259,-0.269,-0.225,-0.173
-0.009,0.227,0.235,-0.109,-0.122,0.231,-0.048,-0.133,-0.232,-0.244,-0.199,-0.164
0.007,0.234,0.226,-0.121,-0.11,0.23,-0.035,-0.131,-0.236,-0.244,-0.194,-0.148
0.0,0.221,0.222,-0.111,-0.111,0.221,-0.054,-0.122,-0.234,-0.246,-0.193,-0.15
0.01,0.214,0.204,-0.112,-0.097,0.209,-0.103,-0.143,-0.237,-0.244,-0.188,-0.148
0.033,0.198,0.165,-0.116,-0.066,0.181,-0.1,-0.153,-0.261,-0.26,-0.204,-0.154
0.001,0.159,0.158,-0.08,-0.079,0.158,-0.09,-0.159,-0.297,-0.298,-0.225,-0.159
-0.016,0.146,0.162,-0.065,-0.089,0.154,-0.081,-0.151,-0.284,-0.279,-0.211,-0.149
-0.023,0.134,0.157,-0.056,-0.09,0.145,-0.068,-0.157,-0.302,-0.306,-0.24,-0.182
-0.023,0.141,0.164,-0.059,-0.094,0.152,-0.073,-0.163,-0.297,-0.293,-0.252,-0.19
-0.037,0.119,0.156,-0.041,-0.097,0.137,-0.056,-0.164,-0.312,-0.315,-0.275,-0.2
-0.019,0.132,0.151,-0.057,-0.085,0.141,-0.072,-0.168,-0.304,-0.3,-0.257,-0.191
-0.033,0.11,0.143,-0.039,-0.088,0.126,-0.042,-0.13,-0.28,-0.3,-0.269,-0.204
-0.056,0.128,0.184,-0.036,-0.12,0.156,-0.072,-0.178,-0.316,-0.322,-0.266,-0.199
-0.075,0.079,0.153,-0.002,-0.114,0.116,0.055,-0.014,-0.243,-0.312,-0.3,-0.249
-0.2,-0.1,0.1,0.15,-0.15,0.0,0.336,0.187,-0.371,-0.665,-0.598,-0.479
-0.068,0.069,0.138,-0.001,-0.103,0.103,0.277,0.408,-0.113,-0.478,-0.468,-0.392
0.264,0.844,0.58,-0.554,-0.159,0.712,-0.426,-0.342,0.014,0.343,0.471,0.438
0.517,2.194,1.677,-1.356,-0.58,1.935,-1.646,-1.924,0.559,2.539,2.309,1.791
0.365,1.944,1.579,-1.155,-0.607,1.761,-1.672,-1.938,0.68,2.852,2.19,1.568
-0.05,0.493,0.543,-0.222,-0.297,0.517,-0.758,-1.217,-0.897,-0.054,0.034,0.104
-0.074,0.209,0.283,-0.068,-0.179,0.246,-0.329,-0.542,-0.644,-0.443,-0.267,-0.193
-0.027,0.177,0.204,-0.075,-0.116,0.19,-0.089,-0.082,0.0,-0.046,-0.084,-0.143
-0.049,0.138,0.187,-0.045,-0.118,0.162,-0.034,-0.083,-0.183,-0.285,-0.23,-0.185
-0.023,0.163,0.186,-0.07,-0.105,0.174,-0.009,0.012,-0.007,-0.116,-0.164,-0.148
-0.044,0.121,0.165,-0.039,-0.105,0.143,0.023,0.013,-0.084,-0.236,-0.242,-0.178
-0.025,0.158,0.184,-0.067,-0.105,0.171,0.03,0.048,0.003,-0.139,-0.186,-0.159
-0.022,0.146,0.168,-0.062,-0.095,0.157,0.058,0.057,0.0,-0.176,-0.206,-0.186
-0.018,0.162,0.18,-0.073,-0.099,0.171,0.043,0.06,0.027,-0.143,-0.181,-0.163
-0.024,0.15,0.174,-0.064,-0.099,0.162,0.071,0.094,0.067,-0.124,-0.174,-0.159
-0.039,0.162,0.201,-0.062,-0.12,0.181,0.075,0.106,0.076,-0.116,-0.169,-0.148
-0.011,0.182,0.193,-0.086,-0.102,0.187,0.074,0.142,0.127,-0.078,-0.147,-0.136
-0.003,0.192,0.195,-0.095,-0.099,0.194,0.076,0.172,0.153,-0.073,-0.137,-0.132
-0.005,0.21,0.215,-0.103,-0.11,0.212,0.073,0.22,0.215,-0.029,-0.108,-0.119
-0.009,0.229,0.237,-0.11,-0.124,0.233,0.1,0.275,0.265,-0.004,-0.091,-0.11
0.013,0.275,0.262,-0.144,-0.125,0.269,0.114,0.342,0.339,0.059,-0.054,-0.085
0.05,0.327,0.276,-0.189,-0.113,0.301,0.105,0.389,0.395,0.112,-0.023,-0.07
0.02,0.337,0.317,-0.179,-0.149,0.327,0.097,0.444,0.458,0.182,0.032,-0.022
0.015,0.349,0.334,-0.182,-0.16,0.341,0.09,0.465,0.501,0.24,0.088,0.028
0.054,0.401,0.347,-0.227,-0.147,0.374,0.081,0.443,0.519,0.288,0.12,0.047
0.053,0.43,0.377,-0.242,-0.162,0.403,0.065,0.412,0.523,0.316,0.163,0.076
0.044,0.419,0.375,-0.232,-0.166,0.397,0.038,0.362,0.488,0.303,0.186,0.089
0.049,0.415,0.367,-0.232,-0.159,0.391,0.007,0.297,0.414,0.28,0.157,0.076
0.048,0.389,0.341,-0.219,-0.146,0.364,-0.01,0.195,0.295,0.204,0.095,0.048
0.029,0.335,0.306,-0.182,-0.139,0.32,-0.026,0.103,0.166,0.086,0.017,0.0
0.009,0.287,0.278,-0.148,-0.135,0.282,-0.042,0.04,0.056,-0.007,-0.043,-0.05
0.002,0.244,0.243,-0.123,-0.121,0.243,-0.045,-0.013,-0.041,-0.09,-0.1,-0.088
-0.01,0.208,0.218,-0.099,-0.114,0.213,-0.045,-0.055,-0.112,-0.16,-0.151,-0.119
-0.021,0.176,0.197,-0.078,-0.109,0.186,-0.045,-0.084,-0.151,-0.202,-0.183,-0.141
-0.027,0.163,0.189,-0.068,-0.108,0.176,-0.045,-0.095,-0.184,-0.233,-0.201,-0.153
-0.025,0.165,0.19,-0.07,-0.108,0.177,-0.046,-0.095,-0.194,-0.241,-0.199,-0.155
-0.022,0.168,0.19,-0.073,-0.107,0.179,-0.044,-0.094,-0.187,-0.248,-0.213,-0.162
-0.021,0.169,0.19,-0.074,-0.105,0.179,-0.046,-0.091,-0.183,-0.249,-0.222,-0.166
-0.017,0.173,0.19,-0.078,-0.103,0.181,-0.044,-0.09,-0.176,-0.244,-0.219,-0.165
-0.025,0.172,0.197,-0.074,-0.112,0.184,-0.045,-0.089,-0.173,-0.244,-0.224,-0.165
-0.02,0.19,0.21,-0.085,-0.115,0.199,-0.059,-0.085,-0.164,-0.237,-0.225,-0.165
-0.021,0.209,0.23,-0.094,-0.126,0.219,-0.059,-0.083,-0.173,-0.255,-0.224,-0.173
-0.032,0.197,0.229,-0.083,-0.131,0.213,-0.053,-0.08,-0.198,-0.271,-0.221,-0.176
-0.033,0.187,0.219,-0.077,-0.126,0.203,-0.052,-0.076,-0.201,-0.268,-0.218,-0.174
-0.035,0.179,0.215,-0.072,-0.125,0.196,-0.045,-0.076,-0.199,-0.264,-0.215,-0.175
-0.037,0.172,0.209,-0.067,-0.123,0.19,-0.046,-0.077,-0.201,-0.266,-0.213,-0.175
-0.045,0.165,0.21,-0.06,-0.128,0.188,-0.052,-0.091,-0.2,-0.264,-0.208,-0.175
-0.046,0.157,0.204,-0.056,-0.125,0.18,-0.059,-0.099,-0.215,-0.268,-0.221,-0.175
-0.036,0.149,0.186,-0.057,-0.111,0.167,-0.064,-0.107,-0.24,-0.295,-0.237,-0.175
-0.021,0.161,0.182,-0.07,-0.101,0.171,-0.065,-0.13,-0.248,-0.303,-0.239,-0.175
-0.019,0.171,0.19,-0.076,-0.105,0.18,-0.065,-0.131,-0.257,-0.304,-0.241,-0.175
-0.028,0.162,0.19,-0.067,-0.11,0.176,-0.065,-0.128,-0.268,-0.309,-0.24,-0.175
-0.028,0.16,0.188,-0.066,-0.108,0.174,-0.066,-0.134,-0.268,-0.309,-0.24,-0.175
-0.03,0.155,0.185,-0.063,-0.108,0.17,-0.07,-0.141,-0.266,-0.303,-0.24,-0.175
-0.034,0.15,0.184,-0.058,-0.109,0.167,-0.07,-0.146,-0.263,-0.295,-0.239,-0.175
-0.038,0.15,0.188,-0.056,-0.113,0.169,-0.072,-0.149,-0.274,-0.305,-0.242,-0.175
-0.04,0.15,0.19,-0.055,-0.115,0.17,-0.076,-0.151,-0.295,-0.312,-0.245,-0.175
-0.04,0.15,0.19,-0.055,-0.115,0.17,-0.075,-0.149,-0.295,-0.309,-0.245,-0.175
-0.035,0.155,0.19,-0.06,-0.113,0.172,-0.075,-0.15,-0.29,-0.31,-0.243,-0.175
-0.032,0.154,0.187,-0.061,-0.11,0.17,-0.075,-0.15,-0.289,-0.31,-0.24,-0.174
-0.033,0.151,0.184,-0.059,-0.109,0.167,-0.075,-0.149,-0.283,-0.308,-0.239,-0.175
-0.039,0.147,0.186,-0.055,-0.112,0.166,-0.075,-0.153,-0.289,-0.316,-0.249,-0.175
-0.039,0.143,0.182,-0.052,-0.111,0.162,-0.074,-0.159,-0.294,-0.32,-0.253,-0.176
-0.03,0.164,0.194,-0.067,-0.112,0.178,-0.077,-0.155,-0.285,-0.298,-0.239,-0.17
-0.015,0.207,0.222,-0.096,-0.119,0.214,-0.08,-0.125,-0.251,-0.292,-0.23,-0.146
-0.015,0.225,0.24,-0.105,-0.128,0.232,-0.087,-0.112,-0.232,-0.297,-0.222,-0.135
-0.01,0.212,0.222,-0.101,-0.117,0.217,-0.087,-0.107,-0.219,-0.293,-0.215,-0.133
0.038,0.226,0.189,-0.132,-0.076,0.207,-0.103,-0.115,-0.22,-0.304,-0.222,-0.131
0.037,0.214,0.176,-0.126,-0.07,0.195,-0.132,-0.145,-0.253,-0.295,-0.217,-0.126
0.035,0.158,0.124,-0.097,-0.045,0.141,-0.122,-0.151,-0.273,-0.303,-0.223,-0.126
0.07,0.159,0.088,-0.115,-0.01,0.123,-0.121,-0.152,-0.279,-0.299,-0.221,-0.125
0.024,0.149,0.125,-0.087,-0.051,0.137,-0.102,-0.141,-0.275,-0.295,-0.227,-0.141
-0.037,0.108,0.145,-0.035,-0.091,0.126,-0.095,-0.153,-0.304,-0.339,-0.26,-0.17
-0.063,0.07,0.133,-0.004,-0.098,0.101,-0.078,-0.134,-0.294,-0.328,-0.266,-0.177
-0.066,0.066,0.133,0.0,-0.099,0.099,-0.075,-0.152,-0.312,-0.34,-0.268,-0.17
-0.055,0.077,0.131,-0.011,-0.093,0.104,-0.073,-0.12,-0.263,-0.293,-0.241,-0.154
-0.069,0.05,0.118,0.009,-0.094,0.084,-0.055,-0.139,-0.298,-0.353,-0.265,-0.161
-0.04,0.084,0.123,-0.022,-0.082,0.103,-0.059,-0.105,-0.247,-0.287,-0.23,-0.148
-0.126,-0.074,0.052,0.099,-0.089,-0.011,0.207,0.114,-0.286,-0.496,-0.439,-0.325
-0.164,-0.119,0.045,0.141,-0.105,-0.036,0.364,0.333,-0.266,-0.663,-0.59,-0.453
0.096,0.29,0.194,-0.193,-0.049,0.241,0.037,0.277,0.03,-0.187,-0.121,-0.053
0.424,1.483,1.059,-0.953,-0.318,1.27,-1.061,-1.16,0.208,1.291,1.389,1.191
0.525,2.319,1.794,-1.422,-0.635,2.057,-1.895,-2.137,0.924,3.266,2.722,2.047
0.163,1.128,0.966,-0.646,-0.402,1.047,-1.217,-1.555,-0.049,1.459,1.138,0.889
-0.085,0.154,0.239,-0.035,-0.162,0.196,-0.491,-0.873,-1.043,-0.65,-0.334,-0.127
-0.026,0.136,0.163,-0.055,-0.095,0.149,-0.199,-0.206,-0.115,-0.082,-0.056,-0.08
-0.038,0.039,0.077,-0.001,-0.058,0.058,-0.028,-0.04,-0.063,-0.202,-0.153,-0.128
-0.037,0.072,0.11,-0.018,-0.074,0.091,-0.015,-0.012,-0.052,-0.166,-0.145,-0.101
-0.032,0.032,0.064,-0.001,-0.048,0.048,0.054,0.079,0.012,-0.144,-0.168,-0.112
-0.016,0.038,0.054,-0.012,-0.035,0.046,0.058,0.065,-0.032,-0.189,-0.188,-0.113
-0.005,0.034,0.039,-0.015,-0.023,0.037,0.074,0.113,0.055,-0.127,-0.15,-0.1
-0.017,0.025,0.041,-0.004,-0.029,0.033,0.081,0.106,0.019,-0.174,-0.17,-0.101
-0.043,0.031,0.074,0.006,-0.059,0.052,0.077,0.122,0.082,-0.109,-0.13,-0.079
-0.047,0.024,0.071,0.011,-0.059,0.048,0.086,0.145,0.082,-0.127,-0.132,-0.08
0.009,0.09,0.081,-0.049,-0.037,0.085,0.093,0.186,0.149,-0.062,-0.103,-0.061
0.035,0.116,0.082,-0.076,-0.024,0.099,0.097,0.209,0.169,-0.058,-0.104,-0.059
0.011,0.114,0.104,-0.063,-0.047,0.109,0.12,0.251,0.216,-0.029,-0.08,-0.047
0.01,0.126,0.116,-0.068,-0.053,0.121,0.14,0.31,0.28,0.011,-0.046,-0.038
0.042,0.155,0.113,-0.099,-0.035,0.133,0.14,0.369,0.329,0.054,-0.013,-0.017
0.049,0.189,0.141,-0.119,-0.046,0.165,0.155,0.435,0.403,0.111,0.029,0.011
0.054,0.213,0.159,-0.134,-0.053,0.186,0.15,0.492,0.462,0.167,0.061,0.036
0.074,0.249,0.175,-0.162,-0.051,0.212,0.144,0.535,0.526,0.243,0.12,0.084
0.075,0.262,0.188,-0.169,-0.057,0.225,0.139,0.542,0.558,0.299,0.167,0.12
0.078,0.282,0.203,-0.18,-0.063,0.242,0.113,0.521,0.568,0.346,0.205,0.143
0.11,0.331,0.221,-0.22,-0.056,0.276,0.087,0.48,0.559,0.373,0.234,0.163
0.131,0.337,0.206,-0.234,-0.038,0.271,0.068,0.418,0.509,0.357,0.215,0.157
0.099,0.296,0.197,-0.198,-0.049,0.246,0.047,0.316,0.411,0.28,0.174,0.138
0.068,0.243,0.175,-0.155,-0.053,0.209,0.03,0.222,0.285,0.181,0.121,0.101
0.068,0.205,0.137,-0.137,-0.034,0.171,0.02,0.147,0.172,0.078,0.063,0.06
0.06,0.152,0.092,-0.106,-0.016,0.121,0.01,0.073,0.073,-0.018,-0.002,0.028
0.036,0.095,0.059,-0.065,-0.012,0.077,0.005,0.026,-0.017,-0.088,-0.057,-0.019
0.022,0.074,0.052,-0.048,-0.015,0.063,0.005,-0.005,-0.08,-0.14,-0.091,-0.05
0.015,0.059,0.044,-0.038,-0.015,0.051,0.005,-0.034,-0.113,-0.167,-0.112,-0.062
0.016,0.053,0.037,-0.035,-0.011,0.045,0.005,-0.046,-0.131,-0.188,-0.123,-0.074
0.027,0.058,0.031,-0.043,-0.002,0.044,0.005,-0.041,-0.133,-0.201,-0.131,-0.075
0.026,0.06,0.034,-0.043,-0.004,0.047,0.004,-0.034,-0.123,-0.203,-0.136,-0.075
0.03,0.063,0.034,-0.047,-0.002,0.048,0.006,-0.028,-0.119,-0.206,-0.14,-0.075
0.017,0.066,0.049,-0.042,-0.017,0.058,0.004,-0.02,-0.11,-0.204,-0.14,-0.075
0.001,0.069,0.068,-0.035,-0.033,0.068,0.009,-0.016,-0.107,-0.205,-0.14,-0.075
0.008,0.071,0.064,-0.04,-0.028,0.067,0.021,-0.015,-0.109,-0.205,-0.14,-0.075
0.008,0.074,0.066,-0.041,-0.029,0.069,0.016,-0.015,-0.114,-0.204,-0.14,-0.086
0.011,0.076,0.065,-0.044,-0.027,0.07,0.011,-0.015,-0.116,-0.206,-0.136,-0.087
0.009,0.074,0.065,-0.042,-0.028,0.069,0.008,-0.015,-0.108,-0.202,-0.135,-0.081
0.014,0.076,0.062,-0.045,-0.025,0.068,0.002,-0.017,-0.129,-0.214,-0.134,-0.076
0.016,0.075,0.059,-0.045,-0.022,0.066,0.001,-0.025,-0.147,-0.232,-0.131,-0.073
0.01,0.072,0.061,-0.041,-0.026,0.066,0.008,-0.029,-0.147,-0.229,-0.13,-0.067
0.014,0.072,0.058,-0.043,-0.022,0.064,0.014,-0.026,-0.149,-0.233,-0.131,-0.065
-0.006,0.046,0.052,-0.02,-0.029,0.049,0.012,-0.041,-0.172,-0.235,-0.148,-0.091
-0.012,0.03,0.043,-0.009,-0.028,0.036,0.007,-0.047,-0.188,-0.235,-0.157,-0.102
-0.007,0.033,0.039,-0.013,-0.023,0.036,0.005,-0.043,-0.183,-0.238,-0.157,-0.092
0.001,0.023,0.022,-0.013,-0.011,0.023,0.0,-0.057,-0.191,-0.241,-0.162,-0.091
0.013,0.021,0.008,-0.017,0.002,0.014,-0.003,-0.066,-0.202,-0.245,-0.164,-0.084
-0.022,0.018,0.039,0.002,-0.031,0.028,-0.007,-0.064,-0.221,-0.245,-0.166,-0.08
-0.041,0.008,0.049,0.016,-0.045,0.028,-0.018,-0.071,-0.23,-0.249,-0.164,-0.085
-0.015,0.023,0.038,-0.004,-0.026,0.03,-0.03,-0.075,-0.232,-0.256,-0.166,-0.085
-0.012,0.021,0.033,-0.005,-0.023,0.027,-0.03,-0.088,-0.235,-0.261,-0.164,-0.094
-0.025,-0.002,0.023,0.013,-0.024,0.01,-0.031,-0.099,-0.229,-0.265,-0.17,-0.101
-0.015,0.003,0.019,0.006,-0.017,0.011,-0.038,-0.104,-0.23,-0.269,-0.181,-0.099
0.0,0.01,0.01,-0.005,-0.005,0.01,-0.036,-0.11,-0.23,-0.266,-0.174,-0.1
0.003,0.014,0.011,-0.008,-0.004,0.012,-0.03,-0.105,-0.229,-0.26,-0.171,-0.1
0.012,0.02,0.008,-0.016,0.002,0.014,-0.024,-0.096,-0.231,-0.255,-0.166,-0.1
-0.003,0.011,0.014,-0.004,-0.009,0.012,-0.019,-0.091,-0.225,-0.25,-0.163,-0.094
-0.034,0.013,0.046,0.01,-0.04,0.029,-0.013,-0.084,-0.215,-0.243,-0.153,-0.084
0.001,0.069,0.069,-0.035,-0.034,0.069,-0.01,-0.075,-0.186,-0.233,-0.121,-0.078
0.02,0.098,0.078,-0.06,-0.029,0.088,-0.027,-0.064,-0.173,-0.22,-0.114,-0.074
0.026,0.095,0.068,-0.061,-0.022,0.081,-0.04,-0.044,-0.189,-0.209,-0.128,-0.072
0.038,0.091,0.052,-0.065,-0.007,0.071,-0.073,-0.079,-0.197,-0.213,-0.134,-0.07
0.023,0.042,0.018,-0.033,0.002,0.03,-0.094,-0.105,-0.212,-0.232,-0.131,-0.064
0.044,0.013,-0.032,-0.028,0.038,-0.009,-0.081,-0.106,-0.243,-0.26,-0.135,-0.068
0.049,0.01,-0.039,-0.03,0.044,-0.014,-0.083,-0.108,-0.229,-0.24,-0.122,-0.066
0.025,-0.012,-0.038,-0.006,0.032,-0.025,-0.068,-0.109,-0.236,-0.265,-0.151,-0.081
0.001,-0.025,-0.027,0.012,0.014,-0.026,-0.074,-0.115,-0.249,-0.278,-0.165,-0.107
-0.022,-0.052,-0.03,0.038,0.004,-0.041,-0.053,-0.1,-0.249,-0.283,-0.173,-0.131
-0.021,-0.04,-0.019,0.031,-0.001,-0.029,-0.065,-0.125,-0.269,-0.295,-0.17,-0.122
-0.025,-0.047,-0.022,0.036,-0.001,-0.034,-0.041,-0.088,-0.223,-0.259,-0.164,-0.125
-0.016,-0.047,-0.031,0.032,0.008,-0.039,-0.032,-0.14,-0.283,-0.312,-0.182,-0.128
-0.038,-0.051,-0.013,0.045,-0.012,-0.032,0.021,-0.022,-0.199,-0.259,-0.176,-0.134
-0.138,-0.207,-0.069,0.173,-0.034,-0.138,0.303,0.173,-0.31,-0.578,-0.456,-0.355
-0.088,-0.12,-0.031,0.104,-0.028,-0.075,0.353,0.415,-0.163,-0.548,-0.45,-0.362
0.193,0.445,0.252,-0.319,-0.029,0.348,-0.158,0.064,0.082,0.082,0.241,0.252
0.534,1.781,1.247,-1.158,-0.356,1.514,-1.421,-1.535,0.598,2.007,2.006,1.643
0.502,2.111,1.608,-1.307,-0.553,1.859,-1.888,-2.049,1.216,3.275,2.647,2.002
0.073,0.669,0.595,-0.371,-0.262,0.632,-1.004,-1.409,-0.393,0.636,0.601,0.522
-0.068,0.064,0.133,0.002,-0.101,0.098,-0.402,-0.693,-0.826,-0.563,-0.268,-0.14
-0.014,0.095,0.109,-0.041,-0.062,0.102,-0.113,-0.091,0.055,0.046,-0.039,-0.047
-0.036,0.015,0.051,0.01,-0.044,0.033,-0.012,-0.052,-0.131,-0.215,-0.157,-0.102
-0.026,0.046,0.072,-0.01,-0.049,0.059,-0.005,0.021,-0.001,-0.101,-0.091,-0.08
-0.026,0.01,0.035,0.008,-0.031,0.022,0.043,0.053,-0.029,-0.202,-0.163,-0.131
-0.014,0.039,0.053,-0.013,-0.034,0.046,0.041,0.07,0.009,-0.158,-0.122,-0.106
-0.013,0.022,0.035,-0.005,-0.025,0.028,0.066,0.11,0.039,-0.153,-0.13,-0.115
-0.014,0.023,0.036,-0.005,-0.025,0.029,0.059,0.105,0.02,-0.165,-0.125,-0.11
-0.026,0.026,0.051,0.0,-0.039,0.038,0.074,0.137,0.079,-0.117,-0.111,-0.106
-0.027,0.046,0.073,-0.01,-0.05,0.059,0.089,0.152,0.086,-0.126,-0.114,-0.102
-0.011,0.066,0.077,-0.028,-0.044,0.071,0.094,0.183,0.145,-0.067,-0.091,-0.088
-0.013,0.082,0.095,-0.034,-0.054,0.088,0.096,0.216,0.162,-0.059,-0.078,-0.081
-0.018,0.09,0.107,-0.036,-0.063,0.098,0.11,0.267,0.227,-0.013,-0.038,-0.055
-0.01,0.104,0.114,-0.047,-0.062,0.108,0.132,0.32,0.279,0.018,-0.025,-0.045
-0.004,0.133,0.137,-0.064,-0.071,0.135,0.148,0.393,0.349,0.074,0.008,-0.021
0.005,0.152,0.148,-0.079,-0.072,0.15,0.148,0.453,0.412,0.119,0.044,0.005
0.03,0.21,0.18,-0.12,-0.075,0.195,0.137,0.509,0.468,0.179,0.092,0.041
0.046,0.237,0.191,-0.142,-0.073,0.214,0.13,0.542,0.524,0.24,0.134,0.071
0.057,0.279,0.222,-0.168,-0.082,0.25,0.124,0.548,0.555,0.292,0.182,0.104
0.049,0.32,0.271,-0.184,-0.112,0.295,0.105,0.523,0.561,0.341,0.223,0.138
0.075,0.334,0.258,-0.205,-0.092,0.296,0.067,0.47,0.547,0.35,0.243,0.157
0.068,0.318,0.251,-0.193,-0.092,0.284,0.024,0.397,0.493,0.334,0.232,0.155
0.029,0.267,0.238,-0.148,-0.105,0.252,-0.004,0.282,0.369,0.246,0.168,0.11
0.042,0.239,0.197,-0.141,-0.077,0.217,-0.009,0.178,0.241,0.133,0.1,0.06
0.005,0.191,0.187,-0.098,-0.091,0.189,-0.013,0.095,0.134,0.044,0.032,0.015
-0.009,0.156,0.165,-0.074,-0.087,0.16,-0.018,0.037,0.034,-0.047,-0.015,-0.024
0.005,0.14,0.135,-0.073,-0.065,0.137,-0.023,-0.003,-0.042,-0.116,-0.056,-0.05
-0.028,0.094,0.122,-0.033,-0.076,0.108,-0.024,-0.041,-0.104,-0.166,-0.106,-0.077
-0.047,0.059,0.106,-0.006,-0.077,0.082,-0.02,-0.056,-0.129,-0.193,-0.126,-0.087
-0.041,0.052,0.093,-0.006,-0.067,0.073,-0.018,-0.052,-0.134,-0.202,-0.13,-0.09
-0.04,0.044,0.084,-0.002,-0.063,0.064,-0.015,-0.043,-0.149,-0.21,-0.133,-0.09
-0.044,0.036,0.08,0.004,-0.063,0.058,-0.012,-0.038,-0.145,-0.21,-0.135,-0.092
-0.045,0.03,0.075,0.007,-0.06,0.052,-0.01,-0.03,-0.137,-0.21,-0.139,-0.096
-0.042,0.03,0.072,0.006,-0.057,0.051,-0.01,-0.026,-0.132,-0.21,-0.14,-0.095
-0.035,0.03,0.065,0.002,-0.05,0.047,-0.01,-0.03,-0.123,-0.21,-0.136,-0.092
-0.04,0.029,0.069,0.005,-0.054,0.049,-0.01,-0.03,-0.121,-0.212,-0.132,-0.087
-0.038,0.031,0.069,0.003,-0.054,0.05,-0.01,-0.032,-0.127,-0.215,-0.129,-0.084
-0.04,0.028,0.067,0.005,-0.054,0.047,-0.01,-0.035,-0.134,-0.215,-0.126,-0.081
-0.047,0.044,0.092,0.001,-0.07,0.068,-0.011,-0.037,-0.138,-0.218,-0.12,-0.076
-0.037,0.057,0.095,-0.01,-0.066,0.076,-0.017,-0.03,-0.142,-0.221,-0.122,-0.076
-0.035,0.054,0.089,-0.009,-0.062,0.071,-0.024,-0.043,-0.154,-0.219,-0.133,-0.081
-0.032,0.055,0.087,-0.012,-0.06,0.071,-0.031,-0.063,-0.167,-0.226,-0.136,-0.086
-0.032,0.05,0.082,-0.009,-0.057,0.066,-0.038,-0.063,-0.171,-0.223,-0.139,-0.09
-0.03,0.05,0.08,-0.01,-0.055,0.065,-0.044,-0.077,-0.188,-0.233,-0.142,-0.086
-0.025,0.049,0.074,-0.012,-0.05,0.061,-0.042,-0.086,-0.209,-0.256,-0.144,-0.085
-0.027,0.041,0.068,-0.007,-0.047,0.054,-0.039,-0.088,-0.21,-0.254,-0.148,-0.085
-0.026,0.034,0.061,-0.004,-0.044,0.047,-0.041,-0.091,-0.21,-0.256,-0.15,-0.085
-0.027,0.027,0.055,0.0,-0.041,0.041,-0.039,-0.09,-0.211,-0.26,-0.154,-0.084
-0.027,0.019,0.046,0.004,-0.037,0.032,-0.041,-0.089,-0.217,-0.259,-0.155,-0.088
-0.039,0.012,0.051,0.013,-0.045,0.032,-0.038,-0.093,-0.224,-0.26,-0.155,-0.104
-0.052,0.014,0.066,0.019,-0.059,0.04,-0.036,-0.1,-0.225,-0.259,-0.16,-0.105
-0.045,0.023,0.068,0.011,-0.056,0.045,-0.032,-0.1,-0.225,-0.26,-0.16,-0.105
-0.037,0.031,0.069,0.003,-0.053,0.05,-0.03,-0.1,-0.225,-0.259,-0.161,-0.11
-0.029,0.035,0.064,-0.003,-0.047,0.049,-0.027,-0.1,-0.225,-0.26,-0.165,-0.11
-0.024,0.042,0.066,-0.009,-0.045,0.053,-0.023,-0.103,-0.225,-0.259,-0.164,-0.109
-0.031,0.033,0.064,-0.002,-0.048,0.049,-0.042,-0.11,-0.236,-0.256,-0.168,-0.103
-0.025,0.041,0.066,-0.008,-0.046,0.053,-0.05,-0.11,-0.236,-0.254,-0.17,-0.098
-0.053,0.041,0.094,0.005,-0.073,0.067,-0.04,-0.107,-0.226,-0.252,-0.172,-0.093
-0.032,0.062,0.094,-0.015,-0.063,0.078,-0.038,-0.098,-0.222,-0.244,-0.158,-0.086
0.001,0.123,0.121,-0.062,-0.06,0.122,-0.031,-0.085,-0.209,-0.218,-0.135,-0.082
-0.02,0.125,0.145,-0.053,-0.083,0.135,-0.026,-0.081,-0.2,-0.214,-0.135,-0.083
0.009,0.113,0.104,-0.061,-0.048,0.108,-0.042,-0.069,-0.185,-0.215,-0.135,-0.086
0.013,0.105,0.092,-0.059,-0.04,0.098,-0.086,-0.094,-0.188,-0.215,-0.136,-0.085
0.027,0.099,0.072,-0.063,-0.023,0.085,-0.107,-0.118,-0.204,-0.223,-0.133,-0.084
0.039,0.056,0.017,-0.048,0.011,0.037,-0.096,-0.122,-0.223,-0.238,-0.137,-0.086
0.02,0.029,0.01,-0.024,0.005,0.019,-0.097,-0.125,-0.234,-0.245,-0.142,-0.084
-0.017,0.031,0.047,-0.007,-0.032,0.039,-0.062,-0.123,-0.247,-0.265,-0.164,-0.114
-0.046,0.027,0.073,0.009,-0.06,0.05,-0.051,-0.137,-0.256,-0.261,-0.168,-0.124
-0.043,0.012,0.055,0.015,-0.049,0.033,-0.033,-0.118,-0.253,-0.275,-0.182,-0.134
-0.052,0.012,0.064,0.02,-0.058,0.038,-0.037,-0.137,-0.283,-0.302,-0.183,-0.131
-0.031,0.02,0.052,0.005,-0.042,0.036,-0.024,-0.094,-0.23,-0.257,-0.161,-0.123
-0.047,0.003,0.051,0.022,-0.049,0.027,-0.016,-0.133,-0.29,-0.323,-0.183,-0.132
-0.063,-0.02,0.043,0.042,-0.052,0.011,0.004,-0.041,-0.21,-0.243,-0.163,-0.132
-0.16,-0.211,-0.051,0.186,-0.054,-0.131,0.288,0.162,-0.301,-0.52,-0.426,-0.354
-0.143,-0.171,-0.028,0.157,-0.057,-0.099,0.38,0.405,-0.21,-0.564,-0.477,-0.402
0.155,0.333,0.178,-0.244,-0.012,0.256,-0.053,0.187,0.062,0.0,0.127,0.131
0.488,1.634,1.146,-1.062,-0.329,1.39,-1.257,-1.393,0.456,1.771,1.811,1.483
0.519,2.184,1.665,-1.352,-0.574,1.925,-1.894,-2.093,1.181,3.386,2.754,2.055
0.082,0.796,0.714,-0.439,-0.316,0.755,-1.069,-1.458,-0.223,1.006,0.823,0.664
-0.096,0.051,0.147,0.023,-0.122,0.099,-0.408,-0.748,-0.906,-0.574,-0.267,-0.129
-0.017,0.081,0.098,-0.032,-0.057,0.089,-0.116,-0.102,0.026,0.015,0.035,-0.057
-0.03,0.012,0.042,0.009,-0.037,0.027,0.008,-0.026,-0.102,-0.211,-0.123,-0.127
-0.014,0.046,0.06,-0.016,-0.037,0.053,0.021,0.041,-0.01,-0.085,-0.085,-0.086
-0.051,-0.025,0.026,0.038,-0.038,0.0,0.079,0.098,0.003,-0.134,-0.119,-0.115
-0.057,-0.017,0.04,0.037,-0.048,0.011,0.062,0.095,0.005,-0.122,-0.102,-0.103
-0.054,-0.031,0.023,0.043,-0.038,-0.004,0.101,0.148,0.069,-0.095,-0.096,-0.108
-0.036,-0.013,0.023,0.025,-0.03,0.005,0.108,0.139,0.057,-0.12,-0.104,-0.102
-0.013,0.001,0.015,0.006,-0.014,0.008,0.112,0.175,0.121,-0.067,-0.084,-0.092
-0.035,0.001,0.036,0.016,-0.035,0.018,0.118,0.189,0.115,-0.091,-0.087,-0.087
-0.028,0.037,0.066,-0.005,-0.047,0.051,0.11,0.223,0.177,-0.039,-0.055,-0.062
-0.029,0.036,0.065,-0.004,-0.047,0.05,0.128,0.254,0.195,-0.031,-0.055,-0.055
-0.012,0.062,0.074,-0.025,-0.044,0.068,0.133,0.302,0.258,0.02,-0.019,-0.036
0.006,0.088,0.081,-0.047,-0.038,0.084,0.141,0.353,0.304,0.048,0.005,-0.029
-0.008,0.108,0.117,-0.05,-0.063,0.112,0.165,0.41,0.363,0.092,0.028,-0.016
0.011,0.157,0.146,-0.085,-0.068,0.151,0.165,0.484,0.443,0.153,0.063,0.002
0.036,0.184,0.148,-0.111,-0.056,0.166,0.154,0.527,0.493,0.209,0.107,0.034
0.055,0.223,0.168,-0.139,-0.056,0.195,0.152,0.561,0.547,0.275,0.155,0.072
0.063,0.268,0.205,-0.166,-0.071,0.237,0.135,0.565,0.58,0.337,0.2,0.107
0.065,0.298,0.233,-0.182,-0.084,0.265,0.096,0.536,0.569,0.379,0.233,0.139
0.052,0.31,0.258,-0.181,-0.104,0.284,0.066,0.483,0.554,0.382,0.238,0.143
0.058,0.317,0.259,-0.187,-0.101,0.288,0.05,0.407,0.518,0.362,0.235,0.139
0.074,0.3,0.225,-0.187,-0.076,0.262,0.023,0.308,0.402,0.293,0.201,0.116
0.041,0.233,0.192,-0.137,-0.076,0.213,0.008,0.209,0.272,0.191,0.125,0.065
0.022,0.184,0.163,-0.103,-0.071,0.173,0.004,0.131,0.153,0.085,0.044,0.011
0.008,0.156,0.148,-0.082,-0.07,0.151,-0.002,0.071,0.05,-0.012,-0.019,-0.033
-0.003,0.122,0.125,-0.06,-0.064,0.123,-0.007,0.018,-0.026,-0.081,-0.06,-0.062
-0.005,0.083,0.088,-0.039,-0.047,0.086,-0.013,-0.033,-0.098,-0.139,-0.104,-0.097
-0.032,0.047,0.079,-0.008,-0.055,0.063,-0.015,-0.049,-0.127,-0.173,-0.132,-0.115
-0.047,0.032,0.079,0.007,-0.064,0.055,-0.015,-0.046,-0.14,-0.187,-0.135,-0.119
-0.035,0.037,0.073,-0.002,-0.054,0.055,-0.015,-0.045,-0.147,-0.195,-0.135,-0.121
-0.047,0.032,0.079,0.007,-0.063,0.056,-0.015,-0.041,-0.144,-0.195,-0.142,-0.119
-0.066,0.041,0.106,0.012,-0.087,0.073,-0.015,-0.039,-0.146,-0.194,-0.153,-0.131
-0.039,0.076,0.115,-0.018,-0.078,0.095,-0.015,-0.035,-0.145,-0.2,-0.16,-0.139
-0.025,0.082,0.106,-0.029,-0.065,0.094,-0.011,-0.036,-0.145,-0.215,-0.16,-0.14
-0.038,0.079,0.117,-0.021,-0.077,0.097,-0.01,-0.04,-0.149,-0.215,-0.16,-0.14
-0.036,0.08,0.116,-0.022,-0.076,0.098,-0.01,-0.042,-0.15,-0.215,-0.16,-0.14
-0.018,0.085,0.103,-0.034,-0.06,0.093,-0.01,-0.046,-0.15,-0.221,-0.16,-0.14
-0.023,0.103,0.126,-0.04,-0.074,0.114,-0.009,-0.048,-0.15,-0.218,-0.162,-0.139
-0.044,0.097,0.141,-0.027,-0.092,0.119,-0.013,-0.051,-0.152,-0.225,-0.166,-0.143
-0.046,0.095,0.141,-0.025,-0.094,0.118,-0.018,-0.054,-0.173,-0.235,-0.165,-0.145
-0.06,0.093,0.154,-0.017,-0.107,0.123,-0.025,-0.065,-0.18,-0.236,-0.165,-0.145
-0.058,0.087,0.145,-0.015,-0.101,0.116,-0.029,-0.066,-0.185,-0.234,-0.165,-0.145
-0.037,0.099,0.136,-0.031,-0.087,0.118,-0.026,-0.066,-0.208,-0.236,-0.165,-0.145
-0.062,0.068,0.13,-0.003,-0.096,0.099,-0.025,-0.091,-0.217,-0.247,-0.176,-0.145
-0.068,0.054,0.122,0.007,-0.095,0.087,-0.025,-0.102,-0.221,-0.254,-0.181,-0.144
-0.057,0.063,0.12,-0.003,-0.089,0.091,-0.025,-0.099,-0.226,-0.257,-0.18,-0.154
-0.066,0.054,0.12,0.006,-0.093,0.086,-0.024,-0.1,-0.229,-0.262,-0.18,-0.161
-0.077,0.04,0.117,0.018,-0.097,0.078,-0.029,-0.1,-0.232,-0.265,-0.181,-0.16
-0.072,0.042,0.114,0.015,-0.094,0.078,-0.028,-0.098,-0.234,-0.265,-0.178,-0.158
-0.038,0.077,0.115,-0.02,-0.077,0.096,-0.032,-0.101,-0.238,-0.267,-0.188,-0.154
-0.062,0.048,0.11,0.007,-0.086,0.079,-0.043,-0.11,-0.24,-0.27,-0.201,-0.155
-0.077,0.03,0.107,0.023,-0.093,0.069,-0.036,-0.112,-0.24,-0.27,-0.2,-0.151
-0.059,0.043,0.102,0.008,-0.08,0.072,-0.028,-0.115,-0.244,-0.266,-0.198,-0.149
-0.071,0.029,0.1,0.021,-0.086,0.064,-0.028,-0.119,-0.245,-0.261,-0.195,-0.15
-0.043,0.057,0.1,-0.007,-0.072,0.078,-0.029,-0.121,-0.245,-0.257,-0.195,-0.15
-0.02,0.075,0.095,-0.028,-0.058,0.085,-0.025,-0.113,-0.24,-0.253,-0.193,-0.151
-0.022,0.074,0.096,-0.027,-0.059,0.085,-0.023,-0.099,-0.233,-0.249,-0.179,-0.15
-0.009,0.083,0.091,-0.037,-0.05,0.086,-0.02,-0.09,-0.225,-0.227,-0.167,-0.14
-0.031,0.098,0.129,-0.033,-0.08,0.113,-0.018,-0.079,-0.197,-0.218,-0.158,-0.131
-0.043,0.101,0.144,-0.029,-0.094,0.122,-0.014,-0.071,-0.184,-0.221,-0.147,-0.119
0.007,0.1,0.093,-0.053,-0.043,0.096,-0.024,-0.066,-0.168,-0.221,-0.144,-0.111
0.041,0.106,0.064,-0.074,-0.012,0.085,-0.069,-0.08,-0.175,-0.228,-0.146,-0.104
0.024,0.07,0.045,-0.047,-0.011,0.057,-0.081,-0.083,-0.216,-0.221,-0.143,-0.099
-0.014,0.022,0.035,-0.004,-0.025,0.028,-0.064,-0.086,-0.238,-0.237,-0.149,-0.095
-0.034,0.001,0.034,0.016,-0.034,0.017,-0.062,-0.089,-0.23,-0.222,-0.14,-0.088
-0.036,-0.017,0.019,0.027,-0.028,0.001,-0.044,-0.097,-0.243,-0.241,-0.173,-0.128
-0.051,-0.036,0.015,0.043,-0.033,-0.01,-0.049,-0.114,-0.237,-0.242,-0.188,-0.137
-0.045,-0.06,-0.014,0.053,-0.015,-0.037,-0.028,-0.103,-0.224,-0.243,-0.195,-0.145
-0.037,-0.036,0.001,0.037,-0.019,-0.018,-0.033,-0.118,-0.241,-0.25,-0.187,-0.143
-0.064,-0.04,0.024,0.052,-0.044,-0.008,-0.007,-0.078,-0.199,-0.217,-0.175,-0.145
-0.061,-0.022,0.039,0.041,-0.05,0.008,-0.004,-0.103,-0.251,-0.265,-0.185,-0.145
-0.084,-0.062,0.022,0.073,-0.052,-0.02,0.047,0.017,-0.173,-0.215,-0.191,-0.162
-0.191,-0.243,-0.052,0.217,-0.069,-0.147,0.333,0.2,-0.277,-0.551,-0.477,-0.398
-0.129,-0.157,-0.028,0.144,-0.05,-0.093,0.381,0.45,-0.118,-0.516,-0.468,-0.409
0.153,0.415,0.262,-0.284,-0.055,0.338,-0.161,0.02,0.062,0.134,0.25,0.232
0.476,1.784,1.308,-1.13,-0.416,1.546,-1.393,-1.607,0.425,2.109,2.039,1.605
0.428,2.024,1.595,-1.226,-0.583,1.809,-1.772,-1.993,0.899,3.302,2.603,1.876
-0.004,0.566,0.569,-0.281,-0.287,0.567,-0.881,-1.29,-0.556,0.592,0.519,0.428
-0.083,0.061,0.144,0.011,-0.114,0.102,-0.335,-0.628,-0.815,-0.535,-0.292,-0.171
0.0,0.091,0.09,-0.046,-0.045,0.09,-0.086,-0.07,0.039,0.065,-0.058,-0.095
-0.055,-0.005,0.049,0.03,-0.052,0.022,0.01,-0.041,-0.114,-0.199,-0.197,-0.156
-0.051,0.029,0.081,0.011,-0.066,0.055,0.032,0.035,0.029,-0.047,-0.109,-0.111
-0.073,-0.029,0.044,0.05,-0.058,0.007,0.072,0.071,-0.011,-0.142,-0.17,-0.143
-0.072,-0.01,0.062,0.041,-0.067,0.026,0.067,0.085,0.036,-0.095,-0.141,-0.122
-0.048,-0.017,0.031,0.033,-0.039,0.007,0.098,0.115,0.06,-0.098,-0.141,-0.126
-0.047,-0.003,0.045,0.025,-0.046,0.021,0.092,0.112,0.053,-0.107,-0.116,-0.114
-0.049,0.006,0.055,0.021,-0.052,0.03,0.11,0.152,0.118,-0.048,-0.093,-0.103
-0.054,0.013,0.066,0.02,-0.06,0.039,0.118,0.163,0.118,-0.053,-0.098,-0.1
-0.063,0.028,0.091,0.017,-0.077,0.059,0.131,0.202,0.186,0.005,-0.067,-0.087
-0.05,0.035,0.086,0.008,-0.068,0.06,0.138,0.224,0.206,0.002,-0.057,-0.089
-0.03,0.068,0.097,-0.02,-0.064,0.082,0.142,0.272,0.27,0.056,-0.021,-0.063
-0.014,0.102,0.116,-0.044,-0.066,0.109,0.153,0.325,0.316,0.084,-0.003,-0.045
-0.017,0.107,0.123,-0.045,-0.071,0.115,0.15,0.382,0.375,0.128,0.017,-0.034
-0.017,0.137,0.154,-0.06,-0.086,0.146,0.151,0.44,0.445,0.188,0.056,-0.003
0.006,0.185,0.178,-0.096,-0.086,0.181,0.146,0.481,0.49,0.236,0.097,0.02
0.01,0.214,0.204,-0.112,-0.097,0.209,0.146,0.507,0.546,0.308,0.143,0.054
0.046,0.278,0.232,-0.162,-0.093,0.255,0.139,0.505,0.589,0.37,0.192,0.093
0.049,0.294,0.244,-0.172,-0.097,0.269,0.1,0.481,0.578,0.394,0.211,0.103
0.011,0.287,0.275,-0.149,-0.132,0.281,0.066,0.423,0.548,0.399,0.235,0.115
0.029,0.293,0.264,-0.161,-0.118,0.278,0.041,0.356,0.496,0.385,0.236,0.113
0.018,0.254,0.236,-0.136,-0.109,0.245,0.009,0.267,0.382,0.302,0.179,0.089
0.002,0.21,0.208,-0.107,-0.103,0.209,-0.005,0.179,0.256,0.19,0.11,0.05
0.01,0.166,0.156,-0.088,-0.074,0.161,-0.008,0.11,0.147,0.096,0.048,-0.001
-0.018,0.109,0.127,-0.046,-0.072,0.117,-0.012,0.039,0.045,-0.004,-0.014,-0.043
-0.044,0.064,0.108,-0.01,-0.076,0.086,-0.015,-0.009,-0.04,-0.074,-0.076,-0.083
-0.049,0.038,0.087,0.006,-0.068,0.062,-0.02,-0.039,-0.092,-0.12,-0.107,-0.099
-0.05,0.022,0.072,0.014,-0.062,0.047,-0.018,-0.053,-0.118,-0.149,-0.121,-0.111
-0.059,0.007,0.066,0.026,-0.063,0.036,-0.013,-0.048,-0.132,-0.156,-0.126,-0.121
-0.06,-0.001,0.059,0.03,-0.06,0.029,-0.01,-0.041,-0.126,-0.155,-0.124,-0.113
-0.058,-0.007,0.051,0.032,-0.054,0.022,-0.007,-0.034,-0.121,-0.155,-0.125,-0.11
-0.06,-0.016,0.044,0.037,-0.052,0.014,-0.002,-0.028,-0.117,-0.155,-0.125,-0.105
-0.059,-0.022,0.037,0.04,-0.048,0.008,0.001,-0.021,-0.112,-0.155,-0.125,-0.1
-0.061,-0.03,0.031,0.045,-0.046,0.001,0.004,-0.016,-0.108,-0.159,-0.121,-0.096
-0.048,-0.024,0.024,0.036,-0.036,0.0,0.005,-0.015,-0.105,-0.16,-0.119,-0.095
-0.044,-0.026,0.018,0.035,-0.031,-0.004,0.006,-0.015,-0.111,-0.16,-0.12,-0.095
-0.033,-0.023,0.01,0.028,-0.021,-0.006,0.01,-0.015,-0.109,-0.16,-0.12,-0.09
-0.034,-0.028,0.006,0.03,-0.019,-0.011,0.01,-0.015,-0.111,-0.16,-0.12,-0.09
-0.066,-0.074,-0.008,0.07,-0.029,-0.041,0.01,-0.014,-0.107,-0.16,-0.12,-0.089
-0.073,-0.09,-0.017,0.081,-0.027,-0.053,0.01,-0.001,-0.104,-0.16,-0.12,-0.085
-0.076,-0.078,-0.003,0.077,-0.036,-0.04,0.01,0.001,-0.123,-0.16,-0.12,-0.085
-0.056,-0.082,-0.025,0.069,-0.016,-0.053,0.011,-0.009,-0.135,-0.16,-0.12,-0.085
-0.03,-0.075,-0.045,0.053,0.008,-0.059,0.008,-0.013,-0.144,-0.161,-0.12,-0.085
-0.038,-0.074,-0.036,0.056,0.0,-0.055,0.021,-0.022,-0.145,-0.158,-0.12,-0.085
-0.061,-0.118,-0.056,0.09,-0.002,-0.087,0.031,-0.024,-0.156,-0.168,-0.116,-0.081
-0.067,-0.144,-0.078,0.106,0.006,-0.111,0.025,-0.029,-0.173,-0.174,-0.115,-0.08
-0.039,-0.131,-0.092,0.086,0.027,-0.111,0.023,-0.045,-0.167,-0.167,-0.115,-0.079
-0.034,-0.13,-0.097,0.082,0.032,-0.113,0.019,-0.045,-0.164,-0.162,-0.115,-0.075
-0.037,-0.126,-0.089,0.082,0.026,-0.107,0.013,-0.045,-0.163,-0.156,-0.115,-0.073
-0.027,-0.117,-0.09,0.072,0.032,-0.103,0.028,-0.045,-0.157,-0.15,-0.116,-0.069
-0.058,-0.141,-0.084,0.1,0.013,-0.112,0.042,-0.045,-0.169,-0.161,-0.12,-0.067
-0.075,-0.162,-0.087,0.119,0.006,-0.124,0.037,-0.047,-0.181,-0.171,-0.12,-0.064
-0.046,-0.152,-0.106,0.099,0.03,-0.129,0.034,-0.05,-0.179,-0.169,-0.12,-0.07
-0.051,-0.15,-0.1,0.101,0.025,-0.125,0.031,-0.051,-0.18,-0.17,-0.12,-0.073
-0.066,-0.145,-0.078,0.106,0.007,-0.111,0.026,-0.049,-0.179,-0.17,-0.12,-0.068
-0.069,-0.141,-0.072,0.106,0.002,-0.107,0.026,-0.062,-0.181,-0.167,-0.116,-0.063
-0.071,-0.133,-0.063,0.102,-0.004,-0.098,0.032,-0.06,-0.175,-0.16,-0.111,-0.058
-0.06,-0.114,-0.054,0.087,-0.002,-0.084,0.028,-0.056,-0.168,-0.156,-0.105,-0.051
-0.033,-0.081,-0.048,0.058,0.008,-0.064,0.035,-0.035,-0.157,-0.147,-0.098,-0.046
-0.01,-0.05,-0.04,0.031,0.015,-0.045,0.047,-0.019,-0.139,-0.135,-0.095,-0.046
0.002,-0.034,-0.035,0.016,0.019,-0.034,0.037,-0.02,-0.117,-0.11,-0.083,-0.044
0.026,0.002,-0.024,-0.013,0.025,-0.011,0.002,-0.018,-0.1,-0.096,-0.084,-0.047
0.024,-0.023,-0.047,0.0,0.036,-0.035,-0.061,-0.07,-0.144,-0.129,-0.092,-0.042
0.004,-0.106,-0.111,0.051,0.058,-0.108,-0.047,-0.084,-0.193,-0.159,-0.106,-0.048
0.014,-0.116,-0.13,0.051,0.072,-0.122,-0.02,-0.066,-0.202,-0.163,-0.105,-0.041
-0.002,-0.121,-0.119,0.062,0.059,-0.12,-0.017,-0.061,-0.195,-0.155,-0.104,-0.043
-0.033,-0.14,-0.107,0.087,0.037,-0.123,-0.011,-0.079,-0.215,-0.192,-0.131,-0.08
-0.037,-0.135,-0.098,0.086,0.031,-0.116,-0.01,-0.064,-0.184,-0.18,-0.118,-0.083
-0.049,-0.149,-0.1,0.099,0.025,-0.124,0.003,-0.072,-0.206,-0.214,-0.136,-0.091
-0.048,-0.127,-0.078,0.088,0.015,-0.102,-0.007,-0.062,-0.177,-0.177,-0.111,-0.076
-0.063,-0.158,-0.095,0.111,0.016,-0.126,0.026,-0.056,-0.185,-0.218,-0.14,-0.097
-0.067,-0.127,-0.061,0.097,-0.003,-0.094,0.007,-0.055,-0.183,-0.187,-0.111,-0.069
-0.121,-0.232,-0.111,0.177,-0.005,-0.172,0.192,0.131,-0.161,-0.264,-0.238,-0.191
-0.205,-0.319,-0.114,0.262,-0.045,-0.216,0.414,0.305,-0.268,-0.588,-0.508,-0.404
-0.041,-0.039,0.002,0.04,-0.021,-0.019,0.244,0.458,0.021,-0.266,-0.235,-0.188
0.313,0.911,0.598,-0.613,-0.142,0.754,-0.662,-0.632,0.156,0.81,0.944,0.829
0.535,2.16,1.625,-1.348,-0.545,1.893,-1.822,-2.039,0.953,3.094,2.705,2.097
0.265,1.458,1.193,-0.861,-0.464,1.325,-1.522,-1.791,0.58,2.462,1.895,1.417
-0.082,0.135,0.216,-0.026,-0.149,0.175,-0.618,-1.05,-0.957,-0.302,-0.082,0.055
-0.061,0.026,0.086,0.017,-0.073,0.056,-0.223,-0.309,-0.29,-0.14,-0.055,-0.048
-0.038,-0.021,0.017,0.029,-0.027,-0.003,-0.001,0.005,0.067,0.023,-0.022,-0.046
-0.071,-0.064,0.006,0.067,-0.038,-0.029,0.028,0.008,-0.056,-0.114,-0.103,-0.049
-0.055,-0.086,-0.031,0.071,-0.012,-0.059,0.078,0.118,0.089,-0.005,-0.062,-0.057
-0.041,-0.105,-0.065,0.073,0.012,-0.085,0.095,0.104,-0.009,-0.119,-0.11,-0.086
-0.063,-0.125,-0.061,0.094,0.0,-0.093,0.111,0.155,0.097,-0.013,-0.055,-0.055
-0.079,-0.147,-0.068,0.113,-0.005,-0.107,0.123,0.161,0.065,-0.073,-0.087,-0.067
-0.05,-0.12,-0.071,0.085,0.011,-0.095,0.128,0.189,0.135,-0.011,-0.053,-0.036
-0.04,-0.145,-0.105,0.093,0.033,-0.125,0.148,0.211,0.146,-0.012,-0.054,-0.035
-0.055,-0.144,-0.089,0.1,0.017,-0.116,0.144,0.231,0.181,0.031,-0.026,-0.018
-0.059,-0.133,-0.074,0.096,0.008,-0.103,0.163,0.28,0.236,0.063,-0.016,-0.012
-0.066,-0.108,-0.042,0.087,-0.012,-0.074,0.172,0.309,0.266,0.065,-0.006,-0.004
-0.046,-0.062,-0.016,0.054,-0.015,-0.039,0.185,0.358,0.327,0.117,0.02,0.007
-0.031,-0.029,0.001,0.03,-0.016,-0.014,0.186,0.409,0.369,0.144,0.037,0.01
-0.043,0.017,0.06,0.013,-0.051,0.038,0.186,0.464,0.428,0.189,0.072,0.027
-0.013,0.096,0.109,-0.041,-0.062,0.102,0.184,0.517,0.48,0.236,0.101,0.053
0.002,0.146,0.144,-0.074,-0.071,0.144,0.172,0.557,0.543,0.3,0.146,0.084
0.013,0.181,0.169,-0.097,-0.078,0.175,0.168,0.583,0.584,0.36,0.201,0.119
0.03,0.237,0.207,-0.134,-0.089,0.222,0.152,0.576,0.606,0.404,0.236,0.16
0.044,0.285,0.241,-0.165,-0.098,0.263,0.122,0.533,0.594,0.43,0.268,0.175
0.042,0.293,0.251,-0.168,-0.104,0.272,0.08,0.46,0.555,0.428,0.272,0.166
0.028,0.285,0.258,-0.157,-0.115,0.271,0.043,0.355,0.471,0.37,0.214,0.147
0.022,0.238,0.217,-0.13,-0.098,0.227,0.026,0.264,0.339,0.277,0.157,0.112
0.0,0.172,0.172,-0.086,-0.086,0.171,0.014,0.171,0.223,0.179,0.095,0.07
-0.013,0.135,0.148,-0.061,-0.081,0.141,0.009,0.095,0.116,0.084,0.03,0.031
-0.029,0.081,0.11,-0.026,-0.07,0.095,0.01,0.041,0.025,0.006,-0.015,-0.005
-0.04,0.032,0.072,0.004,-0.056,0.052,0.01,0.005,-0.042,-0.058,-0.061,-0.038
-0.055,-0.026,0.03,0.04,-0.042,0.002,0.01,0.004,-0.082,-0.089,-0.077,-0.046
-0.06,-0.071,-0.011,0.066,-0.025,-0.041,0.012,0.0,-0.095,-0.101,-0.074,-0.037
-0.043,-0.077,-0.034,0.06,-0.005,-0.055,0.023,-0.004,-0.092,-0.103,-0.072,-0.034
-0.056,-0.118,-0.062,0.087,0.003,-0.09,0.032,-0.003,-0.083,-0.099,-0.069,-0.027
-0.055,-0.153,-0.098,0.105,0.022,-0.126,0.044,0.017,-0.078,-0.101,-0.071,-0.022
-0.047,-0.177,-0.13,0.112,0.042,-0.153,0.055,0.034,-0.07,-0.1,-0.069,-0.022
-0.063,-0.205,-0.142,0.134,0.04,-0.173,0.055,0.036,-0.066,-0.1,-0.071,-0.025
-0.056,-0.195,-0.139,0.125,0.042,-0.167,0.055,0.04,-0.07,-0.1,-0.069,-0.028
-0.046,-0.186,-0.14,0.116,0.047,-0.163,0.055,0.042,-0.07,-0.105,-0.064,-0.031
-0.041,-0.181,-0.14,0.111,0.05,-0.161,0.055,0.045,-0.071,-0.105,-0.061,-0.035
-0.029,-0.168,-0.14,0.098,0.056,-0.154,0.056,0.047,-0.075,-0.105,-0.057,-0.035
-0.045,-0.179,-0.135,0.112,0.045,-0.157,0.056,0.04,-0.075,-0.105,-0.054,-0.03
-0.066,-0.194,-0.127,0.13,0.031,-0.16,0.053,0.03,-0.076,-0.105,-0.049,-0.03
-0.065,-0.186,-0.12,0.126,0.028,-0.153,0.05,0.02,-0.095,-0.107,-0.056,-0.029
-0.061,-0.176,-0.116,0.119,0.028,-0.146,0.047,0.011,-0.112,-0.111,-0.063,-0.024
-0.072,-0.176,-0.104,0.124,0.017,-0.14,0.044,0.005,-0.108,-0.11,-0.068,-0.026
-0.054,-0.174,-0.12,0.115,0.034,-0.147,0.048,0.0,-0.119,-0.109,-0.069,-0.022
-0.038,-0.175,-0.137,0.107,0.05,-0.156,0.05,-0.006,-0.139,-0.127,-0.065,-0.02
-0.06,-0.194,-0.134,0.127,0.038,-0.164,0.053,-0.012,-0.143,-0.137,-0.065,-0.02
-0.065,-0.2,-0.135,0.133,0.035,-0.167,0.056,-0.014,-0.144,-0.134,-0.063,-0.016
-0.058,-0.193,-0.135,0.126,0.039,-0.164,0.059,-0.009,-0.139,-0.136,-0.06,-0.015
-0.035,-0.188,-0.153,0.111,0.06,-0.17,0.06,-0.005,-0.135,-0.135,-0.059,-0.015
-0.059,-0.187,-0.128,0.123,0.035,-0.157,0.055,-0.009,-0.143,-0.135,-0.077,-0.027
-0.086,-0.198,-0.112,0.143,0.013,-0.154,0.055,-0.015,-0.146,-0.13,-0.086,-0.032
-0.059,-0.203,-0.144,0.131,0.042,-0.173,0.055,-0.02,-0.145,-0.125,-0.074,-0.026
-0.056,-0.196,-0.14,0.126,0.042,-0.167,0.055,-0.027,-0.143,-0.121,-0.07,-0.024
-0.065,-0.223,-0.157,0.144,0.046,-0.19,0.054,-0.029,-0.139,-0.116,-0.062,-0.019
-0.057,-0.255,-0.198,0.156,0.071,-0.226,0.058,-0.023,-0.14,-0.112,-0.059,-0.015
-0.052,-0.258,-0.206,0.155,0.078,-0.232,0.061,-0.016,-0.136,-0.109,-0.061,-0.018
-0.053,-0.267,-0.214,0.16,0.08,-0.24,0.059,-0.01,-0.129,-0.111,-0.057,-0.033
-0.053,-0.244,-0.191,0.148,0.069,-0.217,0.055,-0.001,-0.123,-0.111,-0.056,-0.02
-0.071,-0.234,-0.163,0.152,0.047,-0.198,0.058,0.003,-0.116,-0.112,-0.056,0.003
-0.044,-0.222,-0.178,0.133,0.067,-0.199,0.086,0.017,-0.109,-0.085,-0.044,0.022
-0.031,-0.184,-0.153,0.107,0.061,-0.168,0.097,0.035,-0.101,-0.05,-0.03,0.037
-0.04,-0.204,-0.164,0.122,0.062,-0.184,0.077,0.033,-0.093,-0.044,-0.017,0.025
0.009,-0.195,-0.205,0.093,0.107,-0.2,0.07,0.026,-0.089,-0.043,-0.009,0.051
0.029,-0.211,-0.24,0.091,0.135,-0.225,0.061,0.018,-0.094,-0.039,0.003,0.074
0.027,-0.268,-0.296,0.121,0.162,-0.282,0.068,0.015,-0.114,-0.064,-0.002,0.048
0.031,-0.268,-0.299,0.118,0.166,-0.283,0.056,0.001,-0.13,-0.076,-0.015,0.041
0.003,-0.317,-0.321,0.157,0.163,-0.319,0.062,-0.001,-0.119,-0.06,-0.018,0.041
-0.039,-0.354,-0.315,0.197,0.138,-0.335,0.079,-0.018,-0.142,-0.092,-0.043,0.037
-0.046,-0.377,-0.332,0.212,0.143,-0.354,0.08,0.003,-0.116,-0.077,-0.027,0.045
-0.036,-0.423,-0.387,0.229,0.176,-0.404,0.109,0.007,-0.133,-0.095,-0.035,0.034
-0.053,-0.445,-0.392,0.249,0.17,-0.419,0.115,0.046,-0.075,-0.03,-0.013,0.048
-0.058,-0.521,-0.463,0.29,0.202,-0.492,0.163,0.064,-0.065,-0.078,-0.007,0.049
-0.057,-0.567,-0.51,0.313,0.227,-0.538,0.169,0.077,-0.051,-0.039,0.046,0.097
-0.141,-0.807,-0.666,0.474,0.263,-0.737,0.398,0.308,-0.022,-0.084,-0.064,0.001
-0.214,-0.971,-0.757,0.593,0.272,-0.864,0.647,0.524,-0.088,-0.333,-0.274,-0.163
-0.025,-0.707,-0.683,0.366,0.329,-0.695,0.477,0.694,0.258,0.019,0.039,0.096
0.348,0.267,-0.081,-0.308,0.215,0.093,-0.445,-0.403,0.49,1.146,1.277,1.162
0.557,1.455,0.898,-1.007,-0.171,1.176,-1.598,-1.766,1.416,3.432,2.988,2.387
0.266,0.644,0.378,-0.455,-0.056,0.511,-1.24,-1.506,0.94,2.636,2.082,1.64
-0.085,-0.61,-0.525,0.348,0.22,-0.567,-0.355,-0.812,-0.697,-0.088,0.148,0.324
-0.064,-0.652,-0.588,0.358,0.262,-0.62,0.007,-0.073,-0.024,0.166,0.194,0.281
-0.062,-0.763,-0.701,0.413,0.32,-0.732,0.254,0.26,0.309,0.322,0.248,0.276
-0.088,-0.847,-0.759,0.468,0.335,-0.802,0.284,0.264,0.191,0.205,0.209,0.267
-0.082,-0.955,-0.873,0.518,0.396,-0.913,0.37,0.404,0.364,0.323,0.264,0.286
-0.084,-1.024,-0.94,0.554,0.428,-0.982,0.415,0.425,0.295,0.214,0.212,0.262
-0.069,-1.063,-0.995,0.566,0.463,-1.029,0.427,0.476,0.407,0.31,0.263,0.29
-0.072,-1.121,-1.049,0.597,0.489,-1.085,0.444,0.485,0.391,0.273,0.237,0.299
-0.049,-1.086,-1.037,0.568,0.494,-1.061,0.436,0.504,0.445,0.329,0.263,0.331
-0.033,-1.087,-1.054,0.56,0.511,-1.07,0.464,0.532,0.461,0.323,0.271,0.317
-0.059,-1.074,-1.015,0.567,0.478,-1.044,0.461,0.548,0.496,0.356,0.291,0.331
-0.04,-1.031,-0.991,0.535,0.476,-1.01,0.468,0.589,0.534,0.374,0.308,0.329
-0.034,-1.026,-0.992,0.53,0.479,-1.009,0.483,0.636,0.586,0.409,0.336,0.337
-0.043,-1.105,-1.062,0.574,0.51,-1.083,0.527,0.714,0.668,0.472,0.383,0.377
-0.017,-1.101,-1.084,0.559,0.534,-1.092,0.552,0.786,0.732,0.518,0.415,0.402
-0.04,-1.096,-1.055,0.568,0.508,-1.075,0.565,0.853,0.802,0.583,0.458,0.44
-0.009,-1.099,-1.089,0.554,0.54,-1.094,0.59,0.943,0.882,0.658,0.522,0.49
0.018,-1.038,-1.056,0.51,0.537,-1.047,0.581,0.976,0.942,0.727,0.565,0.511
-0.003,-0.97,-0.966,0.487,0.482,-0.968,0.55,0.966,0.951,0.749,0.584,0.52
0.016,-0.923,-0.939,0.454,0.478,-0.931,0.514,0.952,0.969,0.799,0.621,0.548
0.033,-0.892,-0.926,0.43,0.48,-0.909,0.493,0.919,0.966,0.838,0.667,0.589
0.046,-0.846,-0.892,0.401,0.469,-0.869,0.453,0.85,0.933,0.83,0.665,0.588
0.049,-0.752,-0.801,0.352,0.425,-0.776,0.409,0.73,0.826,0.766,0.61,0.55
0.005,-0.822,-0.827,0.409,0.416,-0.824,0.403,0.629,0.688,0.655,0.54,0.507
-0.011,-1.007,-0.996,0.509,0.493,-1.001,0.4,0.558,0.605,0.581,0.492,0.464
-0.006,-1.016,-1.01,0.511,0.502,-1.013,0.382,0.482,0.49,0.484,0.428,0.427
-0.033,-1.036,-1.003,0.534,0.486,-1.019,0.358,0.423,0.385,0.389,0.37,0.377
-0.036,-1.094,-1.058,0.566,0.511,-1.076,0.354,0.381,0.328,0.345,0.336,0.35
-0.02,-1.07,-1.05,0.545,0.516,-1.06,0.355,0.348,0.268,0.289,0.288,0.343
-0.018,-1.046,-1.028,0.532,0.506,-1.037,0.348,0.339,0.234,0.265,0.27,0.332
-0.051,-1.1,-1.049,0.576,0.5,-1.075,0.352,0.337,0.244,0.258,0.267,0.323
-0.073,-1.142,-1.069,0.608,0.499,-1.105,0.358,0.335,0.26,0.244,0.258,0.312
-0.06,-1.107,-1.047,0.584,0.494,-1.077,0.351,0.331,0.255,0.236,0.253,0.305
-0.042,-1.07,-1.028,0.556,0.493,-1.049,0.341,0.329,0.246,0.229,0.245,0.301
-0.075,-1.078,-1.003,0.577,0.464,-1.04,0.334,0.341,0.242,0.225,0.249,0.299
-0.072,-1.076,-1.004,0.574,0.466,-1.04,0.322,0.346,0.232,0.219,0.25,0.3
-0.049,-1.054,-1.005,0.552,0.478,-1.03,0.324,0.343,0.232,0.212,0.249,0.299
-0.071,-1.074,-1.003,0.573,0.467,-1.039,0.34,0.342,0.247,0.212,0.25,0.301
-0.036,-1.075,-1.039,0.556,0.502,-1.057,0.348,0.338,0.253,0.229,0.25,0.299
-0.049,-1.095,-1.045,0.572,0.498,-1.07,0.348,0.342,0.245,0.234,0.262,0.302
-0.078,-1.139,-1.06,0.609,0.491,-1.099,0.343,0.353,0.242,0.226,0.271,0.314
-0.073,-1.121,-1.049,0.597,0.488,-1.085,0.339,0.347,0.235,0.218,0.27,0.315
-0.072,-1.124,-1.052,0.598,0.49,-1.088,0.337,0.338,0.229,0.213,0.267,0.314
-0.063,-1.183,-1.12,0.623,0.529,-1.151,0.332,0.331,0.226,0.202,0.265,0.315
-0.079,-1.165,-1.086,0.622,0.504,-1.125,0.33,0.323,0.201,0.199,0.264,0.313
-0.09,-1.082,-0.992,0.586,0.451,-1.037,0.335,0.318,0.167,0.187,0.257,0.308
-0.07,-1.082,-1.012,0.576,0.472,-1.047,0.343,0.31,0.165,0.178,0.252,0.302
-0.033,-1.141,-1.109,0.587,0.538,-1.125,0.343,0.304,0.183,0.204,0.248,0.298
-0.047,-1.168,-1.12,0.608,0.537,-1.144,0.339,0.297,0.184,0.211,0.241,0.291
-0.048,-1.153,-1.105,0.601,0.529,-1.129,0.341,0.292,0.18,0.209,0.237,0.287
-0.049,-1.086,-1.038,0.568,0.495,-1.062,0.315,0.279,0.156,0.182,0.227,0.278
-0.046,-0.985,-0.939,0.516,0.447,-0.962,0.279,0.256,0.118,0.143,0.207,0.257
-0.02,-0.945,-0.925,0.483,0.453,-0.935,0.274,0.248,0.115,0.14,0.195,0.247
-0.052,-0.984,-0.932,0.519,0.44,-0.958,0.275,0.243,0.111,0.14,0.189,0.241
-0.054,-1.018,-0.964,0.537,0.455,-0.991,0.271,0.239,0.109,0.14,0.182,0.234
-0.056,-1.011,-0.955,0.534,0.45,-0.983,0.269,0.235,0.105,0.139,0.174,0.228
-0.061,-1.004,-0.943,0.532,0.442,-0.973,0.271,0.23,0.104,0.141,0.166,0.219
-0.052,-0.988,-0.936,0.521,0.442,-0.962,0.275,0.231,0.115,0.123,0.172,0.236
-0.049,-0.956,-0.907,0.503,0.429,-0.931,0.276,0.232,0.122,0.131,0.186,0.25
-0.018,-0.904,-0.886,0.461,0.434,-0.894,0.273,0.258,0.142,0.17,0.202,0.254
-0.024,-0.888,-0.864,0.456,0.42,-0.876,0.286,0.273,0.157,0.181,0.221,0.267
-0.006,-0.972,-0.967,0.489,0.481,-0.969,0.306,0.311,0.201,0.22,0.254,0.296
0.003,-1.046,-1.049,0.522,0.526,-1.047,0.307,0.336,0.221,0.241,0.283,0.332
0.006,-1.067,-1.073,0.531,0.539,-1.069,0.3,0.302,0.193,0.227,0.284,0.337
0.034,-1.107,-1.141,0.537,0.587,-1.124,0.302,0.302,0.176,0.208,0.267,0.323
-0.003,-1.117,-1.114,0.56,0.556,-1.116,0.297,0.295,0.152,0.193,0.258,0.317
-0.02,-1.1,-1.08,0.56,0.53,-1.09,0.303,0.303,0.163,0.202,0.25,0.308
-0.037,-1.132,-1.095,0.585,0.529,-1.114,0.297,0.285,0.141,0.18,0.234,0.297
-0.041,-1.18,-1.138,0.611,0.549,-1.159,0.301,0.301,0.173,0.215,0.241,0.296
-0.039,-1.185,-1.145,0.612,0.553,-1.165,0.301,0.28,0.134,0.17,0.211,0.277
-0.054,-1.153,-1.099,0.603,0.523,-1.126,0.29,0.284,0.164,0.203,0.231,0.283
-0.058,-1.094,-1.037,0.576,0.49,-1.065,0.289,0.267,0.134,0.135,0.182,0.234
-0.067,-1.048,-0.981,0.558,0.457,-1.014,0.26,0.257,0.13,0.138,0.188,0.216
-0.13,-1.196,-1.066,0.663,0.469,-1.131,0.478,0.468,0.15,0.041,0.052,0.106
-0.178,-1.244,-1.066,0.711,0.444,-1.155,0.682,0.654,0.027,-0.277,-0.191,-0.077
0.012,-0.985,-0.997,0.487,0.505,-0.991,0.48,0.775,0.419,0.184,0.199,0.23
0.358,0.061,-0.297,-0.21,0.328,-0.118,-0.498,-0.487,0.514,1.368,1.494,1.344
0.523,1.176,0.653,-0.85,-0.066,0.914,-1.498,-1.695,1.306,3.652,3.123,2.445
0.186,0.202,0.015,-0.194,0.086,0.109,-1.033,-1.283,0.66,2.481,1.974,1.553
-0.117,-1.007,-0.89,0.563,0.387,-0.948,-0.199,-0.576,-0.661,-0.122,0.148,0.311
-0.046,-0.983,-0.937,0.515,0.446,-0.96,0.088,0.081,0.174,0.396,0.366,0.358
