-0.049,-0.079,-0.03,0.064,-0.01,-0.055,0.011,0.175,-0.154,-0.174,-0.045,-0.055
-0.042,-0.072,-0.03,0.057,-0.006,-0.051,0.013,0.175,-0.143,-0.167,-0.045,-0.055
-0.033,-0.063,-0.029,0.048,-0.002,-0.046,0.022,0.176,-0.118,-0.158,-0.045,-0.055
-0.026,-0.052,-0.026,0.04,0.0,-0.039,0.03,0.174,-0.097,-0.143,-0.042,-0.055
-0.025,-0.044,-0.019,0.035,-0.003,-0.031,0.025,0.178,-0.079,-0.13,-0.039,-0.055
-0.022,-0.038,-0.016,0.031,-0.003,-0.027,0.046,0.194,-0.045,-0.114,-0.041,-0.055
-0.023,-0.033,-0.01,0.028,-0.006,-0.021,0.058,0.222,0.001,-0.092,-0.027,-0.048
-0.016,-0.024,-0.008,0.021,-0.004,-0.016,0.061,0.254,0.022,-0.073,-0.008,-0.039
0.002,0.002,0.0,-0.002,0.001,0.001,0.086,0.296,0.053,-0.051,0.01,-0.031
0.002,0.017,0.015,-0.01,-0.007,0.016,0.109,0.349,0.099,-0.035,0.019,-0.021
0.016,0.031,0.015,-0.024,0.0,0.023,0.137,0.419,0.153,0.002,0.04,-0.007
0.06,0.057,-0.003,-0.058,0.031,0.026,0.184,0.515,0.227,0.043,0.071,0.007
0.106,0.068,-0.038,-0.086,0.072,0.015,0.226,0.6,0.295,0.078,0.084,0.026
0.131,0.086,-0.045,-0.108,0.088,0.02,0.268,0.69,0.385,0.145,0.135,0.051
0.144,0.109,-0.035,-0.126,0.089,0.037,0.289,0.748,0.463,0.203,0.185,0.068
0.16,0.135,-0.024,-0.147,0.091,0.055,0.291,0.758,0.504,0.243,0.205,0.079
0.171,0.146,-0.025,-0.159,0.098,0.06,0.287,0.736,0.518,0.25,0.22,0.09
0.173,0.137,-0.037,-0.155,0.105,0.05,0.247,0.647,0.488,0.236,0.225,0.1
0.128,0.129,0.001,-0.129,0.064,0.065,0.192,0.521,0.416,0.222,0.21,0.097
0.079,0.121,0.043,-0.1,0.018,0.082,0.142,0.366,0.305,0.165,0.165,0.078
0.058,0.113,0.055,-0.086,0.001,0.084,0.107,0.217,0.178,0.085,0.12,0.046
0.017,0.088,0.071,-0.053,-0.027,0.08,0.075,0.116,0.078,0.024,0.08,0.024
-0.018,0.058,0.076,-0.02,-0.047,0.067,0.037,0.035,0.001,-0.021,0.044,0.01
-0.026,0.032,0.058,-0.003,-0.042,0.045,0.0,-0.031,-0.07,-0.075,0.01,-0.017
-0.037,0.006,0.043,0.015,-0.04,0.024,-0.031,-0.054,-0.115,-0.112,-0.029,-0.036
-0.046,-0.009,0.037,0.027,-0.042,0.014,-0.04,-0.043,-0.136,-0.122,-0.042,-0.044
-0.053,-0.013,0.04,0.033,-0.046,0.013,-0.046,-0.038,-0.137,-0.121,-0.039,-0.05
-0.06,-0.018,0.041,0.039,-0.05,0.011,-0.05,-0.031,-0.133,-0.119,-0.041,-0.05
-0.055,-0.019,0.036,0.037,-0.046,0.009,-0.053,-0.023,-0.13,-0.121,-0.039,-0.05
-0.065,-0.015,0.05,0.04,-0.057,0.017,-0.058,-0.022,-0.127,-0.118,-0.04,-0.05
-0.058,-0.015,0.043,0.036,-0.05,0.013,-0.06,-0.025,-0.123,-0.135,-0.047,-0.049
-0.065,-0.013,0.053,0.039,-0.059,0.02,-0.06,-0.025,-0.12,-0.148,-0.051,-0.053
-0.061,-0.01,0.051,0.035,-0.056,0.02,-0.06,-0.025,-0.12,-0.141,-0.049,-0.055
-0.023,-0.01,0.013,0.016,-0.018,0.001,-0.06,-0.025,-0.118,-0.14,-0.051,-0.055
-0.044,-0.014,0.03,0.029,-0.037,0.008,-0.06,-0.025,-0.114,-0.137,-0.05,-0.055
-0.047,-0.015,0.032,0.031,-0.039,0.008,-0.06,-0.032,-0.115,-0.134,-0.05,-0.055
-0.05,-0.015,0.035,0.032,-0.042,0.01,-0.064,-0.047,-0.119,-0.139,-0.055,-0.06
-0.077,-0.02,0.058,0.049,-0.067,0.019,-0.065,-0.052,-0.119,-0.141,-0.054,-0.06
-0.075,-0.02,0.055,0.047,-0.065,0.017,-0.066,-0.061,-0.14,-0.151,-0.065,-0.06
-0.069,-0.021,0.047,0.045,-0.058,0.013,-0.069,-0.08,-0.157,-0.165,-0.077,-0.06
-0.066,-0.025,0.041,0.045,-0.053,0.008,-0.071,-0.083,-0.155,-0.165,-0.074,-0.062
-0.062,-0.027,0.034,0.044,-0.048,0.003,-0.068,-0.088,-0.154,-0.164,-0.075,-0.07
-0.058,-0.031,0.028,0.044,-0.043,-0.001,-0.065,-0.09,-0.15,-0.166,-0.075,-0.069
-0.056,-0.033,0.023,0.044,-0.039,-0.005,-0.063,-0.091,-0.149,-0.164,-0.074,-0.071
-0.045,-0.036,0.009,0.04,-0.027,-0.013,-0.059,-0.095,-0.153,-0.168,-0.081,-0.075
-0.057,-0.031,0.026,0.044,-0.041,-0.002,-0.071,-0.096,-0.162,-0.173,-0.085,-0.074
-0.072,-0.024,0.047,0.048,-0.059,0.011,-0.082,-0.106,-0.161,-0.17,-0.089,-0.076
-0.07,-0.018,0.052,0.044,-0.061,0.016,-0.086,-0.103,-0.154,-0.163,-0.091,-0.073
-0.078,-0.011,0.067,0.044,-0.072,0.028,-0.09,-0.097,-0.148,-0.157,-0.084,-0.082
-0.07,-0.004,0.066,0.037,-0.068,0.031,-0.089,-0.094,-0.142,-0.149,-0.075,-0.082
-0.048,0.023,0.071,0.013,-0.059,0.046,-0.09,-0.088,-0.137,-0.142,-0.068,-0.066
-0.027,0.051,0.078,-0.012,-0.053,0.064,-0.09,-0.088,-0.129,-0.142,-0.058,-0.053
-0.006,0.076,0.082,-0.035,-0.044,0.079,-0.089,-0.081,-0.115,-0.145,-0.057,-0.034
0.008,0.111,0.103,-0.06,-0.048,0.106,-0.092,-0.094,-0.112,-0.148,-0.06,-0.029
0.008,0.103,0.095,-0.056,-0.044,0.099,-0.09,-0.092,-0.098,-0.15,-0.06,-0.03
-0.014,0.071,0.084,-0.029,-0.05,0.077,-0.09,-0.094,-0.107,-0.156,-0.067,-0.029
-0.039,0.031,0.07,0.004,-0.055,0.05,-0.09,-0.11,-0.132,-0.153,-0.063,-0.04
-0.061,-0.01,0.051,0.035,-0.056,0.021,-0.089,-0.124,-0.157,-0.17,-0.081,-0.069
-0.077,-0.021,0.056,0.049,-0.066,0.017,-0.092,-0.142,-0.169,-0.192,-0.112,-0.096
-0.086,-0.049,0.037,0.067,-0.061,-0.006,-0.088,-0.135,-0.166,-0.197,-0.117,-0.103
-0.097,-0.046,0.05,0.071,-0.073,0.002,-0.103,-0.146,-0.184,-0.194,-0.114,-0.097
-0.085,-0.064,0.021,0.074,-0.052,-0.021,-0.095,-0.12,-0.18,-0.195,-0.121,-0.103
-0.09,-0.048,0.042,0.069,-0.065,-0.003,-0.112,-0.149,-0.219,-0.197,-0.12,-0.098
-0.077,-0.074,0.003,0.075,-0.04,-0.035,-0.068,-0.094,-0.169,-0.192,-0.119,-0.103
-0.139,-0.117,0.022,0.128,-0.08,-0.047,0.133,0.068,-0.251,-0.284,-0.2,-0.174
-0.177,-0.009,0.168,0.093,-0.172,0.079,0.429,0.476,-0.104,-0.262,-0.212,-0.206
0.3,0.574,0.274,-0.437,0.013,0.424,-0.057,0.234,0.803,0.577,0.459,0.251
0.94,1.408,0.468,-1.175,0.236,0.938,-1.403,-1.171,2.211,1.939,1.545,1.004
0.756,0.905,0.15,-0.83,0.303,0.527,-1.685,-1.754,1.804,1.558,1.319,0.896
0.057,0.035,-0.022,-0.046,0.04,0.006,-1.163,-1.425,-0.566,-0.141,0.142,0.204
-0.156,-0.037,0.118,0.096,-0.137,0.04,-0.698,-0.719,-0.817,-0.479,-0.21,-0.08
-0.087,-0.084,0.004,0.085,-0.045,-0.039,-0.177,-0.014,-0.157,-0.217,-0.129,-0.097
-0.09,-0.035,0.055,0.062,-0.072,0.01,-0.042,0.083,-0.232,-0.236,-0.126,-0.09
-0.072,-0.026,0.046,0.049,-0.058,0.01,-0.015,0.106,-0.099,-0.187,-0.103,-0.088
-0.051,-0.03,0.021,0.04,-0.036,-0.004,0.009,0.105,-0.137,-0.193,-0.118,-0.084
-0.054,-0.012,0.041,0.033,-0.047,0.014,0.005,0.118,-0.071,-0.154,-0.101,-0.079
-0.057,-0.022,0.034,0.04,-0.045,0.006,0.03,0.132,-0.056,-0.138,-0.096,-0.086
-0.055,-0.004,0.051,0.03,-0.053,0.023,0.026,0.148,-0.033,-0.122,-0.087,-0.084
-0.066,-0.01,0.056,0.038,-0.061,0.023,0.044,0.182,0.007,-0.106,-0.078,-0.079
-0.048,0.008,0.055,0.02,-0.052,0.031,0.05,0.19,0.026,-0.089,-0.073,-0.075
-0.033,0.01,0.043,0.011,-0.038,0.027,0.074,0.243,0.081,-0.054,-0.057,-0.069
-0.017,0.024,0.042,-0.004,-0.029,0.033,0.095,0.287,0.098,-0.047,-0.047,-0.066
0.013,0.043,0.03,-0.028,-0.008,0.036,0.119,0.353,0.162,-0.007,-0.027,-0.054
0.019,0.054,0.035,-0.036,-0.009,0.045,0.169,0.438,0.228,0.04,0.003,-0.027
0.03,0.075,0.045,-0.053,-0.007,0.06,0.217,0.528,0.306,0.066,0.036,-0.015
0.07,0.092,0.023,-0.081,0.023,0.057,0.267,0.626,0.398,0.13,0.067,-0.003
0.105,0.117,0.012,-0.111,0.046,0.064,0.308,0.703,0.492,0.195,0.107,0.02
0.116,0.148,0.033,-0.132,0.041,0.09,0.319,0.73,0.559,0.238,0.141,0.039
0.108,0.156,0.049,-0.132,0.029,0.102,0.306,0.719,0.574,0.268,0.167,0.052
0.124,0.165,0.041,-0.145,0.041,0.103,0.289,0.676,0.561,0.273,0.181,0.059
0.133,0.17,0.037,-0.151,0.048,0.103,0.251,0.559,0.512,0.25,0.162,0.047
0.107,0.156,0.049,-0.132,0.029,0.102,0.197,0.41,0.406,0.202,0.136,0.035
0.081,0.144,0.063,-0.113,0.009,0.103,0.148,0.261,0.27,0.136,0.099,0.025
0.032,0.118,0.086,-0.075,-0.027,0.102,0.098,0.12,0.129,0.041,0.045,-0.01
-0.009,0.082,0.091,-0.036,-0.05,0.086,0.047,0.028,0.032,-0.026,0.006,-0.036
-0.027,0.057,0.083,-0.016,-0.055,0.07,0.004,-0.04,-0.04,-0.071,-0.045,-0.045
-0.045,0.038,0.083,0.004,-0.064,0.06,-0.008,-0.075,-0.093,-0.107,-0.074,-0.067
-0.058,0.02,0.078,0.019,-0.068,0.048,-0.017,-0.091,-0.109,-0.119,-0.078,-0.077
-0.072,0.004,0.076,0.033,-0.074,0.04,-0.036,-0.102,-0.118,-0.132,-0.094,-0.079
-0.078,-0.006,0.072,0.042,-0.075,0.033,-0.041,-0.093,-0.116,-0.13,-0.095,-0.081
-0.074,-0.004,0.07,0.039,-0.071,0.032,-0.04,-0.088,-0.11,-0.126,-0.097,-0.079
-0.073,-0.006,0.067,0.039,-0.069,0.03,-0.04,-0.081,-0.105,-0.125,-0.101,-0.081
-0.075,-0.01,0.064,0.042,-0.07,0.027,-0.04,-0.073,-0.099,-0.12,-0.098,-0.08
-0.072,-0.01,0.062,0.04,-0.067,0.026,-0.04,-0.071,-0.093,-0.121,-0.095,-0.077
-0.068,-0.013,0.056,0.04,-0.062,0.021,-0.044,-0.075,-0.092,-0.124,-0.095,-0.074
-0.067,-0.015,0.052,0.041,-0.059,0.018,-0.045,-0.075,-0.094,-0.129,-0.095,-0.071
-0.062,-0.015,0.047,0.038,-0.054,0.016,-0.045,-0.075,-0.099,-0.133,-0.095,-0.068
-0.062,-0.019,0.043,0.04,-0.052,0.012,-0.045,-0.076,-0.101,-0.135,-0.095,-0.065
-0.059,-0.02,0.038,0.039,-0.048,0.009,-0.046,-0.074,-0.109,-0.138,-0.098,-0.065
-0.055,-0.02,0.035,0.037,-0.045,0.007,-0.055,-0.082,-0.122,-0.141,-0.107,-0.065
-0.055,-0.02,0.035,0.037,-0.045,0.007,-0.062,-0.093,-0.135,-0.145,-0.115,-0.065
-0.051,-0.019,0.032,0.035,-0.041,0.006,-0.058,-0.102,-0.15,-0.153,-0.115,-0.065
-0.055,-0.026,0.029,0.041,-0.042,0.002,-0.067,-0.116,-0.149,-0.16,-0.115,-0.065
-0.062,-0.036,0.026,0.049,-0.043,-0.005,-0.081,-0.123,-0.159,-0.16,-0.115,-0.072
-0.06,-0.036,0.023,0.048,-0.041,-0.006,-0.075,-0.12,-0.172,-0.161,-0.115,-0.076
-0.061,-0.042,0.02,0.052,-0.041,-0.011,-0.07,-0.129,-0.17,-0.165,-0.114,-0.075
-0.055,-0.036,0.019,0.045,-0.037,-0.008,-0.066,-0.128,-0.171,-0.166,-0.111,-0.076
-0.03,-0.025,0.006,0.027,-0.018,-0.009,-0.061,-0.122,-0.172,-0.163,-0.108,-0.075
-0.03,-0.016,0.015,0.023,-0.022,-0.001,-0.057,-0.12,-0.158,-0.156,-0.105,-0.075
-0.045,0.022,0.067,0.011,-0.057,0.045,-0.051,-0.114,-0.135,-0.147,-0.101,-0.068
-0.036,0.047,0.083,-0.006,-0.06,0.064,-0.044,-0.117,-0.134,-0.141,-0.101,-0.057
-0.014,0.08,0.094,-0.033,-0.054,0.086,-0.064,-0.112,-0.137,-0.13,-0.089,-0.047
0.006,0.108,0.102,-0.057,-0.048,0.105,-0.09,-0.125,-0.141,-0.115,-0.068,-0.027
0.014,0.071,0.057,-0.043,-0.021,0.064,-0.083,-0.138,-0.141,-0.112,-0.055,-0.025
0.002,0.042,0.04,-0.022,-0.02,0.041,-0.086,-0.143,-0.148,-0.12,-0.068,-0.027
-0.025,-0.001,0.025,0.013,-0.025,0.012,-0.085,-0.136,-0.145,-0.135,-0.091,-0.039
-0.064,-0.053,0.01,0.058,-0.037,-0.021,-0.083,-0.147,-0.165,-0.16,-0.109,-0.067
-0.068,-0.067,0.001,0.068,-0.034,-0.033,-0.089,-0.157,-0.172,-0.168,-0.118,-0.077
-0.051,-0.089,-0.037,0.07,-0.007,-0.063,-0.075,-0.15,-0.181,-0.18,-0.121,-0.081
-0.055,-0.072,-0.016,0.064,-0.019,-0.044,-0.083,-0.159,-0.185,-0.183,-0.129,-0.08
-0.066,-0.101,-0.035,0.084,-0.015,-0.068,-0.059,-0.134,-0.168,-0.188,-0.142,-0.086
-0.074,-0.079,-0.005,0.077,-0.035,-0.042,-0.076,-0.166,-0.201,-0.194,-0.14,-0.085
-0.067,-0.116,-0.049,0.092,-0.008,-0.082,-0.039,-0.1,-0.15,-0.182,-0.141,-0.093
-0.147,-0.172,-0.025,0.159,-0.061,-0.098,0.193,0.089,-0.269,-0.29,-0.241,-0.175
-0.159,-0.005,0.154,0.082,-0.156,0.074,0.497,0.521,-0.037,-0.194,-0.196,-0.172
0.336,0.651,0.315,-0.494,0.011,0.483,-0.144,0.082,0.973,0.762,0.566,0.353
0.971,1.446,0.475,-1.209,0.248,0.96,-1.575,-1.379,2.286,2.017,1.594,1.071
0.741,0.815,0.074,-0.778,0.333,0.444,-1.741,-1.801,1.59,1.446,1.24,0.88
0.031,-0.076,-0.107,0.023,0.069,-0.091,-1.152,-1.431,-0.723,-0.206,0.069,0.197
-0.128,-0.103,0.024,0.115,-0.076,-0.039,-0.626,-0.655,-0.748,-0.439,-0.216,-0.045
-0.059,-0.133,-0.074,0.096,0.008,-0.103,-0.091,0.038,-0.161,-0.189,-0.14,-0.072
-0.071,-0.101,-0.03,0.086,-0.02,-0.065,0.01,0.092,-0.246,-0.219,-0.157,-0.079
-0.047,-0.098,-0.051,0.073,0.002,-0.074,0.044,0.127,-0.109,-0.174,-0.132,-0.077
-0.047,-0.093,-0.045,0.07,-0.001,-0.069,0.063,0.116,-0.161,-0.172,-0.136,-0.076
-0.036,-0.077,-0.041,0.057,0.003,-0.059,0.065,0.129,-0.086,-0.127,-0.116,-0.067
-0.032,-0.082,-0.05,0.058,0.009,-0.066,0.079,0.135,-0.08,-0.126,-0.112,-0.066
-0.032,-0.063,-0.032,0.048,0.0,-0.047,0.073,0.14,-0.052,-0.117,-0.098,-0.059
-0.031,-0.067,-0.036,0.049,0.003,-0.051,0.102,0.181,-0.01,-0.095,-0.086,-0.057
-0.025,-0.054,-0.029,0.04,0.003,-0.042,0.114,0.209,0.012,-0.073,-0.075,-0.048
-0.011,-0.049,-0.038,0.031,0.014,-0.043,0.139,0.263,0.062,-0.043,-0.059,-0.037
-0.003,-0.037,-0.034,0.02,0.016,-0.035,0.162,0.313,0.094,-0.026,-0.048,-0.024
0.022,-0.018,-0.04,-0.002,0.031,-0.029,0.196,0.384,0.154,0.005,-0.028,-0.013
0.045,0.005,-0.04,-0.025,0.043,-0.018,0.251,0.478,0.217,0.048,-0.002,0.0
0.067,0.029,-0.038,-0.048,0.053,-0.005,0.309,0.59,0.309,0.099,0.034,0.012
0.08,0.045,-0.035,-0.062,0.058,0.005,0.361,0.691,0.398,0.155,0.068,0.033
0.092,0.058,-0.035,-0.075,0.063,0.011,0.398,0.768,0.488,0.207,0.104,0.055
0.13,0.095,-0.035,-0.112,0.083,0.029,0.393,0.793,0.554,0.256,0.142,0.072
0.147,0.112,-0.035,-0.129,0.091,0.039,0.383,0.788,0.58,0.3,0.18,0.097
0.139,0.103,-0.036,-0.121,0.087,0.033,0.367,0.74,0.564,0.303,0.195,0.099
0.122,0.098,-0.024,-0.109,0.073,0.037,0.305,0.595,0.499,0.271,0.179,0.082
0.094,0.091,-0.003,-0.092,0.048,0.044,0.246,0.432,0.382,0.213,0.141,0.075
0.065,0.083,0.019,-0.074,0.023,0.051,0.188,0.275,0.239,0.134,0.09,0.057
0.031,0.052,0.021,-0.042,0.005,0.036,0.125,0.131,0.106,0.051,0.038,0.022
0.003,0.013,0.011,-0.008,-0.004,0.012,0.086,0.043,-0.004,-0.019,-0.009,-0.001
-0.02,-0.021,-0.001,0.02,-0.009,-0.011,0.054,-0.011,-0.073,-0.068,-0.039,-0.01
-0.034,-0.047,-0.013,0.041,-0.011,-0.03,0.035,-0.046,-0.116,-0.091,-0.057,-0.023
-0.029,-0.05,-0.021,0.04,-0.004,-0.035,0.025,-0.058,-0.135,-0.111,-0.075,-0.033
-0.022,-0.057,-0.035,0.04,0.007,-0.046,0.015,-0.055,-0.135,-0.128,-0.085,-0.036
-0.037,-0.069,-0.032,0.053,-0.002,-0.05,0.005,-0.048,-0.135,-0.126,-0.085,-0.035
-0.045,-0.07,-0.025,0.058,-0.01,-0.047,-0.001,-0.044,-0.135,-0.123,-0.085,-0.035
-0.046,-0.07,-0.024,0.058,-0.011,-0.046,0.0,-0.038,-0.135,-0.12,-0.085,-0.035
-0.054,-0.07,-0.016,0.062,-0.019,-0.043,0.0,-0.033,-0.135,-0.118,-0.085,-0.034
-0.054,-0.07,-0.016,0.062,-0.019,-0.042,0.0,-0.027,-0.139,-0.114,-0.087,-0.038
-0.05,-0.071,-0.022,0.061,-0.014,-0.047,0.0,-0.025,-0.141,-0.119,-0.09,-0.04
-0.051,-0.075,-0.024,0.064,-0.013,-0.049,-0.004,-0.025,-0.14,-0.126,-0.093,-0.041
-0.055,-0.075,-0.02,0.065,-0.017,-0.047,-0.009,-0.025,-0.14,-0.124,-0.096,-0.045
-0.055,-0.075,-0.019,0.065,-0.018,-0.047,-0.012,-0.025,-0.14,-0.127,-0.099,-0.045
-0.059,-0.075,-0.016,0.068,-0.021,-0.046,-0.017,-0.025,-0.141,-0.131,-0.1,-0.04
-0.061,-0.074,-0.013,0.068,-0.024,-0.044,-0.02,-0.031,-0.145,-0.129,-0.1,-0.04
-0.049,-0.079,-0.03,0.064,-0.009,-0.054,-0.023,-0.037,-0.149,-0.135,-0.1,-0.04
-0.047,-0.083,-0.036,0.066,-0.005,-0.06,-0.025,-0.045,-0.163,-0.138,-0.1,-0.04
-0.057,-0.088,-0.031,0.072,-0.012,-0.06,-0.029,-0.057,-0.179,-0.135,-0.1,-0.04
-0.061,-0.089,-0.028,0.075,-0.016,-0.059,-0.03,-0.054,-0.181,-0.135,-0.1,-0.04
-0.06,-0.084,-0.025,0.073,-0.017,-0.055,-0.03,-0.058,-0.18,-0.135,-0.098,-0.04
-0.042,-0.086,-0.044,0.064,0.001,-0.065,-0.029,-0.072,-0.178,-0.14,-0.092,-0.04
-0.034,-0.08,-0.046,0.057,0.006,-0.063,-0.03,-0.07,-0.175,-0.139,-0.087,-0.04
-0.049,-0.082,-0.033,0.066,-0.008,-0.057,-0.029,-0.062,-0.176,-0.132,-0.081,-0.04
-0.033,-0.061,-0.028,0.048,-0.003,-0.044,-0.03,-0.056,-0.168,-0.128,-0.074,-0.04
0.001,-0.012,-0.013,0.006,0.007,-0.012,-0.03,-0.055,-0.152,-0.121,-0.071,-0.031
-0.004,-0.005,-0.001,0.004,-0.001,-0.003,-0.03,-0.056,-0.143,-0.116,-0.074,-0.017
-0.012,0.005,0.018,0.003,-0.015,0.011,-0.052,-0.054,-0.144,-0.114,-0.077,-0.012
-0.01,0.031,0.041,-0.011,-0.026,0.036,-0.064,-0.057,-0.149,-0.115,-0.079,-0.005
-0.004,0.008,0.012,-0.002,-0.008,0.01,-0.054,-0.051,-0.147,-0.114,-0.083,-0.001
-0.003,-0.028,-0.025,0.016,0.012,-0.026,-0.057,-0.067,-0.16,-0.119,-0.085,-0.01
-0.035,-0.069,-0.033,0.052,-0.001,-0.05,-0.048,-0.08,-0.181,-0.138,-0.087,-0.029
-0.07,-0.096,-0.026,0.083,-0.022,-0.061,-0.052,-0.093,-0.205,-0.153,-0.095,-0.042
-0.058,-0.113,-0.055,0.086,-0.001,-0.084,-0.055,-0.085,-0.195,-0.16,-0.109,-0.052
-0.042,-0.12,-0.078,0.081,0.019,-0.099,-0.053,-0.093,-0.214,-0.169,-0.118,-0.061
-0.045,-0.107,-0.062,0.076,0.009,-0.084,-0.06,-0.095,-0.198,-0.16,-0.112,-0.059
-0.045,-0.136,-0.091,0.091,0.023,-0.113,-0.048,-0.089,-0.207,-0.171,-0.126,-0.07
-0.046,-0.105,-0.059,0.076,0.007,-0.082,-0.059,-0.099,-0.209,-0.159,-0.112,-0.062
-0.066,-0.171,-0.105,0.118,0.02,-0.138,0.035,-0.017,-0.194,-0.191,-0.144,-0.091
-0.171,-0.182,-0.011,0.177,-0.08,-0.096,0.324,0.242,-0.285,-0.305,-0.248,-0.18
-0.084,0.061,0.145,0.012,-0.115,0.103,0.514,0.617,0.129,-0.048,-0.07,-0.079
0.555,0.874,0.32,-0.715,0.117,0.597,-0.486,-0.254,1.26,1.107,0.878,0.591
1.047,1.44,0.393,-1.244,0.327,0.916,-1.794,-1.574,2.318,2.068,1.687,1.17
0.574,0.506,-0.068,-0.54,0.321,0.218,-1.609,-1.684,0.933,0.98,0.931,0.714
-0.051,-0.17,-0.119,0.111,0.034,-0.145,-0.999,-1.241,-0.982,-0.379,-0.06,0.114
-0.097,-0.115,-0.018,0.106,-0.039,-0.066,-0.423,-0.361,-0.523,-0.33,-0.151,-0.011
-0.059,-0.159,-0.1,0.109,0.021,-0.13,0.025,0.138,-0.213,-0.207,-0.116,-0.053
-0.078,-0.113,-0.035,0.096,-0.021,-0.074,0.051,0.133,-0.243,-0.203,-0.113,-0.054
-0.058,-0.128,-0.07,0.093,0.006,-0.099,0.104,0.188,-0.135,-0.162,-0.101,-0.051
-0.05,-0.109,-0.059,0.08,0.005,-0.084,0.106,0.159,-0.176,-0.168,-0.101,-0.051
-0.041,-0.105,-0.064,0.073,0.012,-0.084,0.112,0.175,-0.099,-0.136,-0.087,-0.048
-0.042,-0.102,-0.06,0.072,0.009,-0.081,0.118,0.176,-0.126,-0.128,-0.088,-0.046
-0.034,-0.086,-0.052,0.061,0.009,-0.069,0.132,0.211,-0.065,-0.101,-0.076,-0.044
-0.031,-0.084,-0.052,0.058,0.011,-0.068,0.151,0.233,-0.047,-0.097,-0.069,-0.043
-0.027,-0.067,-0.04,0.047,0.007,-0.053,0.158,0.259,-0.02,-0.083,-0.057,-0.032
-0.022,-0.06,-0.037,0.041,0.008,-0.048,0.187,0.304,0.022,-0.06,-0.047,-0.025
-0.013,-0.042,-0.029,0.028,0.008,-0.035,0.208,0.355,0.065,-0.033,-0.028,-0.016
-0.007,-0.029,-0.022,0.018,0.008,-0.025,0.257,0.443,0.125,0.006,0.0,-0.007
0.016,-0.009,-0.025,-0.004,0.02,-0.016,0.303,0.53,0.178,0.042,0.015,0.002
0.086,0.02,-0.066,-0.053,0.075,-0.022,0.354,0.635,0.264,0.09,0.046,0.014
0.109,0.048,-0.06,-0.078,0.084,-0.006,0.407,0.727,0.344,0.141,0.085,0.033
0.121,0.073,-0.048,-0.097,0.084,0.013,0.424,0.783,0.415,0.193,0.118,0.056
0.144,0.093,-0.051,-0.119,0.097,0.021,0.416,0.812,0.473,0.243,0.166,0.082
0.15,0.103,-0.047,-0.126,0.098,0.028,0.403,0.782,0.482,0.251,0.182,0.098
0.159,0.104,-0.055,-0.131,0.107,0.024,0.366,0.694,0.451,0.242,0.174,0.094
0.117,0.092,-0.025,-0.104,0.071,0.033,0.304,0.561,0.389,0.233,0.168,0.089
0.066,0.084,0.018,-0.075,0.023,0.051,0.238,0.386,0.273,0.177,0.144,0.087
0.042,0.066,0.024,-0.055,0.009,0.045,0.182,0.225,0.135,0.096,0.103,0.073
0.026,0.024,-0.002,-0.025,0.014,0.01,0.132,0.107,0.032,0.037,0.052,0.043
0.022,-0.002,-0.023,-0.01,0.023,-0.012,0.088,0.031,-0.051,-0.024,0.009,0.008
-0.002,-0.028,-0.026,0.015,0.012,-0.026,0.06,-0.029,-0.123,-0.081,-0.026,-0.016
-0.043,-0.057,-0.015,0.05,-0.014,-0.036,0.05,-0.053,-0.145,-0.097,-0.048,-0.024
-0.061,-0.068,-0.007,0.065,-0.027,-0.037,0.04,-0.057,-0.154,-0.102,-0.055,-0.033
-0.035,-0.075,-0.04,0.055,0.003,-0.057,0.03,-0.073,-0.17,-0.118,-0.06,-0.039
-0.012,-0.075,-0.063,0.044,0.026,-0.069,0.02,-0.07,-0.169,-0.121,-0.06,-0.034
-0.018,-0.075,-0.056,0.047,0.02,-0.065,0.014,-0.06,-0.165,-0.119,-0.06,-0.036
-0.02,-0.075,-0.055,0.048,0.018,-0.065,0.015,-0.054,-0.162,-0.121,-0.057,-0.032
-0.024,-0.075,-0.05,0.049,0.013,-0.062,0.015,-0.046,-0.157,-0.12,-0.054,-0.029
-0.029,-0.076,-0.047,0.053,0.009,-0.061,0.015,-0.045,-0.156,-0.12,-0.056,-0.03
-0.036,-0.08,-0.043,0.058,0.004,-0.061,0.015,-0.045,-0.159,-0.125,-0.06,-0.026
-0.04,-0.08,-0.04,0.06,0.0,-0.06,0.013,-0.045,-0.162,-0.125,-0.06,-0.025
-0.043,-0.081,-0.038,0.062,-0.002,-0.06,0.01,-0.046,-0.164,-0.126,-0.061,-0.025
-0.051,-0.085,-0.034,0.069,-0.008,-0.06,0.007,-0.045,-0.168,-0.13,-0.066,-0.025
-0.052,-0.085,-0.033,0.068,-0.009,-0.058,0.005,-0.048,-0.17,-0.13,-0.064,-0.025
-0.06,-0.088,-0.028,0.074,-0.016,-0.057,0.001,-0.057,-0.172,-0.132,-0.068,-0.026
-0.051,-0.09,-0.04,0.071,-0.006,-0.065,0.0,-0.067,-0.18,-0.136,-0.07,-0.03
-0.033,-0.093,-0.061,0.063,0.014,-0.076,-0.003,-0.072,-0.185,-0.138,-0.07,-0.03
-0.036,-0.096,-0.06,0.066,0.012,-0.077,-0.008,-0.08,-0.191,-0.141,-0.07,-0.032
-0.039,-0.099,-0.06,0.069,0.01,-0.079,-0.011,-0.09,-0.197,-0.144,-0.07,-0.036
-0.044,-0.104,-0.06,0.074,0.009,-0.082,-0.014,-0.091,-0.204,-0.145,-0.07,-0.034
-0.044,-0.103,-0.059,0.073,0.008,-0.081,-0.019,-0.096,-0.21,-0.145,-0.065,-0.039
-0.036,-0.098,-0.062,0.067,0.013,-0.08,-0.02,-0.092,-0.204,-0.143,-0.065,-0.04
-0.031,-0.095,-0.064,0.063,0.017,-0.08,-0.02,-0.09,-0.197,-0.136,-0.065,-0.041
-0.026,-0.092,-0.067,0.06,0.02,-0.079,-0.019,-0.089,-0.192,-0.132,-0.065,-0.045
-0.024,-0.087,-0.063,0.056,0.019,-0.074,-0.02,-0.083,-0.184,-0.127,-0.066,-0.046
-0.016,-0.085,-0.069,0.051,0.027,-0.077,-0.019,-0.086,-0.178,-0.119,-0.061,-0.044
-0.018,-0.062,-0.043,0.04,0.013,-0.052,-0.017,-0.064,-0.171,-0.116,-0.047,-0.03
-0.012,-0.022,-0.009,0.017,-0.001,-0.015,-0.012,-0.044,-0.164,-0.119,-0.033,-0.016
0.014,-0.01,-0.023,-0.002,0.019,-0.016,-0.011,-0.048,-0.15,-0.121,-0.034,-0.005
0.034,0.007,-0.027,-0.02,0.031,-0.01,-0.036,-0.057,-0.147,-0.119,-0.037,0.004
0.025,0.009,-0.016,-0.017,0.02,-0.003,-0.048,-0.052,-0.142,-0.12,-0.041,0.013
0.003,-0.025,-0.028,0.011,0.016,-0.026,-0.043,-0.064,-0.153,-0.119,-0.044,0.018
0.002,-0.058,-0.06,0.028,0.032,-0.059,-0.047,-0.081,-0.186,-0.126,-0.048,-0.013
-0.025,-0.106,-0.08,0.066,0.028,-0.093,-0.037,-0.079,-0.211,-0.155,-0.074,-0.046
-0.055,-0.121,-0.066,0.088,0.006,-0.093,-0.044,-0.08,-0.211,-0.159,-0.084,-0.048
-0.064,-0.142,-0.078,0.103,0.007,-0.11,-0.035,-0.069,-0.205,-0.161,-0.086,-0.056
-0.07,-0.132,-0.062,0.101,-0.004,-0.097,-0.035,-0.079,-0.22,-0.16,-0.084,-0.055
-0.069,-0.145,-0.076,0.107,0.003,-0.11,-0.021,-0.059,-0.195,-0.158,-0.085,-0.061
-0.078,-0.147,-0.068,0.113,-0.004,-0.107,-0.017,-0.088,-0.229,-0.164,-0.086,-0.057
-0.069,-0.133,-0.065,0.101,-0.002,-0.099,-0.008,-0.055,-0.192,-0.154,-0.085,-0.052
-0.123,-0.212,-0.088,0.168,-0.017,-0.15,0.159,0.081,-0.279,-0.245,-0.169,-0.131
-0.175,-0.132,0.044,0.154,-0.109,-0.044,0.498,0.497,-0.212,-0.268,-0.219,-0.191
0.184,0.335,0.151,-0.26,0.016,0.243,0.259,0.445,0.518,0.36,0.288,0.156
0.913,1.285,0.373,-1.099,0.27,0.829,-1.2,-0.921,1.795,1.693,1.405,0.966
0.994,1.123,0.128,-1.059,0.433,0.625,-1.901,-1.737,1.894,1.753,1.516,1.075
0.257,0.021,-0.236,-0.138,0.246,-0.107,-1.321,-1.525,-0.231,0.175,0.387,0.38
-0.135,-0.172,-0.036,0.154,-0.049,-0.104,-0.739,-0.818,-0.935,-0.44,-0.142,0.037
-0.094,-0.145,-0.051,0.119,-0.021,-0.098,-0.125,0.034,-0.253,-0.22,-0.085,-0.02
-0.089,-0.155,-0.067,0.122,-0.011,-0.111,0.082,0.182,-0.284,-0.214,-0.098,-0.058
-0.076,-0.117,-0.041,0.097,-0.017,-0.079,0.086,0.184,-0.183,-0.175,-0.088,-0.052
-0.072,-0.132,-0.061,0.102,-0.005,-0.097,0.132,0.2,-0.183,-0.178,-0.087,-0.057
-0.069,-0.1,-0.032,0.085,-0.018,-0.066,0.118,0.184,-0.162,-0.159,-0.074,-0.053
-0.06,-0.11,-0.051,0.085,-0.004,-0.08,0.145,0.211,-0.129,-0.143,-0.068,-0.056
-0.071,-0.089,-0.018,0.08,-0.026,-0.053,0.134,0.211,-0.123,-0.124,-0.061,-0.054
-0.06,-0.088,-0.028,0.074,-0.016,-0.057,0.16,0.248,-0.067,-0.104,-0.052,-0.051
-0.017,-0.075,-0.058,0.046,0.021,-0.066,0.169,0.264,-0.058,-0.099,-0.046,-0.044
-0.004,-0.062,-0.058,0.033,0.027,-0.06,0.183,0.311,-0.014,-0.076,-0.033,-0.037
0.002,-0.046,-0.048,0.022,0.025,-0.047,0.209,0.367,0.009,-0.053,-0.01,-0.031
0.015,-0.028,-0.043,0.007,0.029,-0.036,0.244,0.437,0.068,-0.015,0.014,-0.024
0.017,-0.018,-0.035,0.001,0.026,-0.026,0.294,0.529,0.13,0.025,0.027,-0.009
0.029,-0.001,-0.03,-0.014,0.03,-0.015,0.339,0.632,0.2,0.064,0.057,0.009
0.066,0.017,-0.049,-0.041,0.057,-0.015,0.39,0.733,0.276,0.113,0.096,0.024
0.107,0.049,-0.057,-0.078,0.082,-0.004,0.423,0.806,0.348,0.165,0.136,0.051
0.135,0.081,-0.054,-0.108,0.094,0.013,0.423,0.844,0.41,0.21,0.169,0.073
0.153,0.101,-0.052,-0.127,0.103,0.024,0.406,0.822,0.449,0.246,0.201,0.092
0.161,0.112,-0.049,-0.137,0.105,0.031,0.384,0.778,0.441,0.251,0.217,0.101
0.168,0.118,-0.05,-0.143,0.109,0.034,0.335,0.681,0.401,0.251,0.209,0.09
0.157,0.113,-0.044,-0.135,0.1,0.035,0.278,0.527,0.337,0.231,0.201,0.082
0.12,0.087,-0.034,-0.103,0.077,0.026,0.232,0.357,0.225,0.164,0.167,0.073
0.081,0.051,-0.031,-0.066,0.056,0.01,0.183,0.204,0.108,0.092,0.12,0.063
0.035,0.006,-0.029,-0.021,0.032,-0.011,0.141,0.107,0.024,0.03,0.08,0.05
-0.003,-0.035,-0.032,0.019,0.015,-0.033,0.111,0.042,-0.053,-0.02,0.033,0.027
-0.022,-0.05,-0.028,0.036,0.003,-0.039,0.086,-0.002,-0.117,-0.063,0.006,0.003
-0.028,-0.062,-0.034,0.045,0.004,-0.048,0.072,-0.026,-0.139,-0.086,0.001,-0.007
-0.015,-0.076,-0.062,0.046,0.024,-0.069,0.062,-0.025,-0.141,-0.094,-0.004,-0.009
-0.02,-0.076,-0.056,0.048,0.019,-0.066,0.053,-0.018,-0.14,-0.1,-0.007,-0.013
-0.026,-0.075,-0.048,0.051,0.012,-0.061,0.042,-0.015,-0.14,-0.099,-0.013,-0.016
-0.026,-0.075,-0.049,0.05,0.012,-0.062,0.039,-0.007,-0.14,-0.101,-0.015,-0.02
-0.027,-0.07,-0.043,0.049,0.008,-0.056,0.04,-0.003,-0.139,-0.105,-0.015,-0.024
-0.027,-0.07,-0.043,0.048,0.008,-0.056,0.036,0.003,-0.144,-0.105,-0.015,-0.025
-0.033,-0.071,-0.038,0.052,0.003,-0.055,0.035,0.005,-0.145,-0.105,-0.015,-0.025
-0.039,-0.077,-0.038,0.058,0.0,-0.057,0.035,0.005,-0.146,-0.105,-0.015,-0.03
-0.052,-0.084,-0.032,0.069,-0.01,-0.058,0.035,0.005,-0.149,-0.105,-0.015,-0.03
-0.046,-0.085,-0.039,0.066,-0.003,-0.062,0.035,0.005,-0.151,-0.105,-0.019,-0.031
-0.034,-0.085,-0.052,0.06,0.009,-0.068,0.035,-0.003,-0.151,-0.105,-0.021,-0.036
-0.035,-0.09,-0.055,0.062,0.01,-0.072,0.035,-0.012,-0.156,-0.105,-0.02,-0.034
-0.021,-0.09,-0.069,0.056,0.024,-0.079,0.035,-0.021,-0.176,-0.106,-0.025,-0.038
-0.036,-0.091,-0.055,0.064,0.01,-0.073,0.033,-0.029,-0.184,-0.104,-0.024,-0.04
-0.048,-0.095,-0.047,0.072,0.0,-0.071,0.028,-0.042,-0.187,-0.112,-0.027,-0.04
-0.031,-0.094,-0.064,0.063,0.017,-0.079,0.025,-0.056,-0.189,-0.126,-0.037,-0.04
-0.034,-0.097,-0.064,0.066,0.015,-0.08,0.022,-0.063,-0.184,-0.125,-0.035,-0.04
-0.041,-0.101,-0.06,0.071,0.009,-0.08,0.017,-0.065,-0.185,-0.125,-0.035,-0.04
-0.042,-0.099,-0.057,0.071,0.007,-0.078,0.014,-0.066,-0.185,-0.128,-0.033,-0.04
-0.052,-0.104,-0.052,0.078,0.0,-0.077,0.01,-0.075,-0.185,-0.13,-0.029,-0.04
-0.055,-0.105,-0.05,0.08,-0.002,-0.077,0.007,-0.076,-0.185,-0.133,-0.03,-0.041
-0.05,-0.105,-0.055,0.078,0.003,-0.08,0.003,-0.074,-0.193,-0.136,-0.033,-0.045
-0.046,-0.11,-0.063,0.078,0.009,-0.086,0.0,-0.076,-0.194,-0.139,-0.035,-0.045
-0.047,-0.11,-0.063,0.079,0.007,-0.086,-0.005,-0.075,-0.185,-0.14,-0.035,-0.045
-0.056,-0.11,-0.054,0.083,-0.001,-0.081,-0.002,-0.075,-0.181,-0.134,-0.035,-0.045
-0.057,-0.104,-0.046,0.081,-0.005,-0.075,0.008,-0.069,-0.172,-0.126,-0.036,-0.046
-0.065,-0.102,-0.037,0.084,-0.014,-0.07,0.018,-0.062,-0.166,-0.12,-0.034,-0.04
-0.05,-0.081,-0.031,0.066,-0.009,-0.056,0.028,-0.061,-0.16,-0.111,-0.02,-0.031
-0.008,-0.031,-0.022,0.02,0.007,-0.026,0.019,-0.068,-0.15,-0.097,-0.007,-0.023
-0.002,-0.015,-0.013,0.009,0.006,-0.013,0.001,-0.071,-0.142,-0.083,0.012,-0.013
0.0,-0.002,-0.002,0.001,0.001,-0.002,-0.014,-0.075,-0.145,-0.075,0.031,-0.01
0.012,0.013,0.001,-0.013,0.005,0.007,-0.029,-0.071,-0.147,-0.075,0.027,-0.009
0.016,-0.017,-0.033,0.001,0.025,-0.024,-0.029,-0.067,-0.15,-0.074,0.017,-0.006
-0.004,-0.047,-0.043,0.026,0.02,-0.045,-0.032,-0.085,-0.161,-0.083,0.005,-0.003
-0.042,-0.09,-0.048,0.066,0.003,-0.069,-0.027,-0.101,-0.18,-0.114,-0.02,-0.013
-0.065,-0.112,-0.047,0.089,-0.009,-0.079,-0.034,-0.115,-0.202,-0.129,-0.034,-0.028
-0.077,-0.134,-0.057,0.106,-0.01,-0.095,-0.026,-0.104,-0.199,-0.135,-0.044,-0.045
-0.086,-0.128,-0.042,0.107,-0.022,-0.085,-0.033,-0.119,-0.22,-0.142,-0.049,-0.053
-0.097,-0.128,-0.031,0.112,-0.033,-0.079,-0.03,-0.1,-0.202,-0.139,-0.049,-0.054
-0.084,-0.138,-0.053,0.111,-0.016,-0.095,-0.026,-0.12,-0.235,-0.152,-0.053,-0.058
-0.057,-0.119,-0.061,0.088,0.002,-0.09,-0.041,-0.103,-0.207,-0.137,-0.046,-0.051
-0.113,-0.21,-0.098,0.162,-0.007,-0.154,0.115,0.001,-0.234,-0.193,-0.106,-0.102
-0.188,-0.157,0.031,0.173,-0.11,-0.063,0.449,0.385,-0.22,-0.248,-0.174,-0.176
0.077,0.196,0.118,-0.137,-0.021,0.157,0.395,0.506,0.35,0.211,0.183,0.063
0.797,1.119,0.323,-0.958,0.237,0.721,-0.869,-0.779,1.532,1.488,1.264,0.853
1.084,1.249,0.165,-1.166,0.459,0.707,-1.813,-1.761,1.984,1.904,1.65,1.154
0.396,0.139,-0.257,-0.267,0.326,-0.059,-1.392,-1.638,0.102,0.437,0.608,0.506
-0.132,-0.188,-0.057,0.16,-0.037,-0.122,-0.798,-1.005,-0.96,-0.409,-0.068,0.072
-0.099,-0.128,-0.029,0.114,-0.035,-0.078,-0.191,-0.101,-0.29,-0.206,-0.05,-0.001
-0.079,-0.168,-0.088,0.124,0.005,-0.128,0.085,0.129,-0.249,-0.187,-0.057,-0.041
-0.063,-0.121,-0.058,0.092,-0.002,-0.089,0.081,0.125,-0.199,-0.145,-0.053,-0.038
-0.056,-0.147,-0.091,0.102,0.018,-0.118,0.131,0.152,-0.164,-0.144,-0.056,-0.044
-0.056,-0.116,-0.06,0.086,0.002,-0.088,0.116,0.136,-0.161,-0.133,-0.045,-0.035
-0.046,-0.125,-0.078,0.086,0.016,-0.101,0.138,0.164,-0.111,-0.113,-0.039,-0.036
-0.046,-0.11,-0.065,0.078,0.01,-0.087,0.129,0.153,-0.124,-0.108,-0.034,-0.031
-0.034,-0.103,-0.069,0.068,0.018,-0.085,0.144,0.192,-0.072,-0.079,-0.021,-0.03
-0.025,-0.084,-0.059,0.054,0.018,-0.071,0.166,0.214,-0.057,-0.063,-0.004,-0.026
-0.014,-0.068,-0.054,0.041,0.02,-0.06,0.174,0.258,-0.004,-0.034,0.015,-0.015
-0.014,-0.066,-0.052,0.04,0.019,-0.058,0.199,0.311,0.022,-0.019,0.022,-0.008
-0.008,-0.047,-0.039,0.028,0.016,-0.043,0.224,0.375,0.067,0.006,0.037,0.001
0.023,-0.028,-0.051,0.002,0.037,-0.039,0.267,0.471,0.129,0.039,0.068,0.013
0.049,-0.018,-0.067,-0.015,0.058,-0.042,0.314,0.573,0.196,0.082,0.096,0.033
0.087,-0.001,-0.088,-0.043,0.088,-0.044,0.36,0.672,0.269,0.133,0.127,0.05
0.126,0.031,-0.096,-0.078,0.111,-0.032,0.392,0.748,0.339,0.18,0.154,0.065
0.142,0.053,-0.089,-0.097,0.115,-0.018,0.397,0.785,0.397,0.226,0.187,0.084
0.161,0.077,-0.084,-0.119,0.122,-0.003,0.385,0.775,0.437,0.269,0.227,0.108
0.165,0.092,-0.073,-0.128,0.119,0.009,0.355,0.744,0.448,0.275,0.245,0.125
0.175,0.109,-0.066,-0.142,0.12,0.022,0.317,0.669,0.426,0.268,0.253,0.126
0.172,0.115,-0.057,-0.143,0.114,0.029,0.267,0.517,0.353,0.256,0.239,0.119
0.141,0.086,-0.055,-0.113,0.098,0.015,0.219,0.351,0.245,0.204,0.21,0.111
0.096,0.041,-0.055,-0.068,0.075,-0.007,0.181,0.21,0.147,0.135,0.172,0.093
0.057,0.005,-0.052,-0.031,0.054,-0.023,0.139,0.101,0.051,0.072,0.128,0.064
0.019,-0.031,-0.05,0.006,0.034,-0.04,0.103,0.037,-0.027,0.024,0.084,0.035
-0.019,-0.067,-0.049,0.043,0.015,-0.058,0.083,-0.01,-0.079,-0.023,0.048,0.016
-0.015,-0.081,-0.065,0.048,0.025,-0.073,0.062,-0.043,-0.116,-0.051,0.037,0.008
-0.01,-0.081,-0.071,0.046,0.031,-0.076,0.046,-0.065,-0.138,-0.066,0.031,0.0
-0.024,-0.08,-0.056,0.052,0.016,-0.067,0.044,-0.069,-0.143,-0.076,0.024,-0.011
-0.032,-0.08,-0.048,0.056,0.008,-0.064,0.041,-0.06,-0.136,-0.074,0.018,-0.013
-0.004,-0.08,-0.076,0.042,0.036,-0.078,0.038,-0.055,-0.131,-0.087,0.011,-0.009
-0.012,-0.079,-0.067,0.046,0.028,-0.073,0.035,-0.047,-0.126,-0.09,0.014,-0.007
-0.051,-0.081,-0.03,0.067,-0.01,-0.055,0.033,-0.041,-0.119,-0.084,0.015,-0.004
-0.04,-0.085,-0.046,0.063,0.004,-0.065,0.03,-0.04,-0.117,-0.083,0.015,-0.001
-0.027,-0.084,-0.058,0.056,0.016,-0.071,0.03,-0.04,-0.118,-0.076,0.015,0.0
-0.038,-0.088,-0.05,0.063,0.006,-0.068,0.028,-0.04,-0.123,-0.075,0.015,-0.005
-0.051,-0.09,-0.039,0.071,-0.006,-0.064,0.024,-0.04,-0.124,-0.075,0.014,-0.005
-0.032,-0.09,-0.058,0.061,0.013,-0.074,0.025,-0.041,-0.13,-0.076,0.009,-0.006
-0.011,-0.093,-0.082,0.052,0.036,-0.087,0.021,-0.048,-0.138,-0.074,0.01,-0.01
-0.028,-0.097,-0.069,0.063,0.021,-0.083,0.014,-0.054,-0.13,-0.079,0.007,-0.01
-0.035,-0.1,-0.065,0.067,0.015,-0.082,0.007,-0.06,-0.144,-0.091,0.004,-0.012
-0.043,-0.101,-0.058,0.072,0.008,-0.079,0.001,-0.069,-0.167,-0.095,0.005,-0.016
-0.056,-0.104,-0.049,0.08,-0.003,-0.076,-0.007,-0.077,-0.169,-0.098,0.001,-0.018
-0.043,-0.105,-0.062,0.074,0.01,-0.083,-0.009,-0.087,-0.174,-0.103,-0.003,-0.021
-0.031,-0.109,-0.078,0.07,0.024,-0.093,-0.005,-0.101,-0.178,-0.105,-0.006,-0.024
-0.039,-0.11,-0.071,0.075,0.016,-0.09,-0.006,-0.111,-0.18,-0.1,-0.009,-0.025
-0.042,-0.112,-0.07,0.077,0.014,-0.091,-0.003,-0.114,-0.18,-0.1,-0.014,-0.025
-0.048,-0.115,-0.067,0.082,0.01,-0.091,0.0,-0.115,-0.18,-0.1,-0.014,-0.025
-0.055,-0.116,-0.062,0.086,0.004,-0.089,0.0,-0.115,-0.18,-0.1,-0.009,-0.025
-0.044,-0.12,-0.076,0.082,0.016,-0.098,-0.003,-0.115,-0.179,-0.1,-0.003,-0.025
-0.033,-0.12,-0.087,0.077,0.027,-0.103,-0.012,-0.115,-0.176,-0.1,0.0,-0.025
-0.039,-0.12,-0.081,0.08,0.021,-0.1,-0.014,-0.114,-0.173,-0.101,0.005,-0.023
-0.066,-0.12,-0.054,0.093,-0.006,-0.086,-0.01,-0.117,-0.171,-0.098,0.01,-0.019
-0.054,-0.12,-0.066,0.088,0.006,-0.093,-0.006,-0.123,-0.167,-0.102,0.006,-0.02
-0.023,-0.115,-0.093,0.069,0.035,-0.104,-0.003,-0.118,-0.166,-0.104,0.001,-0.02
-0.023,-0.108,-0.084,0.066,0.031,-0.096,0.003,-0.11,-0.163,-0.097,-0.004,-0.02
-0.02,-0.099,-0.078,0.059,0.029,-0.088,0.004,-0.104,-0.154,-0.092,-0.004,-0.02
-0.013,-0.092,-0.078,0.053,0.033,-0.085,0.017,-0.096,-0.144,-0.086,-0.001,-0.014
-0.02,-0.082,-0.062,0.052,0.021,-0.072,0.036,-0.098,-0.137,-0.08,0.005,-0.009
-0.017,-0.062,-0.044,0.04,0.014,-0.053,0.025,-0.101,-0.138,-0.065,0.012,-0.003
0.019,-0.025,-0.044,0.004,0.031,-0.034,0.007,-0.099,-0.142,-0.058,0.023,0.004
0.041,0.016,-0.025,-0.029,0.033,-0.004,-0.004,-0.102,-0.145,-0.059,0.04,0.016
0.036,0.0,-0.036,-0.017,0.036,-0.018,-0.007,-0.098,-0.146,-0.06,0.036,0.028
0.017,-0.031,-0.048,0.008,0.033,-0.04,-0.009,-0.104,-0.152,-0.06,0.029,0.019
0.006,-0.061,-0.067,0.027,0.037,-0.063,-0.016,-0.102,-0.149,-0.064,0.024,-0.003
-0.026,-0.112,-0.087,0.069,0.031,-0.099,-0.011,-0.12,-0.177,-0.098,0.008,-0.019
-0.054,-0.127,-0.073,0.09,0.01,-0.1,-0.014,-0.127,-0.184,-0.11,-0.006,-0.031
-0.055,-0.147,-0.091,0.101,0.018,-0.119,-0.005,-0.121,-0.189,-0.111,-0.022,-0.042
-0.057,-0.133,-0.076,0.096,0.01,-0.104,-0.016,-0.132,-0.197,-0.108,-0.026,-0.037
-0.058,-0.153,-0.096,0.106,0.019,-0.124,-0.004,-0.114,-0.187,-0.111,-0.036,-0.047
-0.062,-0.141,-0.079,0.101,0.009,-0.109,-0.016,-0.141,-0.209,-0.11,-0.026,-0.042
-0.063,-0.163,-0.1,0.113,0.019,-0.131,0.002,-0.096,-0.176,-0.118,-0.033,-0.053
-0.159,-0.233,-0.074,0.196,-0.042,-0.153,0.225,0.07,-0.266,-0.216,-0.122,-0.126
-0.156,-0.11,0.046,0.133,-0.101,-0.031,0.537,0.533,-0.063,-0.155,-0.109,-0.143
0.305,0.481,0.176,-0.394,0.065,0.328,0.051,0.138,0.735,0.64,0.557,0.331
1.026,1.338,0.312,-1.183,0.357,0.825,-1.337,-1.328,1.88,1.865,1.606,1.1
0.917,0.841,-0.075,-0.879,0.496,0.383,-1.704,-1.823,1.393,1.443,1.346,0.959
0.104,-0.118,-0.222,0.007,0.163,-0.17,-1.124,-1.481,-0.609,-0.071,0.233,0.274
-0.137,-0.154,-0.017,0.146,-0.06,-0.086,-0.549,-0.659,-0.704,-0.329,-0.071,0.022
-0.072,-0.166,-0.094,0.119,0.011,-0.13,-0.012,0.038,-0.173,-0.138,-0.025,-0.03
-0.076,-0.153,-0.077,0.115,0.001,-0.115,0.095,0.064,-0.237,-0.157,-0.037,-0.031
-0.057,-0.139,-0.082,0.098,0.013,-0.11,0.117,0.107,-0.125,-0.117,-0.021,-0.036
-0.063,-0.145,-0.082,0.104,0.01,-0.113,0.147,0.107,-0.158,-0.123,-0.028,-0.043
-0.045,-0.121,-0.075,0.083,0.015,-0.098,0.152,0.119,-0.107,-0.094,-0.017,-0.034
-0.045,-0.13,-0.085,0.087,0.021,-0.107,0.17,0.135,-0.1,-0.088,-0.018,-0.037
-0.035,-0.11,-0.075,0.073,0.02,-0.092,0.164,0.151,-0.065,-0.056,-0.003,-0.029
-0.024,-0.108,-0.084,0.066,0.031,-0.096,0.185,0.181,-0.038,-0.04,0.004,-0.031
-0.011,-0.087,-0.076,0.05,0.032,-0.081,0.186,0.197,-0.026,-0.027,0.016,-0.022
-0.001,-0.077,-0.076,0.04,0.038,-0.076,0.206,0.255,0.024,-0.006,0.04,-0.015
0.009,-0.061,-0.07,0.026,0.04,-0.065,0.223,0.308,0.044,0.01,0.06,-0.007
0.019,-0.048,-0.067,0.015,0.044,-0.057,0.259,0.383,0.1,0.043,0.07,0.001
0.03,-0.034,-0.065,0.002,0.048,-0.049,0.3,0.474,0.155,0.067,0.08,0.01
0.038,-0.019,-0.057,-0.009,0.048,-0.038,0.344,0.579,0.228,0.122,0.119,0.034
0.065,-0.004,-0.069,-0.03,0.067,-0.036,0.382,0.678,0.302,0.17,0.152,0.048
0.133,0.03,-0.102,-0.081,0.117,-0.036,0.396,0.74,0.367,0.215,0.189,0.067
0.159,0.055,-0.104,-0.107,0.132,-0.024,0.402,0.772,0.425,0.261,0.222,0.093
0.169,0.073,-0.097,-0.121,0.133,-0.012,0.391,0.766,0.44,0.289,0.245,0.114
0.187,0.09,-0.097,-0.138,0.142,-0.004,0.371,0.709,0.43,0.299,0.265,0.13
0.143,0.085,-0.058,-0.114,0.1,0.014,0.329,0.605,0.411,0.292,0.256,0.136
0.102,0.075,-0.027,-0.089,0.064,0.024,0.272,0.456,0.349,0.27,0.242,0.13
0.086,0.064,-0.023,-0.075,0.054,0.02,0.224,0.295,0.239,0.201,0.207,0.103
0.052,0.035,-0.017,-0.043,0.034,0.009,0.186,0.149,0.122,0.132,0.159,0.066
0.006,-0.001,-0.007,-0.002,0.006,-0.004,0.154,0.051,0.04,0.084,0.112,0.042
-0.022,-0.037,-0.015,0.03,-0.003,-0.026,0.134,-0.003,-0.031,0.031,0.072,0.027
-0.013,-0.063,-0.05,0.038,0.019,-0.057,0.122,-0.046,-0.071,-0.013,0.048,0.012
-0.018,-0.074,-0.056,0.047,0.019,-0.065,0.103,-0.074,-0.096,-0.039,0.029,0.004
-0.034,-0.088,-0.054,0.062,0.01,-0.071,0.082,-0.09,-0.122,-0.051,0.025,-0.002
-0.036,-0.092,-0.056,0.065,0.01,-0.074,0.072,-0.09,-0.124,-0.053,0.023,-0.01
-0.035,-0.089,-0.054,0.063,0.009,-0.071,0.068,-0.085,-0.125,-0.05,0.02,-0.017
-0.034,-0.09,-0.056,0.063,0.011,-0.072,0.062,-0.083,-0.125,-0.05,0.017,-0.024
-0.032,-0.085,-0.053,0.059,0.011,-0.068,0.056,-0.078,-0.125,-0.05,0.014,-0.03
-0.038,-0.085,-0.047,0.062,0.005,-0.066,0.051,-0.075,-0.125,-0.05,0.012,-0.03
-0.041,-0.084,-0.043,0.063,0.001,-0.063,0.046,-0.072,-0.128,-0.051,0.007,-0.03
-0.041,-0.08,-0.038,0.061,-0.001,-0.059,0.039,-0.069,-0.131,-0.054,0.005,-0.03
-0.046,-0.08,-0.034,0.064,-0.006,-0.057,0.032,-0.069,-0.134,-0.055,0.0,-0.03
-0.05,-0.08,-0.03,0.065,-0.01,-0.055,0.026,-0.063,-0.137,-0.055,-0.004,-0.033
-0.059,-0.08,-0.021,0.07,-0.019,-0.05,0.019,-0.069,-0.139,-0.057,-0.006,-0.035
-0.05,-0.08,-0.03,0.065,-0.01,-0.054,0.013,-0.092,-0.142,-0.075,-0.012,-0.035
-0.038,-0.084,-0.046,0.061,0.004,-0.064,0.01,-0.098,-0.144,-0.087,-0.018,-0.035
-0.071,-0.091,-0.02,0.081,-0.025,-0.055,0.008,-0.1,-0.148,-0.084,-0.024,-0.035
-0.088,-0.097,-0.008,0.093,-0.04,-0.052,0.005,-0.113,-0.149,-0.086,-0.029,-0.035
-0.055,-0.1,-0.046,0.078,-0.004,-0.072,0.001,-0.133,-0.157,-0.085,-0.032,-0.04
-0.043,-0.1,-0.057,0.072,0.007,-0.078,0.0,-0.146,-0.167,-0.085,-0.037,-0.04
-0.052,-0.1,-0.048,0.076,-0.002,-0.074,-0.004,-0.147,-0.164,-0.091,-0.04,-0.042
-0.054,-0.1,-0.046,0.078,-0.004,-0.072,-0.005,-0.15,-0.163,-0.096,-0.04,-0.053
-0.06,-0.1,-0.04,0.08,-0.01,-0.07,-0.005,-0.153,-0.159,-0.099,-0.04,-0.06
-0.06,-0.102,-0.042,0.081,-0.008,-0.072,-0.005,-0.155,-0.16,-0.1,-0.04,-0.06
-0.054,-0.101,-0.046,0.078,-0.004,-0.073,-0.005,-0.151,-0.16,-0.1,-0.04,-0.06
-0.064,-0.097,-0.033,0.081,-0.016,-0.065,-0.006,-0.149,-0.159,-0.099,-0.044,-0.06
-0.068,-0.095,-0.027,0.082,-0.02,-0.061,-0.015,-0.15,-0.161,-0.101,-0.045,-0.06
-0.059,-0.091,-0.032,0.075,-0.013,-0.061,-0.032,-0.145,-0.158,-0.105,-0.046,-0.058
-0.065,-0.091,-0.026,0.078,-0.02,-0.058,-0.032,-0.145,-0.171,-0.101,-0.05,-0.055
-0.056,-0.083,-0.027,0.07,-0.014,-0.055,-0.024,-0.143,-0.171,-0.095,-0.051,-0.052
-0.056,-0.068,-0.013,0.062,-0.021,-0.04,-0.014,-0.131,-0.154,-0.09,-0.048,-0.049
-0.047,-0.054,-0.007,0.051,-0.02,-0.03,0.005,-0.127,-0.147,-0.083,-0.036,-0.045
-0.022,-0.029,-0.007,0.025,-0.007,-0.017,0.016,-0.132,-0.142,-0.081,-0.02,-0.045
-0.011,0.006,0.017,0.002,-0.014,0.011,0.005,-0.128,-0.144,-0.085,-0.011,-0.049
-0.016,0.04,0.056,-0.012,-0.036,0.047,-0.019,-0.132,-0.146,-0.086,-0.009,-0.052
-0.029,0.029,0.058,-0.001,-0.044,0.043,-0.037,-0.129,-0.143,-0.083,-0.01,-0.054
-0.036,0.003,0.039,0.016,-0.037,0.02,-0.04,-0.131,-0.147,-0.087,-0.01,-0.058
-0.062,-0.026,0.036,0.044,-0.049,0.005,-0.042,-0.137,-0.143,-0.082,-0.011,-0.059
-0.098,-0.077,0.02,0.087,-0.059,-0.028,-0.037,-0.143,-0.156,-0.095,-0.042,-0.065
-0.116,-0.086,0.03,0.101,-0.073,-0.028,-0.044,-0.17,-0.184,-0.116,-0.063,-0.077
-0.126,-0.113,0.013,0.12,-0.07,-0.05,-0.036,-0.157,-0.18,-0.133,-0.076,-0.083
-0.127,-0.113,0.014,0.119,-0.07,-0.049,-0.037,-0.175,-0.202,-0.155,-0.094,-0.086
-0.127,-0.127,0.0,0.127,-0.063,-0.063,-0.028,-0.154,-0.175,-0.145,-0.089,-0.088
-0.127,-0.135,-0.007,0.131,-0.06,-0.07,-0.02,-0.174,-0.206,-0.157,-0.102,-0.095
-0.103,-0.112,-0.008,0.108,-0.047,-0.06,-0.027,-0.159,-0.175,-0.14,-0.091,-0.091
-0.168,-0.198,-0.031,0.183,-0.068,-0.114,0.121,-0.037,-0.21,-0.184,-0.135,-0.131
-0.247,-0.167,0.081,0.207,-0.164,-0.043,0.436,0.314,-0.201,-0.253,-0.222,-0.222
0.069,0.231,0.162,-0.15,-0.046,0.196,0.321,0.453,0.415,0.254,0.178,0.049
0.798,1.155,0.357,-0.977,0.221,0.755,-0.872,-0.774,1.703,1.594,1.288,0.843
0.957,1.134,0.177,-1.046,0.39,0.655,-1.606,-1.762,2.108,1.898,1.571,1.052
0.221,0.105,-0.115,-0.163,0.168,-0.005,-1.186,-1.613,0.043,0.331,0.459,0.383
-0.224,-0.154,0.071,0.189,-0.147,-0.041,-0.724,-0.994,-0.961,-0.445,-0.158,-0.037
-0.19,-0.136,0.055,0.163,-0.122,-0.04,-0.202,-0.155,-0.243,-0.191,-0.091,-0.085
-0.16,-0.129,0.03,0.144,-0.095,-0.049,0.053,0.067,-0.239,-0.178,-0.097,-0.094
-0.111,-0.076,0.035,0.093,-0.072,-0.02,0.07,0.079,-0.157,-0.128,-0.079,-0.085
-0.099,-0.094,0.005,0.096,-0.052,-0.044,0.115,0.105,-0.131,-0.127,-0.08,-0.087
-0.086,-0.068,0.018,0.077,-0.052,-0.025,0.107,0.086,-0.121,-0.117,-0.072,-0.084
-0.07,-0.08,-0.01,0.075,-0.03,-0.045,0.134,0.112,-0.065,-0.096,-0.067,-0.084
-0.058,-0.065,-0.006,0.062,-0.026,-0.035,0.126,0.101,-0.072,-0.092,-0.062,-0.079
-0.054,-0.066,-0.012,0.061,-0.021,-0.039,0.139,0.133,-0.017,-0.067,-0.054,-0.081
-0.059,-0.058,0.002,0.059,-0.03,-0.028,0.151,0.15,-0.014,-0.056,-0.045,-0.076
-0.052,-0.048,0.005,0.05,-0.028,-0.021,0.172,0.198,0.048,-0.019,-0.024,-0.071
-0.054,-0.042,0.013,0.048,-0.033,-0.014,0.188,0.239,0.068,-0.001,-0.015,-0.068
-0.049,-0.029,0.019,0.039,-0.034,-0.005,0.2,0.288,0.111,0.012,0.008,-0.062
-0.03,-0.014,0.016,0.022,-0.023,0.001,0.243,0.375,0.179,0.053,0.025,-0.058
0.0,0.015,0.014,-0.008,-0.007,0.014,0.276,0.458,0.235,0.089,0.045,-0.036
0.026,0.037,0.01,-0.031,0.008,0.023,0.318,0.556,0.325,0.143,0.084,-0.008
0.048,0.057,0.009,-0.052,0.019,0.033,0.367,0.642,0.409,0.209,0.122,0.012
0.081,0.085,0.004,-0.084,0.039,0.044,0.38,0.685,0.477,0.245,0.156,0.032
0.101,0.111,0.01,-0.107,0.046,0.06,0.373,0.687,0.508,0.291,0.185,0.048
0.097,0.119,0.021,-0.108,0.038,0.07,0.362,0.652,0.493,0.301,0.191,0.052
0.094,0.114,0.02,-0.104,0.037,0.066,0.327,0.571,0.477,0.285,0.188,0.046
0.082,0.105,0.023,-0.093,0.029,0.064,0.279,0.444,0.413,0.264,0.181,0.043
0.041,0.101,0.059,-0.071,-0.009,0.08,0.225,0.287,0.294,0.198,0.144,0.038
0.002,0.085,0.083,-0.043,-0.041,0.084,0.18,0.133,0.168,0.124,0.093,0.005
-0.032,0.045,0.077,-0.007,-0.055,0.061,0.14,0.026,0.068,0.052,0.042,-0.028
-0.067,0.009,0.076,0.029,-0.072,0.042,0.103,-0.052,0.0,0.0,0.009,-0.047
-0.088,-0.016,0.072,0.052,-0.08,0.028,0.082,-0.105,-0.058,-0.032,-0.017,-0.065
-0.098,-0.028,0.07,0.063,-0.084,0.021,0.063,-0.124,-0.089,-0.066,-0.047,-0.071
-0.103,-0.035,0.068,0.069,-0.085,0.016,0.048,-0.141,-0.103,-0.081,-0.061,-0.083
-0.108,-0.043,0.064,0.075,-0.086,0.01,0.035,-0.141,-0.104,-0.084,-0.065,-0.096
-0.105,-0.043,0.062,0.073,-0.083,0.01,0.029,-0.124,-0.096,-0.088,-0.064,-0.095
-0.097,-0.039,0.059,0.068,-0.078,0.01,0.031,-0.113,-0.093,-0.09,-0.07,-0.095
-0.09,-0.035,0.056,0.062,-0.073,0.011,0.027,-0.11,-0.085,-0.09,-0.076,-0.095
-0.086,-0.032,0.054,0.059,-0.07,0.011,0.025,-0.11,-0.082,-0.09,-0.075,-0.094
-0.093,-0.027,0.066,0.06,-0.079,0.019,0.025,-0.107,-0.083,-0.09,-0.075,-0.098
-0.101,-0.026,0.075,0.063,-0.088,0.025,0.022,-0.105,-0.087,-0.089,-0.075,-0.1
-0.112,-0.038,0.075,0.075,-0.094,0.018,0.016,-0.106,-0.089,-0.091,-0.075,-0.102
-0.116,-0.041,0.075,0.078,-0.095,0.016,0.011,-0.115,-0.092,-0.088,-0.076,-0.105
-0.115,-0.039,0.075,0.076,-0.095,0.018,0.007,-0.124,-0.103,-0.086,-0.081,-0.106
-0.115,-0.041,0.075,0.077,-0.095,0.016,0.003,-0.132,-0.099,-0.083,-0.086,-0.109
-0.113,-0.04,0.073,0.076,-0.093,0.017,-0.002,-0.143,-0.113,-0.098,-0.089,-0.11
-0.108,-0.04,0.069,0.074,-0.088,0.015,-0.005,-0.161,-0.132,-0.128,-0.096,-0.113
-0.111,-0.044,0.067,0.077,-0.089,0.012,-0.005,-0.173,-0.138,-0.131,-0.103,-0.115
-0.114,-0.05,0.064,0.082,-0.089,0.006,-0.007,-0.169,-0.153,-0.129,-0.1,-0.117
-0.111,-0.051,0.06,0.081,-0.085,0.005,-0.011,-0.176,-0.155,-0.13,-0.1,-0.121
-0.11,-0.048,0.061,0.079,-0.085,0.006,-0.009,-0.186,-0.155,-0.13,-0.1,-0.123
-0.105,-0.055,0.05,0.08,-0.077,-0.003,-0.017,-0.185,-0.155,-0.129,-0.1,-0.126
-0.126,-0.058,0.068,0.092,-0.097,0.005,-0.033,-0.183,-0.155,-0.124,-0.1,-0.129
-0.138,-0.056,0.082,0.097,-0.11,0.013,-0.042,-0.196,-0.156,-0.119,-0.097,-0.13
-0.114,-0.046,0.068,0.079,-0.09,0.011,-0.036,-0.201,-0.146,-0.115,-0.093,-0.125
-0.087,-0.046,0.041,0.066,-0.064,-0.002,-0.024,-0.189,-0.133,-0.11,-0.089,-0.118
-0.101,-0.029,0.072,0.065,-0.087,0.022,-0.016,-0.187,-0.122,-0.105,-0.086,-0.113
-0.105,0.012,0.117,0.046,-0.111,0.064,-0.008,-0.192,-0.116,-0.101,-0.08,-0.107
-0.068,0.029,0.096,0.019,-0.082,0.062,-0.007,-0.187,-0.11,-0.089,-0.081,-0.105
-0.063,0.071,0.133,-0.004,-0.098,0.102,-0.036,-0.192,-0.115,-0.085,-0.085,-0.105
-0.063,0.081,0.143,-0.009,-0.103,0.112,-0.057,-0.188,-0.117,-0.085,-0.085,-0.105
-0.069,0.043,0.112,0.013,-0.091,0.077,-0.053,-0.192,-0.121,-0.085,-0.09,-0.105
-0.095,0.019,0.114,0.038,-0.105,0.066,-0.058,-0.214,-0.126,-0.103,-0.089,-0.105
-0.123,-0.03,0.094,0.076,-0.109,0.032,-0.052,-0.209,-0.124,-0.112,-0.101,-0.121
-0.147,-0.049,0.098,0.098,-0.122,0.024,-0.058,-0.235,-0.145,-0.126,-0.116,-0.129
-0.155,-0.074,0.081,0.114,-0.118,0.003,-0.051,-0.227,-0.136,-0.142,-0.129,-0.141
-0.157,-0.075,0.082,0.116,-0.119,0.003,-0.05,-0.25,-0.166,-0.153,-0.137,-0.151
-0.149,-0.073,0.076,0.111,-0.112,0.002,-0.041,-0.246,-0.152,-0.146,-0.132,-0.148
-0.152,-0.089,0.063,0.121,-0.108,-0.013,-0.03,-0.251,-0.174,-0.156,-0.14,-0.153
-0.145,-0.063,0.082,0.104,-0.113,0.009,-0.041,-0.234,-0.145,-0.145,-0.126,-0.143
-0.168,-0.135,0.033,0.151,-0.1,-0.051,0.072,-0.119,-0.168,-0.195,-0.182,-0.199
-0.26,-0.127,0.133,0.194,-0.197,0.003,0.393,0.206,-0.202,-0.291,-0.29,-0.294
-0.05,0.24,0.29,-0.095,-0.17,0.265,0.347,0.404,0.395,0.181,0.08,-0.055
0.632,1.145,0.513,-0.889,0.059,0.829,-0.865,-0.788,1.748,1.543,1.188,0.715
0.861,1.241,0.38,-1.051,0.24,0.811,-1.681,-1.836,2.361,2.022,1.59,1.006
0.2,0.235,0.035,-0.217,0.082,0.135,-1.272,-1.686,0.288,0.478,0.523,0.376
-0.234,-0.107,0.126,0.17,-0.18,0.009,-0.812,-1.142,-1.004,-0.474,-0.206,-0.084
-0.196,-0.084,0.112,0.14,-0.153,0.013,-0.282,-0.303,-0.257,-0.222,-0.148,-0.147
-0.197,-0.102,0.094,0.149,-0.145,-0.004,0.01,-0.004,-0.19,-0.19,-0.132,-0.153
-0.173,-0.064,0.109,0.118,-0.141,0.023,0.031,-0.011,-0.128,-0.145,-0.121,-0.147
-0.16,-0.079,0.081,0.119,-0.12,0.0,0.092,0.022,-0.082,-0.13,-0.122,-0.157
-0.147,-0.049,0.097,0.098,-0.122,0.024,0.089,0.006,-0.079,-0.126,-0.119,-0.154
-0.126,-0.056,0.07,0.091,-0.098,0.007,0.099,0.033,-0.01,-0.095,-0.114,-0.155
-0.117,-0.038,0.079,0.077,-0.098,0.021,0.093,0.029,-0.02,-0.09,-0.116,-0.147
-0.093,-0.032,0.061,0.062,-0.076,0.014,0.094,0.055,0.03,-0.066,-0.1,-0.14
-0.099,-0.019,0.08,0.058,-0.089,0.03,0.102,0.072,0.029,-0.063,-0.09,-0.135
-0.112,-0.005,0.106,0.058,-0.109,0.05,0.12,0.115,0.086,-0.035,-0.075,-0.127
-0.095,0.004,0.099,0.045,-0.097,0.051,0.144,0.159,0.118,-0.012,-0.065,-0.121
-0.078,0.019,0.097,0.029,-0.088,0.058,0.174,0.225,0.181,0.028,-0.037,-0.109
-0.065,0.026,0.09,0.019,-0.078,0.058,0.209,0.308,0.238,0.063,-0.012,-0.101
-0.036,0.052,0.088,-0.008,-0.062,0.07,0.245,0.392,0.301,0.088,0.009,-0.088
-0.009,0.072,0.081,-0.032,-0.045,0.076,0.31,0.5,0.405,0.147,0.045,-0.066
0.02,0.095,0.075,-0.058,-0.027,0.085,0.363,0.587,0.494,0.215,0.075,-0.038
0.054,0.128,0.075,-0.092,-0.011,0.101,0.374,0.64,0.575,0.275,0.118,-0.017
0.055,0.14,0.085,-0.098,-0.015,0.112,0.381,0.651,0.622,0.318,0.156,-0.01
0.037,0.145,0.108,-0.091,-0.036,0.126,0.366,0.625,0.618,0.322,0.16,-0.007
0.076,0.156,0.081,-0.116,-0.003,0.118,0.318,0.542,0.582,0.306,0.147,-0.004
0.065,0.143,0.078,-0.105,-0.006,0.11,0.269,0.401,0.5,0.269,0.134,0.002
0.001,0.115,0.114,-0.058,-0.057,0.114,0.222,0.249,0.361,0.203,0.097,-0.014
-0.025,0.092,0.116,-0.034,-0.071,0.104,0.172,0.102,0.216,0.117,0.042,-0.045
-0.059,0.069,0.128,-0.005,-0.094,0.098,0.125,-0.021,0.1,0.045,0.0,-0.07
-0.081,0.044,0.125,0.018,-0.103,0.084,0.086,-0.102,0.021,-0.007,-0.039,-0.091
-0.112,0.005,0.117,0.053,-0.115,0.061,0.05,-0.156,-0.027,-0.058,-0.08,-0.11
-0.132,-0.019,0.114,0.075,-0.123,0.047,0.03,-0.181,-0.06,-0.078,-0.09,-0.123
-0.123,-0.017,0.107,0.07,-0.115,0.045,0.018,-0.184,-0.077,-0.084,-0.094,-0.128
-0.118,-0.015,0.103,0.066,-0.11,0.044,0.01,-0.183,-0.089,-0.096,-0.114,-0.134
-0.112,-0.015,0.097,0.063,-0.104,0.041,0.01,-0.178,-0.085,-0.092,-0.12,-0.135
-0.105,-0.011,0.094,0.058,-0.099,0.041,0.01,-0.173,-0.075,-0.085,-0.12,-0.135
-0.1,-0.01,0.09,0.055,-0.095,0.04,0.01,-0.171,-0.068,-0.082,-0.12,-0.14
-0.129,-0.01,0.119,0.069,-0.124,0.054,0.01,-0.174,-0.061,-0.074,-0.12,-0.14
-0.142,-0.005,0.136,0.073,-0.139,0.065,0.009,-0.175,-0.065,-0.071,-0.12,-0.141
-0.131,-0.005,0.126,0.068,-0.128,0.06,0.005,-0.176,-0.07,-0.083,-0.12,-0.145
-0.127,-0.005,0.122,0.066,-0.124,0.058,-0.003,-0.181,-0.073,-0.096,-0.12,-0.145
-0.118,-0.005,0.114,0.061,-0.116,0.054,-0.008,-0.179,-0.079,-0.102,-0.119,-0.145
-0.113,-0.005,0.108,0.059,-0.11,0.051,-0.017,-0.183,-0.083,-0.109,-0.121,-0.145
-0.109,-0.007,0.103,0.058,-0.106,0.048,-0.021,-0.193,-0.095,-0.113,-0.119,-0.145
-0.108,-0.011,0.097,0.059,-0.103,0.043,-0.03,-0.2,-0.123,-0.116,-0.123,-0.149
-0.102,-0.009,0.093,0.056,-0.097,0.041,-0.042,-0.203,-0.125,-0.119,-0.138,-0.156
-0.099,-0.01,0.088,0.054,-0.094,0.039,-0.038,-0.208,-0.126,-0.122,-0.141,-0.16
-0.099,-0.015,0.084,0.057,-0.091,0.034,-0.052,-0.217,-0.138,-0.128,-0.139,-0.16
-0.094,-0.014,0.08,0.054,-0.086,0.033,-0.061,-0.221,-0.135,-0.134,-0.141,-0.16
-0.105,-0.024,0.081,0.064,-0.092,0.028,-0.053,-0.222,-0.136,-0.135,-0.139,-0.16
-0.098,-0.024,0.074,0.061,-0.086,0.024,-0.05,-0.225,-0.13,-0.129,-0.135,-0.16
-0.071,0.0,0.072,0.035,-0.072,0.036,-0.044,-0.216,-0.131,-0.124,-0.135,-0.156
-0.076,0.041,0.116,0.017,-0.096,0.078,-0.049,-0.212,-0.122,-0.12,-0.134,-0.145
-0.097,0.06,0.158,0.018,-0.128,0.109,-0.049,-0.216,-0.105,-0.115,-0.136,-0.135
-0.069,0.078,0.147,-0.005,-0.109,0.113,-0.057,-0.213,-0.103,-0.112,-0.124,-0.125
-0.014,0.126,0.14,-0.056,-0.078,0.133,-0.077,-0.22,-0.108,-0.109,-0.098,-0.117
-0.022,0.115,0.137,-0.047,-0.08,0.125,-0.074,-0.218,-0.107,-0.11,-0.095,-0.116
-0.055,0.074,0.129,-0.01,-0.092,0.101,-0.075,-0.221,-0.113,-0.11,-0.101,-0.108
-0.07,0.038,0.108,0.016,-0.089,0.073,-0.076,-0.226,-0.123,-0.11,-0.125,-0.126
-0.099,-0.009,0.089,0.054,-0.094,0.04,-0.073,-0.238,-0.157,-0.143,-0.159,-0.16
-0.117,-0.026,0.091,0.071,-0.104,0.032,-0.081,-0.244,-0.175,-0.166,-0.164,-0.164
-0.12,-0.049,0.071,0.084,-0.096,0.011,-0.076,-0.233,-0.171,-0.164,-0.166,-0.166
-0.112,-0.031,0.081,0.071,-0.097,0.025,-0.086,-0.251,-0.185,-0.167,-0.164,-0.164
-0.097,-0.046,0.051,0.071,-0.074,0.003,-0.073,-0.225,-0.165,-0.168,-0.174,-0.171
-0.106,-0.027,0.079,0.066,-0.092,0.026,-0.086,-0.259,-0.202,-0.174,-0.183,-0.18
-0.094,-0.046,0.048,0.07,-0.071,0.001,-0.047,-0.205,-0.153,-0.167,-0.186,-0.185
-0.177,-0.12,0.057,0.148,-0.117,-0.031,0.159,-0.035,-0.252,-0.259,-0.277,-0.255
-0.21,0.0,0.21,0.105,-0.21,0.105,0.482,0.371,-0.119,-0.249,-0.291,-0.293
0.221,0.586,0.365,-0.404,-0.072,0.475,0.007,0.137,0.822,0.592,0.371,0.152
0.849,1.433,0.584,-1.141,0.132,1.008,-1.423,-1.283,2.241,1.98,1.475,0.899
0.735,0.984,0.249,-0.86,0.242,0.617,-1.764,-1.887,1.882,1.676,1.323,0.846
0.034,0.024,-0.01,-0.029,0.022,0.007,-1.205,-1.577,-0.523,-0.049,0.132,0.165
-0.209,-0.082,0.127,0.145,-0.167,0.022,-0.711,-0.874,-0.854,-0.466,-0.272,-0.143
-0.146,-0.07,0.076,0.108,-0.111,0.003,-0.161,-0.113,-0.155,-0.192,-0.188,-0.155
-0.131,-0.045,0.086,0.088,-0.108,0.021,-0.012,-0.005,-0.233,-0.221,-0.206,-0.16
-0.11,-0.04,0.07,0.075,-0.09,0.015,0.014,0.017,-0.105,-0.177,-0.181,-0.16
-0.115,-0.041,0.074,0.078,-0.094,0.016,0.048,0.02,-0.142,-0.172,-0.183,-0.16
-0.104,-0.026,0.079,0.065,-0.091,0.026,0.042,0.022,-0.085,-0.136,-0.169,-0.16
-0.099,-0.029,0.07,0.064,-0.084,0.02,0.061,0.045,-0.061,-0.127,-0.164,-0.16
-0.086,-0.005,0.08,0.045,-0.083,0.037,0.056,0.043,-0.038,-0.12,-0.158,-0.16
-0.073,-0.004,0.069,0.038,-0.071,0.032,0.071,0.076,0.001,-0.092,-0.147,-0.159
-0.065,0.008,0.073,0.029,-0.069,0.04,0.077,0.096,0.01,-0.071,-0.138,-0.15
-0.047,0.021,0.068,0.013,-0.058,0.045,0.088,0.136,0.06,-0.055,-0.122,-0.14
-0.036,0.033,0.068,0.001,-0.052,0.051,0.122,0.197,0.096,-0.033,-0.101,-0.128
-0.02,0.044,0.064,-0.013,-0.042,0.054,0.16,0.275,0.168,0.011,-0.076,-0.113
0.007,0.071,0.065,-0.039,-0.029,0.068,0.192,0.351,0.22,0.05,-0.059,-0.1
0.018,0.088,0.071,-0.054,-0.027,0.079,0.246,0.453,0.309,0.095,-0.026,-0.083
0.031,0.109,0.078,-0.07,-0.024,0.093,0.296,0.554,0.403,0.141,0.015,-0.067
0.054,0.135,0.081,-0.095,-0.014,0.108,0.339,0.637,0.501,0.209,0.059,-0.048
0.08,0.166,0.086,-0.123,-0.003,0.126,0.345,0.664,0.572,0.265,0.098,-0.027
0.093,0.182,0.089,-0.137,0.002,0.135,0.333,0.642,0.577,0.288,0.111,-0.011
0.09,0.182,0.091,-0.136,-0.001,0.136,0.317,0.602,0.574,0.297,0.104,-0.005
0.092,0.18,0.088,-0.136,0.002,0.134,0.268,0.489,0.533,0.285,0.1,0.001
0.071,0.165,0.093,-0.118,-0.011,0.129,0.203,0.332,0.411,0.236,0.092,0.004
0.04,0.149,0.109,-0.095,-0.035,0.129,0.125,0.165,0.263,0.15,0.048,-0.026
0.017,0.121,0.104,-0.069,-0.044,0.112,0.073,0.033,0.129,0.07,-0.004,-0.056
-0.018,0.08,0.098,-0.031,-0.059,0.089,0.04,-0.055,0.02,0.0,-0.047,-0.083
-0.05,0.043,0.093,0.003,-0.072,0.068,-0.001,-0.125,-0.053,-0.059,-0.084,-0.104
-0.062,0.024,0.086,0.018,-0.074,0.055,-0.027,-0.152,-0.095,-0.087,-0.102,-0.106
-0.079,0.009,0.088,0.035,-0.084,0.048,-0.051,-0.172,-0.131,-0.112,-0.127,-0.12
-0.091,-0.001,0.09,0.046,-0.09,0.044,-0.069,-0.186,-0.143,-0.122,-0.141,-0.126
-0.09,0.0,0.09,0.045,-0.09,0.045,-0.073,-0.177,-0.138,-0.119,-0.139,-0.124
-0.085,0.0,0.085,0.042,-0.085,0.042,-0.072,-0.168,-0.141,-0.121,-0.14,-0.125
-0.083,0.0,0.082,0.041,-0.082,0.041,-0.069,-0.158,-0.139,-0.119,-0.14,-0.125
-0.075,0.002,0.078,0.036,-0.077,0.04,-0.071,-0.147,-0.14,-0.12,-0.14,-0.125
-0.07,0.005,0.075,0.032,-0.073,0.04,-0.068,-0.145,-0.14,-0.122,-0.14,-0.126
-0.065,0.005,0.07,0.03,-0.068,0.037,-0.076,-0.145,-0.14,-0.125,-0.14,-0.13
-0.066,0.005,0.07,0.03,-0.068,0.037,-0.095,-0.142,-0.14,-0.128,-0.14,-0.13
-0.082,0.005,0.087,0.038,-0.085,0.046,-0.095,-0.139,-0.14,-0.131,-0.14,-0.13
-0.06,0.004,0.064,0.028,-0.063,0.034,-0.095,-0.142,-0.14,-0.134,-0.14,-0.13
-0.062,0.001,0.063,0.03,-0.063,0.032,-0.095,-0.162,-0.143,-0.136,-0.14,-0.13
-0.085,-0.002,0.083,0.043,-0.084,0.04,-0.095,-0.168,-0.153,-0.139,-0.14,-0.127
-0.072,-0.004,0.068,0.038,-0.07,0.032,-0.098,-0.171,-0.161,-0.143,-0.14,-0.124
-0.073,-0.009,0.065,0.041,-0.069,0.028,-0.102,-0.18,-0.168,-0.145,-0.14,-0.125
-0.067,-0.01,0.058,0.038,-0.063,0.024,-0.105,-0.184,-0.169,-0.15,-0.14,-0.125
-0.059,-0.009,0.049,0.034,-0.054,0.02,-0.099,-0.197,-0.179,-0.148,-0.14,-0.126
-0.043,0.003,0.046,0.019,-0.044,0.024,-0.097,-0.193,-0.183,-0.142,-0.141,-0.124
-0.025,0.012,0.037,0.007,-0.031,0.024,-0.092,-0.182,-0.169,-0.136,-0.133,-0.118
-0.037,0.023,0.06,0.007,-0.049,0.041,-0.09,-0.176,-0.16,-0.131,-0.125,-0.112
-0.052,0.051,0.102,0.0,-0.077,0.076,-0.084,-0.17,-0.15,-0.125,-0.117,-0.106
-0.053,0.06,0.113,-0.003,-0.083,0.086,-0.089,-0.169,-0.139,-0.12,-0.109,-0.101
-0.011,0.101,0.111,-0.045,-0.061,0.106,-0.136,-0.183,-0.131,-0.121,-0.102,-0.104
0.005,0.114,0.109,-0.06,-0.053,0.111,-0.153,-0.192,-0.13,-0.119,-0.099,-0.105
-0.022,0.072,0.095,-0.025,-0.059,0.083,-0.138,-0.187,-0.129,-0.122,-0.102,-0.108
-0.038,0.061,0.098,-0.012,-0.068,0.079,-0.141,-0.193,-0.138,-0.116,-0.096,-0.11
-0.064,0.007,0.071,0.029,-0.068,0.039,-0.128,-0.186,-0.164,-0.138,-0.127,-0.111
-0.068,-0.028,0.04,0.048,-0.054,0.006,-0.129,-0.194,-0.205,-0.172,-0.154,-0.117
-0.064,-0.038,0.027,0.051,-0.045,-0.005,-0.12,-0.193,-0.185,-0.169,-0.15,-0.12
-0.088,-0.051,0.037,0.069,-0.062,-0.007,-0.119,-0.221,-0.206,-0.178,-0.158,-0.126
-0.094,-0.043,0.051,0.068,-0.072,0.004,-0.125,-0.22,-0.201,-0.175,-0.156,-0.126
-0.098,-0.074,0.024,0.085,-0.061,-0.024,-0.111,-0.215,-0.214,-0.184,-0.169,-0.136
-0.094,-0.042,0.051,0.068,-0.072,0.005,-0.135,-0.232,-0.219,-0.167,-0.16,-0.129
-0.11,-0.113,-0.003,0.111,-0.053,-0.058,-0.027,-0.12,-0.201,-0.189,-0.187,-0.15
-0.207,-0.11,0.097,0.158,-0.152,-0.006,0.285,0.173,-0.292,-0.296,-0.295,-0.245
-0.056,0.164,0.22,-0.054,-0.138,0.191,0.428,0.486,0.164,-0.008,-0.088,-0.128
0.587,1.008,0.421,-0.798,0.083,0.714,-0.661,-0.458,1.375,1.21,0.905,0.567
1.003,1.487,0.484,-1.245,0.259,0.986,-1.885,-1.748,2.38,2.133,1.644,1.1
0.494,0.492,-0.003,-0.493,0.248,0.244,-1.621,-1.821,0.83,0.918,0.832,0.618
-0.068,-0.119,-0.051,0.093,-0.009,-0.084,-1.041,-1.322,-1.033,-0.428,-0.136,0.026
-0.102,-0.052,0.05,0.077,-0.076,-0.001,-0.447,-0.441,-0.485,-0.311,-0.201,-0.097
-0.104,-0.093,0.011,0.098,-0.057,-0.041,-0.019,0.011,-0.216,-0.192,-0.151,-0.116
-0.101,-0.046,0.055,0.073,-0.078,0.005,-0.001,0.005,-0.247,-0.193,-0.151,-0.108
-0.09,-0.064,0.026,0.077,-0.058,-0.019,0.052,0.065,-0.134,-0.152,-0.142,-0.111
-0.092,-0.041,0.051,0.066,-0.071,0.005,0.054,0.042,-0.17,-0.157,-0.145,-0.109
-0.081,-0.04,0.041,0.06,-0.061,0.0,0.069,0.066,-0.091,-0.125,-0.134,-0.104
-0.078,-0.032,0.046,0.054,-0.062,0.007,0.064,0.059,-0.109,-0.127,-0.137,-0.106
-0.065,-0.019,0.046,0.041,-0.055,0.013,0.075,0.086,-0.048,-0.098,-0.123,-0.102
-0.059,-0.016,0.043,0.037,-0.051,0.013,0.096,0.119,-0.027,-0.09,-0.111,-0.098
-0.049,-0.002,0.047,0.025,-0.048,0.023,0.102,0.145,0.006,-0.073,-0.097,-0.093
-0.041,0.002,0.043,0.019,-0.042,0.022,0.135,0.2,0.037,-0.04,-0.088,-0.091
-0.029,0.017,0.046,0.006,-0.038,0.031,0.166,0.265,0.085,-0.008,-0.063,-0.079
-0.016,0.023,0.039,-0.004,-0.028,0.031,0.212,0.354,0.15,0.024,-0.031,-0.065
0.007,0.042,0.035,-0.025,-0.014,0.038,0.26,0.448,0.209,0.064,-0.015,-0.05
0.03,0.061,0.031,-0.046,-0.001,0.046,0.313,0.552,0.3,0.117,0.013,-0.023
0.065,0.09,0.025,-0.078,0.02,0.057,0.358,0.643,0.377,0.164,0.044,-0.005
0.096,0.119,0.023,-0.108,0.036,0.071,0.376,0.698,0.452,0.22,0.077,0.01
0.118,0.135,0.017,-0.127,0.05,0.076,0.377,0.708,0.51,0.278,0.121,0.037
0.129,0.154,0.025,-0.142,0.052,0.089,0.365,0.679,0.514,0.298,0.141,0.056
0.117,0.156,0.039,-0.137,0.039,0.097,0.319,0.596,0.489,0.284,0.129,0.054
0.121,0.149,0.028,-0.136,0.047,0.088,0.251,0.443,0.405,0.251,0.114,0.041
0.089,0.142,0.052,-0.116,0.018,0.097,0.189,0.285,0.28,0.201,0.086,0.034
0.037,0.106,0.069,-0.072,-0.016,0.087,0.137,0.135,0.154,0.121,0.039,0.017
0.004,0.067,0.062,-0.036,-0.029,0.064,0.083,0.007,0.027,0.033,-0.01,-0.017
-0.029,0.038,0.067,-0.005,-0.048,0.052,0.043,-0.058,-0.051,-0.02,-0.055,-0.049
-0.052,0.011,0.064,0.02,-0.058,0.037,0.018,-0.108,-0.108,-0.059,-0.076,-0.061
-0.07,-0.004,0.066,0.037,-0.068,0.031,0.001,-0.133,-0.145,-0.082,-0.095,-0.064
-0.064,-0.01,0.054,0.037,-0.059,0.022,-0.011,-0.143,-0.157,-0.092,-0.109,-0.075
-0.046,-0.015,0.032,0.03,-0.039,0.008,-0.023,-0.151,-0.162,-0.103,-0.109,-0.078
-0.045,-0.02,0.024,0.032,-0.034,0.002,-0.03,-0.14,-0.159,-0.105,-0.11,-0.075
-0.048,-0.027,0.021,0.037,-0.034,-0.003,-0.03,-0.135,-0.161,-0.105,-0.11,-0.075
-0.046,-0.029,0.017,0.037,-0.031,-0.006,-0.03,-0.127,-0.159,-0.105,-0.11,-0.075
-0.039,-0.025,0.014,0.032,-0.026,-0.005,-0.03,-0.121,-0.16,-0.105,-0.11,-0.075
-0.033,-0.025,0.008,0.029,-0.02,-0.008,-0.03,-0.118,-0.165,-0.105,-0.11,-0.075
-0.048,-0.025,0.023,0.037,-0.035,-0.001,-0.029,-0.114,-0.165,-0.105,-0.11,-0.071
-0.062,-0.025,0.037,0.043,-0.049,0.006,-0.026,-0.111,-0.165,-0.105,-0.11,-0.07
-0.056,-0.025,0.031,0.04,-0.043,0.003,-0.024,-0.106,-0.165,-0.105,-0.11,-0.07
-0.054,-0.028,0.026,0.041,-0.04,-0.001,-0.026,-0.107,-0.165,-0.105,-0.11,-0.07
-0.056,-0.033,0.023,0.044,-0.039,-0.004,-0.024,-0.117,-0.167,-0.105,-0.11,-0.07
-0.053,-0.036,0.017,0.044,-0.034,-0.009,-0.026,-0.128,-0.171,-0.107,-0.113,-0.071
-0.058,-0.041,0.017,0.049,-0.038,-0.011,-0.023,-0.133,-0.173,-0.113,-0.116,-0.075
-0.075,-0.04,0.036,0.057,-0.055,-0.001,-0.028,-0.142,-0.177,-0.117,-0.119,-0.075
-0.074,-0.04,0.034,0.057,-0.054,-0.003,-0.055,-0.154,-0.185,-0.12,-0.121,-0.075
-0.075,-0.04,0.036,0.057,-0.055,-0.002,-0.063,-0.151,-0.183,-0.114,-0.125,-0.075
-0.075,-0.04,0.035,0.057,-0.055,-0.002,-0.057,-0.144,-0.179,-0.109,-0.124,-0.075
-0.071,-0.038,0.034,0.054,-0.052,-0.002,-0.051,-0.139,-0.177,-0.105,-0.116,-0.072
-0.069,-0.032,0.037,0.05,-0.053,0.003,-0.04,-0.133,-0.171,-0.098,-0.109,-0.064
-0.044,-0.029,0.015,0.037,-0.03,-0.007,-0.034,-0.128,-0.169,-0.093,-0.102,-0.058
-0.045,0.003,0.048,0.021,-0.047,0.026,-0.028,-0.124,-0.164,-0.087,-0.096,-0.051
-0.01,0.028,0.038,-0.009,-0.025,0.033,-0.032,-0.12,-0.161,-0.085,-0.084,-0.043
0.022,0.045,0.023,-0.034,-0.001,0.034,-0.061,-0.127,-0.158,-0.081,-0.078,-0.04
0.011,0.075,0.064,-0.043,-0.026,0.069,-0.08,-0.139,-0.163,-0.08,-0.08,-0.039
0.017,0.051,0.034,-0.035,-0.009,0.043,-0.07,-0.126,-0.155,-0.075,-0.087,-0.041
-0.013,0.021,0.034,-0.005,-0.024,0.028,-0.071,-0.139,-0.166,-0.077,-0.087,-0.038
-0.046,-0.009,0.037,0.027,-0.042,0.014,-0.067,-0.155,-0.179,-0.103,-0.097,-0.049
-0.068,-0.043,0.025,0.056,-0.047,-0.009,-0.063,-0.162,-0.2,-0.124,-0.122,-0.07
-0.08,-0.058,0.022,0.069,-0.051,-0.017,-0.069,-0.16,-0.206,-0.126,-0.123,-0.068
-0.09,-0.09,0.0,0.089,-0.044,-0.045,-0.058,-0.157,-0.208,-0.14,-0.131,-0.073
-0.071,-0.077,-0.006,0.074,-0.032,-0.041,-0.077,-0.171,-0.219,-0.137,-0.13,-0.077
-0.037,-0.107,-0.07,0.072,0.017,-0.088,-0.064,-0.163,-0.217,-0.147,-0.138,-0.091
-0.057,-0.084,-0.027,0.07,-0.014,-0.055,-0.073,-0.182,-0.249,-0.148,-0.138,-0.091
-0.065,-0.115,-0.049,0.09,-0.008,-0.082,-0.032,-0.115,-0.216,-0.149,-0.144,-0.1
-0.148,-0.167,-0.019,0.158,-0.064,-0.093,0.207,0.082,-0.309,-0.249,-0.242,-0.18
-0.133,-0.01,0.123,0.071,-0.128,0.056,0.519,0.517,-0.073,-0.155,-0.198,-0.173
0.392,0.65,0.258,-0.522,0.067,0.454,-0.136,0.041,0.887,0.775,0.564,0.362
1.023,1.475,0.451,-1.249,0.286,0.963,-1.624,-1.393,2.144,2.011,1.585,1.102
0.788,0.82,0.033,-0.804,0.377,0.426,-1.813,-1.852,1.436,1.408,1.197,0.881
0.056,-0.094,-0.15,0.019,0.103,-0.122,-1.168,-1.483,-0.734,-0.144,0.082,0.205
-0.155,-0.097,0.058,0.126,-0.106,-0.019,-0.588,-0.634,-0.723,-0.347,-0.18,-0.006
-0.081,-0.128,-0.047,0.105,-0.017,-0.087,-0.053,0.035,-0.209,-0.161,-0.134,-0.059
-0.041,-0.096,-0.055,0.069,0.007,-0.076,0.02,0.061,-0.297,-0.179,-0.138,-0.079
-0.033,-0.092,-0.059,0.063,0.013,-0.076,0.055,0.098,-0.159,-0.136,-0.122,-0.081
-0.048,-0.09,-0.042,0.07,-0.003,-0.066,0.083,0.101,-0.192,-0.137,-0.127,-0.078
-0.035,-0.073,-0.037,0.054,0.001,-0.055,0.086,0.113,-0.126,-0.111,-0.112,-0.067
-0.04,-0.079,-0.039,0.06,-0.001,-0.059,0.112,0.123,-0.125,-0.111,-0.114,-0.065
-0.033,-0.06,-0.026,0.047,-0.003,-0.042,0.107,0.139,-0.095,-0.087,-0.102,-0.054
-0.033,-0.063,-0.03,0.048,-0.001,-0.046,0.129,0.178,-0.06,-0.067,-0.092,-0.051
-0.028,-0.047,-0.02,0.038,-0.004,-0.033,0.133,0.2,-0.044,-0.055,-0.079,-0.042
-0.029,-0.046,-0.017,0.038,-0.006,-0.031,0.156,0.254,0.002,-0.026,-0.068,-0.035
-0.013,-0.036,-0.022,0.025,0.005,-0.029,0.175,0.311,0.035,0.001,-0.056,-0.027
0.038,-0.018,-0.056,-0.01,0.047,-0.037,0.21,0.382,0.087,0.025,-0.039,-0.019
0.052,0.001,-0.052,-0.026,0.052,-0.025,0.265,0.478,0.141,0.061,-0.016,-0.012
0.072,0.027,-0.045,-0.049,0.058,-0.009,0.312,0.587,0.225,0.106,0.02,0.003
0.091,0.046,-0.045,-0.068,0.067,0.001,0.369,0.683,0.31,0.156,0.048,0.021
0.106,0.071,-0.035,-0.088,0.07,0.018,0.382,0.747,0.378,0.21,0.086,0.044
0.145,0.105,-0.04,-0.124,0.092,0.032,0.37,0.761,0.431,0.251,0.12,0.064
0.16,0.119,-0.042,-0.139,0.101,0.038,0.37,0.733,0.438,0.285,0.146,0.081
0.147,0.123,-0.024,-0.135,0.085,0.049,0.346,0.68,0.432,0.296,0.158,0.098
0.12,0.12,0.0,-0.12,0.059,0.06,0.296,0.561,0.4,0.274,0.148,0.091
0.113,0.103,-0.01,-0.108,0.061,0.046,0.223,0.393,0.287,0.224,0.121,0.079
0.103,0.072,-0.031,-0.087,0.067,0.02,0.155,0.233,0.168,0.16,0.074,0.065
0.066,0.036,-0.03,-0.051,0.048,0.003,0.11,0.105,0.056,0.093,0.027,0.035
0.038,0.008,-0.03,-0.023,0.034,-0.011,0.073,0.02,-0.039,0.024,-0.014,0.004
0.01,-0.02,-0.03,0.005,0.021,-0.025,0.047,-0.032,-0.09,-0.021,-0.046,-0.009
-0.018,-0.047,-0.029,0.032,0.006,-0.038,0.033,-0.061,-0.135,-0.048,-0.067,-0.012
-0.032,-0.064,-0.031,0.048,0.0,-0.047,0.02,-0.082,-0.161,-0.063,-0.076,-0.018
-0.03,-0.066,-0.035,0.049,0.003,-0.051,0.011,-0.08,-0.157,-0.069,-0.078,-0.023
-0.029,-0.069,-0.039,0.049,0.005,-0.054,0.004,-0.071,-0.155,-0.075,-0.08,-0.029
-0.031,-0.072,-0.04,0.052,0.005,-0.056,-0.003,-0.063,-0.152,-0.075,-0.08,-0.03
-0.034,-0.075,-0.041,0.054,0.004,-0.058,-0.011,-0.054,-0.149,-0.075,-0.084,-0.03
-0.016,-0.075,-0.059,0.045,0.022,-0.067,-0.018,-0.05,-0.146,-0.075,-0.086,-0.03
-0.002,-0.077,-0.075,0.04,0.037,-0.076,-0.017,-0.046,-0.145,-0.075,-0.083,-0.03
-0.014,-0.081,-0.066,0.048,0.026,-0.073,-0.014,-0.043,-0.156,-0.075,-0.08,-0.03
-0.012,-0.08,-0.067,0.046,0.028,-0.073,-0.011,-0.039,-0.161,-0.078,-0.08,-0.031
-0.013,-0.084,-0.07,0.049,0.029,-0.077,-0.008,-0.034,-0.159,-0.08,-0.08,-0.035
-0.012,-0.085,-0.073,0.049,0.031,-0.079,-0.005,-0.036,-0.161,-0.084,-0.08,-0.035
-0.009,-0.085,-0.076,0.047,0.034,-0.081,-0.006,-0.034,-0.16,-0.086,-0.08,-0.035
-0.007,-0.085,-0.079,0.046,0.037,-0.081,-0.013,-0.038,-0.16,-0.09,-0.083,-0.035
-0.004,-0.085,-0.081,0.044,0.04,-0.083,-0.017,-0.061,-0.174,-0.09,-0.086,-0.035
-0.015,-0.085,-0.071,0.05,0.028,-0.078,-0.023,-0.065,-0.173,-0.085,-0.089,-0.035
-0.027,-0.094,-0.067,0.061,0.02,-0.08,-0.029,-0.072,-0.18,-0.086,-0.092,-0.035
-0.051,-0.101,-0.05,0.076,-0.001,-0.075,-0.034,-0.082,-0.197,-0.083,-0.095,-0.035
-0.036,-0.1,-0.064,0.068,0.014,-0.082,-0.036,-0.078,-0.191,-0.092,-0.099,-0.035
-0.017,-0.1,-0.083,0.059,0.033,-0.091,-0.034,-0.087,-0.188,-0.101,-0.1,-0.035
-0.03,-0.1,-0.07,0.065,0.02,-0.085,-0.036,-0.091,-0.186,-0.089,-0.101,-0.036
-0.014,-0.1,-0.086,0.057,0.036,-0.093,-0.033,-0.09,-0.177,-0.074,-0.099,-0.04
-0.016,-0.1,-0.084,0.058,0.034,-0.091,-0.041,-0.094,-0.191,-0.086,-0.104,-0.04
-0.021,-0.1,-0.08,0.06,0.029,-0.09,-0.049,-0.095,-0.205,-0.105,-0.111,-0.04
-0.024,-0.102,-0.078,0.063,0.028,-0.09,-0.04,-0.094,-0.196,-0.094,-0.105,-0.04
-0.034,-0.108,-0.074,0.071,0.021,-0.091,-0.034,-0.085,-0.19,-0.085,-0.097,-0.041
-0.017,-0.089,-0.072,0.053,0.028,-0.08,-0.026,-0.07,-0.181,-0.078,-0.091,-0.034
0.001,-0.054,-0.056,0.027,0.029,-0.055,-0.014,-0.054,-0.169,-0.068,-0.084,-0.021
0.006,-0.038,-0.044,0.016,0.025,-0.04,-0.003,-0.042,-0.158,-0.063,-0.08,-0.01
0.001,-0.033,-0.034,0.016,0.018,-0.033,-0.018,-0.057,-0.148,-0.038,-0.081,0.0
0.02,-0.017,-0.037,-0.001,0.028,-0.026,-0.05,-0.072,-0.147,-0.024,-0.077,0.008
0.016,-0.015,-0.032,0.0,0.024,-0.023,-0.049,-0.07,-0.138,-0.029,-0.075,0.018
0.006,-0.041,-0.047,0.018,0.027,-0.044,-0.051,-0.078,-0.147,-0.039,-0.074,0.014
0.005,-0.081,-0.086,0.038,0.046,-0.083,-0.05,-0.076,-0.169,-0.067,-0.083,-0.008
-0.027,-0.114,-0.086,0.071,0.03,-0.1,-0.049,-0.094,-0.199,-0.089,-0.106,-0.027
-0.043,-0.125,-0.082,0.085,0.019,-0.103,-0.053,-0.094,-0.192,-0.087,-0.113,-0.041
-0.07,-0.159,-0.09,0.115,0.01,-0.124,-0.042,-0.096,-0.203,-0.1,-0.123,-0.053
-0.056,-0.146,-0.09,0.102,0.017,-0.118,-0.051,-0.106,-0.201,-0.095,-0.121,-0.046
-0.043,-0.166,-0.123,0.105,0.04,-0.144,-0.037,-0.085,-0.193,-0.097,-0.129,-0.054
-0.051,-0.144,-0.094,0.098,0.022,-0.119,-0.053,-0.097,-0.214,-0.095,-0.128,-0.046
-0.08,-0.182,-0.102,0.132,0.011,-0.142,0.004,-0.039,-0.182,-0.102,-0.135,-0.056
-0.178,-0.234,-0.056,0.207,-0.061,-0.145,0.247,0.158,-0.286,-0.206,-0.226,-0.144
-0.112,-0.068,0.043,0.09,-0.078,-0.013,0.54,0.606,-0.028,-0.098,-0.178,-0.137
0.406,0.603,0.197,-0.505,0.104,0.4,-0.123,0.014,0.887,0.817,0.584,0.412
1.066,1.401,0.335,-1.233,0.365,0.868,-1.575,-1.435,2.039,1.982,1.569,1.148
0.813,0.706,-0.107,-0.759,0.459,0.3,-1.75,-1.794,1.287,1.339,1.141,0.894
0.093,-0.177,-0.269,0.042,0.181,-0.223,-1.119,-1.405,-0.741,-0.135,0.068,0.221
-0.064,-0.138,-0.074,0.102,0.005,-0.106,-0.518,-0.516,-0.651,-0.291,-0.17,0.031
-0.053,-0.174,-0.121,0.114,0.034,-0.147,0.002,0.128,-0.181,-0.138,-0.142,-0.02
-0.042,-0.144,-0.101,0.093,0.03,-0.122,0.067,0.146,-0.253,-0.142,-0.148,-0.031
-0.035,-0.142,-0.107,0.089,0.036,-0.124,0.113,0.202,-0.139,-0.098,-0.131,-0.029
-0.048,-0.14,-0.092,0.095,0.022,-0.116,0.123,0.188,-0.184,-0.104,-0.134,-0.031
-0.046,-0.123,-0.076,0.085,0.015,-0.099,0.119,0.212,-0.11,-0.065,-0.12,-0.023
-0.056,-0.129,-0.073,0.093,0.009,-0.101,0.136,0.216,-0.108,-0.071,-0.113,-0.027
-0.013,-0.109,-0.096,0.061,0.042,-0.102,0.141,0.224,-0.073,-0.058,-0.094,-0.021
-0.008,-0.114,-0.106,0.061,0.049,-0.11,0.169,0.263,-0.05,-0.04,-0.085,-0.017
-0.035,-0.096,-0.061,0.066,0.013,-0.079,0.173,0.293,-0.022,-0.006,-0.071,-0.009
-0.034,-0.092,-0.058,0.063,0.012,-0.075,0.203,0.345,0.019,0.008,-0.06,-0.003
0.015,-0.077,-0.091,0.031,0.053,-0.084,0.212,0.4,0.046,0.024,-0.043,0.004
0.052,-0.063,-0.115,0.006,0.084,-0.089,0.241,0.482,0.116,0.07,-0.023,0.01
0.061,-0.05,-0.111,-0.005,0.086,-0.08,0.284,0.573,0.168,0.1,-0.009,0.016
0.084,-0.033,-0.117,-0.025,0.101,-0.075,0.329,0.677,0.244,0.144,0.016,0.029
0.106,-0.008,-0.114,-0.049,0.11,-0.06,0.381,0.774,0.316,0.195,0.054,0.054
0.131,0.016,-0.115,-0.073,0.123,-0.049,0.395,0.837,0.379,0.245,0.092,0.079
0.166,0.039,-0.127,-0.102,0.146,-0.043,0.385,0.859,0.43,0.291,0.125,0.101
0.188,0.067,-0.122,-0.127,0.155,-0.027,0.369,0.841,0.449,0.318,0.154,0.122
0.175,0.066,-0.109,-0.12,0.141,-0.021,0.338,0.778,0.444,0.324,0.159,0.13
0.156,0.055,-0.101,-0.105,0.128,-0.023,0.291,0.649,0.401,0.315,0.146,0.123
0.132,0.049,-0.084,-0.09,0.108,-0.017,0.235,0.479,0.312,0.275,0.129,0.116
0.097,0.04,-0.057,-0.068,0.077,-0.008,0.185,0.319,0.203,0.208,0.097,0.103
0.063,0.013,-0.05,-0.038,0.056,-0.018,0.145,0.193,0.094,0.143,0.054,0.079
0.016,-0.033,-0.048,0.009,0.032,-0.04,0.112,0.109,0.011,0.083,0.017,0.047
-0.011,-0.068,-0.058,0.04,0.024,-0.063,0.083,0.035,-0.058,0.032,-0.02,0.019
0.003,-0.085,-0.087,0.042,0.045,-0.086,0.054,-0.008,-0.106,-0.008,-0.057,0.012
0.0,-0.099,-0.1,0.05,0.05,-0.099,0.035,-0.013,-0.124,-0.029,-0.079,0.008
-0.012,-0.111,-0.099,0.061,0.044,-0.105,0.029,-0.029,-0.139,-0.03,-0.08,0.004
-0.014,-0.11,-0.096,0.062,0.041,-0.102,0.022,-0.032,-0.142,-0.03,-0.08,-0.001
-0.017,-0.11,-0.093,0.064,0.038,-0.101,0.016,-0.023,-0.14,-0.035,-0.08,-0.005
-0.019,-0.11,-0.091,0.065,0.036,-0.101,0.009,-0.015,-0.137,-0.035,-0.08,0.0
-0.022,-0.11,-0.088,0.066,0.033,-0.099,0.006,-0.006,-0.134,-0.035,-0.079,0.0
-0.011,-0.107,-0.095,0.059,0.043,-0.101,0.015,0.0,-0.131,-0.035,-0.075,0.001
0.001,-0.104,-0.106,0.052,0.054,-0.105,0.017,0.003,-0.13,-0.035,-0.075,0.005
0.0,-0.105,-0.105,0.053,0.053,-0.105,0.014,0.007,-0.134,-0.035,-0.075,0.005
-0.001,-0.105,-0.104,0.053,0.052,-0.105,0.015,0.01,-0.137,-0.035,-0.075,0.003
0.004,-0.105,-0.109,0.051,0.057,-0.107,0.014,0.015,-0.14,-0.035,-0.075,-0.003
0.005,-0.106,-0.111,0.051,0.058,-0.108,0.015,0.011,-0.143,-0.039,-0.079,-0.008
-0.005,-0.112,-0.107,0.059,0.051,-0.11,0.014,-0.001,-0.145,-0.041,-0.08,-0.011
-0.014,-0.119,-0.105,0.067,0.045,-0.112,0.006,-0.011,-0.148,-0.047,-0.082,-0.017
-0.022,-0.124,-0.101,0.073,0.04,-0.112,-0.001,-0.024,-0.158,-0.054,-0.085,-0.02
-0.026,-0.126,-0.1,0.076,0.038,-0.112,-0.008,-0.028,-0.166,-0.052,-0.086,-0.016
-0.025,-0.124,-0.099,0.075,0.038,-0.111,-0.016,-0.037,-0.169,-0.05,-0.093,-0.015
-0.023,-0.127,-0.103,0.075,0.04,-0.114,-0.023,-0.05,-0.174,-0.05,-0.099,-0.015
-0.019,-0.13,-0.111,0.075,0.046,-0.121,-0.029,-0.054,-0.175,-0.05,-0.1,-0.015
-0.02,-0.13,-0.11,0.075,0.045,-0.12,-0.03,-0.053,-0.175,-0.05,-0.1,-0.015
-0.022,-0.132,-0.11,0.077,0.044,-0.121,-0.03,-0.05,-0.175,-0.051,-0.1,-0.017
-0.025,-0.135,-0.11,0.08,0.043,-0.122,-0.03,-0.05,-0.175,-0.055,-0.1,-0.02
-0.025,-0.135,-0.109,0.08,0.042,-0.122,-0.029,-0.05,-0.175,-0.057,-0.099,-0.02
-0.02,-0.132,-0.112,0.076,0.046,-0.121,-0.032,-0.06,-0.175,-0.06,-0.101,-0.02
-0.018,-0.129,-0.111,0.074,0.047,-0.12,-0.035,-0.066,-0.175,-0.064,-0.105,-0.02
-0.021,-0.13,-0.11,0.076,0.044,-0.12,-0.035,-0.064,-0.175,-0.065,-0.105,-0.019
-0.019,-0.13,-0.11,0.074,0.045,-0.12,-0.035,-0.066,-0.175,-0.065,-0.107,-0.016
-0.021,-0.13,-0.11,0.075,0.045,-0.12,-0.035,-0.065,-0.175,-0.065,-0.11,-0.015
-0.019,-0.129,-0.11,0.074,0.046,-0.12,-0.035,-0.065,-0.176,-0.066,-0.11,-0.016
-0.012,-0.121,-0.109,0.067,0.049,-0.115,-0.03,-0.059,-0.173,-0.064,-0.106,-0.015
-0.014,-0.114,-0.1,0.064,0.043,-0.107,-0.022,-0.052,-0.163,-0.056,-0.097,-0.016
-0.01,-0.101,-0.092,0.056,0.041,-0.096,-0.013,-0.047,-0.152,-0.047,-0.089,-0.013
-0.002,-0.086,-0.083,0.044,0.041,-0.084,-0.004,-0.041,-0.142,-0.038,-0.08,-0.006
0.009,-0.066,-0.075,0.029,0.042,-0.07,0.012,-0.036,-0.135,-0.037,-0.076,0.0
0.025,-0.051,-0.076,0.014,0.051,-0.063,0.002,-0.031,-0.132,-0.041,-0.081,0.008
0.035,-0.038,-0.073,0.002,0.055,-0.055,-0.03,-0.026,-0.13,-0.039,-0.079,0.016
0.044,-0.034,-0.078,-0.005,0.061,-0.055,-0.029,-0.018,-0.122,-0.041,-0.081,0.026
0.039,-0.054,-0.093,0.008,0.067,-0.073,-0.031,-0.032,-0.137,-0.039,-0.079,0.025
0.01,-0.099,-0.109,0.045,0.06,-0.104,-0.029,-0.04,-0.151,-0.041,-0.087,0.002
-0.019,-0.126,-0.107,0.072,0.044,-0.116,-0.03,-0.053,-0.173,-0.057,-0.113,-0.013
-0.027,-0.141,-0.114,0.084,0.044,-0.127,-0.031,-0.049,-0.183,-0.062,-0.118,-0.018
-0.033,-0.151,-0.118,0.093,0.043,-0.134,-0.031,-0.061,-0.204,-0.072,-0.124,-0.028
-0.033,-0.142,-0.109,0.088,0.038,-0.125,-0.042,-0.051,-0.188,-0.067,-0.121,-0.03
-0.052,-0.177,-0.125,0.115,0.037,-0.151,-0.03,-0.056,-0.205,-0.085,-0.132,-0.038
-0.043,-0.146,-0.102,0.095,0.03,-0.124,-0.055,-0.056,-0.202,-0.078,-0.132,-0.036
-0.069,-0.208,-0.139,0.139,0.035,-0.173,0.036,0.026,-0.194,-0.097,-0.162,-0.068
-0.167,-0.222,-0.055,0.195,-0.056,-0.138,0.326,0.295,-0.256,-0.19,-0.251,-0.15
-0.032,0.007,0.039,0.012,-0.035,0.022,0.504,0.67,0.136,0.051,-0.084,-0.05
0.589,0.794,0.205,-0.692,0.192,0.499,-0.423,-0.27,1.143,1.136,0.839,0.625
1.156,1.348,0.192,-1.253,0.482,0.77,-1.696,-1.586,2.032,2.013,1.608,1.197
0.696,0.416,-0.281,-0.556,0.488,0.067,-1.596,-1.692,0.729,0.954,0.852,0.729
-0.013,-0.216,-0.203,0.115,0.095,-0.209,-0.975,-1.186,-0.89,-0.256,-0.071,0.147
-0.078,-0.136,-0.059,0.107,-0.009,-0.097,-0.368,-0.241,-0.424,-0.187,-0.155,0.027
-0.046,-0.189,-0.144,0.118,0.049,-0.166,0.044,0.21,-0.176,-0.103,-0.15,-0.019
-0.046,-0.139,-0.092,0.093,0.023,-0.115,0.056,0.176,-0.208,-0.086,-0.143,-0.027
-0.037,-0.156,-0.12,0.096,0.042,-0.138,0.102,0.227,-0.121,-0.058,-0.135,-0.032
-0.034,-0.134,-0.1,0.085,0.033,-0.117,0.097,0.223,-0.148,-0.063,-0.131,-0.023
-0.028,-0.127,-0.098,0.078,0.035,-0.112,0.107,0.257,-0.081,-0.035,-0.116,-0.019
-0.011,-0.121,-0.11,0.066,0.05,-0.115,0.119,0.241,-0.092,-0.037,-0.114,-0.014
0.006,-0.103,-0.109,0.049,0.058,-0.106,0.132,0.27,-0.042,-0.009,-0.1,-0.006
0.011,-0.105,-0.116,0.047,0.064,-0.11,0.156,0.296,-0.039,0.005,-0.097,-0.004
0.04,-0.088,-0.128,0.024,0.084,-0.108,0.153,0.321,0.001,0.028,-0.085,0.005
0.016,-0.087,-0.103,0.036,0.06,-0.095,0.173,0.381,0.04,0.047,-0.068,0.008
0.031,-0.072,-0.103,0.021,0.067,-0.087,0.193,0.431,0.073,0.067,-0.047,0.016
0.056,-0.053,-0.109,-0.001,0.082,-0.081,0.232,0.51,0.134,0.094,-0.031,0.02
0.067,-0.033,-0.099,-0.017,0.083,-0.066,0.272,0.601,0.181,0.13,-0.014,0.028
0.109,-0.013,-0.122,-0.048,0.116,-0.068,0.314,0.701,0.255,0.176,0.02,0.047
0.147,0.007,-0.14,-0.077,0.143,-0.066,0.357,0.796,0.332,0.229,0.059,0.074
0.168,0.028,-0.14,-0.097,0.153,-0.056,0.364,0.846,0.392,0.275,0.092,0.098
0.178,0.049,-0.129,-0.113,0.153,-0.04,0.348,0.865,0.437,0.318,0.129,0.123
0.2,0.074,-0.126,-0.137,0.162,-0.026,0.34,0.838,0.463,0.351,0.157,0.145
0.198,0.083,-0.116,-0.14,0.157,-0.016,0.32,0.77,0.451,0.348,0.162,0.146
0.187,0.073,-0.113,-0.13,0.15,-0.02,0.269,0.651,0.393,0.328,0.153,0.14
0.164,0.067,-0.097,-0.115,0.13,-0.015,0.22,0.492,0.308,0.286,0.129,0.13
0.127,0.046,-0.082,-0.086,0.104,-0.018,0.178,0.341,0.201,0.232,0.091,0.114
0.108,0.014,-0.094,-0.061,0.101,-0.039,0.134,0.213,0.104,0.17,0.047,0.089
0.071,-0.025,-0.096,-0.022,0.084,-0.06,0.101,0.131,0.026,0.104,0.004,0.056
0.026,-0.062,-0.089,0.018,0.058,-0.075,0.075,0.07,-0.035,0.055,-0.033,0.037
0.012,-0.081,-0.093,0.035,0.053,-0.087,0.051,0.037,-0.078,0.028,-0.057,0.031
0.019,-0.095,-0.114,0.038,0.067,-0.104,0.038,0.021,-0.108,0.014,-0.075,0.024
0.016,-0.096,-0.112,0.04,0.065,-0.104,0.027,0.005,-0.108,0.008,-0.081,0.018
0.011,-0.094,-0.106,0.042,0.059,-0.1,0.018,-0.002,-0.104,0.01,-0.079,0.015
0.011,-0.092,-0.103,0.041,0.057,-0.098,0.014,-0.01,-0.102,0.01,-0.084,0.015
0.008,-0.089,-0.097,0.04,0.053,-0.093,0.012,-0.005,-0.099,0.01,-0.085,0.015
0.003,-0.091,-0.094,0.044,0.049,-0.092,0.009,0.004,-0.096,0.01,-0.085,0.015
-0.009,-0.094,-0.085,0.052,0.038,-0.089,0.006,0.013,-0.095,0.009,-0.085,0.015
-0.019,-0.095,-0.076,0.058,0.029,-0.085,0.004,0.019,-0.1,0.005,-0.084,0.01
-0.033,-0.095,-0.062,0.064,0.015,-0.078,0.001,0.013,-0.1,0.005,-0.087,0.01
-0.007,-0.095,-0.088,0.051,0.041,-0.091,-0.002,0.008,-0.1,0.004,-0.09,0.01
0.029,-0.095,-0.124,0.033,0.077,-0.109,-0.004,0.004,-0.1,-0.001,-0.091,0.01
0.005,-0.097,-0.102,0.046,0.054,-0.099,-0.008,0.0,-0.099,0.001,-0.094,0.01
-0.02,-0.101,-0.081,0.06,0.031,-0.091,-0.01,-0.004,-0.103,-0.003,-0.095,0.008
-0.002,-0.103,-0.101,0.053,0.05,-0.102,-0.012,-0.013,-0.112,-0.011,-0.098,0.003
0.006,-0.106,-0.112,0.05,0.06,-0.109,-0.019,-0.03,-0.126,-0.018,-0.101,-0.003
-0.003,-0.109,-0.106,0.057,0.052,-0.107,-0.026,-0.047,-0.137,-0.025,-0.099,-0.006
-0.007,-0.11,-0.104,0.059,0.048,-0.106,-0.032,-0.051,-0.139,-0.033,-0.1,-0.012
-0.015,-0.117,-0.102,0.066,0.044,-0.109,-0.039,-0.057,-0.145,-0.039,-0.1,-0.015
-0.023,-0.121,-0.098,0.072,0.037,-0.109,-0.045,-0.06,-0.148,-0.036,-0.1,-0.011
-0.02,-0.119,-0.099,0.07,0.039,-0.109,-0.045,-0.064,-0.145,-0.035,-0.1,-0.01
-0.006,-0.124,-0.118,0.065,0.056,-0.12,-0.045,-0.064,-0.145,-0.034,-0.1,-0.01
-0.009,-0.125,-0.116,0.067,0.054,-0.12,-0.045,-0.073,-0.145,-0.03,-0.107,-0.01
-0.017,-0.125,-0.109,0.071,0.046,-0.117,-0.044,-0.082,-0.145,-0.03,-0.111,-0.01
-0.026,-0.129,-0.104,0.078,0.039,-0.116,-0.048,-0.07,-0.145,-0.032,-0.109,-0.012
-0.032,-0.13,-0.098,0.081,0.033,-0.114,-0.05,-0.075,-0.142,-0.036,-0.11,-0.016
-0.04,-0.13,-0.09,0.085,0.025,-0.11,-0.05,-0.059,-0.139,-0.034,-0.109,-0.018
-0.045,-0.13,-0.085,0.088,0.02,-0.107,-0.05,-0.068,-0.142,-0.039,-0.111,-0.021
-0.052,-0.13,-0.077,0.091,0.012,-0.103,-0.05,-0.056,-0.133,-0.041,-0.114,-0.025
-0.058,-0.128,-0.07,0.093,0.006,-0.098,-0.055,-0.073,-0.137,-0.039,-0.116,-0.025
-0.032,-0.123,-0.091,0.078,0.03,-0.107,-0.06,-0.06,-0.134,-0.037,-0.12,-0.02
-0.026,-0.12,-0.094,0.073,0.034,-0.106,-0.064,-0.061,-0.137,-0.03,-0.118,-0.016
-0.019,-0.117,-0.099,0.068,0.04,-0.108,-0.063,-0.171,-0.097,-0.031,-0.113,-0.014
-0.025,-0.111,-0.086,0.068,0.031,-0.099,-0.052,-0.007,0.02,-0.021,-0.11,-0.009
-0.015,-0.111,-0.096,0.063,0.04,-0.104,-0.042,0.089,0.042,-0.025,-0.107,-0.006
-0.003,-0.087,-0.084,0.045,0.041,-0.085,-0.034,0.041,0.029,-0.013,-0.102,-0.002
0.014,-0.064,-0.078,0.025,0.046,-0.07,-0.023,0.067,0.04,-0.013,-0.1,0.006
-0.009,-0.075,-0.067,0.042,0.029,-0.071,-0.027,0.036,0.031,0.003,-0.1,0.013
-0.085,-0.085,0.0,0.085,-0.042,-0.042,-0.014,0.063,0.039,0.035,-0.1,0.048
