-0.079,-0.196,-0.117,0.137,0.019,-0.156,0.09,-0.109,-0.185,-0.155,-0.135,-0.13
-0.085,-0.199,-0.114,0.142,0.015,-0.156,0.091,-0.109,-0.182,-0.152,-0.132,-0.13
-0.083,-0.193,-0.111,0.138,0.014,-0.152,0.09,-0.11,-0.174,-0.147,-0.126,-0.13
-0.091,-0.183,-0.092,0.137,0.001,-0.137,0.092,-0.107,-0.167,-0.14,-0.121,-0.13
-0.083,-0.169,-0.086,0.126,0.002,-0.127,0.087,-0.114,-0.161,-0.135,-0.114,-0.129
-0.097,-0.148,-0.05,0.123,-0.023,-0.099,0.116,-0.082,-0.154,-0.13,-0.111,-0.131
-0.074,-0.126,-0.052,0.101,-0.011,-0.089,0.159,-0.06,-0.134,-0.113,-0.097,-0.117
-0.095,-0.113,-0.018,0.104,-0.038,-0.065,0.145,-0.059,-0.089,-0.087,-0.084,-0.102
-0.082,-0.105,-0.023,0.094,-0.029,-0.064,0.09,-0.058,-0.096,-0.084,-0.085,-0.099
-0.035,-0.102,-0.067,0.069,0.016,-0.084,0.047,-0.088,-0.132,-0.1,-0.086,-0.101
0.007,-0.093,-0.099,0.044,0.053,-0.096,0.037,-0.109,-0.151,-0.097,-0.084,-0.099
0.0,-0.119,-0.12,0.06,0.06,-0.119,0.045,-0.118,-0.159,-0.108,-0.087,-0.101
-0.054,-0.164,-0.11,0.109,0.028,-0.136,0.061,-0.095,-0.149,-0.123,-0.099,-0.117
-0.076,-0.185,-0.109,0.131,0.017,-0.147,0.078,-0.132,-0.19,-0.162,-0.125,-0.142
-0.094,-0.201,-0.106,0.148,0.006,-0.153,0.073,-0.094,-0.159,-0.153,-0.129,-0.151
-0.091,-0.194,-0.103,0.143,0.007,-0.148,0.068,-0.14,-0.203,-0.182,-0.135,-0.144
-0.109,-0.22,-0.111,0.165,0.001,-0.165,0.076,-0.066,-0.144,-0.154,-0.136,-0.149
-0.12,-0.215,-0.095,0.167,-0.012,-0.155,0.207,0.048,-0.195,-0.218,-0.188,-0.2
-0.159,-0.215,-0.056,0.187,-0.051,-0.135,0.546,0.426,-0.085,-0.286,-0.296,-0.303
0.228,0.207,-0.021,-0.217,0.124,0.093,0.252,0.453,0.477,0.384,0.258,0.158
0.811,1.307,0.495,-1.059,0.157,0.901,-0.631,-1.207,1.614,1.947,1.57,1.264
0.68,1.609,0.93,-1.145,-0.125,1.269,-1.228,-2.19,2.738,2.858,2.028,1.577
0.085,0.63,0.546,-0.357,-0.231,0.588,-1.362,-1.962,1.065,1.181,0.817,0.604
-0.215,-0.034,0.181,0.124,-0.198,0.073,-0.72,-1.122,-0.464,-0.256,-0.152,-0.113
-0.114,-0.079,0.034,0.096,-0.074,-0.023,-0.104,-0.128,-0.065,-0.05,-0.105,-0.083
-0.085,-0.145,-0.059,0.115,-0.013,-0.102,0.022,-0.002,-0.148,-0.127,-0.114,-0.109
-0.077,-0.148,-0.071,0.113,-0.003,-0.11,0.093,0.083,-0.102,-0.118,-0.113,-0.123
-0.066,-0.14,-0.074,0.104,0.004,-0.107,0.097,0.108,-0.101,-0.107,-0.096,-0.102
-0.064,-0.141,-0.077,0.102,0.007,-0.108,0.115,0.118,-0.114,-0.118,-0.108,-0.109
-0.039,-0.128,-0.089,0.084,0.026,-0.108,0.116,0.153,-0.078,-0.084,-0.086,-0.09
-0.048,-0.128,-0.08,0.088,0.016,-0.104,0.123,0.151,-0.095,-0.104,-0.092,-0.093
-0.013,-0.113,-0.099,0.063,0.043,-0.106,0.124,0.195,-0.036,-0.072,-0.075,-0.08
-0.03,-0.106,-0.076,0.069,0.023,-0.091,0.116,0.209,-0.046,-0.078,-0.074,-0.074
-0.015,-0.087,-0.073,0.051,0.029,-0.08,0.119,0.252,-0.01,-0.038,-0.052,-0.06
-0.016,-0.068,-0.053,0.042,0.019,-0.06,0.111,0.274,-0.001,-0.019,-0.034,-0.048
-0.02,-0.042,-0.021,0.031,0.001,-0.031,0.112,0.316,0.039,0.011,-0.01,-0.037
0.021,-0.015,-0.036,-0.003,0.028,-0.025,0.108,0.358,0.08,0.047,0.017,-0.023
0.033,0.015,-0.018,-0.024,0.026,-0.002,0.095,0.405,0.116,0.073,0.042,0.001
0.059,0.052,-0.007,-0.055,0.033,0.023,0.082,0.459,0.163,0.121,0.081,0.031
0.075,0.095,0.021,-0.085,0.027,0.058,0.062,0.508,0.211,0.176,0.121,0.065
0.117,0.156,0.04,-0.137,0.038,0.098,0.034,0.553,0.262,0.228,0.165,0.105
0.158,0.214,0.057,-0.186,0.05,0.135,-0.006,0.572,0.312,0.288,0.221,0.152
0.189,0.252,0.063,-0.221,0.063,0.157,-0.045,0.566,0.361,0.351,0.276,0.197
0.232,0.285,0.053,-0.259,0.089,0.169,-0.07,0.549,0.387,0.395,0.313,0.228
0.224,0.3,0.076,-0.262,0.073,0.188,-0.111,0.497,0.401,0.416,0.325,0.238
0.217,0.284,0.067,-0.251,0.075,0.175,-0.115,0.428,0.405,0.42,0.319,0.23
0.197,0.254,0.057,-0.226,0.069,0.156,-0.1,0.367,0.375,0.39,0.312,0.226
0.154,0.194,0.04,-0.174,0.057,0.117,-0.081,0.301,0.324,0.338,0.263,0.186
0.12,0.124,0.004,-0.122,0.058,0.064,-0.032,0.235,0.26,0.256,0.178,0.114
0.037,0.046,0.008,-0.042,0.014,0.027,0.01,0.162,0.181,0.159,0.105,0.053
-0.025,-0.035,-0.01,0.031,-0.008,-0.022,0.054,0.105,0.099,0.077,0.035,-0.008
-0.029,-0.069,-0.041,0.05,0.006,-0.055,0.084,0.066,0.036,0.003,-0.023,-0.061
-0.036,-0.099,-0.064,0.068,0.014,-0.081,0.095,0.025,-0.011,-0.039,-0.061,-0.092
-0.052,-0.132,-0.08,0.092,0.014,-0.106,0.104,0.009,-0.054,-0.065,-0.08,-0.102
-0.056,-0.141,-0.085,0.099,0.015,-0.113,0.107,0.002,-0.069,-0.085,-0.092,-0.107
-0.067,-0.156,-0.09,0.112,0.012,-0.123,0.111,-0.008,-0.07,-0.084,-0.098,-0.114
-0.064,-0.16,-0.096,0.112,0.016,-0.128,0.116,-0.007,-0.07,-0.087,-0.102,-0.118
-0.066,-0.154,-0.088,0.11,0.012,-0.121,0.119,0.0,-0.079,-0.086,-0.105,-0.119
-0.068,-0.152,-0.085,0.11,0.009,-0.119,0.117,0.005,-0.087,-0.085,-0.101,-0.115
-0.055,-0.147,-0.092,0.101,0.019,-0.119,0.112,0.011,-0.084,-0.085,-0.098,-0.112
-0.055,-0.144,-0.089,0.1,0.018,-0.116,0.109,0.023,-0.086,-0.085,-0.095,-0.11
-0.052,-0.141,-0.089,0.096,0.019,-0.115,0.106,0.027,-0.084,-0.085,-0.092,-0.107
-0.054,-0.136,-0.083,0.095,0.015,-0.109,0.101,0.019,-0.085,-0.086,-0.09,-0.104
-0.058,-0.134,-0.075,0.096,0.009,-0.104,0.102,0.014,-0.09,-0.1,-0.092,-0.109
-0.06,-0.13,-0.07,0.095,0.005,-0.099,0.106,0.008,-0.092,-0.106,-0.096,-0.11
-0.063,-0.125,-0.063,0.094,0.001,-0.094,0.101,-0.005,-0.105,-0.104,-0.099,-0.11
-0.073,-0.127,-0.054,0.1,-0.009,-0.09,0.096,-0.018,-0.114,-0.109,-0.103,-0.115
-0.068,-0.133,-0.065,0.101,-0.001,-0.099,0.093,-0.034,-0.123,-0.117,-0.105,-0.115
-0.06,-0.137,-0.077,0.099,0.009,-0.106,0.086,-0.054,-0.13,-0.119,-0.111,-0.116
-0.067,-0.14,-0.073,0.104,0.003,-0.106,0.087,-0.066,-0.141,-0.131,-0.118,-0.121
-0.08,-0.146,-0.066,0.113,-0.006,-0.106,0.097,-0.07,-0.157,-0.141,-0.12,-0.126
-0.066,-0.15,-0.085,0.108,0.009,-0.117,0.096,-0.07,-0.154,-0.139,-0.12,-0.13
-0.057,-0.15,-0.093,0.103,0.018,-0.121,0.092,-0.07,-0.157,-0.14,-0.12,-0.126
-0.075,-0.15,-0.075,0.113,0.0,-0.113,0.09,-0.073,-0.161,-0.14,-0.12,-0.125
-0.068,-0.149,-0.082,0.109,0.007,-0.115,0.086,-0.076,-0.159,-0.14,-0.12,-0.125
-0.065,-0.151,-0.086,0.109,0.01,-0.118,0.085,-0.074,-0.16,-0.144,-0.124,-0.125
-0.059,-0.16,-0.101,0.11,0.021,-0.13,0.086,-0.077,-0.16,-0.145,-0.125,-0.124
-0.063,-0.16,-0.097,0.112,0.017,-0.128,0.085,-0.087,-0.16,-0.145,-0.125,-0.128
-0.074,-0.156,-0.082,0.115,0.004,-0.119,0.085,-0.085,-0.16,-0.145,-0.125,-0.136
-0.067,-0.155,-0.087,0.111,0.01,-0.121,0.082,-0.085,-0.16,-0.145,-0.124,-0.133
-0.068,-0.15,-0.082,0.109,0.007,-0.116,0.079,-0.085,-0.161,-0.145,-0.128,-0.13
-0.069,-0.15,-0.081,0.11,0.006,-0.116,0.081,-0.085,-0.165,-0.145,-0.13,-0.128
-0.076,-0.155,-0.078,0.115,0.002,-0.116,0.084,-0.085,-0.165,-0.145,-0.13,-0.124
-0.068,-0.155,-0.087,0.112,0.01,-0.121,0.085,-0.085,-0.165,-0.145,-0.133,-0.125
-0.058,-0.155,-0.096,0.107,0.019,-0.126,0.085,-0.085,-0.165,-0.145,-0.136,-0.125
-0.061,-0.155,-0.094,0.108,0.017,-0.124,0.085,-0.085,-0.165,-0.149,-0.134,-0.125
-0.06,-0.155,-0.096,0.108,0.019,-0.125,0.086,-0.085,-0.161,-0.15,-0.131,-0.125
-0.058,-0.153,-0.094,0.106,0.018,-0.123,0.082,-0.085,-0.16,-0.15,-0.128,-0.125
-0.054,-0.149,-0.096,0.102,0.021,-0.122,0.08,-0.086,-0.16,-0.154,-0.126,-0.125
-0.06,-0.151,-0.091,0.106,0.015,-0.121,0.08,-0.091,-0.16,-0.156,-0.122,-0.125
-0.06,-0.15,-0.09,0.105,0.015,-0.12,0.077,-0.088,-0.161,-0.155,-0.121,-0.126
-0.061,-0.151,-0.09,0.106,0.015,-0.12,0.075,-0.09,-0.159,-0.148,-0.118,-0.125
-0.059,-0.15,-0.09,0.105,0.015,-0.12,0.076,-0.088,-0.154,-0.141,-0.109,-0.125
-0.055,-0.144,-0.089,0.099,0.017,-0.116,0.08,-0.091,-0.149,-0.134,-0.101,-0.125
-0.071,-0.128,-0.057,0.1,-0.006,-0.093,0.085,-0.079,-0.148,-0.129,-0.093,-0.121
-0.051,-0.096,-0.045,0.074,-0.003,-0.07,0.134,-0.046,-0.129,-0.112,-0.085,-0.106
-0.036,-0.087,-0.051,0.061,0.008,-0.069,0.16,-0.042,-0.094,-0.091,-0.081,-0.094
-0.041,-0.093,-0.053,0.067,0.006,-0.073,0.109,-0.023,-0.069,-0.09,-0.076,-0.094
-0.047,-0.092,-0.045,0.07,-0.001,-0.068,0.064,-0.06,-0.1,-0.102,-0.073,-0.095
-0.033,-0.1,-0.067,0.067,0.017,-0.083,0.046,-0.084,-0.12,-0.1,-0.07,-0.096
0.0,-0.096,-0.096,0.049,0.048,-0.096,0.044,-0.098,-0.141,-0.11,-0.064,-0.1
-0.017,-0.112,-0.095,0.065,0.039,-0.103,0.062,-0.083,-0.124,-0.102,-0.074,-0.099
-0.041,-0.137,-0.095,0.09,0.027,-0.116,0.074,-0.09,-0.145,-0.123,-0.101,-0.108
-0.069,-0.162,-0.093,0.116,0.012,-0.127,0.084,-0.089,-0.156,-0.141,-0.121,-0.13
-0.058,-0.158,-0.099,0.108,0.021,-0.128,0.082,-0.069,-0.157,-0.132,-0.111,-0.122
-0.075,-0.162,-0.087,0.119,0.006,-0.124,0.085,-0.107,-0.167,-0.156,-0.119,-0.127
-0.076,-0.189,-0.113,0.133,0.019,-0.151,0.108,0.021,-0.106,-0.13,-0.127,-0.136
-0.139,-0.187,-0.048,0.163,-0.045,-0.118,0.381,0.177,-0.183,-0.272,-0.248,-0.239
-0.027,-0.085,-0.059,0.056,0.016,-0.072,0.53,0.64,0.162,-0.08,-0.159,-0.191
0.615,0.71,0.095,-0.663,0.26,0.402,-0.177,-0.189,0.878,1.034,0.846,0.672
0.929,1.662,0.733,-1.295,0.097,1.197,-0.937,-1.783,2.341,2.61,2.024,1.619
0.483,1.265,0.782,-0.875,-0.15,1.023,-1.336,-2.015,2.251,2.271,1.602,1.227
-0.067,0.253,0.32,-0.093,-0.194,0.286,-1.115,-1.592,0.036,0.24,0.208,0.166
-0.135,-0.027,0.108,0.081,-0.122,0.041,-0.335,-0.528,-0.281,-0.192,-0.166,-0.124
-0.039,-0.048,-0.008,0.044,-0.015,-0.028,-0.023,0.025,-0.044,-0.024,-0.068,-0.069
-0.075,-0.109,-0.034,0.093,-0.02,-0.071,0.063,0.028,-0.179,-0.148,-0.121,-0.122
-0.043,-0.096,-0.053,0.07,0.005,-0.074,0.1,0.132,-0.063,-0.081,-0.08,-0.096
-0.038,-0.12,-0.082,0.079,0.022,-0.101,0.094,0.097,-0.14,-0.127,-0.099,-0.102
-0.03,-0.118,-0.088,0.074,0.029,-0.103,0.121,0.172,-0.067,-0.081,-0.083,-0.089
-0.012,-0.114,-0.102,0.063,0.045,-0.107,0.112,0.164,-0.093,-0.095,-0.08,-0.084
-0.003,-0.093,-0.09,0.048,0.044,-0.091,0.128,0.195,-0.049,-0.079,-0.073,-0.079
0.006,-0.079,-0.085,0.037,0.046,-0.082,0.115,0.211,-0.033,-0.062,-0.055,-0.07
0.011,-0.071,-0.083,0.03,0.047,-0.077,0.118,0.232,-0.023,-0.043,-0.045,-0.065
0.021,-0.059,-0.079,0.019,0.05,-0.069,0.113,0.273,0.016,-0.013,-0.03,-0.051
0.028,-0.049,-0.077,0.011,0.053,-0.063,0.11,0.29,0.03,0.008,-0.014,-0.04
0.049,-0.025,-0.075,-0.012,0.062,-0.05,0.11,0.342,0.077,0.049,0.017,-0.014
0.068,-0.001,-0.069,-0.033,0.068,-0.035,0.099,0.386,0.107,0.07,0.041,0.008
0.083,0.031,-0.052,-0.057,0.067,-0.01,0.09,0.431,0.148,0.107,0.065,0.027
0.107,0.067,-0.041,-0.087,0.074,0.013,0.074,0.479,0.189,0.151,0.107,0.064
0.136,0.106,-0.03,-0.121,0.083,0.038,0.05,0.528,0.246,0.211,0.156,0.108
0.176,0.156,-0.02,-0.165,0.097,0.068,0.021,0.56,0.3,0.268,0.198,0.146
0.218,0.207,-0.011,-0.212,0.114,0.098,-0.019,0.554,0.334,0.325,0.251,0.187
0.243,0.245,0.001,-0.244,0.121,0.123,-0.06,0.539,0.379,0.387,0.303,0.233
0.27,0.277,0.007,-0.274,0.131,0.142,-0.089,0.512,0.402,0.427,0.334,0.264
0.259,0.289,0.03,-0.274,0.114,0.159,-0.117,0.454,0.397,0.438,0.343,0.275
0.226,0.277,0.05,-0.252,0.088,0.163,-0.127,0.388,0.391,0.432,0.337,0.275
0.215,0.246,0.031,-0.231,0.092,0.138,-0.114,0.318,0.368,0.404,0.308,0.246
0.169,0.186,0.017,-0.178,0.076,0.101,-0.075,0.258,0.318,0.336,0.243,0.187
0.103,0.116,0.013,-0.11,0.045,0.064,-0.024,0.198,0.244,0.248,0.161,0.115
0.059,0.044,-0.015,-0.052,0.037,0.014,0.026,0.138,0.169,0.165,0.081,0.047
0.027,-0.019,-0.046,-0.004,0.037,-0.033,0.066,0.087,0.093,0.079,0.014,-0.011
0.0,-0.058,-0.059,0.029,0.03,-0.058,0.088,0.049,0.025,0.015,-0.038,-0.057
-0.034,-0.092,-0.058,0.063,0.012,-0.075,0.099,0.021,-0.013,-0.026,-0.082,-0.081
-0.053,-0.117,-0.064,0.085,0.006,-0.09,0.107,-0.007,-0.037,-0.057,-0.105,-0.097
-0.051,-0.125,-0.074,0.088,0.012,-0.099,0.124,-0.011,-0.056,-0.077,-0.108,-0.105
-0.049,-0.126,-0.077,0.088,0.014,-0.101,0.126,-0.004,-0.068,-0.087,-0.114,-0.11
-0.048,-0.121,-0.072,0.085,0.012,-0.096,0.124,-0.001,-0.071,-0.09,-0.123,-0.118
-0.042,-0.12,-0.078,0.081,0.018,-0.098,0.121,0.004,-0.069,-0.095,-0.125,-0.116
-0.021,-0.115,-0.094,0.068,0.037,-0.104,0.119,0.009,-0.071,-0.092,-0.12,-0.112
-0.028,-0.116,-0.088,0.072,0.031,-0.102,0.119,0.008,-0.07,-0.087,-0.118,-0.11
-0.045,-0.125,-0.08,0.086,0.018,-0.103,0.114,0.0,-0.07,-0.084,-0.113,-0.106
-0.051,-0.125,-0.074,0.088,0.012,-0.099,0.116,-0.003,-0.074,-0.081,-0.11,-0.105
-0.053,-0.125,-0.072,0.089,0.01,-0.098,0.112,-0.01,-0.077,-0.075,-0.114,-0.108
-0.044,-0.122,-0.078,0.083,0.017,-0.1,0.109,-0.015,-0.085,-0.078,-0.115,-0.111
-0.038,-0.119,-0.082,0.078,0.022,-0.1,0.111,-0.02,-0.089,-0.094,-0.117,-0.114
-0.037,-0.121,-0.085,0.079,0.024,-0.102,0.106,-0.028,-0.097,-0.096,-0.121,-0.117
-0.043,-0.124,-0.081,0.083,0.019,-0.102,0.1,-0.032,-0.108,-0.095,-0.12,-0.12
-0.051,-0.127,-0.076,0.089,0.013,-0.101,0.095,-0.051,-0.119,-0.112,-0.13,-0.12
-0.056,-0.129,-0.074,0.093,0.009,-0.101,0.09,-0.07,-0.13,-0.129,-0.141,-0.12
-0.063,-0.133,-0.07,0.098,0.003,-0.101,0.083,-0.074,-0.135,-0.131,-0.14,-0.12
-0.07,-0.135,-0.065,0.103,-0.002,-0.1,0.081,-0.079,-0.145,-0.129,-0.139,-0.12
-0.068,-0.137,-0.069,0.103,0.001,-0.103,0.085,-0.08,-0.146,-0.13,-0.135,-0.12
-0.063,-0.141,-0.078,0.102,0.007,-0.109,0.085,-0.08,-0.143,-0.129,-0.134,-0.12
-0.065,-0.139,-0.075,0.103,0.005,-0.107,0.085,-0.087,-0.152,-0.131,-0.14,-0.12
-0.075,-0.144,-0.069,0.11,-0.003,-0.106,0.085,-0.094,-0.16,-0.137,-0.146,-0.12
-0.08,-0.145,-0.065,0.113,-0.007,-0.105,0.085,-0.1,-0.161,-0.141,-0.145,-0.12
-0.088,-0.145,-0.057,0.117,-0.015,-0.101,0.089,-0.105,-0.158,-0.138,-0.145,-0.12
-0.095,-0.15,-0.055,0.123,-0.02,-0.102,0.09,-0.105,-0.166,-0.145,-0.145,-0.12
-0.105,-0.15,-0.044,0.128,-0.031,-0.097,0.09,-0.106,-0.176,-0.156,-0.144,-0.121
-0.102,-0.151,-0.049,0.127,-0.026,-0.1,0.09,-0.11,-0.175,-0.153,-0.152,-0.125
-0.086,-0.155,-0.069,0.12,-0.008,-0.112,0.09,-0.11,-0.174,-0.15,-0.161,-0.124
-0.082,-0.155,-0.073,0.119,-0.004,-0.114,0.089,-0.107,-0.17,-0.147,-0.159,-0.127
-0.067,-0.152,-0.085,0.11,0.009,-0.119,0.085,-0.105,-0.17,-0.144,-0.163,-0.131
-0.079,-0.149,-0.071,0.114,-0.004,-0.11,0.085,-0.101,-0.168,-0.147,-0.165,-0.129
-0.092,-0.15,-0.058,0.121,-0.017,-0.104,0.082,-0.099,-0.164,-0.155,-0.165,-0.134
-0.084,-0.15,-0.066,0.117,-0.009,-0.107,0.079,-0.096,-0.165,-0.159,-0.168,-0.135
-0.075,-0.15,-0.075,0.113,0.0,-0.112,0.08,-0.095,-0.161,-0.155,-0.171,-0.135
-0.074,-0.15,-0.076,0.112,0.001,-0.113,0.077,-0.106,-0.16,-0.155,-0.174,-0.14
-0.079,-0.144,-0.065,0.112,-0.006,-0.105,0.073,-0.11,-0.161,-0.156,-0.177,-0.141
-0.06,-0.135,-0.075,0.098,0.008,-0.105,0.069,-0.109,-0.169,-0.156,-0.18,-0.139
-0.058,-0.131,-0.073,0.095,0.008,-0.101,0.067,-0.109,-0.177,-0.154,-0.179,-0.133
-0.06,-0.12,-0.06,0.09,0.001,-0.09,0.06,-0.113,-0.169,-0.16,-0.172,-0.125
-0.083,-0.105,-0.022,0.094,-0.03,-0.063,0.065,-0.122,-0.165,-0.166,-0.167,-0.12
-0.108,-0.08,0.029,0.094,-0.068,-0.025,0.104,-0.088,-0.156,-0.138,-0.162,-0.112
-0.08,-0.052,0.028,0.065,-0.054,-0.011,0.143,-0.05,-0.128,-0.119,-0.146,-0.106
-0.071,-0.038,0.032,0.055,-0.051,-0.003,0.13,-0.023,-0.096,-0.112,-0.107,-0.101
-0.08,-0.025,0.055,0.052,-0.067,0.015,0.079,-0.046,-0.103,-0.117,-0.098,-0.1
-0.043,-0.044,-0.001,0.044,-0.02,-0.022,0.041,-0.094,-0.126,-0.115,-0.111,-0.099
0.008,-0.043,-0.051,0.018,0.03,-0.047,0.032,-0.116,-0.165,-0.112,-0.105,-0.092
0.002,-0.057,-0.059,0.028,0.031,-0.058,0.051,-0.119,-0.16,-0.125,-0.132,-0.101
-0.05,-0.103,-0.052,0.077,0.001,-0.077,0.055,-0.097,-0.156,-0.131,-0.157,-0.118
-0.092,-0.13,-0.038,0.111,-0.027,-0.084,0.065,-0.128,-0.189,-0.167,-0.185,-0.14
-0.051,-0.134,-0.083,0.093,0.016,-0.108,0.07,-0.077,-0.144,-0.156,-0.188,-0.137
-0.074,-0.124,-0.05,0.099,-0.012,-0.086,0.063,-0.134,-0.205,-0.2,-0.205,-0.151
-0.077,-0.146,-0.069,0.111,-0.004,-0.107,0.071,-0.034,-0.127,-0.142,-0.179,-0.143
-0.127,-0.164,-0.037,0.145,-0.045,-0.1,0.247,0.096,-0.197,-0.253,-0.267,-0.217
-0.152,-0.162,-0.01,0.157,-0.071,-0.086,0.49,0.454,0.019,-0.235,-0.333,-0.294
0.419,0.458,0.039,-0.439,0.19,0.248,-0.018,0.3,0.66,0.658,0.449,0.361
0.833,1.459,0.627,-1.146,0.102,1.043,-0.725,-1.322,1.89,2.25,1.675,1.36
0.488,1.386,0.898,-0.937,-0.205,1.142,-1.02,-2.085,2.703,2.739,1.72,1.308
-0.066,0.485,0.551,-0.21,-0.309,0.518,-1.142,-1.873,0.673,0.766,0.399,0.302
-0.205,0.038,0.244,0.083,-0.225,0.141,-0.632,-1.069,-0.48,-0.304,-0.237,-0.179
-0.095,-0.018,0.078,0.056,-0.086,0.03,-0.123,-0.151,-0.022,-0.027,-0.101,-0.108
-0.119,-0.083,0.036,0.101,-0.077,-0.024,-0.001,-0.034,-0.169,-0.173,-0.172,-0.14
-0.051,-0.074,-0.023,0.062,-0.014,-0.048,0.068,0.071,-0.068,-0.116,-0.146,-0.122
-0.039,-0.064,-0.026,0.052,-0.006,-0.045,0.075,0.071,-0.115,-0.155,-0.15,-0.125
-0.05,-0.054,-0.004,0.052,-0.023,-0.029,0.097,0.089,-0.097,-0.146,-0.147,-0.126
-0.07,-0.041,0.029,0.055,-0.049,-0.006,0.088,0.113,-0.087,-0.138,-0.132,-0.112
-0.098,-0.038,0.06,0.068,-0.079,0.011,0.085,0.123,-0.105,-0.137,-0.139,-0.113
-0.066,-0.028,0.038,0.046,-0.051,0.005,0.081,0.174,-0.059,-0.085,-0.122,-0.1
-0.076,-0.023,0.054,0.049,-0.065,0.015,0.075,0.174,-0.058,-0.091,-0.125,-0.095
-0.044,-0.013,0.031,0.028,-0.038,0.009,0.073,0.206,-0.005,-0.061,-0.113,-0.076
-0.011,0.014,0.026,-0.002,-0.019,0.02,0.066,0.228,0.015,-0.048,-0.091,-0.066
0.009,0.052,0.044,-0.031,-0.018,0.048,0.061,0.26,0.044,-0.007,-0.064,-0.056
0.024,0.077,0.052,-0.051,-0.014,0.064,0.055,0.294,0.068,0.02,-0.042,-0.035
0.007,0.104,0.096,-0.056,-0.045,0.1,0.036,0.347,0.116,0.052,-0.008,0.002
0.02,0.12,0.1,-0.07,-0.04,0.109,0.004,0.391,0.159,0.096,0.016,0.034
0.085,0.164,0.079,-0.125,0.003,0.121,-0.024,0.435,0.21,0.148,0.051,0.06
0.125,0.223,0.098,-0.174,0.013,0.16,-0.056,0.471,0.265,0.216,0.114,0.103
0.126,0.262,0.136,-0.194,-0.006,0.199,-0.088,0.498,0.31,0.272,0.172,0.153
0.157,0.301,0.144,-0.229,0.006,0.222,-0.129,0.489,0.345,0.325,0.21,0.185
0.197,0.338,0.141,-0.268,0.028,0.24,-0.171,0.43,0.359,0.369,0.244,0.212
0.206,0.351,0.144,-0.279,0.031,0.247,-0.197,0.376,0.351,0.373,0.257,0.223
0.166,0.343,0.177,-0.255,-0.006,0.26,-0.208,0.307,0.337,0.375,0.247,0.215
0.148,0.331,0.182,-0.24,-0.017,0.256,-0.202,0.229,0.313,0.347,0.222,0.186
0.124,0.283,0.159,-0.204,-0.018,0.221,-0.161,0.176,0.25,0.283,0.167,0.145
0.053,0.209,0.156,-0.132,-0.052,0.182,-0.117,0.124,0.185,0.209,0.095,0.082
0.008,0.134,0.125,-0.071,-0.059,0.129,-0.075,0.068,0.127,0.107,0.008,0.009
-0.05,0.069,0.119,-0.01,-0.084,0.093,-0.018,0.02,0.056,0.035,-0.054,-0.037
-0.054,0.024,0.078,0.014,-0.066,0.051,0.018,-0.031,0.006,-0.036,-0.106,-0.088
-0.062,-0.02,0.042,0.041,-0.051,0.011,0.05,-0.056,-0.037,-0.104,-0.153,-0.123
-0.123,-0.056,0.067,0.089,-0.094,0.005,0.071,-0.067,-0.091,-0.125,-0.167,-0.136
-0.139,-0.061,0.078,0.1,-0.108,0.008,0.075,-0.083,-0.117,-0.146,-0.185,-0.146
-0.116,-0.067,0.049,0.091,-0.082,-0.009,0.09,-0.076,-0.112,-0.142,-0.186,-0.141
-0.079,-0.08,-0.001,0.079,-0.039,-0.04,0.091,-0.066,-0.109,-0.137,-0.182,-0.14
-0.118,-0.077,0.041,0.097,-0.079,-0.017,0.087,-0.058,-0.105,-0.137,-0.181,-0.14
-0.145,-0.071,0.074,0.108,-0.109,0.002,0.087,-0.048,-0.107,-0.127,-0.178,-0.14
-0.096,-0.068,0.028,0.082,-0.062,-0.02,0.082,-0.045,-0.111,-0.142,-0.184,-0.14
-0.076,-0.062,0.014,0.069,-0.045,-0.023,0.09,-0.038,-0.113,-0.156,-0.184,-0.141
-0.106,-0.061,0.045,0.084,-0.076,-0.008,0.104,-0.034,-0.116,-0.152,-0.187,-0.145
-0.132,-0.065,0.066,0.098,-0.098,0.0,0.098,-0.025,-0.113,-0.145,-0.19,-0.147
-0.102,-0.065,0.037,0.083,-0.069,-0.014,0.09,-0.032,-0.122,-0.151,-0.19,-0.15
-0.085,-0.065,0.02,0.075,-0.052,-0.023,0.085,-0.061,-0.135,-0.17,-0.194,-0.154
-0.082,-0.065,0.017,0.073,-0.049,-0.023,0.077,-0.07,-0.138,-0.175,-0.196,-0.155
-0.079,-0.066,0.013,0.072,-0.046,-0.026,0.073,-0.062,-0.139,-0.177,-0.194,-0.155
-0.097,-0.067,0.03,0.082,-0.064,-0.018,0.068,-0.067,-0.155,-0.187,-0.202,-0.155
-0.124,-0.077,0.047,0.1,-0.085,-0.015,0.065,-0.079,-0.17,-0.195,-0.205,-0.155
-0.115,-0.091,0.024,0.103,-0.069,-0.033,0.062,-0.085,-0.175,-0.196,-0.202,-0.155
-0.083,-0.09,-0.007,0.087,-0.038,-0.048,0.057,-0.084,-0.172,-0.193,-0.193,-0.155
-0.103,-0.09,0.013,0.096,-0.058,-0.038,0.054,-0.092,-0.18,-0.204,-0.209,-0.156
-0.109,-0.09,0.019,0.1,-0.064,-0.035,0.066,-0.105,-0.196,-0.216,-0.232,-0.16
-0.102,-0.089,0.012,0.095,-0.057,-0.038,0.071,-0.106,-0.194,-0.215,-0.224,-0.16
-0.103,-0.093,0.01,0.098,-0.056,-0.041,0.064,-0.103,-0.188,-0.214,-0.22,-0.16
-0.11,-0.095,0.015,0.103,-0.062,-0.04,0.06,-0.112,-0.196,-0.216,-0.217,-0.163
-0.14,-0.095,0.045,0.117,-0.092,-0.025,0.057,-0.129,-0.22,-0.213,-0.209,-0.166
-0.126,-0.095,0.03,0.11,-0.078,-0.032,0.049,-0.131,-0.219,-0.219,-0.214,-0.163
-0.096,-0.095,0.001,0.095,-0.048,-0.047,0.054,-0.13,-0.216,-0.235,-0.226,-0.16
-0.121,-0.096,0.025,0.108,-0.073,-0.035,0.07,-0.13,-0.213,-0.235,-0.224,-0.16
-0.149,-0.1,0.049,0.124,-0.099,-0.025,0.067,-0.13,-0.21,-0.234,-0.22,-0.16
-0.12,-0.104,0.016,0.112,-0.068,-0.044,0.062,-0.129,-0.211,-0.231,-0.219,-0.16
-0.101,-0.104,-0.004,0.103,-0.048,-0.054,0.062,-0.124,-0.194,-0.23,-0.213,-0.16
-0.096,-0.094,0.002,0.095,-0.048,-0.046,0.053,-0.116,-0.21,-0.232,-0.221,-0.156
-0.095,-0.092,0.003,0.094,-0.049,-0.044,0.06,-0.111,-0.213,-0.229,-0.228,-0.149
-0.108,-0.067,0.041,0.087,-0.075,-0.013,0.079,-0.105,-0.196,-0.232,-0.22,-0.143
-0.104,-0.036,0.068,0.07,-0.086,0.016,0.12,-0.092,-0.175,-0.214,-0.208,-0.135
-0.098,-0.005,0.093,0.051,-0.095,0.043,0.149,-0.059,-0.15,-0.179,-0.184,-0.132
-0.06,0.057,0.117,0.001,-0.088,0.087,0.1,-0.035,-0.141,-0.145,-0.166,-0.135
-0.046,0.044,0.09,0.001,-0.068,0.067,0.054,-0.095,-0.161,-0.166,-0.17,-0.136
-0.019,0.02,0.039,-0.001,-0.029,0.029,0.031,-0.119,-0.195,-0.207,-0.155,-0.134
-0.002,0.015,0.018,-0.007,-0.01,0.017,0.019,-0.135,-0.218,-0.225,-0.172,-0.137
-0.057,-0.043,0.014,0.05,-0.035,-0.014,0.039,-0.114,-0.187,-0.207,-0.194,-0.133
-0.105,-0.077,0.028,0.091,-0.066,-0.025,0.053,-0.134,-0.228,-0.238,-0.209,-0.153
-0.103,-0.099,0.004,0.101,-0.053,-0.048,0.054,-0.12,-0.209,-0.23,-0.228,-0.175
-0.105,-0.087,0.018,0.096,-0.061,-0.034,0.041,-0.122,-0.221,-0.253,-0.231,-0.174
-0.121,-0.109,0.012,0.115,-0.066,-0.049,0.05,-0.149,-0.205,-0.255,-0.229,-0.173
-0.095,-0.12,-0.025,0.107,-0.034,-0.072,0.121,0.031,-0.17,-0.238,-0.24,-0.186
-0.213,-0.145,0.068,0.179,-0.14,-0.039,0.419,0.233,-0.177,-0.385,-0.387,-0.318
0.082,0.1,0.018,-0.091,0.032,0.059,0.317,0.58,0.337,0.082,-0.05,-0.053
0.678,1.088,0.409,-0.883,0.134,0.748,-0.43,-0.455,1.204,1.444,1.117,0.919
0.642,1.632,0.99,-1.137,-0.175,1.311,-0.9,-1.997,2.618,2.834,1.901,1.478
0.135,0.933,0.798,-0.535,-0.331,0.865,-1.129,-2.11,1.822,1.811,1.023,0.759
-0.232,0.175,0.407,0.029,-0.319,0.29,-0.922,-1.56,-0.387,-0.196,-0.166,-0.108
-0.177,0.018,0.196,0.079,-0.187,0.107,-0.321,-0.529,-0.282,-0.251,-0.21,-0.181
-0.063,0.007,0.07,0.028,-0.066,0.038,-0.035,-0.046,-0.121,-0.177,-0.165,-0.152
-0.053,-0.014,0.039,0.033,-0.046,0.013,0.057,-0.02,-0.189,-0.239,-0.202,-0.172
-0.07,-0.01,0.061,0.04,-0.065,0.025,0.076,0.082,-0.112,-0.168,-0.174,-0.15
-0.057,-0.024,0.034,0.04,-0.045,0.005,0.08,0.064,-0.195,-0.218,-0.212,-0.164
-0.074,-0.027,0.047,0.05,-0.06,0.01,0.099,0.109,-0.092,-0.177,-0.18,-0.143
-0.113,-0.026,0.087,0.069,-0.1,0.03,0.098,0.112,-0.134,-0.198,-0.187,-0.147
-0.054,-0.001,0.053,0.027,-0.054,0.026,0.096,0.131,-0.095,-0.154,-0.16,-0.13
-0.026,0.01,0.036,0.008,-0.031,0.023,0.091,0.145,-0.085,-0.154,-0.149,-0.114
-0.048,0.025,0.073,0.011,-0.061,0.049,0.088,0.173,-0.046,-0.12,-0.136,-0.092
-0.066,0.05,0.116,0.008,-0.092,0.082,0.084,0.201,-0.013,-0.108,-0.117,-0.074
-0.02,0.064,0.084,-0.023,-0.052,0.074,0.078,0.225,-0.001,-0.076,-0.099,-0.063
0.018,0.084,0.067,-0.051,-0.025,0.075,0.068,0.265,0.038,-0.036,-0.059,-0.042
0.001,0.108,0.107,-0.054,-0.053,0.107,0.056,0.305,0.072,-0.022,-0.023,-0.018
0.015,0.146,0.13,-0.08,-0.058,0.138,0.037,0.348,0.12,0.04,0.009,0.018
0.068,0.183,0.114,-0.126,-0.023,0.148,0.013,0.4,0.171,0.09,0.041,0.044
0.112,0.213,0.101,-0.163,0.005,0.157,-0.017,0.443,0.229,0.149,0.096,0.086
0.134,0.256,0.122,-0.195,0.005,0.189,-0.059,0.465,0.284,0.22,0.151,0.139
0.182,0.31,0.128,-0.246,0.027,0.219,-0.1,0.469,0.328,0.28,0.203,0.179
0.186,0.354,0.168,-0.27,0.009,0.261,-0.138,0.454,0.353,0.333,0.25,0.224
0.177,0.371,0.194,-0.274,-0.009,0.283,-0.175,0.411,0.345,0.352,0.27,0.235
0.191,0.361,0.171,-0.276,0.01,0.266,-0.192,0.338,0.327,0.355,0.278,0.224
0.153,0.343,0.19,-0.248,-0.018,0.266,-0.189,0.276,0.324,0.342,0.265,0.227
0.141,0.3,0.159,-0.221,-0.009,0.23,-0.165,0.216,0.277,0.29,0.22,0.188
0.115,0.229,0.114,-0.172,0.0,0.171,-0.118,0.149,0.213,0.215,0.144,0.12
0.039,0.162,0.123,-0.101,-0.042,0.142,-0.067,0.101,0.131,0.112,0.058,0.053
0.005,0.108,0.103,-0.057,-0.049,0.105,-0.018,0.057,0.049,0.018,-0.014,-0.013
-0.043,0.041,0.083,0.001,-0.063,0.061,0.027,0.009,-0.004,-0.053,-0.075,-0.062
-0.083,-0.012,0.071,0.047,-0.077,0.029,0.057,-0.038,-0.073,-0.109,-0.12,-0.097
-0.084,-0.029,0.055,0.056,-0.069,0.013,0.076,-0.06,-0.11,-0.143,-0.144,-0.113
-0.097,-0.044,0.053,0.07,-0.075,0.004,0.081,-0.059,-0.134,-0.17,-0.162,-0.125
-0.092,-0.05,0.042,0.071,-0.067,-0.004,0.08,-0.061,-0.15,-0.181,-0.172,-0.133
-0.087,-0.05,0.038,0.068,-0.063,-0.006,0.09,-0.056,-0.143,-0.189,-0.171,-0.139
-0.078,-0.051,0.028,0.064,-0.053,-0.011,0.091,-0.055,-0.14,-0.185,-0.168,-0.145
-0.073,-0.05,0.023,0.061,-0.048,-0.013,0.09,-0.053,-0.133,-0.178,-0.165,-0.14
-0.11,-0.05,0.06,0.08,-0.085,0.005,0.089,-0.047,-0.129,-0.174,-0.162,-0.135
-0.119,-0.05,0.069,0.084,-0.094,0.009,0.084,-0.042,-0.121,-0.166,-0.16,-0.13
-0.102,-0.047,0.055,0.074,-0.078,0.004,0.085,-0.039,-0.127,-0.168,-0.158,-0.126
-0.092,-0.044,0.048,0.068,-0.069,0.002,0.083,-0.033,-0.14,-0.177,-0.155,-0.121
-0.097,-0.041,0.056,0.069,-0.076,0.007,0.079,-0.031,-0.142,-0.183,-0.155,-0.122
-0.109,-0.039,0.071,0.074,-0.09,0.015,0.077,-0.034,-0.143,-0.186,-0.155,-0.126
-0.087,-0.035,0.053,0.061,-0.069,0.009,0.074,-0.047,-0.153,-0.191,-0.155,-0.125
-0.089,-0.037,0.052,0.062,-0.07,0.007,0.071,-0.063,-0.152,-0.194,-0.155,-0.125
-0.071,-0.043,0.028,0.057,-0.049,-0.008,0.069,-0.068,-0.162,-0.2,-0.162,-0.126
-0.051,-0.046,0.005,0.049,-0.028,-0.02,0.066,-0.077,-0.176,-0.197,-0.173,-0.13
-0.093,-0.044,0.049,0.068,-0.071,0.002,0.065,-0.082,-0.181,-0.201,-0.175,-0.131
-0.098,-0.047,0.051,0.072,-0.074,0.002,0.064,-0.078,-0.2,-0.211,-0.175,-0.129
-0.096,-0.058,0.038,0.077,-0.067,-0.01,0.06,-0.086,-0.201,-0.209,-0.175,-0.127
-0.105,-0.062,0.043,0.083,-0.074,-0.009,0.059,-0.095,-0.199,-0.21,-0.175,-0.123
-0.095,-0.069,0.026,0.082,-0.06,-0.021,0.068,-0.095,-0.201,-0.21,-0.174,-0.129
-0.102,-0.071,0.031,0.086,-0.066,-0.02,0.077,-0.095,-0.199,-0.21,-0.17,-0.145
-0.081,-0.078,0.003,0.079,-0.042,-0.037,0.072,-0.095,-0.201,-0.214,-0.167,-0.142
-0.068,-0.08,-0.012,0.074,-0.028,-0.046,0.071,-0.095,-0.2,-0.216,-0.164,-0.136
-0.098,-0.082,0.016,0.09,-0.057,-0.033,0.066,-0.092,-0.201,-0.215,-0.161,-0.133
-0.069,-0.086,-0.017,0.078,-0.026,-0.052,0.066,-0.086,-0.201,-0.208,-0.154,-0.127
-0.055,-0.078,-0.024,0.067,-0.015,-0.051,0.061,-0.076,-0.198,-0.202,-0.161,-0.124
-0.074,-0.074,0.0,0.074,-0.037,-0.036,0.058,-0.072,-0.202,-0.196,-0.16,-0.115
-0.089,-0.039,0.05,0.064,-0.069,0.005,0.103,-0.06,-0.176,-0.191,-0.138,-0.107
-0.104,-0.014,0.09,0.059,-0.097,0.038,0.146,-0.058,-0.15,-0.174,-0.131,-0.097
-0.058,0.015,0.073,0.022,-0.066,0.044,0.131,-0.054,-0.139,-0.127,-0.125,-0.092
-0.038,0.048,0.086,-0.005,-0.062,0.067,0.074,-0.055,-0.134,-0.133,-0.117,-0.085
-0.028,0.031,0.059,-0.002,-0.044,0.045,0.038,-0.094,-0.167,-0.169,-0.116,-0.084
-0.014,0.014,0.028,0.0,-0.021,0.021,0.034,-0.118,-0.199,-0.177,-0.102,-0.075
-0.034,-0.018,0.015,0.026,-0.024,-0.002,0.035,-0.128,-0.207,-0.186,-0.116,-0.079
-0.041,-0.048,-0.006,0.044,-0.017,-0.026,0.054,-0.099,-0.186,-0.174,-0.137,-0.112
-0.098,-0.065,0.033,0.081,-0.065,-0.016,0.069,-0.134,-0.223,-0.221,-0.169,-0.14
-0.103,-0.082,0.021,0.092,-0.062,-0.03,0.067,-0.085,-0.194,-0.214,-0.182,-0.15
-0.085,-0.081,0.005,0.083,-0.044,-0.038,0.075,-0.131,-0.238,-0.238,-0.188,-0.149
-0.092,-0.108,-0.015,0.1,-0.038,-0.061,0.069,-0.078,-0.187,-0.213,-0.184,-0.154
-0.127,-0.113,0.014,0.12,-0.071,-0.049,0.191,0.057,-0.215,-0.275,-0.228,-0.192
-0.187,-0.124,0.063,0.156,-0.125,-0.031,0.513,0.377,-0.11,-0.35,-0.333,-0.283
0.246,0.312,0.067,-0.279,0.089,0.189,0.223,0.477,0.478,0.349,0.231,0.169
0.779,1.374,0.595,-1.077,0.092,0.984,-0.603,-1.083,1.594,1.893,1.494,1.217
0.631,1.643,1.011,-1.137,-0.19,1.327,-1.144,-2.197,2.781,2.861,1.942,1.511
0.066,0.724,0.658,-0.395,-0.296,0.69,-1.304,-2.035,1.152,1.215,0.763,0.585
-0.203,0.074,0.277,0.064,-0.24,0.175,-0.78,-1.248,-0.534,-0.331,-0.182,-0.123
-0.112,-0.002,0.11,0.056,-0.111,0.054,-0.162,-0.213,-0.11,-0.124,-0.099,-0.099
-0.101,-0.064,0.037,0.083,-0.069,-0.013,0.014,-0.011,-0.165,-0.181,-0.125,-0.104
-0.067,-0.065,0.002,0.066,-0.034,-0.031,0.074,0.066,-0.135,-0.162,-0.128,-0.106
-0.042,-0.054,-0.011,0.048,-0.015,-0.032,0.087,0.102,-0.117,-0.145,-0.107,-0.094
-0.03,-0.057,-0.026,0.044,-0.001,-0.041,0.105,0.108,-0.142,-0.167,-0.121,-0.106
-0.015,-0.042,-0.027,0.029,0.006,-0.034,0.106,0.143,-0.095,-0.13,-0.097,-0.088
-0.041,-0.045,-0.004,0.043,-0.018,-0.024,0.109,0.134,-0.128,-0.153,-0.107,-0.09
-0.017,-0.031,-0.013,0.024,-0.002,-0.022,0.106,0.185,-0.069,-0.115,-0.09,-0.076
-0.038,-0.019,0.019,0.028,-0.028,0.0,0.096,0.189,-0.074,-0.122,-0.087,-0.073
-0.051,-0.005,0.046,0.028,-0.048,0.02,0.096,0.22,-0.032,-0.084,-0.068,-0.051
-0.02,0.012,0.033,0.004,-0.027,0.022,0.086,0.248,-0.018,-0.07,-0.054,-0.035
-0.019,0.036,0.055,-0.008,-0.037,0.045,0.084,0.294,0.011,-0.038,-0.03,-0.021
-0.019,0.064,0.083,-0.022,-0.051,0.073,0.076,0.331,0.049,-0.003,0.007,-0.002
0.008,0.088,0.08,-0.048,-0.036,0.084,0.069,0.376,0.094,0.033,0.037,0.027
0.041,0.118,0.077,-0.08,-0.018,0.098,0.062,0.433,0.147,0.08,0.065,0.061
0.067,0.157,0.09,-0.112,-0.012,0.124,0.036,0.481,0.199,0.13,0.113,0.09
0.093,0.196,0.103,-0.145,-0.005,0.149,-0.001,0.531,0.265,0.207,0.17,0.142
0.162,0.25,0.088,-0.207,0.037,0.169,-0.04,0.561,0.325,0.274,0.231,0.188
0.204,0.302,0.098,-0.254,0.053,0.2,-0.078,0.559,0.374,0.341,0.285,0.233
0.196,0.34,0.144,-0.268,0.026,0.242,-0.118,0.524,0.4,0.389,0.317,0.267
0.189,0.344,0.155,-0.267,0.017,0.249,-0.149,0.472,0.391,0.404,0.333,0.276
0.193,0.337,0.144,-0.265,0.024,0.24,-0.165,0.413,0.376,0.406,0.335,0.277
0.179,0.315,0.137,-0.247,0.021,0.226,-0.16,0.353,0.371,0.386,0.324,0.252
0.129,0.251,0.122,-0.19,0.003,0.186,-0.121,0.275,0.314,0.316,0.257,0.2
0.09,0.184,0.094,-0.138,-0.002,0.139,-0.073,0.196,0.226,0.207,0.166,0.13
0.053,0.1,0.046,-0.077,0.003,0.073,-0.026,0.133,0.138,0.108,0.085,0.055
-0.002,0.022,0.024,-0.011,-0.013,0.022,0.02,0.073,0.053,0.026,0.008,-0.004
-0.022,-0.028,-0.006,0.025,-0.008,-0.017,0.057,0.026,-0.017,-0.039,-0.043,-0.044
-0.023,-0.064,-0.04,0.044,0.009,-0.052,0.071,-0.021,-0.075,-0.093,-0.076,-0.074
-0.043,-0.082,-0.039,0.062,-0.002,-0.06,0.069,-0.045,-0.101,-0.123,-0.096,-0.087
-0.062,-0.089,-0.027,0.075,-0.017,-0.058,0.077,-0.041,-0.127,-0.142,-0.112,-0.104
-0.087,-0.08,0.007,0.083,-0.047,-0.036,0.087,-0.039,-0.142,-0.152,-0.117,-0.117
-0.093,-0.087,0.006,0.09,-0.049,-0.04,0.09,-0.035,-0.139,-0.149,-0.113,-0.114
-0.091,-0.1,-0.009,0.096,-0.041,-0.054,0.093,-0.031,-0.141,-0.151,-0.117,-0.115
-0.066,-0.093,-0.028,0.08,-0.019,-0.061,0.096,-0.031,-0.14,-0.15,-0.125,-0.115
-0.044,-0.089,-0.045,0.067,0.001,-0.067,0.099,-0.035,-0.14,-0.15,-0.124,-0.115
-0.058,-0.083,-0.025,0.071,-0.016,-0.054,0.1,-0.035,-0.136,-0.147,-0.119,-0.112
-0.048,-0.077,-0.029,0.063,-0.009,-0.053,0.094,-0.036,-0.135,-0.144,-0.117,-0.107
-0.062,-0.073,-0.011,0.067,-0.025,-0.042,0.089,-0.034,-0.134,-0.141,-0.113,-0.104
-0.105,-0.069,0.036,0.087,-0.071,-0.017,0.084,-0.037,-0.132,-0.139,-0.11,-0.101
-0.105,-0.067,0.038,0.086,-0.071,-0.014,0.078,-0.029,-0.127,-0.135,-0.11,-0.096
-0.092,-0.064,0.028,0.078,-0.059,-0.018,0.073,-0.031,-0.137,-0.137,-0.11,-0.096
-0.112,-0.061,0.051,0.086,-0.081,-0.005,0.067,-0.046,-0.153,-0.156,-0.11,-0.1
-0.083,-0.06,0.023,0.071,-0.053,-0.018,0.064,-0.056,-0.159,-0.162,-0.111,-0.1
-0.062,-0.067,-0.005,0.064,-0.028,-0.036,0.06,-0.079,-0.179,-0.165,-0.105,-0.1
-0.078,-0.075,0.003,0.077,-0.04,-0.036,0.057,-0.081,-0.183,-0.172,-0.104,-0.1
-0.079,-0.079,0.0,0.079,-0.04,-0.039,0.052,-0.083,-0.185,-0.171,-0.111,-0.1
-0.087,-0.083,0.004,0.085,-0.046,-0.039,0.05,-0.086,-0.19,-0.169,-0.11,-0.1
-0.078,-0.085,-0.007,0.081,-0.035,-0.046,0.06,-0.086,-0.191,-0.163,-0.109,-0.1
-0.075,-0.086,-0.011,0.08,-0.031,-0.048,0.066,-0.091,-0.2,-0.173,-0.106,-0.1
-0.087,-0.099,-0.013,0.093,-0.037,-0.056,0.064,-0.089,-0.204,-0.187,-0.103,-0.1
-0.1,-0.111,-0.011,0.105,-0.044,-0.06,0.061,-0.09,-0.205,-0.184,-0.109,-0.101
-0.091,-0.113,-0.023,0.102,-0.034,-0.068,0.056,-0.09,-0.205,-0.185,-0.116,-0.105
-0.085,-0.111,-0.026,0.099,-0.029,-0.069,0.053,-0.09,-0.205,-0.18,-0.115,-0.11
-0.087,-0.109,-0.022,0.098,-0.033,-0.065,0.05,-0.094,-0.206,-0.18,-0.115,-0.106
-0.098,-0.108,-0.01,0.103,-0.044,-0.058,0.044,-0.099,-0.202,-0.18,-0.115,-0.105
-0.074,-0.102,-0.028,0.088,-0.022,-0.065,0.051,-0.098,-0.2,-0.18,-0.115,-0.105
-0.045,-0.114,-0.069,0.08,0.012,-0.091,0.056,-0.094,-0.2,-0.18,-0.115,-0.101
-0.113,-0.135,-0.023,0.124,-0.044,-0.079,0.051,-0.096,-0.196,-0.18,-0.115,-0.099
-0.119,-0.132,-0.013,0.125,-0.053,-0.072,0.048,-0.095,-0.195,-0.18,-0.115,-0.101
-0.079,-0.126,-0.046,0.103,-0.016,-0.086,0.045,-0.095,-0.195,-0.179,-0.115,-0.105
-0.098,-0.123,-0.025,0.111,-0.036,-0.074,0.039,-0.095,-0.201,-0.187,-0.115,-0.105
-0.08,-0.116,-0.036,0.098,-0.022,-0.076,0.044,-0.09,-0.203,-0.193,-0.115,-0.107
-0.063,-0.116,-0.053,0.09,-0.004,-0.084,0.051,-0.09,-0.199,-0.188,-0.115,-0.11
-0.092,-0.122,-0.03,0.107,-0.031,-0.076,0.049,-0.088,-0.2,-0.186,-0.115,-0.11
-0.113,-0.129,-0.016,0.121,-0.048,-0.072,0.051,-0.086,-0.196,-0.183,-0.115,-0.106
-0.097,-0.134,-0.037,0.115,-0.029,-0.085,0.048,-0.084,-0.195,-0.18,-0.115,-0.105
-0.07,-0.136,-0.066,0.103,-0.001,-0.101,0.062,-0.089,-0.196,-0.179,-0.116,-0.105
-0.09,-0.137,-0.047,0.114,-0.021,-0.092,0.077,-0.091,-0.19,-0.174,-0.115,-0.101
-0.112,-0.141,-0.029,0.127,-0.042,-0.085,0.075,-0.087,-0.185,-0.168,-0.106,-0.1
-0.091,-0.138,-0.047,0.115,-0.022,-0.092,0.078,-0.079,-0.178,-0.162,-0.098,-0.099
-0.049,-0.124,-0.075,0.087,0.013,-0.099,0.081,-0.076,-0.174,-0.156,-0.09,-0.091
-0.076,-0.1,-0.024,0.088,-0.026,-0.061,0.079,-0.07,-0.167,-0.151,-0.082,-0.084
-0.078,-0.061,0.018,0.069,-0.047,-0.021,0.102,-0.048,-0.159,-0.146,-0.08,-0.078
-0.044,-0.037,0.008,0.04,-0.026,-0.014,0.147,-0.023,-0.126,-0.144,-0.079,-0.07
-0.061,-0.02,0.041,0.04,-0.051,0.011,0.101,-0.015,-0.1,-0.136,-0.07,-0.061
-0.035,-0.018,0.017,0.026,-0.025,-0.001,0.04,-0.064,-0.15,-0.134,-0.062,-0.052
-0.027,-0.032,-0.005,0.03,-0.011,-0.018,0.047,-0.088,-0.163,-0.123,-0.053,-0.045
0.008,-0.038,-0.046,0.015,0.027,-0.042,0.043,-0.103,-0.182,-0.124,-0.051,-0.037
0.001,-0.079,-0.08,0.039,0.041,-0.08,0.047,-0.057,-0.171,-0.127,-0.065,-0.053
-0.056,-0.117,-0.061,0.087,0.003,-0.089,0.042,-0.091,-0.193,-0.178,-0.091,-0.084
-0.066,-0.147,-0.08,0.107,0.007,-0.113,0.054,-0.088,-0.191,-0.186,-0.107,-0.094
-0.063,-0.134,-0.072,0.099,0.005,-0.103,0.059,-0.09,-0.201,-0.179,-0.104,-0.086
-0.06,-0.145,-0.085,0.103,0.013,-0.115,0.041,-0.128,-0.213,-0.198,-0.126,-0.093
-0.081,-0.165,-0.083,0.123,0.001,-0.124,0.085,0.015,-0.168,-0.179,-0.119,-0.105
-0.19,-0.158,0.032,0.174,-0.111,-0.063,0.393,0.208,-0.237,-0.339,-0.251,-0.229
-0.012,-0.017,-0.005,0.015,-0.004,-0.011,0.483,0.638,0.187,-0.043,-0.078,-0.103
0.631,0.881,0.25,-0.756,0.19,0.566,-0.282,-0.465,1.041,1.211,1.039,0.844
0.817,1.739,0.923,-1.278,-0.054,1.331,-1.103,-2.073,2.519,2.756,2.092,1.683
0.346,1.177,0.832,-0.762,-0.243,1.004,-1.502,-2.153,2.127,2.158,1.507,1.163
-0.106,0.208,0.314,-0.051,-0.21,0.261,-1.117,-1.533,-0.112,0.103,0.158,0.145
-0.152,-0.032,0.12,0.091,-0.136,0.044,-0.302,-0.412,-0.267,-0.217,-0.123,-0.07
-0.072,-0.083,-0.011,0.077,-0.03,-0.047,-0.028,0.032,-0.038,-0.086,-0.038,-0.023
-0.098,-0.136,-0.037,0.118,-0.03,-0.086,0.058,0.056,-0.164,-0.173,-0.093,-0.081
-0.067,-0.12,-0.053,0.094,-0.007,-0.086,0.077,0.142,-0.085,-0.124,-0.054,-0.062
-0.054,-0.13,-0.076,0.092,0.011,-0.103,0.093,0.105,-0.16,-0.183,-0.081,-0.073
-0.048,-0.111,-0.063,0.08,0.008,-0.087,0.121,0.163,-0.09,-0.123,-0.058,-0.057
-0.041,-0.109,-0.068,0.076,0.014,-0.088,0.101,0.159,-0.12,-0.14,-0.054,-0.056
-0.04,-0.098,-0.059,0.069,0.01,-0.078,0.12,0.202,-0.075,-0.11,-0.04,-0.05
-0.03,-0.092,-0.062,0.061,0.016,-0.076,0.111,0.217,-0.065,-0.099,-0.029,-0.04
-0.02,-0.084,-0.063,0.052,0.022,-0.073,0.117,0.25,-0.034,-0.079,-0.016,-0.03
0.006,-0.071,-0.077,0.033,0.042,-0.074,0.108,0.286,0.001,-0.044,0.011,-0.015
-0.009,-0.064,-0.055,0.037,0.023,-0.059,0.102,0.321,0.013,-0.025,0.031,-0.004
0.007,-0.035,-0.042,0.014,0.024,-0.038,0.096,0.371,0.051,0.002,0.052,0.017
0.047,0.004,-0.042,-0.025,0.045,-0.019,0.088,0.409,0.075,0.026,0.071,0.041
0.039,0.031,-0.008,-0.035,0.023,0.011,0.082,0.459,0.121,0.067,0.101,0.066
0.088,0.055,-0.033,-0.071,0.06,0.011,0.067,0.516,0.169,0.116,0.138,0.092
0.128,0.088,-0.039,-0.108,0.083,0.024,0.049,0.578,0.228,0.18,0.191,0.136
0.15,0.135,-0.015,-0.142,0.082,0.06,0.022,0.618,0.282,0.243,0.246,0.183
0.205,0.19,-0.015,-0.197,0.11,0.087,-0.019,0.626,0.335,0.306,0.299,0.23
0.225,0.233,0.007,-0.229,0.109,0.12,-0.061,0.606,0.375,0.354,0.347,0.272
0.211,0.269,0.058,-0.24,0.076,0.163,-0.089,0.561,0.391,0.398,0.379,0.295
0.196,0.278,0.081,-0.237,0.057,0.179,-0.12,0.516,0.381,0.404,0.389,0.287
0.198,0.264,0.066,-0.231,0.066,0.165,-0.126,0.451,0.368,0.391,0.378,0.282
0.161,0.236,0.075,-0.198,0.042,0.155,-0.109,0.381,0.358,0.376,0.359,0.271
0.119,0.178,0.059,-0.148,0.03,0.118,-0.081,0.311,0.315,0.307,0.29,0.218
0.088,0.108,0.02,-0.098,0.033,0.064,-0.037,0.233,0.24,0.211,0.194,0.146
0.027,0.037,0.01,-0.033,0.008,0.023,0.005,0.173,0.152,0.124,0.124,0.075
-0.018,-0.027,-0.008,0.023,-0.005,-0.018,0.047,0.113,0.074,0.039,0.056,0.021
-0.045,-0.079,-0.034,0.062,-0.005,-0.056,0.069,0.062,0.014,-0.027,0.009,-0.017
-0.048,-0.112,-0.064,0.08,0.008,-0.088,0.081,0.031,-0.038,-0.069,-0.017,-0.047
-0.058,-0.131,-0.073,0.095,0.008,-0.102,0.09,0.018,-0.075,-0.097,-0.041,-0.065
-0.068,-0.15,-0.082,0.109,0.007,-0.116,0.093,0.022,-0.088,-0.11,-0.051,-0.07
-0.066,-0.159,-0.093,0.112,0.014,-0.126,0.094,0.026,-0.093,-0.11,-0.05,-0.07
-0.072,-0.16,-0.088,0.116,0.008,-0.124,0.099,0.03,-0.099,-0.109,-0.048,-0.07
-0.068,-0.16,-0.092,0.114,0.012,-0.126,0.11,0.029,-0.1,-0.112,-0.045,-0.07
-0.072,-0.16,-0.088,0.116,0.008,-0.124,0.111,0.033,-0.1,-0.115,-0.045,-0.07
-0.068,-0.16,-0.092,0.114,0.012,-0.126,0.108,0.036,-0.1,-0.115,-0.045,-0.066
-0.079,-0.16,-0.081,0.12,0.001,-0.12,0.105,0.031,-0.1,-0.115,-0.045,-0.065
-0.093,-0.163,-0.07,0.128,-0.011,-0.117,0.105,0.029,-0.102,-0.115,-0.045,-0.065
-0.065,-0.166,-0.101,0.116,0.018,-0.133,0.103,0.024,-0.105,-0.115,-0.045,-0.061
-0.057,-0.169,-0.112,0.113,0.028,-0.141,0.099,0.021,-0.109,-0.12,-0.045,-0.06
-0.063,-0.171,-0.109,0.117,0.023,-0.14,0.097,0.016,-0.116,-0.12,-0.045,-0.062
-0.068,-0.177,-0.109,0.123,0.021,-0.143,0.094,0.005,-0.126,-0.121,-0.05,-0.065
-0.081,-0.184,-0.103,0.133,0.012,-0.144,0.091,-0.006,-0.13,-0.119,-0.055,-0.068
-0.083,-0.189,-0.106,0.136,0.012,-0.147,0.089,-0.018,-0.134,-0.126,-0.058,-0.07
-0.09,-0.19,-0.1,0.14,0.005,-0.145,0.086,-0.025,-0.15,-0.142,-0.063,-0.074
-0.102,-0.192,-0.09,0.148,-0.006,-0.141,0.085,-0.027,-0.164,-0.147,-0.065,-0.075
-0.084,-0.195,-0.111,0.14,0.014,-0.153,0.085,-0.038,-0.169,-0.153,-0.065,-0.075
-0.068,-0.196,-0.128,0.133,0.03,-0.162,0.085,-0.046,-0.172,-0.163,-0.066,-0.075
-0.077,-0.201,-0.124,0.14,0.023,-0.162,0.086,-0.049,-0.175,-0.17,-0.069,-0.075
-0.08,-0.206,-0.125,0.143,0.023,-0.166,0.082,-0.054,-0.177,-0.17,-0.074,-0.075
-0.085,-0.209,-0.125,0.147,0.02,-0.167,0.08,-0.053,-0.182,-0.17,-0.073,-0.075
-0.085,-0.21,-0.125,0.148,0.02,-0.167,0.08,-0.05,-0.186,-0.171,-0.07,-0.076
-0.081,-0.21,-0.129,0.146,0.024,-0.169,0.076,-0.05,-0.19,-0.167,-0.07,-0.08
-0.079,-0.21,-0.13,0.145,0.025,-0.17,0.075,-0.05,-0.195,-0.165,-0.066,-0.08
-0.081,-0.21,-0.13,0.146,0.025,-0.17,0.075,-0.05,-0.195,-0.165,-0.064,-0.08
-0.079,-0.209,-0.13,0.144,0.026,-0.169,0.075,-0.05,-0.195,-0.165,-0.066,-0.08
-0.085,-0.214,-0.13,0.149,0.023,-0.172,0.075,-0.054,-0.195,-0.165,-0.07,-0.08
-0.094,-0.225,-0.131,0.16,0.019,-0.178,0.075,-0.055,-0.195,-0.165,-0.07,-0.084
-0.09,-0.225,-0.135,0.158,0.023,-0.18,0.075,-0.055,-0.192,-0.17,-0.071,-0.085
-0.087,-0.225,-0.138,0.156,0.026,-0.181,0.075,-0.055,-0.19,-0.17,-0.075,-0.085
-0.085,-0.225,-0.14,0.155,0.028,-0.182,0.072,-0.054,-0.19,-0.171,-0.074,-0.085
-0.081,-0.225,-0.144,0.153,0.032,-0.184,0.069,-0.058,-0.19,-0.175,-0.077,-0.084
-0.078,-0.223,-0.145,0.151,0.034,-0.184,0.07,-0.06,-0.19,-0.174,-0.081,-0.086
-0.074,-0.219,-0.145,0.147,0.036,-0.182,0.07,-0.06,-0.19,-0.177,-0.08,-0.09
-0.068,-0.217,-0.149,0.142,0.041,-0.183,0.07,-0.063,-0.194,-0.18,-0.08,-0.09
-0.063,-0.214,-0.15,0.138,0.044,-0.182,0.069,-0.066,-0.195,-0.18,-0.08,-0.092
-0.062,-0.211,-0.149,0.136,0.044,-0.18,0.066,-0.064,-0.195,-0.18,-0.08,-0.095
-0.069,-0.209,-0.14,0.14,0.035,-0.174,0.063,-0.061,-0.195,-0.18,-0.085,-0.095
-0.074,-0.205,-0.131,0.14,0.029,-0.168,0.06,-0.06,-0.194,-0.18,-0.085,-0.091
-0.077,-0.205,-0.128,0.141,0.026,-0.166,0.058,-0.06,-0.197,-0.18,-0.085,-0.09
-0.08,-0.204,-0.124,0.142,0.023,-0.164,0.054,-0.06,-0.2,-0.18,-0.085,-0.09
-0.079,-0.2,-0.121,0.139,0.021,-0.16,0.057,-0.06,-0.203,-0.18,-0.085,-0.09
-0.084,-0.2,-0.116,0.143,0.016,-0.158,0.061,-0.06,-0.206,-0.18,-0.085,-0.09
-0.084,-0.198,-0.114,0.142,0.015,-0.156,0.059,-0.059,-0.21,-0.181,-0.086,-0.089
-0.081,-0.191,-0.11,0.136,0.015,-0.151,0.065,-0.06,-0.21,-0.178,-0.086,-0.084
-0.077,-0.184,-0.107,0.131,0.015,-0.145,0.065,-0.059,-0.204,-0.175,-0.085,-0.078
-0.074,-0.178,-0.104,0.127,0.015,-0.14,0.066,-0.059,-0.194,-0.17,-0.085,-0.075
-0.07,-0.17,-0.099,0.12,0.015,-0.134,0.07,-0.061,-0.191,-0.167,-0.074,-0.069
-0.069,-0.166,-0.097,0.118,0.015,-0.132,0.09,-0.037,-0.176,-0.165,-0.06,-0.067
-0.063,-0.156,-0.093,0.11,0.015,-0.124,0.138,-0.004,-0.148,-0.141,-0.044,-0.056
-0.052,-0.149,-0.097,0.101,0.023,-0.123,0.149,0.048,-0.132,-0.107,-0.019,-0.043
-0.05,-0.142,-0.092,0.097,0.022,-0.117,0.097,0.026,-0.136,-0.097,-0.015,-0.044
-0.04,-0.142,-0.102,0.091,0.031,-0.122,0.047,-0.035,-0.146,-0.12,-0.029,-0.047
-0.016,-0.137,-0.12,0.076,0.052,-0.128,0.028,-0.055,-0.17,-0.144,-0.028,-0.048
-0.007,-0.134,-0.127,0.071,0.06,-0.13,0.03,-0.07,-0.175,-0.154,-0.033,-0.052
-0.029,-0.179,-0.15,0.105,0.06,-0.164,0.044,-0.044,-0.158,-0.145,-0.042,-0.052
-0.088,-0.22,-0.132,0.154,0.022,-0.175,0.063,-0.082,-0.194,-0.174,-0.071,-0.072
-0.09,-0.227,-0.136,0.159,0.023,-0.181,0.059,-0.033,-0.156,-0.165,-0.079,-0.082
-0.101,-0.22,-0.119,0.16,0.01,-0.169,0.054,-0.089,-0.202,-0.193,-0.084,-0.082
-0.115,-0.237,-0.122,0.176,0.004,-0.179,0.056,-0.029,-0.141,-0.172,-0.093,-0.094
-0.125,-0.232,-0.108,0.179,-0.008,-0.17,0.175,0.072,-0.193,-0.224,-0.139,-0.133
-0.204,-0.236,-0.032,0.22,-0.086,-0.134,0.524,0.452,-0.095,-0.294,-0.253,-0.239
0.246,0.183,-0.063,-0.214,0.154,0.06,0.223,0.458,0.448,0.358,0.282,0.198
0.845,1.248,0.403,-1.047,0.221,0.825,-0.638,-1.189,1.559,1.883,1.59,1.301
0.708,1.573,0.865,-1.14,-0.079,1.219,-1.226,-2.103,2.704,2.8,2.087,1.649
0.139,0.637,0.497,-0.388,-0.179,0.567,-1.411,-1.895,1.103,1.216,0.914,0.707
-0.185,-0.052,0.133,0.118,-0.159,0.041,-0.747,-1.084,-0.417,-0.236,-0.086,-0.021
-0.1,-0.104,-0.004,0.102,-0.048,-0.053,-0.115,-0.088,-0.08,-0.061,-0.056,-0.016
-0.06,-0.172,-0.112,0.116,0.026,-0.142,-0.006,0.033,-0.182,-0.129,-0.061,-0.041
-0.088,-0.191,-0.104,0.139,0.008,-0.147,0.074,0.114,-0.13,-0.142,-0.065,-0.064
-0.065,-0.179,-0.113,0.122,0.024,-0.146,0.083,0.128,-0.134,-0.127,-0.047,-0.054
-0.036,-0.178,-0.142,0.107,0.053,-0.159,0.106,0.139,-0.146,-0.142,-0.064,-0.061
-0.033,-0.162,-0.128,0.098,0.048,-0.145,0.098,0.169,-0.111,-0.109,-0.04,-0.048
-0.043,-0.16,-0.117,0.101,0.037,-0.138,0.103,0.168,-0.123,-0.128,-0.047,-0.052
-0.031,-0.146,-0.115,0.089,0.042,-0.13,0.108,0.215,-0.063,-0.1,-0.027,-0.042
-0.024,-0.139,-0.115,0.082,0.046,-0.127,0.102,0.224,-0.068,-0.1,-0.028,-0.042
-0.007,-0.123,-0.116,0.065,0.054,-0.119,0.101,0.265,-0.031,-0.06,-0.012,-0.028
0.004,-0.109,-0.113,0.053,0.059,-0.111,0.087,0.288,-0.018,-0.04,0.011,-0.004
0.029,-0.088,-0.118,0.03,0.074,-0.103,0.084,0.329,0.021,-0.018,0.027,0.014
0.022,-0.06,-0.083,0.019,0.053,-0.071,0.073,0.364,0.046,0.004,0.044,0.018
0.04,-0.02,-0.059,-0.01,0.05,-0.039,0.067,0.413,0.084,0.036,0.072,0.041
0.074,0.017,-0.057,-0.045,0.065,-0.02,0.048,0.468,0.132,0.087,0.107,0.074
0.089,0.046,-0.043,-0.068,0.066,0.002,0.029,0.516,0.176,0.134,0.142,0.1
0.126,0.083,-0.043,-0.105,0.084,0.02,0.003,0.569,0.23,0.19,0.195,0.142
0.157,0.133,-0.025,-0.145,0.091,0.054,-0.033,0.598,0.289,0.26,0.252,0.19
0.198,0.184,-0.015,-0.191,0.106,0.084,-0.064,0.592,0.34,0.327,0.299,0.237
0.238,0.226,-0.011,-0.232,0.124,0.107,-0.104,0.57,0.365,0.374,0.343,0.271
0.246,0.265,0.019,-0.256,0.113,0.142,-0.139,0.524,0.361,0.394,0.368,0.288
0.21,0.266,0.057,-0.238,0.076,0.161,-0.163,0.448,0.351,0.407,0.372,0.294
0.192,0.255,0.063,-0.224,0.064,0.159,-0.174,0.368,0.345,0.395,0.365,0.277
0.166,0.222,0.056,-0.194,0.055,0.139,-0.151,0.304,0.319,0.344,0.311,0.242
0.119,0.144,0.025,-0.132,0.047,0.084,-0.104,0.239,0.256,0.27,0.235,0.187
0.081,0.06,-0.021,-0.07,0.051,0.019,-0.055,0.174,0.178,0.175,0.156,0.111
0.02,-0.019,-0.039,0.0,0.03,-0.029,-0.009,0.125,0.115,0.091,0.081,0.051
-0.03,-0.09,-0.059,0.06,0.015,-0.074,0.027,0.079,0.048,0.015,0.026,0.006
-0.065,-0.138,-0.072,0.102,0.004,-0.105,0.067,0.035,-0.014,-0.041,-0.024,-0.036
-0.063,-0.165,-0.102,0.114,0.02,-0.133,0.091,0.001,-0.06,-0.081,-0.063,-0.061
-0.072,-0.184,-0.112,0.128,0.02,-0.148,0.091,-0.007,-0.094,-0.114,-0.082,-0.073
-0.084,-0.198,-0.114,0.141,0.015,-0.156,0.095,0.0,-0.102,-0.119,-0.084,-0.081
-0.07,-0.202,-0.132,0.136,0.031,-0.167,0.093,0.0,-0.109,-0.124,-0.09,-0.08
-0.073,-0.196,-0.123,0.135,0.025,-0.159,0.087,0.006,-0.115,-0.135,-0.096,-0.08
-0.072,-0.191,-0.119,0.132,0.023,-0.155,0.083,0.008,-0.114,-0.135,-0.095,-0.08
-0.075,-0.188,-0.113,0.131,0.019,-0.15,0.078,0.014,-0.116,-0.135,-0.095,-0.08
-0.076,-0.182,-0.106,0.129,0.016,-0.144,0.074,0.026,-0.114,-0.135,-0.095,-0.084
-0.071,-0.178,-0.107,0.125,0.018,-0.142,0.069,0.024,-0.116,-0.134,-0.095,-0.085
-0.065,-0.175,-0.111,0.12,0.024,-0.142,0.066,0.013,-0.114,-0.138,-0.098,-0.085
-0.063,-0.172,-0.109,0.118,0.023,-0.14,0.065,0.006,-0.118,-0.14,-0.1,-0.09
-0.066,-0.17,-0.104,0.118,0.019,-0.137,0.065,-0.003,-0.128,-0.14,-0.102,-0.09
-0.074,-0.166,-0.092,0.12,0.01,-0.129,0.065,-0.013,-0.136,-0.14,-0.105,-0.091
-0.078,-0.165,-0.087,0.122,0.005,-0.126,0.065,-0.022,-0.143,-0.141,-0.106,-0.095
-0.094,-0.168,-0.074,0.131,-0.01,-0.121,0.063,-0.041,-0.148,-0.158,-0.097,-0.097
-0.111,-0.172,-0.061,0.142,-0.025,-0.116,0.059,-0.053,-0.157,-0.172,-0.102,-0.1
-0.091,-0.174,-0.083,0.133,-0.004,-0.128,0.06,-0.064,-0.16,-0.174,-0.123,-0.103
-0.095,-0.179,-0.084,0.138,-0.005,-0.131,0.06,-0.082,-0.165,-0.177,-0.126,-0.106
-0.087,-0.179,-0.092,0.133,0.003,-0.135,0.06,-0.079,-0.181,-0.172,-0.124,-0.104
-0.069,-0.172,-0.103,0.121,0.017,-0.138,0.06,-0.08,-0.184,-0.185,-0.126,-0.105
-0.075,-0.181,-0.106,0.128,0.015,-0.143,0.055,-0.08,-0.178,-0.182,-0.124,-0.104
-0.075,-0.187,-0.111,0.131,0.019,-0.149,0.055,-0.079,-0.183,-0.175,-0.127,-0.106
-0.089,-0.184,-0.095,0.137,0.003,-0.139,0.055,-0.094,-0.21,-0.205,-0.138,-0.118
-0.085,-0.182,-0.097,0.134,0.006,-0.139,0.055,-0.094,-0.218,-0.213,-0.141,-0.12
-0.089,-0.179,-0.09,0.134,0.001,-0.134,0.055,-0.1,-0.218,-0.213,-0.139,-0.12
-0.1,-0.181,-0.081,0.141,-0.01,-0.131,0.052,-0.111,-0.225,-0.22,-0.141,-0.124
-0.099,-0.184,-0.085,0.142,-0.007,-0.134,0.05,-0.104,-0.225,-0.218,-0.139,-0.125
-0.086,-0.18,-0.094,0.134,0.004,-0.137,0.046,-0.1,-0.225,-0.216,-0.142,-0.124
-0.09,-0.177,-0.087,0.133,-0.001,-0.132,0.045,-0.097,-0.225,-0.212,-0.145,-0.12
-0.097,-0.173,-0.076,0.135,-0.01,-0.124,0.04,-0.09,-0.225,-0.21,-0.145,-0.12
-0.09,-0.17,-0.08,0.13,-0.005,-0.125,0.041,-0.095,-0.225,-0.207,-0.145,-0.12
-0.096,-0.164,-0.068,0.13,-0.013,-0.116,0.05,-0.101,-0.225,-0.204,-0.145,-0.12
-0.093,-0.169,-0.075,0.132,-0.009,-0.122,0.047,-0.1,-0.222,-0.21,-0.145,-0.12
-0.137,-0.192,-0.055,0.165,-0.041,-0.123,0.04,-0.104,-0.217,-0.217,-0.148,-0.12
-0.12,-0.196,-0.076,0.158,-0.022,-0.135,0.039,-0.106,-0.214,-0.215,-0.153,-0.119
-0.091,-0.195,-0.104,0.143,0.007,-0.149,0.031,-0.102,-0.211,-0.212,-0.155,-0.122
-0.104,-0.2,-0.095,0.153,-0.004,-0.147,0.032,-0.1,-0.205,-0.21,-0.155,-0.13
-0.084,-0.2,-0.116,0.142,0.016,-0.158,0.053,-0.097,-0.207,-0.206,-0.155,-0.13
-0.095,-0.199,-0.103,0.147,0.004,-0.151,0.054,-0.094,-0.211,-0.204,-0.155,-0.13
-0.077,-0.195,-0.118,0.136,0.021,-0.156,0.048,-0.102,-0.211,-0.209,-0.155,-0.13
-0.102,-0.195,-0.093,0.149,-0.004,-0.144,0.047,-0.107,-0.21,-0.211,-0.155,-0.131
-0.116,-0.196,-0.08,0.156,-0.017,-0.138,0.04,-0.101,-0.207,-0.211,-0.152,-0.129
-0.111,-0.194,-0.083,0.153,-0.014,-0.138,0.041,-0.099,-0.204,-0.21,-0.147,-0.124
-0.121,-0.197,-0.075,0.16,-0.023,-0.136,0.03,-0.094,-0.207,-0.21,-0.144,-0.12
-0.098,-0.18,-0.082,0.139,-0.008,-0.131,0.038,-0.093,-0.212,-0.209,-0.141,-0.118
-0.117,-0.141,-0.025,0.129,-0.046,-0.083,0.069,-0.085,-0.19,-0.184,-0.136,-0.112
-0.096,-0.123,-0.027,0.11,-0.034,-0.075,0.116,-0.051,-0.167,-0.167,-0.134,-0.111
-0.11,-0.118,-0.008,0.114,-0.051,-0.062,0.123,-0.003,-0.139,-0.163,-0.103,-0.098
-0.115,-0.112,0.003,0.114,-0.059,-0.054,0.048,-0.034,-0.14,-0.167,-0.089,-0.074
-0.077,-0.118,-0.042,0.098,-0.017,-0.08,0.006,-0.086,-0.162,-0.163,-0.1,-0.076
-0.06,-0.11,-0.051,0.085,-0.004,-0.08,-0.006,-0.112,-0.2,-0.165,-0.098,-0.078
-0.053,-0.126,-0.073,0.089,0.011,-0.099,0.001,-0.1,-0.202,-0.168,-0.108,-0.084
-0.068,-0.162,-0.093,0.115,0.013,-0.127,0.026,-0.074,-0.197,-0.185,-0.132,-0.113
-0.105,-0.194,-0.089,0.15,-0.008,-0.141,0.043,-0.121,-0.222,-0.22,-0.165,-0.137
-0.11,-0.196,-0.086,0.153,-0.012,-0.141,0.04,-0.086,-0.204,-0.205,-0.152,-0.125
-0.09,-0.197,-0.106,0.143,0.008,-0.151,0.039,-0.15,-0.258,-0.251,-0.17,-0.13
-0.085,-0.21,-0.126,0.148,0.02,-0.167,0.043,-0.029,-0.166,-0.182,-0.152,-0.127
-0.159,-0.207,-0.047,0.183,-0.056,-0.127,0.237,0.111,-0.237,-0.32,-0.265,-0.222
-0.109,-0.172,-0.064,0.141,-0.022,-0.118,0.447,0.5,0.046,-0.228,-0.273,-0.25
0.461,0.506,0.044,-0.483,0.208,0.275,-0.121,0.23,0.725,0.754,0.584,0.472
0.789,1.469,0.681,-1.129,0.054,1.075,-0.801,-1.48,1.974,2.333,1.766,1.422
0.405,1.304,0.899,-0.855,-0.247,1.101,-1.101,-2.176,2.561,2.634,1.678,1.263
-0.11,0.377,0.487,-0.134,-0.299,0.432,-1.173,-1.865,0.439,0.568,0.321,0.255
-0.24,-0.02,0.22,0.13,-0.23,0.1,-0.619,-0.978,-0.504,-0.345,-0.234,-0.172
-0.125,-0.045,0.081,0.085,-0.103,0.018,-0.138,-0.12,-0.071,-0.072,-0.1,-0.1
-0.136,-0.128,0.009,0.131,-0.072,-0.059,-0.022,-0.033,-0.222,-0.233,-0.172,-0.131
-0.093,-0.125,-0.032,0.109,-0.03,-0.078,0.028,0.071,-0.108,-0.153,-0.145,-0.11
-0.039,-0.121,-0.082,0.08,0.022,-0.101,0.041,0.08,-0.167,-0.193,-0.159,-0.113
-0.075,-0.115,-0.04,0.096,-0.018,-0.077,0.053,0.106,-0.129,-0.165,-0.143,-0.11
-0.104,-0.106,-0.002,0.105,-0.05,-0.054,0.036,0.126,-0.129,-0.158,-0.134,-0.1
-0.082,-0.097,-0.014,0.089,-0.033,-0.055,0.041,0.139,-0.121,-0.162,-0.133,-0.1
-0.066,-0.069,-0.003,0.068,-0.031,-0.036,0.03,0.159,-0.083,-0.136,-0.119,-0.09
-0.072,-0.065,0.007,0.068,-0.039,-0.028,0.032,0.164,-0.092,-0.143,-0.12,-0.088
-0.059,-0.047,0.012,0.053,-0.036,-0.018,0.047,0.204,-0.055,-0.12,-0.11,-0.081
-0.027,-0.023,0.004,0.025,-0.015,-0.01,0.037,0.22,-0.036,-0.105,-0.092,-0.068
-0.015,-0.009,0.005,0.012,-0.01,-0.002,0.024,0.272,0.012,-0.049,-0.045,-0.039
-0.002,-0.005,-0.002,0.004,0.0,-0.003,0.014,0.312,0.037,-0.019,-0.015,-0.016
0.013,0.015,0.002,-0.014,0.005,0.009,-0.001,0.35,0.089,0.007,0.003,-0.001
0.04,0.055,0.014,-0.048,0.013,0.034,-0.007,0.394,0.133,0.056,0.044,0.032
0.066,0.1,0.034,-0.083,0.015,0.067,-0.038,0.447,0.178,0.115,0.088,0.066
0.066,0.142,0.076,-0.104,-0.005,0.109,-0.077,0.49,0.236,0.162,0.124,0.102
0.121,0.193,0.072,-0.158,0.024,0.133,-0.108,0.502,0.289,0.234,0.184,0.153
0.161,0.236,0.075,-0.199,0.043,0.155,-0.163,0.495,0.33,0.296,0.232,0.189
0.15,0.26,0.11,-0.205,0.02,0.185,-0.198,0.47,0.353,0.34,0.283,0.235
0.158,0.279,0.12,-0.219,0.019,0.199,-0.218,0.41,0.35,0.363,0.297,0.25
0.163,0.273,0.11,-0.218,0.026,0.191,-0.242,0.339,0.331,0.347,0.279,0.241
0.151,0.261,0.11,-0.206,0.02,0.185,-0.236,0.268,0.305,0.322,0.266,0.227
0.118,0.218,0.1,-0.168,0.009,0.159,-0.199,0.202,0.242,0.272,0.213,0.168
0.028,0.133,0.105,-0.08,-0.039,0.119,-0.148,0.155,0.18,0.191,0.14,0.105
-0.012,0.061,0.073,-0.024,-0.043,0.067,-0.087,0.088,0.112,0.093,0.051,0.037
-0.053,0.004,0.057,0.024,-0.055,0.03,-0.044,0.029,0.033,0.003,-0.028,-0.026
-0.075,-0.041,0.034,0.058,-0.054,-0.004,-0.009,-0.009,-0.028,-0.06,-0.073,-0.062
-0.077,-0.073,0.004,0.075,-0.04,-0.034,0.018,-0.048,-0.089,-0.126,-0.122,-0.109
-0.119,-0.098,0.021,0.108,-0.07,-0.038,0.028,-0.065,-0.129,-0.169,-0.16,-0.138
-0.114,-0.106,0.008,0.11,-0.061,-0.049,0.041,-0.07,-0.147,-0.185,-0.16,-0.138
-0.119,-0.11,0.009,0.114,-0.064,-0.05,0.055,-0.065,-0.152,-0.192,-0.163,-0.148
-0.126,-0.118,0.008,0.122,-0.067,-0.055,0.061,-0.057,-0.149,-0.188,-0.178,-0.152
-0.126,-0.121,0.005,0.123,-0.066,-0.057,0.059,-0.052,-0.151,-0.191,-0.179,-0.146
-0.127,-0.118,0.009,0.122,-0.068,-0.054,0.062,-0.043,-0.149,-0.188,-0.172,-0.141
-0.129,-0.115,0.014,0.122,-0.071,-0.051,0.065,-0.041,-0.151,-0.193,-0.172,-0.138
-0.115,-0.114,0.0,0.114,-0.057,-0.057,0.065,-0.047,-0.157,-0.209,-0.164,-0.131
-0.126,-0.111,0.016,0.118,-0.071,-0.047,0.061,-0.054,-0.164,-0.211,-0.168,-0.134
-0.131,-0.11,0.021,0.12,-0.076,-0.044,0.06,-0.059,-0.168,-0.208,-0.188,-0.151
-0.133,-0.11,0.023,0.122,-0.078,-0.043,0.058,-0.06,-0.173,-0.207,-0.189,-0.15
-0.159,-0.11,0.049,0.134,-0.104,-0.03,0.055,-0.061,-0.176,-0.203,-0.182,-0.145
-0.137,-0.11,0.027,0.123,-0.082,-0.042,0.054,-0.065,-0.182,-0.209,-0.183,-0.145
-0.099,-0.112,-0.013,0.106,-0.043,-0.063,0.05,-0.062,-0.186,-0.208,-0.174,-0.138
-0.071,-0.116,-0.045,0.093,-0.012,-0.08,0.051,-0.06,-0.184,-0.211,-0.179,-0.146
-0.095,-0.115,-0.02,0.105,-0.037,-0.067,0.047,-0.092,-0.215,-0.245,-0.205,-0.147
-0.129,-0.115,0.013,0.122,-0.07,-0.051,0.045,-0.116,-0.242,-0.258,-0.212,-0.154
-0.136,-0.115,0.022,0.125,-0.079,-0.046,0.045,-0.116,-0.238,-0.259,-0.209,-0.175
-0.109,-0.11,-0.002,0.109,-0.054,-0.056,0.042,-0.12,-0.241,-0.266,-0.21,-0.179
-0.109,-0.11,0.0,0.11,-0.055,-0.055,0.039,-0.122,-0.237,-0.268,-0.226,-0.177
-0.162,-0.11,0.052,0.136,-0.107,-0.029,0.036,-0.126,-0.235,-0.273,-0.238,-0.175
-0.151,-0.11,0.041,0.13,-0.096,-0.034,0.033,-0.122,-0.248,-0.276,-0.234,-0.174
-0.141,-0.11,0.031,0.126,-0.086,-0.039,0.03,-0.119,-0.252,-0.28,-0.236,-0.176
-0.15,-0.11,0.04,0.129,-0.095,-0.034,0.028,-0.12,-0.264,-0.282,-0.235,-0.174
-0.136,-0.11,0.026,0.123,-0.081,-0.042,0.025,-0.12,-0.271,-0.285,-0.235,-0.176
-0.159,-0.109,0.05,0.133,-0.105,-0.029,0.022,-0.121,-0.269,-0.289,-0.239,-0.187
-0.143,-0.109,0.033,0.126,-0.088,-0.038,0.02,-0.12,-0.273,-0.29,-0.24,-0.191
-0.101,-0.109,-0.008,0.105,-0.046,-0.058,0.017,-0.128,-0.276,-0.293,-0.241,-0.189
-0.108,-0.102,0.005,0.105,-0.056,-0.048,0.015,-0.135,-0.276,-0.296,-0.24,-0.191
-0.133,-0.098,0.035,0.115,-0.084,-0.031,0.015,-0.139,-0.271,-0.294,-0.241,-0.189
-0.137,-0.091,0.047,0.114,-0.092,-0.022,0.016,-0.132,-0.26,-0.285,-0.239,-0.191
-0.119,-0.087,0.032,0.103,-0.075,-0.028,0.01,-0.129,-0.254,-0.275,-0.225,-0.182
-0.148,-0.071,0.078,0.109,-0.112,0.003,0.033,-0.127,-0.241,-0.265,-0.212,-0.172
-0.153,-0.032,0.121,0.092,-0.137,0.044,0.084,-0.098,-0.223,-0.252,-0.193,-0.17
-0.115,-0.021,0.095,0.068,-0.105,0.037,0.088,-0.055,-0.209,-0.218,-0.17,-0.144
-0.121,-0.009,0.111,0.065,-0.116,0.051,0.042,-0.045,-0.207,-0.194,-0.169,-0.13
-0.106,0.001,0.107,0.053,-0.107,0.054,0.021,-0.106,-0.22,-0.224,-0.175,-0.139
-0.047,-0.007,0.04,0.027,-0.044,0.016,0.013,-0.129,-0.233,-0.242,-0.174,-0.131
-0.055,-0.043,0.012,0.049,-0.033,-0.015,-0.002,-0.147,-0.252,-0.253,-0.183,-0.138
-0.069,-0.102,-0.033,0.086,-0.018,-0.067,0.007,-0.119,-0.222,-0.233,-0.182,-0.142
-0.082,-0.126,-0.044,0.104,-0.019,-0.085,0.026,-0.152,-0.265,-0.262,-0.206,-0.154
-0.114,-0.14,-0.026,0.128,-0.044,-0.083,0.033,-0.121,-0.234,-0.252,-0.205,-0.159
-0.131,-0.126,0.005,0.128,-0.067,-0.06,0.028,-0.138,-0.275,-0.284,-0.218,-0.16
-0.145,-0.148,-0.004,0.146,-0.07,-0.076,0.025,-0.135,-0.242,-0.267,-0.224,-0.178
-0.137,-0.146,-0.008,0.142,-0.064,-0.077,0.126,0.055,-0.226,-0.292,-0.253,-0.208
-0.204,-0.164,0.039,0.184,-0.121,-0.062,0.44,0.293,-0.191,-0.414,-0.389,-0.321
0.172,0.196,0.024,-0.184,0.074,0.11,0.202,0.547,0.4,0.212,0.107,0.065
0.678,1.206,0.529,-0.942,0.074,0.867,-0.547,-0.779,1.376,1.691,1.313,1.069
0.536,1.535,0.999,-1.035,-0.232,1.267,-0.923,-2.165,2.661,2.895,1.887,1.444
0.033,0.736,0.703,-0.385,-0.336,0.719,-1.13,-2.079,1.402,1.479,0.826,0.6
-0.296,0.066,0.361,0.115,-0.329,0.214,-0.84,-1.439,-0.561,-0.35,-0.232,-0.161
-0.162,-0.015,0.147,0.089,-0.154,0.066,-0.256,-0.4,-0.235,-0.226,-0.178,-0.158
-0.109,-0.055,0.054,0.081,-0.081,0.0,-0.044,-0.042,-0.202,-0.241,-0.175,-0.147
-0.147,-0.09,0.057,0.119,-0.102,-0.016,0.035,0.009,-0.21,-0.251,-0.186,-0.156
-0.099,-0.068,0.031,0.083,-0.064,-0.018,0.059,0.071,-0.149,-0.207,-0.159,-0.136
-0.111,-0.077,0.035,0.094,-0.073,-0.021,0.073,0.06,-0.202,-0.246,-0.179,-0.147
-0.088,-0.063,0.025,0.075,-0.057,-0.019,0.084,0.12,-0.134,-0.191,-0.151,-0.125
-0.088,-0.063,0.024,0.075,-0.055,-0.019,0.079,0.104,-0.18,-0.22,-0.162,-0.121
-0.069,-0.045,0.023,0.057,-0.046,-0.011,0.076,0.15,-0.127,-0.176,-0.139,-0.105
-0.041,-0.034,0.007,0.037,-0.024,-0.013,0.068,0.152,-0.129,-0.175,-0.14,-0.099
-0.057,-0.019,0.038,0.038,-0.048,0.01,0.065,0.185,-0.075,-0.145,-0.117,-0.087
-0.077,-0.004,0.073,0.041,-0.075,0.034,0.058,0.225,-0.045,-0.114,-0.097,-0.075
-0.06,0.01,0.07,0.025,-0.065,0.04,0.048,0.243,-0.02,-0.085,-0.082,-0.064
-0.027,0.041,0.068,-0.007,-0.048,0.054,0.037,0.275,0.006,-0.074,-0.068,-0.048
-0.013,0.064,0.077,-0.025,-0.045,0.07,0.024,0.322,0.037,-0.028,-0.035,-0.01
0.003,0.094,0.091,-0.049,-0.044,0.092,0.014,0.37,0.099,0.023,0.02,0.018
0.06,0.129,0.069,-0.095,-0.005,0.099,-0.011,0.419,0.15,0.077,0.065,0.06
0.106,0.178,0.072,-0.142,0.017,0.124,-0.049,0.474,0.216,0.152,0.118,0.106
0.111,0.24,0.129,-0.176,-0.009,0.184,-0.086,0.488,0.271,0.213,0.163,0.14
0.134,0.289,0.155,-0.212,-0.01,0.221,-0.136,0.491,0.316,0.277,0.224,0.204
0.197,0.32,0.124,-0.259,0.036,0.222,-0.174,0.479,0.346,0.331,0.273,0.239
0.204,0.345,0.141,-0.275,0.031,0.243,-0.204,0.423,0.336,0.361,0.287,0.252
0.181,0.346,0.166,-0.264,0.007,0.256,-0.216,0.361,0.322,0.349,0.297,0.257
0.179,0.316,0.136,-0.248,0.021,0.226,-0.221,0.296,0.315,0.342,0.276,0.242
0.141,0.273,0.132,-0.207,0.005,0.202,-0.196,0.232,0.274,0.285,0.217,0.196
0.09,0.202,0.112,-0.146,-0.011,0.157,-0.136,0.163,0.201,0.184,0.146,0.128
0.036,0.121,0.085,-0.079,-0.025,0.103,-0.077,0.102,0.118,0.096,0.067,0.068
0.005,0.066,0.062,-0.036,-0.029,0.064,-0.028,0.061,0.037,0.004,-0.009,0.0
-0.029,0.02,0.048,0.004,-0.039,0.034,0.01,0.02,-0.036,-0.078,-0.074,-0.053
-0.065,-0.016,0.049,0.04,-0.057,0.016,0.041,-0.013,-0.099,-0.135,-0.125,-0.083
-0.081,-0.044,0.037,0.062,-0.059,-0.003,0.064,-0.038,-0.129,-0.166,-0.148,-0.101
-0.087,-0.068,0.019,0.078,-0.053,-0.024,0.082,-0.051,-0.145,-0.184,-0.163,-0.11
-0.084,-0.07,0.015,0.077,-0.049,-0.027,0.081,-0.049,-0.154,-0.189,-0.172,-0.109
-0.094,-0.072,0.022,0.083,-0.058,-0.024,0.08,-0.044,-0.155,-0.195,-0.173,-0.101
-0.101,-0.085,0.016,0.093,-0.058,-0.034,0.079,-0.041,-0.154,-0.194,-0.168,-0.1
-0.108,-0.083,0.025,0.095,-0.066,-0.029,0.083,-0.036,-0.148,-0.186,-0.16,-0.093
-0.092,-0.079,0.013,0.085,-0.053,-0.033,0.092,-0.03,-0.147,-0.185,-0.155,-0.091
-0.098,-0.076,0.023,0.087,-0.06,-0.026,0.087,-0.022,-0.14,-0.177,-0.147,-0.098
-0.088,-0.071,0.016,0.079,-0.052,-0.027,0.084,-0.017,-0.141,-0.176,-0.141,-0.102
-0.058,-0.069,-0.011,0.063,-0.023,-0.04,0.081,-0.008,-0.144,-0.187,-0.136,-0.101
-0.077,-0.065,0.011,0.071,-0.043,-0.026,0.076,-0.007,-0.146,-0.191,-0.135,-0.1
-0.049,-0.063,-0.014,0.056,-0.017,-0.038,0.074,-0.019,-0.144,-0.189,-0.135,-0.1
-0.047,-0.06,-0.012,0.054,-0.018,-0.036,0.07,-0.027,-0.145,-0.191,-0.135,-0.095
-0.05,-0.057,-0.007,0.053,-0.021,-0.032,0.068,-0.028,-0.162,-0.189,-0.135,-0.095
-0.058,-0.054,0.004,0.056,-0.031,-0.025,0.064,-0.033,-0.165,-0.191,-0.136,-0.094
-0.048,-0.062,-0.014,0.055,-0.017,-0.037,0.062,-0.039,-0.181,-0.195,-0.141,-0.09
-0.001,-0.072,-0.071,0.036,0.035,-0.072,0.059,-0.038,-0.197,-0.196,-0.145,-0.09
-0.019,-0.073,-0.054,0.046,0.018,-0.063,0.066,-0.06,-0.201,-0.194,-0.141,-0.09
-0.017,-0.08,-0.063,0.048,0.023,-0.071,0.077,-0.072,-0.211,-0.196,-0.14,-0.09
-0.025,-0.083,-0.058,0.054,0.017,-0.071,0.075,-0.071,-0.209,-0.2,-0.139,-0.09
-0.018,-0.078,-0.061,0.048,0.022,-0.069,0.072,-0.076,-0.21,-0.201,-0.136,-0.09
-0.023,-0.075,-0.053,0.049,0.016,-0.064,0.07,-0.078,-0.214,-0.206,-0.134,-0.09
-0.066,-0.069,-0.003,0.068,-0.031,-0.036,0.067,-0.08,-0.216,-0.206,-0.138,-0.091
-0.045,-0.084,-0.039,0.065,-0.003,-0.061,0.065,-0.076,-0.216,-0.202,-0.142,-0.09
-0.018,-0.09,-0.072,0.054,0.027,-0.081,0.069,-0.074,-0.215,-0.2,-0.136,-0.09
-0.026,-0.08,-0.054,0.053,0.015,-0.067,0.071,-0.075,-0.214,-0.194,-0.131,-0.089
-0.033,-0.069,-0.036,0.051,0.002,-0.052,0.07,-0.074,-0.215,-0.197,-0.128,-0.08
-0.037,-0.044,-0.007,0.04,-0.015,-0.025,0.1,-0.041,-0.181,-0.181,-0.122,-0.072
-0.044,-0.011,0.032,0.027,-0.038,0.01,0.143,-0.005,-0.163,-0.169,-0.119,-0.063
-0.027,0.034,0.061,-0.004,-0.044,0.047,0.126,0.027,-0.15,-0.161,-0.11,-0.056
-0.019,0.036,0.055,-0.009,-0.037,0.045,0.066,-0.022,-0.155,-0.162,-0.102,-0.052
0.014,0.014,-0.001,-0.014,0.007,0.006,0.047,-0.092,-0.198,-0.18,-0.093,-0.051
0.048,0.014,-0.033,-0.031,0.04,-0.009,0.051,-0.08,-0.224,-0.192,-0.092,-0.057
0.019,-0.03,-0.049,0.006,0.034,-0.039,0.05,-0.075,-0.224,-0.191,-0.104,-0.065
-0.001,-0.071,-0.07,0.036,0.035,-0.07,0.053,-0.066,-0.217,-0.186,-0.121,-0.069
-0.039,-0.098,-0.058,0.069,0.01,-0.078,0.056,-0.106,-0.238,-0.223,-0.148,-0.081
-0.041,-0.113,-0.071,0.077,0.015,-0.092,0.054,-0.056,-0.194,-0.2,-0.147,-0.08
-0.062,-0.106,-0.044,0.085,-0.009,-0.075,0.057,-0.119,-0.254,-0.234,-0.158,-0.091
-0.035,-0.126,-0.091,0.081,0.028,-0.109,0.056,-0.035,-0.179,-0.194,-0.14,-0.093
-0.083,-0.135,-0.052,0.109,-0.015,-0.093,0.238,0.118,-0.23,-0.298,-0.221,-0.154
-0.133,-0.126,0.007,0.129,-0.07,-0.059,0.507,0.485,-0.047,-0.293,-0.277,-0.217
0.403,0.471,0.068,-0.437,0.167,0.269,0.055,0.382,0.603,0.564,0.446,0.38
0.83,1.515,0.685,-1.173,0.072,1.1,-0.706,-1.299,1.822,2.184,1.694,1.403
0.548,1.525,0.977,-1.037,-0.215,1.251,-1.125,-2.197,2.7,2.803,1.844,1.441
0.011,0.576,0.565,-0.294,-0.278,0.57,-1.238,-1.941,0.707,0.851,0.527,0.434
-0.187,0.059,0.246,0.063,-0.217,0.153,-0.683,-1.084,-0.585,-0.379,-0.209,-0.111
-0.052,0.027,0.079,0.013,-0.066,0.053,-0.14,-0.129,-0.087,-0.093,-0.085,-0.05
-0.049,-0.044,0.005,0.047,-0.027,-0.019,0.002,0.006,-0.221,-0.19,-0.129,-0.07
-0.057,-0.072,-0.016,0.065,-0.02,-0.044,0.086,0.1,-0.145,-0.154,-0.105,-0.057
-0.021,-0.067,-0.045,0.044,0.012,-0.056,0.074,0.115,-0.176,-0.184,-0.104,-0.052
0.012,-0.062,-0.075,0.025,0.044,-0.068,0.088,0.128,-0.166,-0.175,-0.105,-0.053
0.009,-0.053,-0.062,0.022,0.036,-0.057,0.101,0.161,-0.121,-0.149,-0.089,-0.037
-0.008,-0.046,-0.038,0.027,0.015,-0.042,0.095,0.163,-0.126,-0.156,-0.091,-0.032
0.007,-0.035,-0.042,0.014,0.025,-0.038,0.095,0.2,-0.064,-0.111,-0.069,-0.014
-0.001,-0.018,-0.017,0.01,0.008,-0.018,0.088,0.211,-0.075,-0.115,-0.063,-0.011
0.04,0.012,-0.029,-0.026,0.034,-0.008,0.087,0.253,-0.049,-0.087,-0.03,0.0
0.049,0.033,-0.015,-0.041,0.032,0.009,0.081,0.283,-0.04,-0.073,-0.01,0.012
0.022,0.051,0.029,-0.037,-0.004,0.04,0.074,0.314,0.018,-0.034,0.004,0.027
0.063,0.07,0.007,-0.067,0.028,0.038,0.066,0.35,0.053,-0.008,0.017,0.05
0.113,0.1,-0.013,-0.107,0.063,0.043,0.054,0.398,0.087,0.037,0.054,0.078
0.113,0.132,0.018,-0.123,0.047,0.075,0.029,0.454,0.149,0.094,0.099,0.11
0.109,0.173,0.064,-0.141,0.022,0.118,-0.004,0.505,0.197,0.143,0.148,0.157
0.173,0.224,0.051,-0.198,0.06,0.137,-0.035,0.554,0.262,0.214,0.208,0.204
0.227,0.267,0.04,-0.247,0.094,0.153,-0.066,0.589,0.325,0.286,0.263,0.248
0.234,0.318,0.084,-0.276,0.075,0.2,-0.108,0.58,0.369,0.351,0.316,0.29
0.246,0.36,0.114,-0.303,0.066,0.237,-0.149,0.549,0.402,0.401,0.354,0.325
0.263,0.37,0.108,-0.317,0.077,0.239,-0.181,0.491,0.402,0.418,0.37,0.334
0.261,0.356,0.095,-0.309,0.083,0.225,-0.189,0.431,0.393,0.412,0.364,0.321
0.228,0.297,0.069,-0.262,0.079,0.183,-0.161,0.37,0.376,0.395,0.344,0.31
0.162,0.223,0.061,-0.193,0.05,0.142,-0.125,0.296,0.314,0.327,0.286,0.259
0.122,0.154,0.032,-0.138,0.044,0.093,-0.088,0.218,0.219,0.213,0.186,0.181
0.105,0.081,-0.024,-0.093,0.064,0.028,-0.04,0.157,0.127,0.109,0.106,0.115
0.025,0.02,-0.004,-0.023,0.014,0.008,0.004,0.103,0.041,0.024,0.037,0.053
0.011,-0.03,-0.041,0.01,0.026,-0.036,0.044,0.051,-0.034,-0.04,-0.015,0.009
0.025,-0.055,-0.08,0.015,0.053,-0.067,0.081,0.025,-0.083,-0.091,-0.047,-0.018
-0.006,-0.061,-0.055,0.034,0.025,-0.058,0.088,0.001,-0.114,-0.135,-0.083,-0.037
0.011,-0.064,-0.076,0.027,0.044,-0.07,0.089,-0.009,-0.133,-0.154,-0.097,-0.054
-0.007,-0.072,-0.065,0.04,0.029,-0.068,0.094,-0.016,-0.141,-0.157,-0.106,-0.058
-0.02,-0.077,-0.057,0.049,0.019,-0.067,0.096,-0.013,-0.141,-0.155,-0.106,-0.054
-0.008,-0.074,-0.067,0.041,0.03,-0.07,0.1,0.013,-0.14,-0.155,-0.104,-0.056
0.004,-0.075,-0.079,0.036,0.042,-0.077,0.1,0.021,-0.138,-0.155,-0.106,-0.051
-0.008,-0.075,-0.067,0.042,0.03,-0.071,0.1,0.027,-0.134,-0.155,-0.104,-0.05
-0.031,-0.075,-0.044,0.053,0.007,-0.059,0.097,0.034,-0.136,-0.155,-0.106,-0.05
-0.013,-0.075,-0.062,0.044,0.025,-0.068,0.094,0.029,-0.138,-0.151,-0.101,-0.045
-0.02,-0.075,-0.055,0.048,0.018,-0.064,0.091,0.023,-0.141,-0.15,-0.096,-0.042
-0.013,-0.075,-0.062,0.044,0.025,-0.068,0.088,0.019,-0.139,-0.15,-0.091,-0.038
0.007,-0.075,-0.083,0.034,0.045,-0.079,0.086,0.012,-0.141,-0.15,-0.088,-0.035
-0.007,-0.075,-0.068,0.041,0.031,-0.072,0.083,0.008,-0.15,-0.15,-0.082,-0.03
-0.005,-0.075,-0.07,0.04,0.033,-0.072,0.08,-0.001,-0.155,-0.152,-0.081,-0.033
0.002,-0.079,-0.081,0.038,0.041,-0.08,0.078,-0.024,-0.162,-0.155,-0.086,-0.035
-0.013,-0.08,-0.067,0.047,0.027,-0.073,0.075,-0.024,-0.164,-0.154,-0.089,-0.035
-0.003,-0.081,-0.078,0.042,0.037,-0.079,0.072,-0.034,-0.176,-0.165,-0.098,-0.04
0.008,-0.078,-0.085,0.035,0.047,-0.081,0.069,-0.052,-0.185,-0.171,-0.102,-0.04
0.008,-0.086,-0.094,0.039,0.052,-0.09,0.067,-0.049,-0.19,-0.175,-0.097,-0.04
0.007,-0.103,-0.109,0.048,0.058,-0.106,0.061,-0.05,-0.201,-0.181,-0.095,-0.04
0.005,-0.102,-0.107,0.049,0.056,-0.104,0.061,-0.044,-0.2,-0.179,-0.091,-0.04
0.022,-0.099,-0.122,0.039,0.072,-0.11,0.075,-0.046,-0.198,-0.18,-0.089,-0.042
0.017,-0.097,-0.113,0.041,0.065,-0.105,0.075,-0.042,-0.195,-0.18,-0.1,-0.047
-0.011,-0.094,-0.082,0.053,0.036,-0.088,0.07,-0.037,-0.194,-0.179,-0.106,-0.049
-0.008,-0.091,-0.083,0.05,0.037,-0.087,0.069,-0.058,-0.199,-0.189,-0.113,-0.046
0.013,-0.09,-0.103,0.039,0.058,-0.096,0.064,-0.066,-0.202,-0.191,-0.117,-0.045
-0.014,-0.091,-0.077,0.053,0.031,-0.083,0.066,-0.06,-0.198,-0.186,-0.11,-0.045
-0.021,-0.091,-0.07,0.056,0.025,-0.08,0.058,-0.059,-0.196,-0.184,-0.109,-0.04
-0.003,-0.087,-0.084,0.045,0.041,-0.086,0.063,-0.053,-0.19,-0.177,-0.103,-0.04
0.003,-0.077,-0.081,0.037,0.042,-0.079,0.057,-0.054,-0.192,-0.176,-0.101,-0.038
0.007,-0.071,-0.078,0.032,0.043,-0.074,0.073,-0.045,-0.176,-0.163,-0.089,-0.033
-0.009,-0.061,-0.053,0.035,0.022,-0.057,0.138,-0.008,-0.143,-0.133,-0.062,-0.031
0.003,-0.057,-0.06,0.027,0.032,-0.058,0.136,0.038,-0.132,-0.125,-0.054,0.001
0.016,-0.053,-0.069,0.019,0.043,-0.061,0.087,0.038,-0.118,-0.124,-0.05,0.037
0.019,-0.049,-0.068,0.016,0.043,-0.058,0.04,-0.032,-0.143,-0.127,-0.048,0.028
0.041,-0.048,-0.089,0.004,0.065,-0.068,0.023,-0.045,-0.155,-0.121,-0.043,0.019
0.07,-0.044,-0.114,-0.013,0.092,-0.079,0.032,-0.066,-0.169,-0.129,-0.039,0.012
0.051,-0.08,-0.132,0.015,0.092,-0.106,0.045,-0.044,-0.151,-0.132,-0.055,-0.011
0.004,-0.117,-0.121,0.057,0.062,-0.119,0.07,-0.062,-0.196,-0.174,-0.083,-0.034
-0.004,-0.138,-0.134,0.071,0.065,-0.136,0.073,-0.046,-0.191,-0.178,-0.1,-0.051
0.005,-0.126,-0.131,0.061,0.068,-0.128,0.075,-0.045,-0.199,-0.182,-0.096,-0.051
-0.005,-0.143,-0.138,0.074,0.067,-0.14,0.077,-0.057,-0.199,-0.204,-0.11,-0.062
-0.011,-0.149,-0.138,0.08,0.064,-0.143,0.112,0.087,-0.148,-0.182,-0.114,-0.071
-0.108,-0.153,-0.045,0.131,-0.031,-0.099,0.42,0.258,-0.215,-0.333,-0.243,-0.176
0.102,0.024,-0.078,-0.063,0.09,-0.027,0.445,0.664,0.239,0.02,-0.018,-0.003
0.707,0.956,0.249,-0.832,0.228,0.602,-0.313,-0.444,1.101,1.318,1.12,0.957
0.826,1.706,0.879,-1.266,-0.027,1.292,-1.029,-2.047,2.576,2.812,2.079,1.697
0.343,1.101,0.757,-0.722,-0.207,0.929,-1.384,-2.139,2.046,2.07,1.383,1.084
-0.107,0.192,0.298,-0.043,-0.203,0.245,-1.057,-1.539,-0.234,0.009,0.082,0.149
-0.094,-0.012,0.081,0.053,-0.088,0.035,-0.308,-0.416,-0.285,-0.228,-0.114,0.0
0.016,-0.05,-0.066,0.017,0.042,-0.058,-0.029,0.047,-0.075,-0.114,-0.019,0.019
-0.007,-0.11,-0.102,0.059,0.048,-0.106,0.051,0.065,-0.195,-0.195,-0.081,-0.027
0.019,-0.083,-0.102,0.032,0.061,-0.092,0.083,0.163,-0.097,-0.116,-0.044,-0.016
0.013,-0.092,-0.105,0.039,0.06,-0.098,0.09,0.135,-0.179,-0.17,-0.06,-0.031
0.019,-0.078,-0.097,0.03,0.059,-0.088,0.106,0.186,-0.102,-0.119,-0.036,-0.007
0.023,-0.075,-0.099,0.026,0.061,-0.087,0.095,0.178,-0.132,-0.138,-0.038,-0.005
0.021,-0.071,-0.092,0.026,0.057,-0.081,0.106,0.224,-0.083,-0.105,-0.025,0.008
0.035,-0.057,-0.092,0.011,0.064,-0.074,0.102,0.238,-0.075,-0.099,-0.014,0.016
0.049,-0.039,-0.089,-0.005,0.069,-0.064,0.107,0.263,-0.051,-0.078,-0.004,0.023
0.065,-0.021,-0.086,-0.022,0.075,-0.053,0.1,0.299,-0.016,-0.047,0.014,0.044
0.065,-0.015,-0.079,-0.025,0.072,-0.047,0.09,0.323,0.005,-0.024,0.028,0.056
0.079,0.003,-0.076,-0.04,0.077,-0.036,0.083,0.377,0.045,0.016,0.061,0.08
0.11,0.039,-0.071,-0.075,0.09,-0.016,0.072,0.421,0.073,0.04,0.083,0.103
0.134,0.068,-0.066,-0.1,0.1,0.001,0.064,0.472,0.12,0.083,0.117,0.125
0.156,0.094,-0.062,-0.125,0.109,0.016,0.048,0.526,0.169,0.134,0.163,0.165
0.172,0.13,-0.042,-0.15,0.106,0.044,0.028,0.581,0.232,0.198,0.209,0.201
0.204,0.178,-0.026,-0.191,0.115,0.076,0.002,0.626,0.293,0.268,0.268,0.251
0.254,0.24,-0.013,-0.247,0.133,0.113,-0.034,0.632,0.348,0.338,0.325,0.301
0.281,0.278,-0.003,-0.28,0.142,0.138,-0.076,0.615,0.394,0.393,0.376,0.336
0.3,0.301,0.001,-0.301,0.149,0.151,-0.121,0.572,0.415,0.426,0.401,0.363
0.305,0.309,0.004,-0.307,0.15,0.156,-0.138,0.517,0.41,0.425,0.407,0.372
0.286,0.293,0.008,-0.29,0.139,0.15,-0.136,0.458,0.398,0.407,0.401,0.365
0.252,0.263,0.011,-0.257,0.12,0.136,-0.128,0.381,0.358,0.383,0.345,0.315
0.203,0.191,-0.012,-0.197,0.107,0.089,-0.091,0.302,0.285,0.299,0.275,0.253
0.146,0.104,-0.041,-0.124,0.093,0.031,-0.038,0.233,0.2,0.196,0.201,0.189
0.101,0.038,-0.063,-0.069,0.082,-0.013,0.011,0.172,0.109,0.109,0.12,0.121
0.061,-0.02,-0.081,-0.02,0.071,-0.051,0.049,0.116,0.028,0.023,0.064,0.072
0.029,-0.071,-0.099,0.021,0.064,-0.085,0.066,0.075,-0.034,-0.031,0.022,0.037
0.013,-0.103,-0.116,0.045,0.065,-0.109,0.08,0.039,-0.072,-0.067,-0.007,0.018
0.01,-0.108,-0.118,0.049,0.064,-0.113,0.086,0.018,-0.1,-0.097,-0.02,0.008
0.007,-0.111,-0.118,0.052,0.062,-0.114,0.084,0.024,-0.112,-0.111,-0.028,0.004
0.01,-0.119,-0.13,0.055,0.07,-0.124,0.085,0.03,-0.108,-0.115,-0.038,0.0
0.01,-0.119,-0.129,0.055,0.069,-0.124,0.085,0.035,-0.111,-0.115,-0.037,-0.005
-0.009,-0.123,-0.114,0.066,0.053,-0.118,0.085,0.038,-0.109,-0.115,-0.035,-0.01
-0.01,-0.125,-0.116,0.068,0.054,-0.12,0.09,0.042,-0.11,-0.115,-0.035,-0.01
-0.012,-0.126,-0.114,0.069,0.052,-0.12,0.098,0.048,-0.114,-0.115,-0.03,-0.01
-0.016,-0.135,-0.119,0.076,0.052,-0.127,0.098,0.045,-0.115,-0.119,-0.03,-0.01
-0.013,-0.144,-0.131,0.079,0.059,-0.137,0.091,0.045,-0.121,-0.12,-0.031,-0.01
-0.024,-0.145,-0.121,0.085,0.049,-0.133,0.086,0.044,-0.117,-0.12,-0.035,-0.01
-0.023,-0.145,-0.122,0.084,0.05,-0.133,0.081,0.039,-0.13,-0.12,-0.035,-0.011
0.0,-0.145,-0.145,0.073,0.073,-0.145,0.075,0.041,-0.147,-0.12,-0.038,-0.015
0.003,-0.145,-0.148,0.071,0.076,-0.146,0.071,0.036,-0.144,-0.121,-0.041,-0.015
-0.004,-0.145,-0.141,0.075,0.069,-0.143,0.07,0.02,-0.144,-0.126,-0.04,-0.015
-0.009,-0.145,-0.136,0.077,0.064,-0.14,0.07,0.004,-0.152,-0.13,-0.043,-0.015
-0.015,-0.145,-0.131,0.08,0.058,-0.137,0.07,-0.007,-0.163,-0.134,-0.046,-0.015
-0.021,-0.145,-0.124,0.083,0.052,-0.134,0.07,-0.011,-0.169,-0.141,-0.049,-0.019
-0.022,-0.145,-0.123,0.084,0.051,-0.134,0.07,-0.016,-0.175,-0.145,-0.052,-0.02
-0.007,-0.145,-0.139,0.076,0.066,-0.141,0.068,-0.022,-0.182,-0.145,-0.054,-0.02
0.0,-0.141,-0.141,0.071,0.071,-0.141,0.064,-0.028,-0.185,-0.145,-0.057,-0.025
-0.001,-0.14,-0.139,0.07,0.069,-0.139,0.062,-0.033,-0.185,-0.144,-0.06,-0.025
-0.004,-0.14,-0.136,0.072,0.066,-0.137,0.059,-0.036,-0.188,-0.152,-0.06,-0.026
-0.001,-0.135,-0.135,0.068,0.067,-0.135,0.056,-0.039,-0.19,-0.161,-0.06,-0.03
-0.001,-0.135,-0.134,0.068,0.067,-0.134,0.054,-0.043,-0.191,-0.159,-0.06,-0.03
-0.006,-0.136,-0.13,0.071,0.062,-0.133,0.051,-0.046,-0.195,-0.16,-0.06,-0.03
-0.012,-0.14,-0.128,0.076,0.058,-0.133,0.046,-0.05,-0.198,-0.16,-0.064,-0.03
-0.027,-0.152,-0.125,0.09,0.049,-0.138,0.044,-0.05,-0.2,-0.16,-0.065,-0.03
-0.035,-0.156,-0.122,0.095,0.044,-0.139,0.039,-0.05,-0.2,-0.162,-0.065,-0.034
-0.035,-0.154,-0.119,0.095,0.043,-0.136,0.035,-0.05,-0.2,-0.16,-0.065,-0.036
-0.035,-0.152,-0.117,0.094,0.041,-0.134,0.037,-0.05,-0.2,-0.157,-0.065,-0.033
-0.036,-0.149,-0.113,0.093,0.039,-0.131,0.04,-0.05,-0.2,-0.155,-0.063,-0.03
-0.019,-0.15,-0.131,0.085,0.056,-0.14,0.04,-0.05,-0.2,-0.151,-0.06,-0.027
-0.01,-0.146,-0.136,0.079,0.063,-0.141,0.04,-0.05,-0.201,-0.15,-0.058,-0.025
-0.005,-0.142,-0.137,0.074,0.066,-0.139,0.041,-0.048,-0.2,-0.147,-0.055,-0.022
0.018,-0.139,-0.158,0.061,0.088,-0.148,0.039,-0.051,-0.201,-0.14,-0.052,-0.021
0.008,-0.133,-0.142,0.063,0.076,-0.137,0.037,-0.047,-0.199,-0.135,-0.05,-0.015
0.0,-0.132,-0.132,0.067,0.066,-0.132,0.033,-0.048,-0.197,-0.129,-0.046,-0.007
-0.011,-0.123,-0.111,0.067,0.05,-0.117,0.044,-0.03,-0.187,-0.123,-0.035,0.002
-0.005,-0.104,-0.099,0.054,0.048,-0.101,0.098,0.001,-0.159,-0.119,-0.025,0.008
0.042,-0.061,-0.103,0.01,0.073,-0.082,0.121,0.039,-0.143,-0.115,-0.016,0.018
0.046,-0.027,-0.074,-0.009,0.06,-0.05,0.081,0.047,-0.143,-0.114,-0.004,0.05
0.032,-0.069,-0.101,0.018,0.067,-0.085,0.028,-0.027,-0.153,-0.115,0.001,0.051
0.057,-0.078,-0.135,0.011,0.096,-0.106,0.008,-0.044,-0.155,-0.106,0.015,0.041
0.075,-0.077,-0.153,0.001,0.114,-0.115,0.014,-0.067,-0.165,-0.114,0.004,0.038
0.039,-0.126,-0.166,0.044,0.103,-0.146,0.019,-0.042,-0.149,-0.115,-0.024,0.014
0.0,-0.146,-0.147,0.073,0.074,-0.146,0.024,-0.068,-0.207,-0.16,-0.047,-0.01
-0.003,-0.165,-0.162,0.084,0.079,-0.163,0.031,-0.056,-0.195,-0.163,-0.066,-0.025
-0.017,-0.155,-0.138,0.086,0.06,-0.146,0.038,-0.06,-0.211,-0.164,-0.061,-0.026
-0.018,-0.165,-0.147,0.092,0.064,-0.155,0.038,-0.056,-0.195,-0.173,-0.07,-0.044
-0.001,-0.169,-0.167,0.085,0.083,-0.167,0.095,0.067,-0.168,-0.181,-0.083,-0.061
-0.128,-0.183,-0.056,0.156,-0.036,-0.119,0.419,0.293,-0.208,-0.329,-0.213,-0.168
0.112,0.04,-0.072,-0.076,0.092,-0.016,0.401,0.659,0.256,0.072,0.057,0.035
0.772,1.022,0.249,-0.897,0.261,0.635,-0.407,-0.62,1.181,1.438,1.255,1.055
0.881,1.739,0.858,-1.31,0.011,1.298,-1.164,-2.075,2.644,2.845,2.173,1.774
0.362,1.038,0.676,-0.7,-0.157,0.857,-1.498,-2.039,1.855,1.894,1.366,1.083
-0.072,0.13,0.202,-0.029,-0.137,0.166,-1.038,-1.391,-0.293,-0.048,0.097,0.14
-0.047,-0.002,0.045,0.024,-0.046,0.021,-0.269,-0.3,-0.233,-0.175,-0.063,0.007
0.034,-0.031,-0.065,-0.001,0.05,-0.048,-0.059,0.042,-0.115,-0.104,-0.005,0.019
0.016,-0.085,-0.101,0.034,0.059,-0.093,0.009,0.076,-0.201,-0.174,-0.057,-0.03
0.036,-0.064,-0.1,0.014,0.068,-0.081,0.036,0.145,-0.117,-0.117,-0.041,-0.017
0.03,-0.07,-0.099,0.02,0.065,-0.084,0.05,0.12,-0.179,-0.166,-0.061,-0.031
0.042,-0.054,-0.096,0.006,0.069,-0.075,0.067,0.184,-0.108,-0.119,-0.033,-0.016
0.041,-0.053,-0.094,0.007,0.068,-0.073,0.054,0.164,-0.144,-0.146,-0.038,-0.02
0.052,-0.044,-0.096,-0.004,0.074,-0.069,0.061,0.21,-0.106,-0.118,-0.023,-0.014
0.06,-0.039,-0.099,-0.01,0.08,-0.068,0.051,0.229,-0.11,-0.112,-0.014,0.003
0.054,-0.027,-0.08,-0.013,0.067,-0.053,0.057,0.264,-0.075,-0.081,0.008,0.026
0.085,-0.018,-0.104,-0.033,0.095,-0.061,0.047,0.292,-0.042,-0.053,0.021,0.037
0.09,-0.004,-0.093,-0.043,0.091,-0.048,0.041,0.327,-0.016,-0.03,0.033,0.054
0.097,0.024,-0.074,-0.06,0.085,-0.025,0.034,0.373,0.022,0.005,0.059,0.071
0.125,0.053,-0.072,-0.088,0.098,-0.009,0.026,0.425,0.052,0.033,0.087,0.092
0.141,0.085,-0.056,-0.113,0.098,0.014,0.019,0.476,0.098,0.073,0.123,0.121
0.165,0.12,-0.045,-0.142,0.104,0.037,0.012,0.519,0.134,0.108,0.153,0.142
0.182,0.154,-0.028,-0.168,0.105,0.063,-0.008,0.584,0.2,0.175,0.209,0.186
0.221,0.177,-0.044,-0.199,0.133,0.066,-0.037,0.621,0.261,0.242,0.268,0.234
0.241,0.237,-0.005,-0.239,0.123,0.116,-0.066,0.628,0.307,0.301,0.32,0.277
0.249,0.269,0.02,-0.259,0.114,0.144,-0.106,0.616,0.346,0.355,0.367,0.316
0.259,0.264,0.005,-0.262,0.126,0.134,-0.126,0.581,0.37,0.394,0.401,0.346
0.28,0.261,-0.019,-0.271,0.149,0.121,-0.149,0.526,0.376,0.398,0.402,0.361
0.306,0.262,-0.044,-0.284,0.175,0.109,-0.154,0.452,0.369,0.383,0.385,0.356
0.283,0.246,-0.037,-0.264,0.16,0.104,-0.143,0.384,0.337,0.364,0.363,0.317
0.232,0.171,-0.061,-0.202,0.147,0.055,-0.118,0.315,0.27,0.289,0.301,0.259
0.168,0.093,-0.075,-0.131,0.122,0.009,-0.065,0.238,0.19,0.184,0.211,0.191
0.126,0.026,-0.1,-0.076,0.113,-0.037,-0.026,0.182,0.115,0.096,0.133,0.121
0.077,-0.038,-0.115,-0.02,0.096,-0.076,0.011,0.122,0.036,0.02,0.066,0.07
0.042,-0.082,-0.124,0.02,0.084,-0.103,0.036,0.07,-0.029,-0.042,0.016,0.031
0.029,-0.109,-0.138,0.04,0.084,-0.123,0.04,0.048,-0.08,-0.088,-0.016,0.008
0.03,-0.129,-0.158,0.05,0.094,-0.143,0.051,0.03,-0.105,-0.107,-0.037,-0.007
0.031,-0.134,-0.166,0.052,0.099,-0.15,0.056,0.03,-0.109,-0.116,-0.039,-0.02
-0.005,-0.129,-0.124,0.067,0.059,-0.126,0.054,0.03,-0.12,-0.126,-0.044,-0.03
-0.007,-0.131,-0.123,0.069,0.058,-0.127,0.055,0.03,-0.119,-0.128,-0.043,-0.038
0.014,-0.127,-0.141,0.057,0.078,-0.134,0.055,0.03,-0.121,-0.132,-0.039,-0.035
0.005,-0.124,-0.129,0.06,0.068,-0.127,0.055,0.029,-0.119,-0.135,-0.04,-0.035
-0.002,-0.126,-0.123,0.064,0.061,-0.124,0.05,0.042,-0.121,-0.139,-0.04,-0.033
0.007,-0.12,-0.127,0.056,0.067,-0.123,0.05,0.045,-0.12,-0.139,-0.04,-0.029
-0.011,-0.113,-0.101,0.062,0.045,-0.107,0.048,0.04,-0.128,-0.133,-0.04,-0.031
-0.006,-0.105,-0.099,0.056,0.047,-0.102,0.044,0.038,-0.135,-0.13,-0.04,-0.026
0.02,-0.103,-0.124,0.042,0.072,-0.113,0.046,0.034,-0.144,-0.125,-0.035,-0.02
