0.03,-0.095,-0.125,0.033,0.078,-0.11,-0.045,0.034,0.075,-0.064,-0.024,-0.06
0.026,-0.099,-0.125,0.037,0.076,-0.112,-0.043,0.017,0.064,-0.072,-0.03,-0.064
0.019,-0.106,-0.125,0.044,0.072,-0.115,-0.037,-0.016,0.044,-0.102,-0.045,-0.071
0.012,-0.114,-0.125,0.052,0.069,-0.119,-0.034,-0.028,0.03,-0.112,-0.043,-0.074
-0.003,-0.128,-0.125,0.066,0.061,-0.126,-0.028,-0.041,0.017,-0.122,-0.056,-0.079
-0.008,-0.133,-0.125,0.071,0.059,-0.129,-0.025,-0.057,0.005,-0.133,-0.065,-0.081
-0.027,-0.148,-0.121,0.088,0.047,-0.134,-0.018,-0.055,-0.006,-0.142,-0.076,-0.096
-0.049,-0.159,-0.109,0.104,0.03,-0.134,-0.007,-0.054,-0.018,-0.146,-0.102,-0.122
-0.053,-0.154,-0.101,0.103,0.025,-0.127,0.002,-0.056,-0.015,-0.15,-0.1,-0.124
-0.068,-0.156,-0.088,0.112,0.011,-0.122,0.013,-0.054,-0.016,-0.164,-0.112,-0.127
-0.066,-0.151,-0.085,0.109,0.01,-0.118,0.017,-0.053,-0.014,-0.157,-0.104,-0.122
-0.072,-0.15,-0.078,0.111,0.003,-0.114,0.023,-0.049,-0.009,-0.162,-0.111,-0.129
-0.074,-0.15,-0.076,0.113,0.001,-0.113,0.024,-0.05,-0.013,-0.159,-0.098,-0.12
-0.074,-0.144,-0.07,0.109,-0.001,-0.107,0.02,-0.046,-0.003,-0.159,-0.102,-0.129
-0.077,-0.141,-0.065,0.109,-0.006,-0.103,0.021,-0.043,-0.011,-0.165,-0.099,-0.123
-0.066,-0.133,-0.067,0.1,0.001,-0.1,0.014,-0.048,0.006,-0.151,-0.085,-0.124
-0.084,-0.135,-0.05,0.109,-0.017,-0.092,0.018,-0.035,-0.01,-0.174,-0.115,-0.132
-0.014,-0.121,-0.107,0.068,0.047,-0.114,0.012,-0.008,0.036,-0.135,-0.061,-0.115
0.08,-0.127,-0.207,0.024,0.144,-0.167,0.079,0.391,0.335,0.03,-0.054,-0.14
0.311,0.11,-0.201,-0.211,0.256,-0.046,-0.05,0.422,0.409,0.585,0.616,0.415
0.514,0.879,0.364,-0.697,0.075,0.621,-0.657,-0.91,-0.637,0.952,1.886,1.742
0.369,1.12,0.751,-0.745,-0.191,0.935,-0.991,-1.827,-1.832,0.813,2.943,2.848
0.094,0.217,0.123,-0.155,-0.014,0.17,-0.579,-1.149,-1.543,0.325,2.202,1.846
-0.138,-0.363,-0.225,0.251,0.044,-0.294,-0.109,-0.223,-0.698,-0.38,0.124,0.021
-0.099,-0.167,-0.068,0.133,-0.015,-0.117,0.013,0.085,-0.139,-0.255,-0.213,-0.128
-0.03,-0.066,-0.036,0.048,0.003,-0.05,0.036,0.075,0.154,0.006,0.007,-0.027
-0.057,-0.07,-0.013,0.064,-0.022,-0.041,0.048,0.076,0.179,-0.048,-0.105,-0.128
-0.04,-0.058,-0.018,0.049,-0.011,-0.038,0.044,0.072,0.221,0.011,-0.014,-0.079
-0.056,-0.061,-0.005,0.058,-0.025,-0.033,0.044,0.066,0.236,-0.005,-0.067,-0.111
-0.041,-0.05,-0.009,0.046,-0.015,-0.029,0.039,0.067,0.253,0.03,-0.022,-0.071
-0.013,-0.051,-0.037,0.032,0.012,-0.044,0.041,0.069,0.267,0.029,-0.035,-0.087
-0.011,-0.041,-0.031,0.026,0.01,-0.036,0.036,0.079,0.282,0.053,-0.005,-0.063
-0.018,-0.037,-0.019,0.028,0.001,-0.028,0.03,0.082,0.309,0.08,0.014,-0.051
-0.015,-0.028,-0.013,0.022,-0.001,-0.02,0.026,0.085,0.334,0.097,0.034,-0.034
0.001,-0.013,-0.014,0.006,0.008,-0.013,0.019,0.097,0.372,0.136,0.066,-0.01
0.017,0.0,-0.017,-0.008,0.017,-0.008,0.014,0.113,0.417,0.169,0.081,0.004
0.022,0.016,-0.005,-0.019,0.013,0.005,0.008,0.138,0.481,0.222,0.123,0.034
0.042,0.047,0.005,-0.045,0.018,0.026,0.001,0.16,0.551,0.279,0.152,0.062
0.07,0.082,0.012,-0.076,0.029,0.047,-0.007,0.187,0.633,0.342,0.208,0.104
0.084,0.118,0.034,-0.101,0.025,0.076,-0.022,0.221,0.708,0.406,0.26,0.151
0.105,0.173,0.068,-0.139,0.019,0.12,-0.052,0.222,0.776,0.468,0.32,0.214
0.139,0.219,0.08,-0.179,0.029,0.149,-0.093,0.218,0.813,0.515,0.385,0.288
0.171,0.267,0.096,-0.219,0.037,0.181,-0.123,0.212,0.799,0.548,0.453,0.363
0.18,0.308,0.128,-0.244,0.026,0.218,-0.145,0.174,0.761,0.552,0.505,0.426
0.191,0.305,0.113,-0.248,0.039,0.209,-0.164,0.122,0.678,0.518,0.516,0.466
0.191,0.296,0.106,-0.244,0.042,0.201,-0.174,0.072,0.556,0.463,0.505,0.469
0.167,0.261,0.094,-0.214,0.036,0.177,-0.165,0.029,0.428,0.383,0.475,0.417
0.139,0.184,0.045,-0.162,0.047,0.114,-0.129,0.005,0.307,0.285,0.391,0.325
0.072,0.11,0.038,-0.092,0.017,0.074,-0.092,0.0,0.22,0.181,0.277,0.218
0.036,0.047,0.011,-0.042,0.012,0.029,-0.063,-0.005,0.129,0.086,0.177,0.121
0.027,-0.001,-0.027,-0.013,0.027,-0.014,-0.038,-0.011,0.049,0.022,0.09,0.041
-0.016,-0.039,-0.023,0.028,0.004,-0.031,-0.018,-0.016,-0.003,-0.032,0.03,-0.019
-0.048,-0.062,-0.014,0.055,-0.016,-0.038,-0.007,-0.02,-0.05,-0.071,-0.008,-0.047
-0.053,-0.073,-0.02,0.063,-0.016,-0.046,0.002,-0.02,-0.084,-0.095,-0.024,-0.063
-0.037,-0.08,-0.043,0.059,0.003,-0.061,0.017,-0.019,-0.104,-0.112,-0.04,-0.072
-0.041,-0.08,-0.039,0.06,-0.001,-0.059,0.025,-0.026,-0.114,-0.107,-0.048,-0.083
-0.044,-0.08,-0.035,0.063,-0.004,-0.057,0.025,-0.031,-0.116,-0.105,-0.044,-0.086
-0.046,-0.08,-0.034,0.063,-0.006,-0.057,0.025,-0.031,-0.115,-0.105,-0.045,-0.084
-0.051,-0.079,-0.028,0.065,-0.011,-0.054,0.025,-0.035,-0.113,-0.101,-0.045,-0.086
-0.051,-0.083,-0.032,0.067,-0.01,-0.057,0.025,-0.035,-0.108,-0.1,-0.045,-0.085
-0.076,-0.085,-0.009,0.081,-0.033,-0.047,0.023,-0.035,-0.105,-0.1,-0.046,-0.085
-0.064,-0.085,-0.021,0.075,-0.021,-0.053,0.018,-0.036,-0.102,-0.095,-0.041,-0.081
-0.037,-0.085,-0.048,0.061,0.006,-0.066,0.015,-0.034,-0.097,-0.091,-0.041,-0.078
-0.04,-0.085,-0.045,0.063,0.003,-0.065,0.012,-0.038,-0.095,-0.087,-0.039,-0.074
-0.033,-0.085,-0.051,0.059,0.009,-0.067,0.007,-0.04,-0.095,-0.081,-0.036,-0.071
-0.026,-0.081,-0.054,0.054,0.014,-0.067,0.005,-0.042,-0.095,-0.082,-0.034,-0.066
-0.021,-0.08,-0.059,0.051,0.019,-0.069,-0.003,-0.045,-0.095,-0.086,-0.037,-0.066
-0.02,-0.08,-0.06,0.05,0.02,-0.07,-0.008,-0.045,-0.095,-0.088,-0.043,-0.07
-0.02,-0.08,-0.06,0.05,0.02,-0.07,-0.004,-0.049,-0.095,-0.091,-0.039,-0.069
-0.02,-0.08,-0.06,0.05,0.02,-0.07,-0.005,-0.05,-0.098,-0.094,-0.05,-0.08
-0.022,-0.082,-0.06,0.052,0.019,-0.071,-0.005,-0.05,-0.1,-0.096,-0.055,-0.086
-0.026,-0.086,-0.059,0.056,0.017,-0.072,-0.005,-0.05,-0.103,-0.094,-0.062,-0.085
-0.034,-0.084,-0.05,0.059,0.009,-0.067,-0.005,-0.05,-0.105,-0.099,-0.073,-0.084
-0.044,-0.089,-0.045,0.067,0.001,-0.067,0.0,-0.05,-0.11,-0.115,-0.079,-0.092
-0.054,-0.09,-0.036,0.072,-0.009,-0.063,0.003,-0.05,-0.117,-0.12,-0.095,-0.101
-0.035,-0.09,-0.055,0.063,0.01,-0.072,0.006,-0.05,-0.122,-0.123,-0.1,-0.1
-0.016,-0.095,-0.078,0.056,0.032,-0.086,0.011,-0.05,-0.125,-0.131,-0.103,-0.099
-0.03,-0.095,-0.065,0.063,0.018,-0.08,0.014,-0.05,-0.125,-0.136,-0.108,-0.107
-0.037,-0.095,-0.058,0.066,0.011,-0.076,0.018,-0.049,-0.125,-0.14,-0.11,-0.116
-0.042,-0.095,-0.053,0.069,0.006,-0.074,0.02,-0.046,-0.125,-0.142,-0.11,-0.114
-0.048,-0.095,-0.047,0.072,0.0,-0.071,0.02,-0.043,-0.125,-0.145,-0.113,-0.117
-0.053,-0.095,-0.042,0.074,-0.005,-0.068,0.02,-0.04,-0.124,-0.148,-0.115,-0.121
-0.06,-0.095,-0.035,0.078,-0.012,-0.065,0.02,-0.038,-0.127,-0.15,-0.115,-0.12
-0.048,-0.095,-0.047,0.072,0.0,-0.071,0.021,-0.034,-0.13,-0.146,-0.12,-0.12
-0.044,-0.095,-0.051,0.069,0.004,-0.072,0.024,-0.038,-0.13,-0.145,-0.12,-0.12
-0.049,-0.095,-0.046,0.073,-0.001,-0.071,0.025,-0.04,-0.133,-0.145,-0.121,-0.12
-0.05,-0.094,-0.044,0.073,-0.003,-0.069,0.025,-0.04,-0.135,-0.145,-0.125,-0.12
-0.05,-0.091,-0.041,0.071,-0.004,-0.066,0.025,-0.04,-0.134,-0.145,-0.125,-0.12
-0.049,-0.088,-0.038,0.069,-0.005,-0.063,0.025,-0.035,-0.13,-0.144,-0.123,-0.119
-0.048,-0.086,-0.038,0.067,-0.004,-0.062,0.023,-0.035,-0.122,-0.138,-0.116,-0.112
-0.028,-0.081,-0.054,0.055,0.013,-0.067,0.02,-0.034,-0.116,-0.132,-0.111,-0.106
-0.025,-0.081,-0.056,0.054,0.015,-0.068,0.017,-0.029,-0.109,-0.128,-0.106,-0.099
-0.025,-0.074,-0.049,0.049,0.012,-0.061,0.014,-0.031,-0.103,-0.12,-0.099,-0.093
-0.002,-0.053,-0.051,0.028,0.024,-0.051,0.011,-0.025,-0.094,-0.118,-0.096,-0.086
-0.006,-0.048,-0.042,0.028,0.018,-0.045,0.01,-0.01,-0.072,-0.107,-0.084,-0.081
0.001,-0.051,-0.052,0.025,0.027,-0.051,-0.007,0.016,-0.053,-0.09,-0.07,-0.079
0.025,-0.053,-0.078,0.014,0.052,-0.066,-0.036,0.04,-0.036,-0.085,-0.061,-0.077
0.015,-0.056,-0.071,0.02,0.044,-0.063,-0.04,0.024,-0.031,-0.084,-0.06,-0.074
0.005,-0.057,-0.062,0.026,0.033,-0.059,-0.032,0.002,-0.068,-0.099,-0.077,-0.07
0.034,-0.064,-0.098,0.015,0.066,-0.081,-0.026,-0.016,-0.083,-0.105,-0.079,-0.071
0.04,-0.081,-0.121,0.02,0.081,-0.101,-0.02,-0.038,-0.091,-0.12,-0.094,-0.079
0.011,-0.092,-0.103,0.041,0.057,-0.097,-0.009,-0.045,-0.114,-0.147,-0.105,-0.092
-0.011,-0.102,-0.091,0.057,0.04,-0.096,0.016,-0.048,-0.113,-0.147,-0.104,-0.112
-0.038,-0.12,-0.082,0.079,0.022,-0.101,0.034,-0.049,-0.121,-0.154,-0.13,-0.135
-0.046,-0.124,-0.077,0.085,0.016,-0.101,0.042,-0.055,-0.124,-0.159,-0.133,-0.14
-0.051,-0.123,-0.072,0.087,0.011,-0.097,0.046,-0.054,-0.126,-0.161,-0.14,-0.141
-0.046,-0.119,-0.074,0.083,0.014,-0.097,0.045,-0.053,-0.125,-0.159,-0.136,-0.137
-0.055,-0.12,-0.065,0.088,0.005,-0.092,0.052,-0.046,-0.124,-0.167,-0.141,-0.144
-0.052,-0.12,-0.068,0.087,0.008,-0.094,0.049,-0.045,-0.127,-0.164,-0.129,-0.134
-0.058,-0.119,-0.061,0.089,0.002,-0.09,0.051,-0.041,-0.119,-0.163,-0.134,-0.15
-0.065,-0.121,-0.056,0.093,-0.004,-0.088,0.05,-0.034,-0.125,-0.156,-0.128,-0.14
-0.064,-0.113,-0.049,0.088,-0.007,-0.081,0.049,-0.038,-0.112,-0.141,-0.119,-0.148
-0.084,-0.113,-0.029,0.099,-0.027,-0.071,0.054,-0.017,-0.133,-0.152,-0.137,-0.146
-0.004,-0.101,-0.097,0.053,0.047,-0.099,0.044,0.016,-0.065,-0.114,-0.119,-0.143
0.088,-0.108,-0.196,0.011,0.142,-0.152,0.116,0.426,0.246,0.061,-0.081,-0.151
0.346,0.152,-0.194,-0.249,0.27,-0.021,-0.032,0.413,0.303,0.648,0.661,0.469
0.509,0.928,0.419,-0.719,0.044,0.674,-0.631,-0.936,-0.773,0.987,1.933,1.817
0.331,1.099,0.769,-0.715,-0.219,0.933,-0.929,-1.771,-1.9,0.862,2.967,2.844
0.053,0.169,0.116,-0.111,-0.032,0.143,-0.5,-1.074,-1.571,0.316,2.022,1.656
-0.183,-0.349,-0.166,0.266,-0.008,-0.257,-0.052,-0.196,-0.791,-0.427,-0.066,-0.11
-0.114,-0.157,-0.043,0.136,-0.035,-0.1,0.05,0.092,-0.237,-0.238,-0.237,-0.144
-0.051,-0.073,-0.022,0.062,-0.014,-0.048,0.061,0.08,0.034,-0.008,-0.038,-0.073
-0.064,-0.065,-0.001,0.065,-0.031,-0.033,0.06,0.081,0.062,-0.053,-0.145,-0.127
-0.057,-0.061,-0.004,0.059,-0.026,-0.032,0.06,0.077,0.121,0.017,-0.052,-0.071
-0.082,-0.061,0.021,0.071,-0.051,-0.02,0.057,0.071,0.118,-0.014,-0.11,-0.107
-0.062,-0.051,0.011,0.056,-0.036,-0.02,0.054,0.072,0.145,0.032,-0.058,-0.065
-0.063,-0.052,0.011,0.058,-0.037,-0.021,0.055,0.073,0.167,0.038,-0.078,-0.085
-0.048,-0.041,0.007,0.044,-0.027,-0.017,0.05,0.08,0.178,0.053,-0.043,-0.062
-0.035,-0.033,0.002,0.034,-0.018,-0.016,0.045,0.082,0.203,0.079,-0.028,-0.06
-0.021,-0.022,-0.001,0.022,-0.01,-0.011,0.04,0.085,0.226,0.107,-0.006,-0.042
0.006,-0.01,-0.015,0.002,0.011,-0.012,0.036,0.101,0.264,0.141,0.026,-0.021
0.017,0.013,-0.004,-0.015,0.011,0.004,0.031,0.115,0.308,0.177,0.039,0.004
0.026,0.031,0.005,-0.029,0.01,0.018,0.027,0.127,0.37,0.229,0.08,0.03
0.041,0.053,0.012,-0.047,0.014,0.032,0.01,0.152,0.437,0.279,0.111,0.056
0.074,0.09,0.016,-0.082,0.028,0.053,0.0,0.185,0.518,0.346,0.168,0.102
0.092,0.126,0.034,-0.109,0.029,0.08,-0.019,0.218,0.592,0.409,0.217,0.148
0.105,0.17,0.065,-0.138,0.02,0.118,-0.051,0.229,0.659,0.468,0.282,0.217
0.14,0.226,0.086,-0.183,0.027,0.156,-0.077,0.232,0.696,0.519,0.351,0.293
0.17,0.278,0.107,-0.224,0.031,0.192,-0.113,0.221,0.682,0.552,0.416,0.373
0.189,0.312,0.123,-0.25,0.033,0.217,-0.135,0.18,0.651,0.554,0.465,0.433
0.197,0.327,0.13,-0.262,0.033,0.228,-0.152,0.123,0.568,0.513,0.475,0.464
0.203,0.316,0.114,-0.26,0.044,0.215,-0.152,0.069,0.441,0.465,0.473,0.462
0.169,0.269,0.101,-0.219,0.034,0.185,-0.136,0.031,0.325,0.387,0.43,0.406
0.126,0.199,0.072,-0.163,0.027,0.135,-0.117,-0.005,0.218,0.28,0.33,0.308
0.084,0.121,0.038,-0.103,0.023,0.079,-0.082,-0.021,0.129,0.182,0.211,0.194
0.019,0.057,0.038,-0.038,-0.01,0.047,-0.055,-0.019,0.069,0.085,0.111,0.1
-0.021,0.003,0.024,0.009,-0.022,0.014,-0.027,-0.022,0.03,0.022,0.033,0.022
-0.051,-0.035,0.016,0.043,-0.033,-0.009,0.001,-0.025,-0.004,-0.032,-0.034,-0.042
-0.057,-0.056,0.001,0.056,-0.028,-0.027,0.023,-0.025,-0.029,-0.073,-0.07,-0.071
-0.041,-0.068,-0.027,0.055,-0.007,-0.048,0.039,-0.027,-0.042,-0.091,-0.088,-0.087
-0.047,-0.075,-0.027,0.061,-0.009,-0.051,0.04,-0.03,-0.05,-0.104,-0.097,-0.101
-0.057,-0.075,-0.018,0.066,-0.019,-0.046,0.04,-0.03,-0.054,-0.101,-0.106,-0.105
-0.061,-0.075,-0.013,0.068,-0.024,-0.044,0.04,-0.03,-0.051,-0.099,-0.112,-0.105
-0.07,-0.075,-0.005,0.073,-0.032,-0.04,0.04,-0.03,-0.048,-0.096,-0.109,-0.105
-0.074,-0.075,-0.001,0.075,-0.036,-0.037,0.039,-0.029,-0.046,-0.093,-0.11,-0.105
-0.065,-0.075,-0.01,0.07,-0.027,-0.042,0.035,-0.026,-0.042,-0.091,-0.11,-0.105
-0.069,-0.075,-0.006,0.072,-0.031,-0.04,0.035,-0.023,-0.04,-0.088,-0.11,-0.103
-0.088,-0.075,0.012,0.081,-0.049,-0.031,0.035,-0.021,-0.038,-0.086,-0.105,-0.1
-0.091,-0.075,0.017,0.083,-0.054,-0.029,0.035,-0.017,-0.033,-0.082,-0.1,-0.1
-0.085,-0.075,0.009,0.08,-0.046,-0.033,0.035,-0.015,-0.027,-0.08,-0.096,-0.1
-0.076,-0.075,0.001,0.075,-0.038,-0.036,0.032,-0.017,-0.024,-0.076,-0.091,-0.1
-0.063,-0.071,-0.007,0.067,-0.028,-0.039,0.029,-0.025,-0.018,-0.075,-0.086,-0.1
-0.056,-0.07,-0.014,0.063,-0.021,-0.042,0.026,-0.03,-0.015,-0.078,-0.087,-0.1
-0.047,-0.07,-0.023,0.059,-0.012,-0.046,0.024,-0.038,-0.022,-0.081,-0.098,-0.1
-0.041,-0.07,-0.03,0.055,-0.006,-0.05,0.02,-0.043,-0.03,-0.084,-0.105,-0.1
-0.038,-0.07,-0.031,0.054,-0.003,-0.05,0.021,-0.041,-0.038,-0.086,-0.105,-0.1
-0.038,-0.072,-0.035,0.056,-0.001,-0.053,0.025,-0.038,-0.04,-0.095,-0.107,-0.1
-0.038,-0.075,-0.037,0.057,0.0,-0.056,0.025,-0.035,-0.043,-0.105,-0.117,-0.102
-0.034,-0.075,-0.04,0.054,0.004,-0.057,0.025,-0.033,-0.046,-0.116,-0.128,-0.113
-0.039,-0.079,-0.04,0.059,0.001,-0.059,0.025,-0.029,-0.05,-0.119,-0.136,-0.12
-0.041,-0.08,-0.04,0.06,0.0,-0.06,0.025,-0.033,-0.058,-0.127,-0.142,-0.124
-0.039,-0.08,-0.04,0.059,0.0,-0.06,0.025,-0.04,-0.063,-0.14,-0.147,-0.128
-0.04,-0.08,-0.04,0.06,0.0,-0.06,0.025,-0.04,-0.065,-0.146,-0.154,-0.133
-0.035,-0.08,-0.045,0.058,0.005,-0.062,0.025,-0.04,-0.068,-0.151,-0.159,-0.135
-0.036,-0.08,-0.044,0.059,0.004,-0.062,0.025,-0.04,-0.071,-0.149,-0.162,-0.138
-0.033,-0.08,-0.047,0.057,0.007,-0.063,0.024,-0.04,-0.074,-0.153,-0.166,-0.141
-0.03,-0.08,-0.05,0.055,0.01,-0.065,0.02,-0.039,-0.075,-0.155,-0.17,-0.144
-0.028,-0.078,-0.05,0.053,0.011,-0.064,0.018,-0.036,-0.068,-0.155,-0.168,-0.145
-0.022,-0.07,-0.048,0.046,0.013,-0.059,0.015,-0.034,-0.06,-0.151,-0.159,-0.138
-0.022,-0.066,-0.043,0.045,0.011,-0.054,0.012,-0.03,-0.051,-0.143,-0.151,-0.13
0.002,-0.046,-0.047,0.022,0.025,-0.046,0.009,-0.028,-0.045,-0.139,-0.143,-0.122
0.015,-0.02,-0.035,0.002,0.025,-0.027,0.007,-0.016,-0.037,-0.125,-0.136,-0.114
0.025,-0.021,-0.046,-0.002,0.036,-0.033,0.003,-0.009,-0.032,-0.113,-0.135,-0.112
0.063,-0.02,-0.083,-0.021,0.073,-0.051,-0.002,0.016,-0.016,-0.098,-0.136,-0.117
0.07,-0.02,-0.091,-0.025,0.081,-0.056,-0.007,0.027,-0.006,-0.098,-0.136,-0.119
0.056,-0.035,-0.092,-0.01,0.074,-0.063,-0.013,-0.02,-0.046,-0.118,-0.136,-0.121
0.058,-0.041,-0.099,-0.008,0.079,-0.07,-0.018,-0.029,-0.065,-0.123,-0.134,-0.124
0.054,-0.055,-0.109,0.001,0.082,-0.082,-0.025,-0.036,-0.07,-0.139,-0.14,-0.126
0.032,-0.068,-0.1,0.019,0.066,-0.084,-0.018,-0.063,-0.091,-0.156,-0.152,-0.134
-0.002,-0.086,-0.083,0.044,0.041,-0.084,0.0,-0.059,-0.096,-0.171,-0.171,-0.15
-0.025,-0.105,-0.08,0.066,0.028,-0.092,0.01,-0.06,-0.106,-0.178,-0.181,-0.155
-0.033,-0.106,-0.073,0.07,0.02,-0.09,0.018,-0.061,-0.112,-0.182,-0.19,-0.166
-0.041,-0.11,-0.069,0.076,0.014,-0.09,0.028,-0.059,-0.111,-0.186,-0.195,-0.169
-0.045,-0.112,-0.067,0.079,0.011,-0.089,0.041,-0.061,-0.103,-0.177,-0.187,-0.169
-0.059,-0.116,-0.057,0.088,0.0,-0.086,0.047,-0.052,-0.105,-0.185,-0.195,-0.173
-0.048,-0.112,-0.064,0.08,0.009,-0.088,0.042,-0.055,-0.096,-0.174,-0.181,-0.164
-0.055,-0.11,-0.055,0.083,0.0,-0.082,0.048,-0.047,-0.096,-0.187,-0.202,-0.178
-0.041,-0.107,-0.066,0.074,0.013,-0.086,0.041,-0.049,-0.1,-0.173,-0.176,-0.161
-0.049,-0.103,-0.055,0.076,0.004,-0.079,0.049,-0.043,-0.094,-0.185,-0.205,-0.189
-0.038,-0.102,-0.064,0.07,0.013,-0.083,0.035,-0.038,-0.113,-0.177,-0.187,-0.161
0.039,-0.097,-0.136,0.029,0.087,-0.116,0.049,0.103,0.039,-0.115,-0.205,-0.195
0.156,-0.084,-0.24,-0.036,0.198,-0.162,0.12,0.558,0.382,0.207,0.019,-0.056
0.453,0.396,-0.057,-0.425,0.255,0.17,-0.187,0.103,0.154,0.839,1.042,0.855
0.492,1.141,0.649,-0.817,-0.079,0.895,-0.782,-1.321,-1.179,0.987,2.34,2.302
0.229,0.857,0.628,-0.543,-0.2,0.742,-0.799,-1.607,-1.912,0.712,2.878,2.663
-0.077,-0.092,-0.016,0.085,-0.03,-0.054,-0.275,-0.725,-1.309,-0.075,1.1,0.825
-0.177,-0.297,-0.12,0.237,-0.028,-0.208,-0.001,-0.049,-0.607,-0.533,-0.45,-0.341
-0.046,-0.085,-0.039,0.066,-0.003,-0.062,0.051,0.101,-0.109,-0.134,-0.138,-0.127
-0.062,-0.058,0.005,0.06,-0.033,-0.026,0.092,0.075,0.057,-0.07,-0.157,-0.188
-0.064,-0.052,0.011,0.058,-0.037,-0.02,0.081,0.083,0.088,-0.058,-0.158,-0.143
-0.042,-0.047,-0.005,0.045,-0.018,-0.026,0.087,0.074,0.124,-0.024,-0.127,-0.143
-0.035,-0.042,-0.006,0.039,-0.014,-0.024,0.084,0.072,0.123,-0.037,-0.16,-0.14
-0.019,-0.036,-0.016,0.028,-0.001,-0.026,0.085,0.071,0.159,0.014,-0.109,-0.118
-0.024,-0.031,-0.007,0.027,-0.008,-0.019,0.083,0.075,0.164,0.011,-0.123,-0.122
-0.012,-0.02,-0.008,0.017,-0.002,-0.013,0.071,0.076,0.183,0.041,-0.076,-0.084
-0.009,-0.013,-0.004,0.011,-0.002,-0.008,0.064,0.079,0.201,0.059,-0.077,-0.086
-0.005,-0.004,0.001,0.004,-0.002,-0.001,0.051,0.08,0.234,0.092,-0.04,-0.063
0.015,0.012,-0.003,-0.014,0.009,0.004,0.045,0.081,0.271,0.128,-0.021,-0.05
0.045,0.032,-0.013,-0.038,0.029,0.009,0.037,0.097,0.317,0.174,0.016,-0.017
0.049,0.05,0.0,-0.05,0.025,0.024,0.031,0.108,0.378,0.218,0.051,0.008
0.044,0.075,0.03,-0.06,0.007,0.052,0.013,0.134,0.447,0.276,0.086,0.046
0.061,0.112,0.051,-0.087,0.005,0.081,-0.014,0.16,0.523,0.341,0.144,0.099
0.098,0.156,0.058,-0.127,0.02,0.106,-0.028,0.177,0.597,0.409,0.208,0.157
0.124,0.202,0.078,-0.163,0.023,0.14,-0.057,0.18,0.65,0.468,0.279,0.234
0.162,0.254,0.092,-0.208,0.035,0.173,-0.096,0.166,0.673,0.507,0.344,0.31
0.195,0.302,0.106,-0.249,0.044,0.204,-0.127,0.146,0.657,0.519,0.407,0.387
0.222,0.335,0.113,-0.279,0.055,0.224,-0.159,0.105,0.595,0.504,0.441,0.442
0.24,0.341,0.101,-0.291,0.07,0.22,-0.174,0.057,0.486,0.482,0.438,0.45
0.21,0.307,0.097,-0.259,0.056,0.202,-0.165,0.017,0.367,0.42,0.415,0.423
0.158,0.241,0.083,-0.199,0.037,0.162,-0.131,-0.004,0.266,0.322,0.346,0.347
0.103,0.17,0.067,-0.137,0.017,0.118,-0.09,-0.005,0.167,0.219,0.232,0.234
0.048,0.097,0.049,-0.073,-0.001,0.073,-0.057,-0.007,0.086,0.115,0.122,0.125
0.008,0.036,0.028,-0.022,-0.01,0.032,-0.029,-0.01,0.021,0.032,0.025,0.035
0.003,-0.002,-0.005,-0.001,0.005,-0.003,-0.006,-0.01,-0.029,-0.024,-0.054,-0.04
-0.004,-0.04,-0.036,0.022,0.017,-0.038,0.018,-0.01,-0.051,-0.067,-0.101,-0.087
-0.027,-0.062,-0.035,0.045,0.004,-0.048,0.045,-0.01,-0.067,-0.1,-0.126,-0.108
-0.034,-0.068,-0.035,0.051,0.001,-0.051,0.051,-0.01,-0.083,-0.117,-0.14,-0.129
-0.035,-0.071,-0.036,0.053,0.001,-0.053,0.05,-0.01,-0.089,-0.114,-0.15,-0.13
-0.037,-0.07,-0.033,0.054,-0.002,-0.051,0.05,-0.01,-0.087,-0.115,-0.156,-0.13
-0.032,-0.07,-0.038,0.052,0.003,-0.053,0.05,-0.007,-0.085,-0.124,-0.155,-0.135
-0.058,-0.07,-0.012,0.064,-0.023,-0.041,0.049,-0.001,-0.085,-0.124,-0.155,-0.135
-0.065,-0.069,-0.004,0.067,-0.031,-0.036,0.045,0.003,-0.085,-0.117,-0.15,-0.134
-0.025,-0.065,-0.04,0.045,0.008,-0.052,0.044,0.007,-0.086,-0.112,-0.15,-0.129
-0.024,-0.065,-0.041,0.045,0.009,-0.052,0.038,0.013,-0.084,-0.106,-0.149,-0.126
-0.03,-0.065,-0.035,0.048,0.003,-0.05,0.051,0.014,-0.078,-0.102,-0.144,-0.123
-0.029,-0.065,-0.036,0.047,0.004,-0.051,0.061,0.009,-0.072,-0.099,-0.146,-0.119
-0.037,-0.065,-0.028,0.051,-0.004,-0.046,0.053,0.006,-0.068,-0.096,-0.143,-0.115
-0.032,-0.065,-0.033,0.048,0.001,-0.049,0.05,0.003,-0.061,-0.093,-0.139,-0.112
-0.051,-0.065,-0.014,0.059,-0.018,-0.039,0.045,-0.002,-0.056,-0.091,-0.141,-0.109
-0.047,-0.065,-0.018,0.056,-0.014,-0.041,0.041,-0.004,-0.055,-0.09,-0.136,-0.106
-0.01,-0.065,-0.056,0.038,0.023,-0.06,0.036,-0.01,-0.055,-0.09,-0.134,-0.104
-0.01,-0.065,-0.055,0.038,0.023,-0.06,0.033,-0.018,-0.071,-0.09,-0.136,-0.1
-0.012,-0.066,-0.055,0.04,0.022,-0.06,0.029,-0.015,-0.086,-0.088,-0.133,-0.101
-0.015,-0.07,-0.056,0.043,0.02,-0.062,0.026,-0.011,-0.087,-0.103,-0.144,-0.108
-0.016,-0.07,-0.054,0.044,0.019,-0.062,0.02,-0.008,-0.09,-0.117,-0.156,-0.114
-0.013,-0.07,-0.057,0.042,0.022,-0.063,0.022,-0.004,-0.1,-0.118,-0.16,-0.12
-0.013,-0.071,-0.058,0.042,0.023,-0.064,0.04,0.001,-0.109,-0.12,-0.162,-0.12
0.009,-0.063,-0.072,0.027,0.04,-0.067,0.038,0.002,-0.106,-0.13,-0.154,-0.115
0.012,-0.048,-0.06,0.018,0.037,-0.054,0.032,0.009,-0.104,-0.135,-0.15,-0.113
0.013,-0.035,-0.048,0.011,0.031,-0.041,0.028,0.007,-0.107,-0.128,-0.144,-0.108
-0.004,-0.018,-0.014,0.012,0.005,-0.016,0.02,0.008,-0.097,-0.119,-0.138,-0.105
-0.013,0.008,0.021,0.002,-0.017,0.014,0.018,0.027,-0.068,-0.097,-0.134,-0.102
0.0,0.052,0.052,-0.026,-0.026,0.052,0.001,0.021,-0.043,-0.089,-0.129,-0.096
0.006,0.079,0.073,-0.043,-0.033,0.076,-0.03,-0.004,-0.065,-0.092,-0.125,-0.093
0.037,0.063,0.026,-0.05,0.005,0.044,-0.045,-0.028,-0.096,-0.088,-0.119,-0.088
0.025,0.032,0.008,-0.029,0.008,0.02,-0.023,-0.027,-0.099,-0.092,-0.117,-0.084
0.017,-0.001,-0.018,-0.008,0.018,-0.009,-0.01,-0.014,-0.102,-0.086,-0.107,-0.078
0.028,-0.038,-0.066,0.005,0.048,-0.052,-0.004,-0.007,-0.116,-0.104,-0.13,-0.096
0.004,-0.072,-0.075,0.034,0.04,-0.073,0.035,-0.004,-0.145,-0.14,-0.178,-0.131
-0.025,-0.101,-0.076,0.064,0.025,-0.088,0.05,-0.006,-0.155,-0.149,-0.189,-0.143
-0.052,-0.126,-0.074,0.089,0.011,-0.1,0.056,0.001,-0.161,-0.166,-0.195,-0.151
-0.049,-0.125,-0.076,0.088,0.014,-0.101,0.071,-0.001,-0.167,-0.169,-0.203,-0.161
-0.057,-0.13,-0.074,0.094,0.009,-0.102,0.078,0.002,-0.171,-0.173,-0.209,-0.168
-0.064,-0.137,-0.073,0.101,0.005,-0.105,0.079,0.004,-0.169,-0.173,-0.199,-0.16
-0.065,-0.133,-0.068,0.099,0.002,-0.1,0.081,0.008,-0.17,-0.177,-0.212,-0.171
-0.059,-0.131,-0.071,0.095,0.006,-0.101,0.078,0.011,-0.171,-0.168,-0.198,-0.157
-0.062,-0.127,-0.065,0.095,0.001,-0.096,0.081,0.011,-0.167,-0.17,-0.21,-0.173
-0.062,-0.125,-0.064,0.094,0.001,-0.094,0.079,0.019,-0.169,-0.172,-0.198,-0.164
-0.055,-0.125,-0.07,0.09,0.008,-0.098,0.079,0.005,-0.142,-0.156,-0.195,-0.171
-0.065,-0.135,-0.071,0.1,0.003,-0.103,0.084,0.014,-0.158,-0.181,-0.214,-0.176
0.028,-0.124,-0.151,0.049,0.09,-0.137,0.068,0.075,-0.086,-0.129,-0.174,-0.146
0.1,-0.139,-0.24,0.02,0.17,-0.189,0.145,0.47,0.205,0.053,-0.141,-0.147
0.314,0.153,-0.162,-0.233,0.238,-0.005,0.025,0.504,0.417,0.74,0.687,0.502
0.477,0.956,0.479,-0.717,-0.001,0.718,-0.539,-0.676,-0.486,1.163,1.946,1.819
0.272,1.135,0.863,-0.703,-0.296,0.999,-0.828,-1.475,-1.786,0.797,2.766,2.697
-0.026,0.236,0.263,-0.105,-0.145,0.249,-0.389,-0.871,-1.646,0.082,1.7,1.444
-0.209,-0.335,-0.127,0.272,-0.041,-0.231,0.026,-0.063,-0.895,-0.573,-0.282,-0.241
-0.097,-0.185,-0.088,0.141,-0.005,-0.136,0.08,0.181,-0.336,-0.309,-0.324,-0.195
-0.017,-0.085,-0.068,0.051,0.026,-0.076,0.107,0.122,-0.034,-0.034,-0.108,-0.124
-0.038,-0.084,-0.046,0.061,0.004,-0.065,0.1,0.091,-0.007,-0.077,-0.206,-0.167
-0.022,-0.07,-0.048,0.046,0.013,-0.059,0.094,0.099,0.044,-0.012,-0.118,-0.108
-0.031,-0.066,-0.035,0.049,0.002,-0.05,0.091,0.105,0.048,-0.03,-0.171,-0.148
-0.017,-0.054,-0.037,0.036,0.01,-0.045,0.081,0.099,0.065,0.003,-0.108,-0.1
-0.017,-0.048,-0.031,0.032,0.008,-0.039,0.081,0.094,0.068,0.006,-0.126,-0.123
-0.011,-0.037,-0.026,0.024,0.008,-0.032,0.071,0.091,0.081,0.033,-0.085,-0.091
-0.002,-0.029,-0.027,0.016,0.012,-0.028,0.067,0.085,0.108,0.047,-0.064,-0.078
0.013,-0.014,-0.028,0.001,0.021,-0.021,0.059,0.089,0.125,0.071,-0.039,-0.05
0.034,-0.002,-0.036,-0.016,0.035,-0.019,0.053,0.091,0.163,0.108,-0.006,-0.033
0.044,0.017,-0.028,-0.03,0.035,-0.006,0.046,0.089,0.201,0.144,0.013,-0.013
0.044,0.038,-0.006,-0.041,0.025,0.016,0.039,0.093,0.252,0.193,0.054,0.019
0.064,0.062,-0.002,-0.063,0.033,0.029,0.024,0.111,0.314,0.246,0.095,0.063
0.087,0.094,0.008,-0.091,0.039,0.051,0.01,0.128,0.386,0.316,0.155,0.12
0.102,0.133,0.031,-0.117,0.035,0.082,-0.017,0.139,0.449,0.371,0.215,0.161
0.138,0.183,0.045,-0.161,0.046,0.114,-0.05,0.151,0.504,0.431,0.286,0.239
0.171,0.233,0.063,-0.202,0.054,0.148,-0.085,0.139,0.535,0.476,0.355,0.319
0.216,0.289,0.073,-0.253,0.071,0.181,-0.123,0.11,0.531,0.508,0.422,0.395
0.214,0.307,0.093,-0.261,0.06,0.2,-0.143,0.081,0.489,0.509,0.466,0.454
0.202,0.305,0.103,-0.254,0.049,0.203,-0.147,0.049,0.411,0.467,0.484,0.466
0.209,0.302,0.093,-0.255,0.058,0.197,-0.139,0.034,0.307,0.417,0.46,0.449
0.147,0.245,0.097,-0.196,0.025,0.171,-0.122,0.036,0.205,0.336,0.385,0.378
0.103,0.171,0.068,-0.137,0.017,0.119,-0.087,0.033,0.12,0.227,0.276,0.256
0.062,0.104,0.042,-0.084,0.01,0.073,-0.044,0.03,0.034,0.12,0.143,0.135
0.012,0.043,0.031,-0.028,-0.01,0.037,-0.007,0.03,-0.025,0.024,0.041,0.041
-0.018,-0.001,0.017,0.009,-0.018,0.008,0.024,0.028,-0.073,-0.05,-0.037,-0.022
-0.048,-0.035,0.013,0.041,-0.03,-0.011,0.053,0.023,-0.116,-0.086,-0.09,-0.068
-0.063,-0.055,0.007,0.059,-0.035,-0.024,0.077,0.02,-0.127,-0.109,-0.12,-0.098
-0.065,-0.061,0.004,0.062,-0.034,-0.028,0.081,0.017,-0.139,-0.126,-0.137,-0.112
-0.058,-0.06,-0.002,0.059,-0.028,-0.031,0.079,0.012,-0.151,-0.133,-0.142,-0.123
-0.057,-0.06,-0.003,0.059,-0.027,-0.031,0.08,0.009,-0.153,-0.141,-0.149,-0.13
-0.043,-0.06,-0.017,0.052,-0.013,-0.038,0.08,0.005,-0.151,-0.14,-0.157,-0.13
-0.038,-0.059,-0.021,0.049,-0.008,-0.04,0.081,0.005,-0.15,-0.137,-0.16,-0.131
-0.045,-0.056,-0.011,0.051,-0.017,-0.033,0.081,0.004,-0.149,-0.135,-0.16,-0.135
-0.059,-0.055,0.005,0.057,-0.031,-0.025,0.08,0.0,-0.144,-0.135,-0.16,-0.135
-0.057,-0.055,0.002,0.056,-0.029,-0.026,0.08,0.0,-0.146,-0.131,-0.155,-0.132
-0.055,-0.055,0.0,0.055,-0.027,-0.027,0.08,0.002,-0.143,-0.124,-0.15,-0.127
-0.072,-0.055,0.017,0.063,-0.044,-0.019,0.08,0.007,-0.133,-0.119,-0.147,-0.121
-0.063,-0.057,0.005,0.06,-0.034,-0.026,0.079,0.01,-0.123,-0.108,-0.142,-0.115
-0.066,-0.061,0.005,0.063,-0.036,-0.027,0.074,0.005,-0.113,-0.095,-0.139,-0.11
-0.055,-0.06,-0.004,0.058,-0.026,-0.032,0.068,0.0,-0.115,-0.089,-0.135,-0.106
-0.025,-0.06,-0.035,0.043,0.005,-0.048,0.065,-0.004,-0.115,-0.091,-0.132,-0.102
-0.015,-0.06,-0.045,0.038,0.015,-0.052,0.06,-0.009,-0.116,-0.088,-0.127,-0.098
-0.014,-0.06,-0.046,0.038,0.016,-0.053,0.055,-0.014,-0.121,-0.097,-0.125,-0.095
-0.021,-0.065,-0.044,0.043,0.012,-0.055,0.058,-0.013,-0.119,-0.101,-0.131,-0.089
-0.024,-0.069,-0.045,0.047,0.011,-0.057,0.062,-0.008,-0.128,-0.107,-0.137,-0.098
-0.029,-0.074,-0.044,0.052,0.008,-0.059,0.065,-0.005,-0.136,-0.121,-0.143,-0.113
-0.027,-0.073,-0.046,0.05,0.01,-0.059,0.069,-0.002,-0.141,-0.128,-0.152,-0.12
-0.019,-0.067,-0.048,0.044,0.014,-0.057,0.071,0.003,-0.146,-0.131,-0.15,-0.122
-0.031,-0.064,-0.033,0.047,0.001,-0.048,0.075,0.004,-0.145,-0.125,-0.143,-0.117
-0.039,-0.059,-0.02,0.049,-0.009,-0.04,0.075,0.018,-0.144,-0.123,-0.139,-0.114
-0.041,-0.052,-0.01,0.047,-0.015,-0.031,0.074,0.028,-0.147,-0.118,-0.132,-0.11
-0.033,-0.03,0.003,0.031,-0.018,-0.013,0.077,0.017,-0.127,-0.115,-0.128,-0.106
-0.006,0.016,0.022,-0.006,-0.014,0.019,0.056,0.007,-0.085,-0.112,-0.122,-0.103
-0.001,0.065,0.066,-0.032,-0.034,0.065,0.016,-0.002,-0.074,-0.11,-0.12,-0.1
-0.001,0.075,0.076,-0.037,-0.038,0.075,-0.027,-0.024,-0.071,-0.111,-0.121,-0.099
0.017,0.057,0.04,-0.037,-0.012,0.048,-0.034,-0.04,-0.067,-0.11,-0.12,-0.095
0.03,0.021,-0.009,-0.025,0.019,0.006,-0.002,-0.03,-0.063,-0.11,-0.122,-0.093
0.025,-0.021,-0.047,-0.002,0.036,-0.034,0.007,-0.017,-0.059,-0.11,-0.118,-0.087
0.001,-0.053,-0.054,0.027,0.028,-0.053,0.023,-0.011,-0.076,-0.134,-0.136,-0.105
-0.028,-0.093,-0.064,0.061,0.018,-0.078,0.057,-0.008,-0.108,-0.164,-0.168,-0.143
-0.04,-0.111,-0.071,0.076,0.016,-0.091,0.065,-0.006,-0.143,-0.181,-0.187,-0.155
-0.046,-0.123,-0.076,0.085,0.016,-0.099,0.068,-0.001,-0.175,-0.199,-0.203,-0.162
-0.053,-0.136,-0.082,0.094,0.015,-0.108,0.084,-0.002,-0.194,-0.197,-0.196,-0.17
-0.061,-0.138,-0.077,0.1,0.008,-0.107,0.092,0.004,-0.203,-0.208,-0.207,-0.176
-0.058,-0.141,-0.083,0.099,0.013,-0.112,0.088,0.004,-0.197,-0.198,-0.199,-0.175
-0.062,-0.139,-0.076,0.101,0.007,-0.107,0.092,0.01,-0.201,-0.2,-0.211,-0.183
-0.051,-0.135,-0.084,0.093,0.017,-0.109,0.088,0.01,-0.201,-0.193,-0.202,-0.168
-0.056,-0.133,-0.077,0.095,0.01,-0.104,0.092,0.013,-0.196,-0.189,-0.215,-0.182
-0.057,-0.129,-0.073,0.093,0.008,-0.101,0.083,0.018,-0.2,-0.192,-0.21,-0.167
-0.041,-0.131,-0.09,0.086,0.025,-0.111,0.081,0.009,-0.178,-0.171,-0.202,-0.17
-0.057,-0.142,-0.084,0.1,0.014,-0.113,0.078,0.031,-0.203,-0.201,-0.229,-0.176
0.007,-0.141,-0.148,0.068,0.078,-0.145,0.07,0.078,-0.118,-0.13,-0.171,-0.162
0.07,-0.162,-0.232,0.047,0.151,-0.197,0.167,0.47,0.19,0.05,-0.128,-0.17
0.298,0.165,-0.133,-0.231,0.215,0.016,0.023,0.464,0.445,0.776,0.706,0.507
0.449,0.995,0.546,-0.722,-0.049,0.77,-0.578,-0.728,-0.452,1.228,1.947,1.798
0.251,1.15,0.898,-0.701,-0.323,1.023,-0.867,-1.449,-1.802,0.698,2.577,2.538
-0.027,0.21,0.237,-0.092,-0.132,0.223,-0.392,-0.787,-1.627,-0.028,1.488,1.291
-0.203,-0.374,-0.172,0.289,-0.015,-0.273,0.041,0.03,-0.864,-0.576,-0.326,-0.268
-0.11,-0.202,-0.091,0.156,-0.009,-0.146,0.081,0.188,-0.344,-0.317,-0.334,-0.207
-0.062,-0.087,-0.025,0.075,-0.019,-0.056,0.091,0.063,-0.064,-0.037,-0.124,-0.142
-0.065,-0.089,-0.025,0.077,-0.019,-0.057,0.084,0.061,-0.056,-0.089,-0.22,-0.185
-0.036,-0.079,-0.043,0.058,0.004,-0.061,0.085,0.061,0.003,-0.027,-0.129,-0.131
-0.049,-0.08,-0.031,0.065,-0.009,-0.055,0.086,0.055,0.001,-0.047,-0.18,-0.171
-0.038,-0.071,-0.033,0.054,-0.002,-0.052,0.083,0.056,0.023,-0.013,-0.118,-0.122
-0.043,-0.07,-0.027,0.057,-0.008,-0.048,0.087,0.049,0.043,-0.006,-0.131,-0.132
-0.037,-0.06,-0.023,0.049,-0.006,-0.041,0.078,0.051,0.055,0.019,-0.098,-0.097
-0.033,-0.054,-0.021,0.043,-0.006,-0.037,0.074,0.054,0.085,0.05,-0.079,-0.093
-0.027,-0.042,-0.015,0.035,-0.006,-0.029,0.065,0.057,0.097,0.067,-0.058,-0.074
-0.014,-0.024,-0.01,0.019,-0.002,-0.017,0.06,0.061,0.135,0.097,-0.025,-0.05
-0.007,-0.009,-0.002,0.009,-0.002,-0.005,0.051,0.064,0.176,0.127,0.002,-0.026
0.01,0.014,0.004,-0.012,0.003,0.009,0.037,0.067,0.226,0.179,0.044,0.015
0.029,0.04,0.01,-0.035,0.009,0.025,0.023,0.086,0.291,0.231,0.074,0.04
0.043,0.072,0.028,-0.058,0.007,0.05,0.011,0.092,0.355,0.292,0.128,0.087
0.075,0.111,0.035,-0.093,0.02,0.073,-0.008,0.099,0.422,0.354,0.192,0.151
0.102,0.158,0.056,-0.13,0.023,0.107,-0.042,0.102,0.477,0.413,0.261,0.222
0.122,0.213,0.091,-0.168,0.015,0.152,-0.072,0.089,0.501,0.465,0.33,0.3
0.158,0.255,0.097,-0.207,0.03,0.176,-0.095,0.081,0.497,0.484,0.402,0.375
0.173,0.275,0.102,-0.224,0.035,0.188,-0.124,0.044,0.464,0.479,0.445,0.433
0.173,0.267,0.093,-0.22,0.04,0.18,-0.136,0.015,0.393,0.456,0.453,0.445
0.169,0.248,0.08,-0.209,0.044,0.164,-0.125,0.013,0.294,0.404,0.426,0.419
0.135,0.205,0.071,-0.17,0.032,0.138,-0.113,0.009,0.197,0.33,0.35,0.346
0.082,0.134,0.052,-0.109,0.015,0.093,-0.073,0.006,0.109,0.218,0.228,0.222
0.029,0.062,0.033,-0.045,-0.002,0.047,-0.03,0.001,0.033,0.111,0.107,0.108
-0.017,0.001,0.018,0.008,-0.017,0.009,0.001,0.0,-0.027,0.026,0.009,0.02
-0.049,-0.044,0.004,0.046,-0.026,-0.02,0.034,0.0,-0.073,-0.051,-0.061,-0.043
-0.053,-0.071,-0.018,0.063,-0.017,-0.044,0.05,0.0,-0.102,-0.089,-0.108,-0.081
-0.051,-0.082,-0.031,0.067,-0.01,-0.056,0.063,0.0,-0.119,-0.119,-0.147,-0.11
-0.066,-0.094,-0.029,0.08,-0.018,-0.061,0.072,0.0,-0.133,-0.142,-0.158,-0.125
-0.061,-0.096,-0.035,0.078,-0.012,-0.065,0.073,0.0,-0.136,-0.139,-0.158,-0.133
-0.05,-0.094,-0.045,0.072,-0.002,-0.069,0.076,-0.004,-0.134,-0.14,-0.168,-0.139
-0.061,-0.096,-0.035,0.079,-0.013,-0.065,0.079,-0.005,-0.136,-0.14,-0.172,-0.144
-0.065,-0.094,-0.03,0.08,-0.017,-0.062,0.08,-0.007,-0.134,-0.14,-0.17,-0.145
-0.074,-0.095,-0.021,0.085,-0.026,-0.058,0.075,-0.011,-0.136,-0.138,-0.17,-0.145
-0.092,-0.095,-0.003,0.094,-0.044,-0.048,0.075,-0.008,-0.129,-0.134,-0.17,-0.149
-0.065,-0.095,-0.031,0.08,-0.017,-0.063,0.074,-0.005,-0.116,-0.132,-0.17,-0.15
-0.042,-0.095,-0.053,0.068,0.006,-0.074,0.069,-0.005,-0.105,-0.127,-0.169,-0.149
-0.046,-0.095,-0.049,0.071,0.002,-0.071,0.071,-0.005,-0.08,-0.126,-0.16,-0.141
-0.045,-0.096,-0.05,0.07,0.003,-0.072,0.068,-0.005,-0.061,-0.113,-0.15,-0.132
-0.04,-0.091,-0.051,0.066,0.005,-0.071,0.063,-0.006,-0.054,-0.097,-0.14,-0.123
-0.041,-0.09,-0.049,0.066,0.004,-0.069,0.057,0.0,-0.051,-0.096,-0.131,-0.115
-0.041,-0.089,-0.049,0.065,0.004,-0.069,0.054,0.008,-0.055,-0.091,-0.13,-0.111
-0.022,-0.086,-0.063,0.054,0.021,-0.075,0.049,0.005,-0.055,-0.09,-0.129,-0.104
-0.023,-0.084,-0.062,0.054,0.02,-0.073,0.044,0.005,-0.055,-0.085,-0.126,-0.101
-0.033,-0.087,-0.053,0.06,0.01,-0.07,0.054,0.006,-0.055,-0.086,-0.124,-0.091
-0.044,-0.098,-0.054,0.071,0.005,-0.076,0.067,0.004,-0.055,-0.107,-0.128,-0.097
-0.058,-0.101,-0.043,0.079,-0.007,-0.072,0.063,0.007,-0.052,-0.112,-0.143,-0.115
-0.05,-0.099,-0.049,0.075,-0.001,-0.074,0.06,-0.003,-0.049,-0.12,-0.151,-0.115
-0.038,-0.101,-0.063,0.07,0.012,-0.082,0.058,-0.018,-0.045,-0.131,-0.159,-0.114
-0.043,-0.099,-0.055,0.071,0.006,-0.077,0.053,-0.011,-0.044,-0.13,-0.159,-0.119
-0.055,-0.102,-0.047,0.078,-0.004,-0.074,0.06,-0.003,-0.038,-0.129,-0.152,-0.118
-0.054,-0.093,-0.039,0.074,-0.007,-0.065,0.07,0.007,-0.047,-0.124,-0.147,-0.111
-0.04,-0.083,-0.043,0.062,0.002,-0.063,0.066,0.018,-0.054,-0.125,-0.143,-0.104
-0.026,-0.065,-0.039,0.046,0.006,-0.052,0.06,0.012,-0.033,-0.123,-0.136,-0.097
-0.022,-0.013,0.009,0.017,-0.016,-0.002,0.058,0.022,-0.027,-0.115,-0.132,-0.091
-0.009,0.032,0.042,-0.012,-0.026,0.037,0.045,0.019,-0.023,-0.11,-0.133,-0.086
-0.021,0.037,0.058,-0.008,-0.04,0.047,0.002,-0.033,-0.018,-0.103,-0.137,-0.086
-0.017,0.024,0.041,-0.004,-0.029,0.032,-0.035,-0.045,-0.014,-0.096,-0.139,-0.085
0.024,0.009,-0.015,-0.016,0.02,-0.003,-0.016,-0.022,-0.008,-0.09,-0.142,-0.086
0.021,-0.024,-0.044,0.002,0.032,-0.033,0.019,-0.018,-0.02,-0.097,-0.146,-0.085
0.027,-0.056,-0.083,0.015,0.055,-0.069,0.036,-0.014,-0.03,-0.117,-0.142,-0.086
0.003,-0.099,-0.103,0.048,0.053,-0.101,0.065,-0.009,-0.046,-0.149,-0.166,-0.114
-0.041,-0.142,-0.101,0.092,0.03,-0.121,0.076,-0.005,-0.056,-0.17,-0.185,-0.135
-0.042,-0.148,-0.106,0.095,0.032,-0.127,0.082,0.003,-0.052,-0.179,-0.191,-0.151
-0.054,-0.163,-0.108,0.109,0.027,-0.135,0.092,0.009,-0.049,-0.179,-0.193,-0.155
-0.074,-0.186,-0.111,0.13,0.019,-0.148,0.089,0.016,-0.044,-0.18,-0.199,-0.156
-0.067,-0.183,-0.115,0.126,0.024,-0.149,0.088,0.024,-0.042,-0.181,-0.21,-0.154
-0.058,-0.177,-0.119,0.118,0.031,-0.148,0.079,0.022,-0.035,-0.177,-0.217,-0.155
-0.055,-0.173,-0.117,0.114,0.031,-0.145,0.087,0.022,-0.039,-0.186,-0.222,-0.156
-0.05,-0.168,-0.117,0.109,0.034,-0.142,0.102,0.017,-0.027,-0.171,-0.206,-0.147
-0.062,-0.165,-0.103,0.114,0.021,-0.134,0.11,0.024,-0.035,-0.184,-0.225,-0.153
-0.042,-0.157,-0.115,0.1,0.037,-0.136,0.104,0.015,-0.021,-0.151,-0.192,-0.128
-0.087,-0.174,-0.087,0.13,0.001,-0.13,0.12,0.026,-0.027,-0.168,-0.226,-0.152
-0.042,-0.171,-0.13,0.107,0.044,-0.15,0.105,0.032,-0.012,-0.131,-0.185,-0.106
0.027,-0.182,-0.209,0.078,0.119,-0.195,0.139,0.272,0.204,-0.028,-0.183,-0.149
0.156,-0.067,-0.223,-0.044,0.189,-0.145,0.16,0.61,0.607,0.43,0.235,0.135
0.419,0.611,0.192,-0.515,0.113,0.401,-0.307,-0.149,0.313,1.218,1.444,1.227
0.329,1.241,0.911,-0.785,-0.291,1.076,-0.863,-1.341,-1.189,0.988,2.386,2.356
0.077,0.658,0.58,-0.368,-0.252,0.619,-0.664,-1.179,-1.748,0.219,2.092,2.005
-0.132,-0.292,-0.16,0.212,0.014,-0.226,-0.095,-0.184,-0.975,-0.4,0.291,0.256
-0.138,-0.342,-0.204,0.241,0.033,-0.273,0.111,0.242,-0.355,-0.478,-0.497,-0.302
-0.041,-0.138,-0.097,0.09,0.028,-0.117,0.103,0.131,0.02,-0.087,-0.124,-0.064
-0.088,-0.136,-0.048,0.112,-0.02,-0.092,0.101,0.08,0.104,-0.08,-0.221,-0.155
-0.074,-0.122,-0.048,0.099,-0.013,-0.085,0.091,0.073,0.132,-0.042,-0.159,-0.093
-0.06,-0.122,-0.062,0.091,0.001,-0.092,0.086,0.062,0.152,-0.019,-0.167,-0.118
-0.061,-0.114,-0.053,0.088,-0.003,-0.084,0.082,0.063,0.151,-0.022,-0.154,-0.099
-0.052,-0.106,-0.054,0.079,0.001,-0.08,0.094,0.054,0.182,0.013,-0.113,-0.095
-0.048,-0.094,-0.045,0.071,-0.001,-0.069,0.086,0.053,0.187,0.007,-0.114,-0.089
-0.035,-0.081,-0.046,0.058,0.006,-0.063,0.076,0.048,0.217,0.047,-0.075,-0.067
-0.026,-0.07,-0.044,0.048,0.009,-0.057,0.068,0.051,0.225,0.055,-0.082,-0.063
-0.021,-0.057,-0.036,0.039,0.008,-0.046,0.058,0.049,0.261,0.087,-0.044,-0.032
-0.02,-0.044,-0.024,0.032,0.002,-0.034,0.051,0.052,0.299,0.12,-0.024,-0.021
-0.008,-0.019,-0.011,0.013,0.002,-0.015,0.04,0.073,0.339,0.157,0.018,0.012
0.02,0.009,-0.011,-0.015,0.015,-0.001,0.03,0.086,0.4,0.209,0.053,0.038
0.032,0.041,0.009,-0.036,0.011,0.025,0.02,0.095,0.463,0.262,0.097,0.082
0.047,0.078,0.032,-0.063,0.007,0.055,0.008,0.1,0.53,0.324,0.152,0.13
0.078,0.128,0.05,-0.104,0.014,0.089,-0.016,0.103,0.594,0.383,0.214,0.189
0.1,0.177,0.077,-0.139,0.011,0.127,-0.048,0.112,0.632,0.435,0.291,0.273
0.133,0.221,0.088,-0.177,0.022,0.154,-0.08,0.098,0.635,0.472,0.36,0.348
0.145,0.254,0.108,-0.2,0.018,0.181,-0.109,0.061,0.616,0.47,0.41,0.414
0.142,0.251,0.109,-0.197,0.016,0.18,-0.124,0.031,0.562,0.461,0.437,0.445
0.149,0.24,0.091,-0.195,0.029,0.165,-0.112,0.014,0.465,0.421,0.43,0.436
0.141,0.216,0.074,-0.179,0.033,0.145,-0.104,0.009,0.357,0.345,0.37,0.383
0.097,0.145,0.048,-0.121,0.024,0.096,-0.088,0.007,0.27,0.262,0.262,0.27
0.031,0.066,0.035,-0.049,-0.002,0.05,-0.051,0.004,0.186,0.15,0.14,0.148
-0.012,0.006,0.017,0.003,-0.015,0.011,-0.009,0.001,0.113,0.048,0.038,0.053
-0.026,-0.045,-0.018,0.036,-0.004,-0.032,0.027,0.0,0.066,-0.022,-0.046,-0.018
-0.04,-0.082,-0.042,0.061,0.001,-0.062,0.043,-0.001,0.026,-0.081,-0.107,-0.072
-0.067,-0.107,-0.039,0.087,-0.014,-0.073,0.052,0.002,0.002,-0.113,-0.139,-0.109
-0.072,-0.114,-0.042,0.093,-0.015,-0.078,0.055,-0.008,-0.013,-0.131,-0.16,-0.12
-0.071,-0.117,-0.046,0.095,-0.013,-0.081,0.055,-0.021,-0.028,-0.145,-0.171,-0.129
-0.075,-0.119,-0.044,0.098,-0.016,-0.081,0.059,-0.02,-0.033,-0.148,-0.169,-0.136
-0.065,-0.114,-0.049,0.09,-0.007,-0.082,0.061,-0.02,-0.031,-0.153,-0.172,-0.134
-0.066,-0.115,-0.05,0.09,-0.007,-0.082,0.059,-0.02,-0.028,-0.154,-0.176,-0.139
-0.063,-0.115,-0.052,0.089,-0.005,-0.083,0.061,-0.02,-0.026,-0.149,-0.174,-0.14
-0.059,-0.115,-0.056,0.088,-0.001,-0.085,0.058,-0.018,-0.022,-0.144,-0.179,-0.139
-0.062,-0.115,-0.053,0.089,-0.004,-0.084,0.061,-0.014,-0.02,-0.139,-0.176,-0.135
-0.062,-0.112,-0.05,0.087,-0.006,-0.08,0.075,-0.012,-0.018,-0.135,-0.169,-0.13
-0.062,-0.107,-0.045,0.085,-0.008,-0.076,0.071,-0.009,-0.011,-0.13,-0.166,-0.126
-0.061,-0.104,-0.044,0.083,-0.008,-0.074,0.065,-0.006,-0.006,-0.127,-0.159,-0.121
-0.064,-0.101,-0.037,0.082,-0.013,-0.069,0.062,-0.005,-0.001,-0.124,-0.154,-0.117
-0.06,-0.096,-0.036,0.078,-0.011,-0.066,0.056,-0.009,0.005,-0.121,-0.149,-0.112
-0.068,-0.096,-0.028,0.082,-0.02,-0.062,0.053,-0.012,0.009,-0.118,-0.145,-0.11
-0.082,-0.1,-0.019,0.092,-0.032,-0.059,0.047,-0.015,0.006,-0.115,-0.145,-0.107
-0.054,-0.1,-0.046,0.077,-0.004,-0.073,0.042,-0.018,0.001,-0.116,-0.145,-0.104
-0.042,-0.1,-0.057,0.072,0.007,-0.078,0.039,-0.02,-0.001,-0.12,-0.145,-0.101
-0.051,-0.104,-0.053,0.078,0.002,-0.078,0.033,-0.023,-0.006,-0.122,-0.145,-0.1
-0.048,-0.105,-0.057,0.077,0.005,-0.081,0.03,-0.025,-0.009,-0.126,-0.149,-0.107
-0.054,-0.107,-0.053,0.081,0.0,-0.08,0.035,-0.025,-0.014,-0.128,-0.163,-0.117
-0.052,-0.11,-0.058,0.082,0.003,-0.083,0.04,-0.025,-0.026,-0.137,-0.173,-0.121
-0.065,-0.111,-0.046,0.089,-0.01,-0.078,0.043,-0.025,-0.036,-0.149,-0.178,-0.118
-0.07,-0.115,-0.045,0.092,-0.012,-0.08,0.048,-0.024,-0.038,-0.149,-0.184,-0.126
-0.051,-0.117,-0.066,0.085,0.008,-0.092,0.05,-0.021,-0.045,-0.158,-0.189,-0.136
-0.056,-0.12,-0.064,0.089,0.004,-0.092,0.05,-0.018,-0.042,-0.167,-0.19,-0.137
-0.064,-0.123,-0.059,0.094,-0.002,-0.091,0.05,-0.016,-0.04,-0.164,-0.19,-0.14
-0.066,-0.125,-0.059,0.096,-0.003,-0.092,0.05,-0.012,-0.04,-0.165,-0.19,-0.143
-0.073,-0.125,-0.052,0.1,-0.01,-0.089,0.049,-0.01,-0.04,-0.165,-0.19,-0.146
-0.064,-0.124,-0.06,0.095,-0.002,-0.092,0.046,-0.007,-0.072,-0.165,-0.188,-0.143
-0.052,-0.126,-0.074,0.089,0.012,-0.1,0.044,-0.005,-0.076,-0.162,-0.185,-0.14
-0.055,-0.124,-0.069,0.09,0.007,-0.096,0.045,-0.001,-0.075,-0.156,-0.182,-0.14
-0.064,-0.126,-0.062,0.095,0.0,-0.094,0.045,0.001,-0.09,-0.152,-0.18,-0.137
-0.064,-0.121,-0.058,0.093,-0.003,-0.089,0.045,0.004,-0.079,-0.147,-0.176,-0.134
-0.053,-0.104,-0.051,0.079,-0.001,-0.078,0.047,0.007,-0.072,-0.143,-0.175,-0.135
-0.038,-0.071,-0.033,0.055,-0.002,-0.052,0.05,0.002,-0.064,-0.139,-0.169,-0.129
-0.023,-0.025,-0.003,0.024,-0.01,-0.014,0.05,0.017,-0.061,-0.13,-0.156,-0.115
-0.035,-0.007,0.028,0.021,-0.032,0.01,0.017,0.011,-0.067,-0.12,-0.146,-0.107
-0.021,0.005,0.026,0.008,-0.024,0.015,-0.032,-0.002,-0.063,-0.111,-0.145,-0.11
0.029,0.0,-0.029,-0.014,0.029,-0.015,-0.041,-0.005,-0.066,-0.111,-0.146,-0.111
0.02,-0.031,-0.051,0.006,0.036,-0.041,-0.023,-0.025,-0.062,-0.109,-0.146,-0.11
0.006,-0.055,-0.061,0.024,0.034,-0.057,-0.011,-0.025,-0.067,-0.112,-0.145,-0.112
0.014,-0.073,-0.087,0.03,0.051,-0.079,-0.007,-0.025,-0.092,-0.133,-0.154,-0.107
-0.022,-0.103,-0.081,0.063,0.03,-0.092,0.001,-0.025,-0.104,-0.153,-0.176,-0.122
-0.054,-0.133,-0.078,0.093,0.013,-0.105,0.025,-0.025,-0.119,-0.172,-0.197,-0.151
-0.064,-0.139,-0.075,0.102,0.006,-0.107,0.045,-0.024,-0.128,-0.191,-0.217,-0.161
-0.08,-0.149,-0.069,0.114,-0.006,-0.109,0.047,-0.021,-0.125,-0.196,-0.221,-0.161
-0.078,-0.151,-0.073,0.114,-0.002,-0.112,0.049,-0.02,-0.124,-0.198,-0.225,-0.169
-0.067,-0.151,-0.084,0.109,0.009,-0.117,0.057,-0.019,-0.123,-0.205,-0.222,-0.169
-0.078,-0.16,-0.082,0.119,0.002,-0.121,0.07,-0.022,-0.117,-0.201,-0.216,-0.164
-0.083,-0.155,-0.072,0.119,-0.005,-0.113,0.071,-0.017,-0.124,-0.205,-0.226,-0.168
-0.078,-0.155,-0.076,0.117,0.0,-0.115,0.068,-0.022,-0.109,-0.187,-0.204,-0.158
-0.096,-0.155,-0.059,0.126,-0.018,-0.107,0.073,-0.005,-0.105,-0.196,-0.229,-0.168
-0.072,-0.147,-0.076,0.11,0.002,-0.111,0.066,-0.014,-0.093,-0.176,-0.2,-0.149
-0.093,-0.153,-0.06,0.123,-0.016,-0.106,0.074,0.01,-0.077,-0.18,-0.24,-0.17
-0.074,-0.149,-0.075,0.112,0.0,-0.112,0.056,0.002,-0.087,-0.177,-0.209,-0.149
0.006,-0.185,-0.191,0.09,0.099,-0.187,0.112,0.227,0.11,-0.101,-0.198,-0.203
0.13,-0.089,-0.22,-0.02,0.175,-0.154,0.166,0.603,0.495,0.289,0.075,0.001
0.38,0.552,0.173,-0.466,0.103,0.362,-0.27,-0.149,0.253,1.089,1.246,1.028
0.382,1.281,0.899,-0.832,-0.258,1.09,-0.892,-1.426,-1.193,1.015,2.315,2.273
0.154,0.848,0.694,-0.502,-0.27,0.771,-0.839,-1.481,-1.975,0.283,2.339,2.296
-0.061,-0.18,-0.119,0.121,0.029,-0.149,-0.273,-0.442,-1.176,-0.286,0.721,0.627
-0.123,-0.319,-0.196,0.221,0.036,-0.257,0.04,0.26,-0.355,-0.431,-0.425,-0.286
-0.097,-0.119,-0.021,0.108,-0.038,-0.07,0.079,0.123,0.001,-0.112,-0.14,-0.114
-0.099,-0.11,-0.01,0.105,-0.044,-0.059,0.082,0.023,0.066,-0.084,-0.19,-0.185
-0.067,-0.085,-0.018,0.076,-0.024,-0.051,0.078,0.064,0.09,-0.072,-0.175,-0.143
-0.069,-0.094,-0.025,0.082,-0.022,-0.059,0.081,0.047,0.126,-0.039,-0.156,-0.153
-0.067,-0.081,-0.013,0.075,-0.027,-0.047,0.079,0.061,0.133,-0.048,-0.179,-0.147
-0.065,-0.079,-0.013,0.072,-0.026,-0.046,0.078,0.051,0.167,-0.007,-0.132,-0.125
-0.066,-0.073,-0.006,0.07,-0.03,-0.039,0.072,0.058,0.18,0.0,-0.147,-0.127
-0.063,-0.066,-0.003,0.064,-0.03,-0.034,0.068,0.054,0.203,0.031,-0.108,-0.098
-0.057,-0.055,0.002,0.056,-0.029,-0.027,0.064,0.061,0.218,0.037,-0.1,-0.098
-0.049,-0.042,0.007,0.045,-0.028,-0.017,0.059,0.06,0.254,0.075,-0.059,-0.073
-0.042,-0.029,0.013,0.035,-0.027,-0.008,0.053,0.06,0.289,0.105,-0.042,-0.059
-0.025,-0.007,0.018,0.015,-0.021,0.006,0.043,0.081,0.339,0.149,-0.014,-0.029
-0.014,0.011,0.025,0.001,-0.02,0.018,0.036,0.094,0.394,0.202,0.026,-0.001
0.001,0.039,0.038,-0.02,-0.019,0.038,0.026,0.115,0.464,0.255,0.064,0.033
0.021,0.079,0.058,-0.05,-0.019,0.068,0.009,0.139,0.544,0.32,0.119,0.081
0.047,0.126,0.079,-0.087,-0.016,0.102,-0.014,0.155,0.611,0.379,0.178,0.136
0.07,0.167,0.097,-0.119,-0.014,0.132,-0.043,0.152,0.661,0.437,0.246,0.208
0.107,0.219,0.112,-0.163,-0.003,0.165,-0.071,0.145,0.654,0.47,0.315,0.282
0.13,0.253,0.123,-0.192,0.003,0.188,-0.094,0.129,0.64,0.466,0.367,0.345
0.139,0.265,0.126,-0.203,0.006,0.195,-0.115,0.098,0.603,0.456,0.397,0.385
0.14,0.254,0.115,-0.197,0.012,0.184,-0.118,0.06,0.504,0.429,0.39,0.394
0.111,0.215,0.104,-0.164,0.003,0.16,-0.112,0.034,0.392,0.361,0.357,0.357
0.092,0.162,0.07,-0.127,0.01,0.116,-0.09,0.025,0.281,0.267,0.276,0.269
0.052,0.089,0.037,-0.071,0.007,0.063,-0.052,0.012,0.185,0.158,0.158,0.163
0.002,0.028,0.025,-0.015,-0.012,0.026,-0.023,0.003,0.109,0.058,0.048,0.06
-0.03,-0.018,0.012,0.024,-0.021,-0.003,0.003,-0.004,0.041,-0.023,-0.038,-0.015
-0.058,-0.056,0.002,0.057,-0.029,-0.026,0.02,-0.011,0.001,-0.081,-0.106,-0.07
-0.071,-0.082,-0.011,0.077,-0.03,-0.046,0.03,-0.017,-0.016,-0.111,-0.148,-0.112
-0.08,-0.092,-0.012,0.086,-0.034,-0.052,0.039,-0.025,-0.024,-0.133,-0.161,-0.131
-0.085,-0.094,-0.009,0.09,-0.038,-0.051,0.043,-0.03,-0.036,-0.144,-0.173,-0.142
-0.084,-0.096,-0.011,0.09,-0.036,-0.053,0.048,-0.03,-0.039,-0.145,-0.179,-0.141
-0.086,-0.095,-0.009,0.09,-0.038,-0.051,0.049,-0.03,-0.045,-0.145,-0.176,-0.139
-0.084,-0.095,-0.011,0.09,-0.036,-0.053,0.045,-0.03,-0.057,-0.145,-0.175,-0.141
-0.087,-0.095,-0.008,0.091,-0.039,-0.051,0.045,-0.03,-0.053,-0.145,-0.174,-0.14
-0.093,-0.091,0.002,0.092,-0.047,-0.044,0.045,-0.031,-0.051,-0.145,-0.17,-0.14
-0.09,-0.09,0.0,0.09,-0.045,-0.045,0.045,-0.027,-0.048,-0.141,-0.17,-0.143
-0.09,-0.09,0.0,0.09,-0.045,-0.045,0.045,-0.025,-0.045,-0.135,-0.169,-0.145
-0.088,-0.085,0.002,0.086,-0.045,-0.041,0.049,-0.025,-0.043,-0.13,-0.163,-0.145
-0.095,-0.085,0.01,0.09,-0.052,-0.037,0.05,-0.021,-0.036,-0.124,-0.158,-0.145
-0.086,-0.084,0.002,0.085,-0.044,-0.04,0.05,-0.02,-0.03,-0.119,-0.153,-0.145
-0.063,-0.08,-0.016,0.072,-0.023,-0.048,0.05,-0.02,-0.022,-0.114,-0.146,-0.144
-0.065,-0.08,-0.015,0.073,-0.025,-0.047,0.05,-0.02,-0.017,-0.11,-0.141,-0.14
-0.067,-0.08,-0.013,0.074,-0.027,-0.046,0.049,-0.02,-0.019,-0.111,-0.143,-0.14
-0.069,-0.08,-0.011,0.075,-0.029,-0.045,0.045,-0.02,-0.02,-0.107,-0.146,-0.138
-0.072,-0.08,-0.008,0.076,-0.032,-0.044,0.046,-0.02,-0.02,-0.105,-0.149,-0.135
-0.059,-0.076,-0.018,0.068,-0.02,-0.047,0.042,-0.02,-0.021,-0.105,-0.152,-0.135
-0.048,-0.075,-0.026,0.062,-0.01,-0.05,0.04,-0.023,-0.019,-0.109,-0.154,-0.139
-0.054,-0.075,-0.021,0.064,-0.016,-0.048,0.04,-0.025,-0.023,-0.123,-0.156,-0.146
-0.057,-0.075,-0.018,0.066,-0.019,-0.046,0.036,-0.028,-0.027,-0.132,-0.161,-0.151
-0.059,-0.075,-0.015,0.067,-0.021,-0.045,0.034,-0.031,-0.039,-0.142,-0.173,-0.155
-0.068,-0.076,-0.008,0.072,-0.029,-0.042,0.031,-0.034,-0.052,-0.153,-0.181,-0.158
-0.059,-0.08,-0.021,0.07,-0.019,-0.05,0.029,-0.035,-0.055,-0.158,-0.184,-0.162
-0.042,-0.08,-0.038,0.062,-0.002,-0.059,0.024,-0.03,-0.06,-0.162,-0.189,-0.165
-0.05,-0.083,-0.033,0.067,-0.008,-0.057,0.027,-0.031,-0.06,-0.167,-0.19,-0.169
-0.059,-0.088,-0.03,0.074,-0.014,-0.059,0.032,-0.028,-0.06,-0.17,-0.192,-0.17
-0.059,-0.088,-0.03,0.074,-0.015,-0.059,0.03,-0.026,-0.06,-0.17,-0.195,-0.17
-0.064,-0.085,-0.021,0.075,-0.021,-0.053,0.03,-0.023,-0.06,-0.173,-0.196,-0.17
-0.05,-0.085,-0.035,0.068,-0.007,-0.06,0.03,-0.034,-0.06,-0.176,-0.2,-0.17
-0.051,-0.085,-0.035,0.068,-0.008,-0.06,0.03,-0.052,-0.061,-0.179,-0.199,-0.17
-0.055,-0.085,-0.03,0.07,-0.012,-0.057,0.03,-0.048,-0.066,-0.182,-0.202,-0.17
-0.051,-0.085,-0.034,0.068,-0.008,-0.059,0.034,-0.045,-0.069,-0.185,-0.205,-0.17
-0.06,-0.09,-0.03,0.075,-0.015,-0.06,0.035,-0.042,-0.07,-0.185,-0.205,-0.17
-0.044,-0.091,-0.046,0.068,0.001,-0.068,0.036,-0.04,-0.07,-0.185,-0.205,-0.17
-0.047,-0.09,-0.042,0.069,-0.003,-0.066,0.04,-0.038,-0.07,-0.185,-0.205,-0.17
-0.053,-0.09,-0.037,0.072,-0.008,-0.063,0.04,-0.034,-0.07,-0.185,-0.205,-0.173
-0.053,-0.09,-0.037,0.072,-0.008,-0.063,0.042,-0.035,-0.07,-0.181,-0.205,-0.176
-0.063,-0.09,-0.027,0.077,-0.018,-0.059,0.046,-0.031,-0.071,-0.18,-0.204,-0.179
-0.049,-0.086,-0.037,0.068,-0.006,-0.061,0.045,-0.029,-0.075,-0.18,-0.206,-0.182
-0.048,-0.085,-0.037,0.067,-0.005,-0.061,0.042,-0.031,-0.078,-0.18,-0.21,-0.184
-0.057,-0.085,-0.027,0.071,-0.014,-0.056,0.037,-0.034,-0.082,-0.179,-0.21,-0.187
-0.04,-0.081,-0.04,0.061,0.0,-0.06,0.034,-0.035,-0.085,-0.181,-0.21,-0.19
-0.056,-0.079,-0.023,0.068,-0.017,-0.051,0.031,-0.036,-0.082,-0.185,-0.21,-0.19
-0.087,-0.081,0.005,0.084,-0.046,-0.038,0.026,-0.041,-0.079,-0.185,-0.21,-0.19
-0.071,-0.085,-0.014,0.078,-0.028,-0.049,0.025,-0.04,-0.08,-0.189,-0.207,-0.19
-0.051,-0.085,-0.034,0.068,-0.008,-0.059,0.025,-0.038,-0.079,-0.191,-0.204,-0.19
-0.069,-0.087,-0.018,0.079,-0.026,-0.052,0.025,-0.034,-0.081,-0.186,-0.201,-0.187
-0.098,-0.091,0.007,0.094,-0.053,-0.041,0.029,-0.037,-0.078,-0.185,-0.198,-0.184
-0.063,-0.09,-0.027,0.076,-0.018,-0.058,0.03,-0.049,-0.075,-0.185,-0.195,-0.181
-0.044,-0.087,-0.043,0.066,0.0,-0.065,0.03,-0.05,-0.075,-0.18,-0.195,-0.178
-0.062,-0.082,-0.02,0.072,-0.02,-0.051,0.03,-0.05,-0.073,-0.18,-0.205,-0.175
-0.053,-0.079,-0.027,0.066,-0.013,-0.053,0.03,-0.05,-0.069,-0.179,-0.21,-0.173
-0.051,-0.076,-0.024,0.064,-0.013,-0.05,0.03,-0.05,-0.07,-0.175,-0.209,-0.17
-0.046,-0.071,-0.025,0.059,-0.011,-0.048,0.026,-0.048,-0.073,-0.175,-0.212,-0.17
-0.046,-0.069,-0.022,0.058,-0.012,-0.045,0.025,-0.045,-0.075,-0.175,-0.215,-0.17
-0.047,-0.064,-0.017,0.055,-0.014,-0.04,0.025,-0.042,-0.075,-0.175,-0.215,-0.17
-0.042,-0.058,-0.017,0.051,-0.012,-0.037,0.025,-0.04,-0.075,-0.175,-0.211,-0.17
-0.046,-0.055,-0.009,0.05,-0.018,-0.032,0.025,-0.037,-0.075,-0.171,-0.21,-0.167
-0.033,-0.05,-0.017,0.041,-0.008,-0.033,0.024,-0.033,-0.074,-0.164,-0.207,-0.164
-0.021,-0.046,-0.024,0.034,0.002,-0.035,0.018,-0.044,-0.076,-0.158,-0.205,-0.161
-0.036,-0.041,-0.005,0.038,-0.015,-0.023,0.01,-0.039,-0.067,-0.15,-0.203,-0.158
-0.05,-0.039,0.012,0.044,-0.031,-0.013,0.005,-0.013,-0.048,-0.145,-0.183,-0.155
-0.05,-0.034,0.015,0.042,-0.032,-0.009,-0.004,0.001,-0.029,-0.137,-0.165,-0.153
-0.027,-0.032,-0.005,0.029,-0.011,-0.018,-0.006,0.008,-0.017,-0.129,-0.166,-0.142
0.023,-0.029,-0.052,0.003,0.038,-0.04,-0.028,0.033,-0.004,-0.112,-0.165,-0.131
0.047,-0.022,-0.068,-0.012,0.058,-0.045,-0.034,0.023,-0.003,-0.112,-0.162,-0.131
0.023,-0.04,-0.063,0.009,0.043,-0.051,-0.007,-0.029,-0.041,-0.133,-0.16,-0.13
0.014,-0.052,-0.067,0.02,0.04,-0.059,-0.002,-0.042,-0.059,-0.138,-0.16,-0.13
0.009,-0.052,-0.061,0.022,0.035,-0.056,0.005,-0.046,-0.066,-0.156,-0.176,-0.13
-0.006,-0.056,-0.05,0.031,0.022,-0.053,0.01,-0.058,-0.078,-0.17,-0.186,-0.132
-0.026,-0.063,-0.037,0.045,0.006,-0.05,0.016,-0.06,-0.069,-0.168,-0.194,-0.161
-0.048,-0.078,-0.03,0.063,-0.009,-0.054,0.038,-0.065,-0.085,-0.188,-0.214,-0.18
-0.055,-0.084,-0.029,0.07,-0.013,-0.056,0.04,-0.063,-0.092,-0.195,-0.219,-0.179
-0.067,-0.09,-0.023,0.079,-0.022,-0.056,0.041,-0.055,-0.089,-0.196,-0.224,-0.182
-0.061,-0.088,-0.027,0.075,-0.017,-0.057,0.04,-0.058,-0.092,-0.193,-0.214,-0.176
-0.067,-0.083,-0.017,0.075,-0.025,-0.05,0.047,-0.047,-0.088,-0.196,-0.226,-0.185
-0.068,-0.08,-0.011,0.074,-0.029,-0.045,0.042,-0.05,-0.093,-0.194,-0.214,-0.174
-0.073,-0.077,-0.005,0.075,-0.034,-0.041,0.05,-0.042,-0.081,-0.199,-0.224,-0.198
-0.072,-0.071,0.001,0.072,-0.037,-0.034,0.049,-0.052,-0.09,-0.203,-0.216,-0.189
-0.058,-0.071,-0.013,0.065,-0.023,-0.042,0.049,-0.034,-0.079,-0.196,-0.202,-0.19
-0.075,-0.075,0.0,0.075,-0.037,-0.037,0.058,-0.022,-0.088,-0.218,-0.221,-0.189
-0.019,-0.086,-0.066,0.053,0.023,-0.076,0.057,0.056,-0.003,-0.17,-0.212,-0.197
0.086,-0.078,-0.163,-0.004,0.125,-0.12,0.147,0.494,0.329,0.061,-0.151,-0.194
0.356,0.304,-0.052,-0.33,0.204,0.126,-0.152,0.071,0.159,0.705,0.779,0.594
0.506,1.108,0.602,-0.807,-0.049,0.855,-0.843,-1.349,-1.09,0.973,2.037,1.942
0.291,1.169,0.877,-0.73,-0.293,1.023,-1.021,-1.848,-2.094,0.505,2.617,2.63
0.052,0.175,0.122,-0.114,-0.035,0.148,-0.534,-1.002,-1.578,-0.029,1.595,1.418
-0.096,-0.283,-0.187,0.19,0.046,-0.234,-0.069,-0.009,-0.59,-0.386,-0.149,-0.131
-0.097,-0.075,0.022,0.086,-0.059,-0.027,0.043,0.135,-0.091,-0.213,-0.259,-0.177
-0.091,-0.032,0.059,0.061,-0.074,0.013,0.064,0.012,0.07,-0.068,-0.123,-0.138
-0.089,-0.015,0.074,0.052,-0.081,0.029,0.076,0.056,0.103,-0.095,-0.244,-0.191
-0.066,-0.012,0.054,0.038,-0.059,0.021,0.068,0.039,0.14,-0.042,-0.164,-0.145
-0.071,-0.013,0.058,0.042,-0.064,0.022,0.067,0.049,0.15,-0.056,-0.218,-0.177
-0.051,-0.004,0.047,0.027,-0.049,0.022,0.059,0.043,0.172,-0.023,-0.162,-0.14
-0.053,-0.008,0.045,0.03,-0.049,0.018,0.057,0.045,0.19,-0.02,-0.171,-0.158
-0.067,0.0,0.068,0.033,-0.067,0.034,0.051,0.045,0.205,0.001,-0.139,-0.138
-0.068,0.006,0.074,0.031,-0.071,0.04,0.048,0.054,0.23,0.026,-0.121,-0.135
-0.059,0.018,0.077,0.02,-0.068,0.047,0.044,0.075,0.258,0.048,-0.106,-0.12
-0.039,0.032,0.072,0.003,-0.056,0.052,0.042,0.07,0.3,0.083,-0.079,-0.106
-0.032,0.047,0.079,-0.008,-0.056,0.063,0.039,0.086,0.349,0.121,-0.066,-0.089
-0.021,0.066,0.086,-0.023,-0.054,0.076,0.036,0.11,0.414,0.174,-0.022,-0.051
-0.004,0.09,0.094,-0.043,-0.049,0.092,0.034,0.135,0.486,0.229,0.013,-0.025
0.0,0.12,0.12,-0.06,-0.06,0.119,0.02,0.168,0.568,0.291,0.064,0.011
0.036,0.162,0.126,-0.099,-0.045,0.144,-0.006,0.201,0.652,0.352,0.112,0.055
0.071,0.21,0.139,-0.141,-0.034,0.174,-0.027,0.22,0.718,0.412,0.168,0.111
0.084,0.254,0.17,-0.169,-0.043,0.212,-0.043,0.214,0.754,0.457,0.229,0.179
0.117,0.299,0.181,-0.208,-0.032,0.24,-0.071,0.201,0.754,0.475,0.279,0.241
0.124,0.317,0.193,-0.221,-0.035,0.255,-0.092,0.182,0.713,0.474,0.326,0.303
0.11,0.313,0.203,-0.212,-0.047,0.258,-0.109,0.146,0.631,0.453,0.335,0.338
0.138,0.307,0.168,-0.223,-0.015,0.237,-0.115,0.098,0.509,0.388,0.317,0.324
0.128,0.259,0.131,-0.194,-0.002,0.195,-0.1,0.048,0.384,0.32,0.292,0.293
0.074,0.198,0.124,-0.136,-0.026,0.161,-0.086,0.014,0.273,0.232,0.215,0.214
0.038,0.134,0.095,-0.086,-0.029,0.114,-0.075,0.001,0.165,0.118,0.104,0.105
0.01,0.063,0.053,-0.036,-0.022,0.058,-0.045,-0.003,0.086,0.028,0.014,0.018
-0.017,0.014,0.031,0.002,-0.024,0.022,-0.013,-0.011,0.038,-0.046,-0.06,-0.058
-0.047,-0.017,0.03,0.032,-0.038,0.006,-0.004,-0.018,-0.004,-0.093,-0.117,-0.105
-0.057,-0.027,0.029,0.042,-0.043,0.001,0.003,-0.023,-0.029,-0.125,-0.152,-0.137
-0.066,-0.04,0.026,0.053,-0.046,-0.007,0.013,-0.032,-0.039,-0.142,-0.176,-0.154
-0.071,-0.048,0.023,0.059,-0.046,-0.012,0.019,-0.035,-0.05,-0.144,-0.173,-0.15
-0.078,-0.045,0.033,0.061,-0.055,-0.006,0.026,-0.044,-0.058,-0.146,-0.169,-0.15
-0.094,-0.042,0.051,0.068,-0.072,0.004,0.032,-0.051,-0.06,-0.145,-0.171,-0.15
-0.09,-0.04,0.05,0.065,-0.07,0.005,0.035,-0.049,-0.06,-0.142,-0.169,-0.15
-0.086,-0.036,0.05,0.061,-0.068,0.006,0.038,-0.05,-0.056,-0.14,-0.171,-0.15
-0.085,-0.035,0.05,0.06,-0.067,0.007,0.041,-0.05,-0.052,-0.14,-0.169,-0.15
-0.088,-0.038,0.05,0.063,-0.068,0.006,0.044,-0.05,-0.049,-0.135,-0.165,-0.15
-0.082,-0.035,0.048,0.058,-0.065,0.006,0.045,-0.046,-0.045,-0.127,-0.165,-0.15
-0.086,-0.042,0.044,0.063,-0.065,0.001,0.039,-0.045,-0.041,-0.121,-0.164,-0.15
-0.092,-0.047,0.045,0.069,-0.068,-0.001,0.034,-0.045,-0.038,-0.114,-0.16,-0.15
-0.084,-0.045,0.039,0.064,-0.061,-0.002,0.029,-0.04,-0.033,-0.107,-0.16,-0.15
-0.077,-0.044,0.033,0.06,-0.055,-0.005,0.022,-0.04,-0.027,-0.107,-0.16,-0.15
-0.069,-0.04,0.029,0.055,-0.049,-0.005,0.018,-0.039,-0.024,-0.11,-0.16,-0.15
-0.061,-0.039,0.022,0.05,-0.042,-0.008,0.012,-0.035,-0.018,-0.11,-0.16,-0.15
-0.063,-0.044,0.018,0.053,-0.04,-0.013,0.01,-0.035,-0.015,-0.11,-0.16,-0.15
-0.067,-0.055,0.011,0.061,-0.039,-0.022,0.01,-0.035,-0.02,-0.11,-0.16,-0.15
-0.07,-0.06,0.01,0.065,-0.04,-0.025,0.01,-0.035,-0.02,-0.11,-0.16,-0.152
-0.072,-0.063,0.009,0.067,-0.04,-0.027,0.01,-0.035,-0.022,-0.115,-0.167,-0.16
-0.072,-0.068,0.004,0.07,-0.038,-0.032,0.01,-0.035,-0.03,-0.125,-0.177,-0.164
-0.076,-0.07,0.006,0.073,-0.041,-0.031,0.02,-0.035,-0.035,-0.133,-0.188,-0.168
-0.051,-0.07,-0.019,0.061,-0.016,-0.044,0.022,-0.035,-0.044,-0.156,-0.19,-0.177
-0.039,-0.07,-0.031,0.055,-0.004,-0.05,0.019,-0.035,-0.053,-0.162,-0.192,-0.181
-0.05,-0.07,-0.019,0.06,-0.016,-0.044,0.021,-0.035,-0.059,-0.159,-0.208,-0.179
-0.055,-0.07,-0.015,0.063,-0.02,-0.042,0.02,-0.033,-0.06,-0.166,-0.211,-0.18
-0.068,-0.075,-0.007,0.071,-0.03,-0.04,0.02,-0.03,-0.06,-0.164,-0.209,-0.18
-0.07,-0.075,-0.005,0.073,-0.032,-0.04,0.02,-0.027,-0.06,-0.166,-0.211,-0.18
-0.073,-0.075,-0.002,0.074,-0.035,-0.038,0.02,-0.025,-0.059,-0.17,-0.209,-0.185
-0.076,-0.075,0.001,0.076,-0.038,-0.037,0.02,-0.021,-0.061,-0.169,-0.212,-0.185
-0.079,-0.074,0.004,0.076,-0.041,-0.035,0.02,-0.02,-0.065,-0.172,-0.214,-0.186
-0.082,-0.077,0.005,0.079,-0.043,-0.036,0.02,-0.023,-0.065,-0.175,-0.218,-0.19
-0.083,-0.082,0.0,0.083,-0.041,-0.041,0.02,-0.026,-0.065,-0.175,-0.22,-0.189
-0.086,-0.087,0.0,0.087,-0.043,-0.043,0.024,-0.029,-0.065,-0.175,-0.223,-0.192
-0.09,-0.09,0.0,0.09,-0.045,-0.045,0.025,-0.03,-0.065,-0.175,-0.225,-0.195
-0.089,-0.09,-0.001,0.09,-0.044,-0.045,0.024,-0.03,-0.062,-0.175,-0.221,-0.195
-0.091,-0.09,0.001,0.09,-0.046,-0.044,0.028,-0.03,-0.059,-0.175,-0.219,-0.195
-0.087,-0.09,-0.003,0.088,-0.042,-0.047,0.03,-0.03,-0.06,-0.175,-0.22,-0.195
-0.073,-0.09,-0.017,0.082,-0.028,-0.053,0.03,-0.03,-0.059,-0.174,-0.219,-0.194
-0.076,-0.09,-0.015,0.083,-0.03,-0.052,0.03,-0.03,-0.06,-0.169,-0.22,-0.19
-0.079,-0.087,-0.008,0.083,-0.035,-0.048,0.03,-0.026,-0.059,-0.166,-0.219,-0.185
-0.075,-0.079,-0.004,0.077,-0.035,-0.041,0.03,-0.022,-0.054,-0.162,-0.213,-0.18
-0.073,-0.071,0.002,0.072,-0.038,-0.034,0.025,-0.017,-0.05,-0.158,-0.205,-0.176
-0.071,-0.063,0.008,0.066,-0.039,-0.027,0.017,-0.013,-0.045,-0.155,-0.199,-0.171
-0.063,-0.056,0.007,0.06,-0.035,-0.024,0.011,-0.008,-0.041,-0.148,-0.192,-0.168
-0.053,-0.059,-0.006,0.057,-0.023,-0.032,0.003,0.004,-0.032,-0.133,-0.186,-0.16
-0.044,-0.06,-0.016,0.052,-0.014,-0.038,-0.002,0.018,-0.014,-0.12,-0.188,-0.156
-0.019,-0.061,-0.042,0.04,0.012,-0.051,-0.009,0.046,0.01,-0.115,-0.191,-0.16
-0.014,-0.066,-0.052,0.04,0.02,-0.058,-0.025,0.051,0.003,-0.115,-0.191,-0.161
-0.021,-0.065,-0.044,0.043,0.012,-0.054,-0.024,0.031,-0.038,-0.13,-0.195,-0.161
-0.009,-0.067,-0.058,0.038,0.025,-0.062,-0.013,0.014,-0.046,-0.136,-0.195,-0.16
-0.015,-0.074,-0.059,0.045,0.022,-0.066,-0.007,-0.009,-0.043,-0.145,-0.195,-0.161
-0.028,-0.08,-0.052,0.054,0.013,-0.066,0.007,-0.031,-0.063,-0.162,-0.206,-0.158
-0.046,-0.097,-0.051,0.071,0.003,-0.073,0.031,-0.037,-0.071,-0.161,-0.212,-0.17
-0.068,-0.112,-0.043,0.09,-0.012,-0.077,0.047,-0.03,-0.073,-0.17,-0.225,-0.193
-0.071,-0.109,-0.038,0.091,-0.016,-0.074,0.047,-0.031,-0.077,-0.174,-0.232,-0.193
-0.08,-0.11,-0.03,0.095,-0.025,-0.07,0.054,-0.025,-0.078,-0.176,-0.238,-0.197
-0.086,-0.11,-0.024,0.098,-0.031,-0.067,0.059,-0.024,-0.081,-0.175,-0.239,-0.193
-0.091,-0.109,-0.018,0.101,-0.037,-0.063,0.061,-0.022,-0.073,-0.174,-0.238,-0.196
-0.098,-0.111,-0.013,0.105,-0.042,-0.061,0.066,-0.013,-0.074,-0.177,-0.236,-0.195
-0.091,-0.109,-0.018,0.1,-0.037,-0.063,0.065,-0.019,-0.066,-0.173,-0.23,-0.193
-0.1,-0.111,-0.011,0.106,-0.045,-0.061,0.075,-0.001,-0.066,-0.187,-0.241,-0.2
-0.088,-0.108,-0.02,0.099,-0.034,-0.064,0.062,-0.018,-0.061,-0.171,-0.216,-0.186
-0.104,-0.112,-0.007,0.109,-0.049,-0.059,0.073,0.019,-0.052,-0.19,-0.247,-0.209
-0.083,-0.113,-0.029,0.098,-0.027,-0.071,0.079,0.03,-0.042,-0.173,-0.214,-0.184
0.016,-0.125,-0.141,0.055,0.079,-0.133,0.141,0.317,0.18,-0.085,-0.263,-0.259
0.187,0.003,-0.184,-0.095,0.186,-0.091,0.131,0.591,0.452,0.385,0.173,0.069
0.442,0.679,0.237,-0.561,0.102,0.458,-0.389,-0.455,-0.198,0.964,1.377,1.222
0.441,1.239,0.797,-0.84,-0.178,1.018,-0.93,-1.691,-1.635,0.876,2.539,2.529
0.175,0.575,0.399,-0.375,-0.112,0.487,-0.75,-1.484,-1.933,0.423,2.508,2.296
-0.065,-0.26,-0.195,0.163,0.065,-0.227,-0.209,-0.414,-1.024,-0.239,0.578,0.418
-0.125,-0.216,-0.091,0.171,-0.017,-0.153,0.052,0.193,-0.275,-0.349,-0.403,-0.28
-0.107,-0.071,0.037,0.089,-0.072,-0.017,0.088,0.091,0.049,-0.042,-0.098,-0.086
-0.099,-0.055,0.044,0.076,-0.071,-0.005,0.098,0.066,0.111,-0.068,-0.216,-0.194
-0.08,-0.032,0.048,0.055,-0.064,0.007,0.093,0.096,0.15,-0.026,-0.171,-0.159
-0.085,-0.046,0.039,0.065,-0.062,-0.003,0.095,0.081,0.181,-0.027,-0.182,-0.186
-0.075,-0.032,0.043,0.054,-0.059,0.005,0.089,0.099,0.187,-0.013,-0.177,-0.161
-0.074,-0.037,0.037,0.056,-0.055,0.0,0.09,0.091,0.203,0.02,-0.154,-0.154
-0.073,-0.034,0.039,0.053,-0.055,0.002,0.088,0.104,0.223,0.028,-0.153,-0.148
-0.062,-0.029,0.033,0.045,-0.047,0.002,0.081,0.106,0.251,0.064,-0.113,-0.127
-0.06,-0.023,0.036,0.041,-0.048,0.006,0.077,0.111,0.275,0.077,-0.107,-0.118
-0.05,-0.015,0.035,0.032,-0.042,0.009,0.071,0.118,0.31,0.116,-0.064,-0.088
-0.031,0.001,0.032,0.015,-0.032,0.017,0.065,0.134,0.347,0.145,-0.052,-0.076
-0.029,0.03,0.059,-0.001,-0.044,0.044,0.06,0.157,0.407,0.194,-0.017,-0.046
-0.03,0.052,0.082,-0.011,-0.056,0.067,0.053,0.185,0.478,0.248,0.017,-0.017
-0.005,0.075,0.079,-0.035,-0.042,0.077,0.043,0.211,0.556,0.308,0.062,0.019
0.026,0.111,0.085,-0.069,-0.029,0.097,0.037,0.247,0.642,0.38,0.118,0.059
0.056,0.157,0.101,-0.107,-0.023,0.129,0.02,0.27,0.716,0.44,0.175,0.121
0.086,0.203,0.116,-0.145,-0.015,0.159,-0.009,0.271,0.77,0.5,0.241,0.194
0.121,0.247,0.126,-0.184,-0.003,0.186,-0.041,0.281,0.783,0.536,0.307,0.271
0.149,0.289,0.14,-0.219,0.004,0.214,-0.065,0.253,0.755,0.535,0.371,0.343
0.158,0.313,0.154,-0.236,0.002,0.233,-0.088,0.199,0.687,0.526,0.396,0.39
0.16,0.306,0.146,-0.233,0.007,0.225,-0.105,0.149,0.573,0.479,0.396,0.405
0.137,0.268,0.131,-0.203,0.003,0.199,-0.092,0.1,0.44,0.399,0.364,0.371
0.105,0.207,0.102,-0.156,0.002,0.154,-0.081,0.072,0.324,0.315,0.289,0.29
0.057,0.133,0.076,-0.095,-0.01,0.104,-0.06,0.057,0.227,0.206,0.181,0.179
0.016,0.07,0.053,-0.043,-0.019,0.061,-0.022,0.049,0.13,0.101,0.07,0.072
-0.015,0.022,0.036,-0.004,-0.026,0.029,0.016,0.041,0.072,0.024,-0.021,-0.013
-0.065,-0.019,0.046,0.042,-0.055,0.013,0.036,0.033,0.043,-0.041,-0.094,-0.078
-0.076,-0.052,0.024,0.064,-0.05,-0.014,0.058,0.026,0.016,-0.083,-0.131,-0.114
-0.08,-0.069,0.011,0.074,-0.045,-0.029,0.073,0.02,0.005,-0.102,-0.165,-0.139
-0.103,-0.074,0.029,0.088,-0.065,-0.023,0.068,0.02,-0.008,-0.112,-0.178,-0.148
-0.108,-0.075,0.033,0.092,-0.07,-0.021,0.071,0.02,-0.026,-0.119,-0.173,-0.149
-0.1,-0.075,0.025,0.087,-0.062,-0.025,0.07,0.02,-0.032,-0.122,-0.176,-0.15
-0.08,-0.075,0.005,0.078,-0.042,-0.035,0.07,0.02,-0.029,-0.119,-0.174,-0.145
-0.087,-0.074,0.012,0.08,-0.049,-0.031,0.07,0.018,-0.031,-0.12,-0.175,-0.144
-0.084,-0.078,0.006,0.08,-0.045,-0.035,0.073,0.014,-0.03,-0.12,-0.17,-0.139
-0.084,-0.08,0.004,0.082,-0.044,-0.038,0.076,0.015,-0.031,-0.12,-0.166,-0.142
-0.118,-0.08,0.038,0.099,-0.078,-0.02,0.074,0.015,-0.028,-0.117,-0.164,-0.146
-0.113,-0.08,0.034,0.096,-0.074,-0.023,0.075,0.015,-0.018,-0.101,-0.16,-0.145
-0.111,-0.08,0.03,0.096,-0.071,-0.025,0.075,0.014,-0.007,-0.09,-0.155,-0.145
-0.109,-0.08,0.029,0.094,-0.069,-0.025,0.076,0.01,0.0,-0.099,-0.157,-0.145
-0.099,-0.076,0.024,0.087,-0.061,-0.026,0.072,0.01,0.0,-0.1,-0.16,-0.145
-0.101,-0.075,0.026,0.088,-0.063,-0.024,0.07,0.008,0.0,-0.096,-0.161,-0.147
-0.098,-0.075,0.023,0.086,-0.06,-0.026,0.066,0.006,0.0,-0.094,-0.165,-0.15
-0.103,-0.075,0.028,0.088,-0.065,-0.024,0.065,0.003,0.0,-0.09,-0.165,-0.153
-0.079,-0.075,0.004,0.077,-0.041,-0.035,0.06,0.012,-0.002,-0.089,-0.165,-0.155
-0.055,-0.078,-0.022,0.067,-0.016,-0.05,0.061,0.026,-0.008,-0.082,-0.164,-0.159
-0.067,-0.08,-0.013,0.074,-0.027,-0.047,0.075,0.026,-0.012,-0.089,-0.171,-0.16
-0.044,-0.08,-0.036,0.062,-0.004,-0.057,0.075,0.02,-0.017,-0.107,-0.182,-0.157
-0.065,-0.083,-0.019,0.074,-0.023,-0.051,0.071,0.02,-0.021,-0.109,-0.175,-0.154
-0.094,-0.086,0.008,0.09,-0.05,-0.039,0.068,0.014,-0.026,-0.113,-0.176,-0.158
-0.072,-0.084,-0.012,0.078,-0.029,-0.048,0.065,0.017,-0.04,-0.128,-0.193,-0.173
-0.099,-0.081,0.018,0.09,-0.058,-0.031,0.064,0.041,-0.047,-0.132,-0.196,-0.175
-0.064,-0.08,-0.016,0.072,-0.024,-0.047,0.059,0.041,-0.05,-0.138,-0.194,-0.177
-0.062,-0.08,-0.018,0.071,-0.022,-0.049,0.053,0.031,-0.055,-0.145,-0.196,-0.181
-0.083,-0.08,0.004,0.082,-0.043,-0.038,0.05,0.026,-0.055,-0.145,-0.194,-0.179
-0.041,-0.08,-0.038,0.061,-0.001,-0.059,0.045,0.017,-0.055,-0.145,-0.195,-0.18
-0.07,-0.082,-0.013,0.076,-0.028,-0.047,0.04,0.011,-0.055,-0.145,-0.198,-0.18
-0.097,-0.085,0.012,0.091,-0.054,-0.036,0.055,0.005,-0.054,-0.144,-0.2,-0.18
-0.077,-0.085,-0.008,0.081,-0.034,-0.046,0.062,0.005,-0.058,-0.148,-0.208,-0.18
-0.069,-0.085,-0.016,0.077,-0.026,-0.05,0.059,0.005,-0.06,-0.15,-0.212,-0.18
-0.078,-0.085,-0.007,0.082,-0.035,-0.046,0.061,0.005,-0.06,-0.15,-0.207,-0.18
-0.062,-0.084,-0.023,0.073,-0.019,-0.053,0.06,0.005,-0.063,-0.15,-0.205,-0.18
-0.058,-0.081,-0.023,0.07,-0.018,-0.052,0.06,0.007,-0.066,-0.15,-0.201,-0.18
-0.066,-0.078,-0.012,0.072,-0.027,-0.045,0.055,0.011,-0.064,-0.149,-0.199,-0.18
-0.063,-0.075,-0.012,0.069,-0.025,-0.043,0.055,0.01,-0.061,-0.146,-0.204,-0.18
-0.072,-0.072,0.0,0.073,-0.036,-0.036,0.054,0.01,-0.058,-0.144,-0.205,-0.18
-0.064,-0.07,-0.006,0.067,-0.029,-0.038,0.049,0.01,-0.056,-0.145,-0.205,-0.18
-0.048,-0.068,-0.02,0.058,-0.013,-0.044,0.051,0.011,-0.052,-0.144,-0.209,-0.18
-0.047,-0.062,-0.015,0.055,-0.016,-0.039,0.047,0.014,-0.05,-0.145,-0.21,-0.18
-0.048,-0.057,-0.009,0.053,-0.019,-0.033,0.043,0.021,-0.048,-0.143,-0.209,-0.178
-0.051,-0.054,-0.003,0.053,-0.023,-0.029,0.037,0.024,-0.04,-0.137,-0.201,-0.171
-0.068,-0.048,0.02,0.057,-0.044,-0.013,0.034,0.029,-0.035,-0.134,-0.193,-0.166
-0.079,-0.047,0.032,0.062,-0.055,-0.007,0.029,0.033,-0.027,-0.128,-0.185,-0.161
-0.044,-0.02,0.024,0.031,-0.033,0.002,0.024,0.038,-0.021,-0.126,-0.178,-0.155
-0.012,0.007,0.02,0.002,-0.017,0.013,0.033,0.05,-0.014,-0.107,-0.169,-0.15
-0.013,-0.001,0.012,0.007,-0.012,0.005,0.013,0.063,-0.006,-0.089,-0.156,-0.15
0.018,-0.008,-0.026,-0.005,0.022,-0.016,-0.012,0.083,0.013,-0.083,-0.148,-0.151
0.033,-0.015,-0.048,-0.009,0.041,-0.031,-0.005,0.076,0.014,-0.082,-0.152,-0.151
0.015,-0.023,-0.038,0.004,0.027,-0.03,-0.001,0.051,-0.019,-0.105,-0.166,-0.151
0.004,-0.029,-0.033,0.012,0.019,-0.031,0.004,0.034,-0.03,-0.112,-0.17,-0.149
-0.01,-0.035,-0.026,0.023,0.008,-0.03,0.011,0.021,-0.046,-0.123,-0.18,-0.152
-0.017,-0.036,-0.019,0.027,0.001,-0.027,0.014,0.017,-0.058,-0.137,-0.186,-0.159
-0.034,-0.048,-0.014,0.041,-0.01,-0.031,0.034,0.008,-0.053,-0.138,-0.194,-0.166
-0.062,-0.071,-0.009,0.067,-0.026,-0.04,0.062,0.003,-0.067,-0.152,-0.218,-0.179
-0.069,-0.077,-0.009,0.073,-0.03,-0.043,0.067,-0.005,-0.066,-0.149,-0.217,-0.183
-0.074,-0.075,-0.001,0.075,-0.036,-0.038,0.072,-0.001,-0.065,-0.152,-0.225,-0.188
-0.072,-0.075,-0.004,0.073,-0.034,-0.039,0.074,0.001,-0.065,-0.148,-0.222,-0.182
-0.089,-0.074,0.015,0.081,-0.051,-0.03,0.071,-0.001,-0.058,-0.145,-0.231,-0.188
-0.102,-0.076,0.026,0.089,-0.064,-0.025,0.07,0.002,-0.063,-0.146,-0.23,-0.182
-0.089,-0.073,0.016,0.081,-0.052,-0.028,0.068,-0.004,-0.056,-0.143,-0.23,-0.186
-0.088,-0.075,0.014,0.081,-0.051,-0.031,0.067,0.006,-0.065,-0.158,-0.243,-0.188
-0.06,-0.062,-0.002,0.061,-0.029,-0.031,0.061,-0.001,-0.055,-0.139,-0.221,-0.177
-0.072,-0.069,0.003,0.07,-0.037,-0.032,0.072,0.012,-0.063,-0.164,-0.256,-0.199
-0.025,-0.05,-0.025,0.038,0.0,-0.037,0.053,0.019,-0.033,-0.135,-0.209,-0.163
0.048,-0.047,-0.095,-0.001,0.072,-0.07,0.119,0.357,0.219,-0.013,-0.213,-0.198
0.269,0.108,-0.161,-0.188,0.215,-0.027,0.066,0.557,0.395,0.494,0.332,0.218
0.503,0.814,0.311,-0.658,0.096,0.562,-0.49,-0.596,-0.453,0.964,1.558,1.454
0.397,1.207,0.81,-0.802,-0.207,1.008,-0.947,-1.72,-1.785,0.857,2.725,2.733
0.139,0.448,0.309,-0.294,-0.085,0.378,-0.639,-1.253,-1.75,0.428,2.372,2.112
-0.137,-0.26,-0.122,0.199,-0.007,-0.191,-0.107,-0.279,-0.887,-0.291,0.267,0.169
-0.12,-0.14,-0.02,0.13,-0.05,-0.08,0.058,0.12,-0.279,-0.31,-0.393,-0.26
-0.074,0.002,0.075,0.036,-0.074,0.038,0.075,0.128,0.057,-0.007,-0.092,-0.111
-0.111,-0.013,0.098,0.062,-0.104,0.042,0.089,0.13,0.113,-0.047,-0.223,-0.192
-0.061,0.005,0.067,0.028,-0.064,0.036,0.082,0.131,0.148,0.012,-0.136,-0.125
-0.076,0.002,0.078,0.037,-0.077,0.04,0.083,0.129,0.17,-0.005,-0.177,-0.163
-0.059,0.014,0.073,0.022,-0.066,0.043,0.078,0.131,0.185,0.028,-0.149,-0.129
-0.062,0.015,0.076,0.023,-0.069,0.046,0.081,0.132,0.204,0.047,-0.137,-0.135
-0.052,0.028,0.081,0.012,-0.067,0.054,0.073,0.137,0.215,0.057,-0.123,-0.113
-0.04,0.039,0.079,0.0,-0.06,0.059,0.066,0.139,0.245,0.094,-0.095,-0.1
-0.029,0.049,0.078,-0.01,-0.054,0.064,0.059,0.145,0.269,0.107,-0.092,-0.096
-0.018,0.056,0.074,-0.02,-0.046,0.065,0.051,0.143,0.307,0.149,-0.053,-0.068
-0.014,0.062,0.076,-0.024,-0.046,0.069,0.044,0.164,0.349,0.181,-0.039,-0.05
0.013,0.086,0.073,-0.05,-0.03,0.079,0.037,0.184,0.404,0.225,0.008,-0.025
0.008,0.105,0.097,-0.057,-0.044,0.101,0.031,0.207,0.473,0.281,0.043,0.0
0.018,0.134,0.115,-0.076,-0.049,0.124,0.024,0.234,0.55,0.34,0.084,0.039
0.054,0.17,0.116,-0.112,-0.031,0.143,0.01,0.26,0.631,0.406,0.142,0.083
0.095,0.212,0.118,-0.154,-0.012,0.165,-0.015,0.293,0.706,0.475,0.196,0.146
0.125,0.261,0.136,-0.193,-0.006,0.198,-0.039,0.292,0.754,0.529,0.267,0.224
0.158,0.312,0.155,-0.235,0.001,0.233,-0.07,0.285,0.759,0.566,0.335,0.301
0.186,0.352,0.165,-0.269,0.01,0.258,-0.101,0.262,0.727,0.578,0.381,0.368
0.186,0.365,0.178,-0.276,0.004,0.271,-0.125,0.202,0.656,0.555,0.414,0.418
0.186,0.359,0.173,-0.273,0.006,0.266,-0.129,0.148,0.54,0.499,0.414,0.424
0.164,0.324,0.16,-0.244,0.002,0.242,-0.12,0.099,0.417,0.426,0.387,0.39
0.127,0.261,0.134,-0.194,-0.004,0.197,-0.108,0.065,0.299,0.339,0.308,0.309
0.091,0.186,0.094,-0.139,-0.002,0.14,-0.07,0.057,0.196,0.231,0.195,0.201
0.044,0.117,0.073,-0.081,-0.014,0.095,-0.036,0.053,0.127,0.135,0.09,0.1
-0.005,0.063,0.068,-0.029,-0.037,0.065,-0.01,0.048,0.074,0.051,-0.007,0.012
-0.041,0.021,0.062,0.01,-0.052,0.041,0.015,0.044,0.028,-0.007,-0.074,-0.053
-0.056,-0.003,0.052,0.029,-0.054,0.024,0.037,0.039,-0.005,-0.046,-0.122,-0.094
-0.063,-0.02,0.043,0.041,-0.053,0.011,0.052,0.036,-0.015,-0.078,-0.148,-0.113
-0.077,-0.033,0.044,0.054,-0.06,0.005,0.054,0.033,-0.02,-0.081,-0.157,-0.125
-0.081,-0.035,0.046,0.057,-0.063,0.005,0.06,0.03,-0.028,-0.084,-0.159,-0.126
-0.08,-0.035,0.045,0.057,-0.062,0.005,0.064,0.028,-0.034,-0.087,-0.155,-0.124
-0.084,-0.038,0.045,0.061,-0.064,0.003,0.06,0.024,-0.04,-0.09,-0.155,-0.122
-0.086,-0.041,0.045,0.063,-0.065,0.002,0.06,0.028,-0.036,-0.09,-0.155,-0.119
-0.082,-0.039,0.043,0.061,-0.063,0.002,0.065,0.03,-0.032,-0.082,-0.155,-0.12
-0.073,-0.036,0.037,0.054,-0.055,0.001,0.065,0.03,-0.029,-0.076,-0.155,-0.115
-0.067,-0.035,0.033,0.051,-0.049,-0.001,0.065,0.033,-0.025,-0.069,-0.152,-0.115
-0.064,-0.035,0.028,0.049,-0.046,-0.003,0.063,0.035,-0.02,-0.062,-0.146,-0.114
-0.059,-0.035,0.024,0.046,-0.041,-0.005,0.06,0.034,-0.022,-0.057,-0.141,-0.11
-0.054,-0.035,0.019,0.045,-0.036,-0.008,0.06,0.03,-0.026,-0.054,-0.138,-0.11
-0.051,-0.035,0.016,0.042,-0.033,-0.01,0.057,0.03,-0.025,-0.051,-0.132,-0.112
-0.048,-0.035,0.013,0.041,-0.03,-0.011,0.054,0.029,-0.029,-0.048,-0.131,-0.116
-0.045,-0.035,0.01,0.04,-0.027,-0.012,0.051,0.025,-0.03,-0.045,-0.135,-0.118
-0.043,-0.035,0.007,0.039,-0.025,-0.014,0.048,0.025,-0.03,-0.045,-0.138,-0.121
-0.04,-0.035,0.005,0.037,-0.022,-0.015,0.045,0.027,-0.036,-0.053,-0.14,-0.124
-0.038,-0.035,0.003,0.036,-0.02,-0.016,0.046,0.03,-0.042,-0.058,-0.147,-0.126
-0.039,-0.04,-0.001,0.039,-0.019,-0.02,0.05,0.03,-0.049,-0.065,-0.159,-0.129
-0.037,-0.04,-0.003,0.039,-0.017,-0.021,0.052,0.03,-0.058,-0.074,-0.163,-0.13
-0.035,-0.041,-0.006,0.039,-0.014,-0.023,0.056,0.03,-0.064,-0.076,-0.167,-0.132
-0.036,-0.045,-0.009,0.041,-0.013,-0.027,0.055,0.03,-0.067,-0.09,-0.172,-0.139
-0.034,-0.044,-0.011,0.039,-0.011,-0.027,0.055,0.035,-0.072,-0.096,-0.174,-0.145
-0.033,-0.047,-0.015,0.041,-0.009,-0.031,0.055,0.035,-0.083,-0.095,-0.178,-0.149
-0.036,-0.051,-0.015,0.044,-0.01,-0.032,0.055,0.035,-0.086,-0.1,-0.18,-0.152
-0.033,-0.05,-0.016,0.042,-0.008,-0.033,0.055,0.035,-0.084,-0.1,-0.183,-0.154
-0.03,-0.05,-0.02,0.04,-0.005,-0.035,0.056,0.035,-0.085,-0.104,-0.186,-0.158
-0.029,-0.05,-0.02,0.039,-0.004,-0.035,0.06,0.035,-0.085,-0.105,-0.181,-0.16
-0.033,-0.05,-0.017,0.042,-0.008,-0.034,0.06,0.035,-0.085,-0.105,-0.18,-0.16
-0.04,-0.055,-0.015,0.048,-0.012,-0.034,0.062,0.035,-0.089,-0.109,-0.18,-0.16
-0.04,-0.055,-0.015,0.048,-0.012,-0.035,0.066,0.035,-0.09,-0.11,-0.175,-0.16
-0.043,-0.055,-0.011,0.049,-0.015,-0.033,0.065,0.035,-0.09,-0.108,-0.175,-0.16
-0.046,-0.055,-0.01,0.05,-0.018,-0.032,0.062,0.035,-0.09,-0.105,-0.175,-0.16
-0.044,-0.054,-0.01,0.049,-0.016,-0.032,0.059,0.03,-0.09,-0.105,-0.175,-0.16
-0.043,-0.058,-0.015,0.051,-0.014,-0.036,0.056,0.03,-0.089,-0.105,-0.175,-0.16
-0.041,-0.06,-0.02,0.051,-0.011,-0.04,0.053,0.03,-0.085,-0.105,-0.175,-0.16
-0.036,-0.06,-0.024,0.048,-0.006,-0.041,0.05,0.03,-0.085,-0.105,-0.175,-0.16
-0.031,-0.06,-0.029,0.046,-0.001,-0.044,0.049,0.03,-0.085,-0.105,-0.175,-0.16
-0.032,-0.06,-0.028,0.046,-0.002,-0.044,0.045,0.032,-0.085,-0.105,-0.179,-0.159
-0.039,-0.06,-0.021,0.05,-0.009,-0.04,0.045,0.036,-0.085,-0.105,-0.18,-0.162
-0.04,-0.054,-0.014,0.047,-0.013,-0.034,0.043,0.034,-0.082,-0.105,-0.18,-0.165
-0.04,-0.048,-0.008,0.044,-0.015,-0.028,0.039,0.036,-0.079,-0.105,-0.18,-0.165
-0.041,-0.041,0.001,0.041,-0.021,-0.02,0.041,0.034,-0.076,-0.104,-0.18,-0.165
-0.037,-0.035,0.003,0.035,-0.02,-0.016,0.036,0.037,-0.074,-0.096,-0.179,-0.165
-0.029,-0.026,0.003,0.028,-0.016,-0.011,0.035,0.039,-0.07,-0.086,-0.167,-0.165
-0.001,-0.008,-0.008,0.005,0.004,-0.008,0.032,0.051,-0.069,-0.079,-0.156,-0.153
-0.004,0.002,0.006,0.001,-0.005,0.004,0.03,0.083,-0.053,-0.068,-0.143,-0.133
0.008,0.011,0.002,-0.01,0.003,0.006,0.029,0.094,-0.033,-0.058,-0.131,-0.13
0.067,0.013,-0.054,-0.04,0.06,-0.02,0.023,0.113,-0.018,-0.06,-0.131,-0.131
0.065,0.002,-0.063,-0.034,0.064,-0.03,0.018,0.112,-0.007,-0.063,-0.131,-0.127
0.05,-0.008,-0.057,-0.021,0.054,-0.032,0.012,0.082,-0.036,-0.067,-0.131,-0.125
0.046,-0.017,-0.063,-0.015,0.055,-0.039,0.007,0.063,-0.059,-0.07,-0.129,-0.125
0.029,-0.029,-0.057,0.0,0.043,-0.043,0.0,0.051,-0.077,-0.074,-0.137,-0.124
0.029,-0.034,-0.063,0.002,0.046,-0.048,0.008,0.047,-0.106,-0.091,-0.155,-0.131
0.019,-0.043,-0.063,0.012,0.041,-0.053,0.02,0.038,-0.104,-0.093,-0.162,-0.15
-0.002,-0.069,-0.066,0.036,0.033,-0.067,0.04,0.033,-0.105,-0.109,-0.17,-0.164
-0.011,-0.072,-0.062,0.042,0.026,-0.067,0.055,0.025,-0.105,-0.121,-0.174,-0.17
-0.028,-0.069,-0.041,0.049,0.007,-0.055,0.055,0.03,-0.104,-0.12,-0.19,-0.176
-0.03,-0.071,-0.042,0.051,0.006,-0.056,0.055,0.033,-0.104,-0.12,-0.183,-0.167
-0.043,-0.068,-0.026,0.056,-0.009,-0.047,0.054,0.028,-0.097,-0.12,-0.186,-0.173
-0.045,-0.072,-0.027,0.058,-0.009,-0.049,0.064,0.033,-0.101,-0.122,-0.186,-0.168
-0.036,-0.067,-0.031,0.052,-0.003,-0.049,0.071,0.026,-0.089,-0.119,-0.181,-0.17
-0.046,-0.066,-0.02,0.056,-0.013,-0.043,0.067,0.035,-0.096,-0.134,-0.194,-0.172
-0.033,-0.057,-0.024,0.045,-0.004,-0.041,0.06,0.023,-0.085,-0.119,-0.166,-0.167
-0.051,-0.058,-0.007,0.055,-0.022,-0.032,0.064,0.029,-0.1,-0.147,-0.201,-0.188
0.013,-0.047,-0.06,0.018,0.036,-0.053,0.044,0.036,-0.085,-0.119,-0.173,-0.171
0.109,-0.046,-0.155,-0.031,0.132,-0.1,0.093,0.363,0.17,0.01,-0.188,-0.225
0.323,0.086,-0.237,-0.204,0.28,-0.075,0.052,0.615,0.373,0.509,0.337,0.192
0.561,0.775,0.215,-0.668,0.173,0.495,-0.467,-0.488,-0.414,0.978,1.539,1.403
0.473,1.217,0.744,-0.845,-0.136,0.98,-0.938,-1.664,-1.764,0.904,2.734,2.711
0.2,0.473,0.273,-0.336,-0.037,0.373,-0.656,-1.28,-1.804,0.486,2.452,2.161
-0.086,-0.248,-0.162,0.167,0.038,-0.205,-0.137,-0.321,-0.982,-0.287,0.312,0.171
-0.088,-0.162,-0.074,0.125,-0.007,-0.118,0.025,0.123,-0.354,-0.319,-0.391,-0.268
0.009,-0.025,-0.035,0.009,0.022,-0.03,0.049,0.119,0.013,0.016,-0.059,-0.068
0.01,-0.007,-0.017,-0.001,0.013,-0.012,0.068,0.112,0.069,-0.027,-0.192,-0.196
0.034,0.013,-0.021,-0.024,0.028,-0.004,0.065,0.124,0.116,0.038,-0.105,-0.145
0.022,0.008,-0.014,-0.015,0.018,-0.003,0.064,0.118,0.122,0.021,-0.147,-0.178
0.034,0.02,-0.014,-0.026,0.024,0.002,0.058,0.129,0.14,0.043,-0.122,-0.147
0.034,0.019,-0.015,-0.026,0.024,0.002,0.056,0.126,0.169,0.063,-0.118,-0.155
0.034,0.028,-0.007,-0.031,0.02,0.01,0.051,0.138,0.173,0.066,-0.111,-0.144
0.041,0.028,-0.014,-0.035,0.027,0.007,0.049,0.14,0.206,0.102,-0.072,-0.127
0.037,0.035,-0.002,-0.036,0.019,0.016,0.041,0.146,0.228,0.12,-0.06,-0.117
0.047,0.047,0.0,-0.047,0.023,0.023,0.029,0.149,0.272,0.159,-0.026,-0.088
0.07,0.052,-0.018,-0.061,0.044,0.017,0.02,0.163,0.322,0.192,-0.017,-0.077
0.091,0.074,-0.017,-0.082,0.054,0.028,0.011,0.181,0.38,0.237,0.028,-0.049
0.109,0.104,-0.005,-0.106,0.057,0.049,0.008,0.197,0.451,0.288,0.062,-0.018
0.127,0.133,0.007,-0.13,0.059,0.07,0.003,0.235,0.53,0.354,0.113,0.027
0.146,0.166,0.02,-0.157,0.063,0.093,-0.026,0.26,0.608,0.418,0.169,0.068
0.165,0.209,0.045,-0.187,0.06,0.127,-0.052,0.276,0.677,0.48,0.227,0.127
0.2,0.256,0.056,-0.228,0.072,0.156,-0.074,0.276,0.731,0.538,0.293,0.199
0.241,0.313,0.072,-0.277,0.084,0.192,-0.104,0.26,0.741,0.566,0.359,0.276
0.258,0.356,0.098,-0.307,0.08,0.227,-0.131,0.242,0.706,0.561,0.416,0.349
0.27,0.368,0.099,-0.319,0.085,0.233,-0.156,0.192,0.639,0.549,0.442,0.394
0.257,0.365,0.108,-0.311,0.074,0.236,-0.169,0.133,0.521,0.513,0.44,0.404
0.244,0.333,0.089,-0.289,0.077,0.211,-0.167,0.085,0.388,0.441,0.412,0.38
0.234,0.279,0.045,-0.257,0.094,0.162,-0.148,0.059,0.272,0.348,0.339,0.299
0.179,0.206,0.027,-0.193,0.076,0.116,-0.117,0.054,0.167,0.241,0.229,0.179
0.132,0.132,0.0,-0.132,0.066,0.066,-0.082,0.052,0.095,0.146,0.123,0.073
0.108,0.076,-0.032,-0.092,0.07,0.022,-0.043,0.049,0.038,0.067,0.029,-0.018
0.066,0.03,-0.036,-0.048,0.051,-0.003,-0.009,0.046,-0.011,0.004,-0.054,-0.084
0.052,-0.001,-0.053,-0.025,0.053,-0.027,0.004,0.045,-0.045,-0.041,-0.087,-0.118
0.041,-0.012,-0.053,-0.015,0.047,-0.032,0.009,0.04,-0.059,-0.064,-0.129,-0.145
0.038,-0.014,-0.052,-0.012,0.046,-0.033,0.016,0.037,-0.059,-0.068,-0.126,-0.148
0.028,-0.017,-0.045,-0.005,0.037,-0.031,0.023,0.033,-0.064,-0.079,-0.147,-0.166
0.021,-0.022,-0.043,0.0,0.032,-0.032,0.028,0.03,-0.066,-0.085,-0.137,-0.154
0.017,-0.025,-0.042,0.004,0.03,-0.033,0.033,0.025,-0.061,-0.078,-0.146,-0.165
0.004,-0.025,-0.03,0.011,0.018,-0.027,0.034,0.027,-0.059,-0.075,-0.154,-0.166
0.017,-0.025,-0.042,0.004,0.03,-0.033,0.03,0.032,-0.054,-0.07,-0.12,-0.158
-0.016,-0.025,-0.009,0.021,-0.003,-0.017,0.03,0.03,-0.052,-0.066,-0.194,-0.179
0.035,-0.025,-0.059,-0.004,0.048,-0.042,0.03,0.041,-0.046,-0.061,-0.053,-0.13
0.017,-0.025,-0.042,0.004,0.03,-0.033,0.03,0.027,-0.046,-0.054,-0.391,-0.194
0.073,-0.025,-0.098,-0.023,0.086,-0.061,0.028,0.038,-0.037,-0.048,-0.363,-0.087
0.028,-0.001,-0.029,-0.013,0.028,-0.014,0.053,0.02,-0.04,-0.041,0.078,-0.247
0.096,0.009,-0.087,-0.052,0.092,-0.039,0.067,0.034,-0.029,-0.034,-0.034,0.15
-0.002,-0.004,-0.002,0.003,0.0,-0.003,0.053,-0.003,-0.034,-0.03,0.021,0.626
