-0.003,0.026,0.029,-0.012,-0.016,0.027,0.047,0.028,-0.044,-0.06,0.011,-0.04
0.008,0.05,0.042,-0.029,-0.017,0.046,0.055,0.049,-0.027,-0.052,0.023,-0.036
0.032,0.063,0.031,-0.047,0.0,0.047,0.039,0.056,-0.006,-0.038,0.02,-0.03
0.09,0.059,-0.031,-0.074,0.061,0.013,0.018,0.065,0.004,-0.04,0.018,-0.035
0.09,0.074,-0.016,-0.082,0.052,0.029,0.02,0.062,0.003,-0.047,0.043,-0.034
0.059,0.037,-0.022,-0.048,0.04,0.008,0.021,0.029,-0.033,-0.053,0.014,-0.04
0.062,0.011,-0.051,-0.036,0.056,-0.02,0.017,0.013,-0.062,-0.062,-0.001,-0.039
0.037,0.005,-0.031,-0.021,0.034,-0.013,0.024,0.006,-0.081,-0.079,-0.008,-0.043
0.008,-0.002,-0.01,-0.003,0.009,-0.006,0.016,-0.025,-0.082,-0.077,-0.009,-0.049
-0.023,-0.012,0.011,0.017,-0.017,-0.001,0.024,-0.021,-0.078,-0.078,-0.019,-0.068
-0.034,-0.017,0.017,0.025,-0.025,0.0,0.017,-0.042,-0.083,-0.075,-0.023,-0.063
-0.025,-0.033,-0.008,0.029,-0.008,-0.02,0.021,-0.02,-0.07,-0.07,-0.021,-0.069
-0.034,-0.026,0.009,0.03,-0.021,-0.008,0.023,-0.03,-0.081,-0.075,-0.024,-0.073
-0.022,-0.019,0.003,0.02,-0.012,-0.008,0.015,-0.021,-0.065,-0.067,-0.023,-0.065
-0.04,-0.071,-0.031,0.056,-0.005,-0.05,0.123,0.18,-0.034,-0.124,-0.118,-0.162
0.026,-0.03,-0.056,0.002,0.041,-0.042,0.172,0.377,0.102,-0.008,-0.058,-0.141
0.257,0.231,-0.026,-0.244,0.141,0.102,0.096,0.468,0.462,0.389,0.304,0.178
0.473,0.881,0.407,-0.677,0.032,0.644,-0.322,-0.37,0.866,1.31,1.197,0.992
0.366,1.006,0.639,-0.686,-0.137,0.822,-0.581,-1.267,0.52,1.433,1.415,1.262
0.041,0.334,0.293,-0.188,-0.126,0.313,-0.326,-1.106,-0.386,0.161,0.37,0.432
-0.027,0.059,0.086,-0.017,-0.057,0.073,-0.178,-0.643,-0.448,-0.231,-0.063,0.012
0.023,0.062,0.039,-0.043,-0.009,0.05,-0.038,-0.161,-0.124,-0.04,-0.013,0.013
0.027,0.028,0.002,-0.028,0.012,0.015,0.028,0.001,-0.074,-0.08,-0.051,-0.032
0.062,0.038,-0.024,-0.05,0.043,0.007,0.018,0.03,-0.031,-0.031,-0.009,-0.03
0.052,0.021,-0.031,-0.036,0.041,-0.005,0.047,0.083,-0.023,-0.055,-0.029,-0.064
0.013,0.029,0.016,-0.021,-0.002,0.022,0.035,0.084,-0.003,-0.028,-0.004,-0.045
0.04,0.016,-0.023,-0.028,0.032,-0.003,0.048,0.113,-0.001,-0.034,-0.01,-0.048
0.058,0.024,-0.034,-0.041,0.046,-0.005,0.044,0.1,0.007,-0.027,-0.004,-0.041
0.051,0.036,-0.015,-0.043,0.033,0.01,0.051,0.116,0.016,-0.022,-0.004,-0.035
0.038,0.031,-0.007,-0.035,0.023,0.011,0.049,0.109,0.018,-0.022,-0.003,-0.034
0.001,0.019,0.018,-0.01,-0.009,0.018,0.043,0.124,0.028,-0.013,0.003,-0.024
0.038,0.004,-0.034,-0.021,0.036,-0.015,0.039,0.139,0.029,-0.015,-0.005,-0.021
0.091,0.045,-0.046,-0.068,0.068,0.0,0.034,0.134,0.042,-0.004,-0.001,-0.011
0.118,0.081,-0.036,-0.099,0.076,0.022,0.031,0.141,0.054,-0.001,0.01,-0.006
0.103,0.072,-0.031,-0.087,0.066,0.02,0.025,0.14,0.061,0.011,0.028,0.0
0.074,0.077,0.003,-0.075,0.035,0.039,0.036,0.143,0.076,0.025,0.042,0.011
0.111,0.086,-0.025,-0.098,0.068,0.03,0.036,0.15,0.093,0.045,0.054,0.016
0.138,0.091,-0.047,-0.115,0.093,0.022,0.026,0.164,0.113,0.067,0.066,0.031
0.141,0.108,-0.033,-0.124,0.087,0.037,0.023,0.185,0.141,0.094,0.097,0.058
0.158,0.131,-0.027,-0.145,0.093,0.052,0.008,0.206,0.16,0.115,0.119,0.068
0.18,0.165,-0.014,-0.172,0.097,0.075,-0.004,0.223,0.193,0.153,0.148,0.1
0.198,0.209,0.011,-0.204,0.093,0.11,-0.022,0.238,0.232,0.197,0.19,0.14
0.244,0.261,0.017,-0.253,0.113,0.139,-0.06,0.246,0.262,0.244,0.234,0.181
0.27,0.303,0.033,-0.287,0.119,0.168,-0.071,0.253,0.305,0.315,0.303,0.25
0.285,0.345,0.06,-0.315,0.112,0.202,-0.083,0.236,0.327,0.363,0.353,0.297
0.319,0.389,0.071,-0.354,0.124,0.23,-0.104,0.211,0.334,0.401,0.397,0.342
0.301,0.406,0.105,-0.354,0.098,0.255,-0.11,0.193,0.326,0.419,0.418,0.363
0.289,0.409,0.12,-0.349,0.084,0.265,-0.111,0.175,0.314,0.41,0.406,0.351
0.276,0.378,0.102,-0.328,0.087,0.24,-0.098,0.164,0.304,0.398,0.394,0.344
0.228,0.332,0.104,-0.28,0.062,0.218,-0.068,0.142,0.272,0.345,0.34,0.282
0.198,0.272,0.074,-0.236,0.062,0.173,-0.03,0.115,0.222,0.251,0.246,0.192
0.14,0.195,0.055,-0.168,0.042,0.125,-0.002,0.088,0.165,0.16,0.155,0.124
0.062,0.138,0.076,-0.1,-0.007,0.107,0.017,0.072,0.115,0.101,0.097,0.072
0.051,0.096,0.046,-0.074,0.002,0.071,0.035,0.06,0.071,0.054,0.056,0.029
0.038,0.068,0.03,-0.053,0.004,0.048,0.035,0.029,0.029,0.008,0.014,0.008
0.025,0.053,0.028,-0.04,-0.002,0.041,0.035,0.014,0.003,-0.013,-0.006,0.003
0.031,0.048,0.017,-0.04,0.007,0.032,0.035,0.015,-0.007,-0.019,-0.009,-0.005
0.025,0.04,0.015,-0.033,0.005,0.027,0.035,0.015,-0.02,-0.026,-0.014,-0.011
0.031,0.035,0.004,-0.034,0.014,0.019,0.034,0.015,-0.028,-0.033,-0.017,-0.018
0.012,0.026,0.014,-0.02,-0.001,0.019,0.03,0.015,-0.024,-0.035,-0.026,-0.022
0.006,0.027,0.021,-0.017,-0.008,0.024,0.024,0.014,-0.019,-0.035,-0.033,-0.029
-0.003,0.038,0.041,-0.018,-0.022,0.039,0.036,0.018,-0.014,-0.035,-0.031,-0.035
-0.001,0.033,0.034,-0.016,-0.018,0.033,0.052,0.028,-0.011,-0.035,-0.03,-0.035
0.022,0.025,0.003,-0.024,0.01,0.014,0.046,0.026,-0.004,-0.035,-0.03,-0.039
-0.016,0.019,0.035,-0.001,-0.026,0.026,0.043,0.025,-0.013,-0.04,-0.03,-0.041
-0.036,0.01,0.046,0.013,-0.041,0.028,0.04,0.025,-0.03,-0.04,-0.029,-0.036
0.002,0.006,0.004,-0.004,-0.002,0.005,0.035,0.02,-0.035,-0.039,-0.035,-0.037
0.044,0.023,-0.021,-0.033,0.032,0.0,0.038,0.02,-0.037,-0.065,-0.045,-0.048
0.048,0.032,-0.016,-0.04,0.032,0.007,0.04,0.019,-0.04,-0.078,-0.057,-0.057
0.02,0.024,0.004,-0.023,0.008,0.014,0.042,0.013,-0.057,-0.074,-0.065,-0.059
0.01,0.02,0.01,-0.016,0.0,0.015,0.045,0.007,-0.067,-0.075,-0.066,-0.061
0.005,0.014,0.009,-0.01,-0.002,0.011,0.045,0.003,-0.067,-0.075,-0.063,-0.058
-0.024,0.008,0.032,0.008,-0.028,0.019,0.049,-0.005,-0.071,-0.079,-0.072,-0.067
-0.035,0.007,0.043,0.014,-0.04,0.025,0.05,-0.007,-0.075,-0.08,-0.09,-0.086
-0.01,0.018,0.028,-0.004,-0.02,0.023,0.049,-0.016,-0.074,-0.083,-0.09,-0.085
-0.026,0.005,0.03,0.01,-0.028,0.017,0.052,-0.014,-0.071,-0.086,-0.089,-0.085
-0.025,-0.016,0.009,0.02,-0.017,-0.003,0.051,0.005,-0.065,-0.082,-0.091,-0.086
0.003,-0.014,-0.017,0.006,0.01,-0.015,0.05,0.0,-0.067,-0.079,-0.088,-0.084
-0.023,-0.01,0.014,0.016,-0.019,0.002,0.05,-0.005,-0.086,-0.099,-0.095,-0.088
-0.005,-0.007,-0.002,0.006,-0.001,-0.004,0.05,-0.011,-0.092,-0.107,-0.105,-0.092
0.002,-0.004,-0.005,0.001,0.004,-0.004,0.05,-0.016,-0.089,-0.1,-0.105,-0.097
-0.044,0.001,0.046,0.021,-0.045,0.023,0.048,-0.023,-0.087,-0.1,-0.105,-0.099
-0.022,-0.013,0.009,0.018,-0.015,-0.002,0.042,-0.039,-0.084,-0.095,-0.105,-0.096
0.006,-0.024,-0.03,0.009,0.018,-0.027,0.037,-0.04,-0.085,-0.095,-0.105,-0.093
-0.003,-0.003,0.0,0.003,-0.001,-0.001,0.034,-0.04,-0.08,-0.1,-0.103,-0.091
-0.001,0.018,0.019,-0.009,-0.01,0.018,0.028,-0.045,-0.075,-0.1,-0.099,-0.087
0.019,0.003,-0.016,-0.011,0.018,-0.007,0.025,-0.044,-0.082,-0.103,-0.097,-0.085
0.011,-0.006,-0.017,-0.002,0.015,-0.012,0.033,-0.047,-0.091,-0.106,-0.094,-0.087
-0.032,0.006,0.038,0.013,-0.035,0.022,0.042,-0.05,-0.101,-0.102,-0.105,-0.099
-0.033,0.013,0.046,0.01,-0.04,0.029,0.044,-0.05,-0.106,-0.1,-0.121,-0.111
-0.021,0.006,0.027,0.007,-0.024,0.017,0.04,-0.052,-0.104,-0.1,-0.118,-0.108
-0.03,-0.008,0.023,0.019,-0.026,0.008,0.035,-0.055,-0.102,-0.1,-0.115,-0.105
-0.013,0.003,0.016,0.004,-0.015,0.01,0.033,-0.055,-0.099,-0.1,-0.113,-0.102
-0.01,-0.008,0.002,0.009,-0.006,-0.003,0.028,-0.051,-0.101,-0.1,-0.109,-0.1
-0.023,-0.029,-0.006,0.026,-0.008,-0.017,0.025,-0.05,-0.104,-0.104,-0.108,-0.098
-0.027,-0.023,0.004,0.025,-0.016,-0.009,0.036,-0.05,-0.106,-0.108,-0.103,-0.094
-0.054,-0.026,0.028,0.04,-0.041,0.001,0.041,-0.046,-0.102,-0.113,-0.115,-0.095
-0.056,-0.025,0.031,0.04,-0.043,0.003,0.039,-0.045,-0.099,-0.115,-0.126,-0.095
-0.036,-0.024,0.012,0.03,-0.023,-0.006,0.041,-0.045,-0.101,-0.115,-0.124,-0.095
-0.046,-0.03,0.016,0.038,-0.031,-0.007,0.039,-0.037,-0.099,-0.115,-0.125,-0.095
-0.048,-0.032,0.016,0.04,-0.032,-0.008,0.041,-0.033,-0.102,-0.115,-0.125,-0.101
-0.029,-0.024,0.004,0.026,-0.016,-0.01,0.044,-0.027,-0.108,-0.11,-0.126,-0.111
-0.016,-0.018,-0.001,0.017,-0.007,-0.009,0.047,-0.02,-0.102,-0.103,-0.123,-0.107
-0.001,-0.011,-0.01,0.006,0.005,-0.011,0.049,-0.018,-0.091,-0.095,-0.114,-0.1
0.02,-0.004,-0.024,-0.008,0.022,-0.013,0.054,-0.005,-0.085,-0.09,-0.108,-0.096
0.023,0.004,-0.019,-0.013,0.021,-0.007,0.054,0.007,-0.067,-0.081,-0.1,-0.089
0.033,0.028,-0.005,-0.03,0.018,0.012,0.048,0.043,-0.056,-0.083,-0.105,-0.087
0.041,0.032,-0.01,-0.036,0.025,0.011,0.041,0.05,-0.048,-0.085,-0.104,-0.083
0.014,0.005,-0.008,-0.009,0.011,-0.002,0.041,0.005,-0.046,-0.084,-0.105,-0.087
-0.006,-0.022,-0.016,0.014,0.005,-0.019,0.039,-0.038,-0.086,-0.105,-0.113,-0.083
0.021,-0.04,-0.061,0.009,0.041,-0.05,0.041,-0.046,-0.107,-0.121,-0.118,-0.086
0.007,-0.021,-0.029,0.007,0.018,-0.025,0.04,-0.058,-0.117,-0.134,-0.128,-0.109
-0.055,-0.042,0.013,0.048,-0.033,-0.014,0.039,-0.064,-0.118,-0.137,-0.138,-0.124
-0.043,-0.069,-0.026,0.057,-0.008,-0.047,0.043,-0.068,-0.117,-0.147,-0.146,-0.127
-0.05,-0.061,-0.01,0.056,-0.019,-0.035,0.034,-0.063,-0.109,-0.13,-0.128,-0.113
-0.083,-0.072,0.011,0.077,-0.046,-0.03,0.049,-0.042,-0.11,-0.148,-0.147,-0.126
-0.062,-0.054,0.008,0.058,-0.034,-0.023,0.029,-0.067,-0.103,-0.121,-0.118,-0.101
-0.088,-0.11,-0.022,0.099,-0.033,-0.066,0.097,0.068,-0.081,-0.16,-0.19,-0.171
-0.07,-0.123,-0.052,0.096,-0.009,-0.087,0.19,0.259,0.006,-0.153,-0.236,-0.241
0.074,0.032,-0.042,-0.053,0.057,-0.005,0.178,0.459,0.281,0.14,0.009,-0.049
0.286,0.582,0.296,-0.434,-0.005,0.438,-0.115,-0.052,0.73,0.964,0.803,0.651
0.331,1.054,0.722,-0.693,-0.196,0.888,-0.539,-1.121,0.741,1.681,1.525,1.317
0.089,0.567,0.478,-0.328,-0.194,0.522,-0.428,-1.286,-0.185,0.64,0.715,0.737
-0.092,0.053,0.144,0.019,-0.118,0.098,-0.188,-0.878,-0.626,-0.322,-0.129,0.008
-0.08,0.002,0.082,0.039,-0.081,0.042,-0.084,-0.378,-0.265,-0.141,-0.107,-0.057
-0.04,-0.027,0.013,0.034,-0.027,-0.007,0.009,-0.063,-0.124,-0.142,-0.152,-0.094
-0.053,-0.018,0.035,0.035,-0.043,0.008,0.019,-0.018,-0.063,-0.114,-0.126,-0.082
-0.026,-0.045,-0.019,0.036,-0.003,-0.032,0.056,0.043,-0.058,-0.117,-0.132,-0.092
-0.023,-0.058,-0.035,0.041,0.007,-0.046,0.054,0.055,-0.057,-0.116,-0.133,-0.092
-0.027,-0.034,-0.007,0.031,-0.01,-0.02,0.055,0.071,-0.037,-0.097,-0.123,-0.086
-0.002,-0.031,-0.029,0.017,0.014,-0.03,0.056,0.066,-0.04,-0.106,-0.127,-0.089
-0.024,-0.041,-0.016,0.033,-0.004,-0.028,0.053,0.075,-0.02,-0.084,-0.111,-0.081
-0.009,-0.034,-0.025,0.022,0.008,-0.029,0.057,0.091,-0.024,-0.09,-0.115,-0.089
0.0,-0.029,-0.029,0.015,0.015,-0.028,0.05,0.093,-0.005,-0.075,-0.102,-0.082
0.014,-0.026,-0.041,0.006,0.028,-0.033,0.047,0.1,0.028,-0.074,-0.102,-0.079
0.015,-0.019,-0.034,0.003,0.025,-0.027,0.041,0.101,0.053,-0.067,-0.09,-0.07
-0.002,-0.016,-0.014,0.009,0.006,-0.015,0.038,0.106,0.075,-0.061,-0.078,-0.064
0.031,-0.006,-0.037,-0.012,0.034,-0.021,0.032,0.104,0.082,-0.045,-0.067,-0.058
0.05,-0.002,-0.051,-0.024,0.051,-0.026,0.031,0.116,0.096,-0.031,-0.053,-0.052
0.018,0.007,-0.012,-0.013,0.015,-0.002,0.034,0.125,0.111,-0.024,-0.043,-0.044
0.024,0.011,-0.012,-0.017,0.018,-0.001,0.022,0.124,0.121,-0.009,-0.029,-0.036
0.083,0.028,-0.055,-0.055,0.068,-0.013,0.01,0.147,0.147,0.016,-0.008,-0.016
0.106,0.064,-0.043,-0.085,0.074,0.01,0.0,0.164,0.169,0.041,0.023,0.016
0.115,0.076,-0.038,-0.095,0.076,0.019,-0.011,0.182,0.203,0.081,0.064,0.049
0.118,0.1,-0.018,-0.109,0.067,0.041,-0.018,0.196,0.237,0.127,0.098,0.081
0.139,0.146,0.006,-0.143,0.066,0.076,-0.042,0.206,0.269,0.176,0.148,0.124
0.171,0.199,0.028,-0.185,0.071,0.113,-0.065,0.218,0.311,0.24,0.215,0.182
0.2,0.263,0.062,-0.232,0.069,0.162,-0.081,0.197,0.33,0.283,0.259,0.225
0.247,0.309,0.062,-0.279,0.092,0.185,-0.094,0.177,0.341,0.331,0.315,0.281
0.236,0.332,0.096,-0.284,0.07,0.213,-0.11,0.159,0.342,0.361,0.354,0.32
0.228,0.342,0.113,-0.285,0.058,0.227,-0.124,0.125,0.326,0.342,0.356,0.322
0.213,0.33,0.116,-0.272,0.048,0.223,-0.102,0.107,0.307,0.331,0.336,0.298
0.157,0.28,0.123,-0.219,0.017,0.201,-0.066,0.099,0.271,0.291,0.28,0.24
0.128,0.21,0.082,-0.17,0.023,0.146,-0.036,0.09,0.231,0.217,0.203,0.169
0.064,0.129,0.064,-0.097,0.0,0.096,-0.004,0.081,0.183,0.145,0.122,0.099
0.013,0.064,0.05,-0.039,-0.018,0.057,0.016,0.063,0.129,0.066,0.057,0.038
-0.02,0.029,0.048,-0.005,-0.034,0.038,0.031,0.037,0.082,0.004,0.004,-0.007
-0.047,0.009,0.056,0.019,-0.052,0.032,0.04,0.017,0.046,-0.03,-0.031,-0.034
-0.042,-0.002,0.04,0.022,-0.041,0.019,0.04,-0.001,0.022,-0.052,-0.048,-0.053
-0.065,-0.023,0.042,0.044,-0.053,0.01,0.04,-0.016,0.005,-0.061,-0.057,-0.053
-0.068,-0.031,0.037,0.05,-0.053,0.003,0.04,-0.023,-0.003,-0.07,-0.064,-0.064
-0.053,-0.03,0.024,0.041,-0.038,-0.003,0.039,-0.028,-0.008,-0.076,-0.072,-0.079
-0.047,-0.024,0.023,0.035,-0.035,-0.001,0.041,-0.025,-0.021,-0.07,-0.069,-0.07
-0.058,-0.029,0.029,0.043,-0.043,0.0,0.049,-0.018,-0.026,-0.068,-0.07,-0.071
-0.086,-0.054,0.033,0.07,-0.059,-0.01,0.05,-0.014,-0.02,-0.064,-0.07,-0.066
-0.074,-0.056,0.018,0.065,-0.046,-0.018,0.05,-0.008,-0.018,-0.059,-0.07,-0.063
-0.063,-0.054,0.009,0.058,-0.035,-0.022,0.05,-0.002,-0.013,-0.075,-0.073,-0.086
-0.052,-0.056,-0.004,0.054,-0.023,-0.03,0.05,-0.002,-0.01,-0.081,-0.075,-0.097
-0.033,-0.054,-0.021,0.044,-0.006,-0.037,0.049,-0.006,-0.015,-0.08,-0.079,-0.094
-0.031,-0.055,-0.024,0.043,-0.003,-0.039,0.045,-0.008,-0.024,-0.08,-0.081,-0.095
-0.045,-0.049,-0.004,0.047,-0.02,-0.026,0.045,-0.011,-0.033,-0.081,-0.085,-0.095
-0.041,-0.051,-0.01,0.046,-0.015,-0.031,0.045,-0.015,-0.041,-0.103,-0.085,-0.095
-0.024,-0.05,-0.026,0.037,0.001,-0.038,0.045,-0.015,-0.047,-0.112,-0.085,-0.09
-0.075,-0.05,0.026,0.062,-0.051,-0.012,0.045,-0.01,-0.05,-0.109,-0.085,-0.09
-0.114,-0.072,0.042,0.093,-0.078,-0.014,0.048,-0.002,-0.055,-0.111,-0.085,-0.09
-0.062,-0.069,-0.007,0.065,-0.027,-0.038,0.05,-0.003,-0.058,-0.11,-0.085,-0.092
-0.045,-0.053,-0.008,0.049,-0.018,-0.03,0.05,-0.015,-0.065,-0.115,-0.084,-0.105
-0.082,-0.053,0.029,0.067,-0.055,-0.012,0.05,-0.026,-0.076,-0.13,-0.094,-0.115
-0.076,-0.066,0.01,0.071,-0.043,-0.028,0.05,-0.038,-0.08,-0.141,-0.101,-0.12
-0.072,-0.082,-0.01,0.077,-0.031,-0.045,0.05,-0.045,-0.082,-0.139,-0.1,-0.12
-0.069,-0.079,-0.011,0.074,-0.029,-0.045,0.05,-0.045,-0.085,-0.14,-0.098,-0.12
-0.06,-0.08,-0.02,0.07,-0.02,-0.05,0.05,-0.045,-0.088,-0.14,-0.094,-0.12
-0.06,-0.08,-0.021,0.07,-0.019,-0.05,0.05,-0.045,-0.091,-0.14,-0.095,-0.12
-0.058,-0.079,-0.021,0.069,-0.019,-0.05,0.05,-0.045,-0.086,-0.137,-0.098,-0.116
-0.072,-0.085,-0.013,0.078,-0.029,-0.048,0.05,-0.045,-0.085,-0.134,-0.102,-0.114
-0.08,-0.084,-0.004,0.082,-0.037,-0.044,0.05,-0.045,-0.085,-0.135,-0.107,-0.115
-0.071,-0.086,-0.015,0.079,-0.028,-0.05,0.05,-0.045,-0.086,-0.135,-0.11,-0.114
-0.069,-0.084,-0.015,0.077,-0.027,-0.049,0.05,-0.045,-0.084,-0.135,-0.11,-0.116
-0.079,-0.086,-0.007,0.082,-0.036,-0.046,0.05,-0.045,-0.088,-0.135,-0.11,-0.113
-0.095,-0.084,0.011,0.089,-0.052,-0.036,0.05,-0.045,-0.105,-0.135,-0.11,-0.11
-0.108,-0.074,0.033,0.091,-0.07,-0.021,0.049,-0.05,-0.103,-0.135,-0.11,-0.11
-0.085,-0.067,0.018,0.076,-0.051,-0.024,0.044,-0.058,-0.099,-0.135,-0.107,-0.11
-0.073,-0.05,0.023,0.062,-0.048,-0.013,0.04,-0.058,-0.096,-0.135,-0.102,-0.11
-0.066,-0.083,-0.016,0.075,-0.025,-0.049,0.038,-0.053,-0.091,-0.135,-0.099,-0.11
-0.054,-0.109,-0.054,0.082,0.0,-0.081,0.032,-0.05,-0.09,-0.139,-0.096,-0.113
-0.06,-0.087,-0.027,0.074,-0.016,-0.057,0.032,-0.047,-0.09,-0.14,-0.091,-0.115
-0.067,-0.089,-0.022,0.078,-0.022,-0.056,0.023,-0.042,-0.09,-0.14,-0.091,-0.115
-0.07,-0.09,-0.02,0.08,-0.025,-0.055,0.028,-0.039,-0.09,-0.145,-0.095,-0.115
-0.071,-0.09,-0.019,0.081,-0.026,-0.055,0.046,-0.056,-0.09,-0.145,-0.097,-0.115
-0.079,-0.095,-0.016,0.087,-0.031,-0.056,0.045,-0.058,-0.09,-0.144,-0.101,-0.114
-0.081,-0.095,-0.014,0.089,-0.033,-0.055,0.043,-0.047,-0.094,-0.138,-0.103,-0.111
-0.078,-0.094,-0.017,0.087,-0.03,-0.056,0.041,-0.043,-0.099,-0.133,-0.107,-0.108
-0.056,-0.085,-0.029,0.071,-0.014,-0.057,0.039,-0.034,-0.092,-0.128,-0.099,-0.105
-0.041,-0.072,-0.031,0.057,-0.005,-0.051,0.043,-0.031,-0.083,-0.12,-0.091,-0.101
-0.025,-0.055,-0.031,0.04,0.003,-0.043,0.04,-0.018,-0.067,-0.118,-0.082,-0.101
0.002,-0.044,-0.046,0.021,0.025,-0.045,0.034,-0.007,-0.058,-0.105,-0.076,-0.092
0.0,-0.044,-0.045,0.022,0.023,-0.044,0.031,0.018,-0.06,-0.094,-0.081,-0.078
-0.009,-0.045,-0.037,0.027,0.014,-0.041,0.025,0.038,-0.062,-0.091,-0.078,-0.081
-0.005,-0.056,-0.051,0.031,0.023,-0.054,0.023,-0.006,-0.067,-0.106,-0.082,-0.087
0.013,-0.068,-0.081,0.028,0.047,-0.074,0.015,-0.035,-0.066,-0.109,-0.077,-0.083
0.003,-0.075,-0.079,0.036,0.042,-0.077,0.011,-0.042,-0.091,-0.13,-0.089,-0.102
-0.02,-0.08,-0.06,0.05,0.02,-0.07,0.018,-0.087,-0.114,-0.154,-0.095,-0.126
-0.051,-0.112,-0.061,0.082,0.005,-0.086,0.042,-0.064,-0.107,-0.155,-0.095,-0.141
-0.093,-0.13,-0.037,0.112,-0.028,-0.083,0.039,-0.077,-0.114,-0.166,-0.097,-0.144
-0.095,-0.13,-0.035,0.113,-0.03,-0.082,0.038,-0.065,-0.105,-0.156,-0.09,-0.14
-0.138,-0.142,-0.004,0.14,-0.066,-0.073,0.047,-0.059,-0.115,-0.18,-0.104,-0.158
-0.122,-0.127,-0.005,0.124,-0.059,-0.065,0.024,-0.081,-0.104,-0.153,-0.083,-0.134
-0.098,-0.174,-0.076,0.136,-0.011,-0.125,0.125,0.108,-0.071,-0.197,-0.164,-0.199
-0.077,-0.142,-0.064,0.11,-0.006,-0.103,0.19,0.3,0.041,-0.128,-0.146,-0.215
0.13,0.074,-0.056,-0.102,0.093,0.009,0.141,0.445,0.354,0.21,0.141,0.039
0.344,0.683,0.339,-0.514,0.002,0.511,-0.235,-0.28,0.801,1.089,0.981,0.8
0.322,0.97,0.648,-0.646,-0.163,0.809,-0.592,-1.284,0.615,1.468,1.422,1.254
0.018,0.336,0.318,-0.177,-0.151,0.327,-0.372,-1.216,-0.337,0.258,0.456,0.513
-0.133,-0.027,0.106,0.08,-0.119,0.039,-0.166,-0.75,-0.536,-0.316,-0.106,-0.01
-0.075,-0.035,0.04,0.055,-0.057,0.003,-0.065,-0.262,-0.182,-0.129,-0.048,-0.029
-0.073,-0.083,-0.01,0.078,-0.031,-0.046,0.016,-0.039,-0.11,-0.163,-0.103,-0.091
-0.048,-0.063,-0.015,0.056,-0.016,-0.039,0.027,-0.014,-0.06,-0.105,-0.064,-0.076
-0.048,-0.079,-0.03,0.064,-0.008,-0.054,0.051,0.033,-0.059,-0.149,-0.089,-0.107
-0.041,-0.088,-0.047,0.064,0.003,-0.067,0.04,0.033,-0.044,-0.123,-0.076,-0.087
-0.05,-0.089,-0.039,0.07,-0.005,-0.064,0.056,0.066,-0.033,-0.125,-0.079,-0.085
-0.042,-0.065,-0.023,0.054,-0.009,-0.044,0.068,0.055,-0.028,-0.124,-0.074,-0.08
-0.031,-0.061,-0.03,0.046,-0.001,-0.045,0.074,0.071,-0.011,-0.11,-0.065,-0.066
-0.038,-0.058,-0.02,0.048,-0.008,-0.039,0.072,0.102,-0.013,-0.111,-0.067,-0.088
-0.002,-0.051,-0.048,0.027,0.023,-0.049,0.064,0.105,-0.011,-0.092,-0.056,-0.097
-0.015,-0.049,-0.034,0.033,0.009,-0.041,0.061,0.105,-0.004,-0.093,-0.057,-0.092
0.004,-0.043,-0.046,0.019,0.025,-0.044,0.054,0.11,0.013,-0.077,-0.047,-0.083
0.03,-0.038,-0.067,0.004,0.049,-0.052,0.049,0.109,0.031,-0.072,-0.041,-0.078
0.006,-0.042,-0.048,0.018,0.028,-0.045,0.044,0.112,0.044,-0.057,-0.035,-0.068
0.005,-0.048,-0.053,0.022,0.029,-0.05,0.036,0.116,0.049,-0.043,-0.026,-0.061
0.005,-0.031,-0.037,0.013,0.021,-0.034,0.029,0.123,0.061,-0.031,-0.015,-0.044
0.013,-0.023,-0.036,0.006,0.025,-0.029,0.023,0.139,0.082,-0.012,-0.003,-0.022
0.042,-0.007,-0.049,-0.017,0.045,-0.028,0.013,0.153,0.102,0.01,0.021,-0.004
0.04,0.029,-0.011,-0.034,0.025,0.009,0.009,0.171,0.127,0.04,0.05,0.016
0.081,0.068,-0.013,-0.075,0.047,0.027,-0.003,0.186,0.16,0.076,0.085,0.044
0.147,0.112,-0.035,-0.129,0.09,0.038,-0.015,0.207,0.192,0.117,0.128,0.081
0.155,0.148,-0.007,-0.151,0.081,0.07,-0.034,0.218,0.236,0.177,0.182,0.132
0.179,0.202,0.022,-0.191,0.079,0.112,-0.065,0.209,0.275,0.235,0.24,0.192
0.177,0.248,0.071,-0.213,0.053,0.159,-0.086,0.203,0.299,0.281,0.289,0.241
0.222,0.288,0.066,-0.256,0.078,0.177,-0.106,0.196,0.308,0.321,0.335,0.288
0.233,0.316,0.083,-0.274,0.074,0.199,-0.112,0.173,0.301,0.337,0.37,0.321
0.187,0.315,0.128,-0.251,0.03,0.221,-0.107,0.14,0.302,0.333,0.367,0.319
0.196,0.303,0.108,-0.25,0.044,0.205,-0.099,0.113,0.282,0.313,0.325,0.29
0.14,0.236,0.096,-0.188,0.022,0.166,-0.074,0.093,0.232,0.262,0.271,0.228
0.088,0.169,0.082,-0.129,0.003,0.125,-0.039,0.08,0.184,0.182,0.195,0.154
0.047,0.116,0.069,-0.082,-0.011,0.092,-0.018,0.067,0.118,0.091,0.107,0.071
-0.006,0.055,0.062,-0.025,-0.034,0.058,0.001,0.048,0.057,0.028,0.051,0.019
-0.024,0.023,0.047,0.0,-0.036,0.035,0.028,0.02,0.027,-0.016,0.006,-0.018
-0.03,0.0,0.03,0.015,-0.03,0.014,0.036,-0.007,-0.001,-0.057,-0.033,-0.056
-0.045,-0.041,0.004,0.043,-0.024,-0.018,0.035,-0.018,-0.042,-0.079,-0.048,-0.064
-0.074,-0.061,0.013,0.067,-0.044,-0.024,0.035,-0.026,-0.063,-0.093,-0.058,-0.07
-0.086,-0.059,0.027,0.072,-0.057,-0.016,0.035,-0.044,-0.062,-0.106,-0.067,-0.07
-0.08,-0.061,0.019,0.07,-0.049,-0.021,0.035,-0.048,-0.08,-0.111,-0.071,-0.069
-0.074,-0.058,0.016,0.066,-0.045,-0.021,0.035,-0.037,-0.085,-0.11,-0.07,-0.071
-0.072,-0.064,0.008,0.068,-0.04,-0.028,0.035,-0.031,-0.076,-0.113,-0.074,-0.069
-0.052,-0.047,0.006,0.049,-0.029,-0.02,0.035,-0.026,-0.075,-0.116,-0.075,-0.071
-0.049,-0.053,-0.004,0.051,-0.022,-0.029,0.036,-0.022,-0.068,-0.114,-0.075,-0.067
-0.081,-0.077,0.003,0.079,-0.042,-0.037,0.042,-0.018,-0.066,-0.111,-0.08,-0.065
-0.089,-0.068,0.021,0.078,-0.055,-0.023,0.049,-0.013,-0.069,-0.11,-0.08,-0.066
-0.084,-0.064,0.02,0.074,-0.052,-0.022,0.046,-0.01,-0.074,-0.11,-0.08,-0.064
-0.081,-0.061,0.019,0.071,-0.05,-0.021,0.045,-0.009,-0.077,-0.111,-0.082,-0.082
-0.067,-0.054,0.013,0.06,-0.04,-0.02,0.045,-0.006,-0.082,-0.108,-0.086,-0.097
-0.072,-0.052,0.02,0.061,-0.046,-0.016,0.04,-0.004,-0.077,-0.121,-0.089,-0.094
-0.061,-0.079,-0.017,0.07,-0.022,-0.048,0.04,-0.013,-0.092,-0.137,-0.091,-0.096
-0.047,-0.078,-0.031,0.063,-0.008,-0.054,0.04,-0.026,-0.106,-0.134,-0.089,-0.095
-0.072,-0.065,0.007,0.068,-0.039,-0.029,0.04,-0.04,-0.105,-0.14,-0.091,-0.095
-0.084,-0.065,0.018,0.074,-0.051,-0.023,0.04,-0.045,-0.105,-0.14,-0.089,-0.098
-0.071,-0.052,0.02,0.061,-0.045,-0.016,0.04,-0.045,-0.104,-0.14,-0.094,-0.101
-0.084,-0.074,0.009,0.079,-0.046,-0.032,0.04,-0.061,-0.128,-0.152,-0.116,-0.109
-0.094,-0.088,0.006,0.091,-0.05,-0.041,0.04,-0.065,-0.136,-0.156,-0.12,-0.11
-0.077,-0.081,-0.004,0.079,-0.036,-0.043,0.036,-0.056,-0.128,-0.154,-0.114,-0.11
-0.08,-0.087,-0.007,0.084,-0.036,-0.047,0.035,-0.055,-0.128,-0.155,-0.112,-0.115
-0.055,-0.084,-0.028,0.07,-0.013,-0.056,0.034,-0.048,-0.122,-0.155,-0.107,-0.115
-0.058,-0.086,-0.028,0.073,-0.015,-0.057,0.031,-0.045,-0.119,-0.154,-0.104,-0.115
-0.107,-0.083,0.024,0.095,-0.066,-0.029,0.03,-0.06,-0.133,-0.151,-0.118,-0.115
-0.082,-0.08,0.002,0.081,-0.042,-0.039,0.03,-0.066,-0.146,-0.144,-0.132,-0.115
-0.053,-0.078,-0.025,0.066,-0.013,-0.051,0.042,-0.064,-0.145,-0.152,-0.128,-0.115
-0.082,-0.073,0.009,0.077,-0.045,-0.031,0.044,-0.065,-0.144,-0.166,-0.125,-0.115
-0.119,-0.091,0.028,0.105,-0.073,-0.031,0.036,-0.065,-0.14,-0.165,-0.122,-0.115
-0.114,-0.102,0.012,0.108,-0.063,-0.045,0.034,-0.065,-0.14,-0.165,-0.12,-0.118
-0.097,-0.099,-0.003,0.098,-0.047,-0.051,0.028,-0.065,-0.138,-0.165,-0.118,-0.124
-0.076,-0.098,-0.022,0.087,-0.027,-0.06,0.025,-0.065,-0.133,-0.165,-0.115,-0.123
-0.059,-0.094,-0.035,0.077,-0.011,-0.064,0.031,-0.065,-0.13,-0.165,-0.112,-0.12
-0.075,-0.095,-0.02,0.085,-0.027,-0.058,0.037,-0.065,-0.127,-0.165,-0.109,-0.117
-0.08,-0.095,-0.015,0.088,-0.032,-0.055,0.043,-0.064,-0.122,-0.165,-0.105,-0.115
-0.093,-0.095,-0.002,0.094,-0.045,-0.048,0.045,-0.068,-0.12,-0.165,-0.105,-0.111
-0.094,-0.095,-0.002,0.094,-0.045,-0.048,0.045,-0.07,-0.13,-0.165,-0.115,-0.109
-0.054,-0.095,-0.041,0.074,-0.006,-0.068,0.045,-0.07,-0.132,-0.165,-0.116,-0.126
-0.052,-0.095,-0.043,0.074,-0.004,-0.069,0.045,-0.073,-0.128,-0.162,-0.114,-0.131
-0.061,-0.094,-0.033,0.078,-0.014,-0.063,0.045,-0.076,-0.126,-0.159,-0.115,-0.126
-0.058,-0.087,-0.03,0.073,-0.014,-0.059,0.045,-0.074,-0.122,-0.156,-0.115,-0.125
-0.067,-0.081,-0.015,0.074,-0.026,-0.048,0.045,-0.069,-0.119,-0.153,-0.115,-0.12
-0.058,-0.09,-0.032,0.075,-0.013,-0.061,0.045,-0.064,-0.123,-0.15,-0.113,-0.119
-0.071,-0.107,-0.036,0.09,-0.017,-0.072,0.045,-0.058,-0.133,-0.151,-0.108,-0.115
-0.086,-0.111,-0.025,0.099,-0.03,-0.068,0.046,-0.054,-0.133,-0.15,-0.105,-0.11
-0.112,-0.11,0.002,0.111,-0.057,-0.054,0.042,-0.044,-0.122,-0.143,-0.102,-0.106
-0.123,-0.109,0.014,0.116,-0.068,-0.047,0.034,-0.055,-0.112,-0.136,-0.097,-0.101
-0.056,-0.082,-0.026,0.069,-0.015,-0.054,0.028,-0.045,-0.102,-0.129,-0.095,-0.096
-0.026,-0.06,-0.034,0.043,0.004,-0.047,0.02,-0.015,-0.093,-0.122,-0.088,-0.094
-0.031,-0.062,-0.031,0.046,0.0,-0.046,0.012,0.0,-0.087,-0.121,-0.077,-0.095
-0.041,-0.065,-0.023,0.053,-0.008,-0.044,0.007,0.043,-0.089,-0.129,-0.068,-0.096
-0.037,-0.068,-0.03,0.053,-0.003,-0.049,0.009,0.023,-0.091,-0.129,-0.061,-0.094
0.003,-0.069,-0.071,0.034,0.037,-0.07,0.016,-0.028,-0.087,-0.138,-0.084,-0.097
0.005,-0.077,-0.082,0.036,0.043,-0.079,0.017,-0.049,-0.104,-0.136,-0.096,-0.092
-0.012,-0.095,-0.083,0.054,0.035,-0.089,0.026,-0.065,-0.127,-0.153,-0.114,-0.11
-0.059,-0.109,-0.05,0.084,-0.004,-0.079,0.026,-0.087,-0.133,-0.167,-0.121,-0.12
-0.077,-0.127,-0.049,0.102,-0.014,-0.088,0.032,-0.073,-0.138,-0.162,-0.114,-0.121
-0.078,-0.124,-0.046,0.102,-0.015,-0.085,0.03,-0.078,-0.138,-0.17,-0.119,-0.128
-0.091,-0.123,-0.032,0.108,-0.029,-0.078,0.024,-0.074,-0.127,-0.156,-0.106,-0.122
-0.074,-0.129,-0.055,0.102,-0.009,-0.092,0.03,-0.061,-0.128,-0.177,-0.12,-0.14
-0.088,-0.118,-0.03,0.103,-0.029,-0.073,0.015,-0.087,-0.116,-0.146,-0.098,-0.117
-0.118,-0.175,-0.057,0.147,-0.03,-0.116,0.11,0.088,-0.107,-0.193,-0.182,-0.189
-0.1,-0.19,-0.09,0.146,-0.005,-0.14,0.181,0.285,0.007,-0.147,-0.187,-0.218
0.09,-0.015,-0.105,-0.038,0.098,-0.06,0.159,0.462,0.307,0.158,0.072,-0.009
0.344,0.595,0.25,-0.47,0.047,0.422,-0.172,-0.126,0.755,0.985,0.868,0.71
0.337,0.962,0.626,-0.649,-0.145,0.794,-0.566,-1.194,0.672,1.511,1.436,1.279
0.055,0.393,0.338,-0.224,-0.142,0.365,-0.407,-1.261,-0.256,0.398,0.55,0.605
-0.14,-0.037,0.103,0.088,-0.121,0.033,-0.173,-0.798,-0.561,-0.327,-0.127,-0.01
-0.095,-0.047,0.048,0.071,-0.071,0.001,-0.063,-0.306,-0.219,-0.137,-0.074,-0.039
-0.039,-0.076,-0.037,0.057,-0.001,-0.056,0.021,-0.055,-0.126,-0.17,-0.125,-0.096
-0.043,-0.096,-0.054,0.07,0.006,-0.075,0.036,-0.032,-0.075,-0.127,-0.093,-0.088
-0.057,-0.123,-0.066,0.09,0.005,-0.094,0.05,0.036,-0.066,-0.14,-0.111,-0.116
-0.055,-0.111,-0.056,0.083,0.001,-0.083,0.043,0.045,-0.053,-0.127,-0.104,-0.108
-0.054,-0.109,-0.055,0.082,0.001,-0.082,0.057,0.066,-0.04,-0.118,-0.1,-0.104
-0.056,-0.114,-0.058,0.085,0.001,-0.086,0.055,0.069,-0.036,-0.119,-0.103,-0.105
-0.016,-0.086,-0.07,0.051,0.027,-0.078,0.051,0.073,-0.022,-0.103,-0.096,-0.096
-0.012,-0.084,-0.071,0.048,0.03,-0.077,0.05,0.079,-0.02,-0.108,-0.104,-0.101
-0.038,-0.118,-0.079,0.078,0.021,-0.098,0.045,0.079,-0.007,-0.093,-0.096,-0.091
-0.018,-0.091,-0.073,0.055,0.027,-0.082,0.046,0.088,-0.004,-0.094,-0.095,-0.092
-0.027,-0.072,-0.045,0.05,0.009,-0.058,0.045,0.095,0.008,-0.084,-0.081,-0.086
-0.022,-0.071,-0.049,0.047,0.014,-0.06,0.045,0.094,0.015,-0.084,-0.069,-0.082
0.02,-0.057,-0.076,0.019,0.048,-0.066,0.045,0.104,0.023,-0.059,-0.054,-0.08
0.0,-0.055,-0.055,0.027,0.028,-0.055,0.045,0.113,0.05,-0.04,-0.043,-0.068
0.009,-0.043,-0.051,0.017,0.03,-0.047,0.046,0.12,0.068,-0.038,-0.03,-0.051
0.043,-0.037,-0.081,-0.003,0.062,-0.059,0.041,0.141,0.079,-0.013,-0.015,-0.033
0.035,-0.023,-0.057,-0.006,0.046,-0.04,0.025,0.158,0.106,0.017,0.014,-0.013
0.048,0.0,-0.047,-0.024,0.047,-0.023,0.009,0.17,0.125,0.038,0.036,0.01
0.09,0.024,-0.066,-0.057,0.078,-0.02,-0.006,0.18,0.145,0.067,0.053,0.036
0.116,0.061,-0.055,-0.088,0.085,0.003,-0.02,0.21,0.194,0.118,0.104,0.072
0.123,0.098,-0.025,-0.111,0.074,0.036,-0.034,0.23,0.239,0.173,0.159,0.121
0.156,0.147,-0.009,-0.151,0.082,0.069,-0.057,0.224,0.277,0.237,0.217,0.18
0.19,0.189,-0.001,-0.19,0.095,0.094,-0.077,0.217,0.309,0.289,0.268,0.229
0.194,0.231,0.037,-0.213,0.078,0.134,-0.095,0.208,0.316,0.328,0.315,0.273
0.214,0.265,0.05,-0.24,0.082,0.157,-0.103,0.175,0.309,0.354,0.344,0.311
0.217,0.282,0.065,-0.25,0.076,0.173,-0.092,0.141,0.305,0.351,0.335,0.315
0.153,0.265,0.112,-0.209,0.02,0.188,-0.083,0.126,0.296,0.339,0.322,0.288
0.132,0.205,0.072,-0.169,0.03,0.138,-0.063,0.11,0.262,0.287,0.266,0.23
0.106,0.154,0.048,-0.131,0.029,0.101,-0.033,0.1,0.212,0.198,0.18,0.148
0.035,0.076,0.041,-0.056,-0.003,0.058,-0.002,0.084,0.149,0.119,0.1,0.075
-0.002,0.014,0.017,-0.006,-0.01,0.015,0.024,0.062,0.088,0.06,0.034,0.014
-0.026,-0.016,0.01,0.021,-0.018,-0.003,0.035,0.043,0.036,0.016,-0.004,-0.02
-0.066,-0.061,0.005,0.063,-0.035,-0.028,0.042,0.022,0.002,-0.028,-0.047,-0.044
-0.084,-0.085,-0.001,0.085,-0.041,-0.043,0.036,0.005,-0.021,-0.063,-0.069,-0.067
-0.052,-0.099,-0.047,0.076,-0.002,-0.073,0.039,-0.003,-0.04,-0.074,-0.071,-0.07
-0.059,-0.103,-0.044,0.081,-0.008,-0.073,0.052,-0.009,-0.04,-0.079,-0.074,-0.072
-0.078,-0.11,-0.032,0.094,-0.022,-0.071,0.049,-0.016,-0.039,-0.082,-0.077,-0.075
-0.078,-0.118,-0.04,0.098,-0.019,-0.079,0.051,-0.022,-0.044,-0.088,-0.088,-0.08
-0.067,-0.114,-0.047,0.091,-0.01,-0.081,0.05,-0.022,-0.046,-0.1,-0.091,-0.086
-0.064,-0.116,-0.052,0.091,-0.006,-0.084,0.049,-0.006,-0.042,-0.1,-0.089,-0.084
-0.06,-0.112,-0.052,0.086,-0.004,-0.081,0.059,0.015,-0.04,-0.1,-0.091,-0.086
-0.052,-0.11,-0.058,0.081,0.003,-0.084,0.06,0.015,-0.036,-0.1,-0.09,-0.085
-0.072,-0.11,-0.038,0.091,-0.017,-0.074,0.06,0.015,-0.036,-0.101,-0.09,-0.085
-0.06,-0.107,-0.047,0.084,-0.006,-0.077,0.06,0.015,-0.037,-0.097,-0.096,-0.088
-0.035,-0.098,-0.063,0.067,0.014,-0.08,0.06,0.015,-0.053,-0.095,-0.101,-0.091
-0.03,-0.095,-0.065,0.063,0.018,-0.08,0.059,0.014,-0.072,-0.095,-0.1,-0.094
-0.061,-0.12,-0.059,0.091,-0.001,-0.089,0.055,0.007,-0.069,-0.095,-0.099,-0.096
-0.069,-0.127,-0.058,0.098,-0.005,-0.093,0.055,0.003,-0.073,-0.11,-0.111,-0.105
-0.074,-0.124,-0.05,0.099,-0.012,-0.087,0.055,-0.003,-0.075,-0.116,-0.121,-0.11
-0.091,-0.131,-0.04,0.111,-0.025,-0.085,0.055,-0.009,-0.075,-0.114,-0.119,-0.112
-0.059,-0.129,-0.071,0.094,0.006,-0.099,0.055,-0.014,-0.075,-0.116,-0.12,-0.116
-0.053,-0.131,-0.078,0.093,0.013,-0.104,0.051,-0.02,-0.077,-0.121,-0.12,-0.118
-0.067,-0.138,-0.071,0.102,0.002,-0.104,0.05,-0.03,-0.085,-0.133,-0.123,-0.12
-0.064,-0.137,-0.073,0.1,0.005,-0.104,0.05,-0.036,-0.085,-0.135,-0.132,-0.123
-0.066,-0.132,-0.067,0.099,0.001,-0.099,0.045,-0.034,-0.096,-0.135,-0.135,-0.125
-0.06,-0.129,-0.069,0.095,0.004,-0.098,0.045,-0.038,-0.101,-0.138,-0.136,-0.125
-0.066,-0.127,-0.061,0.097,-0.002,-0.093,0.044,-0.04,-0.099,-0.14,-0.139,-0.129
-0.055,-0.119,-0.064,0.088,0.005,-0.092,0.04,-0.04,-0.101,-0.139,-0.141,-0.131
-0.048,-0.125,-0.077,0.087,0.014,-0.1,0.04,-0.036,-0.1,-0.135,-0.136,-0.128
-0.072,-0.136,-0.064,0.105,-0.004,-0.1,0.04,-0.035,-0.1,-0.135,-0.135,-0.125
-0.069,-0.134,-0.065,0.102,-0.002,-0.099,0.04,-0.035,-0.1,-0.135,-0.134,-0.122
-0.071,-0.136,-0.065,0.104,-0.002,-0.1,0.04,-0.035,-0.1,-0.135,-0.13,-0.12
-0.069,-0.134,-0.065,0.102,-0.001,-0.099,0.043,-0.036,-0.1,-0.134,-0.131,-0.117
-0.073,-0.137,-0.064,0.105,-0.004,-0.101,0.052,-0.034,-0.1,-0.138,-0.129,-0.114
-0.063,-0.13,-0.067,0.097,0.003,-0.099,0.054,-0.039,-0.1,-0.147,-0.142,-0.119
-0.042,-0.131,-0.089,0.087,0.024,-0.109,0.05,-0.036,-0.099,-0.146,-0.14,-0.125
-0.057,-0.143,-0.086,0.1,0.015,-0.114,0.048,-0.041,-0.101,-0.144,-0.143,-0.132
-0.058,-0.136,-0.078,0.097,0.01,-0.107,0.045,-0.052,-0.105,-0.145,-0.164,-0.136
-0.065,-0.14,-0.074,0.103,0.005,-0.107,0.042,-0.047,-0.105,-0.144,-0.158,-0.135
-0.072,-0.141,-0.069,0.107,-0.002,-0.105,0.039,-0.045,-0.104,-0.146,-0.156,-0.135
-0.068,-0.139,-0.071,0.103,0.002,-0.105,0.04,-0.042,-0.1,-0.142,-0.153,-0.13
-0.074,-0.141,-0.067,0.108,-0.003,-0.104,0.04,-0.039,-0.1,-0.14,-0.15,-0.13
-0.075,-0.139,-0.065,0.108,-0.005,-0.101,0.04,-0.037,-0.099,-0.14,-0.15,-0.128
-0.075,-0.14,-0.065,0.108,-0.005,-0.103,0.04,-0.034,-0.095,-0.136,-0.15,-0.125
-0.081,-0.149,-0.068,0.115,-0.006,-0.108,0.04,-0.035,-0.096,-0.135,-0.15,-0.125
-0.067,-0.143,-0.076,0.105,0.005,-0.109,0.042,-0.035,-0.093,-0.135,-0.15,-0.126
-0.079,-0.137,-0.059,0.108,-0.01,-0.098,0.044,-0.033,-0.089,-0.129,-0.15,-0.125
-0.088,-0.15,-0.062,0.12,-0.013,-0.106,0.062,-0.036,-0.091,-0.12,-0.149,-0.125
-0.057,-0.139,-0.082,0.098,0.013,-0.11,0.075,-0.003,-0.084,-0.116,-0.147,-0.123
-0.04,-0.117,-0.076,0.079,0.018,-0.096,0.07,0.003,-0.071,-0.105,-0.137,-0.115
-0.039,-0.115,-0.076,0.077,0.019,-0.095,0.068,0.008,-0.06,-0.104,-0.136,-0.116
-0.053,-0.12,-0.067,0.087,0.007,-0.093,0.064,0.05,-0.031,-0.089,-0.106,-0.086
-0.031,-0.122,-0.091,0.076,0.03,-0.106,0.065,0.018,-0.027,-0.094,-0.108,-0.091
-0.026,-0.137,-0.11,0.082,0.042,-0.123,0.062,-0.016,-0.071,-0.138,-0.159,-0.138
-0.057,-0.153,-0.095,0.105,0.019,-0.124,0.058,-0.022,-0.088,-0.141,-0.162,-0.14
-0.068,-0.16,-0.093,0.114,0.013,-0.127,0.063,-0.049,-0.08,-0.151,-0.17,-0.146
-0.081,-0.168,-0.088,0.124,0.004,-0.128,0.056,-0.059,-0.096,-0.146,-0.167,-0.143
-0.084,-0.175,-0.091,0.129,0.004,-0.132,0.066,-0.053,-0.12,-0.171,-0.18,-0.154
-0.071,-0.152,-0.081,0.112,0.005,-0.116,0.053,-0.07,-0.11,-0.166,-0.169,-0.146
-0.071,-0.161,-0.091,0.116,0.01,-0.126,0.068,-0.037,-0.107,-0.172,-0.18,-0.158
-0.076,-0.164,-0.088,0.12,0.006,-0.125,0.052,-0.07,-0.106,-0.173,-0.173,-0.153
-0.081,-0.184,-0.103,0.133,0.011,-0.143,0.068,0.008,-0.089,-0.159,-0.178,-0.159
-0.122,-0.228,-0.106,0.175,-0.008,-0.166,0.17,0.206,-0.032,-0.203,-0.258,-0.251
-0.037,-0.144,-0.108,0.091,0.036,-0.126,0.197,0.432,0.189,-0.007,-0.13,-0.169
0.198,0.252,0.053,-0.225,0.072,0.152,0.029,0.243,0.563,0.582,0.427,0.318
0.316,0.874,0.557,-0.595,-0.121,0.715,-0.436,-0.816,0.837,1.566,1.386,1.169
0.124,0.703,0.579,-0.413,-0.228,0.64,-0.515,-1.326,0.185,1.146,1.119,1.046
-0.123,0.057,0.18,0.033,-0.151,0.118,-0.245,-1.027,-0.599,-0.176,0.011,0.154
-0.12,-0.081,0.038,0.1,-0.079,-0.021,-0.12,-0.554,-0.389,-0.236,-0.156,-0.065
-0.094,-0.118,-0.024,0.106,-0.034,-0.071,0.011,-0.11,-0.136,-0.136,-0.125,-0.078
-0.082,-0.142,-0.06,0.113,-0.01,-0.101,0.045,-0.025,-0.074,-0.153,-0.133,-0.102
-0.051,-0.126,-0.075,0.089,0.012,-0.101,0.059,0.019,-0.032,-0.112,-0.127,-0.1
-0.058,-0.135,-0.077,0.097,0.009,-0.105,0.071,0.058,-0.037,-0.139,-0.151,-0.119
-0.051,-0.122,-0.071,0.087,0.01,-0.096,0.066,0.067,-0.012,-0.102,-0.123,-0.098
-0.045,-0.128,-0.083,0.087,0.019,-0.105,0.074,0.075,-0.018,-0.12,-0.139,-0.109
-0.045,-0.127,-0.082,0.086,0.019,-0.104,0.07,0.088,0.0,-0.096,-0.121,-0.097
-0.056,-0.132,-0.076,0.094,0.01,-0.103,0.078,0.1,0.001,-0.1,-0.127,-0.101
-0.056,-0.128,-0.072,0.093,0.008,-0.1,0.073,0.092,0.018,-0.089,-0.118,-0.093
-0.062,-0.124,-0.063,0.093,0.001,-0.094,0.072,0.103,0.041,-0.082,-0.113,-0.088
-0.061,-0.126,-0.065,0.094,0.003,-0.095,0.068,0.097,0.037,-0.075,-0.111,-0.086
-0.026,-0.122,-0.096,0.074,0.035,-0.109,0.065,0.107,0.044,-0.065,-0.103,-0.079
-0.027,-0.119,-0.092,0.074,0.032,-0.105,0.063,0.109,0.049,-0.059,-0.102,-0.077
-0.039,-0.121,-0.082,0.081,0.021,-0.101,0.06,0.114,0.056,-0.029,-0.092,-0.068
-0.018,-0.106,-0.088,0.063,0.035,-0.097,0.057,0.141,0.089,-0.004,-0.073,-0.055
0.009,-0.073,-0.082,0.033,0.046,-0.077,0.04,0.148,0.102,0.002,-0.053,-0.042
0.048,-0.043,-0.092,-0.002,0.07,-0.067,0.024,0.153,0.114,0.013,-0.037,-0.027
0.055,-0.025,-0.08,-0.015,0.068,-0.053,0.013,0.166,0.143,0.05,-0.019,-0.01
0.056,-0.007,-0.063,-0.024,0.06,-0.034,0.003,0.183,0.173,0.081,0.013,0.017
0.086,0.02,-0.066,-0.053,0.076,-0.023,-0.002,0.204,0.209,0.12,0.058,0.06
0.125,0.061,-0.064,-0.092,0.094,-0.002,-0.024,0.222,0.24,0.167,0.103,0.104
0.168,0.113,-0.055,-0.14,0.111,0.029,-0.044,0.219,0.276,0.226,0.166,0.163
0.161,0.162,0.001,-0.161,0.08,0.081,-0.069,0.206,0.315,0.29,0.233,0.224
0.184,0.206,0.022,-0.195,0.08,0.114,-0.089,0.198,0.327,0.333,0.284,0.267
0.218,0.245,0.027,-0.232,0.095,0.136,-0.097,0.175,0.32,0.364,0.315,0.306
0.163,0.26,0.097,-0.212,0.033,0.178,-0.116,0.145,0.313,0.376,0.336,0.324
0.158,0.245,0.087,-0.202,0.035,0.166,-0.099,0.122,0.302,0.364,0.326,0.31
0.142,0.211,0.07,-0.177,0.036,0.14,-0.078,0.107,0.264,0.324,0.272,0.263
0.075,0.148,0.072,-0.112,0.001,0.11,-0.051,0.097,0.215,0.264,0.209,0.199
0.051,0.085,0.034,-0.068,0.008,0.059,-0.012,0.088,0.175,0.168,0.116,0.119
-0.02,0.019,0.039,0.0,-0.03,0.029,0.006,0.076,0.127,0.081,0.028,0.05
-0.045,-0.03,0.015,0.037,-0.03,-0.007,0.028,0.06,0.078,0.028,-0.014,-0.006
-0.052,-0.074,-0.021,0.063,-0.015,-0.047,0.05,0.044,0.033,-0.015,-0.05,-0.042
-0.076,-0.103,-0.027,0.09,-0.025,-0.065,0.061,0.023,0.003,-0.04,-0.074,-0.051
-0.06,-0.107,-0.047,0.084,-0.006,-0.077,0.057,0.003,-0.018,-0.062,-0.088,-0.077
-0.064,-0.128,-0.064,0.097,0.0,-0.096,0.053,0.0,-0.039,-0.072,-0.1,-0.082
-0.066,-0.129,-0.063,0.097,-0.001,-0.095,0.05,0.0,-0.041,-0.072,-0.098,-0.078
-0.069,-0.127,-0.058,0.098,-0.005,-0.092,0.044,0.0,-0.04,-0.07,-0.094,-0.082
-0.047,-0.119,-0.071,0.083,0.012,-0.094,0.049,0.0,-0.038,-0.07,-0.091,-0.078
-0.044,-0.115,-0.071,0.08,0.014,-0.093,0.06,-0.001,-0.034,-0.07,-0.086,-0.082
-0.073,-0.135,-0.061,0.104,-0.006,-0.098,0.06,0.012,-0.035,-0.07,-0.086,-0.084
-0.073,-0.133,-0.06,0.103,-0.006,-0.096,0.061,0.028,-0.038,-0.069,-0.095,-0.088
-0.079,-0.129,-0.05,0.104,-0.014,-0.089,0.065,0.03,-0.041,-0.066,-0.104,-0.09
-0.071,-0.126,-0.056,0.099,-0.007,-0.091,0.065,0.03,-0.04,-0.064,-0.105,-0.094
-0.032,-0.12,-0.088,0.077,0.028,-0.104,0.063,0.034,-0.04,-0.069,-0.105,-0.096
-0.046,-0.12,-0.074,0.083,0.014,-0.097,0.058,0.035,-0.04,-0.086,-0.105,-0.091
-0.049,-0.112,-0.063,0.081,0.008,-0.088,0.055,0.035,-0.041,-0.092,-0.105,-0.09
-0.04,-0.124,-0.083,0.082,0.022,-0.103,0.052,0.028,-0.046,-0.093,-0.106,-0.09
-0.064,-0.143,-0.078,0.103,0.007,-0.11,0.047,0.021,-0.049,-0.098,-0.11,-0.09
-0.054,-0.138,-0.084,0.097,0.015,-0.111,0.045,0.014,-0.054,-0.1,-0.11,-0.089
-0.052,-0.138,-0.086,0.096,0.017,-0.112,0.051,0.006,-0.055,-0.105,-0.11,-0.092
-0.048,-0.13,-0.082,0.089,0.017,-0.106,0.049,-0.001,-0.056,-0.104,-0.11,-0.095
-0.054,-0.137,-0.083,0.096,0.015,-0.11,0.044,-0.007,-0.069,-0.105,-0.11,-0.095
-0.064,-0.157,-0.093,0.11,0.015,-0.125,0.043,-0.011,-0.071,-0.104,-0.11,-0.094
-0.039,-0.148,-0.109,0.094,0.035,-0.129,0.036,-0.013,-0.066,-0.106,-0.109,-0.096
-0.04,-0.147,-0.107,0.094,0.034,-0.127,0.037,-0.016,-0.064,-0.111,-0.103,-0.102
-0.041,-0.14,-0.099,0.09,0.029,-0.119,0.045,-0.019,-0.058,-0.105,-0.094,-0.098
-0.025,-0.138,-0.113,0.081,0.045,-0.125,0.045,-0.021,-0.078,-0.12,-0.117,-0.113
-0.006,-0.13,-0.124,0.069,0.059,-0.127,0.045,-0.025,-0.093,-0.132,-0.132,-0.127
-0.015,-0.126,-0.111,0.071,0.048,-0.119,0.045,-0.023,-0.086,-0.122,-0.122,-0.117
-0.039,-0.146,-0.107,0.093,0.034,-0.126,0.045,-0.019,-0.086,-0.121,-0.12,-0.115
-0.037,-0.136,-0.099,0.087,0.031,-0.117,0.043,-0.02,-0.081,-0.114,-0.115,-0.11
-0.06,-0.153,-0.092,0.107,0.016,-0.122,0.04,-0.016,-0.079,-0.11,-0.11,-0.105
-0.075,-0.162,-0.087,0.119,0.006,-0.124,0.037,-0.015,-0.084,-0.113,-0.114,-0.109
-0.069,-0.145,-0.076,0.107,0.004,-0.11,0.035,-0.015,-0.085,-0.116,-0.115,-0.11
-0.068,-0.153,-0.085,0.111,0.008,-0.119,0.032,-0.027,-0.085,-0.119,-0.115,-0.11
-0.071,-0.153,-0.083,0.112,0.007,-0.118,0.029,-0.036,-0.085,-0.121,-0.119,-0.114
-0.059,-0.157,-0.098,0.108,0.02,-0.127,0.034,-0.034,-0.085,-0.125,-0.12,-0.116
-0.068,-0.16,-0.092,0.115,0.012,-0.126,0.035,-0.035,-0.085,-0.124,-0.119,-0.113
-0.087,-0.158,-0.071,0.123,-0.008,-0.114,0.038,-0.035,-0.085,-0.119,-0.114,-0.11
-0.083,-0.154,-0.071,0.119,-0.006,-0.112,0.04,-0.035,-0.085,-0.113,-0.108,-0.107
-0.097,-0.149,-0.052,0.123,-0.023,-0.1,0.04,-0.033,-0.085,-0.11,-0.105,-0.105
-0.066,-0.147,-0.08,0.107,0.007,-0.113,0.04,-0.026,-0.086,-0.105,-0.1,-0.102
-0.045,-0.138,-0.093,0.092,0.024,-0.115,0.04,-0.018,-0.079,-0.101,-0.096,-0.1
-0.054,-0.122,-0.068,0.088,0.007,-0.095,0.051,-0.013,-0.072,-0.096,-0.09,-0.095
-0.042,-0.113,-0.071,0.077,0.015,-0.092,0.047,-0.004,-0.061,-0.093,-0.081,-0.087
-0.031,-0.107,-0.076,0.07,0.022,-0.091,0.032,0.009,-0.057,-0.087,-0.068,-0.08
-0.026,-0.113,-0.087,0.07,0.03,-0.1,0.024,0.047,-0.06,-0.057,-0.064,-0.076
-0.012,-0.106,-0.093,0.059,0.041,-0.099,0.023,0.048,-0.06,-0.035,-0.063,-0.074
-0.008,-0.119,-0.111,0.064,0.052,-0.114,0.026,0.004,-0.06,-0.058,-0.069,-0.076
-0.016,-0.122,-0.106,0.069,0.045,-0.114,0.025,-0.018,-0.059,-0.085,-0.069,-0.073
-0.007,-0.116,-0.11,0.062,0.052,-0.113,0.024,-0.021,-0.077,-0.094,-0.077,-0.086
-0.051,-0.161,-0.11,0.106,0.03,-0.135,0.029,-0.031,-0.084,-0.11,-0.091,-0.102
-0.084,-0.172,-0.088,0.128,0.002,-0.129,0.05,-0.043,-0.084,-0.107,-0.088,-0.103
-0.069,-0.167,-0.099,0.118,0.015,-0.133,0.064,-0.044,-0.115,-0.138,-0.109,-0.124
-0.057,-0.149,-0.092,0.103,0.018,-0.12,0.04,-0.059,-0.108,-0.13,-0.091,-0.113
-0.091,-0.179,-0.088,0.135,-0.001,-0.134,0.053,-0.026,-0.109,-0.146,-0.104,-0.123
-0.113,-0.173,-0.06,0.143,-0.026,-0.116,0.023,-0.067,-0.116,-0.14,-0.08,-0.105
-0.081,-0.179,-0.098,0.13,0.009,-0.139,0.056,0.026,-0.088,-0.144,-0.123,-0.148
-0.101,-0.22,-0.12,0.161,0.01,-0.17,0.174,0.239,-0.009,-0.15,-0.185,-0.218
0.014,-0.106,-0.12,0.046,0.067,-0.113,0.196,0.466,0.231,0.067,-0.021,-0.1
0.256,0.326,0.07,-0.291,0.093,0.197,-0.024,0.159,0.623,0.697,0.58,0.43
0.355,0.891,0.536,-0.624,-0.091,0.714,-0.5,-0.946,0.823,1.59,1.455,1.225
0.149,0.587,0.438,-0.368,-0.145,0.513,-0.516,-1.334,0.077,0.933,0.984,0.924
-0.08,-0.013,0.066,0.046,-0.073,0.026,-0.249,-0.963,-0.6,-0.239,0.003,0.112
-0.096,-0.079,0.017,0.087,-0.057,-0.031,-0.116,-0.453,-0.307,-0.165,-0.059,-0.008
-0.093,-0.112,-0.02,0.103,-0.036,-0.066,0.011,-0.054,-0.098,-0.112,-0.07,-0.043
-0.045,-0.125,-0.08,0.085,0.018,-0.102,0.02,-0.011,-0.059,-0.108,-0.064,-0.066
-0.038,-0.128,-0.09,0.083,0.026,-0.109,0.046,0.045,-0.025,-0.076,-0.051,-0.066
-0.055,-0.134,-0.079,0.094,0.012,-0.106,0.057,0.068,-0.03,-0.092,-0.061,-0.076
-0.066,-0.126,-0.06,0.096,-0.003,-0.093,0.055,0.073,-0.011,-0.059,-0.04,-0.076
-0.073,-0.134,-0.061,0.103,-0.006,-0.097,0.06,0.095,-0.017,-0.073,-0.05,-0.088
-0.019,-0.127,-0.108,0.074,0.044,-0.117,0.05,0.098,-0.003,-0.046,-0.032,-0.071
-0.014,-0.131,-0.117,0.073,0.052,-0.124,0.053,0.103,-0.003,-0.05,-0.037,-0.073
-0.01,-0.116,-0.105,0.063,0.048,-0.11,0.046,0.102,0.004,-0.034,-0.024,-0.063
0.001,-0.106,-0.107,0.053,0.054,-0.106,0.045,0.116,0.008,-0.036,-0.022,-0.06
-0.002,-0.102,-0.099,0.052,0.049,-0.1,0.053,0.111,0.011,-0.034,-0.015,-0.053
0.0,-0.097,-0.097,0.049,0.048,-0.097,0.058,0.107,0.019,-0.029,-0.005,-0.046
-0.001,-0.095,-0.094,0.048,0.047,-0.095,0.048,0.138,0.044,-0.031,0.001,-0.04
-0.02,-0.104,-0.085,0.062,0.033,-0.094,0.042,0.154,0.063,-0.017,0.013,-0.031
-0.011,-0.091,-0.081,0.051,0.036,-0.086,0.034,0.151,0.068,0.004,0.024,-0.027
0.012,-0.059,-0.071,0.024,0.041,-0.065,0.028,0.158,0.082,0.029,0.04,-0.007
0.017,-0.047,-0.065,0.015,0.041,-0.056,0.02,0.16,0.091,0.04,0.052,0.011
0.024,-0.049,-0.073,0.013,0.049,-0.061,0.01,0.181,0.121,0.069,0.079,0.035
0.036,-0.023,-0.059,-0.006,0.048,-0.041,0.0,0.208,0.167,0.113,0.119,0.062
0.096,0.038,-0.058,-0.067,0.077,-0.01,-0.018,0.224,0.199,0.149,0.154,0.095
0.136,0.08,-0.056,-0.108,0.096,0.012,-0.036,0.241,0.234,0.2,0.208,0.146
0.169,0.134,-0.035,-0.151,0.102,0.049,-0.06,0.239,0.272,0.258,0.264,0.195
0.222,0.19,-0.033,-0.206,0.127,0.078,-0.083,0.22,0.3,0.31,0.32,0.245
0.237,0.23,-0.007,-0.233,0.121,0.111,-0.105,0.205,0.32,0.356,0.37,0.295
0.235,0.268,0.033,-0.251,0.101,0.15,-0.117,0.188,0.325,0.388,0.408,0.335
0.245,0.278,0.033,-0.262,0.106,0.155,-0.116,0.163,0.315,0.39,0.415,0.344
0.215,0.281,0.067,-0.248,0.074,0.174,-0.109,0.138,0.298,0.38,0.388,0.331
0.17,0.237,0.067,-0.204,0.051,0.152,-0.085,0.119,0.267,0.336,0.35,0.284
0.107,0.147,0.04,-0.127,0.034,0.093,-0.053,0.107,0.217,0.252,0.274,0.204
0.03,0.086,0.057,-0.058,-0.014,0.071,-0.015,0.088,0.162,0.179,0.191,0.134
0.005,0.04,0.036,-0.023,-0.016,0.038,0.011,0.058,0.11,0.111,0.117,0.076
-0.039,-0.02,0.019,0.029,-0.029,0.0,0.014,0.039,0.06,0.051,0.062,0.03
-0.047,-0.049,-0.002,0.048,-0.022,-0.025,0.021,0.022,0.014,0.01,0.034,-0.001
-0.036,-0.07,-0.034,0.053,-0.001,-0.052,0.026,0.011,-0.019,-0.011,0.021,-0.016
-0.052,-0.093,-0.041,0.073,-0.006,-0.066,0.03,0.009,-0.032,-0.027,0.009,-0.025
-0.056,-0.089,-0.033,0.073,-0.011,-0.061,0.042,0.006,-0.043,-0.044,0.005,-0.034
-0.063,-0.09,-0.027,0.077,-0.018,-0.058,0.046,0.003,-0.051,-0.046,0.005,-0.035
-0.068,-0.09,-0.023,0.08,-0.023,-0.056,0.045,0.0,-0.043,-0.044,0.0,-0.037
-0.089,-0.089,0.0,0.089,-0.045,-0.044,0.045,0.001,-0.04,-0.045,0.0,-0.041
-0.052,-0.094,-0.042,0.073,-0.005,-0.068,0.045,0.006,-0.035,-0.045,-0.008,-0.038
-0.014,-0.095,-0.081,0.055,0.034,-0.088,0.045,0.011,-0.03,-0.045,-0.01,-0.035
-0.026,-0.095,-0.068,0.061,0.022,-0.082,0.04,0.016,-0.035,-0.055,-0.004,-0.035
-0.034,-0.095,-0.062,0.065,0.015,-0.078,0.035,0.02,-0.035,-0.061,-0.001,-0.035
-0.05,-0.094,-0.044,0.072,-0.002,-0.069,0.03,0.025,-0.035,-0.059,-0.004,-0.035
-0.042,-0.096,-0.054,0.07,0.006,-0.075,0.027,0.021,-0.035,-0.06,-0.013,-0.035
-0.058,-0.094,-0.036,0.076,-0.011,-0.065,0.019,0.014,-0.035,-0.06,-0.019,-0.038
-0.071,-0.096,-0.025,0.084,-0.023,-0.06,0.031,0.008,-0.035,-0.06,-0.027,-0.044
-0.026,-0.095,-0.068,0.061,0.022,-0.081,0.047,0.001,-0.043,-0.066,-0.035,-0.043
-0.02,-0.095,-0.075,0.057,0.028,-0.085,0.044,-0.006,-0.048,-0.073,-0.04,-0.049
-0.058,-0.117,-0.059,0.088,0.001,-0.087,0.045,-0.012,-0.041,-0.076,-0.04,-0.056
-0.047,-0.111,-0.065,0.079,0.009,-0.088,0.045,-0.015,-0.036,-0.081,-0.04,-0.054
-0.061,-0.108,-0.047,0.085,-0.007,-0.077,0.045,-0.018,-0.031,-0.084,-0.04,-0.055
-0.059,-0.108,-0.049,0.084,-0.005,-0.079,0.042,-0.02,-0.025,-0.087,-0.04,-0.055
-0.023,-0.102,-0.079,0.063,0.028,-0.09,0.039,-0.023,-0.021,-0.089,-0.039,-0.054
-0.038,-0.115,-0.077,0.077,0.02,-0.096,0.041,-0.026,-0.025,-0.093,-0.041,-0.059
-0.055,-0.113,-0.059,0.084,0.002,-0.085,0.039,-0.021,-0.025,-0.094,-0.039,-0.06
-0.096,-0.108,-0.012,0.103,-0.042,-0.06,0.04,-0.02,-0.025,-0.098,-0.042,-0.06
-0.044,-0.106,-0.063,0.075,0.01,-0.084,0.039,-0.02,-0.025,-0.114,-0.062,-0.058
-0.023,-0.1,-0.077,0.062,0.027,-0.088,0.034,-0.02,-0.026,-0.116,-0.066,-0.054
-0.052,-0.101,-0.048,0.077,-0.002,-0.074,0.036,-0.02,-0.047,-0.114,-0.064,-0.055
-0.037,-0.119,-0.082,0.078,0.023,-0.1,0.032,-0.021,-0.056,-0.111,-0.065,-0.057
-0.071,-0.133,-0.061,0.102,-0.005,-0.097,0.03,-0.025,-0.065,-0.11,-0.065,-0.072
-0.073,-0.129,-0.056,0.101,-0.009,-0.092,0.03,-0.024,-0.08,-0.109,-0.064,-0.081
-0.068,-0.131,-0.062,0.1,-0.003,-0.096,0.033,-0.027,-0.079,-0.104,-0.059,-0.08
-0.043,-0.13,-0.087,0.086,0.022,-0.109,0.051,-0.031,-0.083,-0.105,-0.06,-0.08
-0.04,-0.129,-0.089,0.085,0.024,-0.109,0.054,-0.029,-0.085,-0.105,-0.058,-0.08
-0.062,-0.139,-0.077,0.101,0.007,-0.108,0.046,-0.034,-0.087,-0.105,-0.054,-0.08
-0.057,-0.14,-0.082,0.099,0.013,-0.111,0.044,-0.035,-0.095,-0.105,-0.055,-0.077
-0.084,-0.141,-0.057,0.113,-0.013,-0.099,0.038,-0.035,-0.095,-0.101,-0.055,-0.074
-0.08,-0.137,-0.057,0.109,-0.011,-0.097,0.035,-0.039,-0.095,-0.099,-0.055,-0.071
-0.05,-0.135,-0.085,0.093,0.018,-0.11,0.03,-0.041,-0.095,-0.1,-0.055,-0.068
-0.055,-0.135,-0.081,0.095,0.014,-0.108,0.03,-0.039,-0.095,-0.1,-0.055,-0.065
-0.063,-0.13,-0.067,0.097,0.002,-0.098,0.029,-0.035,-0.093,-0.1,-0.055,-0.065
-0.067,-0.157,-0.09,0.112,0.012,-0.123,0.024,-0.035,-0.09,-0.099,-0.054,-0.065
-0.105,-0.15,-0.044,0.128,-0.03,-0.097,0.026,-0.035,-0.09,-0.094,-0.05,-0.065
-0.092,-0.128,-0.036,0.11,-0.028,-0.082,0.022,-0.035,-0.09,-0.096,-0.05,-0.065
-0.02,-0.115,-0.094,0.068,0.037,-0.104,0.02,-0.035,-0.09,-0.092,-0.05,-0.065
-0.031,-0.107,-0.076,0.069,0.023,-0.091,0.02,-0.032,-0.091,-0.09,-0.05,-0.065
-0.048,-0.111,-0.063,0.079,0.008,-0.087,0.016,-0.029,-0.095,-0.089,-0.049,-0.065
-0.035,-0.106,-0.071,0.071,0.018,-0.088,0.014,-0.027,-0.095,-0.098,-0.055,-0.065
-0.073,-0.14,-0.067,0.107,-0.003,-0.103,0.016,-0.023,-0.095,-0.113,-0.063,-0.065
-0.084,-0.144,-0.06,0.115,-0.012,-0.102,0.028,-0.02,-0.091,-0.107,-0.058,-0.065
-0.074,-0.14,-0.066,0.108,-0.004,-0.103,0.031,-0.018,-0.09,-0.098,-0.051,-0.066
-0.047,-0.122,-0.075,0.084,0.014,-0.098,0.029,-0.005,-0.089,-0.09,-0.045,-0.064
-0.024,-0.084,-0.06,0.054,0.018,-0.071,0.042,0.008,-0.072,-0.082,-0.037,-0.059
-0.047,-0.097,-0.05,0.072,0.002,-0.073,0.047,0.022,-0.054,-0.075,-0.035,-0.054
0.013,-0.077,-0.09,0.032,0.052,-0.084,0.031,0.039,-0.041,-0.065,-0.035,-0.05
0.031,-0.073,-0.104,0.021,0.068,-0.088,0.02,0.055,-0.032,-0.055,-0.035,-0.046
0.024,-0.075,-0.099,0.026,0.062,-0.087,0.018,0.04,-0.034,-0.049,-0.035,-0.044
0.036,-0.073,-0.109,0.019,0.073,-0.091,0.021,0.008,-0.051,-0.06,-0.034,-0.04
0.009,-0.09,-0.099,0.041,0.054,-0.094,0.019,-0.007,-0.076,-0.08,-0.039,-0.043
0.022,-0.094,-0.116,0.036,0.069,-0.105,0.02,-0.018,-0.095,-0.107,-0.063,-0.069
-0.022,-0.115,-0.093,0.069,0.036,-0.104,0.026,-0.056,-0.103,-0.113,-0.068,-0.071
-0.048,-0.122,-0.074,0.085,0.014,-0.098,0.035,-0.053,-0.096,-0.107,-0.06,-0.068
-0.05,-0.141,-0.091,0.096,0.021,-0.116,0.037,-0.041,-0.098,-0.129,-0.072,-0.085
-0.068,-0.16,-0.092,0.115,0.012,-0.126,0.023,-0.054,-0.093,-0.11,-0.055,-0.074
-0.054,-0.155,-0.1,0.105,0.023,-0.127,0.037,-0.018,-0.096,-0.132,-0.079,-0.096
-0.056,-0.144,-0.088,0.101,0.016,-0.116,0.01,-0.064,-0.097,-0.108,-0.057,-0.075
-0.077,-0.182,-0.105,0.13,0.014,-0.143,0.082,0.069,-0.083,-0.143,-0.111,-0.125
-0.073,-0.164,-0.091,0.119,0.009,-0.127,0.171,0.269,0.005,-0.147,-0.148,-0.183
0.071,-0.069,-0.14,-0.001,0.106,-0.105,0.179,0.495,0.262,0.106,0.046,-0.034
0.33,0.43,0.1,-0.381,0.115,0.265,-0.076,0.103,0.691,0.813,0.716,0.578
0.388,0.983,0.595,-0.686,-0.103,0.788,-0.54,-1.034,0.795,1.572,1.489,1.311
0.124,0.523,0.4,-0.324,-0.138,0.461,-0.461,-1.28,-0.045,0.725,0.845,0.849
-0.073,-0.02,0.053,0.046,-0.063,0.016,-0.211,-0.865,-0.573,-0.268,-0.027,0.094
-0.092,-0.065,0.027,0.078,-0.059,-0.019,-0.099,-0.369,-0.249,-0.132,-0.033,0.018
-0.033,-0.095,-0.062,0.064,0.015,-0.078,0.011,-0.032,-0.097,-0.116,-0.059,-0.027
-0.015,-0.086,-0.071,0.051,0.028,-0.078,0.021,0.004,-0.066,-0.098,-0.037,-0.036
-0.053,-0.111,-0.058,0.083,0.002,-0.084,0.057,0.07,-0.047,-0.086,-0.034,-0.045
-0.023,-0.106,-0.084,0.065,0.031,-0.095,0.053,0.067,-0.042,-0.09,-0.03,-0.05
-0.042,-0.099,-0.057,0.071,0.008,-0.078,0.049,0.086,-0.026,-0.067,-0.028,-0.039
-0.021,-0.091,-0.071,0.056,0.025,-0.081,0.049,0.097,-0.029,-0.08,-0.047,-0.045
-0.025,-0.097,-0.072,0.061,0.024,-0.084,0.04,0.103,-0.014,-0.059,-0.027,-0.033
-0.052,-0.121,-0.069,0.087,0.009,-0.095,0.042,0.111,-0.014,-0.065,-0.034,-0.038
0.005,-0.088,-0.094,0.042,0.05,-0.091,0.046,0.11,-0.001,-0.052,-0.022,-0.03
0.009,-0.059,-0.068,0.025,0.039,-0.063,0.052,0.118,0.004,-0.05,-0.022,-0.028
0.01,-0.068,-0.078,0.029,0.045,-0.073,0.049,0.112,0.01,-0.04,-0.015,-0.02
0.01,-0.069,-0.08,0.03,0.045,-0.074,0.05,0.125,0.026,-0.035,-0.009,-0.015
0.0,-0.06,-0.06,0.03,0.031,-0.06,0.05,0.143,0.054,-0.027,-0.004,-0.01
0.011,-0.049,-0.06,0.02,0.036,-0.054,0.049,0.136,0.063,-0.017,0.012,-0.005
0.017,-0.032,-0.05,0.008,0.033,-0.04,0.043,0.148,0.071,-0.008,0.032,0.006
0.014,-0.051,-0.065,0.018,0.04,-0.058,0.037,0.176,0.097,0.014,0.047,0.028
0.041,-0.03,-0.071,-0.005,0.056,-0.05,0.032,0.18,0.108,0.04,0.06,0.041
0.084,0.02,-0.064,-0.052,0.074,-0.022,0.02,0.197,0.14,0.07,0.087,0.066
0.11,0.048,-0.062,-0.079,0.086,-0.007,-0.008,0.201,0.155,0.087,0.101,0.083
0.13,0.08,-0.05,-0.105,0.09,0.015,-0.032,0.223,0.186,0.132,0.147,0.117
0.165,0.119,-0.046,-0.142,0.105,0.036,-0.037,0.25,0.245,0.193,0.207,0.171
0.191,0.174,-0.017,-0.182,0.104,0.078,-0.055,0.242,0.272,0.238,0.253,0.219
0.219,0.218,0.0,-0.219,0.109,0.109,-0.073,0.242,0.301,0.296,0.311,0.275
0.23,0.258,0.029,-0.244,0.1,0.143,-0.096,0.237,0.318,0.342,0.354,0.322
0.226,0.304,0.078,-0.265,0.074,0.191,-0.115,0.21,0.32,0.364,0.384,0.357
0.246,0.315,0.07,-0.281,0.088,0.192,-0.107,0.177,0.311,0.383,0.398,0.369
0.206,0.283,0.078,-0.245,0.063,0.18,-0.105,0.148,0.299,0.366,0.385,0.36
0.143,0.234,0.091,-0.189,0.026,0.163,-0.091,0.128,0.283,0.319,0.341,0.316
0.103,0.183,0.08,-0.143,0.012,0.131,-0.057,0.113,0.234,0.254,0.263,0.237
0.06,0.128,0.068,-0.094,-0.004,0.098,-0.012,0.096,0.167,0.164,0.175,0.154
0.026,0.066,0.04,-0.046,-0.007,0.053,0.014,0.08,0.114,0.094,0.109,0.088
0.028,0.013,-0.015,-0.02,0.021,-0.001,0.017,0.052,0.062,0.042,0.061,0.043
0.011,-0.017,-0.028,0.004,0.02,-0.022,0.033,0.029,0.017,-0.005,0.021,0.026
0.001,-0.018,-0.019,0.009,0.01,-0.018,0.036,0.015,-0.007,-0.024,0.002,0.026
-0.018,-0.039,-0.021,0.029,0.002,-0.03,0.034,0.011,-0.026,-0.023,0.012,0.02
-0.083,-0.067,0.016,0.075,-0.049,-0.025,0.032,0.026,-0.042,-0.042,0.021,0.016
-0.058,-0.057,0.002,0.057,-0.03,-0.027,0.029,0.022,-0.051,-0.059,0.01,0.007
-0.036,-0.051,-0.015,0.044,-0.01,-0.033,0.03,0.015,-0.05,-0.053,0.0,0.001
-0.046,-0.045,0.001,0.046,-0.024,-0.021,0.025,0.014,-0.05,-0.056,-0.01,-0.007
-0.019,-0.036,-0.017,0.028,0.0,-0.026,0.022,0.005,-0.05,-0.065,-0.028,-0.015
0.008,-0.036,-0.044,0.014,0.026,-0.04,0.018,0.009,-0.05,-0.071,-0.04,-0.018
0.005,-0.034,-0.039,0.015,0.022,-0.036,0.016,0.02,-0.049,-0.07,-0.04,-0.016
-0.015,-0.037,-0.022,0.026,0.004,-0.029,0.008,0.02,-0.044,-0.07,-0.04,-0.013
0.003,-0.046,-0.049,0.022,0.026,-0.048,0.024,0.019,-0.041,-0.071,-0.041,-0.028
0.004,-0.052,-0.057,0.024,0.031,-0.055,0.034,0.016,-0.037,-0.069,-0.039,-0.046
-0.027,-0.047,-0.021,0.037,-0.003,-0.034,0.02,0.015,-0.034,-0.071,-0.041,-0.045
-0.028,-0.055,-0.027,0.042,0.0,-0.041,0.047,0.014,-0.029,-0.069,-0.039,-0.045
-0.025,-0.083,-0.059,0.054,0.017,-0.071,0.056,0.008,-0.038,-0.073,-0.043,-0.045
-0.055,-0.084,-0.029,0.07,-0.013,-0.056,0.048,0.004,-0.055,-0.096,-0.067,-0.045
-0.05,-0.078,-0.028,0.064,-0.011,-0.053,0.048,0.0,-0.056,-0.102,-0.071,-0.045
-0.003,-0.077,-0.074,0.04,0.036,-0.075,0.042,-0.005,-0.049,-0.103,-0.071,-0.045
-0.006,-0.07,-0.064,0.038,0.029,-0.067,0.04,-0.009,-0.055,-0.108,-0.077,-0.045
-0.019,-0.07,-0.051,0.045,0.016,-0.061,0.036,-0.015,-0.07,-0.109,-0.073,-0.045
-0.004,-0.06,-0.056,0.033,0.027,-0.058,0.033,-0.018,-0.076,-0.111,-0.07,-0.053
-0.015,-0.07,-0.056,0.043,0.02,-0.063,0.03,-0.015,-0.079,-0.109,-0.065,-0.056
-0.034,-0.096,-0.062,0.065,0.015,-0.079,0.028,-0.011,-0.084,-0.11,-0.063,-0.053
-0.045,-0.094,-0.049,0.069,0.002,-0.071,0.024,-0.009,-0.083,-0.11,-0.059,-0.051
-0.068,-0.09,-0.022,0.079,-0.023,-0.056,0.029,-0.004,-0.074,-0.11,-0.052,-0.047
-0.038,-0.088,-0.05,0.064,0.006,-0.069,0.04,-0.013,-0.093,-0.11,-0.079,-0.064
-0.009,-0.084,-0.075,0.046,0.034,-0.079,0.04,-0.03,-0.106,-0.106,-0.098,-0.076
-0.019,-0.084,-0.065,0.052,0.023,-0.074,0.04,-0.031,-0.096,-0.104,-0.086,-0.067
-0.012,-0.078,-0.066,0.046,0.027,-0.072,0.04,-0.03,-0.093,-0.105,-0.086,-0.065
-0.021,-0.081,-0.06,0.051,0.019,-0.07,0.04,-0.03,-0.086,-0.105,-0.079,-0.06
-0.027,-0.08,-0.052,0.054,0.013,-0.066,0.038,-0.03,-0.081,-0.105,-0.075,-0.055
-0.034,-0.08,-0.046,0.057,0.006,-0.062,0.035,-0.03,-0.083,-0.104,-0.087,-0.059
-0.056,-0.097,-0.041,0.076,-0.007,-0.069,0.032,-0.034,-0.086,-0.099,-0.091,-0.064
-0.03,-0.076,-0.046,0.053,0.008,-0.06,0.029,-0.041,-0.089,-0.096,-0.086,-0.067
-0.013,-0.06,-0.046,0.037,0.016,-0.053,0.026,-0.047,-0.091,-0.092,-0.084,-0.072
-0.028,-0.079,-0.052,0.053,0.012,-0.065,0.024,-0.05,-0.092,-0.089,-0.081,-0.075
-0.046,-0.097,-0.052,0.072,0.003,-0.074,0.036,-0.05,-0.089,-0.083,-0.079,-0.075
-0.053,-0.11,-0.057,0.082,0.002,-0.083,0.041,-0.052,-0.086,-0.096,-0.088,-0.075
-0.049,-0.101,-0.052,0.076,0.002,-0.077,0.039,-0.055,-0.083,-0.112,-0.089,-0.075
-0.054,-0.098,-0.043,0.076,-0.005,-0.07,0.04,-0.055,-0.08,-0.109,-0.094,-0.075
-0.06,-0.091,-0.031,0.076,-0.014,-0.061,0.04,-0.051,-0.081,-0.11,-0.106,-0.079
-0.091,-0.086,0.005,0.088,-0.047,-0.04,0.041,-0.05,-0.087,-0.11,-0.102,-0.08
-0.064,-0.093,-0.03,0.079,-0.017,-0.061,0.037,-0.05,-0.097,-0.11,-0.098,-0.08
-0.012,-0.091,-0.079,0.052,0.034,-0.085,0.035,-0.05,-0.103,-0.11,-0.096,-0.085
-0.032,-0.079,-0.047,0.056,0.007,-0.063,0.035,-0.05,-0.098,-0.11,-0.089,-0.085
-0.051,-0.069,-0.018,0.061,-0.016,-0.043,0.031,-0.051,-0.096,-0.11,-0.097,-0.086
-0.036,-0.083,-0.047,0.06,0.005,-0.065,0.029,-0.055,-0.094,-0.11,-0.101,-0.09
-0.026,-0.092,-0.066,0.059,0.02,-0.079,0.031,-0.055,-0.09,-0.11,-0.094,-0.09
-0.021,-0.084,-0.064,0.053,0.022,-0.073,0.034,-0.055,-0.091,-0.112,-0.104,-0.09
-0.037,-0.084,-0.047,0.061,0.005,-0.065,0.036,-0.054,-0.089,-0.116,-0.105,-0.09
-0.03,-0.079,-0.049,0.055,0.01,-0.064,0.033,-0.055,-0.091,-0.121,-0.112,-0.091
-0.044,-0.07,-0.026,0.057,-0.009,-0.047,0.04,-0.042,-0.087,-0.105,-0.12,-0.085
-0.072,-0.054,0.018,0.063,-0.045,-0.018,0.047,0.001,-0.062,-0.069,-0.105,-0.075
-0.002,-0.042,-0.04,0.023,0.019,-0.041,0.035,0.019,-0.046,-0.053,-0.091,-0.065
-0.003,-0.041,-0.037,0.022,0.017,-0.039,0.024,0.036,-0.034,-0.048,-0.08,-0.048
0.004,-0.035,-0.039,0.015,0.022,-0.037,0.012,0.045,-0.027,-0.028,-0.066,-0.038
0.05,-0.037,-0.086,-0.007,0.069,-0.061,0.015,0.008,-0.042,-0.047,-0.076,-0.051
0.027,-0.05,-0.077,0.012,0.052,-0.064,0.022,-0.021,-0.064,-0.078,-0.097,-0.056
0.001,-0.096,-0.097,0.048,0.049,-0.096,0.025,-0.024,-0.071,-0.074,-0.102,-0.052
-0.031,-0.108,-0.077,0.07,0.023,-0.092,0.036,-0.032,-0.084,-0.092,-0.114,-0.069
-0.051,-0.102,-0.051,0.077,0.001,-0.077,0.036,-0.044,-0.098,-0.096,-0.113,-0.071
-0.087,-0.129,-0.042,0.108,-0.023,-0.085,0.045,-0.046,-0.097,-0.107,-0.125,-0.089
-0.071,-0.104,-0.033,0.088,-0.019,-0.068,0.034,-0.069,-0.101,-0.1,-0.12,-0.081
-0.034,-0.1,-0.067,0.067,0.017,-0.083,0.046,-0.028,-0.114,-0.122,-0.149,-0.087
-0.04,-0.081,-0.041,0.06,0.001,-0.06,0.037,-0.056,-0.104,-0.088,-0.115,-0.063
-0.057,-0.118,-0.06,0.088,0.002,-0.089,0.065,0.018,-0.087,-0.095,-0.132,-0.099
-0.108,-0.166,-0.058,0.137,-0.025,-0.112,0.165,0.215,-0.029,-0.163,-0.226,-0.201
0.011,-0.084,-0.095,0.036,0.053,-0.089,0.188,0.438,0.182,0.041,-0.085,-0.104
0.261,0.329,0.068,-0.295,0.096,0.198,0.008,0.27,0.598,0.644,0.48,0.4
0.35,0.955,0.605,-0.653,-0.128,0.78,-0.451,-0.789,0.886,1.581,1.401,1.242
0.193,0.717,0.524,-0.455,-0.166,0.62,-0.517,-1.327,0.176,1.089,1.07,1.051
-0.051,0.088,0.139,-0.019,-0.095,0.113,-0.238,-0.996,-0.576,-0.146,0.022,0.186
-0.093,-0.012,0.081,0.052,-0.087,0.034,-0.116,-0.497,-0.349,-0.17,-0.119,0.0
-0.052,-0.034,0.017,0.043,-0.034,-0.008,-0.005,-0.088,-0.128,-0.089,-0.123,-0.033
-0.024,-0.055,-0.031,0.04,0.004,-0.043,0.022,-0.007,-0.077,-0.09,-0.118,-0.057
-0.03,-0.056,-0.026,0.044,-0.002,-0.041,0.043,0.047,-0.04,-0.063,-0.096,-0.053
-0.048,-0.068,-0.02,0.058,-0.014,-0.044,0.068,0.076,-0.045,-0.086,-0.114,-0.068
0.017,-0.054,-0.071,0.019,0.044,-0.062,0.062,0.096,-0.022,-0.055,-0.091,-0.052
0.011,-0.053,-0.065,0.021,0.038,-0.059,0.068,0.106,-0.02,-0.073,-0.105,-0.06
0.009,-0.043,-0.052,0.017,0.031,-0.048,0.063,0.099,-0.001,-0.052,-0.089,-0.052
0.007,-0.037,-0.044,0.015,0.025,-0.04,0.067,0.113,-0.002,-0.055,-0.096,-0.055
0.001,-0.041,-0.042,0.021,0.022,-0.041,0.062,0.118,0.014,-0.04,-0.088,-0.049
0.01,-0.054,-0.064,0.022,0.038,-0.059,0.054,0.129,0.015,-0.033,-0.087,-0.05
-0.02,-0.065,-0.045,0.043,0.013,-0.055,0.048,0.132,0.025,-0.025,-0.085,-0.047
-0.006,-0.06,-0.054,0.033,0.024,-0.057,0.041,0.135,0.043,-0.015,-0.079,-0.044
0.022,-0.037,-0.058,0.008,0.04,-0.047,0.034,0.136,0.046,-0.008,-0.081,-0.046
0.036,-0.019,-0.056,-0.008,0.046,-0.037,0.029,0.133,0.054,0.002,-0.067,-0.028
0.029,-0.012,-0.041,-0.008,0.035,-0.026,0.024,0.139,0.071,0.025,-0.048,-0.007
0.054,-0.003,-0.057,-0.025,0.056,-0.03,0.018,0.159,0.097,0.045,-0.028,0.006
0.045,0.001,-0.044,-0.023,0.044,-0.021,0.012,0.172,0.114,0.057,-0.014,0.034
0.036,0.016,-0.021,-0.026,0.028,-0.003,0.008,0.184,0.132,0.087,0.01,0.051
0.108,0.047,-0.061,-0.078,0.085,-0.007,-0.007,0.19,0.146,0.095,0.04,0.062
0.13,0.086,-0.044,-0.107,0.086,0.021,-0.015,0.214,0.187,0.139,0.074,0.107
0.139,0.125,-0.014,-0.132,0.076,0.055,-0.03,0.227,0.228,0.197,0.124,0.147
0.17,0.172,0.002,-0.171,0.084,0.087,-0.075,0.215,0.255,0.242,0.175,0.195
0.19,0.232,0.041,-0.211,0.074,0.136,-0.098,0.208,0.293,0.31,0.237,0.259
0.204,0.266,0.062,-0.236,0.071,0.164,-0.108,0.198,0.309,0.353,0.29,0.303
0.208,0.294,0.087,-0.251,0.06,0.19,-0.126,0.184,0.313,0.388,0.327,0.345
0.195,0.322,0.127,-0.259,0.033,0.224,-0.125,0.168,0.302,0.41,0.348,0.365
0.19,0.329,0.139,-0.26,0.026,0.234,-0.116,0.149,0.294,0.398,0.342,0.359
0.166,0.297,0.131,-0.232,0.017,0.214,-0.098,0.127,0.275,0.356,0.299,0.306
0.116,0.229,0.112,-0.173,0.002,0.17,-0.072,0.109,0.222,0.28,0.214,0.225
0.076,0.158,0.082,-0.118,-0.003,0.12,-0.042,0.093,0.168,0.211,0.131,0.155
0.02,0.078,0.059,-0.049,-0.019,0.068,-0.014,0.074,0.115,0.138,0.073,0.103
-0.011,0.036,0.046,-0.013,-0.029,0.041,0.008,0.052,0.061,0.063,0.017,0.064
-0.025,0.018,0.043,0.003,-0.035,0.031,0.02,0.035,0.019,0.016,-0.04,0.012
-0.035,0.0,0.035,0.017,-0.035,0.017,0.028,0.021,-0.004,-0.005,-0.054,-0.013
-0.043,-0.01,0.032,0.026,-0.037,0.011,0.037,0.011,-0.021,-0.027,-0.071,-0.025
-0.081,-0.056,0.025,0.068,-0.053,-0.015,0.037,0.01,-0.036,-0.047,-0.097,-0.036
-0.101,-0.078,0.023,0.089,-0.061,-0.028,0.031,0.01,-0.047,-0.044,-0.094,-0.034
-0.082,-0.065,0.017,0.073,-0.049,-0.024,0.026,0.01,-0.051,-0.045,-0.096,-0.034
-0.077,-0.064,0.013,0.07,-0.044,-0.026,0.023,0.01,-0.053,-0.046,-0.094,-0.029
-0.068,-0.058,0.01,0.063,-0.039,-0.024,0.016,0.011,-0.056,-0.044,-0.095,-0.03
-0.052,-0.058,-0.006,0.055,-0.022,-0.032,0.018,0.015,-0.059,-0.055,-0.094,-0.032
-0.068,-0.053,0.014,0.06,-0.04,-0.019,0.038,0.015,-0.061,-0.067,-0.096,-0.037
-0.064,-0.051,0.013,0.058,-0.039,-0.019,0.041,0.015,-0.06,-0.064,-0.094,-0.04
-0.065,-0.049,0.016,0.057,-0.04,-0.017,0.04,0.012,-0.062,-0.065,-0.097,-0.047
-0.043,-0.046,-0.003,0.045,-0.02,-0.024,0.045,0.006,-0.066,-0.086,-0.126,-0.067
-0.05,-0.072,-0.022,0.061,-0.014,-0.047,0.045,0.001,-0.069,-0.091,-0.132,-0.072
-0.08,-0.066,0.013,0.073,-0.046,-0.026,0.044,-0.002,-0.073,-0.09,-0.129,-0.073
-0.055,-0.076,-0.021,0.066,-0.017,-0.048,0.037,-0.008,-0.076,-0.09,-0.136,-0.077
-0.041,-0.058,-0.017,0.049,-0.012,-0.037,0.033,-0.009,-0.081,-0.092,-0.134,-0.08
-0.034,-0.029,0.004,0.031,-0.019,-0.012,0.027,-0.003,-0.079,-0.092,-0.137,-0.08
-0.058,-0.071,-0.013,0.064,-0.022,-0.042,0.021,0.005,-0.073,-0.084,-0.14,-0.08
-0.031,-0.055,-0.024,0.043,-0.003,-0.039,0.017,-0.008,-0.102,-0.109,-0.14,-0.08
-0.018,-0.046,-0.028,0.032,0.005,-0.037,0.011,-0.042,-0.123,-0.123,-0.144,-0.08
-0.054,-0.053,0.001,0.053,-0.027,-0.026,0.01,-0.051,-0.118,-0.118,-0.145,-0.08
-0.047,-0.05,-0.003,0.048,-0.022,-0.026,0.01,-0.049,-0.127,-0.122,-0.141,-0.079
-0.034,-0.057,-0.023,0.046,-0.005,-0.04,0.01,-0.053,-0.13,-0.12,-0.14,-0.089
-0.026,-0.054,-0.028,0.04,0.002,-0.041,0.01,-0.055,-0.125,-0.118,-0.14,-0.097
-0.032,-0.052,-0.02,0.042,-0.006,-0.036,0.011,-0.055,-0.124,-0.115,-0.14,-0.094
-0.028,-0.044,-0.017,0.036,-0.005,-0.03,0.02,-0.051,-0.117,-0.111,-0.14,-0.091
-0.048,-0.04,0.008,0.044,-0.028,-0.015,0.022,-0.05,-0.116,-0.109,-0.139,-0.09
-0.065,-0.033,0.031,0.049,-0.048,-0.001,0.019,-0.05,-0.116,-0.114,-0.135,-0.09
-0.082,-0.059,0.023,0.07,-0.052,-0.018,0.016,-0.05,-0.127,-0.118,-0.134,-0.09
-0.09,-0.076,0.014,0.083,-0.052,-0.03,0.014,-0.051,-0.145,-0.123,-0.131,-0.09
-0.074,-0.066,0.008,0.07,-0.041,-0.029,0.01,-0.048,-0.145,-0.124,-0.128,-0.092
-0.09,-0.062,0.027,0.076,-0.058,-0.017,0.01,-0.045,-0.145,-0.12,-0.145,-0.095
-0.064,-0.057,0.007,0.06,-0.036,-0.024,0.022,-0.042,-0.145,-0.117,-0.157,-0.095
-0.058,-0.05,0.008,0.054,-0.033,-0.02,0.026,-0.04,-0.145,-0.115,-0.154,-0.095
-0.06,-0.049,0.011,0.054,-0.036,-0.018,0.024,-0.037,-0.143,-0.111,-0.155,-0.095
-0.046,-0.064,-0.018,0.055,-0.014,-0.04,0.022,-0.034,-0.139,-0.109,-0.155,-0.095
-0.064,-0.066,-0.002,0.065,-0.03,-0.034,0.02,-0.044,-0.141,-0.119,-0.155,-0.095
-0.034,-0.064,-0.029,0.049,-0.002,-0.046,0.019,-0.046,-0.136,-0.121,-0.152,-0.095
-0.022,-0.061,-0.039,0.042,0.008,-0.05,0.026,-0.043,-0.135,-0.116,-0.148,-0.095
-0.051,-0.06,-0.009,0.055,-0.021,-0.034,0.036,-0.04,-0.135,-0.115,-0.147,-0.095
-0.046,-0.059,-0.013,0.052,-0.016,-0.036,0.034,-0.037,-0.128,-0.111,-0.143,-0.095
-0.041,-0.048,-0.007,0.044,-0.016,-0.028,0.036,-0.034,-0.121,-0.11,-0.141,-0.093
-0.023,-0.035,-0.012,0.029,-0.005,-0.023,0.035,-0.031,-0.114,-0.104,-0.139,-0.087
-0.017,-0.026,-0.009,0.021,-0.004,-0.017,0.034,-0.024,-0.107,-0.097,-0.13,-0.084
-0.026,-0.014,0.012,0.02,-0.018,-0.001,0.044,0.005,-0.1,-0.093,-0.122,-0.079
-0.004,-0.006,-0.002,0.005,-0.001,-0.004,0.033,0.014,-0.095,-0.089,-0.112,-0.075
0.03,0.007,-0.024,-0.018,0.027,-0.008,0.021,0.037,-0.095,-0.096,-0.114,-0.081
0.088,0.028,-0.06,-0.058,0.074,-0.016,0.019,0.042,-0.095,-0.093,-0.114,-0.079
0.08,0.005,-0.075,-0.043,0.077,-0.035,0.02,-0.002,-0.095,-0.096,-0.116,-0.082
0.037,-0.029,-0.067,-0.004,0.052,-0.048,0.012,-0.031,-0.097,-0.094,-0.113,-0.085
0.015,-0.056,-0.071,0.021,0.043,-0.063,0.018,-0.036,-0.111,-0.098,-0.117,-0.085
-0.034,-0.069,-0.034,0.052,0.0,-0.051,0.029,-0.063,-0.121,-0.114,-0.125,-0.088
-0.069,-0.067,0.002,0.068,-0.035,-0.032,0.03,-0.057,-0.121,-0.108,-0.128,-0.088
-0.077,-0.059,0.019,0.067,-0.048,-0.02,0.033,-0.052,-0.129,-0.117,-0.151,-0.089
-0.068,-0.074,-0.006,0.072,-0.031,-0.04,0.021,-0.059,-0.121,-0.1,-0.136,-0.078
-0.059,-0.093,-0.034,0.076,-0.012,-0.064,0.035,-0.03,-0.124,-0.122,-0.16,-0.088
-0.061,-0.064,-0.002,0.063,-0.029,-0.033,0.007,-0.073,-0.12,-0.097,-0.137,-0.071
-0.077,-0.11,-0.033,0.094,-0.022,-0.072,0.079,0.072,-0.102,-0.146,-0.175,-0.14
-0.041,-0.116,-0.075,0.078,0.018,-0.095,0.168,0.272,0.004,-0.137,-0.202,-0.186
0.095,0.013,-0.081,-0.054,0.088,-0.034,0.158,0.486,0.27,0.143,0.011,-0.025
0.311,0.547,0.236,-0.429,0.037,0.391,-0.12,0.016,0.703,0.895,0.737,0.62
0.352,1.011,0.659,-0.682,-0.154,0.835,-0.554,-1.092,0.772,1.622,1.474,1.316
0.085,0.535,0.45,-0.31,-0.183,0.492,-0.45,-1.277,-0.129,0.666,0.744,0.785
-0.095,0.044,0.139,0.026,-0.117,0.091,-0.218,-0.876,-0.61,-0.288,-0.095,0.062
-0.075,0.01,0.085,0.032,-0.08,0.047,-0.104,-0.369,-0.253,-0.103,-0.071,0.003
-0.048,-0.029,0.019,0.038,-0.034,-0.005,0.008,-0.039,-0.116,-0.088,-0.104,-0.034
-0.043,-0.034,0.01,0.038,-0.026,-0.012,0.008,-0.017,-0.069,-0.063,-0.074,-0.023
-0.035,-0.03,0.004,0.033,-0.019,-0.013,0.03,0.052,-0.049,-0.062,-0.073,-0.04
0.003,-0.023,-0.026,0.01,0.015,-0.024,0.025,0.059,-0.044,-0.063,-0.071,-0.04
0.031,-0.015,-0.046,-0.008,0.039,-0.03,0.025,0.063,-0.026,-0.045,-0.058,-0.027
0.007,-0.011,-0.018,0.002,0.013,-0.014,0.026,0.087,-0.027,-0.055,-0.066,-0.033
0.009,-0.003,-0.012,-0.003,0.011,-0.007,0.019,0.103,-0.012,-0.036,-0.048,-0.017
0.029,-0.021,-0.05,-0.004,0.04,-0.035,0.022,0.099,-0.012,-0.044,-0.049,-0.026
-0.012,-0.03,-0.019,0.021,0.004,-0.024,0.017,0.1,-0.001,-0.03,-0.034,-0.021
-0.019,-0.02,-0.001,0.02,-0.009,-0.01,0.016,0.1,0.005,-0.032,-0.031,-0.014
-0.004,-0.005,-0.001,0.004,-0.001,-0.003,0.01,0.1,0.019,-0.02,-0.02,-0.001
0.005,0.009,0.005,-0.008,0.0,0.007,0.008,0.111,0.03,-0.009,-0.01,0.007
0.013,0.029,0.016,-0.022,-0.002,0.022,0.003,0.107,0.04,0.005,0.003,0.016
0.01,0.028,0.018,-0.019,-0.004,0.023,0.001,0.108,0.049,0.014,0.012,0.024
0.011,0.017,0.006,-0.014,0.002,0.011,-0.005,0.129,0.069,0.032,0.027,0.036
0.007,0.024,0.017,-0.016,-0.005,0.02,-0.014,0.165,0.098,0.064,0.056,0.076
0.067,0.051,-0.016,-0.059,0.041,0.017,-0.019,0.182,0.114,0.082,0.075,0.091
0.106,0.092,-0.014,-0.099,0.06,0.039,-0.035,0.183,0.133,0.11,0.097,0.092
0.089,0.112,0.022,-0.101,0.034,0.067,-0.045,0.2,0.173,0.146,0.127,0.121
0.126,0.155,0.029,-0.14,0.048,0.092,-0.055,0.223,0.218,0.197,0.169,0.164
0.157,0.205,0.048,-0.181,0.054,0.126,-0.068,0.239,0.248,0.245,0.218,0.212
0.14,0.236,0.097,-0.188,0.021,0.166,-0.092,0.25,0.287,0.304,0.281,0.265
0.162,0.289,0.126,-0.225,0.018,0.207,-0.117,0.243,0.33,0.366,0.343,0.322
0.207,0.323,0.116,-0.265,0.045,0.22,-0.132,0.229,0.336,0.398,0.38,0.369
0.223,0.346,0.123,-0.285,0.05,0.234,-0.144,0.201,0.324,0.422,0.417,0.406
0.238,0.363,0.125,-0.301,0.056,0.243,-0.135,0.164,0.315,0.421,0.427,0.414
0.224,0.357,0.133,-0.291,0.046,0.244,-0.126,0.139,0.306,0.404,0.406,0.393
0.186,0.303,0.118,-0.245,0.034,0.21,-0.113,0.122,0.275,0.363,0.356,0.336
0.151,0.24,0.089,-0.196,0.031,0.164,-0.087,0.116,0.212,0.285,0.274,0.254
0.067,0.188,0.121,-0.128,-0.028,0.155,-0.043,0.103,0.162,0.213,0.212,0.196
0.024,0.104,0.08,-0.064,-0.028,0.091,-0.016,0.082,0.125,0.154,0.151,0.145
0.052,0.06,0.008,-0.056,0.022,0.034,-0.037,0.053,0.059,0.089,0.093,0.098
0.003,0.037,0.033,-0.021,-0.015,0.035,-0.028,0.022,0.018,0.047,0.06,0.066
-0.014,0.025,0.039,-0.006,-0.027,0.032,-0.013,0.005,-0.006,0.029,0.044,0.055
0.011,0.033,0.023,-0.022,-0.006,0.028,-0.033,-0.011,-0.041,0.017,0.034,0.05
0.012,0.027,0.015,-0.02,-0.002,0.021,-0.041,-0.024,-0.045,0.006,0.022,0.042
0.003,0.032,0.029,-0.018,-0.013,0.03,-0.04,-0.031,-0.045,-0.005,0.02,0.036
-0.014,0.028,0.042,-0.007,-0.028,0.035,-0.04,-0.045,-0.051,-0.014,0.02,0.03
0.003,0.033,0.03,-0.018,-0.014,0.031,-0.04,-0.043,-0.046,-0.022,0.02,0.035
0.025,0.053,0.028,-0.04,-0.002,0.041,-0.04,-0.029,-0.041,-0.022,0.02,0.035
0.035,0.056,0.021,-0.046,0.006,0.038,-0.034,-0.021,-0.036,-0.019,0.02,0.035
0.036,0.052,0.016,-0.044,0.01,0.033,-0.029,-0.01,-0.029,-0.016,0.018,0.035
0.069,0.05,-0.019,-0.06,0.044,0.015,-0.024,-0.005,-0.027,-0.013,0.014,0.035
0.086,0.048,-0.038,-0.067,0.062,0.005,-0.018,-0.005,-0.029,-0.01,0.012,0.033
0.029,0.045,0.015,-0.037,0.007,0.03,-0.012,-0.005,-0.031,-0.011,0.009,0.026
0.025,0.04,0.015,-0.032,0.005,0.027,-0.012,-0.005,-0.032,-0.019,0.006,0.022
0.014,0.039,0.025,-0.026,-0.006,0.031,-0.019,-0.005,-0.037,-0.027,0.004,0.015
-0.04,0.032,0.072,0.004,-0.056,0.052,-0.024,-0.009,-0.055,-0.031,0.0,0.01
-0.02,0.031,0.051,-0.006,-0.036,0.041,-0.03,-0.019,-0.064,-0.03,-0.005,0.005
-0.015,0.025,0.04,-0.005,-0.028,0.032,-0.034,-0.023,-0.072,-0.03,-0.01,0.0
-0.027,0.021,0.048,0.003,-0.038,0.034,-0.031,-0.02,-0.077,-0.03,-0.013,0.0
-0.015,0.037,0.052,-0.011,-0.034,0.044,-0.026,-0.015,-0.074,-0.031,-0.019,0.0
-0.011,0.035,0.046,-0.012,-0.029,0.04,-0.024,-0.013,-0.076,-0.029,-0.018,0.001
-0.015,0.015,0.03,0.0,-0.023,0.023,-0.019,-0.008,-0.074,-0.034,-0.014,-0.002
-0.029,0.008,0.038,0.01,-0.034,0.023,-0.015,-0.004,-0.076,-0.041,-0.015,0.007
-0.037,0.027,0.063,0.005,-0.05,0.045,-0.015,-0.022,-0.08,-0.04,-0.011,0.007
-0.036,0.03,0.066,0.002,-0.051,0.048,-0.015,-0.033,-0.079,-0.04,-0.009,0.007
-0.038,0.022,0.06,0.008,-0.049,0.041,-0.015,-0.029,-0.083,-0.04,-0.011,0.022
-0.037,0.022,0.059,0.007,-0.048,0.04,-0.021,-0.031,-0.085,-0.04,-0.016,0.017
-0.04,0.015,0.055,0.012,-0.048,0.035,-0.031,-0.03,-0.085,-0.04,-0.026,0.011
-0.04,0.014,0.054,0.012,-0.047,0.034,-0.033,-0.03,-0.085,-0.04,-0.028,0.007
-0.04,0.01,0.05,0.015,-0.045,0.03,-0.03,-0.034,-0.085,-0.04,-0.025,-0.001
-0.039,0.009,0.048,0.015,-0.044,0.028,-0.03,-0.035,-0.085,-0.04,-0.025,-0.003
-0.031,0.013,0.044,0.009,-0.037,0.028,-0.027,-0.037,-0.085,-0.043,-0.025,-0.001
-0.061,-0.018,0.044,0.039,-0.052,0.013,-0.024,-0.04,-0.085,-0.046,-0.025,0.001
-0.057,-0.021,0.036,0.039,-0.046,0.007,-0.027,-0.041,-0.084,-0.042,-0.025,0.003
-0.056,0.001,0.057,0.027,-0.057,0.029,-0.015,-0.048,-0.08,-0.04,-0.025,0.006
-0.067,-0.002,0.066,0.034,-0.066,0.032,-0.019,-0.054,-0.08,-0.037,-0.025,0.002
-0.056,0.001,0.057,0.027,-0.056,0.029,-0.041,-0.052,-0.079,-0.034,-0.025,-0.007
-0.079,-0.002,0.078,0.04,-0.078,0.038,-0.038,-0.048,-0.081,-0.044,-0.026,-0.004
-0.051,0.004,0.055,0.023,-0.053,0.029,-0.032,-0.044,-0.078,-0.045,-0.024,0.006
-0.038,0.016,0.054,0.011,-0.046,0.034,-0.03,-0.042,-0.09,-0.052,-0.031,0.008
-0.045,0.012,0.057,0.016,-0.052,0.034,-0.023,-0.035,-0.111,-0.076,-0.045,0.003
-0.04,0.006,0.046,0.016,-0.043,0.026,-0.021,-0.037,-0.108,-0.085,-0.045,0.0
-0.07,0.008,0.077,0.031,-0.074,0.042,-0.028,-0.047,-0.104,-0.08,-0.045,-0.003
-0.049,0.025,0.074,0.012,-0.061,0.049,-0.032,-0.045,-0.101,-0.075,-0.045,-0.008
-0.045,0.025,0.07,0.01,-0.058,0.047,-0.026,-0.045,-0.096,-0.072,-0.045,-0.01
-0.034,0.02,0.054,0.007,-0.044,0.036,-0.026,-0.042,-0.093,-0.066,-0.044,-0.005
-0.025,0.018,0.043,0.003,-0.034,0.03,-0.021,-0.04,-0.09,-0.067,-0.04,-0.004
-0.052,0.012,0.065,0.02,-0.059,0.038,-0.02,-0.039,-0.088,-0.072,-0.038,0.0
-0.021,0.011,0.032,0.005,-0.026,0.021,-0.028,-0.05,-0.104,-0.075,-0.035,-0.003
-0.005,0.004,0.01,0.0,-0.008,0.007,-0.031,-0.062,-0.109,-0.077,-0.032,-0.024
-0.006,0.003,0.008,0.001,-0.007,0.005,-0.03,-0.058,-0.097,-0.068,-0.029,-0.018
-0.039,0.013,0.052,0.013,-0.046,0.032,-0.03,-0.043,-0.086,-0.055,-0.026,0.001
-0.052,0.031,0.083,0.01,-0.068,0.057,-0.031,-0.021,-0.072,-0.045,-0.014,0.013
-0.033,0.035,0.068,-0.002,-0.051,0.052,-0.028,-0.004,-0.058,-0.034,-0.005,0.015
-0.003,0.056,0.058,-0.027,-0.031,0.057,-0.045,0.047,-0.049,-0.03,0.006,0.029
0.042,0.071,0.029,-0.057,0.006,0.05,-0.073,0.034,-0.051,-0.027,0.029,0.042
0.006,0.03,0.024,-0.018,-0.01,0.027,-0.066,-0.026,-0.047,-0.024,0.01,0.019
0.01,0.018,0.008,-0.014,0.001,0.013,-0.06,-0.046,-0.068,-0.037,-0.012,0.022
0.037,0.017,-0.02,-0.027,0.028,-0.002,-0.051,-0.048,-0.102,-0.068,-0.029,0.009
-0.014,0.004,0.018,0.005,-0.016,0.01,-0.042,-0.062,-0.11,-0.073,-0.045,-0.006
-0.061,-0.022,0.039,0.041,-0.049,0.008,-0.037,-0.058,-0.114,-0.071,-0.049,-0.013
-0.094,-0.033,0.062,0.063,-0.078,0.014,-0.025,-0.057,-0.117,-0.082,-0.054,-0.02
-0.082,-0.026,0.056,0.054,-0.069,0.015,-0.025,-0.058,-0.112,-0.067,-0.045,-0.004
-0.058,-0.036,0.022,0.047,-0.04,-0.007,-0.004,-0.035,-0.114,-0.094,-0.067,-0.013
-0.076,-0.02,0.056,0.048,-0.066,0.018,-0.016,-0.069,-0.102,-0.063,-0.038,0.009
-0.082,-0.073,0.009,0.077,-0.045,-0.032,0.034,0.07,-0.092,-0.108,-0.107,-0.079
-0.071,-0.073,-0.002,0.072,-0.034,-0.037,0.124,0.271,0.018,-0.077,-0.116,-0.115
0.108,0.079,-0.029,-0.094,0.068,0.025,0.104,0.467,0.291,0.196,0.108,0.068
0.376,0.645,0.268,-0.511,0.053,0.456,-0.219,-0.044,0.728,0.973,0.852,0.744
0.366,1.084,0.718,-0.725,-0.176,0.901,-0.609,-1.135,0.73,1.6,1.517,1.395
0.094,0.549,0.455,-0.322,-0.181,0.501,-0.492,-1.283,-0.187,0.579,0.708,0.783
-0.078,0.092,0.17,-0.007,-0.124,0.131,-0.25,-0.829,-0.571,-0.238,-0.038,0.123
-0.056,0.076,0.131,-0.01,-0.094,0.103,-0.13,-0.326,-0.225,-0.067,0.006,0.096
-0.032,0.02,0.052,0.005,-0.042,0.036,-0.046,-0.046,-0.118,-0.086,-0.044,0.031
-0.037,0.006,0.043,0.016,-0.04,0.024,-0.049,-0.022,-0.073,-0.039,-0.015,0.042
-0.044,-0.016,0.028,0.029,-0.035,0.006,-0.03,0.048,-0.066,-0.053,-0.029,0.022
-0.012,0.013,0.025,0.0,-0.019,0.018,-0.028,0.04,-0.054,-0.059,-0.026,0.016
0.009,0.034,0.025,-0.022,-0.008,0.029,-0.029,0.067,-0.039,-0.038,-0.021,0.023
-0.007,0.031,0.038,-0.012,-0.023,0.034,-0.029,0.083,-0.036,-0.04,-0.022,0.016
0.014,0.028,0.014,-0.022,0.0,0.021,-0.031,0.077,-0.019,-0.021,-0.006,0.026
0.032,0.016,-0.016,-0.024,0.024,0.0,-0.029,0.083,-0.016,-0.028,-0.009,0.022
0.03,0.019,-0.011,-0.025,0.02,0.004,-0.032,0.077,-0.003,-0.015,0.006,0.027
0.025,0.019,-0.006,-0.022,0.016,0.006,-0.027,0.084,0.002,-0.016,0.008,0.027
0.021,0.019,-0.002,-0.02,0.011,0.009,-0.025,0.1,0.012,-0.009,0.019,0.031
0.028,0.035,0.006,-0.032,0.011,0.02,-0.025,0.116,0.018,-0.001,0.026,0.029
0.041,0.049,0.007,-0.045,0.017,0.028,-0.022,0.124,0.037,0.009,0.034,0.043
0.046,0.042,-0.004,-0.044,0.025,0.019,-0.019,0.133,0.039,0.035,0.041,0.054
0.037,0.048,0.011,-0.043,0.012,0.03,-0.021,0.138,0.046,0.05,0.049,0.062
0.068,0.075,0.008,-0.072,0.03,0.041,-0.024,0.147,0.083,0.064,0.062,0.081
0.074,0.082,0.008,-0.079,0.033,0.045,-0.028,0.169,0.098,0.094,0.082,0.101
0.066,0.093,0.027,-0.08,0.019,0.06,-0.034,0.193,0.118,0.118,0.107,0.122
0.117,0.141,0.024,-0.13,0.046,0.082,-0.048,0.204,0.156,0.144,0.128,0.14
0.166,0.176,0.01,-0.171,0.077,0.093,-0.061,0.23,0.196,0.199,0.179,0.184
0.183,0.182,-0.001,-0.183,0.092,0.091,-0.075,0.255,0.243,0.256,0.237,0.24
0.189,0.233,0.043,-0.211,0.073,0.138,-0.11,0.247,0.276,0.308,0.289,0.285
0.217,0.3,0.083,-0.259,0.066,0.191,-0.121,0.241,0.307,0.364,0.347,0.339
0.249,0.321,0.072,-0.285,0.088,0.196,-0.135,0.233,0.329,0.406,0.39,0.381
0.271,0.345,0.074,-0.309,0.098,0.209,-0.157,0.208,0.32,0.435,0.423,0.412
0.244,0.36,0.116,-0.303,0.064,0.238,-0.141,0.182,0.31,0.434,0.43,0.424
0.213,0.351,0.138,-0.282,0.037,0.244,-0.138,0.163,0.299,0.422,0.407,0.402
0.173,0.298,0.125,-0.236,0.024,0.211,-0.118,0.147,0.266,0.381,0.359,0.354
0.116,0.216,0.1,-0.167,0.008,0.158,-0.07,0.136,0.221,0.306,0.292,0.281
0.083,0.168,0.085,-0.126,-0.001,0.127,-0.047,0.118,0.168,0.23,0.212,0.207
0.044,0.117,0.073,-0.08,-0.015,0.095,-0.027,0.087,0.108,0.157,0.138,0.144
0.023,0.084,0.061,-0.054,-0.019,0.072,-0.017,0.062,0.056,0.103,0.091,0.107
-0.009,0.057,0.066,-0.024,-0.038,0.061,-0.021,0.043,0.022,0.065,0.062,0.088
-0.021,0.022,0.043,-0.001,-0.033,0.033,-0.02,0.033,0.003,0.043,0.047,0.077
-0.015,0.015,0.03,-0.001,-0.023,0.022,-0.02,0.02,-0.01,0.029,0.032,0.073
-0.027,0.013,0.039,0.006,-0.033,0.026,-0.02,0.012,-0.016,0.017,0.022,0.067
-0.034,0.009,0.044,0.012,-0.039,0.026,-0.019,0.015,-0.032,0.009,0.014,0.061
-0.027,0.007,0.034,0.01,-0.031,0.02,-0.016,0.011,-0.042,0.003,0.007,0.056
-0.026,0.004,0.03,0.011,-0.029,0.017,-0.013,0.009,-0.036,-0.004,0.001,0.051
-0.047,0.009,0.056,0.019,-0.052,0.032,-0.01,0.01,-0.035,-0.011,-0.006,0.046
-0.03,0.017,0.047,0.007,-0.039,0.032,-0.008,0.01,-0.032,-0.017,-0.012,0.041
0.009,0.016,0.008,-0.013,0.001,0.012,-0.004,0.01,-0.029,-0.023,-0.018,0.038
0.026,0.031,0.005,-0.029,0.01,0.018,-0.013,0.011,-0.035,-0.025,-0.02,0.032
-0.005,0.037,0.042,-0.016,-0.024,0.039,-0.022,0.02,-0.04,-0.028,-0.024,0.028
-0.021,0.026,0.047,-0.003,-0.034,0.036,-0.017,0.022,-0.047,-0.028,-0.026,0.025
-0.009,0.021,0.029,-0.006,-0.019,0.025,-0.015,0.015,-0.046,-0.033,-0.03,0.022
-0.05,0.012,0.061,0.019,-0.056,0.036,-0.011,0.012,-0.054,-0.032,-0.03,0.02
-0.067,0.006,0.074,0.03,-0.071,0.04,-0.01,0.006,-0.057,-0.047,-0.031,0.016
-0.048,0.01,0.058,0.019,-0.053,0.034,-0.01,0.004,-0.08,-0.044,-0.043,0.015
-0.042,0.015,0.057,0.013,-0.05,0.036,-0.01,-0.005,-0.088,-0.056,-0.047,0.011
-0.033,0.018,0.05,0.008,-0.042,0.034,-0.01,-0.016,-0.083,-0.056,-0.05,0.005
-0.022,0.027,0.049,-0.003,-0.036,0.038,-0.01,-0.014,-0.101,-0.057,-0.05,0.0
-0.016,0.028,0.044,-0.007,-0.03,0.036,-0.011,-0.017,-0.068,-0.07,-0.05,-0.005
-0.018,0.022,0.041,-0.002,-0.03,0.031,-0.009,-0.012,-0.117,-0.04,-0.045,-0.012
-0.02,0.017,0.037,0.001,-0.029,0.027,-0.012,-0.02,-0.073,-0.1,-0.015,-0.015
-0.02,0.012,0.032,0.004,-0.026,0.022,-0.008,0.005,-0.183,0.064,0.001,-0.021
-0.04,0.005,0.045,0.017,-0.043,0.025,-0.023,0.055,-0.283,0.128,-0.001,-0.019
-0.041,0.019,0.06,0.011,-0.05,0.039,-0.027,0.058,-0.009,-0.028,0.0,-0.02
0.006,0.063,0.057,-0.035,-0.025,0.06,0.0,0.04,0.016,0.008,0.0,-0.021
-0.006,0.036,0.041,-0.015,-0.024,0.038,0.001,0.006,-0.019,0.001,0.0,-0.014
-0.036,-0.006,0.03,0.021,-0.033,0.012,-0.001,-0.004,0.02,-0.006,0.0,-0.096
-0.029,0.004,0.033,0.012,-0.031,0.019,0.001,0.004,-0.019,0.006,0.0,-0.176
