-0.006,0.021,0.027,-0.007,-0.017,0.024,0.029,-0.083,-0.155,-0.055,0.016,-0.079
-0.01,0.02,0.03,-0.005,-0.02,0.025,0.034,-0.073,-0.152,-0.058,0.014,-0.08
-0.037,0.019,0.056,0.008,-0.046,0.037,0.035,-0.091,-0.16,-0.057,0.01,-0.081
-0.03,0.022,0.052,0.004,-0.041,0.036,0.041,-0.067,-0.148,-0.05,0.009,-0.085
-0.056,0.016,0.072,0.019,-0.064,0.044,0.054,-0.03,-0.141,-0.044,0.001,-0.085
-0.055,0.081,0.136,-0.013,-0.095,0.108,0.082,0.148,-0.021,0.034,0.07,-0.048
0.109,0.338,0.229,-0.223,-0.06,0.283,0.04,0.266,0.304,0.344,0.368,0.197
0.475,0.544,0.069,-0.51,0.203,0.306,-0.326,-0.843,0.327,0.642,0.743,0.607
0.472,0.179,-0.293,-0.325,0.383,-0.057,-0.629,-1.786,-0.219,0.226,0.402,0.412
0.088,-0.316,-0.404,0.114,0.246,-0.359,-0.661,-1.726,-0.812,-0.435,-0.239,-0.138
0.014,-0.346,-0.36,0.166,0.188,-0.353,-0.503,-1.234,-0.763,-0.473,-0.294,-0.23
0.027,-0.206,-0.232,0.09,0.13,-0.219,-0.229,-0.598,-0.459,-0.294,-0.173,-0.171
-0.002,-0.06,-0.058,0.031,0.028,-0.059,-0.072,-0.284,-0.277,-0.156,-0.076,-0.138
0.003,0.021,0.018,-0.012,-0.008,0.02,0.014,-0.089,-0.153,-0.061,-0.007,-0.097
-0.025,0.036,0.061,-0.006,-0.043,0.048,0.045,-0.046,-0.143,-0.05,0.012,-0.089
-0.013,0.057,0.069,-0.022,-0.041,0.063,0.05,-0.029,-0.124,-0.028,0.041,-0.07
-0.007,0.058,0.064,-0.026,-0.036,0.061,0.051,-0.005,-0.121,-0.022,0.036,-0.064
0.003,0.069,0.066,-0.037,-0.032,0.068,0.044,-0.008,-0.115,-0.01,0.058,-0.053
0.007,0.069,0.062,-0.038,-0.028,0.065,0.046,0.01,-0.106,-0.003,0.067,-0.047
0.009,0.07,0.061,-0.04,-0.026,0.066,0.044,0.004,-0.103,0.005,0.062,-0.038
0.022,0.081,0.059,-0.051,-0.019,0.069,0.046,0.016,-0.093,0.015,0.082,-0.03
0.023,0.086,0.063,-0.054,-0.021,0.074,0.045,0.016,-0.087,0.02,0.092,-0.025
0.02,0.088,0.068,-0.054,-0.024,0.078,0.043,0.023,-0.077,0.028,0.095,-0.02
0.025,0.09,0.065,-0.058,-0.02,0.077,0.038,0.025,-0.069,0.037,0.11,-0.017
0.032,0.097,0.065,-0.065,-0.017,0.081,0.035,0.023,-0.055,0.048,0.124,-0.01
0.046,0.109,0.063,-0.078,-0.009,0.086,0.032,0.036,-0.042,0.071,0.131,0.006
0.065,0.126,0.061,-0.095,0.002,0.093,0.027,0.057,-0.024,0.093,0.147,0.03
0.088,0.146,0.059,-0.117,0.014,0.102,0.025,0.072,-0.002,0.114,0.172,0.043
0.105,0.168,0.064,-0.137,0.02,0.115,0.015,0.092,0.035,0.149,0.192,0.072
0.121,0.193,0.072,-0.157,0.024,0.132,0.0,0.12,0.067,0.184,0.224,0.102
0.165,0.239,0.074,-0.203,0.045,0.157,-0.016,0.14,0.107,0.233,0.275,0.145
0.229,0.29,0.061,-0.26,0.084,0.175,-0.037,0.154,0.157,0.29,0.327,0.2
0.277,0.331,0.054,-0.304,0.111,0.192,-0.059,0.162,0.194,0.34,0.378,0.242
0.275,0.37,0.095,-0.323,0.089,0.233,-0.065,0.157,0.226,0.375,0.413,0.284
0.275,0.379,0.104,-0.328,0.085,0.241,-0.059,0.155,0.233,0.392,0.433,0.293
0.274,0.366,0.092,-0.32,0.091,0.229,-0.055,0.15,0.218,0.397,0.432,0.299
0.28,0.368,0.088,-0.325,0.096,0.228,-0.052,0.147,0.212,0.381,0.4,0.277
0.265,0.348,0.082,-0.307,0.091,0.215,-0.039,0.143,0.197,0.337,0.349,0.225
0.165,0.259,0.094,-0.212,0.035,0.176,-0.012,0.111,0.133,0.26,0.279,0.171
0.098,0.183,0.085,-0.141,0.006,0.134,0.013,0.077,0.069,0.191,0.21,0.108
0.063,0.137,0.074,-0.1,-0.005,0.105,0.034,0.053,0.03,0.144,0.172,0.071
0.043,0.093,0.05,-0.069,-0.004,0.072,0.043,0.024,-0.007,0.094,0.134,0.036
0.038,0.067,0.029,-0.053,0.004,0.048,0.043,0.004,-0.033,0.07,0.103,0.015
0.028,0.05,0.023,-0.039,0.002,0.036,0.042,-0.008,-0.048,0.059,0.099,0.011
0.031,0.045,0.014,-0.038,0.009,0.029,0.038,-0.021,-0.053,0.047,0.097,0.004
0.03,0.04,0.01,-0.035,0.01,0.025,0.036,-0.032,-0.062,0.045,0.094,0.0
0.026,0.034,0.008,-0.03,0.009,0.021,0.033,-0.045,-0.069,0.042,0.091,-0.007
0.024,0.029,0.005,-0.027,0.009,0.016,0.028,-0.054,-0.068,0.039,0.089,-0.008
0.038,0.025,-0.014,-0.031,0.026,0.005,0.039,-0.055,-0.065,0.036,0.086,-0.005
0.044,0.025,-0.019,-0.034,0.031,0.003,0.046,-0.055,-0.065,0.035,0.084,-0.005
0.035,0.025,-0.01,-0.03,0.022,0.007,0.04,-0.055,-0.063,0.041,0.085,-0.005
0.032,0.025,-0.007,-0.028,0.019,0.009,0.038,-0.055,-0.06,0.048,0.085,-0.005
0.033,0.033,0.001,-0.033,0.016,0.017,0.033,-0.055,-0.06,0.048,0.085,-0.005
0.031,0.035,0.004,-0.034,0.013,0.02,0.03,-0.055,-0.065,0.044,0.083,-0.008
0.035,0.035,-0.001,-0.035,0.018,0.017,0.034,-0.055,-0.074,0.042,0.078,-0.011
0.049,0.043,-0.006,-0.046,0.027,0.018,0.041,-0.055,-0.076,0.039,0.075,-0.008
0.058,0.045,-0.013,-0.051,0.035,0.016,0.048,-0.055,-0.079,0.036,0.072,-0.015
0.058,0.045,-0.013,-0.051,0.035,0.015,0.054,-0.055,-0.082,0.034,0.067,-0.026
0.05,0.045,-0.005,-0.047,0.027,0.02,0.055,-0.058,-0.085,0.03,0.064,-0.022
0.045,0.045,0.0,-0.045,0.022,0.022,0.055,-0.061,-0.084,0.025,0.06,-0.018
0.037,0.045,0.008,-0.041,0.014,0.026,0.055,-0.064,-0.079,0.021,0.055,-0.015
0.027,0.04,0.013,-0.034,0.007,0.026,0.055,-0.067,-0.08,0.016,0.051,-0.01
0.016,0.037,0.021,-0.026,-0.003,0.028,0.055,-0.07,-0.08,0.011,0.046,-0.012
0.031,0.034,0.002,-0.032,0.014,0.018,0.056,-0.074,-0.08,0.008,0.042,-0.021
0.038,0.029,-0.009,-0.034,0.023,0.01,0.062,-0.075,-0.079,0.004,0.037,-0.028
-0.006,0.026,0.032,-0.01,-0.02,0.029,0.07,-0.075,-0.085,0.006,0.035,-0.026
0.003,0.022,0.018,-0.013,-0.008,0.02,0.069,-0.079,-0.098,0.001,0.034,-0.023
0.023,0.018,-0.005,-0.02,0.014,0.006,0.072,-0.081,-0.093,-0.001,0.032,-0.02
0.012,0.009,-0.003,-0.01,0.008,0.002,0.068,-0.078,-0.086,0.0,0.028,-0.018
0.001,0.008,0.007,-0.004,-0.004,0.007,0.073,-0.067,-0.08,-0.012,0.031,-0.015
-0.008,0.022,0.029,-0.007,-0.019,0.025,0.068,-0.054,-0.071,-0.011,0.048,-0.012
0.056,0.078,0.021,-0.067,0.017,0.049,0.082,-0.046,-0.067,0.004,0.059,0.007
0.051,0.123,0.072,-0.088,-0.01,0.097,0.113,-0.044,-0.061,0.019,0.078,0.03
0.028,0.114,0.087,-0.071,-0.03,0.1,0.074,-0.045,-0.063,0.03,0.083,0.028
0.086,0.116,0.03,-0.101,0.028,0.072,0.048,-0.036,-0.052,0.038,0.073,0.034
0.116,0.103,-0.014,-0.109,0.065,0.044,0.048,-0.05,-0.065,0.027,0.069,0.029
0.111,0.068,-0.043,-0.089,0.077,0.012,0.046,-0.077,-0.089,0.002,0.045,0.001
0.068,0.014,-0.054,-0.041,0.061,-0.02,0.036,-0.095,-0.107,-0.021,0.024,-0.018
0.071,0.057,-0.014,-0.064,0.042,0.021,0.055,-0.079,-0.1,-0.026,0.037,-0.014
-0.02,0.022,0.042,-0.001,-0.031,0.032,0.057,-0.09,-0.087,-0.022,0.037,-0.014
-0.005,-0.029,-0.024,0.018,0.01,-0.026,0.052,-0.092,-0.115,-0.044,0.013,-0.047
0.13,0.075,-0.055,-0.102,0.092,0.01,0.074,-0.097,-0.123,-0.042,0.026,-0.037
-0.043,-0.049,-0.005,0.046,-0.019,-0.027,0.041,-0.118,-0.13,-0.055,0.033,-0.054
-0.087,-0.098,-0.012,0.093,-0.037,-0.055,0.059,-0.117,-0.136,-0.075,0.018,-0.084
0.011,-0.031,-0.042,0.01,0.027,-0.036,0.071,-0.122,-0.12,-0.058,0.016,-0.064
-0.016,-0.049,-0.033,0.032,0.009,-0.041,0.081,-0.065,-0.108,-0.064,-0.002,-0.059
-0.02,0.008,0.028,0.006,-0.024,0.018,0.1,-0.014,-0.075,-0.02,0.016,-0.037
0.016,0.129,0.113,-0.073,-0.048,0.12,0.122,0.284,0.168,0.16,0.157,0.062
0.324,0.444,0.12,-0.384,0.101,0.282,-0.079,-0.25,0.411,0.558,0.591,0.475
0.618,0.427,-0.191,-0.522,0.404,0.118,-0.504,-1.531,0.169,0.585,0.714,0.697
0.368,-0.157,-0.526,-0.105,0.447,-0.341,-0.671,-1.884,-0.513,-0.116,0.063,0.181
0.084,-0.464,-0.548,0.19,0.316,-0.505,-0.594,-1.564,-0.85,-0.516,-0.332,-0.198
0.067,-0.369,-0.436,0.151,0.252,-0.402,-0.345,-0.922,-0.583,-0.38,-0.235,-0.162
0.083,-0.165,-0.248,0.041,0.166,-0.206,-0.099,-0.407,-0.326,-0.209,-0.122,-0.113
0.083,-0.02,-0.103,-0.031,0.093,-0.061,0.033,-0.172,-0.173,-0.097,-0.033,-0.057
0.007,-0.054,-0.061,0.024,0.034,-0.057,0.08,-0.059,-0.119,-0.084,-0.019,-0.048
0.003,-0.029,-0.032,0.013,0.018,-0.03,0.075,-0.048,-0.117,-0.048,0.012,-0.027
0.039,0.02,-0.019,-0.03,0.029,0.001,0.104,-0.005,-0.095,-0.024,0.036,-0.013
0.049,0.03,-0.019,-0.039,0.034,0.005,0.098,-0.005,-0.094,-0.022,0.043,-0.018
0.012,0.02,0.008,-0.017,0.002,0.014,0.095,0.01,-0.077,-0.013,0.047,-0.012
-0.022,0.015,0.037,0.003,-0.03,0.025,0.095,0.011,-0.072,-0.012,0.042,-0.012
0.02,0.033,0.013,-0.027,0.003,0.023,0.088,0.019,-0.057,-0.002,0.047,-0.008
0.024,0.029,0.005,-0.027,0.009,0.017,0.093,0.027,-0.043,-0.001,0.043,-0.014
0.001,0.039,0.038,-0.02,-0.019,0.038,0.094,0.033,-0.03,0.011,0.049,-0.015
-0.013,0.039,0.052,-0.013,-0.033,0.046,0.096,0.049,-0.02,0.016,0.055,-0.015
-0.004,0.045,0.049,-0.021,-0.027,0.047,0.094,0.057,-0.012,0.026,0.062,-0.01
-0.001,0.049,0.05,-0.024,-0.026,0.049,0.095,0.068,-0.004,0.032,0.068,-0.007
0.017,0.067,0.05,-0.042,-0.017,0.058,0.095,0.082,0.012,0.042,0.076,-0.001
0.056,0.106,0.05,-0.081,0.003,0.077,0.089,0.106,0.032,0.075,0.107,0.017
0.055,0.109,0.054,-0.082,0.0,0.081,0.077,0.131,0.05,0.086,0.115,0.034
0.074,0.135,0.061,-0.105,0.007,0.098,0.065,0.155,0.085,0.12,0.141,0.064
0.116,0.181,0.065,-0.149,0.025,0.123,0.056,0.193,0.137,0.171,0.198,0.107
0.166,0.222,0.056,-0.194,0.054,0.139,0.037,0.224,0.196,0.224,0.245,0.162
0.213,0.274,0.061,-0.244,0.076,0.167,0.021,0.228,0.235,0.285,0.303,0.218
0.229,0.312,0.083,-0.271,0.073,0.197,0.019,0.222,0.276,0.331,0.346,0.267
0.257,0.339,0.081,-0.298,0.088,0.21,0.015,0.218,0.295,0.363,0.379,0.292
0.262,0.336,0.074,-0.299,0.094,0.205,0.014,0.213,0.278,0.361,0.386,0.302
0.254,0.324,0.07,-0.289,0.092,0.197,0.009,0.209,0.269,0.35,0.377,0.307
0.242,0.304,0.063,-0.273,0.089,0.183,0.015,0.205,0.258,0.331,0.365,0.274
0.193,0.252,0.059,-0.223,0.067,0.155,0.038,0.187,0.22,0.276,0.308,0.222
0.139,0.19,0.051,-0.164,0.044,0.12,0.055,0.153,0.159,0.211,0.243,0.173
0.081,0.124,0.043,-0.103,0.019,0.083,0.073,0.117,0.108,0.147,0.197,0.119
0.04,0.075,0.036,-0.058,0.002,0.055,0.088,0.091,0.064,0.097,0.154,0.071
0.023,0.047,0.023,-0.035,0.0,0.035,0.095,0.073,0.032,0.07,0.123,0.047
0.011,0.029,0.018,-0.02,-0.004,0.023,0.095,0.052,0.014,0.056,0.106,0.044
0.025,0.022,-0.003,-0.024,0.014,0.01,0.095,0.04,0.002,0.045,0.094,0.045
0.038,0.017,-0.021,-0.028,0.029,-0.002,0.095,0.04,-0.007,0.039,0.094,0.045
0.031,0.014,-0.017,-0.022,0.023,-0.001,0.095,0.039,-0.022,0.041,0.096,0.045
0.022,0.008,-0.013,-0.014,0.017,-0.002,0.093,0.034,-0.026,0.037,0.094,0.045
0.015,0.006,-0.009,-0.01,0.011,-0.001,0.088,0.036,-0.024,0.035,0.095,0.043
0.016,0.009,-0.007,-0.012,0.011,0.001,0.084,0.032,-0.026,0.035,0.095,0.038
0.011,0.012,0.001,-0.011,0.005,0.006,0.082,0.03,-0.024,0.032,0.093,0.032
0.026,0.014,-0.012,-0.021,0.019,0.001,0.076,0.03,-0.026,0.029,0.087,0.029
0.04,0.018,-0.022,-0.028,0.031,-0.002,0.077,0.027,-0.022,0.026,0.082,0.022
0.031,0.02,-0.011,-0.025,0.021,0.004,0.089,0.024,-0.02,0.023,0.079,0.022
0.009,0.02,0.011,-0.014,-0.001,0.015,0.087,0.027,-0.02,0.02,0.074,0.032
-0.012,0.02,0.032,-0.004,-0.022,0.026,0.08,0.039,-0.016,0.019,0.069,0.022
-0.006,0.019,0.026,-0.007,-0.016,0.022,0.079,0.037,-0.015,0.014,0.065,0.009
-0.001,0.021,0.021,-0.01,-0.011,0.021,0.071,0.031,-0.016,0.01,0.06,0.005
0.002,0.019,0.017,-0.01,-0.008,0.018,0.07,0.028,-0.02,0.008,0.055,0.005
0.009,0.022,0.013,-0.016,-0.002,0.017,0.083,0.022,-0.02,0.003,0.051,0.005
0.032,0.034,0.003,-0.033,0.014,0.018,0.085,0.018,-0.021,0.0,0.046,0.005
0.036,0.031,-0.006,-0.033,0.021,0.012,0.08,0.015,-0.026,-0.004,0.043,0.005
0.005,0.024,0.019,-0.015,-0.007,0.022,0.079,0.015,-0.024,-0.009,0.037,0.002
-0.016,0.02,0.036,-0.002,-0.026,0.028,0.075,0.015,-0.027,-0.014,0.032,-0.002
-0.023,0.013,0.036,0.004,-0.03,0.024,0.073,0.015,-0.031,-0.017,0.029,-0.004
-0.026,0.009,0.035,0.008,-0.031,0.022,0.07,0.015,-0.03,-0.023,0.024,-0.009
-0.03,0.004,0.034,0.012,-0.032,0.019,0.067,0.018,-0.03,-0.024,0.019,-0.009
-0.031,0.005,0.037,0.013,-0.035,0.021,0.065,0.021,-0.03,-0.02,0.016,-0.005
-0.027,0.005,0.032,0.011,-0.03,0.019,0.061,0.02,-0.031,-0.02,0.011,-0.005
-0.038,0.005,0.043,0.017,-0.041,0.024,0.06,0.02,-0.034,-0.02,0.008,-0.005
-0.047,0.006,0.052,0.02,-0.05,0.029,0.064,0.02,-0.037,-0.02,0.005,-0.005
-0.045,0.001,0.046,0.022,-0.046,0.023,0.065,0.02,-0.04,-0.02,0.0,-0.004
-0.056,0.001,0.057,0.028,-0.057,0.028,0.065,0.021,-0.042,-0.016,0.002,-0.012
-0.034,-0.001,0.032,0.017,-0.033,0.016,0.065,0.019,-0.046,-0.015,0.005,-0.023
-0.027,-0.004,0.024,0.015,-0.025,0.01,0.065,0.021,-0.042,-0.015,0.005,-0.018
-0.061,-0.006,0.055,0.034,-0.057,0.024,0.063,0.019,-0.034,-0.015,0.008,-0.017
-0.063,-0.004,0.059,0.033,-0.06,0.027,0.06,0.022,-0.027,-0.015,0.01,-0.013
-0.04,0.012,0.052,0.014,-0.046,0.032,0.054,0.019,-0.017,-0.014,0.01,-0.01
-0.01,0.037,0.047,-0.013,-0.029,0.042,0.072,0.023,-0.011,0.001,0.026,-0.008
-0.003,0.093,0.096,-0.046,-0.049,0.094,0.106,0.074,0.008,0.026,0.053,0.022
-0.002,0.118,0.12,-0.058,-0.061,0.119,0.088,0.097,0.022,0.026,0.059,0.037
0.042,0.115,0.074,-0.079,-0.016,0.094,0.065,0.078,0.013,0.015,0.05,0.026
0.06,0.095,0.035,-0.078,0.012,0.065,0.063,0.045,0.002,0.008,0.045,0.022
0.037,0.041,0.003,-0.039,0.017,0.022,0.059,0.029,-0.011,-0.002,0.037,0.012
0.049,0.021,-0.027,-0.035,0.038,-0.003,0.056,0.021,-0.029,-0.01,0.031,0.006
0.048,0.012,-0.036,-0.03,0.042,-0.012,0.05,0.017,-0.042,-0.018,0.026,-0.001
0.002,-0.007,-0.009,0.003,0.005,-0.008,0.052,0.01,-0.049,-0.026,0.021,-0.006
-0.048,-0.028,0.019,0.038,-0.033,-0.004,0.063,0.0,-0.056,-0.034,0.019,-0.006
-0.07,-0.044,0.026,0.057,-0.048,-0.009,0.068,0.005,-0.067,-0.039,0.011,-0.012
-0.052,-0.036,0.016,0.044,-0.034,-0.01,0.061,-0.016,-0.074,-0.034,0.012,-0.011
-0.051,-0.038,0.012,0.044,-0.031,-0.013,0.065,0.007,-0.079,-0.035,0.016,-0.018
-0.033,-0.031,0.002,0.032,-0.017,-0.015,0.053,-0.032,-0.093,-0.035,0.024,-0.019
-0.038,-0.031,0.007,0.035,-0.023,-0.012,0.068,0.008,-0.072,-0.034,0.029,-0.04
-0.068,-0.03,0.038,0.049,-0.053,0.004,0.088,0.033,-0.056,-0.027,0.031,-0.044
-0.067,0.043,0.11,0.012,-0.089,0.076,0.121,0.252,0.099,0.074,0.086,0.021
0.117,0.309,0.191,-0.213,-0.037,0.25,0.033,0.202,0.397,0.413,0.42,0.317
0.506,0.507,0.001,-0.507,0.253,0.254,-0.356,-0.987,0.39,0.674,0.786,0.714
0.426,0.067,-0.359,-0.246,0.393,-0.146,-0.615,-1.775,-0.187,0.178,0.338,0.41
0.07,-0.408,-0.478,0.169,0.275,-0.443,-0.594,-1.605,-0.724,-0.444,-0.281,-0.135
0.021,-0.387,-0.408,0.184,0.214,-0.397,-0.415,-1.062,-0.605,-0.428,-0.278,-0.176
0.01,-0.245,-0.255,0.117,0.133,-0.249,-0.159,-0.472,-0.329,-0.256,-0.161,-0.129
-0.025,-0.105,-0.08,0.065,0.028,-0.092,-0.012,-0.171,-0.172,-0.13,-0.079,-0.084
-0.048,-0.051,-0.004,0.049,-0.022,-0.027,0.062,-0.009,-0.086,-0.062,-0.032,-0.044
-0.069,-0.028,0.041,0.048,-0.055,0.006,0.094,0.022,-0.072,-0.046,-0.019,-0.04
-0.055,-0.012,0.044,0.033,-0.049,0.016,0.095,0.055,-0.047,-0.03,0.002,-0.024
-0.055,-0.008,0.046,0.032,-0.05,0.019,0.095,0.066,-0.047,-0.034,0.007,-0.023
-0.056,0.015,0.071,0.02,-0.064,0.043,0.095,0.065,-0.036,-0.022,0.021,-0.01
-0.037,0.023,0.06,0.007,-0.049,0.041,0.096,0.077,-0.031,-0.02,0.024,-0.008
-0.028,0.026,0.054,0.0,-0.041,0.04,0.094,0.074,-0.025,-0.013,0.033,-0.003
-0.023,0.025,0.048,-0.001,-0.036,0.036,0.089,0.084,-0.017,-0.008,0.035,-0.001
-0.006,0.03,0.036,-0.012,-0.021,0.033,0.086,0.088,-0.012,-0.003,0.04,0.001
-0.014,0.03,0.044,-0.009,-0.029,0.037,0.083,0.097,-0.005,0.005,0.043,0.006
-0.03,0.031,0.061,0.0,-0.045,0.045,0.078,0.099,0.0,0.008,0.046,0.005
-0.02,0.038,0.058,-0.009,-0.039,0.047,0.075,0.105,0.005,0.018,0.05,0.017
-0.012,0.043,0.054,-0.016,-0.033,0.048,0.07,0.117,0.013,0.032,0.05,0.023
0.008,0.056,0.049,-0.032,-0.021,0.052,0.062,0.137,0.031,0.046,0.077,0.044
0.019,0.084,0.065,-0.052,-0.023,0.074,0.054,0.155,0.053,0.069,0.101,0.07
0.023,0.106,0.083,-0.065,-0.03,0.095,0.046,0.175,0.074,0.096,0.124,0.091
0.06,0.14,0.079,-0.1,-0.01,0.109,0.038,0.204,0.111,0.138,0.165,0.131
0.103,0.182,0.079,-0.143,0.012,0.13,0.019,0.232,0.164,0.192,0.21,0.17
0.13,0.221,0.091,-0.176,0.019,0.156,-0.003,0.238,0.206,0.245,0.26,0.214
0.17,0.272,0.101,-0.221,0.034,0.186,-0.015,0.234,0.242,0.295,0.304,0.255
0.195,0.29,0.095,-0.243,0.05,0.192,-0.035,0.235,0.261,0.323,0.339,0.292
0.183,0.276,0.093,-0.23,0.045,0.184,-0.043,0.23,0.254,0.342,0.358,0.301
0.18,0.268,0.088,-0.224,0.046,0.178,-0.032,0.23,0.248,0.343,0.353,0.292
0.172,0.258,0.085,-0.216,0.043,0.171,-0.022,0.229,0.241,0.311,0.327,0.28
0.144,0.225,0.081,-0.185,0.032,0.152,-0.012,0.214,0.212,0.268,0.281,0.228
0.101,0.171,0.07,-0.136,0.015,0.12,0.008,0.185,0.158,0.213,0.223,0.177
0.054,0.114,0.06,-0.084,-0.003,0.087,0.034,0.147,0.099,0.148,0.162,0.129
0.02,0.065,0.045,-0.042,-0.013,0.055,0.042,0.118,0.05,0.1,0.108,0.076
-0.001,0.031,0.031,-0.016,-0.016,0.031,0.043,0.088,0.014,0.061,0.076,0.047
-0.019,0.001,0.02,0.009,-0.02,0.01,0.046,0.062,-0.012,0.039,0.063,0.032
-0.037,-0.022,0.015,0.029,-0.026,-0.003,0.045,0.055,-0.027,0.03,0.057,0.017
-0.04,-0.031,0.01,0.035,-0.025,-0.011,0.043,0.053,-0.029,0.017,0.053,0.015
-0.04,-0.034,0.005,0.037,-0.022,-0.014,0.04,0.049,-0.036,0.008,0.048,0.015
-0.032,-0.035,-0.003,0.034,-0.014,-0.019,0.039,0.047,-0.04,0.005,0.044,0.011
-0.035,-0.035,0.0,0.035,-0.017,-0.018,0.045,0.045,-0.033,0.005,0.039,0.01
-0.049,-0.033,0.016,0.041,-0.032,-0.008,0.053,0.042,-0.03,0.005,0.036,0.011
-0.038,-0.029,0.008,0.033,-0.023,-0.01,0.05,0.039,-0.025,0.005,0.033,0.014
-0.034,-0.027,0.007,0.03,-0.02,-0.01,0.05,0.04,-0.02,0.005,0.031,0.015
-0.052,-0.024,0.028,0.038,-0.04,0.002,0.05,0.04,-0.023,0.005,0.027,0.015
-0.052,-0.021,0.031,0.036,-0.042,0.005,0.05,0.04,-0.026,0.005,0.025,0.015
-0.043,-0.02,0.024,0.031,-0.034,0.002,0.05,0.039,-0.029,0.005,0.022,0.015
-0.045,-0.02,0.025,0.033,-0.035,0.002,0.05,0.034,-0.032,0.005,0.019,0.013
-0.035,-0.02,0.015,0.027,-0.025,-0.002,0.05,0.029,-0.035,0.005,0.02,0.007
-0.039,-0.02,0.019,0.029,-0.029,0.0,0.05,0.025,-0.037,0.003,0.016,0.003
-0.038,-0.02,0.018,0.029,-0.028,-0.001,0.05,0.02,-0.04,-0.004,0.015,-0.002
-0.045,-0.02,0.025,0.032,-0.035,0.003,0.05,0.016,-0.04,-0.009,0.015,-0.005
-0.075,-0.022,0.052,0.048,-0.063,0.015,0.049,0.011,-0.04,-0.014,0.011,-0.012
-0.071,-0.026,0.046,0.048,-0.058,0.01,0.044,0.01,-0.044,-0.02,0.008,-0.02
-0.062,-0.025,0.037,0.043,-0.049,0.006,0.041,0.009,-0.051,-0.025,0.005,-0.019
-0.053,-0.025,0.027,0.039,-0.039,0.001,0.038,0.006,-0.057,-0.031,0.002,-0.013
-0.066,-0.03,0.036,0.047,-0.051,0.003,0.033,0.004,-0.06,-0.038,0.0,-0.01
-0.053,-0.03,0.023,0.041,-0.038,-0.003,0.03,0.007,-0.063,-0.043,-0.002,-0.031
-0.046,-0.031,0.015,0.038,-0.03,-0.008,0.034,0.01,-0.065,-0.045,-0.005,-0.043
-0.064,-0.035,0.029,0.049,-0.046,-0.003,0.038,0.01,-0.069,-0.048,-0.009,-0.037
-0.055,-0.035,0.02,0.044,-0.037,-0.007,0.043,0.01,-0.07,-0.051,-0.01,-0.036
-0.081,-0.035,0.046,0.058,-0.063,0.005,0.044,0.01,-0.067,-0.054,-0.011,-0.033
-0.063,-0.035,0.028,0.049,-0.045,-0.003,0.04,0.01,-0.064,-0.056,-0.008,-0.028
-0.034,-0.035,-0.001,0.034,-0.016,-0.018,0.04,0.01,-0.061,-0.06,-0.017,-0.039
-0.034,-0.035,-0.001,0.035,-0.016,-0.018,0.04,0.01,-0.058,-0.06,-0.03,-0.052
-0.047,-0.035,0.012,0.041,-0.029,-0.011,0.04,0.01,-0.056,-0.061,-0.032,-0.049
-0.078,-0.035,0.043,0.056,-0.06,0.004,0.04,0.01,-0.053,-0.066,-0.034,-0.053
-0.075,-0.03,0.045,0.052,-0.06,0.007,0.043,0.01,-0.05,-0.064,-0.038,-0.055
-0.075,-0.03,0.045,0.052,-0.06,0.007,0.045,0.008,-0.05,-0.068,-0.04,-0.055
-0.078,-0.029,0.049,0.053,-0.063,0.01,0.045,0.005,-0.05,-0.07,-0.042,-0.059
-0.075,-0.025,0.05,0.05,-0.062,0.012,0.045,0.002,-0.05,-0.07,-0.045,-0.06
-0.075,-0.026,0.049,0.05,-0.061,0.011,0.045,0.0,-0.05,-0.07,-0.046,-0.06
-0.089,-0.022,0.067,0.055,-0.078,0.022,0.044,-0.003,-0.046,-0.07,-0.049,-0.061
-0.097,-0.02,0.077,0.058,-0.087,0.028,0.039,-0.006,-0.045,-0.07,-0.05,-0.077
-0.078,-0.02,0.059,0.049,-0.069,0.019,0.033,-0.001,-0.045,-0.065,-0.05,-0.083
-0.073,-0.02,0.053,0.046,-0.063,0.016,0.03,0.0,-0.045,-0.065,-0.05,-0.079
-0.055,-0.02,0.035,0.037,-0.045,0.007,0.025,0.0,-0.045,-0.065,-0.05,-0.08
-0.056,-0.02,0.035,0.038,-0.046,0.007,0.02,0.0,-0.045,-0.065,-0.05,-0.075
-0.081,-0.02,0.062,0.05,-0.071,0.021,0.032,0.0,-0.045,-0.065,-0.05,-0.075
-0.079,-0.02,0.059,0.05,-0.069,0.019,0.036,0.001,-0.045,-0.063,-0.05,-0.074
-0.081,-0.02,0.061,0.05,-0.071,0.02,0.034,0.007,-0.045,-0.058,-0.045,-0.067
-0.079,-0.019,0.06,0.049,-0.069,0.02,0.032,0.013,-0.045,-0.055,-0.037,-0.063
-0.091,-0.031,0.06,0.061,-0.075,0.015,0.029,0.017,-0.045,-0.052,-0.031,-0.057
-0.078,-0.02,0.058,0.048,-0.067,0.019,0.032,0.026,-0.041,-0.046,-0.024,-0.051
-0.027,0.008,0.035,0.01,-0.031,0.021,0.033,0.027,-0.033,-0.046,-0.018,-0.046
-0.021,0.054,0.074,-0.017,-0.048,0.064,0.054,0.046,0.009,-0.02,-0.011,-0.041
-0.038,0.089,0.127,-0.026,-0.083,0.108,0.047,0.061,0.032,0.007,-0.01,-0.04
-0.029,0.076,0.105,-0.024,-0.067,0.09,0.013,0.052,0.021,-0.005,-0.01,-0.038
0.008,0.064,0.056,-0.036,-0.025,0.06,0.009,0.043,0.013,-0.016,-0.01,-0.034
-0.001,0.03,0.031,-0.015,-0.017,0.03,0.007,0.03,-0.007,-0.028,-0.026,-0.036
-0.012,-0.001,0.01,0.006,-0.011,0.004,0.001,0.008,-0.031,-0.05,-0.044,-0.054
0.004,-0.007,-0.011,0.001,0.008,-0.008,0.001,0.009,-0.035,-0.062,-0.065,-0.082
-0.015,-0.015,0.0,0.015,-0.007,-0.007,0.008,0.0,-0.035,-0.063,-0.072,-0.092
-0.064,-0.021,0.042,0.042,-0.053,0.01,0.027,-0.003,-0.042,-0.072,-0.069,-0.095
-0.097,-0.03,0.067,0.063,-0.082,0.018,0.037,-0.004,-0.053,-0.084,-0.086,-0.103
-0.1,-0.035,0.065,0.067,-0.082,0.015,0.035,-0.02,-0.057,-0.088,-0.087,-0.1
-0.105,-0.042,0.064,0.073,-0.084,0.01,0.044,-0.001,-0.051,-0.095,-0.085,-0.11
-0.105,-0.038,0.067,0.071,-0.086,0.014,0.039,-0.035,-0.062,-0.091,-0.079,-0.107
-0.104,-0.042,0.062,0.072,-0.083,0.009,0.05,0.026,-0.042,-0.079,-0.074,-0.116
-0.101,-0.024,0.077,0.063,-0.089,0.026,0.055,0.044,-0.02,-0.059,-0.076,-0.121
-0.093,0.062,0.156,0.015,-0.125,0.109,0.078,0.282,0.138,0.056,0.002,-0.051
0.146,0.33,0.184,-0.239,-0.019,0.256,-0.039,0.118,0.422,0.397,0.353,0.269
0.506,0.478,-0.028,-0.492,0.267,0.224,-0.434,-1.122,0.347,0.6,0.653,0.632
0.352,0.006,-0.346,-0.179,0.349,-0.17,-0.679,-1.789,-0.257,0.064,0.166,0.276
0.005,-0.413,-0.418,0.205,0.211,-0.415,-0.643,-1.552,-0.717,-0.488,-0.383,-0.232
-0.027,-0.364,-0.337,0.196,0.155,-0.35,-0.431,-0.982,-0.561,-0.436,-0.345,-0.245
-0.037,-0.224,-0.188,0.131,0.076,-0.206,-0.186,-0.424,-0.299,-0.28,-0.242,-0.201
-0.071,-0.091,-0.02,0.081,-0.026,-0.055,-0.048,-0.151,-0.144,-0.15,-0.143,-0.147
-0.077,-0.046,0.031,0.061,-0.054,-0.007,0.026,-0.002,-0.053,-0.081,-0.087,-0.111
-0.103,-0.028,0.074,0.065,-0.088,0.023,0.035,0.023,-0.04,-0.067,-0.074,-0.106
-0.1,-0.017,0.083,0.059,-0.092,0.033,0.046,0.066,-0.023,-0.052,-0.052,-0.094
-0.096,-0.018,0.077,0.057,-0.086,0.029,0.052,0.077,-0.023,-0.055,-0.049,-0.094
-0.088,-0.007,0.082,0.047,-0.085,0.037,0.048,0.083,-0.015,-0.045,-0.042,-0.084
-0.085,-0.006,0.08,0.045,-0.082,0.037,0.051,0.092,-0.013,-0.043,-0.047,-0.083
-0.075,0.002,0.077,0.036,-0.076,0.04,0.049,0.092,-0.008,-0.041,-0.039,-0.079
-0.07,0.009,0.079,0.03,-0.075,0.044,0.05,0.097,-0.003,-0.045,-0.04,-0.081
-0.084,0.016,0.1,0.034,-0.092,0.058,0.045,0.094,0.004,-0.037,-0.039,-0.08
-0.072,0.029,0.101,0.021,-0.087,0.065,0.04,0.114,0.016,-0.028,-0.032,-0.08
-0.064,0.033,0.098,0.015,-0.081,0.065,0.036,0.12,0.024,-0.022,-0.026,-0.079
-0.058,0.047,0.104,0.006,-0.081,0.075,0.031,0.127,0.036,-0.013,-0.019,-0.072
-0.049,0.071,0.119,-0.011,-0.084,0.095,0.027,0.13,0.046,-0.007,-0.012,-0.067
-0.041,0.079,0.12,-0.019,-0.081,0.099,0.022,0.143,0.073,0.009,-0.005,-0.057
-0.023,0.097,0.12,-0.037,-0.072,0.109,0.014,0.177,0.103,0.026,0.012,-0.04
0.008,0.127,0.119,-0.067,-0.055,0.123,0.007,0.195,0.134,0.058,0.039,-0.015
0.035,0.165,0.13,-0.1,-0.047,0.147,-0.007,0.215,0.169,0.099,0.073,0.017
0.065,0.207,0.142,-0.136,-0.039,0.174,-0.024,0.239,0.213,0.149,0.115,0.063
0.107,0.246,0.139,-0.176,-0.016,0.192,-0.04,0.252,0.256,0.211,0.166,0.104
0.146,0.288,0.142,-0.217,0.002,0.215,-0.066,0.26,0.284,0.246,0.211,0.132
0.184,0.321,0.137,-0.252,0.023,0.229,-0.081,0.264,0.313,0.279,0.241,0.169
0.175,0.32,0.145,-0.248,0.015,0.232,-0.079,0.261,0.313,0.292,0.263,0.191
0.183,0.305,0.122,-0.244,0.03,0.213,-0.081,0.254,0.303,0.275,0.257,0.192
0.154,0.286,0.132,-0.221,0.011,0.209,-0.076,0.253,0.286,0.276,0.238,0.166
0.076,0.245,0.169,-0.16,-0.046,0.206,-0.058,0.242,0.244,0.241,0.195,0.125
0.066,0.189,0.123,-0.128,-0.028,0.156,-0.029,0.206,0.198,0.169,0.133,0.082
0.046,0.127,0.08,-0.087,-0.017,0.103,-0.004,0.164,0.148,0.118,0.086,0.035
-0.019,0.074,0.093,-0.028,-0.056,0.083,0.002,0.127,0.101,0.071,0.045,-0.001
-0.047,0.039,0.086,0.004,-0.066,0.062,0.005,0.094,0.055,0.024,0.004,-0.037
-0.027,0.018,0.045,0.004,-0.037,0.031,0.008,0.073,0.019,-0.011,-0.03,-0.063
-0.027,0.005,0.032,0.011,-0.03,0.018,0.013,0.057,0.008,-0.032,-0.043,-0.071
-0.042,-0.011,0.031,0.027,-0.036,0.01,0.015,0.042,0.0,-0.042,-0.05,-0.076
-0.046,-0.017,0.029,0.032,-0.037,0.005,0.011,0.039,-0.009,-0.049,-0.058,-0.079
-0.043,-0.015,0.028,0.028,-0.035,0.007,0.008,0.04,-0.005,-0.05,-0.06,-0.084
-0.038,-0.015,0.023,0.026,-0.03,0.004,0.005,0.04,-0.005,-0.05,-0.064,-0.09
-0.039,-0.011,0.027,0.025,-0.033,0.008,0.002,0.04,-0.004,-0.05,-0.065,-0.09
-0.037,-0.01,0.027,0.023,-0.032,0.009,0.0,0.039,0.0,-0.05,-0.064,-0.09
-0.048,-0.01,0.038,0.029,-0.043,0.014,-0.002,0.036,0.0,-0.05,-0.066,-0.09
-0.065,-0.004,0.06,0.034,-0.062,0.028,-0.005,0.033,-0.002,-0.047,-0.064,-0.09
-0.042,0.002,0.044,0.019,-0.043,0.023,-0.008,0.03,-0.006,-0.045,-0.069,-0.09
-0.038,0.009,0.047,0.014,-0.043,0.028,-0.011,0.027,-0.004,-0.044,-0.082,-0.09
-0.058,0.016,0.074,0.021,-0.066,0.045,-0.015,0.025,-0.009,-0.061,-0.086,-0.09
-0.037,0.023,0.06,0.007,-0.049,0.041,-0.015,0.023,-0.01,-0.063,-0.085,-0.09
-0.018,0.023,0.041,-0.003,-0.03,0.032,-0.01,0.019,-0.011,-0.061,-0.084,-0.09
-0.035,0.017,0.052,0.009,-0.044,0.034,-0.007,0.017,-0.024,-0.08,-0.092,-0.09
-0.054,0.013,0.067,0.02,-0.061,0.039,-0.003,0.014,-0.026,-0.081,-0.099,-0.091
-0.047,0.008,0.056,0.019,-0.052,0.031,0.0,0.011,-0.024,-0.087,-0.101,-0.095
-0.045,0.004,0.049,0.02,-0.047,0.026,0.005,0.009,-0.022,-0.094,-0.11,-0.098
-0.052,-0.001,0.051,0.027,-0.051,0.025,0.003,0.006,-0.019,-0.097,-0.119,-0.101
-0.06,-0.012,0.048,0.036,-0.053,0.018,-0.001,0.003,-0.021,-0.102,-0.12,-0.104
-0.061,-0.017,0.044,0.038,-0.052,0.014,0.0,0.001,-0.024,-0.104,-0.121,-0.106
-0.058,-0.012,0.046,0.035,-0.052,0.017,-0.004,-0.003,-0.028,-0.111,-0.124,-0.11
-0.061,-0.021,0.04,0.041,-0.05,0.009,-0.005,-0.005,-0.037,-0.109,-0.125,-0.109
-0.066,-0.031,0.035,0.048,-0.051,0.002,-0.005,-0.005,-0.045,-0.113,-0.124,-0.105
-0.052,-0.023,0.029,0.037,-0.04,0.003,-0.005,-0.005,-0.049,-0.128,-0.125,-0.105
-0.043,-0.02,0.023,0.031,-0.033,0.001,-0.005,-0.005,-0.053,-0.132,-0.125,-0.105
-0.082,-0.015,0.068,0.048,-0.075,0.026,-0.005,-0.005,-0.056,-0.135,-0.124,-0.105
-0.075,-0.01,0.066,0.042,-0.07,0.027,-0.005,-0.005,-0.059,-0.138,-0.139,-0.105
-0.052,-0.025,0.026,0.038,-0.039,0.0,-0.005,-0.006,-0.06,-0.141,-0.147,-0.101
-0.068,-0.032,0.036,0.05,-0.052,0.002,-0.008,-0.009,-0.059,-0.145,-0.144,-0.099
-0.073,-0.029,0.044,0.05,-0.059,0.007,-0.01,-0.012,-0.072,-0.145,-0.146,-0.1
-0.076,-0.031,0.046,0.053,-0.061,0.007,-0.01,-0.014,-0.078,-0.145,-0.145,-0.1
-0.074,-0.029,0.044,0.051,-0.059,0.007,-0.01,-0.018,-0.075,-0.145,-0.145,-0.1
-0.077,-0.031,0.046,0.053,-0.061,0.007,-0.01,-0.02,-0.075,-0.145,-0.145,-0.101
-0.078,-0.034,0.044,0.056,-0.06,0.005,-0.009,-0.023,-0.075,-0.141,-0.145,-0.105
-0.085,-0.035,0.05,0.06,-0.067,0.007,-0.006,-0.025,-0.074,-0.139,-0.145,-0.11
-0.109,-0.035,0.074,0.072,-0.091,0.019,-0.005,-0.025,-0.077,-0.14,-0.145,-0.106
-0.107,-0.035,0.072,0.071,-0.089,0.018,-0.005,-0.028,-0.09,-0.14,-0.145,-0.105
-0.1,-0.035,0.065,0.067,-0.082,0.014,-0.005,-0.031,-0.09,-0.14,-0.145,-0.104
-0.097,-0.032,0.065,0.065,-0.081,0.016,-0.005,-0.029,-0.09,-0.141,-0.145,-0.101
-0.084,-0.03,0.054,0.056,-0.069,0.012,-0.008,-0.025,-0.09,-0.147,-0.145,-0.099
-0.094,-0.03,0.064,0.061,-0.079,0.016,-0.01,-0.025,-0.091,-0.154,-0.145,-0.1
-0.097,-0.03,0.067,0.063,-0.082,0.018,-0.014,-0.024,-0.107,-0.155,-0.145,-0.113
-0.068,-0.03,0.037,0.048,-0.053,0.003,-0.015,-0.02,-0.111,-0.155,-0.144,-0.115
-0.064,-0.03,0.035,0.047,-0.05,0.002,-0.011,-0.02,-0.11,-0.155,-0.14,-0.11
-0.066,-0.03,0.036,0.047,-0.051,0.002,-0.008,-0.018,-0.107,-0.155,-0.139,-0.109
-0.063,-0.03,0.033,0.046,-0.048,0.001,-0.006,-0.015,-0.104,-0.155,-0.14,-0.105
-0.068,-0.03,0.037,0.048,-0.053,0.003,-0.002,-0.015,-0.105,-0.155,-0.139,-0.104
-0.061,-0.03,0.031,0.045,-0.046,0.0,0.0,-0.011,-0.099,-0.155,-0.141,-0.098
-0.087,-0.03,0.056,0.058,-0.072,0.013,0.003,-0.009,-0.094,-0.155,-0.136,-0.092
-0.078,-0.022,0.056,0.05,-0.067,0.017,0.011,-0.011,-0.087,-0.148,-0.122,-0.087
-0.043,0.029,0.072,0.007,-0.058,0.05,0.017,0.011,-0.087,-0.135,-0.108,-0.079
-0.047,0.06,0.107,-0.007,-0.077,0.083,0.025,0.03,-0.091,-0.117,-0.1,-0.066
-0.025,0.049,0.073,-0.012,-0.049,0.061,-0.009,0.021,-0.093,-0.113,-0.1,-0.057
-0.007,0.048,0.055,-0.02,-0.032,0.051,-0.053,0.007,-0.096,-0.115,-0.093,-0.06
-0.018,0.014,0.032,0.002,-0.025,0.023,-0.045,0.0,-0.099,-0.118,-0.103,-0.06
-0.013,-0.014,-0.002,0.014,-0.005,-0.008,-0.04,-0.014,-0.101,-0.134,-0.123,-0.06
-0.016,-0.018,-0.002,0.017,-0.007,-0.009,-0.032,-0.014,-0.103,-0.141,-0.128,-0.06
-0.044,-0.031,0.013,0.037,-0.028,-0.008,-0.025,-0.027,-0.11,-0.146,-0.129,-0.06
-0.062,-0.048,0.013,0.055,-0.037,-0.017,-0.021,-0.03,-0.111,-0.15,-0.136,-0.069
-0.09,-0.069,0.021,0.079,-0.055,-0.024,-0.014,-0.036,-0.12,-0.149,-0.155,-0.081
-0.109,-0.073,0.036,0.09,-0.072,-0.018,-0.017,-0.044,-0.115,-0.156,-0.162,-0.092
-0.11,-0.076,0.034,0.092,-0.071,-0.021,-0.004,-0.017,-0.109,-0.168,-0.169,-0.105
-0.113,-0.074,0.04,0.093,-0.076,-0.017,-0.013,-0.04,-0.109,-0.162,-0.163,-0.096
-0.115,-0.077,0.038,0.096,-0.076,-0.019,0.012,0.009,-0.096,-0.168,-0.176,-0.103
-0.113,-0.058,0.055,0.085,-0.083,-0.001,0.035,0.025,-0.096,-0.141,-0.158,-0.098
-0.102,0.03,0.132,0.035,-0.117,0.081,0.05,0.292,0.1,0.001,-0.039,-0.018
0.155,0.323,0.168,-0.24,-0.006,0.245,-0.087,0.051,0.385,0.364,0.341,0.331
0.493,0.424,-0.068,-0.458,0.28,0.178,-0.472,-1.199,0.245,0.508,0.593,0.653
0.28,-0.079,-0.358,-0.1,0.319,-0.218,-0.685,-1.792,-0.394,-0.095,0.031,0.237
-0.014,-0.442,-0.427,0.228,0.207,-0.434,-0.643,-1.526,-0.782,-0.572,-0.445,-0.216
-0.04,-0.39,-0.35,0.215,0.155,-0.37,-0.429,-0.933,-0.591,-0.485,-0.394,-0.2
-0.075,-0.248,-0.172,0.162,0.049,-0.21,-0.183,-0.403,-0.344,-0.336,-0.307,-0.165
-0.083,-0.129,-0.046,0.106,-0.018,-0.087,-0.064,-0.146,-0.179,-0.215,-0.184,-0.107
-0.107,-0.1,0.007,0.104,-0.057,-0.047,-0.005,0.005,-0.11,-0.167,-0.156,-0.08
-0.101,-0.067,0.034,0.084,-0.067,-0.016,0.022,0.019,-0.098,-0.143,-0.15,-0.077
-0.101,-0.053,0.048,0.077,-0.074,-0.003,0.038,0.056,-0.078,-0.131,-0.134,-0.065
-0.118,-0.05,0.068,0.084,-0.093,0.008,0.035,0.055,-0.076,-0.125,-0.131,-0.064
-0.106,-0.042,0.064,0.074,-0.085,0.011,0.035,0.06,-0.062,-0.11,-0.115,-0.052
-0.104,-0.039,0.065,0.071,-0.084,0.013,0.036,0.082,-0.06,-0.104,-0.112,-0.05
-0.097,-0.031,0.066,0.064,-0.081,0.017,0.034,0.083,-0.053,-0.091,-0.099,-0.043
-0.091,-0.028,0.063,0.059,-0.077,0.018,0.036,0.09,-0.048,-0.083,-0.095,-0.04
-0.089,-0.019,0.07,0.054,-0.079,0.026,0.031,0.092,-0.043,-0.075,-0.089,-0.035
-0.079,-0.011,0.068,0.045,-0.074,0.029,0.029,0.099,-0.037,-0.067,-0.082,-0.031
-0.075,-0.003,0.072,0.039,-0.074,0.034,0.026,0.108,-0.023,-0.06,-0.078,-0.024
-0.068,0.005,0.073,0.031,-0.071,0.039,0.023,0.117,-0.004,-0.051,-0.071,-0.011
-0.065,0.012,0.076,0.026,-0.071,0.044,0.02,0.129,0.021,-0.034,-0.057,0.001
-0.051,0.022,0.073,0.014,-0.062,0.047,0.019,0.145,0.042,-0.014,-0.043,0.022
-0.008,0.041,0.049,-0.017,-0.028,0.045,0.011,0.159,0.052,0.011,-0.021,0.043
-0.011,0.067,0.078,-0.028,-0.045,0.072,0.003,0.185,0.083,0.035,0.011,0.062
0.006,0.107,0.101,-0.057,-0.048,0.104,-0.006,0.208,0.125,0.079,0.05,0.098
0.048,0.14,0.092,-0.095,-0.022,0.116,-0.031,0.226,0.163,0.131,0.093,0.144
0.092,0.186,0.094,-0.139,-0.001,0.139,-0.053,0.239,0.208,0.18,0.137,0.186
0.14,0.229,0.088,-0.185,0.026,0.158,-0.076,0.243,0.248,0.231,0.187,0.232
0.157,0.248,0.091,-0.203,0.033,0.169,-0.088,0.242,0.272,0.258,0.214,0.267
0.17,0.255,0.085,-0.213,0.043,0.17,-0.09,0.234,0.276,0.264,0.209,0.268
0.166,0.246,0.08,-0.206,0.043,0.163,-0.099,0.231,0.268,0.258,0.199,0.259
0.155,0.232,0.077,-0.194,0.039,0.154,-0.088,0.224,0.257,0.246,0.193,0.241
0.124,0.195,0.071,-0.16,0.027,0.132,-0.058,0.219,0.226,0.204,0.154,0.197
0.075,0.142,0.067,-0.109,0.004,0.104,-0.029,0.213,0.175,0.148,0.097,0.144
0.026,0.076,0.05,-0.051,-0.012,0.062,-0.011,0.181,0.119,0.102,0.047,0.096
-0.024,0.018,0.041,0.003,-0.033,0.029,-0.004,0.145,0.074,0.048,0.002,0.054
-0.063,-0.022,0.041,0.042,-0.052,0.01,0.002,0.114,0.04,0.008,-0.041,0.032
-0.071,-0.052,0.018,0.061,-0.044,-0.017,0.009,0.094,0.013,-0.017,-0.059,0.023
-0.067,-0.063,0.004,0.064,-0.035,-0.029,0.016,0.082,0.006,-0.036,-0.064,0.013
-0.075,-0.077,-0.002,0.076,-0.036,-0.039,0.021,0.07,0.001,-0.048,-0.088,0.006
-0.068,-0.081,-0.013,0.075,-0.027,-0.047,0.019,0.07,-0.004,-0.054,-0.091,0.001
-0.065,-0.076,-0.011,0.07,-0.026,-0.043,0.022,0.07,-0.01,-0.052,-0.086,-0.004
-0.065,-0.075,-0.01,0.07,-0.027,-0.042,0.033,0.07,-0.015,-0.049,-0.085,-0.01
-0.061,-0.07,-0.009,0.066,-0.026,-0.04,0.031,0.07,-0.009,-0.05,-0.08,-0.014
-0.064,-0.07,-0.006,0.067,-0.029,-0.037,0.024,0.07,-0.003,-0.05,-0.08,-0.01
-0.062,-0.065,-0.004,0.064,-0.029,-0.034,0.021,0.07,0.001,-0.05,-0.075,-0.01
-0.053,-0.062,-0.009,0.058,-0.022,-0.035,0.012,0.07,0.007,-0.051,-0.075,-0.01
-0.038,-0.058,-0.021,0.048,-0.009,-0.039,0.014,0.07,0.013,-0.055,-0.074,-0.01
-0.038,-0.055,-0.017,0.047,-0.01,-0.036,0.026,0.07,0.013,-0.055,-0.07,-0.009
-0.04,-0.05,-0.01,0.045,-0.015,-0.03,0.023,0.07,0.009,-0.057,-0.07,-0.013
-0.04,-0.05,-0.009,0.045,-0.016,-0.029,0.019,0.067,0.007,-0.061,-0.072,-0.021
-0.051,-0.05,0.0,0.051,-0.026,-0.025,0.015,0.062,0.004,-0.06,-0.083,-0.028
-0.042,-0.049,-0.006,0.045,-0.018,-0.027,0.012,0.059,0.001,-0.064,-0.09,-0.034
-0.045,-0.067,-0.022,0.057,-0.011,-0.044,0.008,0.055,-0.001,-0.065,-0.089,-0.031
-0.074,-0.077,-0.003,0.076,-0.035,-0.04,0.006,0.052,-0.005,-0.066,-0.094,-0.03
-0.092,-0.074,0.018,0.083,-0.055,-0.028,0.002,0.048,-0.005,-0.075,-0.101,-0.03
-0.097,-0.076,0.022,0.086,-0.059,-0.026,-0.001,0.045,-0.007,-0.081,-0.104,-0.031
-0.089,-0.075,0.014,0.082,-0.051,-0.03,0.019,0.04,-0.01,-0.078,-0.109,-0.029
-0.085,-0.075,0.01,0.079,-0.047,-0.032,0.027,0.038,-0.011,-0.085,-0.116,-0.037
-0.073,-0.07,0.003,0.071,-0.038,-0.034,0.024,0.033,-0.007,-0.096,-0.12,-0.061
-0.073,-0.07,0.003,0.071,-0.038,-0.033,0.026,0.03,-0.005,-0.095,-0.122,-0.066
-0.099,-0.069,0.03,0.084,-0.064,-0.019,0.025,0.042,-0.021,-0.095,-0.125,-0.064
-0.075,-0.065,0.01,0.069,-0.042,-0.027,0.025,0.046,-0.027,-0.095,-0.128,-0.065
-0.044,-0.065,-0.021,0.055,-0.011,-0.043,0.02,0.044,-0.022,-0.094,-0.13,-0.065
-0.056,-0.067,-0.012,0.062,-0.022,-0.039,0.02,0.042,-0.021,-0.098,-0.13,-0.065
-0.069,-0.07,-0.002,0.07,-0.033,-0.036,0.019,0.039,-0.017,-0.1,-0.13,-0.074
-0.083,-0.073,0.01,0.078,-0.046,-0.031,0.015,0.041,-0.015,-0.1,-0.13,-0.075
-0.077,-0.076,0.001,0.076,-0.038,-0.037,0.015,0.044,-0.012,-0.103,-0.13,-0.076
-0.07,-0.079,-0.01,0.075,-0.03,-0.044,0.015,0.045,-0.01,-0.106,-0.13,-0.093
-0.098,-0.08,0.018,0.089,-0.058,-0.031,0.015,0.045,-0.01,-0.104,-0.129,-0.096
-0.08,-0.08,-0.001,0.08,-0.04,-0.04,0.015,0.045,-0.007,-0.101,-0.125,-0.094
-0.05,-0.078,-0.028,0.064,-0.011,-0.052,0.014,0.045,-0.004,-0.098,-0.125,-0.096
-0.062,-0.074,-0.012,0.069,-0.024,-0.043,0.016,0.047,-0.006,-0.096,-0.123,-0.094
-0.057,-0.075,-0.019,0.066,-0.019,-0.047,0.029,0.051,-0.009,-0.092,-0.119,-0.097
-0.059,-0.071,-0.012,0.065,-0.024,-0.041,0.031,0.05,-0.01,-0.09,-0.12,-0.1
-0.073,-0.07,0.003,0.071,-0.038,-0.033,0.026,0.05,-0.011,-0.087,-0.123,-0.1
-0.061,-0.07,-0.009,0.065,-0.026,-0.039,0.025,0.05,-0.015,-0.085,-0.127,-0.096
-0.044,-0.065,-0.021,0.055,-0.011,-0.043,0.02,0.05,-0.015,-0.085,-0.13,-0.095
-0.053,-0.065,-0.011,0.059,-0.02,-0.038,0.02,0.055,-0.013,-0.081,-0.134,-0.095
-0.061,-0.065,-0.004,0.063,-0.028,-0.035,0.02,0.055,-0.01,-0.08,-0.134,-0.095
-0.069,-0.065,0.004,0.067,-0.036,-0.03,0.02,0.055,-0.007,-0.08,-0.13,-0.095
-0.074,-0.065,0.009,0.069,-0.041,-0.028,0.02,0.055,-0.004,-0.086,-0.128,-0.094
-0.05,-0.067,-0.017,0.059,-0.017,-0.042,0.02,0.055,0.0,-0.088,-0.125,-0.09
-0.048,-0.072,-0.024,0.06,-0.012,-0.047,0.02,0.057,0.0,-0.082,-0.121,-0.09
-0.062,-0.075,-0.013,0.069,-0.024,-0.044,0.022,0.061,0.006,-0.078,-0.12,-0.09
-0.081,-0.074,0.007,0.078,-0.044,-0.034,0.026,0.065,0.012,-0.074,-0.116,-0.09
-0.081,-0.077,0.004,0.078,-0.042,-0.036,0.027,0.068,0.019,-0.068,-0.109,-0.09
-0.057,-0.067,-0.01,0.062,-0.023,-0.038,0.034,0.071,0.026,-0.065,-0.102,-0.084
-0.047,-0.033,0.015,0.04,-0.03,-0.009,0.046,0.079,0.033,-0.069,-0.096,-0.071
-0.042,0.006,0.048,0.018,-0.045,0.026,0.057,0.104,0.054,-0.07,-0.088,-0.062
-0.045,0.025,0.07,0.01,-0.058,0.047,0.048,0.125,0.06,-0.07,-0.085,-0.065
-0.011,0.027,0.038,-0.008,-0.025,0.032,0.018,0.129,0.046,-0.07,-0.085,-0.067
0.009,-0.007,-0.015,-0.001,0.012,-0.011,0.014,0.122,0.039,-0.07,-0.084,-0.07
-0.008,-0.043,-0.035,0.026,0.014,-0.039,0.015,0.072,0.027,-0.072,-0.096,-0.074
0.006,-0.046,-0.052,0.02,0.029,-0.049,0.009,0.046,0.019,-0.076,-0.108,-0.074
-0.006,-0.052,-0.046,0.029,0.02,-0.048,0.011,0.055,0.013,-0.075,-0.114,-0.08
-0.039,-0.063,-0.024,0.051,-0.007,-0.044,0.016,0.043,0.005,-0.075,-0.121,-0.078
-0.069,-0.09,-0.021,0.08,-0.023,-0.056,0.029,0.059,-0.002,-0.085,-0.138,-0.085
-0.102,-0.103,-0.001,0.103,-0.05,-0.052,0.036,0.04,-0.011,-0.086,-0.141,-0.089
-0.103,-0.106,-0.003,0.104,-0.049,-0.054,0.044,0.06,-0.001,-0.084,-0.149,-0.092
-0.089,-0.103,-0.015,0.096,-0.036,-0.059,0.038,0.041,0.001,-0.085,-0.148,-0.085
-0.075,-0.107,-0.033,0.091,-0.021,-0.07,0.04,0.054,0.014,-0.085,-0.155,-0.087
-0.091,-0.098,-0.008,0.095,-0.041,-0.053,0.056,0.093,0.021,-0.077,-0.154,-0.081
-0.121,-0.042,0.079,0.081,-0.1,0.018,0.106,0.239,0.128,-0.008,-0.084,-0.036
0.027,0.165,0.138,-0.096,-0.056,0.151,0.065,0.367,0.411,0.263,0.163,0.162
0.388,0.435,0.047,-0.411,0.17,0.241,-0.283,-0.622,0.51,0.6,0.589,0.607
0.44,0.146,-0.294,-0.293,0.367,-0.074,-0.602,-1.637,0.05,0.289,0.359,0.508
0.081,-0.393,-0.474,0.156,0.278,-0.433,-0.648,-1.601,-0.557,-0.381,-0.318,-0.077
-0.049,-0.475,-0.426,0.262,0.189,-0.45,-0.491,-1.123,-0.575,-0.494,-0.442,-0.232
-0.029,-0.335,-0.306,0.183,0.138,-0.32,-0.229,-0.5,-0.293,-0.319,-0.323,-0.178
-0.078,-0.185,-0.107,0.132,0.014,-0.145,-0.055,-0.137,-0.104,-0.186,-0.215,-0.129
-0.074,-0.111,-0.038,0.093,-0.018,-0.074,0.035,0.037,0.008,-0.106,-0.145,-0.085
-0.089,-0.106,-0.016,0.098,-0.036,-0.061,0.062,0.099,0.023,-0.085,-0.142,-0.087
-0.117,-0.09,0.027,0.103,-0.071,-0.032,0.074,0.118,0.051,-0.065,-0.125,-0.074
-0.133,-0.084,0.049,0.109,-0.091,-0.017,0.084,0.141,0.065,-0.064,-0.126,-0.076
-0.115,-0.073,0.042,0.094,-0.078,-0.015,0.078,0.139,0.065,-0.052,-0.117,-0.067
-0.096,-0.068,0.027,0.082,-0.061,-0.02,0.082,0.152,0.071,-0.046,-0.113,-0.066
-0.083,-0.061,0.023,0.072,-0.053,-0.019,0.079,0.152,0.07,-0.039,-0.108,-0.064
-0.061,-0.054,0.007,0.057,-0.034,-0.023,0.081,0.183,0.08,-0.032,-0.102,-0.069
-0.069,-0.048,0.021,0.058,-0.045,-0.013,0.078,0.187,0.092,-0.026,-0.097,-0.082
-0.09,-0.042,0.049,0.066,-0.069,0.003,0.073,0.189,0.101,-0.019,-0.088,-0.077
-0.083,-0.034,0.049,0.058,-0.066,0.007,0.07,0.195,0.107,-0.013,-0.083,-0.073
-0.069,-0.026,0.043,0.047,-0.056,0.009,0.066,0.195,0.118,-0.002,-0.076,-0.071
-0.06,-0.018,0.042,0.039,-0.051,0.012,0.062,0.206,0.127,0.007,-0.064,-0.058
-0.045,-0.01,0.035,0.027,-0.04,0.012,0.059,0.214,0.146,0.022,-0.05,-0.038
-0.037,0.001,0.037,0.018,-0.037,0.019,0.053,0.233,0.167,0.041,-0.036,-0.017
-0.007,0.027,0.034,-0.011,-0.021,0.03,0.042,0.257,0.187,0.065,-0.019,0.002
0.025,0.064,0.039,-0.045,-0.007,0.051,0.033,0.286,0.231,0.106,0.015,0.025
0.04,0.103,0.063,-0.072,-0.011,0.082,0.021,0.315,0.274,0.153,0.06,0.063
0.075,0.143,0.067,-0.11,0.004,0.105,0.005,0.334,0.315,0.201,0.106,0.111
0.125,0.188,0.063,-0.157,0.031,0.125,-0.011,0.341,0.361,0.252,0.157,0.159
0.162,0.225,0.062,-0.193,0.049,0.143,-0.026,0.335,0.394,0.298,0.203,0.195
0.172,0.23,0.058,-0.201,0.057,0.144,-0.041,0.332,0.406,0.318,0.223,0.209
0.17,0.231,0.062,-0.201,0.054,0.146,-0.048,0.329,0.405,0.315,0.216,0.203
0.152,0.226,0.073,-0.189,0.039,0.149,-0.037,0.324,0.405,0.305,0.202,0.191
0.124,0.193,0.069,-0.158,0.027,0.131,-0.028,0.321,0.383,0.284,0.178,0.167
0.084,0.137,0.053,-0.111,0.016,0.095,-0.003,0.307,0.335,0.231,0.128,0.123
0.03,0.073,0.043,-0.052,-0.007,0.058,0.027,0.271,0.269,0.161,0.064,0.072
-0.003,0.021,0.024,-0.009,-0.014,0.022,0.037,0.229,0.212,0.107,0.017,0.024
-0.024,-0.031,-0.007,0.028,-0.009,-0.019,0.045,0.193,0.172,0.062,-0.029,-0.013
-0.051,-0.068,-0.017,0.06,-0.017,-0.042,0.05,0.173,0.142,0.023,-0.06,-0.038
-0.046,-0.092,-0.046,0.069,0.0,-0.069,0.05,0.158,0.125,-0.001,-0.076,-0.055
-0.045,-0.102,-0.058,0.074,0.007,-0.08,0.05,0.145,0.109,-0.01,-0.096,-0.063
-0.058,-0.104,-0.047,0.081,-0.005,-0.075,0.05,0.141,0.099,-0.016,-0.097,-0.059
-0.053,-0.114,-0.061,0.083,0.005,-0.087,0.05,0.136,0.093,-0.022,-0.105,-0.056
-0.056,-0.113,-0.057,0.085,0.001,-0.084,0.047,0.133,0.086,-0.029,-0.116,-0.053
-0.055,-0.107,-0.053,0.081,-0.001,-0.08,0.044,0.127,0.079,-0.035,-0.109,-0.048
-0.052,-0.103,-0.05,0.077,-0.001,-0.076,0.045,0.124,0.073,-0.03,-0.106,-0.045
-0.054,-0.098,-0.045,0.077,-0.004,-0.071,0.041,0.125,0.067,-0.03,-0.101,-0.045
-0.051,-0.094,-0.043,0.072,-0.003,-0.068,0.04,0.125,0.065,-0.029,-0.096,-0.045
-0.052,-0.09,-0.038,0.071,-0.007,-0.063,0.04,0.125,0.065,-0.025,-0.097,-0.044
-0.059,-0.09,-0.031,0.075,-0.014,-0.061,0.035,0.125,0.061,-0.025,-0.101,-0.046
-0.059,-0.09,-0.031,0.075,-0.014,-0.06,0.035,0.125,0.06,-0.027,-0.1,-0.044
-0.069,-0.09,-0.021,0.08,-0.024,-0.055,0.034,0.121,0.06,-0.035,-0.1,-0.049
-0.065,-0.09,-0.025,0.078,-0.02,-0.058,0.03,0.114,0.054,-0.04,-0.1,-0.059
-0.058,-0.09,-0.032,0.074,-0.013,-0.06,0.031,0.107,0.047,-0.043,-0.1,-0.063
-0.063,-0.092,-0.029,0.078,-0.016,-0.061,0.027,0.101,0.041,-0.048,-0.11,-0.072
-0.038,-0.096,-0.058,0.067,0.01,-0.076,0.025,0.094,0.034,-0.054,-0.117,-0.076
-0.038,-0.095,-0.057,0.066,0.01,-0.075,0.025,0.088,0.028,-0.06,-0.12,-0.078
-0.053,-0.099,-0.046,0.076,-0.003,-0.072,0.025,0.085,0.022,-0.067,-0.126,-0.081
-0.053,-0.1,-0.047,0.077,-0.003,-0.073,0.025,0.082,0.018,-0.078,-0.132,-0.085
-0.061,-0.1,-0.039,0.081,-0.011,-0.07,0.026,0.08,0.012,-0.086,-0.143,-0.09
-0.069,-0.105,-0.036,0.087,-0.016,-0.07,0.029,0.076,0.009,-0.092,-0.15,-0.094
-0.075,-0.105,-0.03,0.09,-0.022,-0.067,0.032,0.075,0.004,-0.098,-0.149,-0.093
-0.082,-0.106,-0.024,0.094,-0.029,-0.065,0.035,0.071,-0.001,-0.1,-0.151,-0.09
-0.09,-0.11,-0.019,0.1,-0.035,-0.065,0.037,0.07,-0.004,-0.1,-0.155,-0.09
-0.101,-0.11,-0.01,0.106,-0.046,-0.059,0.041,0.07,-0.007,-0.104,-0.155,-0.09
-0.096,-0.107,-0.011,0.102,-0.043,-0.059,0.037,0.065,-0.009,-0.105,-0.157,-0.089
-0.076,-0.105,-0.029,0.091,-0.023,-0.066,0.034,0.065,-0.013,-0.105,-0.162,-0.091
-0.062,-0.105,-0.043,0.084,-0.009,-0.074,0.035,0.064,-0.015,-0.11,-0.165,-0.1
-0.061,-0.101,-0.04,0.082,-0.011,-0.07,0.031,0.059,-0.017,-0.11,-0.165,-0.098
-0.066,-0.099,-0.033,0.083,-0.017,-0.066,0.03,0.061,-0.022,-0.11,-0.165,-0.092
-0.073,-0.101,-0.028,0.087,-0.022,-0.064,0.03,0.057,-0.025,-0.11,-0.165,-0.089
-0.084,-0.104,-0.02,0.095,-0.032,-0.062,0.025,0.054,-0.03,-0.112,-0.165,-0.084
-0.09,-0.105,-0.015,0.098,-0.037,-0.06,0.025,0.055,-0.03,-0.116,-0.165,-0.08
-0.099,-0.105,-0.006,0.102,-0.046,-0.055,0.025,0.051,-0.031,-0.115,-0.167,-0.075
-0.083,-0.105,-0.022,0.095,-0.03,-0.064,0.025,0.05,-0.035,-0.115,-0.17,-0.075
-0.055,-0.104,-0.05,0.08,-0.002,-0.077,0.025,0.049,-0.035,-0.115,-0.17,-0.073
-0.059,-0.107,-0.048,0.084,-0.005,-0.077,0.022,0.046,-0.037,-0.115,-0.17,-0.07
-0.067,-0.11,-0.043,0.089,-0.012,-0.076,0.02,0.044,-0.041,-0.12,-0.17,-0.068
-0.068,-0.11,-0.042,0.089,-0.013,-0.076,0.02,0.047,-0.044,-0.12,-0.169,-0.081
-0.075,-0.11,-0.035,0.093,-0.02,-0.072,0.02,0.05,-0.048,-0.12,-0.166,-0.092
-0.073,-0.11,-0.037,0.092,-0.018,-0.073,0.02,0.05,-0.05,-0.12,-0.163,-0.087
-0.054,-0.11,-0.055,0.082,0.0,-0.082,0.021,0.052,-0.054,-0.12,-0.161,-0.085
-0.067,-0.105,-0.038,0.087,-0.014,-0.072,0.024,0.055,-0.057,-0.117,-0.157,-0.081
-0.085,-0.104,-0.02,0.095,-0.032,-0.062,0.027,0.055,-0.061,-0.114,-0.155,-0.08
-0.072,-0.106,-0.034,0.089,-0.018,-0.07,0.029,0.05,-0.065,-0.116,-0.153,-0.076
-0.069,-0.104,-0.035,0.087,-0.017,-0.069,0.034,0.051,-0.063,-0.111,-0.149,-0.07
-0.082,-0.107,-0.025,0.095,-0.028,-0.066,0.034,0.048,-0.056,-0.11,-0.147,-0.066
-0.083,-0.097,-0.014,0.09,-0.034,-0.055,0.039,0.056,-0.05,-0.109,-0.141,-0.059
-0.06,-0.067,-0.007,0.064,-0.026,-0.037,0.042,0.071,-0.046,-0.103,-0.141,-0.054
-0.052,-0.023,0.03,0.037,-0.041,0.004,0.056,0.089,-0.027,-0.092,-0.119,-0.048
-0.031,0.003,0.034,0.013,-0.032,0.018,0.059,0.12,-0.014,-0.087,-0.098,-0.045
-0.018,-0.01,0.008,0.014,-0.012,-0.001,0.013,0.11,-0.021,-0.08,-0.101,-0.042
-0.014,-0.038,-0.024,0.026,0.006,-0.031,-0.011,0.099,-0.035,-0.075,-0.105,-0.04
0.006,-0.071,-0.077,0.033,0.041,-0.074,-0.005,0.085,-0.061,-0.105,-0.135,-0.036
-0.009,-0.081,-0.072,0.045,0.032,-0.076,0.004,0.062,-0.074,-0.123,-0.154,-0.034
-0.028,-0.086,-0.058,0.057,0.015,-0.072,0.017,0.06,-0.083,-0.118,-0.155,-0.04
-0.053,-0.107,-0.054,0.08,0.001,-0.08,0.022,0.041,-0.089,-0.122,-0.159,-0.052
-0.074,-0.128,-0.054,0.101,-0.01,-0.091,0.027,0.045,-0.089,-0.134,-0.164,-0.078
-0.07,-0.13,-0.06,0.1,-0.005,-0.095,0.023,0.022,-0.099,-0.135,-0.165,-0.087
-0.074,-0.13,-0.056,0.102,-0.009,-0.093,0.033,0.043,-0.089,-0.135,-0.164,-0.094
-0.086,-0.129,-0.043,0.108,-0.022,-0.086,0.028,0.031,-0.105,-0.136,-0.16,-0.097
-0.093,-0.13,-0.037,0.112,-0.028,-0.084,0.03,0.04,-0.098,-0.133,-0.158,-0.093
-0.107,-0.127,-0.02,0.117,-0.044,-0.073,0.046,0.074,-0.073,-0.137,-0.164,-0.108
-0.125,-0.08,0.045,0.102,-0.085,-0.018,0.075,0.191,0.007,-0.067,-0.125,-0.104
-0.023,0.11,0.134,-0.044,-0.079,0.122,0.066,0.386,0.288,0.194,0.112,0.107
0.348,0.399,0.051,-0.373,0.148,0.224,-0.257,-0.487,0.413,0.536,0.546,0.566
0.445,0.153,-0.293,-0.299,0.369,-0.07,-0.59,-1.573,-0.05,0.256,0.352,0.496
0.072,-0.38,-0.452,0.154,0.263,-0.416,-0.639,-1.639,-0.666,-0.416,-0.321,-0.075
-0.057,-0.459,-0.402,0.258,0.173,-0.43,-0.522,-1.195,-0.707,-0.535,-0.454,-0.238
-0.043,-0.351,-0.308,0.198,0.133,-0.33,-0.27,-0.583,-0.443,-0.389,-0.345,-0.182
-0.085,-0.225,-0.14,0.155,0.028,-0.182,-0.091,-0.211,-0.25,-0.259,-0.257,-0.14
-0.075,-0.14,-0.066,0.108,-0.004,-0.103,-0.014,-0.022,-0.129,-0.157,-0.167,-0.086
-0.09,-0.127,-0.037,0.108,-0.026,-0.081,0.025,0.044,-0.109,-0.141,-0.156,-0.081
-0.077,-0.102,-0.025,0.09,-0.026,-0.063,0.036,0.06,-0.092,-0.121,-0.137,-0.068
-0.07,-0.096,-0.026,0.083,-0.022,-0.061,0.047,0.088,-0.085,-0.119,-0.133,-0.07
-0.063,-0.081,-0.019,0.072,-0.022,-0.05,0.047,0.08,-0.078,-0.11,-0.127,-0.062
-0.057,-0.078,-0.021,0.068,-0.018,-0.049,0.044,0.097,-0.068,-0.104,-0.123,-0.058
-0.06,-0.073,-0.012,0.067,-0.024,-0.042,0.04,0.096,-0.064,-0.098,-0.12,-0.055
-0.054,-0.068,-0.014,0.061,-0.02,-0.041,0.037,0.104,-0.057,-0.091,-0.12,-0.048
-0.076,-0.064,0.012,0.07,-0.043,-0.026,0.033,0.106,-0.056,-0.088,-0.116,-0.046
-0.094,-0.059,0.035,0.076,-0.064,-0.012,0.029,0.112,-0.051,-0.083,-0.106,-0.039
-0.068,-0.053,0.014,0.06,-0.041,-0.019,0.026,0.12,-0.047,-0.078,-0.099,-0.036
-0.045,-0.042,0.003,0.043,-0.023,-0.019,0.023,0.123,-0.045,-0.076,-0.091,-0.03
-0.049,-0.033,0.017,0.041,-0.033,-0.008,0.021,0.132,-0.028,-0.053,-0.084,-0.02
-0.045,-0.022,0.023,0.033,-0.033,0.001,0.016,0.135,-0.007,-0.022,-0.069,-0.011
-0.027,-0.009,0.018,0.018,-0.022,0.004,0.016,0.143,0.012,-0.008,-0.052,0.002
0.001,0.017,0.017,-0.009,-0.008,0.017,0.011,0.163,0.032,0.012,-0.032,0.021
0.033,0.047,0.014,-0.04,0.009,0.03,0.0,0.177,0.053,0.04,0.004,0.052
0.048,0.078,0.031,-0.063,0.008,0.054,-0.012,0.207,0.094,0.089,0.055,0.094
0.077,0.123,0.047,-0.101,0.015,0.085,-0.046,0.223,0.141,0.14,0.106,0.142
0.13,0.174,0.045,-0.152,0.042,0.109,-0.069,0.218,0.182,0.188,0.15,0.185
0.155,0.2,0.045,-0.178,0.055,0.122,-0.081,0.221,0.21,0.232,0.186,0.217
0.174,0.219,0.045,-0.197,0.064,0.132,-0.086,0.219,0.229,0.244,0.2,0.23
0.181,0.226,0.045,-0.204,0.068,0.135,-0.074,0.221,0.234,0.247,0.196,0.221
0.167,0.21,0.043,-0.189,0.062,0.126,-0.065,0.215,0.226,0.241,0.19,0.209
0.158,0.19,0.032,-0.174,0.063,0.111,-0.056,0.205,0.211,0.207,0.161,0.191
0.117,0.139,0.023,-0.128,0.047,0.081,-0.038,0.194,0.17,0.154,0.112,0.147
0.062,0.075,0.013,-0.069,0.025,0.043,-0.008,0.165,0.114,0.092,0.059,0.082
0.022,0.025,0.002,-0.024,0.01,0.013,0.01,0.13,0.073,0.036,0.001,0.03
-0.011,-0.014,-0.003,0.013,-0.004,-0.009,0.023,0.098,0.037,-0.011,-0.041,0.001
-0.031,-0.054,-0.023,0.043,-0.004,-0.038,0.035,0.079,-0.005,-0.037,-0.065,-0.022
-0.051,-0.088,-0.037,0.07,-0.007,-0.062,0.035,0.063,-0.023,-0.061,-0.086,-0.047
-0.061,-0.095,-0.035,0.079,-0.013,-0.065,0.035,0.05,-0.033,-0.077,-0.104,-0.056
-0.056,-0.09,-0.035,0.073,-0.011,-0.062,0.035,0.047,-0.046,-0.074,-0.102,-0.05
-0.052,-0.088,-0.036,0.07,-0.008,-0.061,0.035,0.041,-0.047,-0.076,-0.098,-0.048
-0.049,-0.083,-0.034,0.067,-0.007,-0.059,0.034,0.038,-0.042,-0.071,-0.097,-0.043
-0.048,-0.08,-0.032,0.064,-0.008,-0.056,0.03,0.032,-0.039,-0.07,-0.093,-0.04
-0.056,-0.076,-0.02,0.067,-0.017,-0.048,0.031,0.03,-0.036,-0.07,-0.09,-0.036
-0.058,-0.075,-0.017,0.066,-0.02,-0.046,0.027,0.03,-0.031,-0.065,-0.089,-0.035
-0.028,-0.075,-0.047,0.052,0.01,-0.061,0.025,0.03,-0.03,-0.065,-0.09,-0.035
-0.024,-0.075,-0.051,0.049,0.014,-0.063,0.025,0.03,-0.03,-0.066,-0.09,-0.031
-0.04,-0.076,-0.035,0.058,-0.002,-0.055,0.021,0.03,-0.03,-0.07,-0.09,-0.03
-0.042,-0.074,-0.031,0.058,-0.005,-0.052,0.02,0.03,-0.03,-0.07,-0.09,-0.031
-0.041,-0.07,-0.03,0.055,-0.006,-0.05,0.02,0.026,-0.029,-0.072,-0.089,-0.046
-0.038,-0.068,-0.029,0.053,-0.004,-0.048,0.02,0.024,-0.04,-0.076,-0.097,-0.057
-0.04,-0.065,-0.024,0.053,-0.007,-0.045,0.02,0.025,-0.047,-0.075,-0.11,-0.057
-0.036,-0.062,-0.025,0.049,-0.005,-0.043,0.02,0.025,-0.044,-0.079,-0.11,-0.065
-0.037,-0.06,-0.023,0.048,-0.007,-0.041,0.02,0.025,-0.049,-0.082,-0.11,-0.075
-0.045,-0.063,-0.018,0.054,-0.013,-0.041,0.02,0.023,-0.05,-0.087,-0.111,-0.073
-0.054,-0.069,-0.015,0.062,-0.019,-0.042,0.02,0.02,-0.05,-0.09,-0.115,-0.084
-0.058,-0.07,-0.012,0.064,-0.023,-0.041,0.02,0.018,-0.055,-0.09,-0.119,-0.097
-0.064,-0.071,-0.007,0.067,-0.028,-0.039,0.02,0.015,-0.055,-0.094,-0.132,-0.094
-0.069,-0.074,-0.005,0.072,-0.032,-0.039,0.024,0.012,-0.059,-0.101,-0.149,-0.095
-0.065,-0.076,-0.011,0.07,-0.026,-0.043,0.025,0.009,-0.06,-0.105,-0.15,-0.095
-0.06,-0.073,-0.013,0.067,-0.023,-0.043,0.025,0.007,-0.062,-0.104,-0.15,-0.095
-0.061,-0.07,-0.009,0.065,-0.026,-0.04,0.025,0.004,-0.066,-0.107,-0.15,-0.095
-0.064,-0.07,-0.007,0.067,-0.028,-0.038,0.025,0.001,-0.065,-0.11,-0.15,-0.095
-0.063,-0.067,-0.005,0.066,-0.029,-0.036,0.025,-0.002,-0.069,-0.11,-0.15,-0.096
-0.078,-0.064,0.013,0.071,-0.045,-0.025,0.025,-0.005,-0.071,-0.11,-0.15,-0.093
-0.087,-0.065,0.022,0.076,-0.054,-0.021,0.025,-0.004,-0.069,-0.11,-0.158,-0.107
-0.081,-0.061,0.019,0.071,-0.05,-0.021,0.026,0.0,-0.066,-0.11,-0.16,-0.116
-0.076,-0.056,0.02,0.066,-0.048,-0.018,0.024,0.002,-0.063,-0.11,-0.16,-0.11
-0.072,-0.052,0.02,0.062,-0.046,-0.015,0.026,0.005,-0.061,-0.11,-0.159,-0.108
-0.067,-0.048,0.019,0.057,-0.043,-0.014,0.024,0.009,-0.057,-0.109,-0.172,-0.103
-0.066,-0.043,0.023,0.054,-0.044,-0.009,0.026,0.01,-0.055,-0.1,-0.175,-0.1
-0.066,-0.037,0.029,0.051,-0.048,-0.004,0.024,0.018,-0.051,-0.09,-0.151,-0.094
-0.049,-0.007,0.042,0.028,-0.046,0.017,0.027,0.033,-0.038,-0.079,-0.137,-0.08
-0.054,0.033,0.087,0.01,-0.071,0.06,0.059,0.059,-0.027,-0.078,-0.122,-0.072
-0.035,0.051,0.086,-0.008,-0.061,0.068,0.044,0.073,-0.022,-0.08,-0.116,-0.075
0.01,0.043,0.033,-0.027,-0.012,0.038,0.006,0.061,-0.013,-0.082,-0.11,-0.075
-0.004,-0.005,-0.001,0.004,-0.002,-0.003,0.003,0.05,-0.016,-0.085,-0.117,-0.075
-0.043,-0.04,0.003,0.041,-0.023,-0.018,-0.009,0.015,-0.045,-0.086,-0.143,-0.079
-0.046,-0.044,0.003,0.045,-0.024,-0.02,-0.014,-0.002,-0.052,-0.091,-0.151,-0.08
-0.033,-0.046,-0.013,0.04,-0.01,-0.029,0.0,0.0,-0.048,-0.089,-0.149,-0.08
-0.054,-0.056,-0.001,0.055,-0.027,-0.028,0.012,-0.013,-0.056,-0.096,-0.155,-0.095
-0.097,-0.076,0.021,0.086,-0.058,-0.027,0.027,-0.002,-0.062,-0.114,-0.163,-0.117
-0.114,-0.074,0.04,0.094,-0.076,-0.017,0.022,-0.026,-0.072,-0.121,-0.159,-0.119
-0.102,-0.076,0.026,0.089,-0.063,-0.025,0.029,0.001,-0.063,-0.124,-0.161,-0.121
-0.115,-0.073,0.041,0.094,-0.077,-0.016,0.028,-0.024,-0.063,-0.118,-0.158,-0.119
-0.125,-0.078,0.048,0.101,-0.086,-0.015,0.031,0.003,-0.04,-0.109,-0.153,-0.12
-0.102,-0.062,0.04,0.082,-0.07,-0.011,0.051,0.021,-0.046,-0.104,-0.159,-0.122
-0.109,0.012,0.121,0.048,-0.115,0.067,0.075,0.182,0.055,-0.021,-0.108,-0.091
0.032,0.241,0.209,-0.137,-0.089,0.224,0.027,0.287,0.373,0.281,0.177,0.147
0.398,0.488,0.09,-0.443,0.154,0.288,-0.313,-0.77,0.443,0.6,0.581,0.593
0.408,0.15,-0.258,-0.278,0.333,-0.054,-0.628,-1.726,-0.058,0.228,0.283,0.421
0.048,-0.374,-0.422,0.163,0.235,-0.398,-0.65,-1.668,-0.653,-0.441,-0.38,-0.165
-0.051,-0.43,-0.379,0.24,0.164,-0.404,-0.498,-1.178,-0.651,-0.517,-0.472,-0.279
-0.034,-0.281,-0.248,0.158,0.107,-0.264,-0.244,-0.553,-0.353,-0.349,-0.347,-0.222
-0.082,-0.134,-0.052,0.108,-0.015,-0.093,-0.062,-0.22,-0.169,-0.212,-0.245,-0.181
-0.091,-0.07,0.021,0.08,-0.056,-0.024,0.02,-0.04,-0.061,-0.127,-0.178,-0.13
-0.104,-0.047,0.057,0.075,-0.08,0.005,0.055,0.015,-0.037,-0.114,-0.168,-0.121
-0.11,-0.029,0.08,0.069,-0.095,0.025,0.061,0.032,-0.019,-0.09,-0.139,-0.108
-0.1,-0.025,0.075,0.062,-0.087,0.024,0.06,0.053,-0.015,-0.085,-0.137,-0.11
-0.087,-0.012,0.075,0.049,-0.08,0.031,0.06,0.054,-0.008,-0.074,-0.129,-0.102
-0.076,-0.009,0.067,0.042,-0.071,0.029,0.061,0.071,0.0,-0.072,-0.126,-0.097
-0.064,-0.001,0.064,0.032,-0.064,0.031,0.059,0.066,0.002,-0.069,-0.121,-0.089
-0.079,0.006,0.086,0.036,-0.083,0.046,0.056,0.076,0.01,-0.064,-0.116,-0.083
-0.085,0.011,0.097,0.037,-0.091,0.054,0.053,0.076,0.011,-0.062,-0.113,-0.075
-0.069,0.019,0.088,0.025,-0.079,0.053,0.051,0.082,0.019,-0.057,-0.106,-0.065
-0.062,0.026,0.088,0.018,-0.075,0.057,0.047,0.089,0.02,-0.048,-0.101,-0.055
-0.045,0.036,0.081,0.004,-0.063,0.058,0.045,0.102,0.029,-0.037,-0.094,-0.045
-0.038,0.044,0.081,-0.003,-0.06,0.062,0.043,0.115,0.044,-0.028,-0.091,-0.035
-0.027,0.05,0.077,-0.011,-0.052,0.063,0.037,0.12,0.051,-0.014,-0.068,-0.025
-0.022,0.075,0.097,-0.027,-0.059,0.086,0.034,0.138,0.077,0.011,-0.035,-0.01
-0.018,0.094,0.112,-0.038,-0.065,0.103,0.029,0.162,0.108,0.044,-0.011,0.022
0.025,0.128,0.103,-0.077,-0.039,0.116,0.025,0.186,0.14,0.074,0.015,0.044
0.072,0.174,0.102,-0.123,-0.015,0.137,0.014,0.215,0.184,0.121,0.061,0.081
0.12,0.214,0.093,-0.168,0.013,0.153,0.0,0.241,0.233,0.178,0.108,0.133
0.14,0.263,0.122,-0.202,0.009,0.193,-0.016,0.246,0.279,0.229,0.156,0.168
0.172,0.3,0.128,-0.236,0.022,0.214,-0.045,0.239,0.308,0.274,0.198,0.202
0.196,0.313,0.117,-0.255,0.039,0.215,-0.051,0.236,0.312,0.294,0.217,0.22
0.188,0.303,0.114,-0.246,0.037,0.208,-0.042,0.231,0.301,0.285,0.225,0.215
0.188,0.292,0.104,-0.241,0.042,0.198,-0.039,0.227,0.295,0.269,0.206,0.199
0.123,0.259,0.136,-0.191,-0.006,0.197,-0.028,0.219,0.271,0.239,0.171,0.171
0.074,0.195,0.121,-0.135,-0.024,0.158,-0.005,0.19,0.219,0.184,0.109,0.11
0.028,0.126,0.097,-0.077,-0.035,0.111,0.02,0.157,0.155,0.113,0.032,0.042
-0.03,0.066,0.096,-0.019,-0.063,0.081,0.027,0.125,0.11,0.054,-0.015,-0.007
-0.047,0.026,0.073,0.011,-0.06,0.049,0.044,0.094,0.075,0.015,-0.058,-0.045
-0.075,-0.01,0.066,0.042,-0.07,0.028,0.062,0.077,0.038,-0.013,-0.086,-0.062
-0.079,-0.024,0.055,0.052,-0.067,0.015,0.062,0.067,0.019,-0.036,-0.094,-0.073
-0.077,-0.029,0.048,0.053,-0.062,0.009,0.066,0.058,0.002,-0.051,-0.102,-0.081
-0.093,-0.048,0.045,0.07,-0.069,-0.002,0.068,0.052,-0.003,-0.059,-0.105,-0.079
-0.089,-0.05,0.039,0.069,-0.064,-0.006,0.071,0.048,0.001,-0.066,-0.109,-0.078
-0.08,-0.044,0.036,0.061,-0.057,-0.004,0.066,0.043,-0.001,-0.07,-0.11,-0.074
-0.073,-0.043,0.03,0.058,-0.051,-0.006,0.065,0.039,0.001,-0.07,-0.11,-0.075
-0.067,-0.037,0.029,0.052,-0.048,-0.004,0.065,0.034,-0.001,-0.07,-0.11,-0.075
-0.07,-0.036,0.034,0.053,-0.051,-0.001,0.06,0.03,0.001,-0.07,-0.11,-0.078
-0.069,-0.032,0.037,0.05,-0.053,0.002,0.06,0.03,0.005,-0.07,-0.109,-0.122
-0.082,-0.03,0.052,0.056,-0.067,0.011,0.059,0.029,0.004,-0.07,-0.105,-0.161
-0.086,-0.027,0.059,0.056,-0.072,0.017,0.055,0.025,0.007,-0.07,-0.105,-0.166
-0.074,-0.024,0.049,0.049,-0.061,0.012,0.055,0.024,0.01,-0.07,-0.105,-0.172
-0.076,-0.029,0.047,0.052,-0.062,0.009,0.055,0.031,0.01,-0.07,-0.105,-0.175
-0.069,-0.03,0.039,0.049,-0.054,0.004,0.055,0.035,0.007,-0.07,-0.105,-0.18
-0.066,-0.03,0.036,0.048,-0.051,0.002,0.055,0.028,0.002,-0.072,-0.108,-0.188
-0.081,-0.03,0.051,0.055,-0.066,0.01,0.058,0.025,-0.001,-0.075,-0.114,-0.189
-0.087,-0.03,0.056,0.058,-0.071,0.012,0.062,0.02,-0.005,-0.078,-0.116,-0.192
-0.083,-0.029,0.055,0.055,-0.069,0.013,0.065,0.015,-0.009,-0.08,-0.122,-0.195
-0.076,-0.025,0.051,0.05,-0.063,0.013,0.065,0.011,-0.011,-0.083,-0.129,-0.196
-0.075,-0.025,0.05,0.05,-0.062,0.012,0.065,0.01,-0.016,-0.089,-0.13,-0.199
-0.072,-0.023,0.05,0.047,-0.061,0.013,0.065,0.01,-0.019,-0.092,-0.13,-0.2
-0.065,-0.019,0.045,0.042,-0.055,0.013,0.065,0.01,-0.022,-0.095,-0.13,-0.2
-0.06,-0.02,0.04,0.04,-0.05,0.01,0.062,0.01,-0.027,-0.086,-0.13,-0.2
-0.06,-0.024,0.035,0.042,-0.047,0.005,0.059,0.011,-0.03,-0.092,-0.13,-0.2
-0.058,-0.026,0.032,0.042,-0.045,0.003,0.06,0.015,-0.03,-0.114,-0.131,-0.197
-0.048,-0.024,0.024,0.036,-0.035,-0.001,0.059,0.015,-0.03,-0.115,-0.136,-0.195
-0.066,-0.025,0.041,0.045,-0.053,0.008,0.061,0.015,-0.03,-0.115,-0.141,-0.195
-0.083,-0.025,0.058,0.054,-0.07,0.017,0.059,0.015,-0.032,-0.115,-0.144,-0.191
-0.076,-0.025,0.051,0.05,-0.063,0.013,0.055,0.015,-0.032,-0.115,-0.142,-0.189
-0.075,-0.025,0.05,0.05,-0.062,0.012,0.055,0.011,-0.029,-0.114,-0.139,-0.191
-0.071,-0.025,0.047,0.048,-0.059,0.011,0.052,0.01,-0.03,-0.109,-0.136,-0.194
-0.069,-0.025,0.044,0.047,-0.056,0.009,0.05,0.01,-0.03,-0.111,-0.133,-0.195
-0.075,-0.025,0.051,0.05,-0.062,0.013,0.05,0.006,-0.031,-0.107,-0.131,-0.195
-0.081,-0.026,0.055,0.053,-0.067,0.015,0.054,0.004,-0.028,-0.104,-0.128,-0.195
-0.079,-0.024,0.055,0.051,-0.067,0.016,0.055,0.007,-0.026,-0.105,-0.126,-0.195
-0.074,-0.02,0.055,0.047,-0.065,0.017,0.055,0.01,-0.022,-0.101,-0.122,-0.193
-0.076,-0.021,0.055,0.048,-0.065,0.017,0.06,0.01,-0.02,-0.1,-0.12,-0.189
-0.072,-0.017,0.055,0.044,-0.064,0.019,0.06,0.01,-0.017,-0.1,-0.116,-0.187
-0.066,-0.015,0.051,0.041,-0.058,0.018,0.06,0.01,-0.014,-0.1,-0.114,-0.184
-0.064,-0.014,0.05,0.039,-0.056,0.018,0.06,0.01,-0.03,-0.1,-0.127,-0.181
-0.072,-0.023,0.049,0.048,-0.061,0.013,0.06,0.007,-0.037,-0.101,-0.131,-0.179
-0.084,-0.038,0.046,0.06,-0.065,0.004,0.06,0.002,-0.034,-0.105,-0.129,-0.176
-0.079,-0.035,0.044,0.056,-0.061,0.004,0.06,-0.001,-0.033,-0.105,-0.13,-0.171
-0.082,-0.035,0.047,0.058,-0.064,0.006,0.06,-0.004,-0.029,-0.107,-0.13,-0.169
-0.094,-0.035,0.059,0.065,-0.076,0.012,0.056,-0.009,-0.031,-0.11,-0.129,-0.164
-0.09,-0.035,0.055,0.062,-0.072,0.01,0.049,-0.009,-0.026,-0.11,-0.126,-0.16
-0.082,-0.036,0.046,0.058,-0.063,0.005,0.042,-0.005,-0.025,-0.107,-0.123,-0.16
-0.073,-0.031,0.042,0.052,-0.058,0.006,0.036,-0.005,-0.025,-0.102,-0.12,-0.16
-0.062,-0.03,0.032,0.046,-0.047,0.001,0.028,-0.005,-0.025,-0.099,-0.117,-0.16
-0.063,-0.03,0.033,0.046,-0.048,0.002,0.028,-0.005,-0.026,-0.096,-0.115,-0.16
-0.071,-0.025,0.046,0.048,-0.058,0.01,0.036,-0.005,-0.024,-0.091,-0.115,-0.16
-0.075,-0.025,0.05,0.05,-0.062,0.012,0.035,-0.002,-0.02,-0.091,-0.115,-0.159
-0.086,-0.024,0.062,0.055,-0.073,0.019,0.034,0.001,-0.015,-0.098,-0.115,-0.155
-0.083,-0.016,0.068,0.049,-0.075,0.026,0.032,0.004,-0.013,-0.096,-0.115,-0.152
-0.066,-0.005,0.061,0.035,-0.064,0.028,0.028,0.008,-0.008,-0.087,-0.115,-0.149
-0.06,0.004,0.065,0.028,-0.063,0.034,0.034,0.01,-0.006,-0.081,-0.115,-0.144
-0.031,0.023,0.054,0.004,-0.042,0.038,0.034,0.014,0.002,-0.075,-0.105,-0.141
-0.018,0.059,0.077,-0.021,-0.048,0.068,0.053,0.05,0.022,-0.075,-0.097,-0.137
-0.034,0.075,0.109,-0.021,-0.072,0.092,0.066,0.073,0.022,-0.075,-0.101,-0.133
0.008,0.076,0.068,-0.042,-0.031,0.072,0.012,0.06,0.009,-0.074,-0.103,-0.13
0.029,0.068,0.039,-0.049,-0.006,0.053,-0.017,0.055,-0.002,-0.076,-0.106,-0.127
0.003,0.036,0.033,-0.02,-0.016,0.035,-0.004,0.027,-0.013,-0.074,-0.11,-0.122
0.018,0.017,-0.002,-0.018,0.01,0.008,0.004,0.003,-0.019,-0.072,-0.11,-0.119
0.018,0.014,-0.003,-0.016,0.01,0.006,0.016,0.004,-0.025,-0.068,-0.116,-0.115
-0.024,0.006,0.03,0.009,-0.027,0.017,0.024,-0.011,-0.033,-0.076,-0.122,-0.119
-0.04,0.0,0.041,0.019,-0.041,0.02,0.043,-0.003,-0.037,-0.097,-0.124,-0.143
-0.072,-0.012,0.059,0.042,-0.065,0.023,0.045,-0.027,-0.037,-0.096,-0.118,-0.144
-0.106,-0.049,0.057,0.077,-0.081,0.004,0.044,-0.008,-0.032,-0.094,-0.118,-0.141
-0.102,-0.05,0.052,0.076,-0.077,0.001,0.04,-0.02,-0.035,-0.093,-0.114,-0.141
-0.098,-0.05,0.048,0.074,-0.073,-0.001,0.038,0.006,-0.027,-0.087,-0.108,-0.137
-0.093,-0.046,0.047,0.069,-0.07,0.0,0.057,0.034,-0.025,-0.086,-0.116,-0.146
-0.106,0.015,0.122,0.046,-0.114,0.068,0.101,0.174,0.074,-0.015,-0.063,-0.114
0.041,0.234,0.193,-0.138,-0.076,0.214,0.061,0.309,0.351,0.254,0.186,0.098
0.43,0.52,0.09,-0.475,0.17,0.304,-0.285,-0.679,0.455,0.588,0.61,0.546
0.472,0.228,-0.244,-0.35,0.358,-0.008,-0.62,-1.705,-0.01,0.285,0.391,0.448
0.126,-0.317,-0.443,0.095,0.285,-0.38,-0.658,-1.671,-0.609,-0.39,-0.29,-0.141
-0.01,-0.388,-0.378,0.199,0.184,-0.383,-0.506,-1.183,-0.623,-0.499,-0.414,-0.286
-0.019,-0.256,-0.237,0.138,0.109,-0.246,-0.246,-0.581,-0.358,-0.334,-0.3,-0.235
-0.04,-0.105,-0.065,0.073,0.013,-0.085,-0.066,-0.22,-0.17,-0.198,-0.208,-0.187
-0.051,-0.025,0.026,0.038,-0.038,0.0,0.006,-0.038,-0.055,-0.103,-0.133,-0.138
-0.083,-0.015,0.068,0.048,-0.075,0.026,0.043,0.017,-0.038,-0.091,-0.118,-0.134
-0.072,0.007,0.079,0.032,-0.076,0.043,0.056,0.041,-0.018,-0.072,-0.093,-0.108
-0.065,0.007,0.072,0.028,-0.069,0.039,0.052,0.059,-0.011,-0.074,-0.098,-0.111
-0.057,0.02,0.077,0.018,-0.067,0.048,0.067,0.058,-0.001,-0.065,-0.09,-0.104
-0.053,0.02,0.074,0.016,-0.063,0.046,0.079,0.08,0.006,-0.06,-0.09,-0.102
-0.058,0.018,0.076,0.019,-0.067,0.046,0.071,0.08,0.009,-0.056,-0.086,-0.098
-0.047,0.027,0.075,0.009,-0.061,0.051,0.072,0.089,0.017,-0.047,-0.084,-0.094
-0.058,0.029,0.087,0.014,-0.072,0.058,0.067,0.094,0.021,-0.038,-0.08,-0.09
-0.052,0.038,0.09,0.007,-0.071,0.064,0.065,0.1,0.026,-0.026,-0.071,-0.083
-0.029,0.051,0.081,-0.011,-0.055,0.066,0.062,0.107,0.035,-0.019,-0.067,-0.078
-0.04,0.04,0.08,0.0,-0.06,0.06,0.053,0.118,0.044,-0.013,-0.058,-0.072
-0.019,0.053,0.073,-0.017,-0.046,0.063,0.045,0.12,0.057,-0.017,-0.052,-0.064
0.017,0.087,0.07,-0.052,-0.027,0.078,0.036,0.138,0.067,0.006,-0.033,-0.042
0.011,0.097,0.086,-0.054,-0.038,0.091,0.028,0.158,0.075,0.031,-0.012,-0.023
0.016,0.117,0.101,-0.067,-0.043,0.109,0.021,0.174,0.109,0.056,0.022,0.0
0.043,0.148,0.104,-0.096,-0.031,0.126,0.015,0.205,0.15,0.096,0.058,0.035
0.083,0.188,0.105,-0.136,-0.011,0.146,0.006,0.226,0.187,0.135,0.088,0.066
0.117,0.227,0.11,-0.172,0.004,0.168,-0.011,0.247,0.228,0.189,0.142,0.116
0.163,0.272,0.109,-0.217,0.027,0.19,-0.035,0.265,0.274,0.24,0.19,0.173
0.216,0.326,0.11,-0.272,0.053,0.218,-0.046,0.271,0.306,0.286,0.239,0.209
0.222,0.319,0.097,-0.27,0.062,0.208,-0.054,0.268,0.315,0.306,0.264,0.227
0.23,0.331,0.102,-0.281,0.064,0.216,-0.052,0.274,0.339,0.317,0.265,0.257
0.231,0.348,0.116,-0.29,0.057,0.232,-0.038,0.273,0.345,0.32,0.244,0.265
0.187,0.279,0.093,-0.233,0.046,0.186,-0.027,0.238,0.299,0.27,0.198,0.219
0.134,0.224,0.09,-0.179,0.022,0.157,-0.011,0.199,0.243,0.213,0.16,0.166
0.103,0.172,0.069,-0.138,0.017,0.12,0.001,0.163,0.19,0.152,0.11,0.12
0.071,0.119,0.048,-0.096,0.012,0.083,0.013,0.132,0.14,0.105,0.061,0.08
0.03,0.064,0.034,-0.048,-0.002,0.049,0.023,0.102,0.096,0.061,0.02,0.043
0.018,0.035,0.017,-0.027,0.0,0.025,0.028,0.079,0.058,0.012,-0.013,0.02
-0.022,0.003,0.025,0.009,-0.024,0.014,0.04,0.072,0.036,-0.006,-0.035,0.02
0.007,0.005,-0.002,-0.006,0.004,0.002,0.048,0.062,0.035,-0.012,-0.04,0.02
0.043,0.027,-0.016,-0.035,0.029,0.006,0.061,0.054,0.034,-0.022,-0.039,0.019
-0.051,-0.045,0.006,0.048,-0.029,-0.019,0.07,0.05,0.02,-0.041,-0.052,0.015
-0.042,-0.038,0.004,0.04,-0.023,-0.017,0.072,0.047,0.006,-0.043,-0.052,0.015
-0.002,-0.007,-0.005,0.004,0.002,-0.006,0.076,0.045,-0.004,-0.035,-0.043,0.015
-0.007,-0.009,-0.003,0.008,-0.002,-0.006,0.074,0.041,-0.005,-0.031,-0.038,0.014
0.029,0.006,-0.023,-0.018,0.026,-0.008,0.075,0.04,-0.005,-0.025,-0.03,0.021
0.041,0.009,-0.032,-0.025,0.036,-0.012,0.075,0.037,-0.005,-0.02,-0.025,0.035
0.041,0.019,-0.022,-0.029,0.031,-0.002,0.074,0.034,-0.005,-0.016,-0.021,0.04
0.038,0.02,-0.018,-0.028,0.028,0.001,0.076,0.036,-0.006,-0.01,-0.018,0.04
0.022,0.021,-0.001,-0.021,0.011,0.01,0.07,0.034,-0.011,-0.017,-0.027,0.04
0.016,0.018,0.002,-0.017,0.007,0.01,0.076,0.036,-0.014,-0.041,-0.038,0.04
0.034,0.028,-0.006,-0.031,0.02,0.011,0.092,0.034,-0.018,-0.047,-0.048,0.04
0.033,0.02,-0.012,-0.026,0.022,0.004,0.088,0.025,-0.021,-0.044,-0.047,0.037
0.036,0.016,-0.02,-0.026,0.028,-0.002,0.085,0.017,-0.027,-0.047,-0.047,0.032
0.041,0.034,-0.007,-0.037,0.024,0.013,0.083,0.007,-0.017,-0.043,-0.043,0.03
0.067,0.049,-0.019,-0.058,0.043,0.015,0.079,0.015,-0.003,-0.048,-0.038,0.025
0.072,0.037,-0.035,-0.054,0.053,0.001,0.083,0.02,-0.023,-0.071,-0.066,0.022
0.027,0.004,-0.023,-0.015,0.025,-0.01,0.085,0.01,-0.039,-0.077,-0.073,0.018
0.04,0.012,-0.028,-0.026,0.034,-0.007,0.08,0.005,-0.041,-0.074,-0.068,0.015
0.013,0.01,-0.003,-0.012,0.008,0.003,0.08,-0.003,-0.044,-0.076,-0.071,0.015
-0.005,0.01,0.016,-0.003,-0.011,0.013,0.078,-0.009,-0.047,-0.074,-0.069,0.012
-0.002,0.008,0.009,-0.003,-0.006,0.008,0.075,-0.006,-0.05,-0.077,-0.069,0.01
-0.03,0.004,0.035,0.012,-0.033,0.019,0.074,-0.005,-0.051,-0.08,-0.064,0.008
-0.031,0.006,0.037,0.012,-0.034,0.021,0.084,-0.004,-0.055,-0.08,-0.065,0.023
-0.019,0.007,0.026,0.006,-0.023,0.016,0.091,-0.001,-0.055,-0.08,-0.065,0.038
-0.004,0.018,0.021,-0.007,-0.013,0.019,0.09,0.001,-0.055,-0.08,-0.065,0.032
-0.03,-0.019,0.011,0.024,-0.02,-0.004,0.088,-0.002,-0.058,-0.08,-0.065,0.029
0.004,0.011,0.007,-0.008,-0.001,0.009,0.084,-0.007,-0.063,-0.076,-0.061,0.026
0.011,-0.002,-0.013,-0.005,0.012,-0.007,0.086,-0.006,-0.064,-0.071,-0.056,0.021
-0.017,-0.044,-0.026,0.031,0.005,-0.035,0.081,-0.005,-0.06,-0.066,-0.051,0.021
0.0,-0.011,-0.01,0.006,0.005,-0.01,0.081,-0.003,-0.06,-0.063,-0.047,0.03
-0.009,-0.011,-0.001,0.01,-0.004,-0.006,0.078,0.0,-0.06,-0.056,-0.043,0.039
0.004,-0.009,-0.013,0.003,0.009,-0.011,0.087,0.0,-0.06,-0.057,-0.038,0.041
-0.016,-0.031,-0.014,0.024,-0.001,-0.022,0.107,-0.005,-0.06,-0.061,-0.036,0.039
-0.011,-0.018,-0.007,0.014,-0.001,-0.013,0.099,-0.003,-0.064,-0.059,-0.032,0.044
-0.015,-0.023,-0.007,0.019,-0.004,-0.015,0.096,-0.012,-0.07,-0.061,-0.03,0.051
-0.069,-0.068,0.001,0.069,-0.035,-0.034,0.091,-0.025,-0.069,-0.059,-0.026,0.05
-0.049,-0.052,-0.004,0.05,-0.022,-0.028,0.087,-0.019,-0.071,-0.061,-0.024,0.049
-0.011,-0.039,-0.028,0.025,0.008,-0.033,0.082,-0.013,-0.068,-0.057,-0.037,0.046
-0.009,-0.041,-0.031,0.025,0.011,-0.036,0.073,-0.009,-0.072,-0.057,-0.04,0.044
0.027,0.002,-0.025,-0.014,0.026,-0.011,0.094,-0.001,-0.067,-0.053,-0.034,0.046
-0.013,-0.036,-0.023,0.025,0.005,-0.029,0.097,-0.004,-0.071,-0.053,-0.032,0.051
-0.057,-0.075,-0.018,0.066,-0.019,-0.046,0.084,-0.017,-0.09,-0.064,-0.028,0.054
-0.016,-0.031,-0.015,0.024,-0.001,-0.022,0.082,-0.007,-0.09,-0.062,-0.023,0.059
-0.021,-0.041,-0.02,0.031,0.0,-0.03,0.073,-0.001,-0.09,-0.059,-0.022,0.059
0.008,-0.022,-0.03,0.008,0.019,-0.026,0.074,0.011,-0.082,-0.052,-0.013,0.061
0.0,-0.039,-0.039,0.02,0.02,-0.038,0.064,0.013,-0.091,-0.056,-0.015,0.057
0.029,0.006,-0.022,-0.017,0.026,-0.008,0.07,0.023,-0.065,-0.03,0.004,0.066
0.022,0.019,-0.002,-0.021,0.012,0.008,0.105,0.072,-0.06,-0.03,0.042,0.097
-0.045,-0.028,0.017,0.036,-0.031,-0.006,0.099,0.076,-0.073,-0.037,0.03,0.102
-0.003,0.04,0.043,-0.019,-0.023,0.041,0.085,0.076,-0.045,-0.001,0.036,0.098
0.053,0.062,0.009,-0.057,0.022,0.035,0.075,0.088,-0.052,-0.002,0.058,0.103
0.075,0.054,-0.02,-0.064,0.047,0.017,0.043,0.082,-0.049,0.004,0.05,0.106
0.053,0.014,-0.038,-0.033,0.045,-0.012,0.027,0.067,-0.057,0.004,0.037,0.102
0.054,-0.02,-0.073,-0.017,0.064,-0.046,0.036,0.025,-0.081,-0.007,0.03,0.1
0.066,-0.004,-0.07,-0.031,0.068,-0.037,0.056,0.021,-0.08,-0.013,0.021,0.095
0.067,0.006,-0.061,-0.036,0.064,-0.027,0.054,0.007,-0.088,-0.022,0.017,0.092
0.02,-0.039,-0.059,0.01,0.04,-0.049,0.06,0.007,-0.088,-0.03,0.005,0.074
0.014,-0.038,-0.053,0.013,0.034,-0.045,0.078,-0.004,-0.095,-0.033,0.003,0.061
-0.019,-0.072,-0.053,0.046,0.017,-0.063,0.087,-0.011,-0.104,-0.04,0.01,0.074
-0.046,-0.094,-0.048,0.07,0.001,-0.071,0.086,0.002,-0.095,-0.034,0.007,0.063
-0.004,-0.05,-0.045,0.027,0.021,-0.047,0.07,-0.005,-0.09,-0.024,0.019,0.061
-0.061,-0.108,-0.047,0.085,-0.007,-0.078,0.08,0.049,-0.095,-0.045,0.002,0.041
-0.052,-0.053,-0.002,0.053,-0.025,-0.027,0.096,0.093,-0.047,0.004,0.034,0.05
0.001,0.088,0.087,-0.045,-0.043,0.087,0.12,0.371,0.186,0.185,0.195,0.16
0.306,0.395,0.09,-0.351,0.108,0.242,-0.096,-0.108,0.422,0.569,0.613,0.581
0.573,0.384,-0.189,-0.479,0.381,0.097,-0.476,-1.358,0.171,0.561,0.71,0.786
0.24,-0.198,-0.438,-0.021,0.339,-0.317,-0.607,-1.737,-0.5,-0.118,0.063,0.241
-0.001,-0.434,-0.434,0.218,0.217,-0.433,-0.541,-1.393,-0.755,-0.448,-0.271,-0.102
0.023,-0.346,-0.369,0.162,0.196,-0.357,-0.311,-0.784,-0.511,-0.322,-0.173,-0.045
-0.005,-0.201,-0.195,0.103,0.095,-0.198,-0.08,-0.303,-0.29,-0.183,-0.092,-0.014
-0.023,-0.093,-0.07,0.058,0.024,-0.081,0.017,-0.095,-0.155,-0.072,0.015,0.034
-0.042,-0.094,-0.052,0.068,0.005,-0.072,0.064,0.019,-0.12,-0.045,0.035,0.056
-0.01,-0.046,-0.037,0.028,0.014,-0.041,0.073,0.055,-0.094,-0.023,0.047,0.064
0.002,-0.033,-0.035,0.016,0.019,-0.034,0.082,0.085,-0.065,-0.016,0.064,0.074
-0.014,-0.041,-0.027,0.028,0.006,-0.034,0.08,0.08,-0.066,-0.005,0.07,0.08
-0.012,-0.038,-0.026,0.026,0.007,-0.032,0.08,0.091,-0.057,0.01,0.071,0.075
-0.01,-0.032,-0.022,0.021,0.006,-0.027,0.081,0.096,-0.055,0.018,0.077,0.094
-0.006,-0.023,-0.017,0.015,0.006,-0.02,0.079,0.101,-0.047,0.029,0.081,0.109
-0.004,-0.019,-0.015,0.012,0.006,-0.017,0.079,0.107,-0.043,0.033,0.08,0.105
0.008,-0.011,-0.019,0.001,0.014,-0.015,0.073,0.11,-0.037,0.037,0.092,0.116
0.013,-0.008,-0.02,-0.002,0.017,-0.014,0.071,0.115,-0.029,0.044,0.099,0.133
0.023,0.003,-0.02,-0.013,0.021,-0.008,0.066,0.119,-0.023,0.06,0.117,0.14
0.036,0.017,-0.02,-0.027,0.028,-0.001,0.062,0.131,-0.016,0.063,0.129,0.141
0.05,0.03,-0.021,-0.04,0.035,0.004,0.059,0.137,0.001,0.08,0.143,0.155
0.057,0.04,-0.017,-0.049,0.037,0.011,0.051,0.146,0.023,0.106,0.161,0.167
0.058,0.049,-0.009,-0.054,0.034,0.02,0.038,0.167,0.041,0.127,0.183,0.174
0.085,0.082,-0.002,-0.083,0.043,0.04,0.027,0.184,0.072,0.166,0.216,0.2
0.117,0.122,0.004,-0.12,0.056,0.063,0.013,0.203,0.113,0.207,0.248,0.242
0.172,0.159,-0.013,-0.165,0.093,0.072,-0.007,0.226,0.153,0.25,0.297,0.288
0.224,0.202,-0.021,-0.213,0.122,0.09,-0.025,0.239,0.195,0.305,0.349,0.333
0.256,0.244,-0.013,-0.25,0.134,0.115,-0.046,0.24,0.239,0.358,0.395,0.376
0.282,0.274,-0.008,-0.277,0.145,0.133,-0.057,0.24,0.266,0.393,0.43,0.411
0.272,0.27,-0.002,-0.271,0.137,0.134,-0.05,0.24,0.268,0.394,0.438,0.408
0.256,0.26,0.004,-0.259,0.126,0.132,-0.051,0.24,0.254,0.386,0.431,0.394
0.23,0.24,0.01,-0.236,0.11,0.125,-0.048,0.24,0.239,0.368,0.407,0.377
0.21,0.211,0.001,-0.211,0.105,0.106,-0.02,0.229,0.209,0.321,0.358,0.343
0.157,0.146,-0.011,-0.151,0.084,0.067,0.008,0.207,0.155,0.26,0.294,0.284
0.089,0.067,-0.022,-0.078,0.055,0.022,0.026,0.171,0.105,0.207,0.235,0.224
0.078,0.032,-0.046,-0.055,0.062,-0.007,0.034,0.135,0.059,0.157,0.189,0.193
0.057,-0.009,-0.065,-0.024,0.061,-0.037,0.036,0.113,0.023,0.112,0.154,0.158
0.023,-0.03,-0.053,0.004,0.038,-0.041,0.04,0.099,0.012,0.093,0.139,0.135
0.003,-0.049,-0.052,0.024,0.028,-0.051,0.04,0.088,0.008,0.083,0.131,0.135
0.014,-0.068,-0.083,0.027,0.049,-0.075,0.04,0.079,0.002,0.078,0.129,0.13
0.025,-0.057,-0.081,0.016,0.053,-0.069,0.035,0.08,-0.004,0.075,0.13,0.129
0.015,-0.055,-0.071,0.02,0.043,-0.063,0.035,0.079,-0.009,0.07,0.125,0.124
0.017,-0.05,-0.068,0.017,0.043,-0.059,0.034,0.075,-0.007,0.065,0.125,0.128
0.014,-0.044,-0.057,0.015,0.036,-0.05,0.029,0.075,-0.002,0.069,0.126,0.143
0.006,-0.051,-0.057,0.023,0.032,-0.054,0.026,0.072,0.001,0.077,0.13,0.146
0.016,-0.053,-0.069,0.019,0.042,-0.061,0.023,0.069,0.004,0.079,0.13,0.149
0.03,-0.041,-0.071,0.005,0.051,-0.056,0.018,0.07,0.009,0.084,0.13,0.149
0.022,-0.048,-0.069,0.013,0.046,-0.058,0.014,0.07,0.009,0.1,0.142,0.144
0.008,-0.06,-0.068,0.026,0.038,-0.064,0.029,0.07,0.002,0.101,0.142,0.146
0.007,-0.057,-0.064,0.025,0.036,-0.06,0.037,0.07,-0.003,0.091,0.135,0.142
0.014,-0.051,-0.065,0.019,0.039,-0.058,0.034,0.065,-0.008,0.086,0.131,0.14
0.027,-0.047,-0.074,0.011,0.051,-0.06,0.033,0.065,-0.014,0.077,0.124,0.14
0.038,-0.043,-0.082,0.002,0.061,-0.062,0.029,0.064,-0.019,0.071,0.12,0.137
0.041,-0.037,-0.079,-0.002,0.06,-0.058,0.03,0.059,-0.017,0.065,0.115,0.132
0.03,-0.054,-0.084,0.012,0.057,-0.069,0.026,0.06,-0.015,0.06,0.111,0.129
0.019,-0.067,-0.086,0.024,0.053,-0.076,0.024,0.057,-0.015,0.056,0.109,0.125
0.024,-0.06,-0.083,0.019,0.053,-0.071,0.026,0.054,-0.01,0.051,0.104,0.122
0.036,-0.058,-0.094,0.012,0.065,-0.076,0.024,0.056,-0.01,0.047,0.101,0.118
0.029,-0.053,-0.082,0.012,0.056,-0.067,0.026,0.051,-0.011,0.042,0.097,0.115
0.029,-0.051,-0.08,0.011,0.055,-0.065,0.023,0.05,-0.015,0.04,0.095,0.115
0.042,-0.048,-0.09,0.003,0.066,-0.069,0.02,0.049,-0.02,0.036,0.095,0.115
0.023,-0.057,-0.08,0.017,0.051,-0.068,0.02,0.046,-0.022,0.035,0.092,0.115
0.005,-0.07,-0.075,0.033,0.04,-0.072,0.02,0.043,-0.027,0.03,0.089,0.115
0.003,-0.064,-0.067,0.031,0.035,-0.065,0.02,0.04,-0.03,0.03,0.091,0.119
0.005,-0.057,-0.062,0.026,0.034,-0.059,0.019,0.038,-0.027,0.049,0.094,0.12
0.01,-0.053,-0.063,0.022,0.037,-0.057,0.018,0.034,-0.024,0.057,0.095,0.122
0.02,-0.042,-0.061,0.011,0.041,-0.051,0.013,0.039,-0.022,0.054,0.094,0.125
0.005,-0.033,-0.038,0.015,0.022,-0.036,0.02,0.044,-0.016,0.056,0.097,0.125
0.024,-0.007,-0.031,-0.008,0.027,-0.018,0.041,0.058,0.001,0.071,0.117,0.135
0.082,0.04,-0.041,-0.06,0.061,0.0,0.05,0.09,0.024,0.087,0.132,0.137
0.093,0.044,-0.049,-0.068,0.071,-0.003,0.022,0.103,0.037,0.09,0.127,0.129
0.077,0.031,-0.046,-0.054,0.061,-0.007,-0.025,0.087,0.034,0.092,0.123,0.126
0.078,0.012,-0.067,-0.045,0.072,-0.027,-0.028,0.076,0.015,0.086,0.118,0.119
0.12,-0.015,-0.135,-0.052,0.128,-0.075,-0.017,0.057,-0.022,0.075,0.114,0.114
0.097,-0.039,-0.136,-0.029,0.117,-0.087,-0.014,0.044,-0.031,0.064,0.11,0.109
0.067,-0.052,-0.119,-0.007,0.094,-0.086,-0.004,0.04,-0.029,0.052,0.105,0.101
0.037,-0.06,-0.098,0.012,0.068,-0.079,-0.002,0.025,-0.032,0.046,0.102,0.094
-0.032,-0.098,-0.066,0.065,0.017,-0.082,0.008,0.032,-0.024,0.045,0.097,0.083
-0.027,-0.098,-0.071,0.063,0.022,-0.084,0.009,0.004,-0.028,0.044,0.096,0.079
-0.037,-0.094,-0.057,0.065,0.011,-0.075,0.019,0.025,-0.02,0.039,0.089,0.068
-0.018,-0.091,-0.072,0.055,0.027,-0.081,0.02,0.005,-0.032,0.04,0.093,0.067
0.003,-0.086,-0.089,0.041,0.047,-0.087,0.03,0.042,-0.014,0.043,0.1,0.057
-0.038,-0.085,-0.047,0.062,0.005,-0.066,0.047,0.071,0.003,0.048,0.102,0.058
-0.036,-0.02,0.016,0.027,-0.025,-0.002,0.063,0.234,0.108,0.133,0.151,0.099
0.143,0.221,0.079,-0.182,0.032,0.149,-0.001,0.344,0.414,0.447,0.457,0.358
0.521,0.453,-0.068,-0.487,0.294,0.192,-0.328,-0.7,0.457,0.741,0.85,0.784
0.475,0.098,-0.377,-0.286,0.426,-0.139,-0.61,-1.655,-0.072,0.327,0.494,0.558
0.096,-0.402,-0.498,0.153,0.297,-0.449,-0.648,-1.604,-0.627,-0.302,-0.133,0.002
0.016,-0.437,-0.453,0.211,0.235,-0.445,-0.498,-1.112,-0.594,-0.351,-0.185,-0.089
0.013,-0.302,-0.315,0.144,0.164,-0.308,-0.241,-0.495,-0.315,-0.19,-0.081,-0.041
-0.012,-0.169,-0.157,0.091,0.073,-0.163,-0.091,-0.174,-0.135,-0.049,0.025,0.023
-0.024,-0.109,-0.086,0.067,0.031,-0.097,-0.018,0.01,-0.047,0.035,0.093,0.079
-0.01,-0.078,-0.068,0.045,0.029,-0.073,0.014,0.059,-0.023,0.047,0.099,0.082
-0.003,-0.051,-0.048,0.027,0.023,-0.05,0.038,0.074,0.003,0.066,0.129,0.092
0.0,-0.052,-0.051,0.026,0.025,-0.051,0.054,0.096,0.012,0.085,0.122,0.093
0.015,-0.045,-0.06,0.016,0.038,-0.053,0.045,0.094,0.028,0.098,0.126,0.101
-0.012,-0.045,-0.034,0.029,0.012,-0.039,0.045,0.114,0.036,0.093,0.127,0.1
0.013,-0.04,-0.053,0.014,0.033,-0.046,0.039,0.106,0.035,0.096,0.133,0.098
0.019,-0.04,-0.058,0.011,0.039,-0.049,0.036,0.113,0.033,0.094,0.143,0.105
0.012,-0.031,-0.043,0.01,0.027,-0.037,0.032,0.117,0.041,0.096,0.138,0.113
0.029,-0.018,-0.047,-0.005,0.039,-0.033,0.024,0.123,0.043,0.092,0.147,0.119
0.035,-0.008,-0.043,-0.013,0.039,-0.025,0.018,0.129,0.056,0.105,0.159,0.138
0.049,0.002,-0.047,-0.025,0.048,-0.022,0.01,0.131,0.066,0.12,0.162,0.147
0.059,0.016,-0.043,-0.037,0.051,-0.013,0.003,0.137,0.069,0.122,0.18,0.144
0.069,0.029,-0.04,-0.049,0.054,-0.005,-0.004,0.154,0.1,0.147,0.203,0.162
0.085,0.05,-0.036,-0.067,0.06,0.007,-0.011,0.173,0.118,0.174,0.219,0.184
0.103,0.071,-0.032,-0.087,0.067,0.019,-0.02,0.189,0.134,0.193,0.241,0.206
0.116,0.086,-0.03,-0.101,0.073,0.028,-0.027,0.209,0.176,0.232,0.28,0.239
0.155,0.134,-0.021,-0.144,0.088,0.056,-0.051,0.237,0.22,0.282,0.324,0.279
0.22,0.177,-0.043,-0.198,0.131,0.067,-0.076,0.256,0.266,0.334,0.375,0.324
0.274,0.232,-0.042,-0.253,0.158,0.095,-0.085,0.268,0.311,0.391,0.435,0.381
0.314,0.283,-0.031,-0.298,0.172,0.126,-0.096,0.277,0.342,0.428,0.477,0.423
0.313,0.284,-0.029,-0.299,0.171,0.127,-0.097,0.273,0.36,0.448,0.495,0.435
